Data from Absorbance_00073.txt Node
Date: Fri Aug 11 13:35:41 MSK 2023
User: vat
Spectrometer: MAYP114033
Trigger mode: 0
Integration Time (sec): 8,000000E-3
Scans to average: 10
Electric dark correction enabled: true
Nonlinearity correction enabled: false
Boxcar width: 3
XAxis mode: Wavelengths
Number of Pixels in Spectrum: 2068
>>>>>Begin Spectral Data<<<<<
199,4	-0
199,9	0,048
200,4	0,396
200,8	0,711
201,3	0,883
201,8	0,948
202,2	0,964
202,7	0,994
203,2	1,045
203,6	1,073
204,1	1,099
204,6	1,105
205	1,119
205,5	1,131
206	1,145
206,4	1,139
206,9	1,16
207,4	1,171
207,8	1,177
208,3	1,199
208,8	1,223
209,2	1,225
209,7	1,236
210,2	1,245
210,6	1,261
211,1	1,284
211,5	1,285
212	1,297
212,5	1,332
212,9	1,378
213,4	1,393
213,9	1,399
214,3	1,398
214,8	1,421
215,3	1,441
215,7	1,445
216,2	1,439
216,7	1,46
217,1	1,486
217,6	1,514
218,1	1,519
218,5	1,523
219	1,54
219,5	1,545
219,9	1,553
220,4	1,565
220,9	1,563
221,3	1,59
221,8	1,608
222,3	1,622
222,7	1,647
223,2	1,667
223,6	1,68
224,1	1,703
224,6	1,717
225	1,735
225,5	1,744
226	1,756
226,4	1,759
226,9	1,765
227,4	1,781
227,8	1,781
228,3	1,796
228,8	1,801
229,2	1,815
229,7	1,841
230,2	1,836
230,6	1,867
231,1	1,865
231,5	1,894
232	1,91
232,5	1,925
232,9	1,912
233,4	1,943
233,9	1,934
234,3	1,945
234,8	1,927
235,3	1,932
235,7	1,941
236,2	1,977
236,7	2
237,1	2,007
237,6	2,037
238,1	2,042
238,5	2,054
239	2,056
239,4	2,043
239,9	2,04
240,4	2,044
240,8	2,039
241,3	2,041
241,8	2,063
242,2	2,069
242,7	2,071
243,2	2,074
243,6	2,081
244,1	2,1
244,6	2,108
245	2,092
245,5	2,097
245,9	2,103
246,4	2,096
246,9	2,096
247,3	2,085
247,8	2,071
248,3	2,079
248,7	2,08
249,2	2,07
249,7	2,069
250,1	2,087
250,6	2,08
251	2,11
251,5	2,1
252	2,097
252,4	2,133
252,9	2,149
253,4	2,135
253,8	2,148
254,3	2,14
254,8	2,152
255,2	2,168
255,7	2,139
256,1	2,126
256,6	2,136
257,1	2,147
257,5	2,154
258	2,168
258,5	2,154
258,9	2,166
259,4	2,189
259,9	2,201
260,3	2,205
260,8	2,202
261,2	2,201
261,7	2,223
262,2	2,191
262,6	2,182
263,1	2,158
263,6	2,141
264	2,134
264,5	2,13
264,9	2,137
265,4	2,138
265,9	2,132
266,3	2,148
266,8	2,155
267,3	2,15
267,7	2,142
268,2	2,124
268,7	2,148
269,1	2,138
269,6	2,131
270	2,124
270,5	2,143
271	2,152
271,4	2,156
271,9	2,154
272,4	2,149
272,8	2,136
273,3	2,155
273,7	2,145
274,2	2,136
274,7	2,139
275,1	2,141
275,6	2,153
276,1	2,164
276,5	2,143
277	2,147
277,4	2,14
277,9	2,124
278,4	2,125
278,8	2,115
279,3	2,093
279,8	2,075
280,2	2,057
280,7	2,043
281,1	2,04
281,6	2,017
282,1	1,993
282,5	1,978
283	1,973
283,4	1,954
283,9	1,93
284,4	1,892
284,8	1,859
285,3	1,821
285,8	1,773
286,2	1,714
286,7	1,646
287,1	1,58
287,6	1,508
288,1	1,432
288,5	1,357
289	1,277
289,5	1,2
289,9	1,13
290,4	1,063
290,8	1,001
291,3	0,941
291,8	0,887
292,2	0,838
292,7	0,793
293,1	0,752
293,6	0,713
294,1	0,679
294,5	0,649
295	0,621
295,5	0,595
295,9	0,573
296,4	0,553
296,8	0,535
297,3	0,52
297,8	0,506
298,2	0,494
298,7	0,484
299,1	0,475
299,6	0,467
300,1	0,46
300,5	0,453
301	0,447
301,5	0,442
301,9	0,436
302,4	0,431
302,8	0,426
303,3	0,422
303,8	0,418
304,2	0,415
304,7	0,411
305,1	0,408
305,6	0,406
306,1	0,403
306,5	0,399
307	0,395
307,4	0,392
307,9	0,389
308,4	0,386
308,8	0,384
309,3	0,382
309,8	0,379
310,2	0,378
310,7	0,374
311,1	0,372
311,6	0,369
312,1	0,365
312,5	0,362
313	0,36
313,4	0,357
313,9	0,355
314,4	0,352
314,8	0,35
315,3	0,348
315,7	0,346
316,2	0,343
316,7	0,34
317,1	0,338
317,6	0,335
318	0,332
318,5	0,329
319	0,326
319,4	0,323
319,9	0,321
320,3	0,319
320,8	0,316
321,3	0,314
321,7	0,312
322,2	0,309
322,6	0,307
323,1	0,304
323,6	0,301
324	0,299
324,5	0,296
324,9	0,294
325,4	0,292
325,9	0,29
326,3	0,287
326,8	0,285
327,2	0,282
327,7	0,279
328,2	0,277
328,6	0,274
329,1	0,272
329,5	0,27
330	0,267
330,5	0,265
330,9	0,263
331,4	0,262
331,8	0,259
332,3	0,255
332,8	0,253
333,2	0,25
333,7	0,249
334,1	0,246
334,6	0,243
335,1	0,24
335,5	0,238
336	0,235
336,4	0,233
336,9	0,23
337,4	0,227
337,8	0,223
338,3	0,221
338,7	0,219
339,2	0,216
339,7	0,213
340,1	0,21
340,6	0,209
341	0,206
341,5	0,204
342	0,201
342,4	0,199
342,9	0,197
343,3	0,194
343,8	0,191
344,2	0,189
344,7	0,187
345,2	0,185
345,6	0,184
346,1	0,182
346,5	0,18
347	0,179
347,5	0,176
347,9	0,174
348,4	0,171
348,8	0,168
349,3	0,166
349,8	0,164
350,2	0,161
350,7	0,159
351,1	0,157
351,6	0,155
352	0,154
352,5	0,151
353	0,15
353,4	0,148
353,9	0,146
354,3	0,144
354,8	0,142
355,3	0,141
355,7	0,139
356,2	0,137
356,6	0,135
357,1	0,134
357,5	0,132
358	0,13
358,5	0,127
358,9	0,126
359,4	0,125
359,8	0,123
360,3	0,122
360,8	0,121
361,2	0,119
361,7	0,118
362,1	0,116
362,6	0,115
363	0,112
363,5	0,111
364	0,11
364,4	0,108
364,9	0,108
365,3	0,106
365,8	0,105
366,3	0,104
366,7	0,102
367,2	0,101
367,6	0,099
368,1	0,097
368,5	0,095
369	0,095
369,5	0,093
369,9	0,092
370,4	0,091
370,8	0,09
371,3	0,09
371,7	0,09
372,2	0,088
372,7	0,088
373,1	0,086
373,6	0,086
374	0,085
374,5	0,084
374,9	0,082
375,4	0,082
375,9	0,081
376,3	0,081
376,8	0,08
377,2	0,079
377,7	0,078
378,2	0,077
378,6	0,076
379,1	0,075
379,5	0,074
380	0,074
380,4	0,073
380,9	0,072
381,4	0,071
381,8	0,071
382,3	0,071
382,7	0,07
383,2	0,069
383,6	0,068
384,1	0,068
384,6	0,068
385	0,067
385,5	0,067
385,9	0,066
386,4	0,065
386,8	0,065
387,3	0,064
387,7	0,063
388,2	0,062
388,7	0,061
389,1	0,061
389,6	0,061
390	0,06
390,5	0,06
390,9	0,06
391,4	0,059
391,9	0,058
392,3	0,057
392,8	0,057
393,2	0,057
393,7	0,056
394,1	0,056
394,6	0,056
395,1	0,055
395,5	0,055
396	0,054
396,4	0,053
396,9	0,053
397,3	0,053
397,8	0,052
398,2	0,052
398,7	0,052
399,2	0,052
399,6	0,051
400,1	0,051
400,5	0,051
401	0,05
401,4	0,05
401,9	0,05
402,4	0,049
402,8	0,049
403,3	0,049
403,7	0,049
404,2	0,049
404,6	0,048
405,1	0,048
405,5	0,048
406	0,047
406,5	0,047
406,9	0,046
407,4	0,046
407,8	0,045
408,3	0,044
408,7	0,044
409,2	0,043
409,6	0,043
410,1	0,043
410,6	0,044
411	0,044
411,5	0,043
411,9	0,044
412,4	0,043
412,8	0,043
413,3	0,043
413,7	0,043
414,2	0,043
414,7	0,043
415,1	0,043
415,6	0,042
416	0,042
416,5	0,042
416,9	0,041
417,4	0,041
417,8	0,04
418,3	0,041
418,8	0,041
419,2	0,04
419,7	0,04
420,1	0,04
420,6	0,039
421	0,04
421,5	0,039
421,9	0,039
422,4	0,039
422,8	0,039
423,3	0,039
423,8	0,039
424,2	0,039
424,7	0,039
425,1	0,038
425,6	0,038
426	0,038
426,5	0,037
426,9	0,036
427,4	0,036
427,9	0,036
428,3	0,036
428,8	0,036
429,2	0,036
429,7	0,036
430,1	0,036
430,6	0,035
431	0,035
431,5	0,034
431,9	0,034
432,4	0,034
432,8	0,034
433,3	0,034
433,8	0,035
434,2	0,035
434,7	0,035
435,1	0,035
435,6	0,035
436	0,034
436,5	0,034
436,9	0,034
437,4	0,034
437,8	0,034
438,3	0,034
438,8	0,033
439,2	0,034
439,7	0,033
440,1	0,032
440,6	0,031
441	0,031
441,5	0,031
441,9	0,031
442,4	0,031
442,8	0,031
443,3	0,031
443,7	0,032
444,2	0,032
444,7	0,031
445,1	0,031
445,6	0,031
446	0,031
446,5	0,031
446,9	0,031
447,4	0,03
447,8	0,031
448,3	0,031
448,7	0,032
449,2	0,032
449,6	0,031
450,1	0,031
450,6	0,031
451	0,03
451,5	0,03
451,9	0,029
452,4	0,029
452,8	0,029
453,3	0,028
453,7	0,029
454,2	0,029
454,6	0,029
455,1	0,029
455,5	0,029
456	0,03
456,4	0,03
456,9	0,03
457,3	0,03
457,8	0,029
458,3	0,028
458,7	0,028
459,2	0,027
459,6	0,027
460,1	0,027
460,5	0,026
461	0,026
461,4	0,027
461,9	0,026
462,3	0,026
462,8	0,026
463,2	0,026
463,7	0,026
464,1	0,025
464,6	0,026
465	0,026
465,5	0,027
466	0,027
466,4	0,027
466,9	0,027
467,3	0,028
467,8	0,027
468,2	0,027
468,7	0,027
469,1	0,027
469,6	0,026
470	0,026
470,5	0,026
470,9	0,026
471,4	0,026
471,8	0,026
472,3	0,026
472,7	0,026
473,2	0,026
473,6	0,026
474,1	0,026
474,5	0,026
475	0,026
475,4	0,026
475,9	0,026
476,4	0,026
476,8	0,026
477,3	0,026
477,7	0,026
478,2	0,025
478,6	0,026
479,1	0,025
479,5	0,026
480	0,026
480,4	0,026
480,9	0,026
481,3	0,026
481,8	0,026
482,2	0,025
482,7	0,024
483,1	0,024
483,6	0,023
484	0,023
484,5	0,023
484,9	0,023
485,4	0,023
485,8	0,025
486,3	0,025
486,7	0,024
487,2	0,024
487,6	0,024
488,1	0,024
488,5	0,024
489	0,022
489,4	0,022
489,9	0,024
490,4	0,025
490,8	0,025
491,3	0,025
491,7	0,025
492,2	0,025
492,6	0,025
493,1	0,024
493,5	0,024
494	0,024
494,4	0,024
494,9	0,024
495,3	0,024
495,8	0,024
496,2	0,025
496,7	0,024
497,1	0,024
497,6	0,023
498	0,024
498,5	0,023
498,9	0,023
499,4	0,022
499,8	0,022
500,3	0,022
500,7	0,022
501,2	0,022
501,6	0,022
502,1	0,022
502,5	0,022
503	0,022
503,4	0,022
503,9	0,022
504,3	0,022
504,8	0,023
505,2	0,022
505,7	0,023
506,1	0,023
506,6	0,023
507	0,023
507,5	0,022
507,9	0,022
508,4	0,022
508,8	0,022
509,3	0,022
509,7	0,022
510,2	0,022
510,6	0,023
511,1	0,023
511,5	0,023
512	0,023
512,4	0,022
512,9	0,022
513,3	0,022
513,8	0,022
514,2	0,022
514,7	0,022
515,1	0,022
515,6	0,022
516	0,022
516,5	0,022
516,9	0,022
517,4	0,022
517,8	0,021
518,3	0,021
518,7	0,021
519,2	0,021
519,6	0,021
520,1	0,021
520,5	0,021
521	0,021
521,4	0,021
521,9	0,021
522,3	0,022
522,8	0,022
523,2	0,022
523,7	0,022
524,1	0,022
524,6	0,022
525	0,022
525,5	0,021
525,9	0,021
526,4	0,021
526,8	0,021
527,3	0,021
527,7	0,022
528,2	0,022
528,6	0,022
529,1	0,022
529,5	0,022
530	0,021
530,4	0,022
530,9	0,022
531,3	0,021
531,8	0,021
532,2	0,02
532,6	0,02
533,1	0,021
533,5	0,021
534	0,021
534,4	0,021
534,9	0,021
535,3	0,021
535,8	0,021
536,2	0,02
536,7	0,02
537,1	0,019
537,6	0,019
538	0,019
538,5	0,019
538,9	0,019
539,4	0,019
539,8	0,02
540,3	0,02
540,7	0,021
541,2	0,021
541,6	0,021
542,1	0,021
542,5	0,021
543	0,02
543,4	0,02
543,9	0,019
544,3	0,018
544,8	0,018
545,2	0,017
545,7	0,018
546,1	0,018
546,5	0,018
547	0,018
547,4	0,018
547,9	0,019
548,3	0,019
548,8	0,019
549,2	0,019
549,7	0,019
550,1	0,018
550,6	0,019
551	0,019
551,5	0,019
551,9	0,019
552,4	0,019
552,8	0,019
553,3	0,019
553,7	0,019
554,2	0,019
554,6	0,019
555,1	0,019
555,5	0,019
555,9	0,019
556,4	0,019
556,8	0,019
557,3	0,019
557,7	0,019
558,2	0,019
558,6	0,018
559,1	0,019
559,5	0,019
560	0,019
560,4	0,019
560,9	0,019
561,3	0,019
561,8	0,02
562,2	0,02
562,7	0,02
563,1	0,02
563,6	0,02
564	0,02
564,4	0,02
564,9	0,018
565,3	0,019
565,8	0,019
566,2	0,019
566,7	0,019
567,1	0,018
567,6	0,019
568	0,02
568,5	0,019
568,9	0,019
569,4	0,019
569,8	0,019
570,3	0,018
570,7	0,018
571,1	0,018
571,6	0,018
572	0,018
572,5	0,018
572,9	0,018
573,4	0,018
573,8	0,018
574,3	0,018
574,7	0,018
575,2	0,017
575,6	0,018
576,1	0,017
576,5	0,018
576,9	0,018
577,4	0,018
577,8	0,018
578,3	0,018
578,7	0,018
579,2	0,018
579,6	0,019
580,1	0,018
580,5	0,018
581	0,018
581,4	0,018
581,9	0,018
582,3	0,017
582,7	0,017
583,2	0,017
583,6	0,018
584,1	0,018
584,5	0,017
585	0,018
585,4	0,018
585,9	0,018
586,3	0,018
586,8	0,018
587,2	0,017
587,6	0,017
588,1	0,017
588,5	0,017
589	0,017
589,4	0,017
589,9	0,016
590,3	0,017
590,8	0,016
591,2	0,017
591,7	0,017
592,1	0,017
592,5	0,017
593	0,017
593,4	0,017
593,9	0,017
594,3	0,017
594,8	0,017
595,2	0,017
595,7	0,017
596,1	0,017
596,6	0,017
597	0,017
597,4	0,017
597,9	0,017
598,3	0,016
598,8	0,016
599,2	0,016
599,7	0,016
600,1	0,016
600,6	0,016
601	0,016
601,4	0,016
601,9	0,015
602,3	0,015
602,8	0,015
603,2	0,015
603,7	0,015
604,1	0,015
604,6	0,015
605	0,016
605,4	0,016
605,9	0,016
606,3	0,016
606,8	0,016
607,2	0,016
607,7	0,016
608,1	0,016
608,6	0,016
609	0,017
609,4	0,017
609,9	0,016
610,3	0,016
610,8	0,016
611,2	0,016
611,7	0,016
612,1	0,016
612,6	0,015
613	0,016
613,4	0,016
613,9	0,016
614,3	0,016
614,8	0,016
615,2	0,016
615,7	0,016
616,1	0,016
616,6	0,016
617	0,016
617,4	0,016
617,9	0,015
618,3	0,016
618,8	0,016
619,2	0,016
619,7	0,016
620,1	0,016
620,5	0,016
621	0,016
621,4	0,016
621,9	0,016
622,3	0,016
622,8	0,016
623,2	0,016
623,6	0,016
624,1	0,016
624,5	0,015
625	0,015
625,4	0,015
625,9	0,015
626,3	0,015
626,8	0,015
627,2	0,015
627,6	0,016
628,1	0,015
628,5	0,016
629	0,016
629,4	0,016
629,9	0,015
630,3	0,015
630,7	0,015
631,2	0,015
631,6	0,015
632,1	0,015
632,5	0,015
633	0,015
633,4	0,015
633,8	0,015
634,3	0,015
634,7	0,015
635,2	0,015
635,6	0,015
636,1	0,015
636,5	0,015
636,9	0,015
637,4	0,015
637,8	0,015
638,3	0,015
638,7	0,015
639,2	0,014
639,6	0,015
640	0,015
640,5	0,015
640,9	0,014
641,4	0,014
641,8	0,014
642,2	0,014
642,7	0,014
643,1	0,014
643,6	0,014
644	0,014
644,5	0,014
644,9	0,014
645,3	0,014
645,8	0,014
646,2	0,015
646,7	0,015
647,1	0,015
647,6	0,016
648	0,016
648,4	0,016
648,9	0,016
649,3	0,015
649,8	0,015
650,2	0,015
650,6	0,015
651,1	0,014
651,5	0,014
652	0,014
652,4	0,014
652,9	0,014
653,3	0,014
653,7	0,014
654,2	0,014
654,6	0,014
655,1	0,014
655,5	0,008
655,9	0,005
656,4	0,004
656,8	0,005
657,3	0,006
657,7	0,006
658,2	0,006
658,6	0,008
659	0,012
659,5	0,019
659,9	0,02
660,4	0,019
660,8	0,018
661,2	0,016
661,7	0,016
662,1	0,015
662,6	0,015
663	0,014
663,4	0,014
663,9	0,013
664,3	0,013
664,8	0,013
665,2	0,013
665,6	0,013
666,1	0,013
666,5	0,013
667	0,013
667,4	0,014
667,9	0,014
668,3	0,014
668,7	0,014
669,2	0,014
669,6	0,014
670,1	0,014
670,5	0,014
670,9	0,014
671,4	0,013
671,8	0,013
672,3	0,013
672,7	0,012
673,1	0,012
673,6	0,012
674	0,012
674,5	0,012
674,9	0,012
675,3	0,012
675,8	0,012
676,2	0,012
676,7	0,013
677,1	0,012
677,5	0,013
678	0,012
678,4	0,013
678,9	0,013
679,3	0,013
679,7	0,013
680,2	0,013
680,6	0,013
681,1	0,013
681,5	0,013
681,9	0,013
682,4	0,013
682,8	0,013
683,3	0,013
683,7	0,013
684,1	0,013
684,6	0,013
685	0,013
685,5	0,013
685,9	0,012
686,3	0,012
686,8	0,013
687,2	0,013
687,7	0,013
688,1	0,013
688,5	0,013
689	0,013
689,4	0,013
689,9	0,013
690,3	0,013
690,7	0,013
691,2	0,013
691,6	0,013
692	0,013
692,5	0,013
692,9	0,013
693,4	0,013
693,8	0,013
694,2	0,013
694,7	0,013
695,1	0,013
695,6	0,013
696	0,013
696,4	0,013
696,9	0,013
697,3	0,013
697,8	0,012
698,2	0,012
698,6	0,012
699,1	0,012
699,5	0,012
699,9	0,012
700,4	0,012
700,8	0,012
701,3	0,013
701,7	0,013
702,1	0,013
702,6	0,013
703	0,013
703,5	0,013
703,9	0,013
704,3	0,013
704,8	0,013
705,2	0,013
705,6	0,013
706,1	0,013
706,5	0,012
707	0,012
707,4	0,012
707,8	0,012
708,3	0,012
708,7	0,012
709,2	0,012
709,6	0,012
710	0,013
710,5	0,012
710,9	0,012
711,3	0,012
711,8	0,012
712,2	0,012
712,7	0,012
713,1	0,011
713,5	0,011
714	0,012
714,4	0,011
714,8	0,012
715,3	0,012
715,7	0,012
716,2	0,012
716,6	0,012
717	0,012
717,5	0,011
717,9	0,011
718,3	0,011
718,8	0,011
719,2	0,01
719,7	0,01
720,1	0,011
720,5	0,011
721	0,011
721,4	0,011
721,8	0,012
722,3	0,012
722,7	0,012
723,2	0,012
723,6	0,011
724	0,011
724,5	0,011
724,9	0,011
725,3	0,011
725,8	0,011
726,2	0,011
726,7	0,011
727,1	0,011
727,5	0,011
728	0,011
728,4	0,011
728,8	0,011
729,3	0,011
729,7	0,011
730,1	0,011
730,6	0,011
731	0,011
731,5	0,011
731,9	0,011
732,3	0,011
732,8	0,011
733,2	0,011
733,6	0,011
734,1	0,011
734,5	0,011
734,9	0,011
735,4	0,011
735,8	0,011
736,3	0,011
736,7	0,011
737,1	0,011
737,6	0,011
738	0,011
738,4	0,011
738,9	0,011
739,3	0,01
739,7	0,01
740,2	0,01
740,6	0,01
741,1	0,01
741,5	0,01
741,9	0,01
742,4	0,01
742,8	0,011
743,2	0,011
743,7	0,011
744,1	0,011
744,5	0,011
745	0,011
745,4	0,011
745,8	0,011
746,3	0,01
746,7	0,01
747,2	0,01
747,6	0,01
748	0,01
748,5	0,01
748,9	0,011
749,3	0,011
749,8	0,011
750,2	0,011
750,6	0,011
751,1	0,011
751,5	0,011
751,9	0,011
752,4	0,011
752,8	0,011
753,3	0,011
753,7	0,011
754,1	0,012
754,6	0,012
755	0,012
755,4	0,012
755,9	0,012
756,3	0,012
756,7	0,011
757,2	0,011
757,6	0,011
758	0,011
758,5	0,011
758,9	0,011
759,3	0,01
759,8	0,01
760,2	0,01
760,6	0,011
761,1	0,011
761,5	0,011
761,9	0,011
762,4	0,011
762,8	0,011
763,3	0,011
763,7	0,011
764,1	0,011
764,6	0,011
765	0,011
765,4	0,011
765,9	0,011
766,3	0,012
766,7	0,012
767,2	0,012
767,6	0,012
768	0,013
768,5	0,012
768,9	0,012
769,3	0,012
769,8	0,012
770,2	0,012
770,6	0,012
771,1	0,012
771,5	0,011
771,9	0,011
772,4	0,011
772,8	0,011
773,2	0,011
773,7	0,011
774,1	0,011
774,5	0,012
775	0,012
775,4	0,011
775,8	0,011
776,3	0,011
776,7	0,011
777,1	0,011
777,6	0,011
778	0,011
778,4	0,011
778,9	0,011
779,3	0,011
779,7	0,011
780,2	0,011
780,6	0,011
781	0,01
781,5	0,011
781,9	0,011
782,3	0,01
782,8	0,01
783,2	0,011
783,6	0,011
784,1	0,011
784,5	0,011
784,9	0,011
785,4	0,011
785,8	0,01
786,2	0,01
786,7	0,009
787,1	0,009
787,5	0,009
788	0,009
788,4	0,009
788,8	0,009
789,3	0,009
789,7	0,009
790,1	0,009
790,6	0,008
791	0,008
791,4	0,008
791,9	0,009
792,3	0,009
792,7	0,009
793,2	0,009
793,6	0,009
794	0,01
794,5	0,01
794,9	0,01
795,3	0,01
795,8	0,011
796,2	0,011
796,6	0,011
797,1	0,011
797,5	0,011
797,9	0,011
798,4	0,011
798,8	0,011
799,2	0,011
799,7	0,011
800,1	0,01
800,5	0,01
801	0,009
801,4	0,009
801,8	0,008
802,2	0,008
802,7	0,008
803,1	0,009
803,5	0,009
804	0,009
804,4	0,01
804,8	0,009
805,3	0,009
805,7	0,009
806,1	0,009
806,6	0,009
807	0,009
807,4	0,009
807,9	0,009
808,3	0,009
808,7	0,009
809,2	0,009
809,6	0,009
810	0,009
810,4	0,009
810,9	0,008
811,3	0,008
811,7	0,008
812,2	0,008
812,6	0,009
813	0,009
813,5	0,009
813,9	0,009
814,3	0,009
814,8	0,009
815,2	0,009
815,6	0,009
816,1	0,008
816,5	0,008
816,9	0,008
817,3	0,008
817,8	0,008
818,2	0,008
818,6	0,008
819,1	0,008
819,5	0,009
819,9	0,009
820,4	0,009
820,8	0,009
821,2	0,008
821,7	0,008
822,1	0,008
822,5	0,007
822,9	0,007
823,4	0,007
823,8	0,007
824,2	0,007
824,7	0,008
825,1	0,008
825,5	0,008
826	0,008
826,4	0,009
826,8	0,009
827,3	0,009
827,7	0,009
828,1	0,009
828,5	0,009
829	0,009
829,4	0,009
829,8	0,009
830,3	0,009
830,7	0,009
831,1	0,009
831,6	0,009
832	0,008
832,4	0,009
832,8	0,009
833,3	0,009
833,7	0,009
834,1	0,009
834,6	0,009
835	0,009
835,4	0,008
835,8	0,008
836,3	0,008
836,7	0,008
837,1	0,008
837,6	0,008
838	0,008
838,4	0,007
838,9	0,007
839,3	0,007
839,7	0,008
840,1	0,008
840,6	0,009
841	0,009
841,4	0,009
841,9	0,009
842,3	0,009
842,7	0,009
843,1	0,009
843,6	0,009
844	0,009
844,4	0,009
844,9	0,009
845,3	0,009
845,7	0,009
846,2	0,009
846,6	0,009
847	0,009
847,4	0,008
847,9	0,009
848,3	0,008
848,7	0,009
849,2	0,009
849,6	0,009
850	0,009
850,4	0,009
850,9	0,009
851,3	0,009
851,7	0,008
852,2	0,009
852,6	0,009
853	0,009
853,4	0,009
853,9	0,009
854,3	0,01
854,7	0,01
855,2	0,01
855,6	0,01
856	0,01
856,4	0,01
856,9	0,01
857,3	0,009
857,7	0,009
858,2	0,008
858,6	0,008
859	0,007
859,4	0,007
859,9	0,007
860,3	0,007
860,7	0,007
861,1	0,007
861,6	0,007
862	0,007
862,4	0,007
862,9	0,007
863,3	0,007
863,7	0,007
864,1	0,007
864,6	0,007
865	0,008
865,4	0,008
865,9	0,008
866,3	0,008
866,7	0,008
867,1	0,008
867,6	0,008
868	0,008
868,4	0,008
868,8	0,008
869,3	0,008
869,7	0,008
870,1	0,008
870,6	0,008
871	0,008
871,4	0,008
871,8	0,007
872,3	0,007
872,7	0,007
873,1	0,007
873,5	0,006
874	0,006
874,4	0,006
874,8	0,007
875,3	0,007
875,7	0,007
876,1	0,007
876,5	0,007
877	0,007
877,4	0,007
877,8	0,006
878,2	0,006
878,7	0,006
879,1	0,006
879,5	0,006
879,9	0,006
880,4	0,006
880,8	0,006
881,2	0,007
881,7	0,007
882,1	0,008
882,5	0,008
882,9	0,008
883,4	0,008
883,8	0,008
884,2	0,007
884,6	0,007
885,1	0,007
885,5	0,007
885,9	0,007
886,3	0,007
886,8	0,008
887,2	0,008
887,6	0,008
888	0,008
888,5	0,008
888,9	0,008
889,3	0,008
889,8	0,008
890,2	0,008
890,6	0,008
891	0,008
891,5	0,008
891,9	0,008
892,3	0,008
892,7	0,008
893,2	0,008
893,6	0,009
894	0,008
894,4	0,008
894,9	0,008
895,3	0,008
895,7	0,008
896,1	0,008
896,6	0,007
897	0,008
897,4	0,007
897,8	0,007
898,3	0,007
898,7	0,007
899,1	0,007
899,5	0,007
900	0,007
900,4	0,007
900,8	0,007
901,2	0,006
901,7	0,006
902,1	0,006
902,5	0,006
902,9	0,006
903,4	0,006
903,8	0,006
904,2	0,006
904,6	0,007
905,1	0,007
905,5	0,007
905,9	0,006
906,3	0,007
906,8	0,006
907,2	0,006
907,6	0,006
908	0,005
908,5	0,005
908,9	0,005
909,3	0,005
909,7	0,005
910,2	0,005
910,6	0,005
911	0,005
911,4	0,005
911,9	0,006
912,3	0,006
912,7	0,006
913,1	0,006
913,6	0,006
914	0,006
914,4	0,006
914,8	0,006
915,3	0,006
915,7	0,006
916,1	0,006
916,5	0,007
916,9	0,006
917,4	0,007
917,8	0,007
918,2	0,007
918,6	0,008
919,1	0,008
919,5	0,008
919,9	0,009
920,3	0,009
920,8	0,009
921,2	0,009
921,6	0,008
922	0,008
922,5	0,008
922,9	0,007
923,3	0,007
923,7	0,007
924,2	0,007
924,6	0,007
925	0,007
925,4	0,007
925,8	0,007
926,3	0,007
926,7	0,007
927,1	0,007
927,5	0,007
928	0,008
928,4	0,007
928,8	0,007
929,2	0,007
929,7	0,007
930,1	0,008
930,5	0,008
930,9	0,008
931,3	0,008
931,8	0,008
932,2	0,008
932,6	0,008
933	0,007
933,5	0,007
933,9	0,007
934,3	0,007
934,7	0,007
935,2	0,007
935,6	0,007
936	0,007
936,4	0,008
936,8	0,008
937,3	0,007
937,7	0,007
938,1	0,007
938,5	0,007
939	0,006
939,4	0,006
939,8	0,006
940,2	0,006
940,6	0,005
941,1	0,005
941,5	0,006
941,9	0,006
942,3	0,005
942,8	0,005
943,2	0,005
943,6	0,005
944	0,006
944,4	0,005
944,9	0,006
945,3	0,006
945,7	0,006
946,1	0,006
946,6	0,006
947	0,006
947,4	0,005
947,8	0,005
948,2	0,005
948,7	0,005
949,1	0,005
949,5	0,004
949,9	0,004
950,3	0,004
950,8	0,004
951,2	0,004
951,6	0,005
952	0,005
952,5	0,005
952,9	0,005
953,3	0,005
953,7	0,005
954,1	0,005
954,6	0,005
955	0,006
955,4	0,005
955,8	0,006
956,2	0,007
956,7	0,007
957,1	0,007
957,5	0,007
957,9	0,007
958,3	0,007
958,8	0,007
959,2	0,006
959,6	0,006
960	0,006
960,5	0,005
960,9	0,005
961,3	0,005
961,7	0,005
962,1	0,005
962,6	0,004
963	0,005
963,4	0,004
963,8	0,004
964,2	0,004
964,7	0,005
965,1	0,005
965,5	0,005
965,9	0,006
966,3	0,007
966,8	0,008
967,2	0,008
967,6	0,008
968	0,008
968,4	0,008
968,9	0,008
969,3	0,007
969,7	0,006
970,1	0,006
970,5	0,006
971	0,006
971,4	0,006
971,8	0,006
972,2	0,006
972,6	0,005
973,1	0,005
973,5	0,005
973,9	0,005
974,3	0,005
974,7	0,005
975,2	0,006
975,6	0,006
976	0,006
976,4	0,006
976,8	0,006
977,3	0,006
977,7	0,006
978,1	0,007
978,5	0,007
978,9	0,007
979,4	0,007
979,8	0,007
980,2	0,008
980,6	0,008
981	0,008
981,5	0,008
981,9	0,007
982,3	0,008
982,7	0,008
983,1	0,008
983,6	0,007
984	0,007
984,4	0,007
984,8	0,006
985,2	0,006
985,6	0,006
986,1	0,006
986,5	0,006
986,9	0,006
987,3	0,006
987,7	0,007
988,2	0,006
988,6	0,006
989	0,006
989,4	0,006
989,8	0,005
990,3	0,004
990,7	0,004
991,1	0,004
991,5	0,005
991,9	0,004
992,3	0,004
992,8	0,005
993,2	0,005
993,6	0,006
994	0,006
994,4	0,005
994,9	0,005
995,3	0,006
995,7	0,006
996,1	0,006
996,5	0,005
996,9	0,005
997,4	0,006
997,8	0,006
998,2	0,006
998,6	0,006
999	0,007
999,5	0,007
999,9	0,008
1000,3	0,008
1000,7	0,009
1001,1	0,008
1001,5	0,008
1002	0,007
1002,4	0,007
1002,8	0,006
1003,2	0,006
1003,6	0,005
1004	0,005
1004,5	0,005
1004,9	0,005
1005,3	0,006
1005,7	0,005
1006,1	0,006
1006,6	0,006
1007	0,006
1007,4	0,007
1007,8	0,006
1008,2	0,006
1008,6	0,006
1009,1	0,006
1009,5	0,005
1009,9	0,004
1010,3	0,004
1010,7	0,004
1011,1	0,004
1011,6	0,004
1012	0,004
1012,4	0,004
1012,8	0,004
1013,2	0,004
1013,6	0,004
1014,1	0,005
1014,5	0,005
1014,9	0,005
1015,3	0,005
1015,7	0,005
1016,1	0,005
1016,6	0,005
1017	0,005
1017,4	0,005
1017,8	0,005
1018,2	0,005
1018,6	0,006
1019,1	0,006
1019,5	0,006
1019,9	0,006
1020,3	0,007
1020,7	0,006
1021,1	0,006
1021,6	0,006
1022	0,006
1022,4	0,006
1022,8	0,006
1023,2	0,005
1023,6	0,006
1024,1	0,006
1024,5	0,006
1024,9	0,006
1025,3	0,007
1025,7	0,008
1026,1	0,008
1026,6	0,008
1027	0,008
1027,4	0,008
1027,8	0,008
1028,2	0,008
1028,6	0,008
1029	0,008
1029,5	0,008
1029,9	0,009
1030,3	0,009
1030,7	0,009
1031,1	0,009
1031,5	0,008
1032	0,009
1032,4	0,009
1032,8	0,008
1033,2	0,008
1033,6	0,009
1034	0,009
1034,4	0,008
1034,9	0,008
1035,3	0,007
1035,7	0,007
1036,1	0,006
1036,5	0,006
1036,9	0,006
1037,4	0,006
1037,8	0,007
1038,2	0,007
1038,6	0,007
1039	0,007
1039,4	0,007
1039,8	0,006
1040,3	0,006
1040,7	0,005
1041,1	0,005
1041,5	0,005
1041,9	0,005
1042,3	0,005
1042,7	0,005
1043,2	0,004
1043,6	0,004
1044	0,004
1044,4	0,004
1044,8	0,004
1045,2	0,005
1045,6	0,005
1046,1	0,006
1046,5	0,007
1046,9	0,007
1047,3	0,007
1047,7	0,006
1048,1	0,006
1048,5	0,006
1049	0,005
1049,4	0,004
1049,8	0,003
1050,2	0,003
1050,6	0,003
1051	0,003
1051,4	0,002
1051,9	0,003
1052,3	0,003
1052,7	0,004
1053,1	0,004
1053,5	0,004
1053,9	0,005
1054,3	0,004
1054,8	0,004
1055,2	0,003
1055,6	0,003
1056	0,003
1056,4	0,003
1056,8	0,003
1057,2	0,004
1057,6	0,003
1058,1	0,004
1058,5	0,003
1058,9	0,002
1059,3	0,002
1059,7	0,003
1060,1	0,003
1060,5	0,003
1061	0,002
1061,4	0,003
1061,8	0,003
1062,2	0,003
1062,6	0,002
1063	0,002
1063,4	0,003
1063,8	0,004
1064,3	0,004
1064,7	0,004
1065,1	0,004
1065,5	0,004
1065,9	0,004
1066,3	0,003
1066,7	0,003
1067,1	0,004
1067,6	0,003
1068	0,003
1068,4	0,004
1068,8	0,004
1069,2	0,004
1069,6	0,004
1070	0,004
1070,4	0,004
1070,9	0,004
1071,3	0,004
1071,7	0,004
1072,1	0,004
1072,5	0,004
1072,9	0,004
1073,3	0,004
1073,7	0,005
1074,2	0,004
1074,6	0,005
1075	0,004
1075,4	0,005
1075,8	0,005
1076,2	0,004
1076,6	0,004
1077	0,004
1077,5	0,003
1077,9	0,003
1078,3	0,003
1078,7	0,003
1079,1	0,003
1079,5	0,003
1079,9	0,004
1080,3	0,004
1080,7	0,004
1081,2	0,005
1081,6	0,005
1082	0,003
1082,4	0,003
1082,8	0,002
1083,2	-0,001
1083,6	-0,001
1084	-0,001
1084,5	-0,001
1084,9	0,001
1085,3	0,002
1085,7	0,004
1086,1	0,007
1086,5	0,009
1086,9	0,009
1087,3	0,01
1087,7	0,01
1088,2	0,01
1088,6	0,007
1089	0,007
1089,4	0,006
1089,8	0,006
1090,2	0,003
1090,6	0,003
1091	0,005
1091,4	0,007
1091,9	0,007
1092,3	0,007
1092,7	0,009
1093,1	0,012
1093,5	0,011
1093,9	0,008
1094,3	0,008
1094,7	0,007
1095,1	0,008
1095,5	0,004
1096	0,004
1096,4	0,004
1096,8	0,005
1097,2	0,003
1097,6	-0,001
1098	-0,006
1098,4	-0,001
1098,8	-0,003
1099,2	-0,002
1099,6	0,003
1100,1	-0,001
1100,5	0,006
1100,9	0,011
1101,3	0,01
1101,7	0,016
1102,1	0,012
1102,5	0,001
1102,9	0,015
1103,3	0,012
1103,7	0,012
1104,2	0,004
1104,6	-0,008
1105	-0,002
1105,4	0,014
1105,8	0,004
1106,2	0,014
1106,6	0,025
1107	0,019
1107,4	0,056
1107,8	0,068
1108,3	-0
