Data from Absorbance_00046.txt Node
Date: Fri Aug 11 13:10:25 MSK 2023
User: vat
Spectrometer: MAYP114033
Trigger mode: 0
Integration Time (sec): 8,000000E-3
Scans to average: 10
Electric dark correction enabled: true
Nonlinearity correction enabled: false
Boxcar width: 3
XAxis mode: Wavelengths
Number of Pixels in Spectrum: 2068
>>>>>Begin Spectral Data<<<<<
199,4	-0
199,9	-0,004
200,4	0,388
200,8	0,695
201,3	0,823
201,8	0,909
202,2	0,945
202,7	0,969
203,2	1,03
203,6	1,06
204,1	1,089
204,6	1,1
205	1,1
205,5	1,114
206	1,118
206,4	1,134
206,9	1,158
207,4	1,164
207,8	1,188
208,3	1,207
208,8	1,225
209,2	1,247
209,7	1,258
210,2	1,264
210,6	1,302
211,1	1,325
211,5	1,362
212	1,379
212,5	1,41
212,9	1,438
213,4	1,432
213,9	1,412
214,3	1,415
214,8	1,422
215,3	1,425
215,7	1,451
216,2	1,456
216,7	1,501
217,1	1,539
217,6	1,544
218,1	1,559
218,5	1,557
219	1,561
219,5	1,566
219,9	1,576
220,4	1,57
220,9	1,595
221,3	1,599
221,8	1,635
222,3	1,638
222,7	1,646
223,2	1,658
223,6	1,689
224,1	1,697
224,6	1,732
225	1,747
225,5	1,77
226	1,798
226,4	1,82
226,9	1,82
227,4	1,849
227,8	1,837
228,3	1,843
228,8	1,851
229,2	1,85
229,7	1,854
230,2	1,863
230,6	1,864
231,1	1,879
231,5	1,908
232	1,928
232,5	1,94
232,9	1,933
233,4	1,956
233,9	1,971
234,3	1,97
234,8	1,955
235,3	1,947
235,7	1,97
236,2	1,989
236,7	1,982
237,1	1,991
237,6	2,017
238,1	2,03
238,5	2,025
239	2,038
239,4	2,042
239,9	2,06
240,4	2,061
240,8	2,068
241,3	2,067
241,8	2,1
242,2	2,089
242,7	2,093
243,2	2,089
243,6	2,102
244,1	2,09
244,6	2,099
245	2,112
245,5	2,111
245,9	2,117
246,4	2,143
246,9	2,145
247,3	2,14
247,8	2,14
248,3	2,14
248,7	2,147
249,2	2,139
249,7	2,137
250,1	2,13
250,6	2,137
251	2,143
251,5	2,136
252	2,131
252,4	2,17
252,9	2,187
253,4	2,189
253,8	2,2
254,3	2,204
254,8	2,195
255,2	2,209
255,7	2,192
256,1	2,175
256,6	2,195
257,1	2,2
257,5	2,202
258	2,215
258,5	2,198
258,9	2,195
259,4	2,211
259,9	2,21
260,3	2,212
260,8	2,218
261,2	2,228
261,7	2,255
262,2	2,238
262,6	2,21
263,1	2,2
263,6	2,177
264	2,163
264,5	2,153
264,9	2,145
265,4	2,147
265,9	2,155
266,3	2,155
266,8	2,168
267,3	2,17
267,7	2,155
268,2	2,163
268,7	2,163
269,1	2,148
269,6	2,128
270	2,128
270,5	2,134
271	2,148
271,4	2,134
271,9	2,127
272,4	2,12
272,8	2,121
273,3	2,115
273,7	2,115
274,2	2,112
274,7	2,125
275,1	2,123
275,6	2,14
276,1	2,143
276,5	2,14
277	2,141
277,4	2,132
277,9	2,118
278,4	2,129
278,8	2,133
279,3	2,114
279,8	2,101
280,2	2,075
280,7	2,055
281,1	2,032
281,6	2,005
282,1	1,968
282,5	1,959
283	1,949
283,4	1,911
283,9	1,88
284,4	1,839
284,8	1,792
285,3	1,735
285,8	1,671
286,2	1,597
286,7	1,531
287,1	1,46
287,6	1,389
288,1	1,315
288,5	1,244
289	1,177
289,5	1,113
289,9	1,05
290,4	0,995
290,8	0,94
291,3	0,888
291,8	0,842
292,2	0,798
292,7	0,759
293,1	0,722
293,6	0,688
294,1	0,66
294,5	0,635
295	0,611
295,5	0,591
295,9	0,571
296,4	0,555
296,8	0,54
297,3	0,527
297,8	0,515
298,2	0,505
298,7	0,496
299,1	0,489
299,6	0,482
300,1	0,476
300,5	0,47
301	0,464
301,5	0,46
301,9	0,455
302,4	0,45
302,8	0,447
303,3	0,443
303,8	0,439
304,2	0,436
304,7	0,433
305,1	0,429
305,6	0,426
306,1	0,423
306,5	0,419
307	0,417
307,4	0,414
307,9	0,411
308,4	0,408
308,8	0,405
309,3	0,403
309,8	0,4
310,2	0,397
310,7	0,394
311,1	0,391
311,6	0,387
312,1	0,383
312,5	0,38
313	0,377
313,4	0,374
313,9	0,371
314,4	0,369
314,8	0,367
315,3	0,365
315,7	0,362
316,2	0,359
316,7	0,357
317,1	0,354
317,6	0,35
318	0,348
318,5	0,345
319	0,342
319,4	0,339
319,9	0,337
320,3	0,334
320,8	0,332
321,3	0,327
321,7	0,325
322,2	0,322
322,6	0,32
323,1	0,317
323,6	0,314
324	0,311
324,5	0,309
324,9	0,307
325,4	0,304
325,9	0,302
326,3	0,299
326,8	0,296
327,2	0,295
327,7	0,292
328,2	0,29
328,6	0,287
329,1	0,284
329,5	0,281
330	0,279
330,5	0,276
330,9	0,273
331,4	0,27
331,8	0,268
332,3	0,264
332,8	0,261
333,2	0,259
333,7	0,256
334,1	0,255
334,6	0,252
335,1	0,249
335,5	0,247
336	0,245
336,4	0,241
336,9	0,239
337,4	0,236
337,8	0,232
338,3	0,23
338,7	0,228
339,2	0,225
339,7	0,221
340,1	0,218
340,6	0,215
341	0,213
341,5	0,21
342	0,207
342,4	0,205
342,9	0,203
343,3	0,201
343,8	0,199
344,2	0,196
344,7	0,194
345,2	0,192
345,6	0,19
346,1	0,188
346,5	0,185
347	0,183
347,5	0,181
347,9	0,178
348,4	0,176
348,8	0,172
349,3	0,17
349,8	0,168
350,2	0,166
350,7	0,164
351,1	0,163
351,6	0,16
352	0,158
352,5	0,156
353	0,154
353,4	0,152
353,9	0,15
354,3	0,148
354,8	0,146
355,3	0,145
355,7	0,143
356,2	0,141
356,6	0,138
357,1	0,136
357,5	0,134
358	0,132
358,5	0,13
358,9	0,129
359,4	0,127
359,8	0,126
360,3	0,125
360,8	0,123
361,2	0,121
361,7	0,12
362,1	0,117
362,6	0,116
363	0,114
363,5	0,112
364	0,111
364,4	0,11
364,9	0,109
365,3	0,108
365,8	0,106
366,3	0,106
366,7	0,105
367,2	0,103
367,6	0,101
368,1	0,099
368,5	0,099
369	0,097
369,5	0,096
369,9	0,095
370,4	0,094
370,8	0,093
371,3	0,092
371,7	0,091
372,2	0,091
372,7	0,09
373,1	0,089
373,6	0,088
374	0,087
374,5	0,086
374,9	0,085
375,4	0,084
375,9	0,083
376,3	0,083
376,8	0,082
377,2	0,082
377,7	0,081
378,2	0,08
378,6	0,079
379,1	0,079
379,5	0,077
380	0,076
380,4	0,075
380,9	0,074
381,4	0,073
381,8	0,073
382,3	0,072
382,7	0,072
383,2	0,071
383,6	0,07
384,1	0,07
384,6	0,07
385	0,069
385,5	0,067
385,9	0,067
386,4	0,067
386,8	0,067
387,3	0,066
387,7	0,064
388,2	0,063
388,7	0,063
389,1	0,063
389,6	0,062
390	0,061
390,5	0,06
390,9	0,06
391,4	0,059
391,9	0,058
392,3	0,058
392,8	0,057
393,2	0,057
393,7	0,057
394,1	0,057
394,6	0,056
395,1	0,055
395,5	0,056
396	0,056
396,4	0,055
396,9	0,054
397,3	0,053
397,8	0,053
398,2	0,053
398,7	0,052
399,2	0,052
399,6	0,052
400,1	0,052
400,5	0,051
401	0,051
401,4	0,05
401,9	0,05
402,4	0,049
402,8	0,049
403,3	0,048
403,7	0,048
404,2	0,048
404,6	0,048
405,1	0,048
405,5	0,047
406	0,047
406,5	0,047
406,9	0,046
407,4	0,046
407,8	0,046
408,3	0,045
408,7	0,044
409,2	0,045
409,6	0,044
410,1	0,045
410,6	0,045
411	0,045
411,5	0,045
411,9	0,045
412,4	0,044
412,8	0,043
413,3	0,043
413,7	0,042
414,2	0,042
414,7	0,042
415,1	0,042
415,6	0,042
416	0,042
416,5	0,041
416,9	0,041
417,4	0,041
417,8	0,041
418,3	0,04
418,8	0,041
419,2	0,041
419,7	0,04
420,1	0,04
420,6	0,039
421	0,04
421,5	0,04
421,9	0,039
422,4	0,039
422,8	0,039
423,3	0,039
423,8	0,039
424,2	0,039
424,7	0,038
425,1	0,038
425,6	0,037
426	0,037
426,5	0,037
426,9	0,037
427,4	0,036
427,9	0,036
428,3	0,036
428,8	0,036
429,2	0,036
429,7	0,036
430,1	0,035
430,6	0,035
431	0,035
431,5	0,034
431,9	0,034
432,4	0,034
432,8	0,034
433,3	0,034
433,8	0,034
434,2	0,034
434,7	0,034
435,1	0,034
435,6	0,034
436	0,034
436,5	0,034
436,9	0,034
437,4	0,034
437,8	0,034
438,3	0,034
438,8	0,033
439,2	0,033
439,7	0,032
440,1	0,032
440,6	0,031
441	0,031
441,5	0,031
441,9	0,031
442,4	0,031
442,8	0,032
443,3	0,032
443,7	0,032
444,2	0,032
444,7	0,032
445,1	0,032
445,6	0,031
446	0,031
446,5	0,031
446,9	0,031
447,4	0,031
447,8	0,03
448,3	0,031
448,7	0,031
449,2	0,031
449,6	0,031
450,1	0,031
450,6	0,031
451	0,031
451,5	0,03
451,9	0,03
452,4	0,03
452,8	0,029
453,3	0,029
453,7	0,029
454,2	0,028
454,6	0,029
455,1	0,028
455,5	0,028
456	0,028
456,4	0,029
456,9	0,029
457,3	0,03
457,8	0,029
458,3	0,029
458,7	0,028
459,2	0,028
459,6	0,028
460,1	0,027
460,5	0,027
461	0,027
461,4	0,027
461,9	0,026
462,3	0,026
462,8	0,026
463,2	0,026
463,7	0,026
464,1	0,026
464,6	0,026
465	0,027
465,5	0,028
466	0,028
466,4	0,027
466,9	0,027
467,3	0,028
467,8	0,028
468,2	0,027
468,7	0,027
469,1	0,027
469,6	0,027
470	0,027
470,5	0,027
470,9	0,027
471,4	0,026
471,8	0,026
472,3	0,026
472,7	0,025
473,2	0,025
473,6	0,025
474,1	0,024
474,5	0,025
475	0,025
475,4	0,025
475,9	0,026
476,4	0,026
476,8	0,026
477,3	0,026
477,7	0,026
478,2	0,026
478,6	0,026
479,1	0,026
479,5	0,026
480	0,027
480,4	0,027
480,9	0,027
481,3	0,027
481,8	0,027
482,2	0,026
482,7	0,026
483,1	0,026
483,6	0,025
484	0,026
484,5	0,025
484,9	0,025
485,4	0,026
485,8	0,026
486,3	0,026
486,7	0,026
487,2	0,025
487,6	0,025
488,1	0,026
488,5	0,025
489	0,024
489,4	0,024
489,9	0,024
490,4	0,025
490,8	0,025
491,3	0,025
491,7	0,025
492,2	0,025
492,6	0,025
493,1	0,025
493,5	0,025
494	0,025
494,4	0,025
494,9	0,025
495,3	0,024
495,8	0,025
496,2	0,025
496,7	0,024
497,1	0,025
497,6	0,025
498	0,025
498,5	0,025
498,9	0,025
499,4	0,024
499,8	0,024
500,3	0,023
500,7	0,023
501,2	0,023
501,6	0,023
502,1	0,023
502,5	0,023
503	0,024
503,4	0,024
503,9	0,024
504,3	0,024
504,8	0,024
505,2	0,024
505,7	0,025
506,1	0,025
506,6	0,025
507	0,025
507,5	0,025
507,9	0,024
508,4	0,024
508,8	0,023
509,3	0,024
509,7	0,024
510,2	0,023
510,6	0,023
511,1	0,024
511,5	0,023
512	0,023
512,4	0,023
512,9	0,023
513,3	0,023
513,8	0,024
514,2	0,023
514,7	0,024
515,1	0,024
515,6	0,024
516	0,024
516,5	0,025
516,9	0,024
517,4	0,024
517,8	0,023
518,3	0,023
518,7	0,023
519,2	0,023
519,6	0,023
520,1	0,023
520,5	0,023
521	0,023
521,4	0,024
521,9	0,024
522,3	0,023
522,8	0,023
523,2	0,023
523,7	0,023
524,1	0,023
524,6	0,023
525	0,023
525,5	0,024
525,9	0,023
526,4	0,023
526,8	0,023
527,3	0,023
527,7	0,023
528,2	0,022
528,6	0,022
529,1	0,023
529,5	0,023
530	0,023
530,4	0,024
530,9	0,024
531,3	0,025
531,8	0,024
532,2	0,024
532,6	0,024
533,1	0,024
533,5	0,024
534	0,023
534,4	0,022
534,9	0,023
535,3	0,023
535,8	0,022
536,2	0,022
536,7	0,021
537,1	0,02
537,6	0,021
538	0,021
538,5	0,02
538,9	0,021
539,4	0,021
539,8	0,022
540,3	0,022
540,7	0,022
541,2	0,022
541,6	0,023
542,1	0,023
542,5	0,022
543	0,022
543,4	0,022
543,9	0,021
544,3	0,021
544,8	0,02
545,2	0,02
545,7	0,02
546,1	0,021
546,5	0,021
547	0,021
547,4	0,021
547,9	0,021
548,3	0,021
548,8	0,021
549,2	0,02
549,7	0,021
550,1	0,021
550,6	0,021
551	0,021
551,5	0,021
551,9	0,021
552,4	0,021
552,8	0,021
553,3	0,021
553,7	0,021
554,2	0,021
554,6	0,02
555,1	0,02
555,5	0,02
555,9	0,02
556,4	0,02
556,8	0,019
557,3	0,02
557,7	0,02
558,2	0,02
558,6	0,02
559,1	0,02
559,5	0,02
560	0,02
560,4	0,02
560,9	0,02
561,3	0,02
561,8	0,02
562,2	0,02
562,7	0,02
563,1	0,021
563,6	0,021
564	0,021
564,4	0,02
564,9	0,02
565,3	0,02
565,8	0,02
566,2	0,02
566,7	0,02
567,1	0,02
567,6	0,02
568	0,021
568,5	0,02
568,9	0,02
569,4	0,02
569,8	0,02
570,3	0,02
570,7	0,02
571,1	0,02
571,6	0,02
572	0,02
572,5	0,019
572,9	0,02
573,4	0,019
573,8	0,019
574,3	0,018
574,7	0,018
575,2	0,018
575,6	0,018
576,1	0,018
576,5	0,019
576,9	0,019
577,4	0,019
577,8	0,019
578,3	0,019
578,7	0,019
579,2	0,019
579,6	0,019
580,1	0,019
580,5	0,019
581	0,019
581,4	0,019
581,9	0,019
582,3	0,019
582,7	0,019
583,2	0,019
583,6	0,019
584,1	0,019
584,5	0,018
585	0,019
585,4	0,018
585,9	0,018
586,3	0,018
586,8	0,019
587,2	0,019
587,6	0,018
588,1	0,018
588,5	0,018
589	0,018
589,4	0,018
589,9	0,018
590,3	0,018
590,8	0,018
591,2	0,018
591,7	0,019
592,1	0,019
592,5	0,019
593	0,019
593,4	0,018
593,9	0,019
594,3	0,019
594,8	0,019
595,2	0,018
595,7	0,018
596,1	0,019
596,6	0,019
597	0,018
597,4	0,018
597,9	0,018
598,3	0,018
598,8	0,018
599,2	0,018
599,7	0,018
600,1	0,018
600,6	0,018
601	0,017
601,4	0,017
601,9	0,016
602,3	0,016
602,8	0,016
603,2	0,016
603,7	0,016
604,1	0,017
604,6	0,017
605	0,017
605,4	0,017
605,9	0,017
606,3	0,017
606,8	0,017
607,2	0,017
607,7	0,017
608,1	0,017
608,6	0,017
609	0,017
609,4	0,017
609,9	0,016
610,3	0,016
610,8	0,016
611,2	0,016
611,7	0,017
612,1	0,016
612,6	0,017
613	0,017
613,4	0,017
613,9	0,017
614,3	0,017
614,8	0,017
615,2	0,017
615,7	0,017
616,1	0,016
616,6	0,016
617	0,016
617,4	0,016
617,9	0,016
618,3	0,016
618,8	0,016
619,2	0,016
619,7	0,016
620,1	0,016
620,5	0,016
621	0,016
621,4	0,016
621,9	0,015
622,3	0,016
622,8	0,015
623,2	0,016
623,6	0,015
624,1	0,016
624,5	0,016
625	0,016
625,4	0,016
625,9	0,016
626,3	0,016
626,8	0,016
627,2	0,016
627,6	0,016
628,1	0,016
628,5	0,016
629	0,016
629,4	0,017
629,9	0,016
630,3	0,016
630,7	0,017
631,2	0,017
631,6	0,017
632,1	0,017
632,5	0,016
633	0,016
633,4	0,016
633,8	0,016
634,3	0,016
634,7	0,016
635,2	0,016
635,6	0,016
636,1	0,016
636,5	0,016
636,9	0,016
637,4	0,015
637,8	0,016
638,3	0,015
638,7	0,016
639,2	0,015
639,6	0,016
640	0,016
640,5	0,016
640,9	0,016
641,4	0,015
641,8	0,015
642,2	0,015
642,7	0,015
643,1	0,015
643,6	0,014
644	0,014
644,5	0,015
644,9	0,014
645,3	0,015
645,8	0,015
646,2	0,015
646,7	0,015
647,1	0,016
647,6	0,016
648	0,016
648,4	0,015
648,9	0,015
649,3	0,015
649,8	0,015
650,2	0,015
650,6	0,014
651,1	0,014
651,5	0,014
652	0,014
652,4	0,014
652,9	0,014
653,3	0,014
653,7	0,014
654,2	0,014
654,6	0,014
655,1	0,015
655,5	0,009
655,9	0,006
656,4	0,004
656,8	0,005
657,3	0,005
657,7	0,005
658,2	0,004
658,6	0,006
659	0,009
659,5	0,015
659,9	0,016
660,4	0,016
660,8	0,015
661,2	0,015
661,7	0,015
662,1	0,015
662,6	0,014
663	0,014
663,4	0,014
663,9	0,014
664,3	0,014
664,8	0,014
665,2	0,014
665,6	0,014
666,1	0,014
666,5	0,013
667	0,014
667,4	0,014
667,9	0,014
668,3	0,014
668,7	0,014
669,2	0,014
669,6	0,014
670,1	0,014
670,5	0,013
670,9	0,014
671,4	0,014
671,8	0,013
672,3	0,013
672,7	0,013
673,1	0,013
673,6	0,013
674	0,014
674,5	0,014
674,9	0,014
675,3	0,014
675,8	0,014
676,2	0,014
676,7	0,014
677,1	0,013
677,5	0,013
678	0,013
678,4	0,013
678,9	0,013
679,3	0,013
679,7	0,013
680,2	0,013
680,6	0,012
681,1	0,012
681,5	0,012
681,9	0,012
682,4	0,012
682,8	0,012
683,3	0,012
683,7	0,012
684,1	0,013
684,6	0,013
685	0,012
685,5	0,013
685,9	0,013
686,3	0,013
686,8	0,013
687,2	0,013
687,7	0,013
688,1	0,013
688,5	0,014
689	0,014
689,4	0,014
689,9	0,014
690,3	0,014
690,7	0,014
691,2	0,014
691,6	0,014
692	0,014
692,5	0,014
692,9	0,014
693,4	0,014
693,8	0,013
694,2	0,013
694,7	0,013
695,1	0,013
695,6	0,013
696	0,013
696,4	0,012
696,9	0,013
697,3	0,012
697,8	0,012
698,2	0,012
698,6	0,012
699,1	0,012
699,5	0,012
699,9	0,013
700,4	0,012
700,8	0,013
701,3	0,013
701,7	0,012
702,1	0,013
702,6	0,013
703	0,013
703,5	0,013
703,9	0,013
704,3	0,013
704,8	0,013
705,2	0,013
705,6	0,013
706,1	0,013
706,5	0,013
707	0,012
707,4	0,012
707,8	0,012
708,3	0,012
708,7	0,012
709,2	0,012
709,6	0,012
710	0,013
710,5	0,012
710,9	0,012
711,3	0,012
711,8	0,012
712,2	0,012
712,7	0,012
713,1	0,012
713,5	0,012
714	0,012
714,4	0,012
714,8	0,012
715,3	0,012
715,7	0,012
716,2	0,012
716,6	0,012
717	0,012
717,5	0,011
717,9	0,011
718,3	0,011
718,8	0,011
719,2	0,011
719,7	0,011
720,1	0,011
720,5	0,012
721	0,012
721,4	0,012
721,8	0,012
722,3	0,012
722,7	0,012
723,2	0,012
723,6	0,011
724	0,011
724,5	0,011
724,9	0,012
725,3	0,012
725,8	0,012
726,2	0,012
726,7	0,012
727,1	0,012
727,5	0,012
728	0,012
728,4	0,011
728,8	0,011
729,3	0,01
729,7	0,01
730,1	0,01
730,6	0,01
731	0,01
731,5	0,01
731,9	0,011
732,3	0,011
732,8	0,011
733,2	0,011
733,6	0,011
734,1	0,011
734,5	0,011
734,9	0,012
735,4	0,012
735,8	0,012
736,3	0,012
736,7	0,012
737,1	0,012
737,6	0,013
738	0,012
738,4	0,012
738,9	0,012
739,3	0,012
739,7	0,012
740,2	0,012
740,6	0,011
741,1	0,011
741,5	0,011
741,9	0,011
742,4	0,011
742,8	0,011
743,2	0,011
743,7	0,011
744,1	0,011
744,5	0,011
745	0,012
745,4	0,011
745,8	0,011
746,3	0,011
746,7	0,011
747,2	0,011
747,6	0,011
748	0,011
748,5	0,011
748,9	0,011
749,3	0,011
749,8	0,011
750,2	0,011
750,6	0,011
751,1	0,011
751,5	0,011
751,9	0,011
752,4	0,011
752,8	0,011
753,3	0,011
753,7	0,012
754,1	0,012
754,6	0,012
755	0,011
755,4	0,011
755,9	0,011
756,3	0,011
756,7	0,011
757,2	0,01
757,6	0,01
758	0,01
758,5	0,011
758,9	0,011
759,3	0,011
759,8	0,011
760,2	0,011
760,6	0,011
761,1	0,01
761,5	0,01
761,9	0,011
762,4	0,01
762,8	0,01
763,3	0,01
763,7	0,01
764,1	0,01
764,6	0,01
765	0,01
765,4	0,01
765,9	0,011
766,3	0,011
766,7	0,011
767,2	0,011
767,6	0,011
768	0,012
768,5	0,011
768,9	0,011
769,3	0,011
769,8	0,011
770,2	0,011
770,6	0,011
771,1	0,011
771,5	0,011
771,9	0,01
772,4	0,01
772,8	0,01
773,2	0,01
773,7	0,01
774,1	0,01
774,5	0,01
775	0,01
775,4	0,01
775,8	0,011
776,3	0,011
776,7	0,011
777,1	0,012
777,6	0,012
778	0,012
778,4	0,012
778,9	0,012
779,3	0,012
779,7	0,011
780,2	0,011
780,6	0,011
781	0,011
781,5	0,011
781,9	0,011
782,3	0,011
782,8	0,011
783,2	0,011
783,6	0,012
784,1	0,012
784,5	0,012
784,9	0,011
785,4	0,011
785,8	0,011
786,2	0,011
786,7	0,011
787,1	0,011
787,5	0,011
788	0,011
788,4	0,011
788,8	0,011
789,3	0,011
789,7	0,01
790,1	0,01
790,6	0,01
791	0,011
791,4	0,011
791,9	0,011
792,3	0,011
792,7	0,011
793,2	0,011
793,6	0,011
794	0,011
794,5	0,011
794,9	0,011
795,3	0,011
795,8	0,011
796,2	0,011
796,6	0,011
797,1	0,011
797,5	0,011
797,9	0,011
798,4	0,011
798,8	0,011
799,2	0,011
799,7	0,011
800,1	0,011
800,5	0,01
801	0,01
801,4	0,009
801,8	0,009
802,2	0,01
802,7	0,009
803,1	0,009
803,5	0,01
804	0,01
804,4	0,01
804,8	0,01
805,3	0,01
805,7	0,01
806,1	0,01
806,6	0,01
807	0,01
807,4	0,009
807,9	0,009
808,3	0,009
808,7	0,009
809,2	0,009
809,6	0,009
810	0,009
810,4	0,009
810,9	0,009
811,3	0,009
811,7	0,01
812,2	0,01
812,6	0,01
813	0,01
813,5	0,01
813,9	0,01
814,3	0,01
814,8	0,01
815,2	0,009
815,6	0,009
816,1	0,009
816,5	0,009
816,9	0,009
817,3	0,009
817,8	0,009
818,2	0,009
818,6	0,009
819,1	0,01
819,5	0,01
819,9	0,01
820,4	0,01
820,8	0,01
821,2	0,01
821,7	0,009
822,1	0,009
822,5	0,009
822,9	0,009
823,4	0,009
823,8	0,008
824,2	0,008
824,7	0,008
825,1	0,008
825,5	0,008
826	0,008
826,4	0,008
826,8	0,009
827,3	0,009
827,7	0,008
828,1	0,009
828,5	0,009
829	0,009
829,4	0,009
829,8	0,009
830,3	0,01
830,7	0,01
831,1	0,01
831,6	0,01
832	0,01
832,4	0,011
832,8	0,01
833,3	0,011
833,7	0,01
834,1	0,01
834,6	0,01
835	0,01
835,4	0,01
835,8	0,01
836,3	0,01
836,7	0,01
837,1	0,01
837,6	0,009
838	0,009
838,4	0,009
838,9	0,009
839,3	0,009
839,7	0,01
840,1	0,01
840,6	0,01
841	0,01
841,4	0,01
841,9	0,01
842,3	0,01
842,7	0,009
843,1	0,01
843,6	0,009
844	0,009
844,4	0,009
844,9	0,009
845,3	0,009
845,7	0,009
846,2	0,008
846,6	0,008
847	0,008
847,4	0,008
847,9	0,008
848,3	0,008
848,7	0,009
849,2	0,009
849,6	0,009
850	0,009
850,4	0,009
850,9	0,009
851,3	0,009
851,7	0,009
852,2	0,009
852,6	0,009
853	0,009
853,4	0,009
853,9	0,009
854,3	0,009
854,7	0,009
855,2	0,009
855,6	0,009
856	0,009
856,4	0,009
856,9	0,009
857,3	0,01
857,7	0,009
858,2	0,009
858,6	0,009
859	0,009
859,4	0,008
859,9	0,008
860,3	0,008
860,7	0,008
861,1	0,008
861,6	0,008
862	0,008
862,4	0,008
862,9	0,008
863,3	0,009
863,7	0,009
864,1	0,009
864,6	0,009
865	0,01
865,4	0,011
865,9	0,01
866,3	0,011
866,7	0,011
867,1	0,011
867,6	0,011
868	0,01
868,4	0,01
868,8	0,01
869,3	0,01
869,7	0,01
870,1	0,01
870,6	0,01
871	0,009
871,4	0,009
871,8	0,009
872,3	0,009
872,7	0,009
873,1	0,009
873,5	0,008
874	0,009
874,4	0,009
874,8	0,009
875,3	0,009
875,7	0,009
876,1	0,009
876,5	0,009
877	0,009
877,4	0,009
877,8	0,009
878,2	0,009
878,7	0,009
879,1	0,008
879,5	0,008
879,9	0,008
880,4	0,008
880,8	0,008
881,2	0,008
881,7	0,008
882,1	0,008
882,5	0,008
882,9	0,008
883,4	0,008
883,8	0,009
884,2	0,009
884,6	0,008
885,1	0,008
885,5	0,009
885,9	0,009
886,3	0,009
886,8	0,009
887,2	0,009
887,6	0,009
888	0,009
888,5	0,009
888,9	0,009
889,3	0,009
889,8	0,009
890,2	0,009
890,6	0,009
891	0,009
891,5	0,009
891,9	0,009
892,3	0,009
892,7	0,009
893,2	0,009
893,6	0,009
894	0,009
894,4	0,009
894,9	0,009
895,3	0,009
895,7	0,01
896,1	0,009
896,6	0,01
897	0,009
897,4	0,009
897,8	0,009
898,3	0,009
898,7	0,009
899,1	0,009
899,5	0,009
900	0,009
900,4	0,009
900,8	0,009
901,2	0,009
901,7	0,009
902,1	0,009
902,5	0,008
902,9	0,009
903,4	0,008
903,8	0,008
904,2	0,008
904,6	0,009
905,1	0,009
905,5	0,009
905,9	0,009
906,3	0,009
906,8	0,009
907,2	0,009
907,6	0,009
908	0,008
908,5	0,008
908,9	0,008
909,3	0,007
909,7	0,007
910,2	0,007
910,6	0,007
911	0,007
911,4	0,007
911,9	0,007
912,3	0,007
912,7	0,007
913,1	0,007
913,6	0,007
914	0,007
914,4	0,007
914,8	0,007
915,3	0,008
915,7	0,008
916,1	0,008
916,5	0,008
916,9	0,008
917,4	0,008
917,8	0,008
918,2	0,008
918,6	0,008
919,1	0,008
919,5	0,009
919,9	0,009
920,3	0,009
920,8	0,009
921,2	0,009
921,6	0,009
922	0,009
922,5	0,009
922,9	0,009
923,3	0,008
923,7	0,008
924,2	0,008
924,6	0,008
925	0,008
925,4	0,008
925,8	0,009
926,3	0,009
926,7	0,009
927,1	0,008
927,5	0,009
928	0,009
928,4	0,008
928,8	0,007
929,2	0,007
929,7	0,007
930,1	0,007
930,5	0,007
930,9	0,007
931,3	0,007
931,8	0,008
932,2	0,007
932,6	0,007
933	0,007
933,5	0,007
933,9	0,006
934,3	0,006
934,7	0,006
935,2	0,006
935,6	0,007
936	0,007
936,4	0,007
936,8	0,007
937,3	0,007
937,7	0,006
938,1	0,006
938,5	0,006
939	0,006
939,4	0,006
939,8	0,006
940,2	0,006
940,6	0,007
941,1	0,006
941,5	0,006
941,9	0,006
942,3	0,006
942,8	0,006
943,2	0,006
943,6	0,005
944	0,006
944,4	0,006
944,9	0,007
945,3	0,007
945,7	0,007
946,1	0,007
946,6	0,007
947	0,008
947,4	0,008
947,8	0,008
948,2	0,007
948,7	0,007
949,1	0,008
949,5	0,008
949,9	0,008
950,3	0,008
950,8	0,008
951,2	0,008
951,6	0,008
952	0,008
952,5	0,008
952,9	0,007
953,3	0,008
953,7	0,008
954,1	0,008
954,6	0,008
955	0,008
955,4	0,008
955,8	0,009
956,2	0,009
956,7	0,009
957,1	0,01
957,5	0,01
957,9	0,01
958,3	0,01
958,8	0,009
959,2	0,008
959,6	0,009
960	0,008
960,5	0,008
960,9	0,008
961,3	0,008
961,7	0,008
962,1	0,008
962,6	0,007
963	0,007
963,4	0,007
963,8	0,007
964,2	0,006
964,7	0,006
965,1	0,006
965,5	0,007
965,9	0,007
966,3	0,008
966,8	0,009
967,2	0,009
967,6	0,01
968	0,01
968,4	0,01
968,9	0,009
969,3	0,008
969,7	0,008
970,1	0,008
970,5	0,008
971	0,008
971,4	0,007
971,8	0,007
972,2	0,008
972,6	0,008
973,1	0,007
973,5	0,007
973,9	0,007
974,3	0,007
974,7	0,008
975,2	0,008
975,6	0,008
976	0,008
976,4	0,008
976,8	0,008
977,3	0,008
977,7	0,007
978,1	0,007
978,5	0,006
978,9	0,007
979,4	0,007
979,8	0,007
980,2	0,007
980,6	0,008
981	0,008
981,5	0,009
981,9	0,008
982,3	0,008
982,7	0,009
983,1	0,009
983,6	0,009
984	0,008
984,4	0,008
984,8	0,008
985,2	0,008
985,6	0,008
986,1	0,008
986,5	0,008
986,9	0,008
987,3	0,008
987,7	0,008
988,2	0,008
988,6	0,008
989	0,008
989,4	0,007
989,8	0,007
990,3	0,007
990,7	0,007
991,1	0,006
991,5	0,007
991,9	0,007
992,3	0,007
992,8	0,008
993,2	0,008
993,6	0,008
994	0,009
994,4	0,009
994,9	0,009
995,3	0,009
995,7	0,009
996,1	0,008
996,5	0,008
996,9	0,008
997,4	0,008
997,8	0,008
998,2	0,008
998,6	0,008
999	0,008
999,5	0,008
999,9	0,009
1000,3	0,008
1000,7	0,008
1001,1	0,008
1001,5	0,008
1002	0,006
1002,4	0,006
1002,8	0,006
1003,2	0,006
1003,6	0,006
1004	0,006
1004,5	0,006
1004,9	0,007
1005,3	0,008
1005,7	0,008
1006,1	0,008
1006,6	0,008
1007	0,009
1007,4	0,01
1007,8	0,01
1008,2	0,009
1008,6	0,01
1009,1	0,009
1009,5	0,009
1009,9	0,008
1010,3	0,008
1010,7	0,008
1011,1	0,007
1011,6	0,007
1012	0,007
1012,4	0,007
1012,8	0,007
1013,2	0,007
1013,6	0,007
1014,1	0,008
1014,5	0,007
1014,9	0,007
1015,3	0,007
1015,7	0,006
1016,1	0,006
1016,6	0,006
1017	0,006
1017,4	0,006
1017,8	0,006
1018,2	0,006
1018,6	0,006
1019,1	0,006
1019,5	0,006
1019,9	0,006
1020,3	0,007
1020,7	0,006
1021,1	0,006
1021,6	0,006
1022	0,007
1022,4	0,006
1022,8	0,007
1023,2	0,006
1023,6	0,006
1024,1	0,006
1024,5	0,006
1024,9	0,007
1025,3	0,008
1025,7	0,008
1026,1	0,008
1026,6	0,009
1027	0,009
1027,4	0,009
1027,8	0,008
1028,2	0,008
1028,6	0,008
1029	0,009
1029,5	0,008
1029,9	0,009
1030,3	0,009
1030,7	0,009
1031,1	0,009
1031,5	0,009
1032	0,009
1032,4	0,009
1032,8	0,008
1033,2	0,008
1033,6	0,009
1034	0,008
1034,4	0,007
1034,9	0,007
1035,3	0,007
1035,7	0,008
1036,1	0,008
1036,5	0,008
1036,9	0,008
1037,4	0,007
1037,8	0,008
1038,2	0,008
1038,6	0,007
1039	0,007
1039,4	0,007
1039,8	0,008
1040,3	0,008
1040,7	0,007
1041,1	0,008
1041,5	0,008
1041,9	0,006
1042,3	0,007
1042,7	0,006
1043,2	0,006
1043,6	0,006
1044	0,005
1044,4	0,005
1044,8	0,006
1045,2	0,005
1045,6	0,005
1046,1	0,005
1046,5	0,005
1046,9	0,006
1047,3	0,006
1047,7	0,006
1048,1	0,006
1048,5	0,006
1049	0,006
1049,4	0,006
1049,8	0,005
1050,2	0,005
1050,6	0,005
1051	0,005
1051,4	0,005
1051,9	0,004
1052,3	0,004
1052,7	0,005
1053,1	0,005
1053,5	0,006
1053,9	0,006
1054,3	0,006
1054,8	0,006
1055,2	0,006
1055,6	0,006
1056	0,005
1056,4	0,006
1056,8	0,005
1057,2	0,005
1057,6	0,004
1058,1	0,004
1058,5	0,003
1058,9	0,003
1059,3	0,003
1059,7	0,004
1060,1	0,004
1060,5	0,004
1061	0,004
1061,4	0,004
1061,8	0,005
1062,2	0,004
1062,6	0,004
1063	0,004
1063,4	0,004
1063,8	0,004
1064,3	0,004
1064,7	0,004
1065,1	0,004
1065,5	0,004
1065,9	0,006
1066,3	0,006
1066,7	0,007
1067,1	0,007
1067,6	0,007
1068	0,007
1068,4	0,008
1068,8	0,006
1069,2	0,006
1069,6	0,006
1070	0,006
1070,4	0,006
1070,9	0,006
1071,3	0,007
1071,7	0,007
1072,1	0,006
1072,5	0,006
1072,9	0,005
1073,3	0,005
1073,7	0,005
1074,2	0,004
1074,6	0,005
1075	0,006
1075,4	0,006
1075,8	0,007
1076,2	0,007
1076,6	0,007
1077	0,007
1077,5	0,005
1077,9	0,005
1078,3	0,005
1078,7	0,004
1079,1	0,004
1079,5	0,002
1079,9	0,003
1080,3	0,004
1080,7	0,005
1081,2	0,005
1081,6	0,005
1082	0,006
1082,4	0,008
1082,8	0,006
1083,2	0,004
1083,6	0,003
1084	0,003
1084,5	0,004
1084,9	0,003
1085,3	0,002
1085,7	0,004
1086,1	0,006
1086,5	0,007
1086,9	0,006
1087,3	0,007
1087,7	0,01
1088,2	0,009
1088,6	0,007
1089	0,007
1089,4	0,007
1089,8	0,008
1090,2	0,005
1090,6	0,002
1091	0,006
1091,4	0,006
1091,9	0,006
1092,3	0,005
1092,7	0,005
1093,1	0,005
1093,5	0,001
1093,9	-0,002
1094,3	-0,002
1094,7	0,001
1095,1	0,003
1095,5	0,003
1096	0,002
1096,4	0,008
1096,8	0,006
1097,2	0,003
1097,6	0,001
1098	-0,001
1098,4	0
1098,8	0,005
1099,2	0,005
1099,6	0,009
1100,1	0,009
1100,5	0,005
1100,9	0,008
1101,3	0,007
1101,7	0,009
1102,1	0,004
1102,5	0,004
1102,9	0,01
1103,3	0,01
1103,7	-0,001
1104,2	-0,01
1104,6	-0,012
1105	-0,013
1105,4	-0,01
1105,8	-0,009
1106,2	-0,006
1106,6	0,009
1107	0,001
1107,4	-0,002
1107,8	0,032
1108,3	-0
