Data from Absorbance_00058.txt Node
Date: Fri Aug 11 13:22:52 MSK 2023
User: vat
Spectrometer: MAYP114033
Trigger mode: 0
Integration Time (sec): 8,000000E-3
Scans to average: 10
Electric dark correction enabled: true
Nonlinearity correction enabled: false
Boxcar width: 3
XAxis mode: Wavelengths
Number of Pixels in Spectrum: 2068
>>>>>Begin Spectral Data<<<<<
199,4	-0,332
199,9	0,691
200,4	0,562
200,8	0,816
201,3	0,93
201,8	0,969
202,2	1,005
202,7	1,021
203,2	1,057
203,6	1,098
204,1	1,122
204,6	1,145
205	1,168
205,5	1,187
206	1,184
206,4	1,188
206,9	1,195
207,4	1,205
207,8	1,2
208,3	1,217
208,8	1,234
209,2	1,241
209,7	1,264
210,2	1,285
210,6	1,307
211,1	1,326
211,5	1,339
212	1,35
212,5	1,399
212,9	1,402
213,4	1,412
213,9	1,409
214,3	1,412
214,8	1,411
215,3	1,415
215,7	1,416
216,2	1,42
216,7	1,445
217,1	1,476
217,6	1,501
218,1	1,511
218,5	1,508
219	1,523
219,5	1,544
219,9	1,554
220,4	1,55
220,9	1,564
221,3	1,586
221,8	1,619
222,3	1,633
222,7	1,658
223,2	1,68
223,6	1,711
224,1	1,717
224,6	1,735
225	1,757
225,5	1,78
226	1,81
226,4	1,812
226,9	1,82
227,4	1,856
227,8	1,879
228,3	1,903
228,8	1,896
229,2	1,894
229,7	1,913
230,2	1,909
230,6	1,923
231,1	1,914
231,5	1,918
232	1,933
232,5	1,929
232,9	1,931
233,4	1,963
233,9	1,959
234,3	1,973
234,8	1,965
235,3	1,978
235,7	1,998
236,2	2,004
236,7	2,005
237,1	2,016
237,6	2,021
238,1	2,015
238,5	2,015
239	2,014
239,4	2,017
239,9	2,019
240,4	2,013
240,8	1,999
241,3	2,02
241,8	2,042
242,2	2,054
242,7	2,057
243,2	2,056
243,6	2,081
244,1	2,093
244,6	2,095
245	2,095
245,5	2,087
245,9	2,089
246,4	2,1
246,9	2,104
247,3	2,128
247,8	2,106
248,3	2,097
248,7	2,121
249,2	2,131
249,7	2,135
250,1	2,117
250,6	2,117
251	2,147
251,5	2,15
252	2,138
252,4	2,153
252,9	2,149
253,4	2,155
253,8	2,144
254,3	2,148
254,8	2,16
255,2	2,17
255,7	2,149
256,1	2,157
256,6	2,155
257,1	2,163
257,5	2,172
258	2,192
258,5	2,194
258,9	2,205
259,4	2,213
259,9	2,227
260,3	2,249
260,8	2,252
261,2	2,234
261,7	2,241
262,2	2,243
262,6	2,236
263,1	2,226
263,6	2,221
264	2,201
264,5	2,201
264,9	2,2
265,4	2,193
265,9	2,191
266,3	2,205
266,8	2,196
267,3	2,199
267,7	2,187
268,2	2,177
268,7	2,19
269,1	2,164
269,6	2,155
270	2,159
270,5	2,171
271	2,175
271,4	2,171
271,9	2,161
272,4	2,18
272,8	2,173
273,3	2,159
273,7	2,154
274,2	2,143
274,7	2,135
275,1	2,127
275,6	2,137
276,1	2,131
276,5	2,118
277	2,093
277,4	2,101
277,9	2,094
278,4	2,105
278,8	2,094
279,3	2,082
279,8	2,077
280,2	2,071
280,7	2,041
281,1	2,016
281,6	1,984
282,1	1,958
282,5	1,936
283	1,902
283,4	1,856
283,9	1,812
284,4	1,758
284,8	1,687
285,3	1,607
285,8	1,52
286,2	1,437
286,7	1,359
287,1	1,282
287,6	1,213
288,1	1,147
288,5	1,091
289	1,041
289,5	1
289,9	0,961
290,4	0,93
290,8	0,902
291,3	0,878
291,8	0,858
292,2	0,84
292,7	0,825
293,1	0,812
293,6	0,8
294,1	0,791
294,5	0,784
295	0,776
295,5	0,77
295,9	0,763
296,4	0,758
296,8	0,752
297,3	0,745
297,8	0,74
298,2	0,734
298,7	0,729
299,1	0,726
299,6	0,723
300,1	0,719
300,5	0,716
301	0,713
301,5	0,709
301,9	0,705
302,4	0,701
302,8	0,695
303,3	0,692
303,8	0,687
304,2	0,683
304,7	0,679
305,1	0,675
305,6	0,671
306,1	0,666
306,5	0,661
307	0,656
307,4	0,651
307,9	0,647
308,4	0,643
308,8	0,638
309,3	0,634
309,8	0,629
310,2	0,624
310,7	0,619
311,1	0,613
311,6	0,607
312,1	0,601
312,5	0,595
313	0,591
313,4	0,586
313,9	0,58
314,4	0,574
314,8	0,569
315,3	0,564
315,7	0,559
316,2	0,553
316,7	0,546
317,1	0,54
317,6	0,535
318	0,53
318,5	0,524
319	0,519
319,4	0,514
319,9	0,508
320,3	0,503
320,8	0,498
321,3	0,492
321,7	0,486
322,2	0,479
322,6	0,473
323,1	0,467
323,6	0,461
324	0,455
324,5	0,449
324,9	0,444
325,4	0,439
325,9	0,434
326,3	0,429
326,8	0,423
327,2	0,418
327,7	0,412
328,2	0,405
328,6	0,4
329,1	0,394
329,5	0,388
330	0,384
330,5	0,378
330,9	0,373
331,4	0,369
331,8	0,363
332,3	0,358
332,8	0,353
333,2	0,347
333,7	0,343
334,1	0,338
334,6	0,332
335,1	0,327
335,5	0,321
336	0,316
336,4	0,31
336,9	0,305
337,4	0,299
337,8	0,294
338,3	0,289
338,7	0,284
339,2	0,279
339,7	0,274
340,1	0,269
340,6	0,264
341	0,259
341,5	0,255
342	0,25
342,4	0,245
342,9	0,241
343,3	0,236
343,8	0,233
344,2	0,228
344,7	0,224
345,2	0,221
345,6	0,217
346,1	0,213
346,5	0,21
347	0,206
347,5	0,202
347,9	0,198
348,4	0,194
348,8	0,19
349,3	0,187
349,8	0,183
350,2	0,18
350,7	0,177
351,1	0,174
351,6	0,17
352	0,167
352,5	0,164
353	0,161
353,4	0,158
353,9	0,155
354,3	0,152
354,8	0,149
355,3	0,147
355,7	0,144
356,2	0,141
356,6	0,138
357,1	0,136
357,5	0,133
358	0,13
358,5	0,127
358,9	0,126
359,4	0,123
359,8	0,121
360,3	0,119
360,8	0,117
361,2	0,115
361,7	0,113
362,1	0,111
362,6	0,109
363	0,107
363,5	0,105
364	0,102
364,4	0,101
364,9	0,1
365,3	0,097
365,8	0,096
366,3	0,095
366,7	0,093
367,2	0,091
367,6	0,09
368,1	0,088
368,5	0,087
369	0,086
369,5	0,084
369,9	0,082
370,4	0,081
370,8	0,08
371,3	0,079
371,7	0,077
372,2	0,076
372,7	0,075
373,1	0,074
373,6	0,072
374	0,071
374,5	0,07
374,9	0,069
375,4	0,068
375,9	0,066
376,3	0,066
376,8	0,065
377,2	0,064
377,7	0,063
378,2	0,062
378,6	0,061
379,1	0,06
379,5	0,059
380	0,058
380,4	0,057
380,9	0,055
381,4	0,055
381,8	0,054
382,3	0,054
382,7	0,053
383,2	0,053
383,6	0,052
384,1	0,052
384,6	0,051
385	0,051
385,5	0,05
385,9	0,049
386,4	0,048
386,8	0,047
387,3	0,047
387,7	0,046
388,2	0,045
388,7	0,044
389,1	0,044
389,6	0,043
390	0,043
390,5	0,042
390,9	0,041
391,4	0,04
391,9	0,039
392,3	0,039
392,8	0,038
393,2	0,037
393,7	0,037
394,1	0,037
394,6	0,036
395,1	0,036
395,5	0,036
396	0,035
396,4	0,035
396,9	0,034
397,3	0,033
397,8	0,033
398,2	0,033
398,7	0,032
399,2	0,032
399,6	0,031
400,1	0,031
400,5	0,031
401	0,03
401,4	0,029
401,9	0,028
402,4	0,027
402,8	0,027
403,3	0,026
403,7	0,026
404,2	0,026
404,6	0,026
405,1	0,026
405,5	0,026
406	0,025
406,5	0,025
406,9	0,024
407,4	0,023
407,8	0,022
408,3	0,022
408,7	0,021
409,2	0,021
409,6	0,02
410,1	0,021
410,6	0,021
411	0,02
411,5	0,02
411,9	0,02
412,4	0,019
412,8	0,019
413,3	0,018
413,7	0,018
414,2	0,017
414,7	0,017
415,1	0,017
415,6	0,016
416	0,016
416,5	0,015
416,9	0,015
417,4	0,015
417,8	0,014
418,3	0,014
418,8	0,014
419,2	0,014
419,7	0,014
420,1	0,013
420,6	0,013
421	0,013
421,5	0,013
421,9	0,012
422,4	0,012
422,8	0,011
423,3	0,01
423,8	0,009
424,2	0,009
424,7	0,009
425,1	0,008
425,6	0,007
426	0,008
426,5	0,008
426,9	0,008
427,4	0,007
427,9	0,007
428,3	0,007
428,8	0,007
429,2	0,007
429,7	0,006
430,1	0,006
430,6	0,005
431	0,005
431,5	0,005
431,9	0,004
432,4	0,004
432,8	0,004
433,3	0,005
433,8	0,005
434,2	0,005
434,7	0,005
435,1	0,005
435,6	0,005
436	0,005
436,5	0,005
436,9	0,004
437,4	0,004
437,8	0,004
438,3	0,004
438,8	0,003
439,2	0,003
439,7	0,002
440,1	0,002
440,6	0,001
441	0,002
441,5	0,001
441,9	0
442,4	0
442,8	0
443,3	0
443,7	0,001
444,2	0,001
444,7	0
445,1	0,001
445,6	0,001
446	0,001
446,5	0,001
446,9	0,001
447,4	0,001
447,8	0,001
448,3	0,001
448,7	0,002
449,2	0,001
449,6	0,001
450,1	0,001
450,6	0,001
451	0
451,5	-0
451,9	-0,001
452,4	-0
452,8	-0,001
453,3	-0,001
453,7	-0,001
454,2	-0,001
454,6	-0
455,1	-0
455,5	-0
456	0,001
456,4	0,001
456,9	0,001
457,3	0,001
457,8	0
458,3	-0,001
458,7	-0,001
459,2	-0,002
459,6	-0,002
460,1	-0,002
460,5	-0,003
461	-0,002
461,4	-0,002
461,9	-0,003
462,3	-0,003
462,8	-0,002
463,2	-0,002
463,7	-0,002
464,1	-0,002
464,6	-0,002
465	-0,001
465,5	-0,001
466	-0,001
466,4	-0,001
466,9	-0,001
467,3	-0,001
467,8	-0,002
468,2	-0,002
468,7	-0,002
469,1	-0,002
469,6	-0,002
470	-0,002
470,5	-0,002
470,9	-0,002
471,4	-0,002
471,8	-0,002
472,3	-0,003
472,7	-0,002
473,2	-0,002
473,6	-0,002
474,1	-0,002
474,5	-0,002
475	-0,002
475,4	-0,002
475,9	-0,002
476,4	-0,002
476,8	-0,002
477,3	-0,002
477,7	-0,002
478,2	-0,002
478,6	-0,002
479,1	-0,002
479,5	-0,002
480	-0,001
480,4	-0,001
480,9	-0
481,3	-0
481,8	-0
482,2	-0,001
482,7	-0,001
483,1	-0,002
483,6	-0,002
484	-0,003
484,5	-0,003
484,9	-0,004
485,4	-0,003
485,8	-0,002
486,3	-0,002
486,7	-0,002
487,2	-0,002
487,6	-0,002
488,1	-0,001
488,5	-0,001
489	-0,002
489,4	-0,002
489,9	-0,001
490,4	-0,001
490,8	-0,001
491,3	-0,002
491,7	-0,002
492,2	-0,002
492,6	-0,001
493,1	-0,001
493,5	-0,001
494	-0,001
494,4	-0,001
494,9	-0,001
495,3	-0,001
495,8	-0,001
496,2	-0,001
496,7	-0,001
497,1	-0,001
497,6	-0,002
498	-0,002
498,5	-0,002
498,9	-0,002
499,4	-0,002
499,8	-0,002
500,3	-0,002
500,7	-0,002
501,2	-0,002
501,6	-0,002
502,1	-0,002
502,5	-0,002
503	-0,002
503,4	-0,001
503,9	-0,001
504,3	-0,001
504,8	-0
505,2	-0
505,7	-0
506,1	-0,001
506,6	-0,001
507	-0
507,5	-0,001
507,9	-0,001
508,4	-0,001
508,8	-0,001
509,3	-0,001
509,7	-0,001
510,2	-0,001
510,6	-0,001
511,1	-0,001
511,5	-0,002
512	-0,002
512,4	-0,002
512,9	-0,002
513,3	-0,002
513,8	-0,002
514,2	-0,001
514,7	-0,001
515,1	-0,001
515,6	-0,002
516	-0,001
516,5	-0,001
516,9	-0,001
517,4	-0,001
517,8	-0,002
518,3	-0,001
518,7	-0,001
519,2	-0,001
519,6	-0,001
520,1	-0,001
520,5	-0,001
521	-0,001
521,4	-0,001
521,9	-0,001
522,3	-0
522,8	-0,001
523,2	-0,001
523,7	-0,001
524,1	-0,001
524,6	-0,001
525	-0,001
525,5	-0,001
525,9	-0,002
526,4	-0,001
526,8	-0,002
527,3	-0,001
527,7	-0,001
528,2	-0,001
528,6	-0,001
529,1	-0,001
529,5	-0,001
530	-0,001
530,4	-0
530,9	-0
531,3	0
531,8	-0
532,2	-0,001
532,6	-0,001
533,1	-0,001
533,5	-0,002
534	-0,001
534,4	-0,001
534,9	-0,001
535,3	-0,001
535,8	-0,001
536,2	-0,002
536,7	-0,002
537,1	-0,002
537,6	-0,002
538	-0,002
538,5	-0,002
538,9	-0,001
539,4	-0,001
539,8	-0
540,3	-0
540,7	-0,001
541,2	-0
541,6	-0
542,1	-0,001
542,5	-0,001
543	-0,001
543,4	-0,001
543,9	-0,001
544,3	-0,002
544,8	-0,002
545,2	-0,003
545,7	-0,002
546,1	-0,002
546,5	-0,002
547	-0,002
547,4	-0,002
547,9	-0,002
548,3	-0,002
548,8	-0,002
549,2	-0,002
549,7	-0,001
550,1	-0,002
550,6	-0,002
551	-0,002
551,5	-0,001
551,9	-0,001
552,4	-0,001
552,8	-0,001
553,3	-0,001
553,7	-0,001
554,2	-0,001
554,6	-0,002
555,1	-0,002
555,5	-0,002
555,9	-0,002
556,4	-0,002
556,8	-0,002
557,3	-0,002
557,7	-0,002
558,2	-0,002
558,6	-0,002
559,1	-0,002
559,5	-0,002
560	-0,002
560,4	-0,002
560,9	-0,002
561,3	-0,001
561,8	-0,001
562,2	-0,001
562,7	-0,001
563,1	-0,001
563,6	-0,001
564	-0
564,4	-0,001
564,9	-0,001
565,3	-0,001
565,8	-0,001
566,2	-0,001
566,7	-0,001
567,1	-0,001
567,6	-0,001
568	-0,001
568,5	-0,001
568,9	-0,001
569,4	-0
569,8	-0,001
570,3	-0,001
570,7	-0,001
571,1	-0,001
571,6	-0,001
572	-0,001
572,5	-0,001
572,9	-0,001
573,4	-0,001
573,8	-0,001
574,3	-0,001
574,7	-0,002
575,2	-0,002
575,6	-0,002
576,1	-0,002
576,5	-0,002
576,9	-0,001
577,4	-0,001
577,8	-0,001
578,3	-0,001
578,7	-0,001
579,2	-0,001
579,6	-0,001
580,1	-0,001
580,5	-0,001
581	-0,001
581,4	-0,001
581,9	-0,001
582,3	-0,001
582,7	-0,001
583,2	-0,001
583,6	-0
584,1	-0
584,5	-0,001
585	-0
585,4	-0
585,9	-0,001
586,3	-0,001
586,8	-0,001
587,2	-0,001
587,6	-0,001
588,1	-0,001
588,5	-0,001
589	-0,001
589,4	-0,002
589,9	-0,002
590,3	-0,001
590,8	-0,001
591,2	-0,002
591,7	-0,002
592,1	-0,001
592,5	-0,001
593	-0,001
593,4	-0,001
593,9	-0,001
594,3	-0,001
594,8	-0,001
595,2	-0,001
595,7	-0
596,1	-0,001
596,6	-0,001
597	-0,001
597,4	-0,001
597,9	-0,001
598,3	-0,001
598,8	-0,002
599,2	-0,002
599,7	-0,002
600,1	-0,002
600,6	-0,002
601	-0,002
601,4	-0,002
601,9	-0,003
602,3	-0,003
602,8	-0,002
603,2	-0,003
603,7	-0,003
604,1	-0,002
604,6	-0,002
605	-0,002
605,4	-0,002
605,9	-0,002
606,3	-0,002
606,8	-0,001
607,2	-0,001
607,7	-0,001
608,1	-0,001
608,6	-0,001
609	-0,001
609,4	-0,001
609,9	-0,001
610,3	-0,001
610,8	-0,001
611,2	-0,001
611,7	-0,001
612,1	-0,002
612,6	-0,002
613	-0,002
613,4	-0,002
613,9	-0,002
614,3	-0,002
614,8	-0,002
615,2	-0,001
615,7	-0,001
616,1	-0,001
616,6	-0,001
617	-0,002
617,4	-0,001
617,9	-0,002
618,3	-0,001
618,8	-0,001
619,2	-0,002
619,7	-0,001
620,1	-0,001
620,5	-0,001
621	-0,001
621,4	-0,001
621,9	-0,001
622,3	0
622,8	0
623,2	0
623,6	-0
624,1	-0
624,5	-0,001
625	-0,001
625,4	-0,001
625,9	-0,002
626,3	-0,002
626,8	-0,002
627,2	-0,001
627,6	-0,001
628,1	-0,001
628,5	-0,001
629	-0,001
629,4	-0,001
629,9	-0,001
630,3	-0,001
630,7	-0,001
631,2	-0,001
631,6	-0,001
632,1	-0,001
632,5	-0,001
633	-0,001
633,4	-0,001
633,8	-0,002
634,3	-0,002
634,7	-0,001
635,2	-0,001
635,6	-0,001
636,1	-0,001
636,5	-0
636,9	-0
637,4	-0,001
637,8	-0,001
638,3	-0
638,7	-0
639,2	-0
639,6	-0
640	-0,001
640,5	-0,001
640,9	-0,001
641,4	-0,001
641,8	-0,001
642,2	-0,001
642,7	-0,001
643,1	-0,001
643,6	-0,001
644	-0,001
644,5	-0,001
644,9	-0,001
645,3	-0,001
645,8	-0,001
646,2	-0
646,7	-0
647,1	0
647,6	0
648	0
648,4	0
648,9	0
649,3	-0
649,8	-0
650,2	-0,001
650,6	-0,001
651,1	-0,001
651,5	-0,001
652	-0,001
652,4	-0,001
652,9	-0,002
653,3	-0,001
653,7	-0,001
654,2	-0,001
654,6	-0,002
655,1	-0,001
655,5	-0,001
655,9	-0,001
656,4	-0
656,8	-0
657,3	0
657,7	0,001
658,2	0,001
658,6	0,001
659	0,002
659,5	0,002
659,9	0,003
660,4	0,002
660,8	0,001
661,2	0
661,7	-0
662,1	-0,001
662,6	-0,002
663	-0,002
663,4	-0,002
663,9	-0,002
664,3	-0,002
664,8	-0,002
665,2	-0,002
665,6	-0,002
666,1	-0,002
666,5	-0,002
667	-0,002
667,4	-0,001
667,9	-0,001
668,3	-0,001
668,7	-0,001
669,2	-0,001
669,6	-0,001
670,1	-0,002
670,5	-0,002
670,9	-0,002
671,4	-0,001
671,8	-0,002
672,3	-0,002
672,7	-0,002
673,1	-0,002
673,6	-0,002
674	-0,002
674,5	-0,002
674,9	-0,002
675,3	-0,002
675,8	-0,002
676,2	-0,002
676,7	-0,001
677,1	-0,002
677,5	-0,002
678	-0,002
678,4	-0,001
678,9	-0,001
679,3	-0,001
679,7	-0,002
680,2	-0,001
680,6	-0,001
681,1	-0,001
681,5	-0,001
681,9	-0,001
682,4	-0,001
682,8	-0,001
683,3	-0,001
683,7	-0,001
684,1	-0,001
684,6	-0,001
685	-0,001
685,5	-0,002
685,9	-0,002
686,3	-0,002
686,8	-0,001
687,2	-0,002
687,7	-0,001
688,1	-0,001
688,5	-0,001
689	-0,001
689,4	-0,001
689,9	-0,001
690,3	-0,001
690,7	-0,001
691,2	-0,001
691,6	-0,001
692	-0,001
692,5	-0,001
692,9	-0,001
693,4	-0,001
693,8	-0,001
694,2	-0,001
694,7	-0,001
695,1	-0,001
695,6	-0,001
696	-0
696,4	-0
696,9	-0,001
697,3	-0,001
697,8	-0,001
698,2	-0,001
698,6	-0,001
699,1	-0,001
699,5	-0,002
699,9	-0,002
700,4	-0,002
700,8	-0,001
701,3	-0,001
701,7	-0,001
702,1	-0,001
702,6	-0
703	-0
703,5	0
703,9	0
704,3	0
704,8	0
705,2	0
705,6	0
706,1	-0
706,5	-0,001
707	-0,001
707,4	-0,001
707,8	-0,001
708,3	-0,001
708,7	-0,001
709,2	-0,001
709,6	-0,001
710	-0,001
710,5	-0,001
710,9	-0,001
711,3	-0,001
711,8	-0,001
712,2	-0,001
712,7	-0,001
713,1	-0,001
713,5	-0,001
714	-0,001
714,4	-0,001
714,8	-0,001
715,3	-0,001
715,7	-0,001
716,2	-0,001
716,6	-0,001
717	-0,001
717,5	-0,001
717,9	-0,001
718,3	-0,001
718,8	-0,002
719,2	-0,002
719,7	-0,002
720,1	-0,002
720,5	-0,001
721	-0,001
721,4	-0,001
721,8	-0,001
722,3	-0,001
722,7	-0,001
723,2	-0,001
723,6	-0,002
724	-0,002
724,5	-0,002
724,9	-0,002
725,3	-0,002
725,8	-0,002
726,2	-0,001
726,7	-0,001
727,1	-0,001
727,5	-0,001
728	-0,001
728,4	-0,001
728,8	-0,001
729,3	-0,001
729,7	-0,001
730,1	-0,001
730,6	-0,001
731	-0,001
731,5	-0,001
731,9	-0,001
732,3	-0,001
732,8	-0,001
733,2	-0,001
733,6	-0,001
734,1	-0,001
734,5	-0,001
734,9	-0,001
735,4	-0,001
735,8	-0,001
736,3	-0,001
736,7	-0,001
737,1	-0
737,6	-0
738	-0
738,4	-0
738,9	-0,001
739,3	-0,001
739,7	-0,001
740,2	-0,001
740,6	-0,002
741,1	-0,002
741,5	-0,002
741,9	-0,002
742,4	-0,001
742,8	-0,001
743,2	-0,001
743,7	-0
744,1	0
744,5	0
745	0
745,4	0
745,8	-0
746,3	-0
746,7	-0
747,2	-0,001
747,6	-0,001
748	-0,001
748,5	-0,001
748,9	-0
749,3	-0
749,8	-0
750,2	0
750,6	-0
751,1	0
751,5	0
751,9	0
752,4	0
752,8	0
753,3	0
753,7	0
754,1	-0
754,6	0
755	-0
755,4	-0
755,9	-0
756,3	-0
756,7	-0,001
757,2	-0
757,6	-0,001
758	-0,001
758,5	-0,001
758,9	-0,001
759,3	-0,001
759,8	-0,001
760,2	-0,001
760,6	-0,001
761,1	-0,001
761,5	-0
761,9	-0
762,4	0
762,8	0
763,3	0
763,7	0
764,1	0,001
764,6	0,001
765	0
765,4	0,001
765,9	0,001
766,3	0,001
766,7	0,001
767,2	0,001
767,6	0,001
768	0,001
768,5	0,001
768,9	0,001
769,3	0,001
769,8	0,001
770,2	0,001
770,6	0,001
771,1	0,001
771,5	0
771,9	0
772,4	-0
772,8	0
773,2	0
773,7	-0
774,1	0
774,5	0
775	0
775,4	0
775,8	0
776,3	0
776,7	0
777,1	0
777,6	-0
778	-0
778,4	-0
778,9	-0
779,3	0
779,7	-0
780,2	-0
780,6	-0
781	-0
781,5	0
781,9	0
782,3	0
782,8	0
783,2	0
783,6	0
784,1	0
784,5	-0
784,9	-0
785,4	-0
785,8	-0,001
786,2	-0,001
786,7	-0,001
787,1	-0,001
787,5	-0,001
788	-0,001
788,4	-0,002
788,8	-0,002
789,3	-0,002
789,7	-0,002
790,1	-0,001
790,6	-0,002
791	-0,002
791,4	-0,001
791,9	-0,001
792,3	-0,001
792,7	-0,001
793,2	-0,001
793,6	-0,001
794	-0
794,5	-0
794,9	-0
795,3	0
795,8	0
796,2	0,001
796,6	0,001
797,1	0,001
797,5	0,001
797,9	0,001
798,4	0,001
798,8	0
799,2	0
799,7	0
800,1	-0
800,5	-0
801	-0,001
801,4	-0,001
801,8	-0,001
802,2	-0,001
802,7	-0,001
803,1	-0,001
803,5	-0,001
804	-0
804,4	0
804,8	0
805,3	-0
805,7	-0
806,1	-0
806,6	-0
807	-0,001
807,4	-0,001
807,9	-0
808,3	-0,001
808,7	-0
809,2	-0,001
809,6	-0,001
810	-0,001
810,4	-0,001
810,9	-0,001
811,3	-0,001
811,7	-0,001
812,2	-0,001
812,6	-0
813	-0
813,5	-0
813,9	-0,001
814,3	-0,001
814,8	-0,001
815,2	-0,001
815,6	-0,001
816,1	-0,002
816,5	-0,002
816,9	-0,002
817,3	-0,002
817,8	-0,002
818,2	-0,002
818,6	-0,002
819,1	-0,001
819,5	-0,001
819,9	-0,001
820,4	-0,001
820,8	-0,001
821,2	-0,001
821,7	-0,002
822,1	-0,002
822,5	-0,002
822,9	-0,002
823,4	-0,002
823,8	-0,002
824,2	-0,002
824,7	-0,002
825,1	-0,002
825,5	-0,002
826	-0,001
826,4	-0,001
826,8	-0,001
827,3	-0,001
827,7	-0,001
828,1	-0
828,5	-0
829	-0
829,4	-0,001
829,8	-0
830,3	-0
830,7	-0
831,1	-0
831,6	-0
832	-0
832,4	0
832,8	-0
833,3	-0
833,7	-0,001
834,1	-0,001
834,6	-0,001
835	-0,001
835,4	-0,001
835,8	-0,001
836,3	-0,002
836,7	-0,002
837,1	-0,002
837,6	-0,002
838	-0,002
838,4	-0,002
838,9	-0,002
839,3	-0,001
839,7	-0,001
840,1	0
840,6	0
841	0
841,4	0,001
841,9	0
842,3	-0
842,7	-0,001
843,1	-0
843,6	-0,001
844	-0
844,4	-0
844,9	0
845,3	0
845,7	0
846,2	-0
846,6	0
847	0
847,4	-0
847,9	-0
848,3	-0
848,7	0
849,2	0
849,6	-0
850	-0
850,4	0
850,9	-0
851,3	-0,001
851,7	-0
852,2	-0
852,6	0
853	0,001
853,4	0
853,9	0,001
854,3	0,001
854,7	0,001
855,2	0,001
855,6	0,001
856	0,001
856,4	0,001
856,9	0,001
857,3	0,001
857,7	0
858,2	-0
858,6	-0,001
859	-0,001
859,4	-0,001
859,9	-0,002
860,3	-0,002
860,7	-0,002
861,1	-0,002
861,6	-0,001
862	-0,002
862,4	-0,002
862,9	-0,001
863,3	-0,001
863,7	-0,001
864,1	-0,001
864,6	-0,001
865	-0,001
865,4	-0,001
865,9	-0,001
866,3	-0,001
866,7	-0,001
867,1	-0,001
867,6	-0
868	-0
868,4	-0,001
868,8	-0
869,3	-0,001
869,7	-0,001
870,1	-0,001
870,6	-0,001
871	-0,001
871,4	-0,001
871,8	-0,001
872,3	-0,001
872,7	-0,002
873,1	-0,002
873,5	-0,003
874	-0,002
874,4	-0,002
874,8	-0,002
875,3	-0,002
875,7	-0,002
876,1	-0,002
876,5	-0,002
877	-0,002
877,4	-0,002
877,8	-0,002
878,2	-0,002
878,7	-0,002
879,1	-0,002
879,5	-0,002
879,9	-0,002
880,4	-0,002
880,8	-0,002
881,2	-0,001
881,7	-0,001
882,1	-0,001
882,5	-0,001
882,9	-0,001
883,4	-0,001
883,8	-0,001
884,2	-0,001
884,6	-0,001
885,1	-0,001
885,5	-0,001
885,9	-0,001
886,3	-0,001
886,8	-0,001
887,2	-0,001
887,6	-0,001
888	-0,001
888,5	-0,001
888,9	-0
889,3	-0
889,8	0
890,2	0
890,6	0
891	0
891,5	0
891,9	0
892,3	0
892,7	-0
893,2	-0
893,6	-0
894	-0,001
894,4	-0,001
894,9	-0,001
895,3	-0
895,7	-0
896,1	-0
896,6	-0
897	-0,001
897,4	-0,001
897,8	-0,001
898,3	-0,001
898,7	-0,001
899,1	-0,001
899,5	-0,001
900	-0,001
900,4	-0,001
900,8	-0,001
901,2	-0,001
901,7	-0,001
902,1	-0,001
902,5	-0,002
902,9	-0,002
903,4	-0,002
903,8	-0,002
904,2	-0,002
904,6	-0,001
905,1	-0,001
905,5	-0,001
905,9	-0,001
906,3	-0,002
906,8	-0,002
907,2	-0,002
907,6	-0,003
908	-0,003
908,5	-0,003
908,9	-0,004
909,3	-0,004
909,7	-0,004
910,2	-0,004
910,6	-0,004
911	-0,003
911,4	-0,002
911,9	-0,002
912,3	-0,002
912,7	-0,002
913,1	-0,002
913,6	-0,002
914	-0,002
914,4	-0,002
914,8	-0,002
915,3	-0,002
915,7	-0,002
916,1	-0,002
916,5	-0,001
916,9	-0,001
917,4	-0,001
917,8	-0,001
918,2	-0,001
918,6	-0
919,1	-0
919,5	0
919,9	0,001
920,3	0,001
920,8	0
921,2	0
921,6	0
922	0
922,5	-0
922,9	-0
923,3	-0
923,7	-0,001
924,2	-0,001
924,6	-0,001
925	-0,001
925,4	-0,001
925,8	-0
926,3	-0,001
926,7	-0
927,1	-0
927,5	0
928	0
928,4	-0
928,8	-0,001
929,2	-0
929,7	-0
930,1	-0
930,5	-0
930,9	-0
931,3	-0
931,8	0
932,2	-0
932,6	-0,001
933	-0,001
933,5	-0,001
933,9	-0,001
934,3	-0,001
934,7	-0,001
935,2	-0,001
935,6	-0
936	0
936,4	0
936,8	0
937,3	0
937,7	-0
938,1	-0,001
938,5	-0,001
939	-0,002
939,4	-0,002
939,8	-0,002
940,2	-0,002
940,6	-0,003
941,1	-0,003
941,5	-0,002
941,9	-0,002
942,3	-0,002
942,8	-0,002
943,2	-0,002
943,6	-0,002
944	-0,002
944,4	-0,002
944,9	-0,002
945,3	-0,002
945,7	-0,002
946,1	-0,002
946,6	-0,001
947	-0,001
947,4	-0,001
947,8	-0,002
948,2	-0,002
948,7	-0,002
949,1	-0,003
949,5	-0,003
949,9	-0,003
950,3	-0,004
950,8	-0,003
951,2	-0,004
951,6	-0,004
952	-0,003
952,5	-0,003
952,9	-0,004
953,3	-0,003
953,7	-0,003
954,1	-0,003
954,6	-0,003
955	-0,003
955,4	-0,002
955,8	-0,002
956,2	-0,002
956,7	-0,002
957,1	-0,002
957,5	-0,002
957,9	-0,002
958,3	-0,003
958,8	-0,003
959,2	-0,003
959,6	-0,003
960	-0,004
960,5	-0,004
960,9	-0,003
961,3	-0,003
961,7	-0,003
962,1	-0,002
962,6	-0,003
963	-0,002
963,4	-0,002
963,8	-0,003
964,2	-0,003
964,7	-0,003
965,1	-0,002
965,5	-0,002
965,9	-0,002
966,3	-0,001
966,8	0
967,2	0,001
967,6	0,001
968	0
968,4	-0
968,9	-0,001
969,3	-0,002
969,7	-0,002
970,1	-0,002
970,5	-0,003
971	-0,002
971,4	-0,002
971,8	-0,002
972,2	-0,002
972,6	-0,002
973,1	-0,002
973,5	-0,002
973,9	-0,002
974,3	-0,002
974,7	-0,001
975,2	-0,001
975,6	-0,001
976	-0,001
976,4	-0,001
976,8	-0,001
977,3	-0,001
977,7	-0,002
978,1	-0,001
978,5	-0,001
978,9	-0
979,4	-0
979,8	0
980,2	0,001
980,6	0,001
981	0,001
981,5	0,001
981,9	0,001
982,3	0,001
982,7	0,001
983,1	0
983,6	0
984	-0,001
984,4	-0,001
984,8	-0,001
985,2	-0,001
985,6	-0,002
986,1	-0,002
986,5	-0,001
986,9	-0,001
987,3	-0,001
987,7	-0,001
988,2	-0,001
988,6	-0,001
989	-0,001
989,4	-0,002
989,8	-0,002
990,3	-0,002
990,7	-0,002
991,1	-0,002
991,5	-0,002
991,9	-0,002
992,3	-0,002
992,8	-0,001
993,2	-0,001
993,6	-0,001
994	-0,001
994,4	-0,001
994,9	-0,001
995,3	-0,001
995,7	-0,001
996,1	-0,001
996,5	-0,001
996,9	-0,001
997,4	-0
997,8	-0
998,2	-0
998,6	-0
999	0
999,5	0
999,9	0,001
1000,3	0,001
1000,7	0,001
1001,1	0,001
1001,5	0,001
1002	0
1002,4	0
1002,8	-0,001
1003,2	-0,001
1003,6	-0,002
1004	-0,002
1004,5	-0,003
1004,9	-0,002
1005,3	-0,002
1005,7	-0,001
1006,1	-0,001
1006,6	-0,001
1007	0
1007,4	0
1007,8	0
1008,2	-0
1008,6	-0,001
1009,1	-0,001
1009,5	-0,001
1009,9	-0,001
1010,3	-0,002
1010,7	-0,002
1011,1	-0,002
1011,6	-0,002
1012	-0,002
1012,4	-0,002
1012,8	-0,003
1013,2	-0,003
1013,6	-0,003
1014,1	-0,002
1014,5	-0,003
1014,9	-0,002
1015,3	-0,002
1015,7	-0,002
1016,1	-0,002
1016,6	-0,002
1017	-0,001
1017,4	-0,001
1017,8	-0,001
1018,2	-0,001
1018,6	-0
1019,1	-0,001
1019,5	-0,001
1019,9	-0
1020,3	0
1020,7	0
1021,1	-0
1021,6	-0
1022	0
1022,4	-0
1022,8	-0
1023,2	-0
1023,6	0
1024,1	0,001
1024,5	0,002
1024,9	0,002
1025,3	0,003
1025,7	0,003
1026,1	0,004
1026,6	0,004
1027	0,003
1027,4	0,002
1027,8	0,001
1028,2	0,002
1028,6	0,002
1029	0,001
1029,5	0,002
1029,9	0,002
1030,3	0,002
1030,7	0,003
1031,1	0,003
1031,5	0,002
1032	0,003
1032,4	0,003
1032,8	0,002
1033,2	0,002
1033,6	0,001
1034	0,001
1034,4	0
1034,9	0
1035,3	0
1035,7	0,001
1036,1	0
1036,5	0
1036,9	-0
1037,4	-0
1037,8	-0
1038,2	0
1038,6	-0,001
1039	-0
1039,4	-0,001
1039,8	-0,001
1040,3	-0
1040,7	-0,001
1041,1	-0,001
1041,5	-0,001
1041,9	-0,001
1042,3	-0,001
1042,7	-0,001
1043,2	-0,001
1043,6	-0,001
1044	-0,001
1044,4	-0,001
1044,8	-0
1045,2	0
1045,6	0
1046,1	0,001
1046,5	0,001
1046,9	0,001
1047,3	0,001
1047,7	0,001
1048,1	0
1048,5	-0
1049	-0,001
1049,4	-0,001
1049,8	-0,002
1050,2	-0,001
1050,6	-0,002
1051	-0,002
1051,4	-0,002
1051,9	-0,002
1052,3	-0,002
1052,7	-0,002
1053,1	-0,002
1053,5	-0,001
1053,9	-0,001
1054,3	-0,001
1054,8	-0,001
1055,2	-0,002
1055,6	-0,002
1056	-0,002
1056,4	-0,002
1056,8	-0,002
1057,2	-0,001
1057,6	-0,002
1058,1	-0,001
1058,5	-0,002
1058,9	-0,001
1059,3	-0,002
1059,7	-0,002
1060,1	-0,003
1060,5	-0,003
1061	-0,003
1061,4	-0,003
1061,8	-0,004
1062,2	-0,004
1062,6	-0,004
1063	-0,004
1063,4	-0,004
1063,8	-0,003
1064,3	-0,003
1064,7	-0,002
1065,1	-0,002
1065,5	-0,003
1065,9	-0,002
1066,3	-0
1066,7	-0
1067,1	-0,001
1067,6	-0,001
1068	-0,002
1068,4	-0
1068,8	-0,001
1069,2	-0,001
1069,6	-0,002
1070	-0,001
1070,4	-0,001
1070,9	-0,001
1071,3	-0
1071,7	-0,001
1072,1	-0,001
1072,5	-0,001
1072,9	-0,002
1073,3	-0,001
1073,7	-0,001
1074,2	-0,003
1074,6	-0,002
1075	-0,002
1075,4	-0,002
1075,8	-0,001
1076,2	-0,001
1076,6	-0,001
1077	-0
1077,5	-0,001
1077,9	-0,003
1078,3	-0,002
1078,7	-0,003
1079,1	-0,002
1079,5	-0,003
1079,9	-0,003
1080,3	-0,003
1080,7	-0,001
1081,2	-0
1081,6	0
1082	-0,001
1082,4	-0,002
1082,8	-0,003
1083,2	-0,004
1083,6	-0,005
1084	-0,005
1084,5	-0,005
1084,9	-0,005
1085,3	-0,002
1085,7	-0
1086,1	0,004
1086,5	0,006
1086,9	0,005
1087,3	0,006
1087,7	0,007
1088,2	0,005
1088,6	0,002
1089	0,001
1089,4	-0
1089,8	0
1090,2	-0,004
1090,6	-0,006
1091	-0,001
1091,4	-0
1091,9	-0,002
1092,3	-0,002
1092,7	0,001
1093,1	0,004
1093,5	0,004
1093,9	0
1094,3	0,003
1094,7	0,006
1095,1	0,008
1095,5	0,007
1096	0,005
1096,4	0,005
1096,8	0,009
1097,2	0,004
1097,6	-0
1098	-0,002
1098,4	-0,005
1098,8	-0,002
1099,2	-0,003
1099,6	-0,005
1100,1	0,004
1100,5	0,011
1100,9	0,01
1101,3	0,013
1101,7	0,011
1102,1	0,008
1102,5	0,005
1102,9	0,009
1103,3	0,002
1103,7	0,003
1104,2	0,001
1104,6	0,002
1105	-0,004
1105,4	0,002
1105,8	-0,005
1106,2	-0,004
1106,6	-0,011
1107	-0,02
1107,4	-0,037
1107,8	0,015
1108,3	-0
