Data from Absorbance_00051.txt Node
Date: Fri Aug 11 13:16:00 MSK 2023
User: vat
Spectrometer: MAYP114033
Trigger mode: 0
Integration Time (sec): 8,000000E-3
Scans to average: 10
Electric dark correction enabled: true
Nonlinearity correction enabled: false
Boxcar width: 3
XAxis mode: Wavelengths
Number of Pixels in Spectrum: 2068
>>>>>Begin Spectral Data<<<<<
199,4	0,009
199,9	0,106
200,4	0,404
200,8	0,686
201,3	0,859
201,8	0,912
202,2	0,943
202,7	0,962
203,2	1,029
203,6	1,075
204,1	1,118
204,6	1,128
205	1,151
205,5	1,165
206	1,19
206,4	1,199
206,9	1,201
207,4	1,207
207,8	1,227
208,3	1,241
208,8	1,259
209,2	1,278
209,7	1,298
210,2	1,33
210,6	1,354
211,1	1,364
211,5	1,382
212	1,404
212,5	1,42
212,9	1,427
213,4	1,417
213,9	1,395
214,3	1,4
214,8	1,428
215,3	1,428
215,7	1,448
216,2	1,439
216,7	1,473
217,1	1,517
217,6	1,54
218,1	1,53
218,5	1,54
219	1,556
219,5	1,574
219,9	1,581
220,4	1,592
220,9	1,606
221,3	1,618
221,8	1,652
222,3	1,642
222,7	1,667
223,2	1,68
223,6	1,69
224,1	1,702
224,6	1,719
225	1,732
225,5	1,764
226	1,794
226,4	1,794
226,9	1,81
227,4	1,833
227,8	1,851
228,3	1,863
228,8	1,872
229,2	1,877
229,7	1,9
230,2	1,899
230,6	1,903
231,1	1,901
231,5	1,912
232	1,909
232,5	1,907
232,9	1,914
233,4	1,939
233,9	1,959
234,3	1,957
234,8	1,953
235,3	1,962
235,7	1,976
236,2	1,991
236,7	1,997
237,1	1,992
237,6	2,019
238,1	2,032
238,5	2,024
239	2,03
239,4	2,026
239,9	2,028
240,4	2,032
240,8	2,044
241,3	2,049
241,8	2,093
242,2	2,104
242,7	2,104
243,2	2,107
243,6	2,107
244,1	2,103
244,6	2,105
245	2,098
245,5	2,094
245,9	2,104
246,4	2,123
246,9	2,12
247,3	2,114
247,8	2,101
248,3	2,103
248,7	2,111
249,2	2,118
249,7	2,118
250,1	2,128
250,6	2,141
251	2,158
251,5	2,15
252	2,146
252,4	2,157
252,9	2,157
253,4	2,166
253,8	2,156
254,3	2,149
254,8	2,164
255,2	2,17
255,7	2,158
256,1	2,155
256,6	2,15
257,1	2,168
257,5	2,183
258	2,182
258,5	2,183
258,9	2,178
259,4	2,192
259,9	2,188
260,3	2,198
260,8	2,203
261,2	2,207
261,7	2,219
262,2	2,224
262,6	2,211
263,1	2,232
263,6	2,207
264	2,199
264,5	2,194
264,9	2,195
265,4	2,195
265,9	2,189
266,3	2,178
266,8	2,186
267,3	2,191
267,7	2,19
268,2	2,191
268,7	2,21
269,1	2,193
269,6	2,195
270	2,176
270,5	2,187
271	2,192
271,4	2,186
271,9	2,181
272,4	2,184
272,8	2,173
273,3	2,182
273,7	2,15
274,2	2,155
274,7	2,171
275,1	2,151
275,6	2,174
276,1	2,164
276,5	2,167
277	2,185
277,4	2,165
277,9	2,134
278,4	2,151
278,8	2,138
279,3	2,136
279,8	2,116
280,2	2,102
280,7	2,084
281,1	2,072
281,6	2,063
282,1	2,039
282,5	2,023
283	2,018
283,4	1,994
283,9	1,983
284,4	1,949
284,8	1,891
285,3	1,831
285,8	1,763
286,2	1,676
286,7	1,59
287,1	1,501
287,6	1,417
288,1	1,34
288,5	1,265
289	1,197
289,5	1,137
289,9	1,083
290,4	1,037
290,8	0,997
291,3	0,959
291,8	0,929
292,2	0,901
292,7	0,878
293,1	0,858
293,6	0,839
294,1	0,824
294,5	0,812
295	0,801
295,5	0,791
295,9	0,781
296,4	0,774
296,8	0,767
297,3	0,761
297,8	0,754
298,2	0,747
298,7	0,742
299,1	0,738
299,6	0,733
300,1	0,727
300,5	0,721
301	0,717
301,5	0,712
301,9	0,708
302,4	0,703
302,8	0,699
303,3	0,694
303,8	0,69
304,2	0,686
304,7	0,682
305,1	0,677
305,6	0,674
306,1	0,669
306,5	0,664
307	0,66
307,4	0,656
307,9	0,652
308,4	0,646
308,8	0,641
309,3	0,636
309,8	0,633
310,2	0,628
310,7	0,622
311,1	0,617
311,6	0,612
312,1	0,606
312,5	0,601
313	0,597
313,4	0,592
313,9	0,588
314,4	0,583
314,8	0,578
315,3	0,573
315,7	0,567
316,2	0,562
316,7	0,557
317,1	0,55
317,6	0,544
318	0,538
318,5	0,532
319	0,526
319,4	0,52
319,9	0,514
320,3	0,509
320,8	0,504
321,3	0,498
321,7	0,493
322,2	0,487
322,6	0,482
323,1	0,477
323,6	0,471
324	0,465
324,5	0,46
324,9	0,454
325,4	0,448
325,9	0,443
326,3	0,438
326,8	0,432
327,2	0,427
327,7	0,422
328,2	0,416
328,6	0,411
329,1	0,406
329,5	0,4
330	0,394
330,5	0,388
330,9	0,382
331,4	0,378
331,8	0,373
332,3	0,366
332,8	0,362
333,2	0,357
333,7	0,352
334,1	0,347
334,6	0,341
335,1	0,335
335,5	0,33
336	0,325
336,4	0,32
336,9	0,315
337,4	0,309
337,8	0,304
338,3	0,298
338,7	0,293
339,2	0,289
339,7	0,283
340,1	0,277
340,6	0,272
341	0,268
341,5	0,264
342	0,259
342,4	0,254
342,9	0,25
343,3	0,245
343,8	0,241
344,2	0,236
344,7	0,232
345,2	0,228
345,6	0,223
346,1	0,22
346,5	0,216
347	0,212
347,5	0,208
347,9	0,204
348,4	0,2
348,8	0,196
349,3	0,192
349,8	0,189
350,2	0,185
350,7	0,181
351,1	0,178
351,6	0,174
352	0,171
352,5	0,168
353	0,165
353,4	0,162
353,9	0,159
354,3	0,156
354,8	0,153
355,3	0,151
355,7	0,147
356,2	0,144
356,6	0,142
357,1	0,139
357,5	0,137
358	0,133
358,5	0,131
358,9	0,129
359,4	0,126
359,8	0,124
360,3	0,121
360,8	0,119
361,2	0,117
361,7	0,115
362,1	0,113
362,6	0,111
363	0,108
363,5	0,106
364	0,104
364,4	0,102
364,9	0,1
365,3	0,098
365,8	0,096
366,3	0,096
366,7	0,094
367,2	0,092
367,6	0,09
368,1	0,088
368,5	0,087
369	0,086
369,5	0,084
369,9	0,082
370,4	0,081
370,8	0,079
371,3	0,078
371,7	0,077
372,2	0,075
372,7	0,074
373,1	0,074
373,6	0,073
374	0,072
374,5	0,07
374,9	0,069
375,4	0,068
375,9	0,067
376,3	0,066
376,8	0,065
377,2	0,064
377,7	0,063
378,2	0,062
378,6	0,062
379,1	0,061
379,5	0,059
380	0,058
380,4	0,058
380,9	0,057
381,4	0,055
381,8	0,055
382,3	0,054
382,7	0,053
383,2	0,053
383,6	0,052
384,1	0,051
384,6	0,052
385	0,051
385,5	0,049
385,9	0,049
386,4	0,047
386,8	0,047
387,3	0,047
387,7	0,045
388,2	0,044
388,7	0,044
389,1	0,043
389,6	0,042
390	0,042
390,5	0,041
390,9	0,04
391,4	0,04
391,9	0,039
392,3	0,039
392,8	0,038
393,2	0,038
393,7	0,037
394,1	0,037
394,6	0,037
395,1	0,036
395,5	0,036
396	0,035
396,4	0,034
396,9	0,034
397,3	0,033
397,8	0,033
398,2	0,033
398,7	0,032
399,2	0,032
399,6	0,032
400,1	0,031
400,5	0,031
401	0,029
401,4	0,028
401,9	0,028
402,4	0,027
402,8	0,027
403,3	0,026
403,7	0,026
404,2	0,026
404,6	0,026
405,1	0,025
405,5	0,025
406	0,024
406,5	0,024
406,9	0,024
407,4	0,023
407,8	0,022
408,3	0,022
408,7	0,021
409,2	0,021
409,6	0,02
410,1	0,02
410,6	0,02
411	0,02
411,5	0,02
411,9	0,02
412,4	0,019
412,8	0,019
413,3	0,018
413,7	0,018
414,2	0,017
414,7	0,017
415,1	0,017
415,6	0,017
416	0,016
416,5	0,016
416,9	0,015
417,4	0,016
417,8	0,015
418,3	0,015
418,8	0,014
419,2	0,014
419,7	0,014
420,1	0,013
420,6	0,013
421	0,013
421,5	0,013
421,9	0,012
422,4	0,012
422,8	0,011
423,3	0,011
423,8	0,011
424,2	0,01
424,7	0,01
425,1	0,009
425,6	0,009
426	0,009
426,5	0,009
426,9	0,008
427,4	0,008
427,9	0,008
428,3	0,008
428,8	0,007
429,2	0,007
429,7	0,007
430,1	0,007
430,6	0,007
431	0,006
431,5	0,006
431,9	0,006
432,4	0,006
432,8	0,006
433,3	0,005
433,8	0,005
434,2	0,005
434,7	0,005
435,1	0,005
435,6	0,005
436	0,004
436,5	0,004
436,9	0,004
437,4	0,004
437,8	0,004
438,3	0,004
438,8	0,003
439,2	0,003
439,7	0,002
440,1	0,002
440,6	0,001
441	0,001
441,5	0,001
441,9	0,001
442,4	0,002
442,8	0,002
443,3	0,002
443,7	0,002
444,2	0,002
444,7	0,002
445,1	0,002
445,6	0,001
446	0,001
446,5	0,001
446,9	0,001
447,4	0,001
447,8	0,001
448,3	0,001
448,7	0,002
449,2	0,002
449,6	0,002
450,1	0,002
450,6	0,002
451	0,001
451,5	0,001
451,9	0
452,4	0
452,8	-0
453,3	-0,001
453,7	-0,001
454,2	-0,001
454,6	-0,001
455,1	-0,001
455,5	-0
456	0
456,4	0,001
456,9	0,001
457,3	0,001
457,8	0,001
458,3	-0
458,7	-0,001
459,2	-0,001
459,6	-0,002
460,1	-0,002
460,5	-0,002
461	-0,002
461,4	-0,002
461,9	-0,002
462,3	-0,002
462,8	-0,002
463,2	-0,002
463,7	-0,002
464,1	-0,002
464,6	-0,002
465	-0,001
465,5	-0,001
466	-0
466,4	-0,001
466,9	-0
467,3	-0
467,8	-0,001
468,2	-0,001
468,7	-0,001
469,1	-0,002
469,6	-0,002
470	-0,002
470,5	-0,003
470,9	-0,002
471,4	-0,002
471,8	-0,002
472,3	-0,002
472,7	-0,002
473,2	-0,002
473,6	-0,002
474,1	-0,002
474,5	-0,002
475	-0,002
475,4	-0,002
475,9	-0,002
476,4	-0,001
476,8	-0,002
477,3	-0,001
477,7	-0,001
478,2	-0,002
478,6	-0,001
479,1	-0,001
479,5	-0,001
480	-0
480,4	0
480,9	-0
481,3	0
481,8	-0
482,2	-0,001
482,7	-0,001
483,1	-0,001
483,6	-0,002
484	-0,002
484,5	-0,002
484,9	-0,002
485,4	-0,002
485,8	-0,001
486,3	-0,001
486,7	-0,001
487,2	-0,001
487,6	-0,001
488,1	-0,001
488,5	-0,001
489	-0,001
489,4	-0,002
489,9	-0,001
490,4	-0,001
490,8	-0,001
491,3	-0,001
491,7	-0,001
492,2	-0,001
492,6	-0,001
493,1	-0,001
493,5	-0,001
494	-0,001
494,4	-0,001
494,9	-0,001
495,3	-0,001
495,8	-0,001
496,2	-0
496,7	-0,001
497,1	-0
497,6	-0,001
498	-0
498,5	-0
498,9	-0,001
499,4	-0,001
499,8	-0,002
500,3	-0,003
500,7	-0,002
501,2	-0,002
501,6	-0,002
502,1	-0,002
502,5	-0,002
503	-0,001
503,4	-0,001
503,9	-0,001
504,3	-0,001
504,8	-0
505,2	-0
505,7	-0
506,1	-0
506,6	-0
507	0
507,5	0
507,9	-0,001
508,4	-0,001
508,8	-0,002
509,3	-0,001
509,7	-0,002
510,2	-0,002
510,6	-0,002
511,1	-0,001
511,5	-0,001
512	-0,001
512,4	-0,001
512,9	-0,001
513,3	-0,001
513,8	-0
514,2	-0
514,7	0
515,1	0,001
515,6	0
516	0
516,5	0
516,9	-0
517,4	-0
517,8	-0,001
518,3	-0,001
518,7	-0,001
519,2	-0,001
519,6	-0,001
520,1	-0,001
520,5	-0,001
521	-0,001
521,4	-0,001
521,9	-0,001
522,3	0
522,8	0
523,2	-0,001
523,7	0
524,1	0
524,6	-0,001
525	-0,001
525,5	-0,001
525,9	-0,001
526,4	-0,001
526,8	-0,001
527,3	-0,001
527,7	-0
528,2	-0
528,6	-0
529,1	-0
529,5	0
530	0
530,4	0,001
530,9	0,001
531,3	0
531,8	0
532,2	-0
532,6	-0,001
533,1	-0,001
533,5	-0,001
534	-0,001
534,4	-0,001
534,9	-0,001
535,3	-0,002
535,8	-0,001
536,2	-0,002
536,7	-0,002
537,1	-0,002
537,6	-0,002
538	-0,002
538,5	-0,001
538,9	-0,002
539,4	-0,002
539,8	-0,001
540,3	-0,001
540,7	-0,001
541,2	-0
541,6	-0
542,1	-0
542,5	0
543	-0,001
543,4	-0,002
543,9	-0,002
544,3	-0,003
544,8	-0,003
545,2	-0,003
545,7	-0,003
546,1	-0,002
546,5	-0,002
547	-0,001
547,4	-0,001
547,9	-0,001
548,3	-0,001
548,8	-0,001
549,2	-0,001
549,7	-0
550,1	-0,001
550,6	-0,001
551	-0
551,5	-0
551,9	0
552,4	0
552,8	-0
553,3	-0
553,7	-0
554,2	-0
554,6	-0,001
555,1	-0,001
555,5	-0
555,9	-0,001
556,4	-0,001
556,8	-0
557,3	-0,001
557,7	-0
558,2	-0
558,6	-0,001
559,1	-0,001
559,5	-0,001
560	-0,002
560,4	-0,002
560,9	-0,001
561,3	-0,001
561,8	-0,001
562,2	-0
562,7	0
563,1	0,001
563,6	0
564	0,001
564,4	-0
564,9	-0
565,3	-0,001
565,8	-0,001
566,2	-0,001
566,7	-0,001
567,1	-0,001
567,6	-0,001
568	-0
568,5	-0
568,9	-0
569,4	0
569,8	-0
570,3	-0
570,7	-0,001
571,1	-0
571,6	-0
572	-0
572,5	-0
572,9	-0
573,4	-0,001
573,8	-0,001
574,3	-0,001
574,7	-0,001
575,2	-0,001
575,6	-0,002
576,1	-0,002
576,5	-0,002
576,9	-0,001
577,4	-0,001
577,8	-0,001
578,3	-0,001
578,7	-0,001
579,2	-0,001
579,6	-0,001
580,1	-0
580,5	-0
581	-0
581,4	-0
581,9	-0
582,3	-0
582,7	-0
583,2	-0
583,6	-0
584,1	-0
584,5	-0
585	-0
585,4	-0
585,9	-0,001
586,3	-0,001
586,8	-0
587,2	-0,001
587,6	-0,001
588,1	-0,001
588,5	-0,001
589	-0,001
589,4	-0,001
589,9	-0,001
590,3	-0,001
590,8	-0,001
591,2	-0,001
591,7	-0,001
592,1	0
592,5	0
593	0
593,4	0
593,9	0
594,3	0
594,8	0
595,2	-0
595,7	-0
596,1	-0,001
596,6	-0
597	-0,001
597,4	-0,001
597,9	-0,001
598,3	-0,001
598,8	-0,001
599,2	-0,001
599,7	-0,001
600,1	-0,001
600,6	-0,002
601	-0,002
601,4	-0,002
601,9	-0,002
602,3	-0,002
602,8	-0,002
603,2	-0,002
603,7	-0,002
604,1	-0,002
604,6	-0,002
605	-0,001
605,4	-0,001
605,9	-0,001
606,3	-0,002
606,8	-0,001
607,2	-0,001
607,7	-0,001
608,1	-0,001
608,6	-0,001
609	-0,001
609,4	-0
609,9	-0
610,3	-0,001
610,8	-0,001
611,2	-0,001
611,7	-0,001
612,1	-0,001
612,6	-0,001
613	-0,001
613,4	-0,001
613,9	-0,001
614,3	-0,001
614,8	-0,001
615,2	-0,001
615,7	-0,001
616,1	-0,001
616,6	-0,001
617	-0,001
617,4	-0
617,9	-0,001
618,3	-0
618,8	-0,001
619,2	-0,001
619,7	-0
620,1	-0,001
620,5	-0,001
621	-0,001
621,4	-0,001
621,9	-0,001
622,3	-0,001
622,8	-0,001
623,2	-0,001
623,6	-0,001
624,1	-0,001
624,5	-0,001
625	-0,001
625,4	-0,001
625,9	-0,001
626,3	-0,001
626,8	-0,001
627,2	-0,001
627,6	-0,001
628,1	-0,001
628,5	-0,001
629	-0
629,4	-0
629,9	-0
630,3	-0,001
630,7	-0,001
631,2	-0
631,6	-0,001
632,1	-0,001
632,5	-0,001
633	-0,001
633,4	-0
633,8	-0
634,3	-0,001
634,7	-0
635,2	0
635,6	-0
636,1	0
636,5	-0
636,9	-0,001
637,4	-0,001
637,8	-0,001
638,3	-0,001
638,7	-0
639,2	-0,001
639,6	-0,001
640	-0
640,5	-0
640,9	-0
641,4	-0
641,8	-0
642,2	-0,001
642,7	-0
643,1	-0
643,6	-0
644	-0
644,5	-0
644,9	-0,001
645,3	0
645,8	0
646,2	0
646,7	0
647,1	0,001
647,6	0,001
648	0,001
648,4	0,001
648,9	0,001
649,3	0,001
649,8	0,001
650,2	0
650,6	-0
651,1	-0,001
651,5	-0,001
652	-0,001
652,4	-0,001
652,9	-0,001
653,3	-0,001
653,7	-0,001
654,2	-0,001
654,6	-0,001
655,1	-0,001
655,5	-0
655,9	-0
656,4	-0
656,8	-0
657,3	0
657,7	0
658,2	0
658,6	0,001
659	0,001
659,5	0,001
659,9	0,002
660,4	0,001
660,8	0,001
661,2	0
661,7	0
662,1	-0
662,6	-0,001
663	-0,001
663,4	-0,001
663,9	-0,001
664,3	-0,001
664,8	-0,001
665,2	-0,001
665,6	-0,001
666,1	-0,001
666,5	-0,001
667	-0,001
667,4	-0
667,9	-0
668,3	-0,001
668,7	-0,001
669,2	-0
669,6	-0
670,1	-0,001
670,5	-0,001
670,9	-0,001
671,4	-0,001
671,8	-0,001
672,3	-0,002
672,7	-0,002
673,1	-0,002
673,6	-0,002
674	-0,002
674,5	-0,002
674,9	-0,002
675,3	-0,002
675,8	-0,002
676,2	-0,002
676,7	-0,002
677,1	-0,002
677,5	-0,002
678	-0,002
678,4	-0,001
678,9	-0,001
679,3	-0,001
679,7	-0
680,2	-0
680,6	-0
681,1	0
681,5	0
681,9	0
682,4	0,001
682,8	0,001
683,3	0
683,7	0
684,1	0,001
684,6	0
685	-0
685,5	-0,001
685,9	-0,001
686,3	-0,001
686,8	-0,001
687,2	-0,001
687,7	-0,001
688,1	-0,001
688,5	-0
689	-0
689,4	-0
689,9	-0,001
690,3	-0
690,7	-0
691,2	-0
691,6	-0
692	-0
692,5	0
692,9	0
693,4	0
693,8	0
694,2	0
694,7	0
695,1	0
695,6	-0
696	0
696,4	-0
696,9	0
697,3	0
697,8	-0
698,2	-0,001
698,6	-0,001
699,1	-0,001
699,5	-0,001
699,9	-0,001
700,4	-0,001
700,8	-0
701,3	-0
701,7	0
702,1	0
702,6	0
703	0,001
703,5	0,001
703,9	0,001
704,3	0,001
704,8	0,001
705,2	0,001
705,6	0
706,1	0
706,5	-0
707	-0,001
707,4	-0,001
707,8	-0,001
708,3	-0,001
708,7	-0,001
709,2	-0,001
709,6	-0,001
710	-0,001
710,5	-0,001
710,9	-0,002
711,3	-0,002
711,8	-0,002
712,2	-0,001
712,7	-0,001
713,1	-0,001
713,5	-0,001
714	-0,001
714,4	-0
714,8	-0
715,3	-0
715,7	-0
716,2	-0
716,6	-0
717	-0
717,5	-0,001
717,9	-0,002
718,3	-0,002
718,8	-0,002
719,2	-0,002
719,7	-0,002
720,1	-0,002
720,5	-0,001
721	-0,001
721,4	-0,001
721,8	-0,001
722,3	-0,001
722,7	-0,001
723,2	-0,001
723,6	-0,001
724	-0,001
724,5	-0,001
724,9	-0,001
725,3	-0,001
725,8	-0,001
726,2	-0,001
726,7	-0,001
727,1	-0,001
727,5	-0,001
728	-0,001
728,4	-0,002
728,8	-0,002
729,3	-0,002
729,7	-0,002
730,1	-0,002
730,6	-0,002
731	-0,001
731,5	-0,001
731,9	-0,001
732,3	-0,001
732,8	-0,001
733,2	-0,001
733,6	-0
734,1	-0,001
734,5	-0
734,9	-0
735,4	0
735,8	-0
736,3	-0
736,7	-0
737,1	-0
737,6	-0
738	-0
738,4	-0,001
738,9	-0,001
739,3	-0,001
739,7	-0,001
740,2	-0,001
740,6	-0,001
741,1	-0,001
741,5	-0,001
741,9	-0
742,4	0
742,8	0
743,2	0
743,7	0,001
744,1	0,001
744,5	0,001
745	0,001
745,4	-0
745,8	-0
746,3	-0
746,7	-0
747,2	-0,001
747,6	-0,001
748	-0
748,5	-0
748,9	0
749,3	0
749,8	0
750,2	0
750,6	0
751,1	0
751,5	0,001
751,9	0,001
752,4	0,001
752,8	0,001
753,3	0,001
753,7	0,002
754,1	0,001
754,6	0,001
755	0,001
755,4	0,001
755,9	0,001
756,3	0,001
756,7	0
757,2	0
757,6	0
758	-0
758,5	-0
758,9	0
759,3	0
759,8	0
760,2	0,001
760,6	0,001
761,1	0
761,5	0
761,9	0,001
762,4	0
762,8	0,001
763,3	0,001
763,7	0
764,1	0,001
764,6	0,001
765	0,001
765,4	0,001
765,9	0,001
766,3	0,001
766,7	0,001
767,2	0,002
767,6	0,002
768	0,002
768,5	0,002
768,9	0,003
769,3	0,002
769,8	0,002
770,2	0,002
770,6	0,002
771,1	0,001
771,5	0,001
771,9	0
772,4	0
772,8	0,001
773,2	0,001
773,7	0,001
774,1	0,001
774,5	0,002
775	0,001
775,4	0,001
775,8	0,001
776,3	0,001
776,7	0
777,1	0
777,6	-0
778	0
778,4	0
778,9	0
779,3	0,001
779,7	0,001
780,2	0,001
780,6	0,001
781	0,001
781,5	0,001
781,9	0,001
782,3	0,001
782,8	0,001
783,2	0,001
783,6	0,001
784,1	0
784,5	0
784,9	0
785,4	0
785,8	-0
786,2	-0
786,7	-0,001
787,1	-0,001
787,5	-0,001
788	-0,001
788,4	-0,001
788,8	-0,001
789,3	-0,001
789,7	-0,001
790,1	-0,001
790,6	-0,001
791	-0,001
791,4	-0,001
791,9	-0,001
792,3	-0,001
792,7	-0,001
793,2	-0
793,6	-0,001
794	-0
794,5	0
794,9	0,001
795,3	0,001
795,8	0,001
796,2	0,001
796,6	0,001
797,1	0,001
797,5	0,001
797,9	0,001
798,4	0,001
798,8	0,001
799,2	0,001
799,7	0,001
800,1	0
800,5	0
801	-0
801,4	-0,001
801,8	-0
802,2	-0
802,7	-0
803,1	0
803,5	0
804	0,001
804,4	0,001
804,8	0,001
805,3	0,001
805,7	0
806,1	-0
806,6	-0
807	-0
807,4	-0,001
807,9	-0
808,3	-0
808,7	-0
809,2	-0
809,6	-0
810	-0
810,4	-0
810,9	-0
811,3	-0,001
811,7	-0,001
812,2	-0
812,6	-0
813	-0,001
813,5	-0,001
813,9	-0,001
814,3	-0,001
814,8	-0
815,2	-0,001
815,6	-0,001
816,1	-0,001
816,5	-0,001
816,9	-0,001
817,3	-0,001
817,8	-0,002
818,2	-0,002
818,6	-0,002
819,1	-0,001
819,5	-0,001
819,9	-0,001
820,4	-0,001
820,8	-0,001
821,2	-0,001
821,7	-0,001
822,1	-0,001
822,5	-0,002
822,9	-0,002
823,4	-0,002
823,8	-0,002
824,2	-0,002
824,7	-0,002
825,1	-0,002
825,5	-0,002
826	-0,001
826,4	-0,001
826,8	-0
827,3	-0
827,7	-0
828,1	-0
828,5	-0
829	-0
829,4	-0
829,8	-0,001
830,3	-0
830,7	-0
831,1	-0
831,6	-0,001
832	-0,001
832,4	-0
832,8	-0
833,3	-0
833,7	-0
834,1	-0,001
834,6	-0,001
835	-0,001
835,4	-0,001
835,8	-0,001
836,3	-0,001
836,7	-0,001
837,1	-0,001
837,6	-0,001
838	-0,001
838,4	-0,001
838,9	-0,001
839,3	-0,001
839,7	-0,001
840,1	-0
840,6	-0
841	0
841,4	0,001
841,9	0,001
842,3	0
842,7	-0
843,1	0
843,6	-0
844	-0
844,4	-0
844,9	-0
845,3	-0
845,7	-0
846,2	-0
846,6	0
847	-0
847,4	0
847,9	0,001
848,3	0,001
848,7	0,001
849,2	0,001
849,6	0,001
850	0,001
850,4	0,001
850,9	0
851,3	0
851,7	0
852,2	0,001
852,6	0,001
853	0,001
853,4	0,001
853,9	0,001
854,3	0,001
854,7	0,001
855,2	0,001
855,6	0,001
856	0,001
856,4	0,001
856,9	0,001
857,3	0
857,7	0
858,2	-0
858,6	-0,001
859	-0,001
859,4	-0,001
859,9	-0,001
860,3	-0,002
860,7	-0,001
861,1	-0,002
861,6	-0,001
862	-0,001
862,4	-0,001
862,9	-0,001
863,3	-0
863,7	-0,001
864,1	-0,001
864,6	-0,001
865	-0,001
865,4	-0,001
865,9	-0,001
866,3	-0,001
866,7	-0
867,1	-0
867,6	-0
868	-0
868,4	-0,001
868,8	-0,001
869,3	-0,001
869,7	-0,001
870,1	-0,001
870,6	-0,001
871	-0,001
871,4	-0
871,8	-0,001
872,3	-0,001
872,7	-0,001
873,1	-0,001
873,5	-0,001
874	-0,001
874,4	-0,001
874,8	-0,001
875,3	-0,001
875,7	-0,001
876,1	-0,001
876,5	-0,001
877	-0,001
877,4	-0,001
877,8	-0,002
878,2	-0,002
878,7	-0,001
879,1	-0,002
879,5	-0,001
879,9	-0,001
880,4	-0,001
880,8	-0,001
881,2	-0,001
881,7	-0
882,1	0
882,5	-0
882,9	-0,001
883,4	-0,001
883,8	-0,001
884,2	-0,001
884,6	-0,001
885,1	-0,001
885,5	-0,001
885,9	-0
886,3	-0
886,8	0
887,2	0
887,6	0
888	0
888,5	0
888,9	0
889,3	0
889,8	0
890,2	0,001
890,6	0,001
891	0,001
891,5	0,001
891,9	0,001
892,3	0,001
892,7	0,001
893,2	0
893,6	0,001
894	0
894,4	0,001
894,9	0
895,3	0,001
895,7	0
896,1	0
896,6	-0
897	-0
897,4	-0,001
897,8	-0,001
898,3	-0
898,7	-0
899,1	-0,001
899,5	-0,001
900	-0,001
900,4	-0,001
900,8	-0,001
901,2	-0,001
901,7	-0,001
902,1	-0,001
902,5	-0,001
902,9	-0,001
903,4	-0,001
903,8	-0,001
904,2	-0,001
904,6	-0,001
905,1	-0,002
905,5	-0,002
905,9	-0,002
906,3	-0,002
906,8	-0,002
907,2	-0,002
907,6	-0,002
908	-0,002
908,5	-0,002
908,9	-0,002
909,3	-0,002
909,7	-0,002
910,2	-0,002
910,6	-0,002
911	-0,002
911,4	-0,002
911,9	-0,002
912,3	-0,002
912,7	-0,002
913,1	-0,002
913,6	-0,002
914	-0,002
914,4	-0,002
914,8	-0,002
915,3	-0,002
915,7	-0,002
916,1	-0,002
916,5	-0,002
916,9	-0,002
917,4	-0,001
917,8	-0,001
918,2	-0,001
918,6	-0
919,1	0
919,5	0,001
919,9	0,001
920,3	0,001
920,8	0,001
921,2	0,001
921,6	0
922	0
922,5	0
922,9	-0
923,3	-0
923,7	-0
924,2	-0
924,6	0
925	-0
925,4	0
925,8	-0
926,3	-0
926,7	0
927,1	-0
927,5	-0
928	0
928,4	-0
928,8	-0,001
929,2	-0
929,7	-0
930,1	0
930,5	0
930,9	0
931,3	0
931,8	0,001
932,2	0
932,6	0
933	-0
933,5	-0
933,9	-0
934,3	-0
934,7	0
935,2	0,001
935,6	0,001
936	0,001
936,4	0,001
936,8	0,002
937,3	0,002
937,7	0,002
938,1	0,001
938,5	0
939	0
939,4	0
939,8	-0,001
940,2	-0,001
940,6	-0,001
941,1	-0,002
941,5	-0,001
941,9	-0,002
942,3	-0,002
942,8	-0,002
943,2	-0,002
943,6	-0,003
944	-0,002
944,4	-0,003
944,9	-0,002
945,3	-0,002
945,7	-0,002
946,1	-0,002
946,6	-0,001
947	-0,001
947,4	-0,001
947,8	-0,002
948,2	-0,002
948,7	-0,002
949,1	-0,002
949,5	-0,003
949,9	-0,003
950,3	-0,003
950,8	-0,003
951,2	-0,003
951,6	-0,003
952	-0,003
952,5	-0,002
952,9	-0,002
953,3	-0,002
953,7	-0,002
954,1	-0,002
954,6	-0,002
955	-0,002
955,4	-0,002
955,8	-0,001
956,2	-0,001
956,7	-0
957,1	0
957,5	0
957,9	0,001
958,3	-0
958,8	-0,001
959,2	-0,001
959,6	-0,002
960	-0,002
960,5	-0,002
960,9	-0,003
961,3	-0,002
961,7	-0,002
962,1	-0,001
962,6	-0,002
963	-0,002
963,4	-0,002
963,8	-0,002
964,2	-0,002
964,7	-0,002
965,1	-0,002
965,5	-0,001
965,9	-0,001
966,3	0
966,8	0,001
967,2	0,001
967,6	0,001
968	0,001
968,4	0,001
968,9	0
969,3	-0
969,7	-0,001
970,1	-0,001
970,5	-0,001
971	-0,001
971,4	-0,001
971,8	-0,001
972,2	-0,001
972,6	-0,001
973,1	-0,002
973,5	-0,002
973,9	-0,002
974,3	-0,001
974,7	-0,001
975,2	-0,001
975,6	-0,001
976	-0
976,4	-0
976,8	-0
977,3	-0
977,7	-0,001
978,1	-0,001
978,5	-0,001
978,9	-0
979,4	-0
979,8	0
980,2	0,001
980,6	0,001
981	0,001
981,5	0,002
981,9	0,001
982,3	0,001
982,7	0,001
983,1	0,002
983,6	0,001
984	0
984,4	0
984,8	0
985,2	-0
985,6	-0,001
986,1	-0,001
986,5	-0,001
986,9	-0,001
987,3	-0,001
987,7	-0,001
988,2	-0,001
988,6	-0,001
989	-0,001
989,4	-0,001
989,8	-0,001
990,3	-0,001
990,7	-0,001
991,1	-0,001
991,5	-0,001
991,9	-0,001
992,3	-0,001
992,8	-0
993,2	-0
993,6	-0,001
994	-0,001
994,4	-0,001
994,9	-0,001
995,3	-0,001
995,7	-0,002
996,1	-0,002
996,5	-0,002
996,9	-0,002
997,4	-0,002
997,8	-0,002
998,2	-0,001
998,6	-0,001
999	-0
999,5	-0
999,9	0,001
1000,3	0,001
1000,7	0,001
1001,1	0,001
1001,5	0
1002	-0
1002,4	-0,001
1002,8	-0,001
1003,2	-0,001
1003,6	-0,001
1004	-0,001
1004,5	-0,001
1004,9	-0,001
1005,3	0
1005,7	0
1006,1	0
1006,6	-0
1007	0
1007,4	0,001
1007,8	0
1008,2	-0,001
1008,6	-0
1009,1	-0,001
1009,5	-0,001
1009,9	-0,001
1010,3	-0,001
1010,7	-0,001
1011,1	-0,001
1011,6	-0,002
1012	-0,001
1012,4	-0,002
1012,8	-0,001
1013,2	-0,001
1013,6	-0,001
1014,1	-0,002
1014,5	-0,001
1014,9	-0,002
1015,3	-0,001
1015,7	-0,001
1016,1	-0,001
1016,6	-0,001
1017	0
1017,4	0
1017,8	0
1018,2	-0
1018,6	-0
1019,1	-0
1019,5	-0
1019,9	-0
1020,3	0
1020,7	0
1021,1	-0
1021,6	-0
1022	0
1022,4	-0
1022,8	-0
1023,2	-0
1023,6	0
1024,1	0,001
1024,5	0,001
1024,9	0,002
1025,3	0,003
1025,7	0,003
1026,1	0,004
1026,6	0,004
1027	0,004
1027,4	0,003
1027,8	0,003
1028,2	0,003
1028,6	0,003
1029	0,002
1029,5	0,001
1029,9	0,002
1030,3	0,002
1030,7	0,003
1031,1	0,002
1031,5	0,002
1032	0,002
1032,4	0,002
1032,8	0,001
1033,2	0,001
1033,6	0,001
1034	0
1034,4	0
1034,9	-0
1035,3	-0
1035,7	0,001
1036,1	0
1036,5	-0
1036,9	-0
1037,4	-0,001
1037,8	-0
1038,2	0
1038,6	-0,001
1039	-0
1039,4	0
1039,8	0,001
1040,3	0,001
1040,7	0
1041,1	0
1041,5	0
1041,9	-0,001
1042,3	-0,001
1042,7	-0,002
1043,2	-0,002
1043,6	-0,002
1044	-0,002
1044,4	-0,002
1044,8	-0,001
1045,2	-0,001
1045,6	-0,001
1046,1	-0
1046,5	-0
1046,9	0,001
1047,3	0,001
1047,7	0
1048,1	0
1048,5	0
1049	-0
1049,4	-0
1049,8	-0,001
1050,2	-0,001
1050,6	-0,001
1051	-0,002
1051,4	-0,002
1051,9	-0,003
1052,3	-0,002
1052,7	-0,002
1053,1	-0,002
1053,5	-0,001
1053,9	-0,001
1054,3	-0,001
1054,8	-0,001
1055,2	-0,001
1055,6	-0,001
1056	-0,001
1056,4	-0,001
1056,8	-0,001
1057,2	-0
1057,6	-0
1058,1	-0
1058,5	-0,001
1058,9	-0,002
1059,3	-0,002
1059,7	-0,002
1060,1	-0,002
1060,5	-0,002
1061	-0,002
1061,4	-0,002
1061,8	-0,002
1062,2	-0,002
1062,6	-0,003
1063	-0,002
1063,4	-0,002
1063,8	-0,002
1064,3	-0,001
1064,7	-0
1065,1	-0,001
1065,5	-0
1065,9	-0
1066,3	-0
1066,7	0
1067,1	-0,001
1067,6	-0,002
1068	-0,002
1068,4	-0,001
1068,8	-0,001
1069,2	-0,001
1069,6	-0,002
1070	-0,002
1070,4	-0,002
1070,9	-0,002
1071,3	-0,002
1071,7	-0,002
1072,1	-0,003
1072,5	-0,003
1072,9	-0,003
1073,3	-0,003
1073,7	-0,002
1074,2	-0,003
1074,6	-0,001
1075	-0,002
1075,4	-0,001
1075,8	-0
1076,2	-0
1076,6	0
1077	0,001
1077,5	-0,001
1077,9	-0,001
1078,3	-0,002
1078,7	-0,003
1079,1	-0,002
1079,5	-0,004
1079,9	-0,003
1080,3	-0,003
1080,7	-0,003
1081,2	-0,001
1081,6	0,001
1082	-0,001
1082,4	-0,001
1082,8	-0,003
1083,2	-0,003
1083,6	-0,003
1084	-0,002
1084,5	-0,002
1084,9	-0,001
1085,3	-0,002
1085,7	0,002
1086,1	0,002
1086,5	0,003
1086,9	0,003
1087,3	0,003
1087,7	0,003
1088,2	0,004
1088,6	0
1089	0,002
1089,4	0,001
1089,8	-0,001
1090,2	-0,002
1090,6	-0,004
1091	-0,003
1091,4	-0,002
1091,9	-0,004
1092,3	-0,005
1092,7	-0,002
1093,1	-0,005
1093,5	-0,004
1093,9	-0,004
1094,3	-0,006
1094,7	-0,005
1095,1	-0,004
1095,5	-0,004
1096	-0,001
1096,4	0,001
1096,8	-0,001
1097,2	-0,002
1097,6	-0,006
1098	-0,009
1098,4	-0,009
1098,8	-0,008
1099,2	-0,01
1099,6	-0,007
1100,1	-0,001
1100,5	0,006
1100,9	0,009
1101,3	0,003
1101,7	0,008
1102,1	0,013
1102,5	0,013
1102,9	0,017
1103,3	0,008
1103,7	0,009
1104,2	0,006
1104,6	-0,001
1105	-0,011
1105,4	-0,009
1105,8	-0,016
1106,2	-0,012
1106,6	-0,008
1107	-0,007
1107,4	-0,009
1107,8	0,011
1108,3	-0
