Data from Absorbance_00071.txt Node
Date: Fri Aug 11 13:34:11 MSK 2023
User: vat
Spectrometer: MAYP114033
Trigger mode: 0
Integration Time (sec): 8,000000E-3
Scans to average: 10
Electric dark correction enabled: true
Nonlinearity correction enabled: false
Boxcar width: 3
XAxis mode: Wavelengths
Number of Pixels in Spectrum: 2068
>>>>>Begin Spectral Data<<<<<
199,4	-0,36
199,9	0,66
200,4	0,562
200,8	0,766
201,3	0,87
201,8	0,939
202,2	0,939
202,7	0,958
203,2	0,99
203,6	1,02
204,1	1,056
204,6	1,079
205	1,087
205,5	1,114
206	1,128
206,4	1,142
206,9	1,172
207,4	1,18
207,8	1,198
208,3	1,227
208,8	1,241
209,2	1,262
209,7	1,284
210,2	1,284
210,6	1,31
211,1	1,318
211,5	1,334
212	1,345
212,5	1,357
212,9	1,387
213,4	1,419
213,9	1,415
214,3	1,412
214,8	1,426
215,3	1,446
215,7	1,475
216,2	1,464
216,7	1,477
217,1	1,501
217,6	1,546
218,1	1,544
218,5	1,546
219	1,534
219,5	1,552
219,9	1,55
220,4	1,55
220,9	1,549
221,3	1,568
221,8	1,601
222,3	1,635
222,7	1,65
223,2	1,696
223,6	1,737
224,1	1,745
224,6	1,769
225	1,798
225,5	1,802
226	1,819
226,4	1,812
226,9	1,825
227,4	1,856
227,8	1,85
228,3	1,836
228,8	1,86
229,2	1,873
229,7	1,892
230,2	1,87
230,6	1,884
231,1	1,896
231,5	1,916
232	1,92
232,5	1,934
232,9	1,924
233,4	1,953
233,9	1,944
234,3	1,939
234,8	1,947
235,3	1,955
235,7	1,965
236,2	1,978
236,7	1,985
237,1	2,006
237,6	2,035
238,1	2,032
238,5	2,04
239	2,043
239,4	2,052
239,9	2,064
240,4	2,043
240,8	2,037
241,3	2,055
241,8	2,082
242,2	2,082
242,7	2,081
243,2	2,088
243,6	2,101
244,1	2,102
244,6	2,095
245	2,08
245,5	2,08
245,9	2,088
246,4	2,097
246,9	2,109
247,3	2,123
247,8	2,124
248,3	2,117
248,7	2,127
249,2	2,135
249,7	2,129
250,1	2,111
250,6	2,114
251	2,119
251,5	2,112
252	2,113
252,4	2,111
252,9	2,115
253,4	2,134
253,8	2,129
254,3	2,125
254,8	2,121
255,2	2,132
255,7	2,14
256,1	2,145
256,6	2,151
257,1	2,156
257,5	2,153
258	2,199
258,5	2,183
258,9	2,187
259,4	2,187
259,9	2,165
260,3	2,186
260,8	2,197
261,2	2,176
261,7	2,212
262,2	2,182
262,6	2,171
263,1	2,187
263,6	2,18
264	2,17
264,5	2,159
264,9	2,147
265,4	2,15
265,9	2,148
266,3	2,15
266,8	2,134
267,3	2,132
267,7	2,135
268,2	2,122
268,7	2,139
269,1	2,123
269,6	2,125
270	2,129
270,5	2,156
271	2,166
271,4	2,17
271,9	2,167
272,4	2,171
272,8	2,148
273,3	2,158
273,7	2,137
274,2	2,137
274,7	2,15
275,1	2,154
275,6	2,182
276,1	2,207
276,5	2,192
277	2,188
277,4	2,176
277,9	2,153
278,4	2,146
278,8	2,133
279,3	2,12
279,8	2,113
280,2	2,1
280,7	2,094
281,1	2,087
281,6	2,082
282,1	2,071
282,5	2,064
283	2,069
283,4	2,072
283,9	2,069
284,4	2,067
284,8	2,046
285,3	2,013
285,8	1,982
286,2	1,934
286,7	1,869
287,1	1,797
287,6	1,727
288,1	1,654
288,5	1,581
289	1,501
289,5	1,426
289,9	1,358
290,4	1,295
290,8	1,23
291,3	1,172
291,8	1,12
292,2	1,072
292,7	1,028
293,1	0,985
293,6	0,945
294,1	0,912
294,5	0,884
295	0,856
295,5	0,833
295,9	0,81
296,4	0,793
296,8	0,777
297,3	0,763
297,8	0,749
298,2	0,738
298,7	0,727
299,1	0,719
299,6	0,709
300,1	0,703
300,5	0,696
301	0,69
301,5	0,683
301,9	0,678
302,4	0,672
302,8	0,668
303,3	0,662
303,8	0,657
304,2	0,651
304,7	0,647
305,1	0,642
305,6	0,637
306,1	0,631
306,5	0,626
307	0,621
307,4	0,617
307,9	0,612
308,4	0,607
308,8	0,603
309,3	0,599
309,8	0,595
310,2	0,591
310,7	0,586
311,1	0,581
311,6	0,578
312,1	0,572
312,5	0,568
313	0,563
313,4	0,559
313,9	0,555
314,4	0,55
314,8	0,545
315,3	0,54
315,7	0,535
316,2	0,53
316,7	0,525
317,1	0,519
317,6	0,513
318	0,508
318,5	0,503
319	0,497
319,4	0,492
319,9	0,488
320,3	0,483
320,8	0,479
321,3	0,473
321,7	0,468
322,2	0,463
322,6	0,459
323,1	0,453
323,6	0,448
324	0,443
324,5	0,438
324,9	0,433
325,4	0,429
325,9	0,423
326,3	0,418
326,8	0,414
327,2	0,409
327,7	0,404
328,2	0,399
328,6	0,395
329,1	0,39
329,5	0,385
330	0,38
330,5	0,376
330,9	0,371
331,4	0,367
331,8	0,362
332,3	0,356
332,8	0,352
333,2	0,347
333,7	0,342
334,1	0,338
334,6	0,333
335,1	0,328
335,5	0,324
336	0,318
336,4	0,314
336,9	0,309
337,4	0,304
337,8	0,299
338,3	0,294
338,7	0,29
339,2	0,285
339,7	0,278
340,1	0,273
340,6	0,27
341	0,266
341,5	0,261
342	0,257
342,4	0,254
342,9	0,25
343,3	0,246
343,8	0,242
344,2	0,237
344,7	0,233
345,2	0,23
345,6	0,226
346,1	0,222
346,5	0,219
347	0,215
347,5	0,212
347,9	0,208
348,4	0,204
348,8	0,199
349,3	0,196
349,8	0,192
350,2	0,188
350,7	0,185
351,1	0,182
351,6	0,179
352	0,176
352,5	0,173
353	0,169
353,4	0,166
353,9	0,163
354,3	0,159
354,8	0,156
355,3	0,154
355,7	0,151
356,2	0,148
356,6	0,145
357,1	0,142
357,5	0,139
358	0,137
358,5	0,133
358,9	0,131
359,4	0,129
359,8	0,127
360,3	0,124
360,8	0,122
361,2	0,12
361,7	0,117
362,1	0,115
362,6	0,113
363	0,109
363,5	0,107
364	0,105
364,4	0,103
364,9	0,102
365,3	0,1
365,8	0,098
366,3	0,097
366,7	0,095
367,2	0,094
367,6	0,092
368,1	0,09
368,5	0,088
369	0,086
369,5	0,084
369,9	0,082
370,4	0,081
370,8	0,079
371,3	0,077
371,7	0,077
372,2	0,076
372,7	0,075
373,1	0,073
373,6	0,072
374	0,071
374,5	0,07
374,9	0,068
375,4	0,066
375,9	0,065
376,3	0,064
376,8	0,062
377,2	0,061
377,7	0,06
378,2	0,059
378,6	0,058
379,1	0,057
379,5	0,055
380	0,055
380,4	0,054
380,9	0,052
381,4	0,052
381,8	0,051
382,3	0,051
382,7	0,05
383,2	0,05
383,6	0,048
384,1	0,048
384,6	0,048
385	0,047
385,5	0,047
385,9	0,046
386,4	0,044
386,8	0,044
387,3	0,043
387,7	0,042
388,2	0,041
388,7	0,041
389,1	0,04
389,6	0,04
390	0,04
390,5	0,038
390,9	0,038
391,4	0,037
391,9	0,036
392,3	0,035
392,8	0,035
393,2	0,034
393,7	0,034
394,1	0,034
394,6	0,033
395,1	0,032
395,5	0,032
396	0,032
396,4	0,031
396,9	0,031
397,3	0,03
397,8	0,03
398,2	0,03
398,7	0,03
399,2	0,029
399,6	0,029
400,1	0,028
400,5	0,028
401	0,027
401,4	0,026
401,9	0,025
402,4	0,025
402,8	0,025
403,3	0,024
403,7	0,024
404,2	0,024
404,6	0,025
405,1	0,025
405,5	0,024
406	0,023
406,5	0,023
406,9	0,022
407,4	0,021
407,8	0,02
408,3	0,019
408,7	0,019
409,2	0,018
409,6	0,018
410,1	0,019
410,6	0,019
411	0,018
411,5	0,018
411,9	0,018
412,4	0,018
412,8	0,017
413,3	0,017
413,7	0,017
414,2	0,017
414,7	0,017
415,1	0,017
415,6	0,016
416	0,015
416,5	0,014
416,9	0,014
417,4	0,014
417,8	0,014
418,3	0,013
418,8	0,014
419,2	0,014
419,7	0,014
420,1	0,014
420,6	0,014
421	0,015
421,5	0,014
421,9	0,014
422,4	0,013
422,8	0,012
423,3	0,012
423,8	0,012
424,2	0,011
424,7	0,011
425,1	0,01
425,6	0,009
426	0,01
426,5	0,009
426,9	0,009
427,4	0,009
427,9	0,009
428,3	0,009
428,8	0,008
429,2	0,008
429,7	0,007
430,1	0,007
430,6	0,007
431	0,006
431,5	0,006
431,9	0,006
432,4	0,006
432,8	0,005
433,3	0,006
433,8	0,006
434,2	0,006
434,7	0,006
435,1	0,006
435,6	0,006
436	0,006
436,5	0,006
436,9	0,006
437,4	0,005
437,8	0,006
438,3	0,006
438,8	0,005
439,2	0,005
439,7	0,004
440,1	0,004
440,6	0,003
441	0,002
441,5	0,002
441,9	0,002
442,4	0,002
442,8	0,002
443,3	0,002
443,7	0,003
444,2	0,003
444,7	0,004
445,1	0,004
445,6	0,004
446	0,004
446,5	0,004
446,9	0,004
447,4	0,003
447,8	0,003
448,3	0,003
448,7	0,003
449,2	0,003
449,6	0,002
450,1	0,002
450,6	0,002
451	0,002
451,5	0,001
451,9	0,001
452,4	0,001
452,8	0,001
453,3	0
453,7	0
454,2	0
454,6	0,001
455,1	0
455,5	0,001
456	0,002
456,4	0,002
456,9	0,002
457,3	0,002
457,8	0,002
458,3	0,002
458,7	0,001
459,2	0,001
459,6	0,001
460,1	0,001
460,5	0,001
461	0,001
461,4	0,001
461,9	0,001
462,3	0
462,8	-0
463,2	-0,001
463,7	-0,001
464,1	-0,001
464,6	-0,001
465	-0
465,5	0
466	0,001
466,4	0,001
466,9	0,001
467,3	0,001
467,8	0,001
468,2	0
468,7	-0
469,1	-0
469,6	-0
470	-0,001
470,5	-0,001
470,9	-0
471,4	-0,001
471,8	-0,001
472,3	-0,001
472,7	-0
473,2	-0
473,6	-0
474,1	-0,001
474,5	-0,001
475	-0,001
475,4	-0,001
475,9	-0
476,4	0
476,8	-0
477,3	-0
477,7	-0
478,2	-0
478,6	-0
479,1	-0,001
479,5	-0
480	0,001
480,4	0,001
480,9	0,001
481,3	0,001
481,8	0,001
482,2	0
482,7	-0
483,1	-0
483,6	-0,001
484	-0,001
484,5	-0,001
484,9	-0,001
485,4	-0,001
485,8	-0
486,3	-0
486,7	-0,001
487,2	-0,001
487,6	-0,001
488,1	-0
488,5	-0
489	-0,001
489,4	-0,001
489,9	-0
490,4	0
490,8	0
491,3	0
491,7	-0
492,2	-0
492,6	-0
493,1	-0,001
493,5	-0
494	0
494,4	0
494,9	0,001
495,3	0,001
495,8	0,001
496,2	0,002
496,7	0,001
497,1	0,001
497,6	0
498	0
498,5	0,001
498,9	0
499,4	-0
499,8	-0
500,3	-0,001
500,7	-0,001
501,2	-0,001
501,6	-0,001
502,1	-0,001
502,5	-0
503	-0,001
503,4	-0
503,9	0
504,3	0
504,8	0,001
505,2	0,001
505,7	0,001
506,1	0,001
506,6	0,001
507	0,001
507,5	0,001
507,9	0
508,4	0
508,8	-0
509,3	-0
509,7	-0
510,2	-0
510,6	-0
511,1	-0
511,5	0
512	0
512,4	0
512,9	-0
513,3	-0
513,8	0
514,2	0
514,7	0,001
515,1	0
515,6	0
516	0,001
516,5	0,001
516,9	0,001
517,4	0
517,8	-0
518,3	-0,001
518,7	-0,001
519,2	-0,001
519,6	-0,001
520,1	-0,001
520,5	-0,001
521	-0
521,4	0
521,9	0,001
522,3	0,001
522,8	0,001
523,2	0,001
523,7	0,001
524,1	0,002
524,6	0,001
525	0,001
525,5	0,001
525,9	-0
526,4	0
526,8	0
527,3	-0
527,7	0
528,2	-0
528,6	0
529,1	0,001
529,5	0,001
530	0,001
530,4	0,002
530,9	0,002
531,3	0,003
531,8	0,002
532,2	0,002
532,6	0,002
533,1	0,002
533,5	0,002
534	0,001
534,4	0,001
534,9	0
535,3	0
535,8	-0
536,2	-0,001
536,7	-0,002
537,1	-0,002
537,6	-0,002
538	-0,002
538,5	-0,001
538,9	-0,001
539,4	-0,001
539,8	0
540,3	0,001
540,7	0,001
541,2	0,001
541,6	0,001
542,1	0,001
542,5	0,001
543	0
543,4	-0
543,9	-0,001
544,3	-0,001
544,8	-0,001
545,2	-0,002
545,7	-0,001
546,1	-0,001
546,5	-0
547	-0
547,4	-0
547,9	-0,001
548,3	-0,001
548,8	-0,001
549,2	-0,001
549,7	-0,001
550,1	-0,001
550,6	-0,001
551	-0,001
551,5	-0
551,9	-0
552,4	-0
552,8	-0
553,3	-0
553,7	-0
554,2	-0
554,6	-0
555,1	-0,001
555,5	-0,001
555,9	-0,001
556,4	-0,001
556,8	-0
557,3	-0
557,7	-0
558,2	-0
558,6	-0,001
559,1	-0
559,5	-0
560	-0,001
560,4	-0,001
560,9	-0
561,3	0
561,8	0
562,2	0
562,7	0
563,1	0,001
563,6	0,001
564	0,002
564,4	0,001
564,9	0,001
565,3	0,001
565,8	0,001
566,2	0,001
566,7	0,001
567,1	0
567,6	0
568	0
568,5	-0,001
568,9	-0,001
569,4	-0
569,8	-0
570,3	-0
570,7	0
571,1	0
571,6	0
572	0
572,5	0
572,9	0
573,4	0
573,8	-0
574,3	-0,001
574,7	-0,001
575,2	-0,001
575,6	-0
576,1	-0,001
576,5	-0,001
576,9	-0,001
577,4	-0
577,8	-0
578,3	0
578,7	0
579,2	0
579,6	0,001
580,1	0,001
580,5	0
581	0,001
581,4	0,001
581,9	0
582,3	0
582,7	0
583,2	0
583,6	0,001
584,1	0,001
584,5	0,001
585	0,001
585,4	0,001
585,9	0
586,3	0
586,8	0
587,2	-0
587,6	-0
588,1	-0
588,5	-0
589	-0
589,4	-0
589,9	-0,001
590,3	-0
590,8	-0,001
591,2	-0
591,7	-0
592,1	0,001
592,5	0,001
593	0
593,4	0
593,9	0
594,3	0
594,8	0
595,2	0
595,7	-0
596,1	-0
596,6	-0
597	-0
597,4	-0
597,9	-0,001
598,3	-0
598,8	-0
599,2	-0
599,7	-0
600,1	-0
600,6	-0,001
601	-0,001
601,4	-0,001
601,9	-0,002
602,3	-0,001
602,8	-0,001
603,2	-0,001
603,7	-0,001
604,1	-0,001
604,6	-0,001
605	-0,001
605,4	-0
605,9	-0
606,3	-0
606,8	-0
607,2	-0
607,7	0
608,1	0
608,6	0
609	0
609,4	0,001
609,9	0
610,3	-0
610,8	-0
611,2	-0,001
611,7	-0
612,1	-0,001
612,6	-0,001
613	-0,001
613,4	-0,001
613,9	-0,001
614,3	-0,001
614,8	-0,001
615,2	-0
615,7	-0
616,1	0
616,6	0
617	0
617,4	0
617,9	0
618,3	0
618,8	0
619,2	0
619,7	0
620,1	0
620,5	0
621	0
621,4	0
621,9	0
622,3	0,001
622,8	0,001
623,2	0,001
623,6	0
624,1	0
624,5	-0
625	-0
625,4	-0
625,9	-0
626,3	-0,001
626,8	-0
627,2	-0
627,6	0
628,1	0
628,5	0
629	0
629,4	0
629,9	-0
630,3	0
630,7	0,001
631,2	0,001
631,6	0,001
632,1	0
632,5	0
633	0,001
633,4	0,001
633,8	0
634,3	0
634,7	0
635,2	0,001
635,6	0,001
636,1	0,001
636,5	0,001
636,9	0,001
637,4	0,001
637,8	0,001
638,3	0,001
638,7	0,001
639,2	0
639,6	0
640	0
640,5	0
640,9	0
641,4	0
641,8	0
642,2	0
642,7	0
643,1	0
643,6	0
644	0
644,5	0,001
644,9	0
645,3	0
645,8	0,001
646,2	0,001
646,7	0,001
647,1	0,002
647,6	0,002
648	0,002
648,4	0,002
648,9	0,001
649,3	0,001
649,8	0,001
650,2	0,001
650,6	0
651,1	0
651,5	0
652	0
652,4	-0
652,9	-0,001
653,3	-0,001
653,7	-0
654,2	-0
654,6	-0,001
655,1	-0,001
655,5	-0
655,9	-0
656,4	-0
656,8	-0
657,3	0
657,7	0,001
658,2	0,001
658,6	0,002
659	0,003
659,5	0,004
659,9	0,006
660,4	0,004
660,8	0,003
661,2	0,002
661,7	0,001
662,1	0,001
662,6	0
663	0
663,4	0
663,9	-0
664,3	-0
664,8	-0,001
665,2	-0,001
665,6	-0
666,1	-0,001
666,5	-0,001
667	-0,001
667,4	-0
667,9	0
668,3	-0
668,7	-0
669,2	-0
669,6	-0
670,1	-0
670,5	-0,001
670,9	-0,001
671,4	-0,001
671,8	-0,001
672,3	-0,001
672,7	-0,001
673,1	-0,001
673,6	-0,001
674	-0,001
674,5	-0,001
674,9	-0,001
675,3	-0,001
675,8	-0,001
676,2	-0,001
676,7	-0,001
677,1	-0,001
677,5	-0,001
678	-0,001
678,4	-0,001
678,9	-0,001
679,3	-0,001
679,7	-0,001
680,2	-0,001
680,6	-0
681,1	-0,001
681,5	-0
681,9	0
682,4	0,001
682,8	0,001
683,3	0,001
683,7	0,001
684,1	0,001
684,6	0,001
685	0
685,5	-0
685,9	-0,001
686,3	-0
686,8	0
687,2	-0
687,7	0
688,1	0
688,5	0
689	0,001
689,4	0
689,9	0
690,3	0,001
690,7	0
691,2	0,001
691,6	0,001
692	0,001
692,5	0,001
692,9	0,001
693,4	0,001
693,8	0,001
694,2	0,001
694,7	0
695,1	0,001
695,6	0
696	0
696,4	0
696,9	0
697,3	0
697,8	0
698,2	-0
698,6	-0
699,1	-0
699,5	-0
699,9	-0
700,4	-0
700,8	0
701,3	0,001
701,7	0,001
702,1	0,001
702,6	0,001
703	0,001
703,5	0,001
703,9	0,001
704,3	0,001
704,8	0,001
705,2	0,001
705,6	0,001
706,1	0
706,5	0
707	-0
707,4	-0
707,8	-0
708,3	-0
708,7	-0
709,2	0
709,6	0
710	0,001
710,5	0,001
710,9	0
711,3	0
711,8	0
712,2	0
712,7	-0
713,1	-0
713,5	-0
714	-0
714,4	-0
714,8	0
715,3	0
715,7	0
716,2	0
716,6	0,001
717	0
717,5	-0
717,9	-0
718,3	-0,001
718,8	-0,001
719,2	-0,001
719,7	-0,002
720,1	-0,001
720,5	-0,001
721	-0,001
721,4	-0
721,8	-0
722,3	0
722,7	0
723,2	0
723,6	0
724	0
724,5	-0
724,9	0
725,3	0
725,8	0
726,2	0
726,7	0
727,1	0
727,5	0
728	-0
728,4	-0
728,8	-0,001
729,3	-0,001
729,7	-0,001
730,1	-0,002
730,6	-0,002
731	-0,001
731,5	-0,001
731,9	-0,001
732,3	-0,001
732,8	-0,001
733,2	-0,001
733,6	-0
734,1	-0
734,5	-0
734,9	0
735,4	0,001
735,8	0
736,3	0,001
736,7	0,001
737,1	0,001
737,6	0,001
738	0
738,4	0
738,9	0
739,3	-0
739,7	-0
740,2	-0,001
740,6	-0,001
741,1	-0,001
741,5	-0,001
741,9	-0,001
742,4	-0
742,8	-0
743,2	0
743,7	0,001
744,1	0,001
744,5	0,001
745	0,001
745,4	0
745,8	0
746,3	0
746,7	-0
747,2	-0,001
747,6	-0
748	-0
748,5	-0
748,9	-0
749,3	-0
749,8	0
750,2	0
750,6	0
751,1	0
751,5	0,001
751,9	0,001
752,4	0,001
752,8	0,001
753,3	0,001
753,7	0,001
754,1	0,001
754,6	0,001
755	0,001
755,4	0,001
755,9	0,001
756,3	0,001
756,7	0,001
757,2	0,001
757,6	0,001
758	0,001
758,5	0
758,9	0
759,3	0
759,8	0
760,2	0
760,6	0
761,1	0
761,5	-0
761,9	0
762,4	0
762,8	0
763,3	0,001
763,7	0,001
764,1	0,002
764,6	0,002
765	0,002
765,4	0,002
765,9	0,002
766,3	0,002
766,7	0,002
767,2	0,002
767,6	0,002
768	0,002
768,5	0,002
768,9	0,002
769,3	0,002
769,8	0,002
770,2	0,002
770,6	0,002
771,1	0,002
771,5	0,001
771,9	0,001
772,4	0,001
772,8	0,001
773,2	0,001
773,7	0,001
774,1	0,002
774,5	0,002
775	0,002
775,4	0,001
775,8	0,001
776,3	0,001
776,7	0,001
777,1	0
777,6	0
778	0
778,4	0
778,9	0
779,3	0
779,7	0
780,2	0
780,6	0,001
781	0
781,5	0,001
781,9	0,001
782,3	0,001
782,8	0,001
783,2	0,001
783,6	0,001
784,1	0,001
784,5	0,001
784,9	0,001
785,4	0,001
785,8	-0
786,2	-0
786,7	-0
787,1	-0,001
787,5	-0,001
788	-0,001
788,4	-0,001
788,8	-0
789,3	-0
789,7	-0
790,1	-0
790,6	-0
791	-0,001
791,4	-0,001
791,9	-0
792,3	-0,001
792,7	-0
793,2	-0
793,6	-0
794	-0
794,5	-0
794,9	-0
795,3	0
795,8	0
796,2	0
796,6	0,001
797,1	0,001
797,5	0,001
797,9	0,001
798,4	0,001
798,8	0,001
799,2	0,001
799,7	0,001
800,1	0,001
800,5	0
801	0
801,4	-0
801,8	-0
802,2	-0
802,7	-0
803,1	0
803,5	0
804	0
804,4	0
804,8	0
805,3	0
805,7	-0
806,1	-0,001
806,6	-0,001
807	-0,001
807,4	-0,001
807,9	-0
808,3	-0,001
808,7	-0
809,2	-0
809,6	-0,001
810	-0,001
810,4	-0,001
810,9	-0,001
811,3	-0,001
811,7	-0,001
812,2	-0,001
812,6	-0,001
813	-0
813,5	-0
813,9	-0,001
814,3	-0
814,8	-0,001
815,2	-0,001
815,6	-0,001
816,1	-0,002
816,5	-0,002
816,9	-0,002
817,3	-0,002
817,8	-0,002
818,2	-0,002
818,6	-0,002
819,1	-0,002
819,5	-0,001
819,9	-0,001
820,4	-0,001
820,8	-0,001
821,2	-0,001
821,7	-0,001
822,1	-0,002
822,5	-0,002
822,9	-0,002
823,4	-0,002
823,8	-0,002
824,2	-0,002
824,7	-0,002
825,1	-0,002
825,5	-0,001
826	-0,001
826,4	-0,001
826,8	-0
827,3	-0
827,7	-0,001
828,1	-0
828,5	0
829	-0
829,4	-0
829,8	-0
830,3	0
830,7	0,001
831,1	0
831,6	-0
832	-0
832,4	-0
832,8	-0
833,3	0
833,7	-0
834,1	-0,001
834,6	-0
835	-0
835,4	-0
835,8	-0,001
836,3	-0,001
836,7	-0,001
837,1	-0,001
837,6	-0,001
838	-0,001
838,4	-0,001
838,9	-0,001
839,3	-0,001
839,7	-0
840,1	0
840,6	0
841	0
841,4	0,001
841,9	0,001
842,3	0
842,7	-0
843,1	-0
843,6	-0,001
844	-0
844,4	-0,001
844,9	-0,001
845,3	-0
845,7	-0
846,2	-0
846,6	-0
847	-0
847,4	0
847,9	0
848,3	0
848,7	0,001
849,2	0,001
849,6	0,001
850	0,001
850,4	0,001
850,9	0
851,3	0
851,7	-0
852,2	-0
852,6	0
853	0,001
853,4	0,001
853,9	0,001
854,3	0,001
854,7	0,001
855,2	0,002
855,6	0,001
856	0,002
856,4	0,001
856,9	0,001
857,3	0,001
857,7	0,001
858,2	0
858,6	-0
859	-0,001
859,4	-0,001
859,9	-0,001
860,3	-0,001
860,7	-0,001
861,1	-0,001
861,6	-0,001
862	-0,001
862,4	-0,001
862,9	-0,001
863,3	-0
863,7	-0,001
864,1	-0,001
864,6	-0,001
865	-0,001
865,4	-0,001
865,9	-0,001
866,3	-0,001
866,7	-0
867,1	-0
867,6	-0
868	-0
868,4	-0
868,8	-0
869,3	-0
869,7	-0
870,1	-0,001
870,6	-0,001
871	-0,001
871,4	-0,001
871,8	-0,001
872,3	-0,001
872,7	-0,001
873,1	-0,001
873,5	-0,002
874	-0,001
874,4	-0,002
874,8	-0,002
875,3	-0,002
875,7	-0,002
876,1	-0,002
876,5	-0,002
877	-0,002
877,4	-0,002
877,8	-0,002
878,2	-0,002
878,7	-0,001
879,1	-0,002
879,5	-0,001
879,9	-0,001
880,4	-0,001
880,8	-0,001
881,2	-0
881,7	-0
882,1	0
882,5	-0
882,9	-0
883,4	0
883,8	-0
884,2	-0,001
884,6	-0,001
885,1	-0,001
885,5	-0,001
885,9	-0,001
886,3	-0,001
886,8	-0
887,2	-0
887,6	0
888	0
888,5	0
888,9	-0
889,3	0
889,8	-0
890,2	0
890,6	-0
891	0
891,5	0
891,9	0
892,3	0,001
892,7	0,001
893,2	0,001
893,6	0,001
894	0,001
894,4	0,001
894,9	0,001
895,3	0,001
895,7	0,001
896,1	0
896,6	0
897	0
897,4	-0
897,8	-0
898,3	-0
898,7	-0
899,1	-0,001
899,5	-0,001
900	-0,001
900,4	-0,001
900,8	-0,001
901,2	-0,001
901,7	-0,001
902,1	-0,001
902,5	-0,002
902,9	-0,001
903,4	-0,002
903,8	-0,001
904,2	-0,001
904,6	-0,001
905,1	-0,001
905,5	-0,001
905,9	-0,001
906,3	-0,001
906,8	-0,002
907,2	-0,002
907,6	-0,002
908	-0,002
908,5	-0,002
908,9	-0,002
909,3	-0,002
909,7	-0,002
910,2	-0,002
910,6	-0,002
911	-0,002
911,4	-0,002
911,9	-0,002
912,3	-0,002
912,7	-0,002
913,1	-0,002
913,6	-0,002
914	-0,002
914,4	-0,002
914,8	-0,002
915,3	-0,002
915,7	-0,003
916,1	-0,002
916,5	-0,002
916,9	-0,002
917,4	-0,002
917,8	-0,001
918,2	-0,001
918,6	-0
919,1	0
919,5	0,001
919,9	0,001
920,3	0,002
920,8	0,001
921,2	0,001
921,6	0,001
922	0,001
922,5	-0
922,9	-0,001
923,3	-0,001
923,7	-0,001
924,2	-0,001
924,6	-0
925	-0
925,4	0
925,8	0
926,3	0
926,7	0,001
927,1	0
927,5	0
928	0
928,4	-0
928,8	-0,001
929,2	-0
929,7	-0,001
930,1	-0,001
930,5	-0,001
930,9	-0,001
931,3	-0,001
931,8	-0
932,2	-0,001
932,6	-0,001
933	-0,001
933,5	-0,001
933,9	-0,001
934,3	-0,001
934,7	-0
935,2	-0
935,6	0
936	0
936,4	0
936,8	0
937,3	-0
937,7	-0
938,1	-0,001
938,5	-0,001
939	-0,001
939,4	-0,001
939,8	-0,002
940,2	-0,002
940,6	-0,002
941,1	-0,002
941,5	-0,001
941,9	-0,002
942,3	-0,002
942,8	-0,002
943,2	-0,002
943,6	-0,002
944	-0,001
944,4	-0,001
944,9	-0,001
945,3	-0,001
945,7	-0
946,1	-0
946,6	-0,001
947	-0,001
947,4	-0,001
947,8	-0,001
948,2	-0,002
948,7	-0,002
949,1	-0,002
949,5	-0,002
949,9	-0,002
950,3	-0,002
950,8	-0,002
951,2	-0,002
951,6	-0,003
952	-0,002
952,5	-0,002
952,9	-0,002
953,3	-0,002
953,7	-0,002
954,1	-0,002
954,6	-0,002
955	-0,002
955,4	-0,002
955,8	-0,001
956,2	-0,001
956,7	-0,001
957,1	-0,001
957,5	-0
957,9	0
958,3	-0
958,8	-0
959,2	-0,001
959,6	-0,001
960	-0
960,5	-0,001
960,9	-0,001
961,3	-0,001
961,7	-0,001
962,1	-0,001
962,6	-0,001
963	-0,001
963,4	-0,001
963,8	-0,001
964,2	-0,001
964,7	-0,001
965,1	-0,001
965,5	-0,001
965,9	-0,001
966,3	-0
966,8	0
967,2	0,001
967,6	0,001
968	0,001
968,4	0,001
968,9	0
969,3	-0
969,7	-0,001
970,1	-0,001
970,5	-0
971	-0
971,4	-0,001
971,8	-0,001
972,2	-0,001
972,6	-0,001
973,1	-0,002
973,5	-0,002
973,9	-0,001
974,3	-0,001
974,7	-0
975,2	-0
975,6	-0,001
976	-0
976,4	-0,001
976,8	-0,001
977,3	-0
977,7	-0
978,1	-0
978,5	0
978,9	0,001
979,4	0,001
979,8	0
980,2	0
980,6	0,001
981	0,001
981,5	0,001
981,9	0,001
982,3	0,001
982,7	0,001
983,1	0,001
983,6	0
984	-0
984,4	-0,001
984,8	-0,001
985,2	-0,001
985,6	-0,001
986,1	-0,001
986,5	-0,001
986,9	-0,001
987,3	-0,001
987,7	-0
988,2	-0
988,6	-0,001
989	-0,001
989,4	-0,001
989,8	-0,001
990,3	-0
990,7	-0,001
991,1	-0,001
991,5	-0,001
991,9	-0,001
992,3	-0,001
992,8	-0,001
993,2	-0,001
993,6	-0,001
994	-0,002
994,4	-0,002
994,9	-0,002
995,3	-0,002
995,7	-0,002
996,1	-0,002
996,5	-0,001
996,9	-0,001
997,4	-0,001
997,8	-0
998,2	-0
998,6	-0
999	0,001
999,5	0,001
999,9	0,001
1000,3	0,001
1000,7	0,001
1001,1	0,001
1001,5	0,001
1002	0
1002,4	-0
1002,8	-0
1003,2	-0,001
1003,6	-0,001
1004	-0,001
1004,5	-0,002
1004,9	-0,002
1005,3	-0,001
1005,7	-0,002
1006,1	-0,001
1006,6	-0,001
1007	-0,001
1007,4	-0
1007,8	-0
1008,2	-0
1008,6	-0,001
1009,1	-0,001
1009,5	-0,001
1009,9	-0,001
1010,3	-0,002
1010,7	-0,002
1011,1	-0,002
1011,6	-0,002
1012	-0,002
1012,4	-0,002
1012,8	-0,002
1013,2	-0,003
1013,6	-0,003
1014,1	-0,003
1014,5	-0,003
1014,9	-0,002
1015,3	-0,002
1015,7	-0,002
1016,1	-0,001
1016,6	-0,001
1017	-0,001
1017,4	-0,001
1017,8	-0,001
1018,2	-0,001
1018,6	-0
1019,1	-0,001
1019,5	-0,001
1019,9	-0,001
1020,3	-0
1020,7	-0,001
1021,1	-0
1021,6	-0
1022	0
1022,4	0
1022,8	-0
1023,2	-0,001
1023,6	-0,001
1024,1	-0
1024,5	0
1024,9	0,001
1025,3	0,001
1025,7	0,003
1026,1	0,003
1026,6	0,003
1027	0,004
1027,4	0,003
1027,8	0,002
1028,2	0,003
1028,6	0,002
1029	0,002
1029,5	0,002
1029,9	0,003
1030,3	0,003
1030,7	0,003
1031,1	0,003
1031,5	0,003
1032	0,003
1032,4	0,003
1032,8	0,002
1033,2	0,001
1033,6	0,002
1034	0,001
1034,4	0,001
1034,9	0,001
1035,3	0,001
1035,7	0,001
1036,1	0,001
1036,5	0
1036,9	-0
1037,4	-0
1037,8	0,001
1038,2	0,001
1038,6	-0
1039	-0
1039,4	-0
1039,8	-0
1040,3	-0
1040,7	-0,001
1041,1	-0,001
1041,5	-0,001
1041,9	-0,002
1042,3	-0,002
1042,7	-0,002
1043,2	-0,002
1043,6	-0,001
1044	-0,001
1044,4	-0,001
1044,8	-0,001
1045,2	-0,001
1045,6	-0,001
1046,1	-0
1046,5	-0
1046,9	-0
1047,3	0
1047,7	-0
1048,1	-0
1048,5	-0
1049	-0,001
1049,4	-0,001
1049,8	-0,002
1050,2	-0,002
1050,6	-0,003
1051	-0,003
1051,4	-0,003
1051,9	-0,003
1052,3	-0,003
1052,7	-0,003
1053,1	-0,002
1053,5	-0,001
1053,9	-0
1054,3	-0,001
1054,8	-0
1055,2	-0,001
1055,6	-0,001
1056	-0,001
1056,4	-0,002
1056,8	-0,002
1057,2	-0,001
1057,6	-0,002
1058,1	-0,002
1058,5	-0,003
1058,9	-0,003
1059,3	-0,003
1059,7	-0,003
1060,1	-0,003
1060,5	-0,003
1061	-0,003
1061,4	-0,003
1061,8	-0,002
1062,2	-0,002
1062,6	-0,003
1063	-0,003
1063,4	-0,003
1063,8	-0,002
1064,3	-0,001
1064,7	-0,001
1065,1	-0,001
1065,5	-0,001
1065,9	-0,001
1066,3	-0,001
1066,7	-0,001
1067,1	-0,001
1067,6	-0,002
1068	-0,002
1068,4	-0,002
1068,8	-0,002
1069,2	-0,002
1069,6	-0,002
1070	-0,002
1070,4	-0,003
1070,9	-0,002
1071,3	-0,001
1071,7	-0,001
1072,1	-0,002
1072,5	-0,003
1072,9	-0,004
1073,3	-0,004
1073,7	-0,003
1074,2	-0,004
1074,6	-0,004
1075	-0,004
1075,4	-0,003
1075,8	-0,001
1076,2	-0,001
1076,6	-0,002
1077	-0,001
1077,5	-0,003
1077,9	-0,003
1078,3	-0,003
1078,7	-0,003
1079,1	-0,003
1079,5	-0,004
1079,9	-0,003
1080,3	-0,002
1080,7	-0,001
1081,2	-0,001
1081,6	0
1082	-0,001
1082,4	-0
1082,8	-0,002
1083,2	-0,002
1083,6	-0,003
1084	-0,002
1084,5	-0,004
1084,9	-0,003
1085,3	-0,003
1085,7	0,001
1086,1	0,001
1086,5	0,001
1086,9	0,001
1087,3	0,002
1087,7	0,004
1088,2	0,003
1088,6	0,001
1089	0,001
1089,4	0,001
1089,8	0,001
1090,2	-0,001
1090,6	-0,003
1091	-0,002
1091,4	-0,001
1091,9	-0,002
1092,3	-0,002
1092,7	-0,002
1093,1	-0,002
1093,5	-0,001
1093,9	0
1094,3	-0,002
1094,7	0,001
1095,1	0,003
1095,5	0,002
1096	0,004
1096,4	0,003
1096,8	0,001
1097,2	0,001
1097,6	-0,004
1098	-0,003
1098,4	-0,004
1098,8	-0,002
1099,2	-0,003
1099,6	-0,002
1100,1	-0,002
1100,5	0,002
1100,9	-0,001
1101,3	0,005
1101,7	0,009
1102,1	0,007
1102,5	0,006
1102,9	0,011
1103,3	0
1103,7	0,003
1104,2	-0,001
1104,6	-0,011
1105	-0,012
1105,4	-0,007
1105,8	-0,005
1106,2	0,009
1106,6	0,011
1107	-0,011
1107,4	-0,006
1107,8	0
1108,3	-0
