Data from Absorbance_00059.txt Node
Date: Fri Aug 11 13:23:38 MSK 2023
User: vat
Spectrometer: MAYP114033
Trigger mode: 0
Integration Time (sec): 8,000000E-3
Scans to average: 10
Electric dark correction enabled: true
Nonlinearity correction enabled: false
Boxcar width: 3
XAxis mode: Wavelengths
Number of Pixels in Spectrum: 2068
>>>>>Begin Spectral Data<<<<<
199,4	-0
199,9	0,141
200,4	0,37
200,8	0,643
201,3	0,815
201,8	0,872
202,2	0,906
202,7	0,942
203,2	0,989
203,6	1,036
204,1	1,081
204,6	1,092
205	1,114
205,5	1,131
206	1,13
206,4	1,143
206,9	1,162
207,4	1,174
207,8	1,184
208,3	1,217
208,8	1,245
209,2	1,271
209,7	1,287
210,2	1,294
210,6	1,299
211,1	1,323
211,5	1,328
212	1,325
212,5	1,344
212,9	1,366
213,4	1,374
213,9	1,379
214,3	1,379
214,8	1,392
215,3	1,419
215,7	1,428
216,2	1,436
216,7	1,475
217,1	1,515
217,6	1,519
218,1	1,529
218,5	1,522
219	1,52
219,5	1,524
219,9	1,523
220,4	1,533
220,9	1,562
221,3	1,577
221,8	1,594
222,3	1,62
222,7	1,648
223,2	1,663
223,6	1,679
224,1	1,706
224,6	1,733
225	1,756
225,5	1,779
226	1,804
226,4	1,827
226,9	1,835
227,4	1,833
227,8	1,836
228,3	1,878
228,8	1,891
229,2	1,902
229,7	1,906
230,2	1,907
230,6	1,922
231,1	1,928
231,5	1,937
232	1,938
232,5	1,941
232,9	1,944
233,4	1,964
233,9	1,968
234,3	1,975
234,8	1,954
235,3	1,961
235,7	1,952
236,2	1,967
236,7	1,971
237,1	1,969
237,6	1,986
238,1	2,007
238,5	2,015
239	2,034
239,4	2,048
239,9	2,064
240,4	2,073
240,8	2,063
241,3	2,071
241,8	2,093
242,2	2,082
242,7	2,074
243,2	2,083
243,6	2,109
244,1	2,106
244,6	2,101
245	2,098
245,5	2,124
245,9	2,133
246,4	2,135
246,9	2,128
247,3	2,142
247,8	2,12
248,3	2,11
248,7	2,11
249,2	2,11
249,7	2,101
250,1	2,1
250,6	2,102
251	2,124
251,5	2,135
252	2,142
252,4	2,163
252,9	2,168
253,4	2,173
253,8	2,165
254,3	2,16
254,8	2,155
255,2	2,152
255,7	2,122
256,1	2,127
256,6	2,121
257,1	2,146
257,5	2,165
258	2,178
258,5	2,177
258,9	2,186
259,4	2,192
259,9	2,212
260,3	2,218
260,8	2,215
261,2	2,234
261,7	2,24
262,2	2,229
262,6	2,219
263,1	2,21
263,6	2,196
264	2,188
264,5	2,178
264,9	2,176
265,4	2,187
265,9	2,18
266,3	2,171
266,8	2,163
267,3	2,153
267,7	2,132
268,2	2,133
268,7	2,138
269,1	2,148
269,6	2,146
270	2,154
270,5	2,16
271	2,175
271,4	2,159
271,9	2,157
272,4	2,139
272,8	2,139
273,3	2,134
273,7	2,142
274,2	2,126
274,7	2,134
275,1	2,132
275,6	2,132
276,1	2,135
276,5	2,12
277	2,12
277,4	2,122
277,9	2,109
278,4	2,119
278,8	2,126
279,3	2,11
279,8	2,101
280,2	2,078
280,7	2,053
281,1	2,027
281,6	2,004
282,1	1,969
282,5	1,941
283	1,913
283,4	1,87
283,9	1,828
284,4	1,772
284,8	1,691
285,3	1,612
285,8	1,529
286,2	1,445
286,7	1,362
287,1	1,284
287,6	1,213
288,1	1,147
288,5	1,091
289	1,039
289,5	0,994
289,9	0,956
290,4	0,922
290,8	0,894
291,3	0,869
291,8	0,849
292,2	0,831
292,7	0,816
293,1	0,803
293,6	0,791
294,1	0,781
294,5	0,773
295	0,763
295,5	0,756
295,9	0,748
296,4	0,741
296,8	0,735
297,3	0,73
297,8	0,726
298,2	0,721
298,7	0,717
299,1	0,714
299,6	0,711
300,1	0,707
300,5	0,704
301	0,699
301,5	0,696
301,9	0,692
302,4	0,687
302,8	0,682
303,3	0,679
303,8	0,674
304,2	0,67
304,7	0,666
305,1	0,662
305,6	0,659
306,1	0,655
306,5	0,65
307	0,645
307,4	0,64
307,9	0,636
308,4	0,631
308,8	0,626
309,3	0,621
309,8	0,617
310,2	0,613
310,7	0,607
311,1	0,602
311,6	0,598
312,1	0,592
312,5	0,587
313	0,582
313,4	0,577
313,9	0,573
314,4	0,568
314,8	0,563
315,3	0,558
315,7	0,553
316,2	0,547
316,7	0,542
317,1	0,537
317,6	0,531
318	0,525
318,5	0,52
319	0,514
319,4	0,508
319,9	0,502
320,3	0,496
320,8	0,491
321,3	0,486
321,7	0,48
322,2	0,474
322,6	0,469
323,1	0,464
323,6	0,458
324	0,452
324,5	0,447
324,9	0,442
325,4	0,438
325,9	0,433
326,3	0,427
326,8	0,421
327,2	0,417
327,7	0,412
328,2	0,406
328,6	0,401
329,1	0,395
329,5	0,391
330	0,386
330,5	0,38
330,9	0,375
331,4	0,37
331,8	0,365
332,3	0,359
332,8	0,353
333,2	0,348
333,7	0,343
334,1	0,338
334,6	0,333
335,1	0,327
335,5	0,322
336	0,317
336,4	0,312
336,9	0,306
337,4	0,3
337,8	0,295
338,3	0,29
338,7	0,286
339,2	0,281
339,7	0,275
340,1	0,271
340,6	0,266
341	0,262
341,5	0,258
342	0,253
342,4	0,249
342,9	0,245
343,3	0,241
343,8	0,237
344,2	0,232
344,7	0,228
345,2	0,224
345,6	0,22
346,1	0,216
346,5	0,212
347	0,209
347,5	0,206
347,9	0,202
348,4	0,197
348,8	0,194
349,3	0,19
349,8	0,187
350,2	0,182
350,7	0,179
351,1	0,176
351,6	0,173
352	0,17
352,5	0,166
353	0,163
353,4	0,161
353,9	0,158
354,3	0,154
354,8	0,152
355,3	0,149
355,7	0,146
356,2	0,144
356,6	0,141
357,1	0,139
357,5	0,136
358	0,133
358,5	0,13
358,9	0,129
359,4	0,126
359,8	0,124
360,3	0,121
360,8	0,119
361,2	0,118
361,7	0,115
362,1	0,113
362,6	0,111
363	0,109
363,5	0,107
364	0,105
364,4	0,103
364,9	0,102
365,3	0,099
365,8	0,097
366,3	0,096
366,7	0,094
367,2	0,092
367,6	0,09
368,1	0,088
368,5	0,087
369	0,086
369,5	0,085
369,9	0,083
370,4	0,082
370,8	0,081
371,3	0,079
371,7	0,078
372,2	0,076
372,7	0,076
373,1	0,075
373,6	0,074
374	0,073
374,5	0,072
374,9	0,07
375,4	0,07
375,9	0,068
376,3	0,067
376,8	0,066
377,2	0,066
377,7	0,065
378,2	0,064
378,6	0,063
379,1	0,062
379,5	0,06
380	0,06
380,4	0,059
380,9	0,058
381,4	0,057
381,8	0,057
382,3	0,055
382,7	0,054
383,2	0,053
383,6	0,052
384,1	0,052
384,6	0,051
385	0,05
385,5	0,05
385,9	0,049
386,4	0,049
386,8	0,048
387,3	0,048
387,7	0,047
388,2	0,046
388,7	0,045
389,1	0,044
389,6	0,044
390	0,044
390,5	0,043
390,9	0,043
391,4	0,042
391,9	0,041
392,3	0,04
392,8	0,04
393,2	0,039
393,7	0,038
394,1	0,038
394,6	0,037
395,1	0,037
395,5	0,037
396	0,036
396,4	0,035
396,9	0,035
397,3	0,035
397,8	0,034
398,2	0,034
398,7	0,034
399,2	0,033
399,6	0,033
400,1	0,032
400,5	0,032
401	0,031
401,4	0,029
401,9	0,029
402,4	0,029
402,8	0,028
403,3	0,028
403,7	0,027
404,2	0,027
404,6	0,028
405,1	0,027
405,5	0,027
406	0,026
406,5	0,025
406,9	0,025
407,4	0,024
407,8	0,023
408,3	0,023
408,7	0,022
409,2	0,022
409,6	0,022
410,1	0,022
410,6	0,022
411	0,022
411,5	0,021
411,9	0,021
412,4	0,02
412,8	0,019
413,3	0,018
413,7	0,019
414,2	0,018
414,7	0,017
415,1	0,018
415,6	0,017
416	0,017
416,5	0,016
416,9	0,016
417,4	0,016
417,8	0,015
418,3	0,015
418,8	0,015
419,2	0,014
419,7	0,014
420,1	0,014
420,6	0,014
421	0,014
421,5	0,014
421,9	0,013
422,4	0,013
422,8	0,013
423,3	0,012
423,8	0,012
424,2	0,011
424,7	0,01
425,1	0,01
425,6	0,01
426	0,009
426,5	0,009
426,9	0,008
427,4	0,009
427,9	0,009
428,3	0,009
428,8	0,008
429,2	0,008
429,7	0,008
430,1	0,007
430,6	0,006
431	0,006
431,5	0,006
431,9	0,006
432,4	0,006
432,8	0,006
433,3	0,006
433,8	0,006
434,2	0,006
434,7	0,006
435,1	0,006
435,6	0,006
436	0,006
436,5	0,005
436,9	0,005
437,4	0,005
437,8	0,006
438,3	0,005
438,8	0,005
439,2	0,005
439,7	0,005
440,1	0,005
440,6	0,003
441	0,003
441,5	0,003
441,9	0,003
442,4	0,002
442,8	0,003
443,3	0,003
443,7	0,003
444,2	0,003
444,7	0,003
445,1	0,003
445,6	0,003
446	0,003
446,5	0,003
446,9	0,003
447,4	0,002
447,8	0,002
448,3	0,003
448,7	0,003
449,2	0,002
449,6	0,002
450,1	0,002
450,6	0,002
451	0,001
451,5	0,001
451,9	0
452,4	0,001
452,8	-0
453,3	-0,001
453,7	-0
454,2	-0
454,6	0
455,1	0
455,5	0,001
456	0,002
456,4	0,002
456,9	0,002
457,3	0,001
457,8	0
458,3	-0
458,7	-0,001
459,2	-0,001
459,6	-0,001
460,1	-0,001
460,5	-0,001
461	-0,001
461,4	-0
461,9	-0,001
462,3	-0,001
462,8	-0,001
463,2	-0
463,7	-0
464,1	-0
464,6	-0
465	0
465,5	0
466	0
466,4	-0
466,9	-0
467,3	-0
467,8	-0
468,2	-0,001
468,7	-0,001
469,1	-0
469,6	-0,001
470	-0,001
470,5	-0,001
470,9	-0,001
471,4	-0,002
471,8	-0,002
472,3	-0,002
472,7	-0,002
473,2	-0,002
473,6	-0,002
474,1	-0,001
474,5	-0,001
475	-0
475,4	-0
475,9	0
476,4	-0
476,8	0
477,3	0
477,7	-0
478,2	-0,001
478,6	-0,001
479,1	-0,001
479,5	-0
480	-0
480,4	0
480,9	0
481,3	0
481,8	0
482,2	-0
482,7	-0,001
483,1	-0,001
483,6	-0,002
484	-0,002
484,5	-0,002
484,9	-0,002
485,4	-0,002
485,8	-0
486,3	-0
486,7	-0
487,2	-0
487,6	-0
488,1	0
488,5	0,001
489	-0,001
489,4	-0,001
489,9	0
490,4	0
490,8	0
491,3	0
491,7	-0
492,2	-0
492,6	-0
493,1	-0,001
493,5	-0
494	-0
494,4	-0
494,9	-0
495,3	-0
495,8	0
496,2	0
496,7	0
497,1	0
497,6	0
498	0
498,5	0
498,9	0
499,4	-0
499,8	-0,001
500,3	-0
500,7	-0
501,2	-0
501,6	-0,001
502,1	-0,001
502,5	-0
503	-0,001
503,4	-0
503,9	-0,001
504,3	-0
504,8	-0
505,2	-0
505,7	-0
506,1	0
506,6	0
507	0,001
507,5	0,001
507,9	0
508,4	0
508,8	-0
509,3	0
509,7	-0
510,2	-0
510,6	-0
511,1	-0
511,5	-0
512	-0
512,4	-0
512,9	-0
513,3	-0,001
513,8	-0,001
514,2	-0,001
514,7	-0,001
515,1	-0,001
515,6	-0,001
516	-0,001
516,5	0
516,9	0
517,4	-0
517,8	-0,001
518,3	-0,001
518,7	-0,001
519,2	-0,001
519,6	-0,001
520,1	-0,001
520,5	-0,001
521	0
521,4	0
521,9	0
522,3	0,001
522,8	0
523,2	0,001
523,7	0,001
524,1	0,001
524,6	0,001
525	0,001
525,5	0,001
525,9	0,001
526,4	0,001
526,8	0,001
527,3	0
527,7	0,001
528,2	0
528,6	0
529,1	0
529,5	0
530	-0
530,4	-0
530,9	0
531,3	0
531,8	-0
532,2	-0
532,6	-0,001
533,1	-0
533,5	-0
534	-0,001
534,4	-0,001
534,9	-0,001
535,3	-0,002
535,8	-0,001
536,2	-0,002
536,7	-0,002
537,1	-0,003
537,6	-0,002
538	-0,002
538,5	-0,002
538,9	-0,001
539,4	-0,001
539,8	-0
540,3	0,001
540,7	0
541,2	0,001
541,6	0,001
542,1	0,001
542,5	0,001
543	-0
543,4	-0,001
543,9	-0,001
544,3	-0,002
544,8	-0,002
545,2	-0,002
545,7	-0,002
546,1	-0,002
546,5	-0,001
547	-0,001
547,4	-0,001
547,9	-0,001
548,3	-0,001
548,8	-0
549,2	-0
549,7	0
550,1	0
550,6	0
551	0
551,5	0,001
551,9	0,001
552,4	0,001
552,8	0,001
553,3	0,001
553,7	0
554,2	0
554,6	-0
555,1	-0,001
555,5	-0,001
555,9	-0,001
556,4	-0,001
556,8	-0,001
557,3	-0,001
557,7	-0,001
558,2	-0,001
558,6	-0,002
559,1	-0,001
559,5	-0,001
560	-0,001
560,4	-0,002
560,9	-0,001
561,3	-0,001
561,8	-0
562,2	0
562,7	0,001
563,1	0,001
563,6	0
564	0
564,4	0
564,9	-0
565,3	0
565,8	-0
566,2	0
566,7	0,001
567,1	0,001
567,6	0,001
568	0,001
568,5	0
568,9	-0
569,4	0
569,8	-0
570,3	-0,001
570,7	-0,001
571,1	-0,001
571,6	-0,001
572	-0,001
572,5	-0,001
572,9	-0
573,4	-0
573,8	-0
574,3	-0,001
574,7	-0,001
575,2	-0,001
575,6	-0,001
576,1	-0,001
576,5	-0,001
576,9	-0,001
577,4	-0
577,8	-0
578,3	-0
578,7	-0
579,2	-0
579,6	0
580,1	0
580,5	0
581	0
581,4	0
581,9	0
582,3	-0
582,7	-0
583,2	-0
583,6	-0
584,1	0
584,5	-0
585	0
585,4	0
585,9	0
586,3	-0
586,8	0
587,2	-0
587,6	-0
588,1	-0
588,5	-0
589	-0
589,4	-0
589,9	-0,001
590,3	-0,001
590,8	-0,001
591,2	-0,001
591,7	-0,001
592,1	-0
592,5	-0
593	-0
593,4	-0
593,9	0
594,3	0
594,8	0,001
595,2	0
595,7	0
596,1	0
596,6	0
597	0
597,4	-0
597,9	-0,001
598,3	-0,001
598,8	-0,001
599,2	-0,001
599,7	-0,001
600,1	-0,001
600,6	-0,001
601	-0,001
601,4	-0,001
601,9	-0,001
602,3	-0,001
602,8	-0,001
603,2	-0,002
603,7	-0,002
604,1	-0,002
604,6	-0,001
605	-0,001
605,4	-0,001
605,9	-0
606,3	-0
606,8	0
607,2	0
607,7	-0
608,1	0
608,6	-0
609	-0
609,4	-0
609,9	-0,001
610,3	-0,001
610,8	-0,001
611,2	-0,001
611,7	-0,001
612,1	-0,001
612,6	-0,001
613	-0,001
613,4	-0,001
613,9	-0,001
614,3	-0,001
614,8	-0,001
615,2	-0
615,7	-0
616,1	-0,001
616,6	-0,001
617	-0,001
617,4	-0,001
617,9	-0,001
618,3	-0,001
618,8	-0,001
619,2	-0,001
619,7	-0
620,1	-0,001
620,5	-0
621	0
621,4	0
621,9	0
622,3	0,001
622,8	0,001
623,2	0,001
623,6	0,001
624,1	0,001
624,5	0
625	0
625,4	-0
625,9	-0,001
626,3	-0,001
626,8	-0,001
627,2	-0,001
627,6	-0
628,1	-0
628,5	-0
629	-0
629,4	-0
629,9	-0,001
630,3	-0,001
630,7	-0
631,2	-0
631,6	-0
632,1	-0
632,5	-0
633	-0
633,4	-0
633,8	-0
634,3	-0
634,7	-0
635,2	0
635,6	-0
636,1	0
636,5	-0
636,9	-0
637,4	-0
637,8	-0
638,3	-0,001
638,7	-0
639,2	-0
639,6	-0
640	-0
640,5	-0
640,9	-0
641,4	-0
641,8	-0
642,2	-0
642,7	-0
643,1	-0
643,6	-0
644	-0
644,5	-0
644,9	-0
645,3	0
645,8	0,001
646,2	0,001
646,7	0,001
647,1	0,001
647,6	0,001
648	0,001
648,4	0,001
648,9	0,001
649,3	0,001
649,8	0
650,2	0
650,6	-0
651,1	-0
651,5	-0
652	-0,001
652,4	-0,001
652,9	-0,001
653,3	-0,001
653,7	-0
654,2	-0
654,6	-0,001
655,1	-0
655,5	-0
655,9	-0
656,4	-0
656,8	-0
657,3	0
657,7	0,001
658,2	0,001
658,6	0,001
659	0,002
659,5	0,003
659,9	0,004
660,4	0,003
660,8	0,002
661,2	0,002
661,7	0,001
662,1	0,001
662,6	0
663	-0
663,4	-0
663,9	-0
664,3	-0,001
664,8	-0,001
665,2	-0,001
665,6	-0,001
666,1	-0,001
666,5	-0,001
667	-0,001
667,4	-0
667,9	0
668,3	-0
668,7	0
669,2	0
669,6	-0
670,1	-0
670,5	-0
670,9	-0
671,4	-0
671,8	-0,001
672,3	-0,001
672,7	-0,001
673,1	-0,001
673,6	-0,001
674	-0,001
674,5	-0,001
674,9	-0,001
675,3	-0,001
675,8	-0,001
676,2	-0,001
676,7	-0,001
677,1	-0,002
677,5	-0,002
678	-0,001
678,4	-0,001
678,9	-0,001
679,3	-0,001
679,7	-0
680,2	-0
680,6	-0,001
681,1	-0,001
681,5	-0
681,9	-0
682,4	-0
682,8	-0
683,3	-0
683,7	0
684,1	0,001
684,6	0
685	-0
685,5	-0,001
685,9	-0,001
686,3	-0,001
686,8	-0,001
687,2	-0,001
687,7	-0,001
688,1	-0
688,5	0
689	0
689,4	0,001
689,9	0
690,3	0
690,7	0,001
691,2	0,001
691,6	0,001
692	0,001
692,5	0,001
692,9	0,001
693,4	0
693,8	0
694,2	0
694,7	0
695,1	0,001
695,6	0,001
696	0
696,4	0
696,9	0
697,3	-0
697,8	-0
698,2	-0,001
698,6	-0,001
699,1	-0,001
699,5	-0,001
699,9	-0,001
700,4	-0,001
700,8	-0
701,3	-0
701,7	0
702,1	0,001
702,6	0,001
703	0
703,5	0,001
703,9	0,001
704,3	0,001
704,8	0,001
705,2	0
705,6	0
706,1	0
706,5	0
707	-0
707,4	-0,001
707,8	-0
708,3	-0
708,7	-0
709,2	-0
709,6	-0
710	0
710,5	0
710,9	0
711,3	-0
711,8	-0
712,2	-0
712,7	-0,001
713,1	-0,001
713,5	-0,001
714	-0,001
714,4	-0
714,8	-0
715,3	0
715,7	0
716,2	-0
716,6	0
717	-0
717,5	-0,001
717,9	-0,001
718,3	-0,001
718,8	-0,001
719,2	-0,001
719,7	-0,001
720,1	-0,001
720,5	-0,001
721	-0
721,4	0
721,8	0
722,3	0
722,7	0
723,2	-0
723,6	-0
724	-0,001
724,5	-0,001
724,9	-0,001
725,3	-0,001
725,8	-0,001
726,2	-0,001
726,7	-0,001
727,1	-0,001
727,5	-0,001
728	-0,001
728,4	-0,001
728,8	-0,001
729,3	-0,001
729,7	-0,001
730,1	-0,001
730,6	-0,001
731	-0,001
731,5	-0,001
731,9	-0,001
732,3	-0,001
732,8	-0,001
733,2	-0
733,6	-0
734,1	-0
734,5	-0
734,9	0
735,4	0
735,8	0
736,3	0
736,7	0
737,1	0
737,6	0,001
738	0
738,4	0
738,9	0
739,3	-0
739,7	-0
740,2	-0,001
740,6	-0,001
741,1	-0,001
741,5	-0,001
741,9	-0,001
742,4	-0,001
742,8	-0
743,2	0
743,7	0
744,1	0
744,5	0
745	0
745,4	0
745,8	-0
746,3	-0,001
746,7	-0,001
747,2	-0,001
747,6	-0,001
748	-0,001
748,5	-0
748,9	-0
749,3	0
749,8	0
750,2	0,001
750,6	0
751,1	0
751,5	0,001
751,9	0
752,4	0,001
752,8	0,001
753,3	0,001
753,7	0,001
754,1	0,001
754,6	0,001
755	0,001
755,4	0,001
755,9	0,001
756,3	0,001
756,7	0,001
757,2	0,001
757,6	0
758	0
758,5	0
758,9	-0
759,3	-0
759,8	0
760,2	-0
760,6	0
761,1	-0
761,5	0
761,9	0
762,4	0
762,8	0
763,3	0
763,7	0
764,1	0,001
764,6	0,001
765	0,001
765,4	0,001
765,9	0,001
766,3	0,001
766,7	0,002
767,2	0,002
767,6	0,002
768	0,002
768,5	0,002
768,9	0,003
769,3	0,002
769,8	0,002
770,2	0,002
770,6	0,002
771,1	0,001
771,5	0,001
771,9	0
772,4	0,001
772,8	0,001
773,2	0,001
773,7	0,001
774,1	0,001
774,5	0,002
775	0,001
775,4	0,001
775,8	0,001
776,3	0,001
776,7	0
777,1	0
777,6	0
778	0,001
778,4	0,001
778,9	0,001
779,3	0,001
779,7	0,001
780,2	0,001
780,6	0,001
781	0,001
781,5	0
781,9	0
782,3	0
782,8	0
783,2	0,001
783,6	0,001
784,1	0
784,5	0
784,9	0
785,4	-0
785,8	-0
786,2	-0,001
786,7	-0,001
787,1	-0,001
787,5	-0,001
788	-0,001
788,4	-0,001
788,8	-0,001
789,3	-0,001
789,7	-0,001
790,1	-0,001
790,6	-0,001
791	-0,001
791,4	-0,001
791,9	-0,001
792,3	-0,001
792,7	-0,001
793,2	-0,001
793,6	-0,001
794	-0,001
794,5	-0
794,9	-0
795,3	0
795,8	0
796,2	0,001
796,6	0,001
797,1	0,001
797,5	0,001
797,9	0,001
798,4	0,001
798,8	0,001
799,2	0,001
799,7	0,001
800,1	0
800,5	-0
801	-0,001
801,4	-0,001
801,8	-0,001
802,2	-0,001
802,7	-0
803,1	-0
803,5	-0
804	0
804,4	0
804,8	0
805,3	-0
805,7	-0,001
806,1	-0,001
806,6	-0,001
807	-0,001
807,4	-0,001
807,9	-0,001
808,3	-0,001
808,7	-0
809,2	-0
809,6	-0,001
810	-0
810,4	-0
810,9	-0,001
811,3	-0,001
811,7	-0,001
812,2	-0
812,6	-0
813	-0
813,5	-0,001
813,9	-0,001
814,3	-0,001
814,8	-0,001
815,2	-0,001
815,6	-0,001
816,1	-0,002
816,5	-0,002
816,9	-0,002
817,3	-0,002
817,8	-0,002
818,2	-0,002
818,6	-0,002
819,1	-0,002
819,5	-0,001
819,9	-0,001
820,4	-0,001
820,8	-0,001
821,2	-0,001
821,7	-0,002
822,1	-0,002
822,5	-0,002
822,9	-0,002
823,4	-0,002
823,8	-0,002
824,2	-0,002
824,7	-0,002
825,1	-0,002
825,5	-0,002
826	-0,001
826,4	-0,001
826,8	-0,001
827,3	-0
827,7	-0,001
828,1	-0
828,5	-0
829	-0
829,4	-0,001
829,8	-0,001
830,3	-0
830,7	0
831,1	-0
831,6	-0
832	-0
832,4	-0
832,8	-0
833,3	-0,001
833,7	-0,001
834,1	-0,001
834,6	-0,001
835	-0,001
835,4	-0,001
835,8	-0,001
836,3	-0,001
836,7	-0,001
837,1	-0,001
837,6	-0,001
838	-0,001
838,4	-0,001
838,9	-0,001
839,3	-0
839,7	-0
840,1	-0
840,6	0
841	0,001
841,4	0,001
841,9	0
842,3	0
842,7	-0
843,1	0
843,6	-0
844	-0
844,4	-0
844,9	-0
845,3	-0
845,7	0
846,2	-0
846,6	0
847	0
847,4	0
847,9	0,001
848,3	0,001
848,7	0,001
849,2	0,001
849,6	0,001
850	0,001
850,4	0,001
850,9	0,001
851,3	0
851,7	0
852,2	0,001
852,6	0,001
853	0,001
853,4	0
853,9	0,001
854,3	0,001
854,7	0,001
855,2	0,001
855,6	0,001
856	0,001
856,4	0,001
856,9	0,002
857,3	0,001
857,7	0,001
858,2	0
858,6	-0
859	-0,001
859,4	-0,001
859,9	-0,001
860,3	-0,001
860,7	-0,001
861,1	-0,001
861,6	-0
862	-0
862,4	-0
862,9	-0,001
863,3	-0
863,7	-0,001
864,1	-0,001
864,6	-0,001
865	-0
865,4	-0
865,9	-0
866,3	0
866,7	0
867,1	0
867,6	0
868	0,001
868,4	0,001
868,8	0,001
869,3	0
869,7	0
870,1	0
870,6	0
871	-0
871,4	-0,001
871,8	-0,001
872,3	-0,001
872,7	-0,001
873,1	-0,001
873,5	-0,002
874	-0,002
874,4	-0,002
874,8	-0,002
875,3	-0,002
875,7	-0,002
876,1	-0,001
876,5	-0,001
877	-0,001
877,4	-0,001
877,8	-0,001
878,2	-0,002
878,7	-0,001
879,1	-0,002
879,5	-0,001
879,9	-0,001
880,4	-0,001
880,8	-0,001
881,2	-0
881,7	-0
882,1	0
882,5	0
882,9	-0
883,4	0
883,8	-0
884,2	-0,001
884,6	-0,001
885,1	-0,001
885,5	-0,001
885,9	-0,001
886,3	-0,001
886,8	-0
887,2	-0
887,6	0
888	-0
888,5	0
888,9	0
889,3	-0
889,8	-0
890,2	0
890,6	0
891	0
891,5	0
891,9	0,001
892,3	0,001
892,7	0,001
893,2	0
893,6	0,001
894	0
894,4	0
894,9	0
895,3	0
895,7	0
896,1	-0
896,6	-0
897	-0
897,4	-0
897,8	-0,001
898,3	-0,001
898,7	-0,001
899,1	-0,001
899,5	-0,001
900	-0,001
900,4	-0,001
900,8	-0,001
901,2	-0,002
901,7	-0,001
902,1	-0,001
902,5	-0,001
902,9	-0,001
903,4	-0,002
903,8	-0,001
904,2	-0,001
904,6	-0,001
905,1	-0,001
905,5	-0
905,9	-0
906,3	-0
906,8	-0,001
907,2	-0,001
907,6	-0,001
908	-0,002
908,5	-0,003
908,9	-0,003
909,3	-0,003
909,7	-0,003
910,2	-0,003
910,6	-0,003
911	-0,002
911,4	-0,002
911,9	-0,002
912,3	-0,002
912,7	-0,002
913,1	-0,001
913,6	-0,001
914	-0,001
914,4	-0,002
914,8	-0,002
915,3	-0,002
915,7	-0,002
916,1	-0,002
916,5	-0,002
916,9	-0,002
917,4	-0,001
917,8	-0,001
918,2	-0
918,6	-0
919,1	0
919,5	0,001
919,9	0,001
920,3	0,002
920,8	0,001
921,2	0,001
921,6	0,001
922	0,001
922,5	-0
922,9	-0
923,3	-0
923,7	-0
924,2	-0
924,6	-0
925	-0
925,4	0
925,8	0
926,3	0
926,7	0
927,1	0
927,5	0,001
928	0
928,4	0
928,8	0
929,2	0,001
929,7	0
930,1	0,001
930,5	0
930,9	0,001
931,3	0
931,8	0,001
932,2	0
932,6	-0
933	-0,001
933,5	-0,001
933,9	-0,001
934,3	-0,001
934,7	-0
935,2	0
935,6	0
936	0
936,4	0,001
936,8	0,001
937,3	0,001
937,7	0,001
938,1	0
938,5	0
939	-0
939,4	-0
939,8	-0,001
940,2	-0,001
940,6	-0,001
941,1	-0,001
941,5	-0,001
941,9	-0,001
942,3	-0,002
942,8	-0,002
943,2	-0,002
943,6	-0,002
944	-0,001
944,4	-0,001
944,9	-0,001
945,3	-0,001
945,7	-0,001
946,1	-0,001
946,6	-0
947	-0,001
947,4	-0,001
947,8	-0,002
948,2	-0,003
948,7	-0,003
949,1	-0,003
949,5	-0,003
949,9	-0,004
950,3	-0,004
950,8	-0,003
951,2	-0,003
951,6	-0,002
952	-0,002
952,5	-0,002
952,9	-0,002
953,3	-0,001
953,7	-0,002
954,1	-0,002
954,6	-0,002
955	-0,002
955,4	-0,002
955,8	-0,001
956,2	-0,001
956,7	-0,001
957,1	-0
957,5	0
957,9	0,001
958,3	0
958,8	-0
959,2	-0
959,6	-0,001
960	-0,001
960,5	-0,001
960,9	-0,001
961,3	-0,001
961,7	-0,001
962,1	-0
962,6	-0,001
963	-0
963,4	-0,001
963,8	-0,001
964,2	-0,001
964,7	-0,002
965,1	-0,001
965,5	-0,001
965,9	-0,001
966,3	0
966,8	0,001
967,2	0,001
967,6	0,002
968	0,002
968,4	0,001
968,9	0,001
969,3	0
969,7	-0
970,1	-0
970,5	-0,001
971	-0,001
971,4	-0,001
971,8	-0,001
972,2	-0,001
972,6	-0,001
973,1	-0,001
973,5	-0,001
973,9	-0,001
974,3	-0,001
974,7	-0
975,2	0
975,6	0,001
976	0
976,4	0
976,8	-0
977,3	-0
977,7	-0,001
978,1	-0,001
978,5	-0,001
978,9	-0
979,4	-0
979,8	-0
980,2	-0
980,6	0
981	0
981,5	0,001
981,9	0,001
982,3	0,001
982,7	0,001
983,1	0,002
983,6	0,001
984	0
984,4	-0
984,8	-0
985,2	-0
985,6	-0,001
986,1	-0,001
986,5	-0,001
986,9	-0,001
987,3	-0,001
987,7	-0
988,2	-0,001
988,6	-0,001
989	-0,001
989,4	0
989,8	0
990,3	-0
990,7	-0,001
991,1	-0,001
991,5	-0,001
991,9	-0,001
992,3	-0,002
992,8	-0,001
993,2	-0,001
993,6	-0
994	-0
994,4	-0
994,9	-0
995,3	0
995,7	0
996,1	-0
996,5	-0
996,9	-0,001
997,4	-0,001
997,8	-0
998,2	-0
998,6	-0,001
999	0
999,5	0
999,9	0,001
1000,3	0,001
1000,7	0,001
1001,1	0,001
1001,5	0,001
1002	0
1002,4	0
1002,8	-0
1003,2	-0,001
1003,6	-0,001
1004	-0,002
1004,5	-0,002
1004,9	-0,002
1005,3	-0,001
1005,7	-0,001
1006,1	-0,001
1006,6	-0
1007	0
1007,4	0,001
1007,8	0,001
1008,2	-0
1008,6	0
1009,1	-0
1009,5	-0,001
1009,9	-0,002
1010,3	-0,002
1010,7	-0,002
1011,1	-0,002
1011,6	-0,002
1012	-0,002
1012,4	-0,002
1012,8	-0,002
1013,2	-0,002
1013,6	-0,002
1014,1	-0,001
1014,5	-0,001
1014,9	-0,001
1015,3	0
1015,7	-0
1016,1	-0
1016,6	-0,001
1017	-0
1017,4	-0,001
1017,8	-0,001
1018,2	-0,002
1018,6	-0,001
1019,1	-0,001
1019,5	-0,001
1019,9	-0,001
1020,3	-0,001
1020,7	-0,001
1021,1	-0
1021,6	-0
1022	-0
1022,4	-0
1022,8	0
1023,2	-0
1023,6	0
1024,1	0,001
1024,5	0,001
1024,9	0,001
1025,3	0,002
1025,7	0,003
1026,1	0,003
1026,6	0,003
1027	0,003
1027,4	0,003
1027,8	0,003
1028,2	0,003
1028,6	0,002
1029	0,003
1029,5	0,003
1029,9	0,003
1030,3	0,003
1030,7	0,003
1031,1	0,003
1031,5	0,003
1032	0,003
1032,4	0,003
1032,8	0,002
1033,2	0,002
1033,6	0,002
1034	0,002
1034,4	0,001
1034,9	0,001
1035,3	0,001
1035,7	0,001
1036,1	0,001
1036,5	0
1036,9	-0
1037,4	0
1037,8	0,001
1038,2	0,001
1038,6	-0
1039	0
1039,4	0
1039,8	0,001
1040,3	0,001
1040,7	0
1041,1	0
1041,5	0
1041,9	-0
1042,3	-0,001
1042,7	-0,002
1043,2	-0,002
1043,6	-0,002
1044	-0,003
1044,4	-0,002
1044,8	-0,002
1045,2	-0,001
1045,6	-0
1046,1	0
1046,5	0,001
1046,9	0,001
1047,3	0,001
1047,7	0
1048,1	-0
1048,5	-0,001
1049	-0,001
1049,4	-0,001
1049,8	-0
1050,2	-0,001
1050,6	-0,001
1051	-0,002
1051,4	-0,002
1051,9	-0,002
1052,3	-0,001
1052,7	-0,002
1053,1	-0,002
1053,5	-0,001
1053,9	-0,001
1054,3	-0,001
1054,8	-0,001
1055,2	-0,002
1055,6	-0,002
1056	-0,002
1056,4	-0,002
1056,8	-0,001
1057,2	-0,001
1057,6	-0,001
1058,1	-0,002
1058,5	-0,003
1058,9	-0,004
1059,3	-0,003
1059,7	-0,003
1060,1	-0,003
1060,5	-0,003
1061	-0,003
1061,4	-0,002
1061,8	-0,002
1062,2	-0,002
1062,6	-0,003
1063	-0,002
1063,4	-0,002
1063,8	-0,002
1064,3	-0,001
1064,7	-0,002
1065,1	-0,002
1065,5	-0,002
1065,9	-0,003
1066,3	-0,002
1066,7	-0,002
1067,1	-0,003
1067,6	-0,003
1068	-0,002
1068,4	-0,001
1068,8	-0,001
1069,2	-0,002
1069,6	-0,001
1070	-0,001
1070,4	-0,002
1070,9	-0,002
1071,3	-0,002
1071,7	-0,002
1072,1	-0,001
1072,5	-0,001
1072,9	-0,001
1073,3	-0,001
1073,7	-0
1074,2	-0,002
1074,6	-0,001
1075	-0,002
1075,4	-0,002
1075,8	-0,001
1076,2	-0,001
1076,6	-0,001
1077	-0,001
1077,5	-0,002
1077,9	-0,001
1078,3	-0,002
1078,7	-0,002
1079,1	-0,002
1079,5	-0,001
1079,9	-0
1080,3	-0,001
1080,7	-0,002
1081,2	-0
1081,6	-0,001
1082	-0,002
1082,4	-0,004
1082,8	-0,006
1083,2	-0,006
1083,6	-0,005
1084	-0,006
1084,5	-0,004
1084,9	-0,004
1085,3	-0,002
1085,7	0
1086,1	0,002
1086,5	0,003
1086,9	0,002
1087,3	0,002
1087,7	0,002
1088,2	0,003
1088,6	0
1089	0,002
1089,4	0
1089,8	-0,001
1090,2	-0,003
1090,6	-0,003
1091	-0,003
1091,4	-0,001
1091,9	-0,004
1092,3	-0,005
1092,7	-0,002
1093,1	-0,003
1093,5	-0,006
1093,9	-0,005
1094,3	-0,004
1094,7	-0,001
1095,1	0,003
1095,5	0,003
1096	0,005
1096,4	0,005
1096,8	0,004
1097,2	0,001
1097,6	-0,006
1098	-0,011
1098,4	-0,01
1098,8	-0,009
1099,2	-0,005
1099,6	-0,006
1100,1	-0,006
1100,5	-0,004
1100,9	-0,003
1101,3	-0,005
1101,7	-0,001
1102,1	-0,012
1102,5	-0,015
1102,9	-0,005
1103,3	-0,002
1103,7	-0,001
1104,2	-0,007
1104,6	-0,005
1105	-0,005
1105,4	0,007
1105,8	-0,002
1106,2	0,001
1106,6	0,009
1107	0,004
1107,4	-0,013
1107,8	0,029
1108,3	-0
