Data from Absorbance_00098.txt Node
Date: Fri Aug 11 14:00:53 MSK 2023
User: vat
Spectrometer: MAYP114033
Trigger mode: 0
Integration Time (sec): 8,000000E-3
Scans to average: 10
Electric dark correction enabled: true
Nonlinearity correction enabled: false
Boxcar width: 3
XAxis mode: Wavelengths
Number of Pixels in Spectrum: 2068
>>>>>Begin Spectral Data<<<<<
199,4	-0
199,9	-0,056
200,4	0,134
200,8	0,227
201,3	0,257
201,8	0,275
202,2	0,277
202,7	0,283
203,2	0,289
203,6	0,287
204,1	0,283
204,6	0,282
205	0,28
205,5	0,274
206	0,27
206,4	0,265
206,9	0,264
207,4	0,264
207,8	0,262
208,3	0,257
208,8	0,254
209,2	0,249
209,7	0,247
210,2	0,246
210,6	0,243
211,1	0,239
211,5	0,238
212	0,238
212,5	0,238
212,9	0,237
213,4	0,233
213,9	0,23
214,3	0,23
214,8	0,227
215,3	0,226
215,7	0,224
216,2	0,219
216,7	0,217
217,1	0,216
217,6	0,213
218,1	0,21
218,5	0,205
219	0,2
219,5	0,195
219,9	0,19
220,4	0,185
220,9	0,18
221,3	0,176
221,8	0,171
222,3	0,166
222,7	0,161
223,2	0,156
223,6	0,151
224,1	0,146
224,6	0,142
225	0,137
225,5	0,134
226	0,129
226,4	0,125
226,9	0,12
227,4	0,115
227,8	0,111
228,3	0,108
228,8	0,104
229,2	0,101
229,7	0,098
230,2	0,096
230,6	0,094
231,1	0,091
231,5	0,089
232	0,087
232,5	0,086
232,9	0,084
233,4	0,082
233,9	0,079
234,3	0,079
234,8	0,077
235,3	0,076
235,7	0,075
236,2	0,074
236,7	0,074
237,1	0,072
237,6	0,071
238,1	0,069
238,5	0,068
239	0,067
239,4	0,066
239,9	0,065
240,4	0,065
240,8	0,065
241,3	0,065
241,8	0,065
242,2	0,064
242,7	0,065
243,2	0,065
243,6	0,065
244,1	0,065
244,6	0,065
245	0,064
245,5	0,065
245,9	0,066
246,4	0,065
246,9	0,065
247,3	0,065
247,8	0,065
248,3	0,065
248,7	0,064
249,2	0,064
249,7	0,065
250,1	0,066
250,6	0,066
251	0,066
251,5	0,067
252	0,067
252,4	0,067
252,9	0,067
253,4	0,067
253,8	0,068
254,3	0,069
254,8	0,071
255,2	0,071
255,7	0,072
256,1	0,073
256,6	0,074
257,1	0,074
257,5	0,075
258	0,075
258,5	0,076
258,9	0,078
259,4	0,079
259,9	0,081
260,3	0,081
260,8	0,082
261,2	0,083
261,7	0,084
262,2	0,085
262,6	0,086
263,1	0,087
263,6	0,088
264	0,089
264,5	0,089
264,9	0,089
265,4	0,09
265,9	0,091
266,3	0,091
266,8	0,093
267,3	0,093
267,7	0,093
268,2	0,094
268,7	0,095
269,1	0,096
269,6	0,096
270	0,097
270,5	0,098
271	0,098
271,4	0,099
271,9	0,1
272,4	0,1
272,8	0,1
273,3	0,1
273,7	0,101
274,2	0,101
274,7	0,101
275,1	0,101
275,6	0,102
276,1	0,103
276,5	0,103
277	0,104
277,4	0,104
277,9	0,104
278,4	0,105
278,8	0,106
279,3	0,107
279,8	0,107
280,2	0,108
280,7	0,109
281,1	0,109
281,6	0,109
282,1	0,109
282,5	0,109
283	0,11
283,4	0,11
283,9	0,11
284,4	0,111
284,8	0,112
285,3	0,112
285,8	0,112
286,2	0,112
286,7	0,112
287,1	0,113
287,6	0,113
288,1	0,114
288,5	0,114
289	0,115
289,5	0,116
289,9	0,115
290,4	0,116
290,8	0,116
291,3	0,116
291,8	0,117
292,2	0,117
292,7	0,117
293,1	0,118
293,6	0,117
294,1	0,118
294,5	0,117
295	0,116
295,5	0,117
295,9	0,117
296,4	0,117
296,8	0,117
297,3	0,118
297,8	0,118
298,2	0,117
298,7	0,117
299,1	0,117
299,6	0,117
300,1	0,117
300,5	0,117
301	0,116
301,5	0,117
301,9	0,117
302,4	0,117
302,8	0,116
303,3	0,117
303,8	0,117
304,2	0,116
304,7	0,116
305,1	0,116
305,6	0,115
306,1	0,115
306,5	0,114
307	0,113
307,4	0,113
307,9	0,112
308,4	0,112
308,8	0,112
309,3	0,112
309,8	0,111
310,2	0,111
310,7	0,11
311,1	0,11
311,6	0,109
312,1	0,108
312,5	0,107
313	0,107
313,4	0,106
313,9	0,106
314,4	0,105
314,8	0,105
315,3	0,104
315,7	0,104
316,2	0,102
316,7	0,101
317,1	0,1
317,6	0,098
318	0,097
318,5	0,096
319	0,095
319,4	0,095
319,9	0,095
320,3	0,094
320,8	0,093
321,3	0,092
321,7	0,091
322,2	0,089
322,6	0,088
323,1	0,087
323,6	0,086
324	0,085
324,5	0,084
324,9	0,083
325,4	0,083
325,9	0,082
326,3	0,081
326,8	0,079
327,2	0,079
327,7	0,077
328,2	0,076
328,6	0,074
329,1	0,073
329,5	0,072
330	0,072
330,5	0,07
330,9	0,069
331,4	0,069
331,8	0,068
332,3	0,066
332,8	0,065
333,2	0,064
333,7	0,063
334,1	0,062
334,6	0,061
335,1	0,06
335,5	0,059
336	0,057
336,4	0,057
336,9	0,055
337,4	0,054
337,8	0,052
338,3	0,052
338,7	0,052
339,2	0,05
339,7	0,049
340,1	0,047
340,6	0,046
341	0,046
341,5	0,044
342	0,042
342,4	0,041
342,9	0,041
343,3	0,04
343,8	0,04
344,2	0,039
344,7	0,039
345,2	0,038
345,6	0,038
346,1	0,037
346,5	0,036
347	0,036
347,5	0,035
347,9	0,034
348,4	0,033
348,8	0,032
349,3	0,031
349,8	0,031
350,2	0,029
350,7	0,029
351,1	0,028
351,6	0,028
352	0,027
352,5	0,026
353	0,026
353,4	0,025
353,9	0,025
354,3	0,024
354,8	0,024
355,3	0,024
355,7	0,023
356,2	0,023
356,6	0,023
357,1	0,022
357,5	0,022
358	0,021
358,5	0,02
358,9	0,02
359,4	0,019
359,8	0,019
360,3	0,019
360,8	0,019
361,2	0,019
361,7	0,019
362,1	0,019
362,6	0,018
363	0,017
363,5	0,017
364	0,017
364,4	0,017
364,9	0,017
365,3	0,017
365,8	0,017
366,3	0,017
366,7	0,016
367,2	0,015
367,6	0,015
368,1	0,014
368,5	0,014
369	0,013
369,5	0,013
369,9	0,013
370,4	0,013
370,8	0,013
371,3	0,012
371,7	0,012
372,2	0,012
372,7	0,012
373,1	0,012
373,6	0,012
374	0,012
374,5	0,011
374,9	0,011
375,4	0,011
375,9	0,011
376,3	0,011
376,8	0,011
377,2	0,011
377,7	0,011
378,2	0,011
378,6	0,011
379,1	0,01
379,5	0,009
380	0,009
380,4	0,009
380,9	0,009
381,4	0,009
381,8	0,01
382,3	0,01
382,7	0,011
383,2	0,011
383,6	0,01
384,1	0,01
384,6	0,011
385	0,01
385,5	0,01
385,9	0,009
386,4	0,009
386,8	0,01
387,3	0,01
387,7	0,009
388,2	0,009
388,7	0,009
389,1	0,01
389,6	0,01
390	0,009
390,5	0,009
390,9	0,009
391,4	0,009
391,9	0,009
392,3	0,009
392,8	0,009
393,2	0,009
393,7	0,009
394,1	0,009
394,6	0,009
395,1	0,009
395,5	0,009
396	0,009
396,4	0,009
396,9	0,009
397,3	0,009
397,8	0,008
398,2	0,009
398,7	0,009
399,2	0,008
399,6	0,008
400,1	0,008
400,5	0,009
401	0,009
401,4	0,008
401,9	0,008
402,4	0,008
402,8	0,009
403,3	0,008
403,7	0,008
404,2	0,009
404,6	0,01
405,1	0,01
405,5	0,01
406	0,01
406,5	0,01
406,9	0,01
407,4	0,009
407,8	0,008
408,3	0,008
408,7	0,007
409,2	0,007
409,6	0,007
410,1	0,008
410,6	0,009
411	0,009
411,5	0,009
411,9	0,008
412,4	0,008
412,8	0,008
413,3	0,008
413,7	0,008
414,2	0,008
414,7	0,008
415,1	0,008
415,6	0,008
416	0,008
416,5	0,008
416,9	0,008
417,4	0,009
417,8	0,008
418,3	0,008
418,8	0,008
419,2	0,008
419,7	0,008
420,1	0,008
420,6	0,008
421	0,009
421,5	0,008
421,9	0,008
422,4	0,008
422,8	0,009
423,3	0,008
423,8	0,008
424,2	0,008
424,7	0,008
425,1	0,008
425,6	0,008
426	0,007
426,5	0,008
426,9	0,007
427,4	0,007
427,9	0,008
428,3	0,008
428,8	0,008
429,2	0,008
429,7	0,009
430,1	0,008
430,6	0,008
431	0,007
431,5	0,007
431,9	0,007
432,4	0,007
432,8	0,006
433,3	0,007
433,8	0,007
434,2	0,008
434,7	0,008
435,1	0,008
435,6	0,008
436	0,008
436,5	0,009
436,9	0,008
437,4	0,008
437,8	0,009
438,3	0,009
438,8	0,008
439,2	0,008
439,7	0,007
440,1	0,007
440,6	0,006
441	0,006
441,5	0,006
441,9	0,006
442,4	0,007
442,8	0,007
443,3	0,007
443,7	0,008
444,2	0,008
444,7	0,008
445,1	0,008
445,6	0,007
446	0,007
446,5	0,007
446,9	0,007
447,4	0,007
447,8	0,007
448,3	0,007
448,7	0,007
449,2	0,007
449,6	0,007
450,1	0,007
450,6	0,006
451	0,006
451,5	0,006
451,9	0,005
452,4	0,006
452,8	0,005
453,3	0,004
453,7	0,005
454,2	0,005
454,6	0,005
455,1	0,005
455,5	0,006
456	0,006
456,4	0,006
456,9	0,006
457,3	0,007
457,8	0,006
458,3	0,006
458,7	0,006
459,2	0,006
459,6	0,006
460,1	0,006
460,5	0,006
461	0,006
461,4	0,007
461,9	0,007
462,3	0,007
462,8	0,006
463,2	0,006
463,7	0,006
464,1	0,005
464,6	0,005
465	0,005
465,5	0,005
466	0,006
466,4	0,006
466,9	0,006
467,3	0,006
467,8	0,005
468,2	0,006
468,7	0,005
469,1	0,005
469,6	0,005
470	0,005
470,5	0,005
470,9	0,006
471,4	0,006
471,8	0,006
472,3	0,006
472,7	0,006
473,2	0,006
473,6	0,006
474,1	0,005
474,5	0,005
475	0,005
475,4	0,005
475,9	0,005
476,4	0,005
476,8	0,005
477,3	0,005
477,7	0,004
478,2	0,004
478,6	0,004
479,1	0,005
479,5	0,006
480	0,007
480,4	0,007
480,9	0,007
481,3	0,007
481,8	0,006
482,2	0,005
482,7	0,005
483,1	0,004
483,6	0,004
484	0,004
484,5	0,003
484,9	0,003
485,4	0,003
485,8	0,005
486,3	0,005
486,7	0,005
487,2	0,005
487,6	0,005
488,1	0,006
488,5	0,006
489	0,004
489,4	0,004
489,9	0,006
490,4	0,006
490,8	0,006
491,3	0,005
491,7	0,005
492,2	0,005
492,6	0,005
493,1	0,005
493,5	0,006
494	0,006
494,4	0,006
494,9	0,006
495,3	0,007
495,8	0,007
496,2	0,007
496,7	0,006
497,1	0,006
497,6	0,005
498	0,006
498,5	0,005
498,9	0,005
499,4	0,004
499,8	0,004
500,3	0,004
500,7	0,004
501,2	0,003
501,6	0,003
502,1	0,004
502,5	0,004
503	0,004
503,4	0,005
503,9	0,005
504,3	0,005
504,8	0,005
505,2	0,006
505,7	0,006
506,1	0,006
506,6	0,006
507	0,006
507,5	0,005
507,9	0,005
508,4	0,005
508,8	0,005
509,3	0,005
509,7	0,005
510,2	0,005
510,6	0,006
511,1	0,005
511,5	0,005
512	0,005
512,4	0,005
512,9	0,005
513,3	0,004
513,8	0,005
514,2	0,004
514,7	0,005
515,1	0,005
515,6	0,006
516	0,005
516,5	0,006
516,9	0,006
517,4	0,006
517,8	0,005
518,3	0,005
518,7	0,004
519,2	0,005
519,6	0,004
520,1	0,004
520,5	0,004
521	0,005
521,4	0,005
521,9	0,005
522,3	0,006
522,8	0,006
523,2	0,006
523,7	0,006
524,1	0,006
524,6	0,006
525	0,006
525,5	0,006
525,9	0,005
526,4	0,006
526,8	0,006
527,3	0,006
527,7	0,006
528,2	0,006
528,6	0,006
529,1	0,006
529,5	0,006
530	0,006
530,4	0,006
530,9	0,006
531,3	0,007
531,8	0,006
532,2	0,007
532,6	0,007
533,1	0,007
533,5	0,006
534	0,006
534,4	0,006
534,9	0,006
535,3	0,005
535,8	0,005
536,2	0,005
536,7	0,004
537,1	0,004
537,6	0,004
538	0,005
538,5	0,005
538,9	0,005
539,4	0,005
539,8	0,006
540,3	0,006
540,7	0,006
541,2	0,006
541,6	0,007
542,1	0,006
542,5	0,006
543	0,006
543,4	0,005
543,9	0,005
544,3	0,005
544,8	0,004
545,2	0,004
545,7	0,004
546,1	0,004
546,5	0,004
547	0,005
547,4	0,005
547,9	0,005
548,3	0,005
548,8	0,005
549,2	0,005
549,7	0,005
550,1	0,005
550,6	0,005
551	0,006
551,5	0,006
551,9	0,006
552,4	0,006
552,8	0,006
553,3	0,006
553,7	0,006
554,2	0,006
554,6	0,006
555,1	0,006
555,5	0,006
555,9	0,005
556,4	0,005
556,8	0,005
557,3	0,005
557,7	0,005
558,2	0,006
558,6	0,005
559,1	0,005
559,5	0,005
560	0,006
560,4	0,005
560,9	0,005
561,3	0,005
561,8	0,006
562,2	0,006
562,7	0,006
563,1	0,006
563,6	0,006
564	0,006
564,4	0,006
564,9	0,005
565,3	0,006
565,8	0,006
566,2	0,006
566,7	0,006
567,1	0,006
567,6	0,006
568	0,006
568,5	0,005
568,9	0,005
569,4	0,005
569,8	0,005
570,3	0,005
570,7	0,005
571,1	0,005
571,6	0,006
572	0,006
572,5	0,006
572,9	0,006
573,4	0,006
573,8	0,005
574,3	0,005
574,7	0,005
575,2	0,005
575,6	0,005
576,1	0,005
576,5	0,005
576,9	0,005
577,4	0,005
577,8	0,005
578,3	0,005
578,7	0,005
579,2	0,006
579,6	0,006
580,1	0,006
580,5	0,005
581	0,006
581,4	0,006
581,9	0,006
582,3	0,005
582,7	0,005
583,2	0,005
583,6	0,006
584,1	0,006
584,5	0,006
585	0,006
585,4	0,006
585,9	0,006
586,3	0,005
586,8	0,006
587,2	0,005
587,6	0,006
588,1	0,006
588,5	0,006
589	0,006
589,4	0,006
589,9	0,006
590,3	0,006
590,8	0,006
591,2	0,006
591,7	0,006
592,1	0,006
592,5	0,006
593	0,006
593,4	0,005
593,9	0,006
594,3	0,005
594,8	0,006
595,2	0,005
595,7	0,005
596,1	0,005
596,6	0,006
597	0,005
597,4	0,005
597,9	0,005
598,3	0,005
598,8	0,005
599,2	0,005
599,7	0,005
600,1	0,004
600,6	0,004
601	0,004
601,4	0,004
601,9	0,003
602,3	0,004
602,8	0,004
603,2	0,004
603,7	0,004
604,1	0,004
604,6	0,004
605	0,005
605,4	0,005
605,9	0,005
606,3	0,006
606,8	0,006
607,2	0,006
607,7	0,006
608,1	0,006
608,6	0,005
609	0,005
609,4	0,006
609,9	0,005
610,3	0,005
610,8	0,005
611,2	0,005
611,7	0,005
612,1	0,005
612,6	0,005
613	0,005
613,4	0,006
613,9	0,006
614,3	0,006
614,8	0,006
615,2	0,006
615,7	0,006
616,1	0,006
616,6	0,005
617	0,005
617,4	0,005
617,9	0,005
618,3	0,005
618,8	0,006
619,2	0,006
619,7	0,006
620,1	0,006
620,5	0,006
621	0,006
621,4	0,006
621,9	0,006
622,3	0,006
622,8	0,006
623,2	0,006
623,6	0,006
624,1	0,006
624,5	0,006
625	0,006
625,4	0,006
625,9	0,006
626,3	0,006
626,8	0,006
627,2	0,006
627,6	0,006
628,1	0,006
628,5	0,006
629	0,006
629,4	0,006
629,9	0,006
630,3	0,006
630,7	0,006
631,2	0,006
631,6	0,006
632,1	0,006
632,5	0,005
633	0,005
633,4	0,006
633,8	0,005
634,3	0,005
634,7	0,005
635,2	0,006
635,6	0,006
636,1	0,006
636,5	0,006
636,9	0,006
637,4	0,005
637,8	0,005
638,3	0,005
638,7	0,005
639,2	0,005
639,6	0,005
640	0,005
640,5	0,005
640,9	0,005
641,4	0,005
641,8	0,006
642,2	0,005
642,7	0,006
643,1	0,006
643,6	0,006
644	0,005
644,5	0,006
644,9	0,005
645,3	0,006
645,8	0,006
646,2	0,006
646,7	0,006
647,1	0,006
647,6	0,006
648	0,007
648,4	0,006
648,9	0,006
649,3	0,006
649,8	0,006
650,2	0,006
650,6	0,005
651,1	0,005
651,5	0,005
652	0,004
652,4	0,004
652,9	0,004
653,3	0,004
653,7	0,004
654,2	0,004
654,6	0,004
655,1	0,004
655,5	0,002
655,9	0,002
656,4	0,001
656,8	0,003
657,3	0,004
657,7	0,004
658,2	0,005
658,6	0,007
659	0,009
659,5	0,015
659,9	0,015
660,4	0,013
660,8	0,011
661,2	0,009
661,7	0,008
662,1	0,007
662,6	0,006
663	0,006
663,4	0,005
663,9	0,005
664,3	0,004
664,8	0,004
665,2	0,004
665,6	0,005
666,1	0,005
666,5	0,005
667	0,005
667,4	0,006
667,9	0,006
668,3	0,006
668,7	0,006
669,2	0,006
669,6	0,006
670,1	0,006
670,5	0,005
670,9	0,005
671,4	0,005
671,8	0,005
672,3	0,005
672,7	0,004
673,1	0,004
673,6	0,004
674	0,004
674,5	0,004
674,9	0,004
675,3	0,004
675,8	0,004
676,2	0,005
676,7	0,005
677,1	0,005
677,5	0,005
678	0,005
678,4	0,005
678,9	0,005
679,3	0,005
679,7	0,005
680,2	0,005
680,6	0,005
681,1	0,005
681,5	0,005
681,9	0,005
682,4	0,005
682,8	0,004
683,3	0,005
683,7	0,005
684,1	0,005
684,6	0,005
685	0,004
685,5	0,004
685,9	0,005
686,3	0,005
686,8	0,005
687,2	0,005
687,7	0,006
688,1	0,006
688,5	0,006
689	0,006
689,4	0,006
689,9	0,005
690,3	0,005
690,7	0,005
691,2	0,005
691,6	0,005
692	0,005
692,5	0,005
692,9	0,005
693,4	0,005
693,8	0,005
694,2	0,005
694,7	0,005
695,1	0,005
695,6	0,005
696	0,006
696,4	0,006
696,9	0,006
697,3	0,006
697,8	0,005
698,2	0,005
698,6	0,005
699,1	0,005
699,5	0,005
699,9	0,005
700,4	0,005
700,8	0,006
701,3	0,006
701,7	0,006
702,1	0,006
702,6	0,006
703	0,006
703,5	0,006
703,9	0,006
704,3	0,006
704,8	0,006
705,2	0,006
705,6	0,006
706,1	0,006
706,5	0,005
707	0,005
707,4	0,004
707,8	0,005
708,3	0,005
708,7	0,005
709,2	0,005
709,6	0,005
710	0,005
710,5	0,005
710,9	0,005
711,3	0,005
711,8	0,005
712,2	0,005
712,7	0,005
713,1	0,004
713,5	0,004
714	0,004
714,4	0,004
714,8	0,004
715,3	0,004
715,7	0,004
716,2	0,004
716,6	0,005
717	0,005
717,5	0,005
717,9	0,005
718,3	0,005
718,8	0,005
719,2	0,005
719,7	0,005
720,1	0,005
720,5	0,005
721	0,006
721,4	0,006
721,8	0,006
722,3	0,005
722,7	0,005
723,2	0,005
723,6	0,005
724	0,004
724,5	0,004
724,9	0,004
725,3	0,005
725,8	0,005
726,2	0,005
726,7	0,005
727,1	0,005
727,5	0,005
728	0,005
728,4	0,005
728,8	0,004
729,3	0,004
729,7	0,004
730,1	0,004
730,6	0,004
731	0,004
731,5	0,004
731,9	0,004
732,3	0,004
732,8	0,004
733,2	0,004
733,6	0,005
734,1	0,005
734,5	0,005
734,9	0,005
735,4	0,005
735,8	0,005
736,3	0,005
736,7	0,005
737,1	0,005
737,6	0,005
738	0,005
738,4	0,005
738,9	0,005
739,3	0,004
739,7	0,004
740,2	0,004
740,6	0,004
741,1	0,004
741,5	0,004
741,9	0,004
742,4	0,004
742,8	0,004
743,2	0,005
743,7	0,005
744,1	0,005
744,5	0,006
745	0,006
745,4	0,005
745,8	0,005
746,3	0,005
746,7	0,005
747,2	0,005
747,6	0,004
748	0,004
748,5	0,004
748,9	0,005
749,3	0,005
749,8	0,005
750,2	0,005
750,6	0,005
751,1	0,005
751,5	0,005
751,9	0,005
752,4	0,005
752,8	0,005
753,3	0,005
753,7	0,006
754,1	0,006
754,6	0,006
755	0,006
755,4	0,006
755,9	0,006
756,3	0,006
756,7	0,006
757,2	0,006
757,6	0,006
758	0,006
758,5	0,005
758,9	0,006
759,3	0,006
759,8	0,006
760,2	0,006
760,6	0,006
761,1	0,006
761,5	0,006
761,9	0,007
762,4	0,007
762,8	0,007
763,3	0,007
763,7	0,007
764,1	0,007
764,6	0,007
765	0,007
765,4	0,007
765,9	0,007
766,3	0,007
766,7	0,007
767,2	0,008
767,6	0,008
768	0,008
768,5	0,008
768,9	0,008
769,3	0,008
769,8	0,008
770,2	0,007
770,6	0,007
771,1	0,006
771,5	0,006
771,9	0,006
772,4	0,006
772,8	0,006
773,2	0,006
773,7	0,006
774,1	0,007
774,5	0,007
775	0,007
775,4	0,006
775,8	0,007
776,3	0,007
776,7	0,006
777,1	0,006
777,6	0,006
778	0,006
778,4	0,006
778,9	0,006
779,3	0,006
779,7	0,006
780,2	0,006
780,6	0,006
781	0,006
781,5	0,007
781,9	0,007
782,3	0,007
782,8	0,007
783,2	0,007
783,6	0,007
784,1	0,007
784,5	0,007
784,9	0,007
785,4	0,007
785,8	0,006
786,2	0,006
786,7	0,006
787,1	0,006
787,5	0,006
788	0,006
788,4	0,006
788,8	0,006
789,3	0,006
789,7	0,006
790,1	0,005
790,6	0,005
791	0,005
791,4	0,005
791,9	0,006
792,3	0,006
792,7	0,006
793,2	0,006
793,6	0,006
794	0,006
794,5	0,006
794,9	0,006
795,3	0,006
795,8	0,006
796,2	0,007
796,6	0,006
797,1	0,007
797,5	0,007
797,9	0,007
798,4	0,007
798,8	0,007
799,2	0,007
799,7	0,007
800,1	0,006
800,5	0,006
801	0,006
801,4	0,005
801,8	0,006
802,2	0,006
802,7	0,006
803,1	0,006
803,5	0,006
804	0,006
804,4	0,007
804,8	0,006
805,3	0,006
805,7	0,006
806,1	0,006
806,6	0,006
807	0,006
807,4	0,006
807,9	0,006
808,3	0,006
808,7	0,006
809,2	0,006
809,6	0,006
810	0,006
810,4	0,006
810,9	0,005
811,3	0,005
811,7	0,005
812,2	0,006
812,6	0,006
813	0,005
813,5	0,005
813,9	0,005
814,3	0,005
814,8	0,005
815,2	0,004
815,6	0,004
816,1	0,004
816,5	0,004
816,9	0,004
817,3	0,005
817,8	0,004
818,2	0,004
818,6	0,004
819,1	0,005
819,5	0,005
819,9	0,005
820,4	0,004
820,8	0,004
821,2	0,004
821,7	0,004
822,1	0,004
822,5	0,004
822,9	0,004
823,4	0,004
823,8	0,004
824,2	0,004
824,7	0,005
825,1	0,005
825,5	0,005
826	0,006
826,4	0,006
826,8	0,006
827,3	0,006
827,7	0,006
828,1	0,006
828,5	0,007
829	0,006
829,4	0,007
829,8	0,006
830,3	0,007
830,7	0,007
831,1	0,007
831,6	0,007
832	0,006
832,4	0,006
832,8	0,006
833,3	0,006
833,7	0,006
834,1	0,006
834,6	0,005
835	0,005
835,4	0,005
835,8	0,005
836,3	0,005
836,7	0,004
837,1	0,004
837,6	0,004
838	0,004
838,4	0,004
838,9	0,003
839,3	0,004
839,7	0,004
840,1	0,004
840,6	0,005
841	0,005
841,4	0,005
841,9	0,006
842,3	0,005
842,7	0,005
843,1	0,005
843,6	0,005
844	0,005
844,4	0,005
844,9	0,005
845,3	0,005
845,7	0,005
846,2	0,005
846,6	0,005
847	0,005
847,4	0,005
847,9	0,005
848,3	0,005
848,7	0,005
849,2	0,005
849,6	0,005
850	0,005
850,4	0,005
850,9	0,005
851,3	0,005
851,7	0,005
852,2	0,006
852,6	0,006
853	0,007
853,4	0,007
853,9	0,007
854,3	0,007
854,7	0,007
855,2	0,007
855,6	0,007
856	0,007
856,4	0,006
856,9	0,007
857,3	0,007
857,7	0,006
858,2	0,006
858,6	0,006
859	0,006
859,4	0,006
859,9	0,006
860,3	0,006
860,7	0,006
861,1	0,005
861,6	0,005
862	0,005
862,4	0,005
862,9	0,005
863,3	0,005
863,7	0,005
864,1	0,005
864,6	0,005
865	0,005
865,4	0,005
865,9	0,005
866,3	0,005
866,7	0,005
867,1	0,005
867,6	0,005
868	0,006
868,4	0,005
868,8	0,005
869,3	0,005
869,7	0,005
870,1	0,005
870,6	0,005
871	0,005
871,4	0,005
871,8	0,005
872,3	0,005
872,7	0,004
873,1	0,004
873,5	0,003
874	0,004
874,4	0,003
874,8	0,004
875,3	0,003
875,7	0,003
876,1	0,004
876,5	0,004
877	0,004
877,4	0,004
877,8	0,004
878,2	0,004
878,7	0,004
879,1	0,004
879,5	0,004
879,9	0,004
880,4	0,005
880,8	0,005
881,2	0,005
881,7	0,005
882,1	0,006
882,5	0,006
882,9	0,005
883,4	0,006
883,8	0,006
884,2	0,005
884,6	0,005
885,1	0,005
885,5	0,005
885,9	0,005
886,3	0,005
886,8	0,005
887,2	0,005
887,6	0,005
888	0,005
888,5	0,005
888,9	0,005
889,3	0,005
889,8	0,005
890,2	0,005
890,6	0,005
891	0,005
891,5	0,005
891,9	0,005
892,3	0,005
892,7	0,005
893,2	0,005
893,6	0,005
894	0,005
894,4	0,005
894,9	0,005
895,3	0,005
895,7	0,005
896,1	0,004
896,6	0,005
897	0,005
897,4	0,004
897,8	0,004
898,3	0,004
898,7	0,004
899,1	0,004
899,5	0,004
900	0,004
900,4	0,004
900,8	0,005
901,2	0,005
901,7	0,005
902,1	0,005
902,5	0,005
902,9	0,004
903,4	0,004
903,8	0,004
904,2	0,004
904,6	0,004
905,1	0,004
905,5	0,004
905,9	0,004
906,3	0,004
906,8	0,003
907,2	0,003
907,6	0,003
908	0,003
908,5	0,002
908,9	0,002
909,3	0,002
909,7	0,002
910,2	0,002
910,6	0,002
911	0,003
911,4	0,003
911,9	0,003
912,3	0,004
912,7	0,004
913,1	0,004
913,6	0,004
914	0,004
914,4	0,004
914,8	0,004
915,3	0,004
915,7	0,003
916,1	0,003
916,5	0,004
916,9	0,003
917,4	0,004
917,8	0,004
918,2	0,004
918,6	0,005
919,1	0,005
919,5	0,006
919,9	0,006
920,3	0,006
920,8	0,006
921,2	0,006
921,6	0,006
922	0,006
922,5	0,005
922,9	0,005
923,3	0,005
923,7	0,005
924,2	0,005
924,6	0,005
925	0,004
925,4	0,005
925,8	0,005
926,3	0,005
926,7	0,005
927,1	0,005
927,5	0,005
928	0,005
928,4	0,005
928,8	0,004
929,2	0,005
929,7	0,004
930,1	0,004
930,5	0,004
930,9	0,004
931,3	0,004
931,8	0,005
932,2	0,004
932,6	0,005
933	0,004
933,5	0,005
933,9	0,004
934,3	0,004
934,7	0,005
935,2	0,005
935,6	0,005
936	0,005
936,4	0,005
936,8	0,006
937,3	0,006
937,7	0,006
938,1	0,006
938,5	0,006
939	0,006
939,4	0,006
939,8	0,006
940,2	0,006
940,6	0,006
941,1	0,005
941,5	0,005
941,9	0,005
942,3	0,005
942,8	0,005
943,2	0,005
943,6	0,005
944	0,006
944,4	0,005
944,9	0,006
945,3	0,006
945,7	0,006
946,1	0,006
946,6	0,006
947	0,005
947,4	0,005
947,8	0,005
948,2	0,004
948,7	0,005
949,1	0,005
949,5	0,005
949,9	0,005
950,3	0,005
950,8	0,004
951,2	0,004
951,6	0,004
952	0,004
952,5	0,005
952,9	0,004
953,3	0,005
953,7	0,005
954,1	0,006
954,6	0,006
955	0,006
955,4	0,006
955,8	0,007
956,2	0,007
956,7	0,007
957,1	0,007
957,5	0,007
957,9	0,007
958,3	0,006
958,8	0,006
959,2	0,006
959,6	0,005
960	0,004
960,5	0,004
960,9	0,004
961,3	0,005
961,7	0,005
962,1	0,006
962,6	0,005
963	0,006
963,4	0,006
963,8	0,006
964,2	0,006
964,7	0,006
965,1	0,006
965,5	0,007
965,9	0,007
966,3	0,008
966,8	0,008
967,2	0,008
967,6	0,008
968	0,008
968,4	0,008
968,9	0,007
969,3	0,006
969,7	0,006
970,1	0,005
970,5	0,005
971	0,006
971,4	0,005
971,8	0,005
972,2	0,005
972,6	0,006
973,1	0,005
973,5	0,005
973,9	0,005
974,3	0,006
974,7	0,006
975,2	0,007
975,6	0,006
976	0,006
976,4	0,006
976,8	0,006
977,3	0,006
977,7	0,005
978,1	0,005
978,5	0,005
978,9	0,006
979,4	0,006
979,8	0,006
980,2	0,006
980,6	0,006
981	0,007
981,5	0,007
981,9	0,006
982,3	0,006
982,7	0,006
983,1	0,006
983,6	0,006
984	0,005
984,4	0,004
984,8	0,005
985,2	0,005
985,6	0,005
986,1	0,005
986,5	0,006
986,9	0,006
987,3	0,006
987,7	0,007
988,2	0,006
988,6	0,007
989	0,006
989,4	0,005
989,8	0,005
990,3	0,005
990,7	0,005
991,1	0,005
991,5	0,005
991,9	0,006
992,3	0,006
992,8	0,006
993,2	0,006
993,6	0,006
994	0,006
994,4	0,005
994,9	0,005
995,3	0,005
995,7	0,005
996,1	0,004
996,5	0,004
996,9	0,004
997,4	0,005
997,8	0,005
998,2	0,005
998,6	0,005
999	0,006
999,5	0,005
999,9	0,006
1000,3	0,006
1000,7	0,006
1001,1	0,005
1001,5	0,004
1002	0,004
1002,4	0,004
1002,8	0,003
1003,2	0,003
1003,6	0,002
1004	0,002
1004,5	0,003
1004,9	0,003
1005,3	0,004
1005,7	0,004
1006,1	0,004
1006,6	0,004
1007	0,005
1007,4	0,005
1007,8	0,004
1008,2	0,004
1008,6	0,004
1009,1	0,003
1009,5	0,003
1009,9	0,002
1010,3	0,002
1010,7	0,002
1011,1	0,001
1011,6	0,001
1012	0,001
1012,4	0,001
1012,8	0,001
1013,2	0,001
1013,6	0,001
1014,1	0,001
1014,5	0,002
1014,9	0,002
1015,3	0,003
1015,7	0,003
1016,1	0,003
1016,6	0,003
1017	0,003
1017,4	0,003
1017,8	0,002
1018,2	0,002
1018,6	0,003
1019,1	0,003
1019,5	0,003
1019,9	0,004
1020,3	0,004
1020,7	0,005
1021,1	0,005
1021,6	0,005
1022	0,005
1022,4	0,005
1022,8	0,004
1023,2	0,004
1023,6	0,004
1024,1	0,005
1024,5	0,005
1024,9	0,006
1025,3	0,006
1025,7	0,007
1026,1	0,007
1026,6	0,008
1027	0,008
1027,4	0,007
1027,8	0,007
1028,2	0,007
1028,6	0,006
1029	0,007
1029,5	0,007
1029,9	0,007
1030,3	0,007
1030,7	0,007
1031,1	0,008
1031,5	0,007
1032	0,007
1032,4	0,006
1032,8	0,006
1033,2	0,006
1033,6	0,006
1034	0,006
1034,4	0,005
1034,9	0,005
1035,3	0,005
1035,7	0,005
1036,1	0,005
1036,5	0,005
1036,9	0,005
1037,4	0,004
1037,8	0,005
1038,2	0,004
1038,6	0,003
1039	0,004
1039,4	0,004
1039,8	0,004
1040,3	0,004
1040,7	0,004
1041,1	0,004
1041,5	0,005
1041,9	0,003
1042,3	0,003
1042,7	0,003
1043,2	0,003
1043,6	0,003
1044	0,003
1044,4	0,003
1044,8	0,004
1045,2	0,004
1045,6	0,004
1046,1	0,005
1046,5	0,004
1046,9	0,005
1047,3	0,005
1047,7	0,004
1048,1	0,004
1048,5	0,004
1049	0,004
1049,4	0,004
1049,8	0,004
1050,2	0,004
1050,6	0,004
1051	0,004
1051,4	0,004
1051,9	0,004
1052,3	0,004
1052,7	0,004
1053,1	0,004
1053,5	0,004
1053,9	0,004
1054,3	0,003
1054,8	0,003
1055,2	0,003
1055,6	0,003
1056	0,003
1056,4	0,003
1056,8	0,003
1057,2	0,003
1057,6	0,002
1058,1	0,002
1058,5	0,002
1058,9	0,002
1059,3	0,003
1059,7	0,003
1060,1	0,003
1060,5	0,003
1061	0,004
1061,4	0,004
1061,8	0,004
1062,2	0,003
1062,6	0,002
1063	0,002
1063,4	0,003
1063,8	0,003
1064,3	0,002
1064,7	0,003
1065,1	0,003
1065,5	0,004
1065,9	0,003
1066,3	0,004
1066,7	0,004
1067,1	0,005
1067,6	0,004
1068	0,003
1068,4	0,004
1068,8	0,005
1069,2	0,004
1069,6	0,002
1070	0,002
1070,4	0,003
1070,9	0,003
1071,3	0,004
1071,7	0,004
1072,1	0,004
1072,5	0,004
1072,9	0,004
1073,3	0,004
1073,7	0,005
1074,2	0,005
1074,6	0,005
1075	0,005
1075,4	0,005
1075,8	0,006
1076,2	0,005
1076,6	0,005
1077	0,005
1077,5	0,004
1077,9	0,004
1078,3	0,004
1078,7	0,003
1079,1	0,005
1079,5	0,003
1079,9	0,003
1080,3	0,003
1080,7	0,003
1081,2	0,005
1081,6	0,005
1082	0,004
1082,4	0,004
1082,8	0,002
1083,2	0,001
1083,6	0,002
1084	0,002
1084,5	0
1084,9	-0
1085,3	0,001
1085,7	0,004
1086,1	0,006
1086,5	0,006
1086,9	0,004
1087,3	0,006
1087,7	0,007
1088,2	0,006
1088,6	0,003
1089	0,003
1089,4	0,005
1089,8	0,005
1090,2	0,002
1090,6	0,002
1091	0,005
1091,4	0,008
1091,9	0,005
1092,3	0,002
1092,7	0,002
1093,1	0,002
1093,5	0,001
1093,9	-0,003
1094,3	-0,003
1094,7	-0
1095,1	0,003
1095,5	0,004
1096	0,008
1096,4	0,006
1096,8	0,009
1097,2	0,005
1097,6	0,001
1098	0
1098,4	-0,002
1098,8	-0,004
1099,2	-0,002
1099,6	-0,005
1100,1	-0,001
1100,5	0,008
1100,9	0,01
1101,3	0,013
1101,7	0,014
1102,1	0,012
1102,5	0,017
1102,9	0,027
1103,3	0,019
1103,7	0,004
1104,2	0,001
1104,6	-0
1105	-0,006
1105,4	-0,012
1105,8	-0,021
1106,2	-0,019
1106,6	0,001
1107	-0,012
1107,4	-0,013
1107,8	-0,002
1108,3	0,027
