Data from Absorbance_00056.txt Node
Date: Fri Aug 11 13:19:17 MSK 2023
User: vat
Spectrometer: MAYP114033
Trigger mode: 0
Integration Time (sec): 8,000000E-3
Scans to average: 10
Electric dark correction enabled: true
Nonlinearity correction enabled: false
Boxcar width: 3
XAxis mode: Wavelengths
Number of Pixels in Spectrum: 2068
>>>>>Begin Spectral Data<<<<<
199,4	-0
199,9	0,106
200,4	0,49
200,8	0,799
201,3	0,924
201,8	0,973
202,2	0,99
202,7	1,021
203,2	1,063
203,6	1,071
204,1	1,08
204,6	1,099
205	1,108
205,5	1,13
206	1,135
206,4	1,153
206,9	1,178
207,4	1,204
207,8	1,208
208,3	1,228
208,8	1,254
209,2	1,266
209,7	1,292
210,2	1,311
210,6	1,319
211,1	1,334
211,5	1,367
212	1,366
212,5	1,391
212,9	1,401
213,4	1,409
213,9	1,392
214,3	1,404
214,8	1,405
215,3	1,425
215,7	1,435
216,2	1,437
216,7	1,453
217,1	1,517
217,6	1,539
218,1	1,543
218,5	1,552
219	1,571
219,5	1,573
219,9	1,585
220,4	1,578
220,9	1,604
221,3	1,642
221,8	1,665
222,3	1,677
222,7	1,709
223,2	1,735
223,6	1,764
224,1	1,759
224,6	1,748
225	1,753
225,5	1,778
226	1,792
226,4	1,784
226,9	1,79
227,4	1,821
227,8	1,839
228,3	1,857
228,8	1,849
229,2	1,867
229,7	1,899
230,2	1,897
230,6	1,914
231,1	1,906
231,5	1,934
232	1,964
232,5	1,967
232,9	1,978
233,4	2,005
233,9	1,993
234,3	2,01
234,8	1,993
235,3	1,996
235,7	1,989
236,2	1,989
236,7	1,998
237,1	2,003
237,6	2,014
238,1	2,029
238,5	2,025
239	2,042
239,4	2,052
239,9	2,07
240,4	2,072
240,8	2,07
241,3	2,069
241,8	2,091
242,2	2,099
242,7	2,095
243,2	2,081
243,6	2,112
244,1	2,122
244,6	2,125
245	2,122
245,5	2,119
245,9	2,129
246,4	2,143
246,9	2,136
247,3	2,141
247,8	2,13
248,3	2,138
248,7	2,153
249,2	2,153
249,7	2,15
250,1	2,146
250,6	2,141
251	2,168
251,5	2,163
252	2,148
252,4	2,153
252,9	2,16
253,4	2,152
253,8	2,164
254,3	2,154
254,8	2,154
255,2	2,161
255,7	2,155
256,1	2,143
256,6	2,171
257,1	2,194
257,5	2,195
258	2,203
258,5	2,211
258,9	2,211
259,4	2,233
259,9	2,208
260,3	2,211
260,8	2,234
261,2	2,232
261,7	2,222
262,2	2,233
262,6	2,222
263,1	2,218
263,6	2,199
264	2,183
264,5	2,192
264,9	2,218
265,4	2,221
265,9	2,213
266,3	2,218
266,8	2,216
267,3	2,208
267,7	2,194
268,2	2,173
268,7	2,178
269,1	2,161
269,6	2,164
270	2,162
270,5	2,172
271	2,181
271,4	2,185
271,9	2,183
272,4	2,182
272,8	2,171
273,3	2,174
273,7	2,164
274,2	2,155
274,7	2,16
275,1	2,151
275,6	2,173
276,1	2,172
276,5	2,154
277	2,163
277,4	2,149
277,9	2,124
278,4	2,13
278,8	2,133
279,3	2,126
279,8	2,117
280,2	2,112
280,7	2,103
281,1	2,09
281,6	2,073
282,1	2,039
282,5	2,03
283	2,021
283,4	1,993
283,9	1,987
284,4	1,977
284,8	1,947
285,3	1,917
285,8	1,875
286,2	1,821
286,7	1,762
287,1	1,691
287,6	1,622
288,1	1,55
288,5	1,475
289	1,395
289,5	1,318
289,9	1,242
290,4	1,171
290,8	1,099
291,3	1,032
291,8	0,97
292,2	0,913
292,7	0,861
293,1	0,813
293,6	0,769
294,1	0,729
294,5	0,695
295	0,663
295,5	0,635
295,9	0,608
296,4	0,587
296,8	0,566
297,3	0,55
297,8	0,533
298,2	0,518
298,7	0,507
299,1	0,497
299,6	0,487
300,1	0,479
300,5	0,471
301	0,464
301,5	0,458
301,9	0,452
302,4	0,447
302,8	0,441
303,3	0,437
303,8	0,433
304,2	0,429
304,7	0,426
305,1	0,422
305,6	0,418
306,1	0,414
306,5	0,41
307	0,407
307,4	0,404
307,9	0,401
308,4	0,398
308,8	0,395
309,3	0,393
309,8	0,391
310,2	0,388
310,7	0,385
311,1	0,381
311,6	0,378
312,1	0,374
312,5	0,37
313	0,367
313,4	0,364
313,9	0,361
314,4	0,359
314,8	0,356
315,3	0,354
315,7	0,351
316,2	0,348
316,7	0,345
317,1	0,343
317,6	0,34
318	0,338
318,5	0,336
319	0,334
319,4	0,331
319,9	0,329
320,3	0,326
320,8	0,322
321,3	0,319
321,7	0,316
322,2	0,312
322,6	0,31
323,1	0,308
323,6	0,305
324	0,303
324,5	0,3
324,9	0,298
325,4	0,296
325,9	0,294
326,3	0,291
326,8	0,288
327,2	0,287
327,7	0,284
328,2	0,283
328,6	0,28
329,1	0,278
329,5	0,276
330	0,273
330,5	0,27
330,9	0,268
331,4	0,265
331,8	0,261
332,3	0,258
332,8	0,255
333,2	0,254
333,7	0,251
334,1	0,249
334,6	0,247
335,1	0,244
335,5	0,242
336	0,239
336,4	0,237
336,9	0,235
337,4	0,231
337,8	0,229
338,3	0,227
338,7	0,224
339,2	0,222
339,7	0,218
340,1	0,215
340,6	0,213
341	0,211
341,5	0,209
342	0,206
342,4	0,204
342,9	0,202
343,3	0,199
343,8	0,197
344,2	0,194
344,7	0,192
345,2	0,191
345,6	0,189
346,1	0,187
346,5	0,186
347	0,183
347,5	0,181
347,9	0,179
348,4	0,176
348,8	0,174
349,3	0,172
349,8	0,169
350,2	0,167
350,7	0,166
351,1	0,164
351,6	0,162
352	0,16
352,5	0,157
353	0,155
353,4	0,153
353,9	0,151
354,3	0,149
354,8	0,147
355,3	0,146
355,7	0,144
356,2	0,142
356,6	0,141
357,1	0,14
357,5	0,138
358	0,136
358,5	0,134
358,9	0,133
359,4	0,13
359,8	0,129
360,3	0,127
360,8	0,126
361,2	0,125
361,7	0,123
362,1	0,121
362,6	0,121
363	0,118
363,5	0,117
364	0,116
364,4	0,115
364,9	0,114
365,3	0,113
365,8	0,111
366,3	0,111
366,7	0,109
367,2	0,107
367,6	0,106
368,1	0,104
368,5	0,103
369	0,102
369,5	0,101
369,9	0,099
370,4	0,098
370,8	0,097
371,3	0,096
371,7	0,095
372,2	0,094
372,7	0,093
373,1	0,093
373,6	0,092
374	0,091
374,5	0,09
374,9	0,09
375,4	0,089
375,9	0,088
376,3	0,088
376,8	0,087
377,2	0,086
377,7	0,085
378,2	0,084
378,6	0,083
379,1	0,082
379,5	0,081
380	0,08
380,4	0,079
380,9	0,078
381,4	0,077
381,8	0,077
382,3	0,076
382,7	0,076
383,2	0,075
383,6	0,074
384,1	0,074
384,6	0,074
385	0,073
385,5	0,072
385,9	0,071
386,4	0,07
386,8	0,07
387,3	0,07
387,7	0,069
388,2	0,068
388,7	0,067
389,1	0,067
389,6	0,066
390	0,066
390,5	0,065
390,9	0,064
391,4	0,064
391,9	0,063
392,3	0,063
392,8	0,062
393,2	0,061
393,7	0,061
394,1	0,061
394,6	0,061
395,1	0,06
395,5	0,061
396	0,06
396,4	0,06
396,9	0,059
397,3	0,059
397,8	0,058
398,2	0,058
398,7	0,057
399,2	0,057
399,6	0,057
400,1	0,057
400,5	0,057
401	0,056
401,4	0,055
401,9	0,055
402,4	0,054
402,8	0,055
403,3	0,055
403,7	0,054
404,2	0,054
404,6	0,055
405,1	0,055
405,5	0,055
406	0,054
406,5	0,053
406,9	0,053
407,4	0,052
407,8	0,051
408,3	0,05
408,7	0,049
409,2	0,049
409,6	0,049
410,1	0,049
410,6	0,05
411	0,05
411,5	0,05
411,9	0,05
412,4	0,05
412,8	0,05
413,3	0,049
413,7	0,049
414,2	0,048
414,7	0,048
415,1	0,049
415,6	0,048
416	0,048
416,5	0,048
416,9	0,047
417,4	0,048
417,8	0,047
418,3	0,046
418,8	0,046
419,2	0,047
419,7	0,047
420,1	0,047
420,6	0,046
421	0,047
421,5	0,047
421,9	0,046
422,4	0,046
422,8	0,046
423,3	0,045
423,8	0,045
424,2	0,045
424,7	0,045
425,1	0,044
425,6	0,044
426	0,044
426,5	0,043
426,9	0,043
427,4	0,042
427,9	0,042
428,3	0,042
428,8	0,042
429,2	0,042
429,7	0,042
430,1	0,042
430,6	0,042
431	0,041
431,5	0,041
431,9	0,04
432,4	0,04
432,8	0,04
433,3	0,04
433,8	0,04
434,2	0,041
434,7	0,041
435,1	0,041
435,6	0,041
436	0,04
436,5	0,04
436,9	0,04
437,4	0,04
437,8	0,04
438,3	0,04
438,8	0,039
439,2	0,039
439,7	0,039
440,1	0,039
440,6	0,038
441	0,038
441,5	0,038
441,9	0,038
442,4	0,037
442,8	0,037
443,3	0,037
443,7	0,037
444,2	0,037
444,7	0,037
445,1	0,037
445,6	0,037
446	0,037
446,5	0,038
446,9	0,037
447,4	0,037
447,8	0,037
448,3	0,037
448,7	0,038
449,2	0,037
449,6	0,037
450,1	0,037
450,6	0,037
451	0,037
451,5	0,037
451,9	0,036
452,4	0,036
452,8	0,035
453,3	0,035
453,7	0,035
454,2	0,035
454,6	0,035
455,1	0,035
455,5	0,036
456	0,036
456,4	0,036
456,9	0,036
457,3	0,036
457,8	0,035
458,3	0,034
458,7	0,033
459,2	0,033
459,6	0,033
460,1	0,033
460,5	0,033
461	0,033
461,4	0,033
461,9	0,033
462,3	0,033
462,8	0,033
463,2	0,033
463,7	0,033
464,1	0,033
464,6	0,033
465	0,034
465,5	0,034
466	0,034
466,4	0,033
466,9	0,033
467,3	0,033
467,8	0,033
468,2	0,033
468,7	0,032
469,1	0,032
469,6	0,032
470	0,032
470,5	0,032
470,9	0,032
471,4	0,032
471,8	0,032
472,3	0,032
472,7	0,032
473,2	0,032
473,6	0,031
474,1	0,031
474,5	0,031
475	0,031
475,4	0,031
475,9	0,031
476,4	0,031
476,8	0,031
477,3	0,031
477,7	0,031
478,2	0,03
478,6	0,031
479,1	0,031
479,5	0,032
480	0,032
480,4	0,032
480,9	0,032
481,3	0,032
481,8	0,031
482,2	0,031
482,7	0,03
483,1	0,03
483,6	0,03
484	0,03
484,5	0,03
484,9	0,03
485,4	0,03
485,8	0,031
486,3	0,031
486,7	0,03
487,2	0,03
487,6	0,03
488,1	0,031
488,5	0,03
489	0,029
489,4	0,028
489,9	0,03
490,4	0,03
490,8	0,03
491,3	0,03
491,7	0,03
492,2	0,03
492,6	0,03
493,1	0,03
493,5	0,03
494	0,03
494,4	0,03
494,9	0,03
495,3	0,03
495,8	0,03
496,2	0,03
496,7	0,029
497,1	0,029
497,6	0,029
498	0,029
498,5	0,028
498,9	0,028
499,4	0,028
499,8	0,028
500,3	0,027
500,7	0,028
501,2	0,028
501,6	0,028
502,1	0,028
502,5	0,028
503	0,028
503,4	0,028
503,9	0,028
504,3	0,028
504,8	0,029
505,2	0,028
505,7	0,029
506,1	0,029
506,6	0,029
507	0,03
507,5	0,029
507,9	0,028
508,4	0,028
508,8	0,028
509,3	0,027
509,7	0,027
510,2	0,027
510,6	0,027
511,1	0,027
511,5	0,027
512	0,027
512,4	0,027
512,9	0,027
513,3	0,027
513,8	0,027
514,2	0,027
514,7	0,027
515,1	0,027
515,6	0,027
516	0,027
516,5	0,027
516,9	0,027
517,4	0,027
517,8	0,027
518,3	0,027
518,7	0,028
519,2	0,028
519,6	0,028
520,1	0,028
520,5	0,028
521	0,027
521,4	0,028
521,9	0,027
522,3	0,028
522,8	0,028
523,2	0,028
523,7	0,028
524,1	0,028
524,6	0,027
525	0,027
525,5	0,027
525,9	0,027
526,4	0,027
526,8	0,027
527,3	0,027
527,7	0,027
528,2	0,026
528,6	0,026
529,1	0,026
529,5	0,026
530	0,026
530,4	0,026
530,9	0,027
531,3	0,027
531,8	0,028
532,2	0,027
532,6	0,027
533,1	0,027
533,5	0,027
534	0,027
534,4	0,026
534,9	0,025
535,3	0,025
535,8	0,026
536,2	0,025
536,7	0,025
537,1	0,025
537,6	0,024
538	0,025
538,5	0,025
538,9	0,025
539,4	0,025
539,8	0,026
540,3	0,026
540,7	0,026
541,2	0,026
541,6	0,027
542,1	0,027
542,5	0,026
543	0,025
543,4	0,026
543,9	0,025
544,3	0,025
544,8	0,024
545,2	0,024
545,7	0,025
546,1	0,025
546,5	0,025
547	0,025
547,4	0,025
547,9	0,025
548,3	0,025
548,8	0,024
549,2	0,024
549,7	0,025
550,1	0,025
550,6	0,024
551	0,025
551,5	0,025
551,9	0,025
552,4	0,025
552,8	0,025
553,3	0,025
553,7	0,025
554,2	0,025
554,6	0,025
555,1	0,025
555,5	0,025
555,9	0,024
556,4	0,024
556,8	0,025
557,3	0,024
557,7	0,024
558,2	0,024
558,6	0,024
559,1	0,024
559,5	0,024
560	0,023
560,4	0,023
560,9	0,023
561,3	0,023
561,8	0,023
562,2	0,024
562,7	0,024
563,1	0,024
563,6	0,025
564	0,025
564,4	0,025
564,9	0,024
565,3	0,024
565,8	0,024
566,2	0,024
566,7	0,024
567,1	0,023
567,6	0,023
568	0,024
568,5	0,023
568,9	0,023
569,4	0,024
569,8	0,023
570,3	0,023
570,7	0,024
571,1	0,023
571,6	0,023
572	0,024
572,5	0,023
572,9	0,023
573,4	0,023
573,8	0,022
574,3	0,022
574,7	0,022
575,2	0,022
575,6	0,022
576,1	0,022
576,5	0,022
576,9	0,022
577,4	0,022
577,8	0,022
578,3	0,023
578,7	0,023
579,2	0,022
579,6	0,023
580,1	0,023
580,5	0,023
581	0,023
581,4	0,023
581,9	0,022
582,3	0,022
582,7	0,022
583,2	0,022
583,6	0,022
584,1	0,022
584,5	0,022
585	0,022
585,4	0,022
585,9	0,022
586,3	0,022
586,8	0,022
587,2	0,022
587,6	0,022
588,1	0,022
588,5	0,022
589	0,022
589,4	0,022
589,9	0,022
590,3	0,022
590,8	0,022
591,2	0,022
591,7	0,022
592,1	0,022
592,5	0,022
593	0,022
593,4	0,022
593,9	0,022
594,3	0,022
594,8	0,022
595,2	0,021
595,7	0,021
596,1	0,021
596,6	0,021
597	0,021
597,4	0,021
597,9	0,021
598,3	0,02
598,8	0,02
599,2	0,02
599,7	0,02
600,1	0,019
600,6	0,019
601	0,019
601,4	0,019
601,9	0,019
602,3	0,019
602,8	0,019
603,2	0,019
603,7	0,019
604,1	0,019
604,6	0,019
605	0,02
605,4	0,02
605,9	0,02
606,3	0,02
606,8	0,02
607,2	0,021
607,7	0,021
608,1	0,021
608,6	0,021
609	0,021
609,4	0,021
609,9	0,021
610,3	0,02
610,8	0,02
611,2	0,02
611,7	0,02
612,1	0,02
612,6	0,019
613	0,02
613,4	0,019
613,9	0,019
614,3	0,019
614,8	0,019
615,2	0,02
615,7	0,02
616,1	0,019
616,6	0,02
617	0,019
617,4	0,02
617,9	0,019
618,3	0,019
618,8	0,019
619,2	0,019
619,7	0,02
620,1	0,019
620,5	0,02
621	0,02
621,4	0,02
621,9	0,019
622,3	0,02
622,8	0,02
623,2	0,02
623,6	0,02
624,1	0,02
624,5	0,02
625	0,019
625,4	0,019
625,9	0,019
626,3	0,019
626,8	0,019
627,2	0,019
627,6	0,019
628,1	0,019
628,5	0,019
629	0,019
629,4	0,019
629,9	0,019
630,3	0,019
630,7	0,019
631,2	0,019
631,6	0,019
632,1	0,019
632,5	0,019
633	0,019
633,4	0,019
633,8	0,019
634,3	0,019
634,7	0,019
635,2	0,019
635,6	0,019
636,1	0,019
636,5	0,019
636,9	0,019
637,4	0,018
637,8	0,018
638,3	0,018
638,7	0,018
639,2	0,018
639,6	0,018
640	0,018
640,5	0,018
640,9	0,018
641,4	0,018
641,8	0,018
642,2	0,018
642,7	0,018
643,1	0,018
643,6	0,018
644	0,018
644,5	0,018
644,9	0,018
645,3	0,018
645,8	0,018
646,2	0,018
646,7	0,018
647,1	0,019
647,6	0,019
648	0,019
648,4	0,019
648,9	0,018
649,3	0,019
649,8	0,019
650,2	0,018
650,6	0,018
651,1	0,017
651,5	0,017
652	0,017
652,4	0,017
652,9	0,016
653,3	0,017
653,7	0,017
654,2	0,017
654,6	0,017
655,1	0,018
655,5	0,01
655,9	0,007
656,4	0,005
656,8	0,006
657,3	0,006
657,7	0,007
658,2	0,006
658,6	0,008
659	0,011
659,5	0,018
659,9	0,02
660,4	0,019
660,8	0,019
661,2	0,018
661,7	0,018
662,1	0,017
662,6	0,017
663	0,017
663,4	0,017
663,9	0,016
664,3	0,016
664,8	0,016
665,2	0,016
665,6	0,016
666,1	0,016
666,5	0,016
667	0,016
667,4	0,016
667,9	0,017
668,3	0,016
668,7	0,016
669,2	0,017
669,6	0,016
670,1	0,017
670,5	0,016
670,9	0,016
671,4	0,016
671,8	0,016
672,3	0,016
672,7	0,016
673,1	0,015
673,6	0,015
674	0,015
674,5	0,015
674,9	0,016
675,3	0,016
675,8	0,016
676,2	0,016
676,7	0,016
677,1	0,015
677,5	0,016
678	0,016
678,4	0,016
678,9	0,016
679,3	0,016
679,7	0,016
680,2	0,016
680,6	0,016
681,1	0,016
681,5	0,016
681,9	0,016
682,4	0,016
682,8	0,016
683,3	0,016
683,7	0,016
684,1	0,016
684,6	0,016
685	0,016
685,5	0,016
685,9	0,015
686,3	0,015
686,8	0,016
687,2	0,016
687,7	0,016
688,1	0,016
688,5	0,016
689	0,017
689,4	0,016
689,9	0,016
690,3	0,016
690,7	0,016
691,2	0,016
691,6	0,016
692	0,016
692,5	0,016
692,9	0,016
693,4	0,016
693,8	0,016
694,2	0,016
694,7	0,016
695,1	0,016
695,6	0,016
696	0,016
696,4	0,016
696,9	0,016
697,3	0,015
697,8	0,015
698,2	0,015
698,6	0,015
699,1	0,015
699,5	0,015
699,9	0,015
700,4	0,015
700,8	0,015
701,3	0,016
701,7	0,016
702,1	0,016
702,6	0,016
703	0,016
703,5	0,016
703,9	0,016
704,3	0,016
704,8	0,016
705,2	0,016
705,6	0,015
706,1	0,015
706,5	0,015
707	0,015
707,4	0,015
707,8	0,015
708,3	0,015
708,7	0,015
709,2	0,015
709,6	0,015
710	0,015
710,5	0,015
710,9	0,015
711,3	0,015
711,8	0,014
712,2	0,015
712,7	0,014
713,1	0,014
713,5	0,014
714	0,014
714,4	0,014
714,8	0,015
715,3	0,015
715,7	0,014
716,2	0,015
716,6	0,015
717	0,015
717,5	0,014
717,9	0,014
718,3	0,014
718,8	0,014
719,2	0,013
719,7	0,014
720,1	0,014
720,5	0,014
721	0,014
721,4	0,015
721,8	0,015
722,3	0,015
722,7	0,014
723,2	0,014
723,6	0,014
724	0,014
724,5	0,013
724,9	0,014
725,3	0,014
725,8	0,014
726,2	0,014
726,7	0,014
727,1	0,014
727,5	0,014
728	0,014
728,4	0,013
728,8	0,013
729,3	0,013
729,7	0,013
730,1	0,013
730,6	0,013
731	0,013
731,5	0,014
731,9	0,014
732,3	0,014
732,8	0,014
733,2	0,014
733,6	0,015
734,1	0,014
734,5	0,014
734,9	0,014
735,4	0,014
735,8	0,014
736,3	0,014
736,7	0,014
737,1	0,015
737,6	0,015
738	0,014
738,4	0,014
738,9	0,014
739,3	0,014
739,7	0,013
740,2	0,013
740,6	0,013
741,1	0,013
741,5	0,013
741,9	0,013
742,4	0,013
742,8	0,014
743,2	0,014
743,7	0,014
744,1	0,014
744,5	0,014
745	0,014
745,4	0,014
745,8	0,014
746,3	0,014
746,7	0,014
747,2	0,013
747,6	0,013
748	0,014
748,5	0,014
748,9	0,014
749,3	0,014
749,8	0,014
750,2	0,014
750,6	0,014
751,1	0,014
751,5	0,014
751,9	0,014
752,4	0,014
752,8	0,014
753,3	0,014
753,7	0,014
754,1	0,014
754,6	0,014
755	0,014
755,4	0,014
755,9	0,014
756,3	0,014
756,7	0,014
757,2	0,014
757,6	0,014
758	0,014
758,5	0,014
758,9	0,014
759,3	0,014
759,8	0,014
760,2	0,014
760,6	0,014
761,1	0,014
761,5	0,014
761,9	0,014
762,4	0,014
762,8	0,014
763,3	0,015
763,7	0,014
764,1	0,015
764,6	0,014
765	0,014
765,4	0,014
765,9	0,015
766,3	0,015
766,7	0,015
767,2	0,015
767,6	0,016
768	0,016
768,5	0,016
768,9	0,016
769,3	0,015
769,8	0,015
770,2	0,015
770,6	0,015
771,1	0,014
771,5	0,014
771,9	0,014
772,4	0,014
772,8	0,014
773,2	0,014
773,7	0,014
774,1	0,014
774,5	0,015
775	0,015
775,4	0,014
775,8	0,014
776,3	0,014
776,7	0,014
777,1	0,014
777,6	0,013
778	0,013
778,4	0,013
778,9	0,014
779,3	0,013
779,7	0,014
780,2	0,013
780,6	0,013
781	0,013
781,5	0,013
781,9	0,013
782,3	0,013
782,8	0,013
783,2	0,014
783,6	0,014
784,1	0,013
784,5	0,014
784,9	0,013
785,4	0,013
785,8	0,013
786,2	0,013
786,7	0,012
787,1	0,012
787,5	0,012
788	0,012
788,4	0,012
788,8	0,012
789,3	0,012
789,7	0,012
790,1	0,012
790,6	0,012
791	0,012
791,4	0,012
791,9	0,012
792,3	0,012
792,7	0,012
793,2	0,012
793,6	0,011
794	0,012
794,5	0,012
794,9	0,012
795,3	0,012
795,8	0,013
796,2	0,013
796,6	0,013
797,1	0,013
797,5	0,013
797,9	0,013
798,4	0,013
798,8	0,013
799,2	0,013
799,7	0,013
800,1	0,013
800,5	0,012
801	0,012
801,4	0,012
801,8	0,012
802,2	0,012
802,7	0,011
803,1	0,011
803,5	0,012
804	0,012
804,4	0,012
804,8	0,012
805,3	0,012
805,7	0,012
806,1	0,012
806,6	0,011
807	0,011
807,4	0,011
807,9	0,011
808,3	0,011
808,7	0,011
809,2	0,011
809,6	0,011
810	0,011
810,4	0,011
810,9	0,011
811,3	0,011
811,7	0,011
812,2	0,011
812,6	0,012
813	0,011
813,5	0,011
813,9	0,011
814,3	0,011
814,8	0,011
815,2	0,011
815,6	0,011
816,1	0,01
816,5	0,01
816,9	0,011
817,3	0,011
817,8	0,011
818,2	0,01
818,6	0,011
819,1	0,011
819,5	0,011
819,9	0,011
820,4	0,011
820,8	0,011
821,2	0,011
821,7	0,011
822,1	0,011
822,5	0,01
822,9	0,01
823,4	0,01
823,8	0,01
824,2	0,01
824,7	0,01
825,1	0,01
825,5	0,011
826	0,011
826,4	0,011
826,8	0,012
827,3	0,012
827,7	0,012
828,1	0,012
828,5	0,012
829	0,012
829,4	0,012
829,8	0,012
830,3	0,012
830,7	0,012
831,1	0,012
831,6	0,011
832	0,011
832,4	0,012
832,8	0,012
833,3	0,012
833,7	0,012
834,1	0,011
834,6	0,011
835	0,011
835,4	0,011
835,8	0,011
836,3	0,011
836,7	0,011
837,1	0,011
837,6	0,011
838	0,011
838,4	0,01
838,9	0,011
839,3	0,011
839,7	0,011
840,1	0,011
840,6	0,012
841	0,012
841,4	0,012
841,9	0,011
842,3	0,011
842,7	0,011
843,1	0,011
843,6	0,011
844	0,011
844,4	0,011
844,9	0,011
845,3	0,011
845,7	0,011
846,2	0,011
846,6	0,011
847	0,011
847,4	0,011
847,9	0,011
848,3	0,011
848,7	0,011
849,2	0,011
849,6	0,011
850	0,011
850,4	0,011
850,9	0,01
851,3	0,011
851,7	0,011
852,2	0,011
852,6	0,012
853	0,012
853,4	0,012
853,9	0,013
854,3	0,013
854,7	0,013
855,2	0,013
855,6	0,013
856	0,013
856,4	0,012
856,9	0,012
857,3	0,012
857,7	0,011
858,2	0,011
858,6	0,01
859	0,01
859,4	0,01
859,9	0,01
860,3	0,009
860,7	0,009
861,1	0,01
861,6	0,01
862	0,01
862,4	0,01
862,9	0,01
863,3	0,011
863,7	0,01
864,1	0,011
864,6	0,011
865	0,011
865,4	0,01
865,9	0,01
866,3	0,011
866,7	0,011
867,1	0,011
867,6	0,011
868	0,011
868,4	0,011
868,8	0,011
869,3	0,011
869,7	0,011
870,1	0,011
870,6	0,011
871	0,011
871,4	0,011
871,8	0,011
872,3	0,011
872,7	0,01
873,1	0,01
873,5	0,009
874	0,009
874,4	0,009
874,8	0,009
875,3	0,009
875,7	0,009
876,1	0,01
876,5	0,01
877	0,01
877,4	0,01
877,8	0,009
878,2	0,009
878,7	0,009
879,1	0,009
879,5	0,009
879,9	0,009
880,4	0,009
880,8	0,01
881,2	0,01
881,7	0,01
882,1	0,011
882,5	0,01
882,9	0,01
883,4	0,01
883,8	0,01
884,2	0,009
884,6	0,009
885,1	0,009
885,5	0,009
885,9	0,009
886,3	0,01
886,8	0,01
887,2	0,01
887,6	0,011
888	0,01
888,5	0,01
888,9	0,01
889,3	0,01
889,8	0,009
890,2	0,01
890,6	0,01
891	0,01
891,5	0,01
891,9	0,011
892,3	0,011
892,7	0,011
893,2	0,011
893,6	0,011
894	0,011
894,4	0,011
894,9	0,011
895,3	0,011
895,7	0,011
896,1	0,011
896,6	0,011
897	0,011
897,4	0,01
897,8	0,01
898,3	0,01
898,7	0,01
899,1	0,009
899,5	0,009
900	0,009
900,4	0,009
900,8	0,009
901,2	0,009
901,7	0,009
902,1	0,009
902,5	0,009
902,9	0,009
903,4	0,008
903,8	0,008
904,2	0,009
904,6	0,009
905,1	0,009
905,5	0,009
905,9	0,01
906,3	0,01
906,8	0,01
907,2	0,009
907,6	0,009
908	0,009
908,5	0,009
908,9	0,008
909,3	0,008
909,7	0,008
910,2	0,008
910,6	0,008
911	0,008
911,4	0,008
911,9	0,009
912,3	0,009
912,7	0,009
913,1	0,009
913,6	0,009
914	0,009
914,4	0,009
914,8	0,009
915,3	0,009
915,7	0,009
916,1	0,009
916,5	0,009
916,9	0,009
917,4	0,009
917,8	0,01
918,2	0,009
918,6	0,01
919,1	0,01
919,5	0,011
919,9	0,011
920,3	0,011
920,8	0,011
921,2	0,012
921,6	0,011
922	0,011
922,5	0,01
922,9	0,01
923,3	0,01
923,7	0,009
924,2	0,01
924,6	0,01
925	0,009
925,4	0,01
925,8	0,01
926,3	0,01
926,7	0,01
927,1	0,01
927,5	0,01
928	0,01
928,4	0,01
928,8	0,01
929,2	0,01
929,7	0,01
930,1	0,01
930,5	0,01
930,9	0,01
931,3	0,01
931,8	0,01
932,2	0,01
932,6	0,01
933	0,009
933,5	0,009
933,9	0,009
934,3	0,01
934,7	0,01
935,2	0,01
935,6	0,01
936	0,01
936,4	0,01
936,8	0,01
937,3	0,01
937,7	0,01
938,1	0,009
938,5	0,009
939	0,009
939,4	0,009
939,8	0,009
940,2	0,009
940,6	0,009
941,1	0,008
941,5	0,009
941,9	0,009
942,3	0,008
942,8	0,008
943,2	0,008
943,6	0,008
944	0,008
944,4	0,008
944,9	0,009
945,3	0,01
945,7	0,009
946,1	0,009
946,6	0,009
947	0,009
947,4	0,009
947,8	0,008
948,2	0,008
948,7	0,007
949,1	0,007
949,5	0,007
949,9	0,007
950,3	0,007
950,8	0,007
951,2	0,007
951,6	0,007
952	0,007
952,5	0,007
952,9	0,007
953,3	0,008
953,7	0,008
954,1	0,008
954,6	0,007
955	0,008
955,4	0,008
955,8	0,008
956,2	0,008
956,7	0,009
957,1	0,009
957,5	0,01
957,9	0,01
958,3	0,01
958,8	0,009
959,2	0,009
959,6	0,009
960	0,008
960,5	0,008
960,9	0,007
961,3	0,007
961,7	0,007
962,1	0,008
962,6	0,007
963	0,008
963,4	0,007
963,8	0,008
964,2	0,008
964,7	0,008
965,1	0,007
965,5	0,008
965,9	0,008
966,3	0,009
966,8	0,009
967,2	0,01
967,6	0,01
968	0,011
968,4	0,01
968,9	0,01
969,3	0,01
969,7	0,009
970,1	0,009
970,5	0,009
971	0,009
971,4	0,009
971,8	0,008
972,2	0,008
972,6	0,009
973,1	0,008
973,5	0,008
973,9	0,008
974,3	0,008
974,7	0,009
975,2	0,009
975,6	0,009
976	0,009
976,4	0,009
976,8	0,009
977,3	0,009
977,7	0,008
978,1	0,008
978,5	0,008
978,9	0,008
979,4	0,008
979,8	0,009
980,2	0,01
980,6	0,01
981	0,01
981,5	0,011
981,9	0,011
982,3	0,01
982,7	0,01
983,1	0,01
983,6	0,009
984	0,008
984,4	0,008
984,8	0,008
985,2	0,008
985,6	0,008
986,1	0,008
986,5	0,008
986,9	0,009
987,3	0,009
987,7	0,009
988,2	0,009
988,6	0,009
989	0,009
989,4	0,009
989,8	0,008
990,3	0,008
990,7	0,007
991,1	0,007
991,5	0,007
991,9	0,007
992,3	0,007
992,8	0,007
993,2	0,007
993,6	0,008
994	0,008
994,4	0,008
994,9	0,007
995,3	0,008
995,7	0,008
996,1	0,008
996,5	0,007
996,9	0,007
997,4	0,008
997,8	0,008
998,2	0,008
998,6	0,008
999	0,009
999,5	0,01
999,9	0,011
1000,3	0,01
1000,7	0,01
1001,1	0,011
1001,5	0,011
1002	0,01
1002,4	0,009
1002,8	0,009
1003,2	0,008
1003,6	0,008
1004	0,008
1004,5	0,007
1004,9	0,007
1005,3	0,008
1005,7	0,008
1006,1	0,009
1006,6	0,008
1007	0,009
1007,4	0,009
1007,8	0,01
1008,2	0,01
1008,6	0,01
1009,1	0,009
1009,5	0,009
1009,9	0,009
1010,3	0,009
1010,7	0,008
1011,1	0,007
1011,6	0,007
1012	0,007
1012,4	0,007
1012,8	0,007
1013,2	0,007
1013,6	0,007
1014,1	0,008
1014,5	0,008
1014,9	0,008
1015,3	0,008
1015,7	0,008
1016,1	0,007
1016,6	0,008
1017	0,008
1017,4	0,007
1017,8	0,007
1018,2	0,007
1018,6	0,008
1019,1	0,008
1019,5	0,008
1019,9	0,008
1020,3	0,009
1020,7	0,009
1021,1	0,009
1021,6	0,008
1022	0,009
1022,4	0,009
1022,8	0,008
1023,2	0,007
1023,6	0,008
1024,1	0,008
1024,5	0,009
1024,9	0,009
1025,3	0,009
1025,7	0,011
1026,1	0,011
1026,6	0,012
1027	0,012
1027,4	0,011
1027,8	0,01
1028,2	0,011
1028,6	0,01
1029	0,01
1029,5	0,01
1029,9	0,01
1030,3	0,011
1030,7	0,012
1031,1	0,011
1031,5	0,011
1032	0,011
1032,4	0,01
1032,8	0,01
1033,2	0,009
1033,6	0,009
1034	0,009
1034,4	0,009
1034,9	0,009
1035,3	0,009
1035,7	0,009
1036,1	0,009
1036,5	0,008
1036,9	0,008
1037,4	0,008
1037,8	0,009
1038,2	0,009
1038,6	0,008
1039	0,008
1039,4	0,008
1039,8	0,008
1040,3	0,007
1040,7	0,006
1041,1	0,006
1041,5	0,006
1041,9	0,006
1042,3	0,006
1042,7	0,005
1043,2	0,005
1043,6	0,006
1044	0,006
1044,4	0,006
1044,8	0,006
1045,2	0,006
1045,6	0,008
1046,1	0,009
1046,5	0,009
1046,9	0,009
1047,3	0,009
1047,7	0,009
1048,1	0,009
1048,5	0,009
1049	0,008
1049,4	0,008
1049,8	0,008
1050,2	0,008
1050,6	0,007
1051	0,007
1051,4	0,006
1051,9	0,007
1052,3	0,007
1052,7	0,006
1053,1	0,007
1053,5	0,007
1053,9	0,008
1054,3	0,008
1054,8	0,008
1055,2	0,007
1055,6	0,007
1056	0,007
1056,4	0,006
1056,8	0,006
1057,2	0,007
1057,6	0,006
1058,1	0,007
1058,5	0,006
1058,9	0,005
1059,3	0,006
1059,7	0,005
1060,1	0,006
1060,5	0,005
1061	0,005
1061,4	0,005
1061,8	0,006
1062,2	0,006
1062,6	0,005
1063	0,006
1063,4	0,006
1063,8	0,008
1064,3	0,008
1064,7	0,008
1065,1	0,008
1065,5	0,008
1065,9	0,008
1066,3	0,008
1066,7	0,008
1067,1	0,007
1067,6	0,007
1068	0,006
1068,4	0,006
1068,8	0,006
1069,2	0,004
1069,6	0,003
1070	0,003
1070,4	0,004
1070,9	0,004
1071,3	0,005
1071,7	0,005
1072,1	0,005
1072,5	0,006
1072,9	0,006
1073,3	0,007
1073,7	0,007
1074,2	0,006
1074,6	0,007
1075	0,008
1075,4	0,007
1075,8	0,008
1076,2	0,008
1076,6	0,008
1077	0,009
1077,5	0,007
1077,9	0,007
1078,3	0,006
1078,7	0,005
1079,1	0,005
1079,5	0,004
1079,9	0,004
1080,3	0,005
1080,7	0,006
1081,2	0,007
1081,6	0,007
1082	0,006
1082,4	0,006
1082,8	0,003
1083,2	0,003
1083,6	0,003
1084	0,003
1084,5	0,004
1084,9	0,005
1085,3	0,006
1085,7	0,008
1086,1	0,01
1086,5	0,01
1086,9	0,01
1087,3	0,011
1087,7	0,011
1088,2	0,012
1088,6	0,01
1089	0,011
1089,4	0,012
1089,8	0,013
1090,2	0,01
1090,6	0,011
1091	0,01
1091,4	0,013
1091,9	0,01
1092,3	0,008
1092,7	0,008
1093,1	0,007
1093,5	0,007
1093,9	0,009
1094,3	0,006
1094,7	0,008
1095,1	0,011
1095,5	0,005
1096	0,005
1096,4	0,005
1096,8	0,004
1097,2	0,005
1097,6	0,001
1098	0
1098,4	0,005
1098,8	0,011
1099,2	0,012
1099,6	0,016
1100,1	0,012
1100,5	0,014
1100,9	0,015
1101,3	0,022
1101,7	0,021
1102,1	0,015
1102,5	0,014
1102,9	0,021
1103,3	0,019
1103,7	0,011
1104,2	0,002
1104,6	-0,002
1105	0,006
1105,4	0,008
1105,8	0,013
1106,2	0,028
1106,6	0,054
1107	0,044
1107,4	0,059
1107,8	0,071
1108,3	-0,094
