Data from Absorbance_00075.txt Node
Date: Fri Aug 11 13:39:05 MSK 2023
User: vat
Spectrometer: MAYP114033
Trigger mode: 0
Integration Time (sec): 8,000000E-3
Scans to average: 10
Electric dark correction enabled: true
Nonlinearity correction enabled: false
Boxcar width: 3
XAxis mode: Wavelengths
Number of Pixels in Spectrum: 2068
>>>>>Begin Spectral Data<<<<<
199,4	-0
199,9	0,087
200,4	0,38
200,8	0,739
201,3	0,872
201,8	0,938
202,2	0,968
202,7	0,994
203,2	1,047
203,6	1,078
204,1	1,093
204,6	1,111
205	1,121
205,5	1,133
206	1,14
206,4	1,148
206,9	1,167
207,4	1,177
207,8	1,193
208,3	1,209
208,8	1,224
209,2	1,228
209,7	1,235
210,2	1,244
210,6	1,248
211,1	1,254
211,5	1,27
212	1,274
212,5	1,312
212,9	1,345
213,4	1,357
213,9	1,367
214,3	1,387
214,8	1,404
215,3	1,424
215,7	1,431
216,2	1,426
216,7	1,457
217,1	1,499
217,6	1,522
218,1	1,52
218,5	1,531
219	1,542
219,5	1,555
219,9	1,559
220,4	1,563
220,9	1,576
221,3	1,589
221,8	1,611
222,3	1,622
222,7	1,636
223,2	1,655
223,6	1,682
224,1	1,68
224,6	1,697
225	1,71
225,5	1,718
226	1,741
226,4	1,756
226,9	1,759
227,4	1,789
227,8	1,799
228,3	1,807
228,8	1,833
229,2	1,834
229,7	1,838
230,2	1,836
230,6	1,839
231,1	1,838
231,5	1,854
232	1,85
232,5	1,862
232,9	1,873
233,4	1,885
233,9	1,886
234,3	1,903
234,8	1,9
235,3	1,908
235,7	1,916
236,2	1,922
236,7	1,928
237,1	1,942
237,6	1,958
238,1	1,966
238,5	1,97
239	1,979
239,4	1,984
239,9	1,998
240,4	1,997
240,8	1,999
241,3	2,005
241,8	2,034
242,2	2,042
242,7	2,043
243,2	2,05
243,6	2,081
244,1	2,081
244,6	2,093
245	2,091
245,5	2,09
245,9	2,115
246,4	2,125
246,9	2,118
247,3	2,124
247,8	2,113
248,3	2,107
248,7	2,12
249,2	2,116
249,7	2,111
250,1	2,091
250,6	2,094
251	2,104
251,5	2,106
252	2,111
252,4	2,117
252,9	2,127
253,4	2,144
253,8	2,147
254,3	2,136
254,8	2,134
255,2	2,128
255,7	2,106
256,1	2,093
256,6	2,092
257,1	2,095
257,5	2,104
258	2,117
258,5	2,115
258,9	2,129
259,4	2,138
259,9	2,147
260,3	2,153
260,8	2,147
261,2	2,159
261,7	2,174
262,2	2,174
262,6	2,167
263,1	2,164
263,6	2,157
264	2,163
264,5	2,168
264,9	2,151
265,4	2,14
265,9	2,138
266,3	2,142
266,8	2,155
267,3	2,144
267,7	2,12
268,2	2,107
268,7	2,112
269,1	2,097
269,6	2,087
270	2,071
270,5	2,085
271	2,089
271,4	2,096
271,9	2,082
272,4	2,078
272,8	2,054
273,3	2,042
273,7	2,018
274,2	1,987
274,7	1,966
275,1	1,938
275,6	1,918
276,1	1,891
276,5	1,853
277	1,809
277,4	1,759
277,9	1,704
278,4	1,655
278,8	1,592
279,3	1,534
279,8	1,472
280,2	1,409
280,7	1,345
281,1	1,281
281,6	1,22
282,1	1,162
282,5	1,105
283	1,053
283,4	1,005
283,9	0,961
284,4	0,92
284,8	0,882
285,3	0,848
285,8	0,817
286,2	0,787
286,7	0,762
287,1	0,739
287,6	0,722
288,1	0,704
288,5	0,69
289	0,679
289,5	0,668
289,9	0,66
290,4	0,653
290,8	0,645
291,3	0,64
291,8	0,635
292,2	0,63
292,7	0,627
293,1	0,623
293,6	0,619
294,1	0,617
294,5	0,616
295	0,613
295,5	0,612
295,9	0,609
296,4	0,608
296,8	0,606
297,3	0,603
297,8	0,599
298,2	0,596
298,7	0,594
299,1	0,593
299,6	0,59
300,1	0,589
300,5	0,586
301	0,585
301,5	0,584
301,9	0,581
302,4	0,579
302,8	0,575
303,3	0,574
303,8	0,571
304,2	0,568
304,7	0,565
305,1	0,563
305,6	0,559
306,1	0,556
306,5	0,552
307	0,548
307,4	0,545
307,9	0,541
308,4	0,537
308,8	0,534
309,3	0,531
309,8	0,527
310,2	0,524
310,7	0,52
311,1	0,516
311,6	0,512
312,1	0,508
312,5	0,504
313	0,501
313,4	0,497
313,9	0,493
314,4	0,489
314,8	0,486
315,3	0,481
315,7	0,477
316,2	0,472
316,7	0,467
317,1	0,462
317,6	0,457
318	0,452
318,5	0,448
319	0,443
319,4	0,438
319,9	0,435
320,3	0,43
320,8	0,425
321,3	0,42
321,7	0,414
322,2	0,409
322,6	0,403
323,1	0,398
323,6	0,392
324	0,387
324,5	0,382
324,9	0,377
325,4	0,372
325,9	0,368
326,3	0,363
326,8	0,358
327,2	0,353
327,7	0,349
328,2	0,344
328,6	0,339
329,1	0,335
329,5	0,329
330	0,326
330,5	0,321
330,9	0,316
331,4	0,312
331,8	0,307
332,3	0,301
332,8	0,297
333,2	0,293
333,7	0,289
334,1	0,285
334,6	0,281
335,1	0,277
335,5	0,274
336	0,269
336,4	0,265
336,9	0,261
337,4	0,256
337,8	0,252
338,3	0,248
338,7	0,244
339,2	0,24
339,7	0,236
340,1	0,232
340,6	0,228
341	0,224
341,5	0,221
342	0,217
342,4	0,213
342,9	0,21
343,3	0,207
343,8	0,204
344,2	0,201
344,7	0,198
345,2	0,195
345,6	0,193
346,1	0,19
346,5	0,187
347	0,184
347,5	0,181
347,9	0,177
348,4	0,174
348,8	0,17
349,3	0,167
349,8	0,165
350,2	0,162
350,7	0,16
351,1	0,158
351,6	0,156
352	0,153
352,5	0,151
353	0,148
353,4	0,145
353,9	0,143
354,3	0,14
354,8	0,138
355,3	0,136
355,7	0,133
356,2	0,131
356,6	0,129
357,1	0,127
357,5	0,125
358	0,123
358,5	0,12
358,9	0,119
359,4	0,118
359,8	0,116
360,3	0,114
360,8	0,112
361,2	0,11
361,7	0,109
362,1	0,107
362,6	0,105
363	0,102
363,5	0,1
364	0,099
364,4	0,097
364,9	0,096
365,3	0,095
365,8	0,093
366,3	0,093
366,7	0,091
367,2	0,089
367,6	0,088
368,1	0,086
368,5	0,084
369	0,083
369,5	0,081
369,9	0,08
370,4	0,079
370,8	0,078
371,3	0,076
371,7	0,076
372,2	0,075
372,7	0,074
373,1	0,073
373,6	0,071
374	0,07
374,5	0,069
374,9	0,068
375,4	0,067
375,9	0,065
376,3	0,064
376,8	0,064
377,2	0,063
377,7	0,063
378,2	0,061
378,6	0,061
379,1	0,059
379,5	0,058
380	0,057
380,4	0,056
380,9	0,055
381,4	0,054
381,8	0,054
382,3	0,054
382,7	0,053
383,2	0,053
383,6	0,052
384,1	0,052
384,6	0,051
385	0,05
385,5	0,049
385,9	0,048
386,4	0,048
386,8	0,047
387,3	0,046
387,7	0,045
388,2	0,044
388,7	0,044
389,1	0,043
389,6	0,042
390	0,042
390,5	0,042
390,9	0,041
391,4	0,041
391,9	0,04
392,3	0,039
392,8	0,039
393,2	0,038
393,7	0,037
394,1	0,037
394,6	0,036
395,1	0,036
395,5	0,036
396	0,036
396,4	0,035
396,9	0,035
397,3	0,034
397,8	0,034
398,2	0,033
398,7	0,033
399,2	0,032
399,6	0,032
400,1	0,032
400,5	0,032
401	0,03
401,4	0,03
401,9	0,029
402,4	0,029
402,8	0,028
403,3	0,027
403,7	0,027
404,2	0,027
404,6	0,028
405,1	0,027
405,5	0,027
406	0,027
406,5	0,027
406,9	0,026
407,4	0,026
407,8	0,025
408,3	0,025
408,7	0,024
409,2	0,023
409,6	0,023
410,1	0,023
410,6	0,023
411	0,022
411,5	0,022
411,9	0,022
412,4	0,023
412,8	0,022
413,3	0,022
413,7	0,022
414,2	0,022
414,7	0,022
415,1	0,021
415,6	0,021
416	0,02
416,5	0,02
416,9	0,02
417,4	0,02
417,8	0,019
418,3	0,019
418,8	0,018
419,2	0,018
419,7	0,018
420,1	0,017
420,6	0,017
421	0,017
421,5	0,017
421,9	0,017
422,4	0,016
422,8	0,016
423,3	0,016
423,8	0,015
424,2	0,015
424,7	0,014
425,1	0,014
425,6	0,014
426	0,014
426,5	0,013
426,9	0,013
427,4	0,013
427,9	0,013
428,3	0,012
428,8	0,012
429,2	0,012
429,7	0,012
430,1	0,011
430,6	0,011
431	0,01
431,5	0,01
431,9	0,01
432,4	0,009
432,8	0,009
433,3	0,01
433,8	0,01
434,2	0,01
434,7	0,009
435,1	0,009
435,6	0,009
436	0,009
436,5	0,009
436,9	0,009
437,4	0,009
437,8	0,009
438,3	0,009
438,8	0,009
439,2	0,008
439,7	0,008
440,1	0,007
440,6	0,006
441	0,006
441,5	0,006
441,9	0,006
442,4	0,006
442,8	0,005
443,3	0,005
443,7	0,006
444,2	0,006
444,7	0,006
445,1	0,006
445,6	0,005
446	0,006
446,5	0,006
446,9	0,005
447,4	0,005
447,8	0,005
448,3	0,005
448,7	0,005
449,2	0,005
449,6	0,005
450,1	0,004
450,6	0,004
451	0,004
451,5	0,004
451,9	0,003
452,4	0,003
452,8	0,002
453,3	0,002
453,7	0,003
454,2	0,003
454,6	0,003
455,1	0,002
455,5	0,003
456	0,003
456,4	0,003
456,9	0,003
457,3	0,003
457,8	0,003
458,3	0,002
458,7	0,002
459,2	0,002
459,6	0,002
460,1	0,001
460,5	0,001
461	0,001
461,4	0,002
461,9	0,001
462,3	0,001
462,8	0,001
463,2	0,001
463,7	0,001
464,1	0,001
464,6	0,001
465	0,002
465,5	0,001
466	0,001
466,4	0,002
466,9	0,001
467,3	0,001
467,8	0,001
468,2	0
468,7	0,001
469,1	0
469,6	0
470	-0
470,5	-0
470,9	0
471,4	0,001
471,8	0
472,3	0
472,7	0
473,2	0
473,6	0
474,1	-0
474,5	-0
475	-0
475,4	0
475,9	-0
476,4	-0
476,8	-0,001
477,3	-0
477,7	-0,001
478,2	-0,001
478,6	-0,001
479,1	-0,001
479,5	-0
480	0,001
480,4	0,001
480,9	0,001
481,3	0,001
481,8	0,001
482,2	0
482,7	0
483,1	0
483,6	-0,001
484	-0,001
484,5	-0,001
484,9	-0,001
485,4	-0,001
485,8	-0
486,3	-0
486,7	-0,001
487,2	-0,001
487,6	-0,001
488,1	-0
488,5	-0
489	-0,001
489,4	-0,001
489,9	-0,001
490,4	0
490,8	0
491,3	-0
491,7	-0
492,2	-0
492,6	-0
493,1	-0,001
493,5	-0,001
494	-0
494,4	-0
494,9	-0
495,3	-0
495,8	-0
496,2	0
496,7	-0
497,1	-0,001
497,6	-0,001
498	-0,001
498,5	-0,001
498,9	-0,001
499,4	-0,002
499,8	-0,001
500,3	-0,002
500,7	-0,001
501,2	-0,001
501,6	-0,001
502,1	-0,001
502,5	-0,001
503	-0,001
503,4	-0,001
503,9	-0,001
504,3	-0,001
504,8	-0,001
505,2	-0,001
505,7	-0,001
506,1	-0,001
506,6	-0,001
507	0
507,5	-0
507,9	-0,001
508,4	-0,001
508,8	-0,002
509,3	-0,001
509,7	-0,002
510,2	-0,001
510,6	-0,001
511,1	-0,001
511,5	-0,002
512	-0,002
512,4	-0,002
512,9	-0,002
513,3	-0,002
513,8	-0,002
514,2	-0,002
514,7	-0,001
515,1	-0,001
515,6	-0
516	-0,001
516,5	-0
516,9	-0
517,4	-0
517,8	-0,001
518,3	-0,002
518,7	-0,001
519,2	-0,001
519,6	-0,001
520,1	-0,001
520,5	-0,002
521	-0,001
521,4	-0,001
521,9	-0,001
522,3	-0
522,8	-0
523,2	-0,001
523,7	-0,001
524,1	-0,001
524,6	-0,001
525	-0,001
525,5	-0,002
525,9	-0,002
526,4	-0,001
526,8	-0,001
527,3	-0,001
527,7	-0
528,2	-0,001
528,6	-0,001
529,1	-0,001
529,5	-0,001
530	-0,001
530,4	-0,001
530,9	-0,001
531,3	-0,001
531,8	-0,001
532,2	-0,001
532,6	-0
533,1	0
533,5	0
534	-0
534,4	-0
534,9	-0,001
535,3	-0,001
535,8	-0,002
536,2	-0,003
536,7	-0,003
537,1	-0,004
537,6	-0,004
538	-0,003
538,5	-0,003
538,9	-0,002
539,4	-0,002
539,8	-0,001
540,3	-0
540,7	0
541,2	0
541,6	0,001
542,1	-0
542,5	-0,001
543	-0,002
543,4	-0,003
543,9	-0,003
544,3	-0,003
544,8	-0,004
545,2	-0,004
545,7	-0,003
546,1	-0,002
546,5	-0,002
547	-0,002
547,4	-0,002
547,9	-0,002
548,3	-0,002
548,8	-0,002
549,2	-0,002
549,7	-0,002
550,1	-0,001
550,6	-0,001
551	-0,001
551,5	-0,001
551,9	-0,001
552,4	-0
552,8	0
553,3	-0
553,7	-0,001
554,2	-0,001
554,6	-0,001
555,1	-0,002
555,5	-0,002
555,9	-0,003
556,4	-0,003
556,8	-0,002
557,3	-0,003
557,7	-0,002
558,2	-0,002
558,6	-0,002
559,1	-0,003
559,5	-0,003
560	-0,003
560,4	-0,003
560,9	-0,002
561,3	-0,002
561,8	-0,002
562,2	-0,001
562,7	-0,001
563,1	-0,001
563,6	-0
564	-0
564,4	-0
564,9	-0,001
565,3	-0,001
565,8	-0,001
566,2	-0,001
566,7	-0,001
567,1	-0,002
567,6	-0,001
568	-0,001
568,5	-0,002
568,9	-0,002
569,4	-0,002
569,8	-0,001
570,3	-0,001
570,7	-0,001
571,1	-0,001
571,6	-0,001
572	-0,001
572,5	-0,001
572,9	-0,001
573,4	-0,001
573,8	-0,001
574,3	-0,002
574,7	-0,002
575,2	-0,002
575,6	-0,002
576,1	-0,002
576,5	-0,002
576,9	-0,002
577,4	-0,002
577,8	-0,001
578,3	-0,001
578,7	-0,001
579,2	-0,002
579,6	-0,001
580,1	-0,001
580,5	-0,002
581	-0,001
581,4	-0,001
581,9	-0,001
582,3	-0,002
582,7	-0,002
583,2	-0,001
583,6	-0,001
584,1	-0,001
584,5	-0,002
585	-0,001
585,4	-0,001
585,9	-0,001
586,3	-0,001
586,8	-0,001
587,2	-0,002
587,6	-0,001
588,1	-0,002
588,5	-0,002
589	-0,002
589,4	-0,002
589,9	-0,002
590,3	-0,002
590,8	-0,002
591,2	-0,002
591,7	-0,001
592,1	-0,001
592,5	-0,001
593	-0,001
593,4	-0,001
593,9	-0,001
594,3	-0,001
594,8	-0,001
595,2	-0,001
595,7	-0,001
596,1	-0,001
596,6	-0,001
597	-0,001
597,4	-0,001
597,9	-0,001
598,3	-0,001
598,8	-0,002
599,2	-0,002
599,7	-0,002
600,1	-0,002
600,6	-0,003
601	-0,003
601,4	-0,003
601,9	-0,003
602,3	-0,003
602,8	-0,003
603,2	-0,003
603,7	-0,003
604,1	-0,003
604,6	-0,002
605	-0,002
605,4	-0,002
605,9	-0,002
606,3	-0,002
606,8	-0,002
607,2	-0,002
607,7	-0,002
608,1	-0,001
608,6	-0,002
609	-0,001
609,4	-0,001
609,9	-0,001
610,3	-0,002
610,8	-0,002
611,2	-0,002
611,7	-0,002
612,1	-0,002
612,6	-0,002
613	-0,003
613,4	-0,002
613,9	-0,002
614,3	-0,002
614,8	-0,002
615,2	-0,002
615,7	-0,002
616,1	-0,002
616,6	-0,002
617	-0,002
617,4	-0,002
617,9	-0,002
618,3	-0,001
618,8	-0,001
619,2	-0,001
619,7	-0,001
620,1	-0,001
620,5	-0,001
621	-0,001
621,4	-0,001
621,9	-0,001
622,3	-0,001
622,8	-0,001
623,2	-0,001
623,6	-0,001
624,1	-0,001
624,5	-0,001
625	-0,001
625,4	-0,001
625,9	-0,001
626,3	-0,002
626,8	-0,001
627,2	-0,001
627,6	-0,001
628,1	-0,001
628,5	-0,001
629	-0,001
629,4	-0,001
629,9	-0,001
630,3	-0,001
630,7	-0,001
631,2	-0,001
631,6	-0
632,1	-0,001
632,5	-0,001
633	-0,001
633,4	-0,001
633,8	-0,001
634,3	-0,001
634,7	-0,002
635,2	-0,001
635,6	-0,001
636,1	-0,001
636,5	-0,001
636,9	-0,001
637,4	-0,002
637,8	-0,001
638,3	-0,002
638,7	-0,001
639,2	-0,001
639,6	-0,001
640	-0,001
640,5	-0,001
640,9	-0,001
641,4	-0,002
641,8	-0,002
642,2	-0,002
642,7	-0,002
643,1	-0,002
643,6	-0,002
644	-0,002
644,5	-0,001
644,9	-0,002
645,3	-0,001
645,8	-0,001
646,2	-0,001
646,7	-0,001
647,1	-0
647,6	-0
648	-0
648,4	-0,001
648,9	-0,001
649,3	-0,001
649,8	-0,001
650,2	-0,001
650,6	-0,001
651,1	-0,002
651,5	-0,001
652	-0,002
652,4	-0,002
652,9	-0,002
653,3	-0,002
653,7	-0,002
654,2	-0,002
654,6	-0,003
655,1	-0,003
655,5	-0,002
655,9	-0,001
656,4	-0,001
656,8	-0
657,3	0
657,7	0,001
658,2	0,002
658,6	0,002
659	0,003
659,5	0,005
659,9	0,005
660,4	0,004
660,8	0,003
661,2	0,001
661,7	0,001
662,1	-0
662,6	-0,001
663	-0,001
663,4	-0,001
663,9	-0,002
664,3	-0,002
664,8	-0,003
665,2	-0,002
665,6	-0,002
666,1	-0,002
666,5	-0,002
667	-0,002
667,4	-0,001
667,9	-0,001
668,3	-0,001
668,7	-0,001
669,2	-0,001
669,6	-0,001
670,1	-0,002
670,5	-0,002
670,9	-0,002
671,4	-0,002
671,8	-0,002
672,3	-0,002
672,7	-0,002
673,1	-0,002
673,6	-0,002
674	-0,002
674,5	-0,002
674,9	-0,002
675,3	-0,002
675,8	-0,002
676,2	-0,002
676,7	-0,002
677,1	-0,002
677,5	-0,002
678	-0,002
678,4	-0,002
678,9	-0,002
679,3	-0,002
679,7	-0,001
680,2	-0,001
680,6	-0,002
681,1	-0,002
681,5	-0,002
681,9	-0,002
682,4	-0,001
682,8	-0,002
683,3	-0,001
683,7	-0,001
684,1	-0,001
684,6	-0,001
685	-0,002
685,5	-0,002
685,9	-0,002
686,3	-0,002
686,8	-0,002
687,2	-0,002
687,7	-0,002
688,1	-0,002
688,5	-0,002
689	-0,001
689,4	-0,001
689,9	-0,001
690,3	-0,001
690,7	-0,001
691,2	-0,001
691,6	-0,001
692	-0,001
692,5	-0,001
692,9	-0,001
693,4	-0,001
693,8	-0,001
694,2	-0,001
694,7	-0,001
695,1	-0,001
695,6	-0,001
696	-0,001
696,4	-0,001
696,9	-0,001
697,3	-0,001
697,8	-0,001
698,2	-0,001
698,6	-0,001
699,1	-0,001
699,5	-0,001
699,9	-0,002
700,4	-0,002
700,8	-0,001
701,3	-0,001
701,7	-0,001
702,1	-0,001
702,6	-0,001
703	-0,001
703,5	-0,001
703,9	-0,001
704,3	-0,001
704,8	-0,001
705,2	-0,001
705,6	-0,001
706,1	-0,001
706,5	-0,002
707	-0,002
707,4	-0,002
707,8	-0,001
708,3	-0,002
708,7	-0,001
709,2	-0,002
709,6	-0,001
710	-0,001
710,5	-0,001
710,9	-0,002
711,3	-0,002
711,8	-0,001
712,2	-0,001
712,7	-0,001
713,1	-0,001
713,5	-0,002
714	-0,002
714,4	-0,002
714,8	-0,001
715,3	-0,002
715,7	-0,002
716,2	-0,002
716,6	-0,002
717	-0,001
717,5	-0,002
717,9	-0,002
718,3	-0,002
718,8	-0,002
719,2	-0,003
719,7	-0,003
720,1	-0,002
720,5	-0,002
721	-0,002
721,4	-0,001
721,8	-0,002
722,3	-0,001
722,7	-0,001
723,2	-0,002
723,6	-0,002
724	-0,002
724,5	-0,003
724,9	-0,002
725,3	-0,002
725,8	-0,002
726,2	-0,002
726,7	-0,002
727,1	-0,002
727,5	-0,002
728	-0,002
728,4	-0,002
728,8	-0,003
729,3	-0,003
729,7	-0,003
730,1	-0,003
730,6	-0,003
731	-0,003
731,5	-0,002
731,9	-0,002
732,3	-0,002
732,8	-0,001
733,2	-0,001
733,6	-0,001
734,1	-0,001
734,5	-0,001
734,9	-0,001
735,4	-0,001
735,8	-0,001
736,3	-0,002
736,7	-0,001
737,1	-0,001
737,6	-0,001
738	-0,002
738,4	-0,001
738,9	-0,001
739,3	-0,001
739,7	-0,002
740,2	-0,002
740,6	-0,002
741,1	-0,002
741,5	-0,002
741,9	-0,002
742,4	-0,002
742,8	-0,002
743,2	-0,001
743,7	-0,001
744,1	-0,001
744,5	-0,001
745	-0,001
745,4	-0,001
745,8	-0,001
746,3	-0,001
746,7	-0,001
747,2	-0,002
747,6	-0,002
748	-0,001
748,5	-0,001
748,9	-0,001
749,3	-0,001
749,8	-0,001
750,2	-0,001
750,6	-0,001
751,1	-0,001
751,5	-0
751,9	-0
752,4	-0
752,8	-0
753,3	-0
753,7	-0,001
754,1	-0,001
754,6	-0,001
755	-0,001
755,4	-0,001
755,9	-0,001
756,3	-0,001
756,7	-0,001
757,2	-0,001
757,6	-0,001
758	-0,001
758,5	-0,001
758,9	-0,001
759,3	-0,002
759,8	-0,001
760,2	-0,001
760,6	-0,001
761,1	-0,001
761,5	-0,001
761,9	-0,001
762,4	-0
762,8	-0
763,3	-0
763,7	-0
764,1	0
764,6	0
765	-0
765,4	-0
765,9	0
766,3	0
766,7	0,001
767,2	0,001
767,6	0,001
768	0,001
768,5	0,001
768,9	0,001
769,3	0,001
769,8	0,001
770,2	0,001
770,6	0
771,1	0
771,5	-0
771,9	-0
772,4	-0
772,8	-0
773,2	-0
773,7	-0
774,1	0
774,5	0,001
775	0,001
775,4	0
775,8	0
776,3	0
776,7	0
777,1	0
777,6	-0
778	0
778,4	-0
778,9	-0
779,3	-0
779,7	-0,001
780,2	-0,001
780,6	-0
781	-0
781,5	-0
781,9	-0
782,3	-0
782,8	0
783,2	0
783,6	0
784,1	0
784,5	0
784,9	-0
785,4	-0
785,8	-0,001
786,2	-0,001
786,7	-0,001
787,1	-0,001
787,5	-0,002
788	-0,002
788,4	-0,002
788,8	-0,002
789,3	-0,002
789,7	-0,002
790,1	-0,002
790,6	-0,002
791	-0,002
791,4	-0,002
791,9	-0,002
792,3	-0,002
792,7	-0,002
793,2	-0,002
793,6	-0,002
794	-0,002
794,5	-0,002
794,9	-0,002
795,3	-0,002
795,8	-0,001
796,2	-0,001
796,6	-0,001
797,1	0
797,5	0
797,9	0
798,4	0
798,8	-0
799,2	-0
799,7	-0
800,1	-0,001
800,5	-0,001
801	-0,001
801,4	-0,002
801,8	-0,001
802,2	-0,001
802,7	-0,002
803,1	-0,001
803,5	-0,001
804	-0,001
804,4	-0,001
804,8	-0,001
805,3	-0,001
805,7	-0,001
806,1	-0,001
806,6	-0,001
807	-0,002
807,4	-0,002
807,9	-0,001
808,3	-0,001
808,7	-0,001
809,2	-0,001
809,6	-0,001
810	-0,001
810,4	-0,001
810,9	-0,001
811,3	-0,001
811,7	-0,001
812,2	-0,001
812,6	-0,001
813	-0,001
813,5	-0,001
813,9	-0,001
814,3	-0,001
814,8	-0,001
815,2	-0,002
815,6	-0,002
816,1	-0,002
816,5	-0,002
816,9	-0,003
817,3	-0,002
817,8	-0,002
818,2	-0,002
818,6	-0,002
819,1	-0,001
819,5	-0,001
819,9	-0,001
820,4	-0,002
820,8	-0,002
821,2	-0,002
821,7	-0,003
822,1	-0,003
822,5	-0,003
822,9	-0,004
823,4	-0,003
823,8	-0,004
824,2	-0,003
824,7	-0,003
825,1	-0,003
825,5	-0,002
826	-0,002
826,4	-0,002
826,8	-0,001
827,3	-0,001
827,7	-0,001
828,1	-0,001
828,5	-0,001
829	-0,001
829,4	-0,001
829,8	-0,001
830,3	-0,001
830,7	-0
831,1	-0,001
831,6	-0,001
832	-0,001
832,4	-0,001
832,8	-0,001
833,3	-0,002
833,7	-0,002
834,1	-0,002
834,6	-0,002
835	-0,002
835,4	-0,002
835,8	-0,002
836,3	-0,002
836,7	-0,002
837,1	-0,003
837,6	-0,002
838	-0,002
838,4	-0,002
838,9	-0,002
839,3	-0,002
839,7	-0,002
840,1	-0,001
840,6	-0
841	-0
841,4	-0
841,9	-0,001
842,3	-0,001
842,7	-0,001
843,1	-0,001
843,6	-0,001
844	-0,001
844,4	-0,001
844,9	-0,001
845,3	-0,001
845,7	-0,001
846,2	-0,001
846,6	-0,001
847	-0,001
847,4	-0,001
847,9	-0
848,3	-0,001
848,7	-0
849,2	-0,001
849,6	-0,001
850	-0,001
850,4	-0,001
850,9	-0,001
851,3	-0,001
851,7	-0,001
852,2	-0
852,6	-0
853	0
853,4	0
853,9	0
854,3	0
854,7	0
855,2	0
855,6	-0
856	0
856,4	-0
856,9	-0
857,3	-0
857,7	-0
858,2	-0,001
858,6	-0,001
859	-0,001
859,4	-0,002
859,9	-0,002
860,3	-0,002
860,7	-0,002
861,1	-0,002
861,6	-0,002
862	-0,002
862,4	-0,002
862,9	-0,002
863,3	-0,002
863,7	-0,002
864,1	-0,001
864,6	-0,001
865	-0,001
865,4	-0,001
865,9	-0,001
866,3	-0,001
866,7	-0
867,1	-0,001
867,6	-0
868	-0
868,4	-0,001
868,8	-0,001
869,3	-0,001
869,7	-0,001
870,1	-0,001
870,6	-0,001
871	-0,001
871,4	-0,001
871,8	-0,001
872,3	-0,001
872,7	-0,002
873,1	-0,002
873,5	-0,003
874	-0,002
874,4	-0,003
874,8	-0,003
875,3	-0,003
875,7	-0,003
876,1	-0,003
876,5	-0,003
877	-0,003
877,4	-0,003
877,8	-0,003
878,2	-0,003
878,7	-0,003
879,1	-0,003
879,5	-0,003
879,9	-0,002
880,4	-0,002
880,8	-0,002
881,2	-0,001
881,7	-0,001
882,1	-0,001
882,5	-0,001
882,9	-0,002
883,4	-0,002
883,8	-0,002
884,2	-0,002
884,6	-0,002
885,1	-0,003
885,5	-0,002
885,9	-0,002
886,3	-0,002
886,8	-0,002
887,2	-0,002
887,6	-0,001
888	-0,001
888,5	-0,001
888,9	-0,001
889,3	-0,001
889,8	-0,001
890,2	-0,001
890,6	-0
891	-0
891,5	-0
891,9	-0
892,3	-0,001
892,7	-0,001
893,2	-0,001
893,6	-0,001
894	-0,001
894,4	-0,001
894,9	-0,001
895,3	-0,001
895,7	-0,001
896,1	-0,001
896,6	-0,001
897	-0,001
897,4	-0,001
897,8	-0,001
898,3	-0,002
898,7	-0,002
899,1	-0,002
899,5	-0,002
900	-0,002
900,4	-0,002
900,8	-0,002
901,2	-0,002
901,7	-0,002
902,1	-0,002
902,5	-0,002
902,9	-0,002
903,4	-0,002
903,8	-0,002
904,2	-0,002
904,6	-0,002
905,1	-0,002
905,5	-0,002
905,9	-0,002
906,3	-0,002
906,8	-0,002
907,2	-0,003
907,6	-0,003
908	-0,004
908,5	-0,004
908,9	-0,004
909,3	-0,005
909,7	-0,005
910,2	-0,004
910,6	-0,005
911	-0,004
911,4	-0,003
911,9	-0,003
912,3	-0,003
912,7	-0,003
913,1	-0,002
913,6	-0,002
914	-0,002
914,4	-0,002
914,8	-0,003
915,3	-0,003
915,7	-0,003
916,1	-0,003
916,5	-0,003
916,9	-0,003
917,4	-0,003
917,8	-0,002
918,2	-0,001
918,6	-0,001
919,1	-0
919,5	0
919,9	0
920,3	0
920,8	0
921,2	0
921,6	-0
922	-0,001
922,5	-0,001
922,9	-0,001
923,3	-0,001
923,7	-0,001
924,2	-0,001
924,6	-0,001
925	-0,001
925,4	-0
925,8	-0
926,3	-0,001
926,7	-0,001
927,1	-0,001
927,5	-0,001
928	-0,001
928,4	-0,001
928,8	-0,001
929,2	-0
929,7	-0,001
930,1	-0,001
930,5	-0,001
930,9	-0
931,3	-0
931,8	-0
932,2	-0,001
932,6	-0,001
933	-0,001
933,5	-0,001
933,9	-0,002
934,3	-0,002
934,7	-0,001
935,2	-0,001
935,6	-0,001
936	-0,001
936,4	-0,001
936,8	-0,001
937,3	-0,001
937,7	-0,002
938,1	-0,002
938,5	-0,003
939	-0,003
939,4	-0,003
939,8	-0,003
940,2	-0,003
940,6	-0,003
941,1	-0,003
941,5	-0,002
941,9	-0,002
942,3	-0,002
942,8	-0,003
943,2	-0,003
943,6	-0,003
944	-0,003
944,4	-0,003
944,9	-0,002
945,3	-0,002
945,7	-0,002
946,1	-0,002
946,6	-0,002
947	-0,002
947,4	-0,003
947,8	-0,003
948,2	-0,003
948,7	-0,004
949,1	-0,004
949,5	-0,004
949,9	-0,004
950,3	-0,004
950,8	-0,004
951,2	-0,004
951,6	-0,004
952	-0,004
952,5	-0,003
952,9	-0,004
953,3	-0,003
953,7	-0,003
954,1	-0,003
954,6	-0,002
955	-0,002
955,4	-0,002
955,8	-0,001
956,2	-0,002
956,7	-0,002
957,1	-0,001
957,5	-0,001
957,9	-0,001
958,3	-0,001
958,8	-0,002
959,2	-0,002
959,6	-0,002
960	-0,003
960,5	-0,003
960,9	-0,004
961,3	-0,004
961,7	-0,003
962,1	-0,003
962,6	-0,003
963	-0,002
963,4	-0,002
963,8	-0,002
964,2	-0,002
964,7	-0,002
965,1	-0,002
965,5	-0,002
965,9	-0,001
966,3	-0
966,8	0
967,2	0,001
967,6	0,001
968	0,002
968,4	0,001
968,9	0,001
969,3	-0
969,7	-0,001
970,1	-0,002
970,5	-0,003
971	-0,003
971,4	-0,003
971,8	-0,003
972,2	-0,003
972,6	-0,003
973,1	-0,002
973,5	-0,002
973,9	-0,002
974,3	-0,002
974,7	-0,001
975,2	-0,001
975,6	-0,002
976	-0,002
976,4	-0,002
976,8	-0,002
977,3	-0,001
977,7	-0,002
978,1	-0,002
978,5	-0,001
978,9	-0
979,4	0
979,8	0
980,2	0
980,6	0,001
981	0,001
981,5	0,001
981,9	0
982,3	-0
982,7	-0
983,1	-0
983,6	-0,001
984	-0,002
984,4	-0,002
984,8	-0,002
985,2	-0,002
985,6	-0,002
986,1	-0,002
986,5	-0,002
986,9	-0,002
987,3	-0,001
987,7	-0,001
988,2	-0,001
988,6	-0,002
989	-0,002
989,4	-0,002
989,8	-0,003
990,3	-0,003
990,7	-0,004
991,1	-0,004
991,5	-0,004
991,9	-0,004
992,3	-0,003
992,8	-0,002
993,2	-0,002
993,6	-0,002
994	-0,001
994,4	-0,002
994,9	-0,002
995,3	-0,002
995,7	-0,002
996,1	-0,002
996,5	-0,001
996,9	-0,002
997,4	-0,001
997,8	-0,001
998,2	-0
998,6	-0,001
999	0
999,5	-0
999,9	0,001
1000,3	0
1000,7	0
1001,1	-0
1001,5	0
1002	-0,001
1002,4	-0,002
1002,8	-0,003
1003,2	-0,003
1003,6	-0,003
1004	-0,003
1004,5	-0,003
1004,9	-0,003
1005,3	-0,002
1005,7	-0,002
1006,1	-0,002
1006,6	-0,002
1007	-0,001
1007,4	-0,001
1007,8	-0,002
1008,2	-0,002
1008,6	-0,001
1009,1	-0,002
1009,5	-0,003
1009,9	-0,003
1010,3	-0,003
1010,7	-0,003
1011,1	-0,003
1011,6	-0,003
1012	-0,003
1012,4	-0,003
1012,8	-0,004
1013,2	-0,004
1013,6	-0,004
1014,1	-0,004
1014,5	-0,004
1014,9	-0,004
1015,3	-0,003
1015,7	-0,003
1016,1	-0,002
1016,6	-0,002
1017	-0,002
1017,4	-0,002
1017,8	-0,002
1018,2	-0,002
1018,6	-0,002
1019,1	-0,002
1019,5	-0,002
1019,9	-0,002
1020,3	-0,001
1020,7	-0,001
1021,1	-0,001
1021,6	-0,001
1022	-0
1022,4	-0,001
1022,8	-0,001
1023,2	-0,001
1023,6	-0,001
1024,1	-0,001
1024,5	-0,001
1024,9	0
1025,3	0,001
1025,7	0,002
1026,1	0,003
1026,6	0,003
1027	0,003
1027,4	0,003
1027,8	0,002
1028,2	0,003
1028,6	0,002
1029	0,002
1029,5	0,002
1029,9	0,002
1030,3	0,001
1030,7	0,002
1031,1	0,002
1031,5	0,002
1032	0,001
1032,4	0,001
1032,8	0
1033,2	0,001
1033,6	0
1034	0
1034,4	0
1034,9	-0
1035,3	-0
1035,7	0
1036,1	-0,001
1036,5	-0,001
1036,9	-0,002
1037,4	-0,002
1037,8	-0,001
1038,2	-0,001
1038,6	-0,002
1039	-0,001
1039,4	-0,001
1039,8	-0,001
1040,3	-0,001
1040,7	-0,002
1041,1	-0,002
1041,5	-0,003
1041,9	-0,004
1042,3	-0,004
1042,7	-0,004
1043,2	-0,004
1043,6	-0,004
1044	-0,004
1044,4	-0,003
1044,8	-0,003
1045,2	-0,002
1045,6	-0,003
1046,1	-0,002
1046,5	-0,002
1046,9	-0,001
1047,3	-0,002
1047,7	-0,002
1048,1	-0,002
1048,5	-0,002
1049	-0,003
1049,4	-0,003
1049,8	-0,004
1050,2	-0,003
1050,6	-0,003
1051	-0,003
1051,4	-0,003
1051,9	-0,003
1052,3	-0,003
1052,7	-0,003
1053,1	-0,002
1053,5	-0,002
1053,9	-0,002
1054,3	-0,002
1054,8	-0,002
1055,2	-0,002
1055,6	-0,002
1056	-0,002
1056,4	-0,002
1056,8	-0,002
1057,2	-0,002
1057,6	-0,003
1058,1	-0,002
1058,5	-0,003
1058,9	-0,003
1059,3	-0,002
1059,7	-0,003
1060,1	-0,003
1060,5	-0,003
1061	-0,003
1061,4	-0,002
1061,8	-0,002
1062,2	-0,003
1062,6	-0,003
1063	-0,003
1063,4	-0,003
1063,8	-0,003
1064,3	-0,003
1064,7	-0,003
1065,1	-0,003
1065,5	-0,004
1065,9	-0,004
1066,3	-0,003
1066,7	-0,002
1067,1	-0,002
1067,6	-0,002
1068	-0,001
1068,4	-0
1068,8	-0,001
1069,2	-0,001
1069,6	-0,002
1070	-0,002
1070,4	-0,002
1070,9	-0,002
1071,3	-0,002
1071,7	-0,002
1072,1	-0,002
1072,5	-0,002
1072,9	-0,002
1073,3	-0,002
1073,7	-0,002
1074,2	-0,002
1074,6	-0,002
1075	-0,002
1075,4	-0,001
1075,8	-0,001
1076,2	-0,002
1076,6	-0,002
1077	-0,003
1077,5	-0,003
1077,9	-0,003
1078,3	-0,004
1078,7	-0,004
1079,1	-0,003
1079,5	-0,005
1079,9	-0,004
1080,3	-0,005
1080,7	-0,005
1081,2	-0,005
1081,6	-0,003
1082	-0,003
1082,4	-0,002
1082,8	-0,004
1083,2	-0,002
1083,6	-0,003
1084	-0,002
1084,5	-0,004
1084,9	-0,005
1085,3	-0,004
1085,7	-0,002
1086,1	-0,003
1086,5	-0,002
1086,9	-0,002
1087,3	-0
1087,7	0,002
1088,2	0,001
1088,6	-0
1089	0,001
1089,4	0,001
1089,8	0,002
1090,2	-0,004
1090,6	-0,006
1091	-0,005
1091,4	-0,005
1091,9	-0,006
1092,3	-0,007
1092,7	-0,007
1093,1	-0,005
1093,5	-0,005
1093,9	-0,005
1094,3	-0,002
1094,7	-0,002
1095,1	0,002
1095,5	0,002
1096	0,007
1096,4	0,009
1096,8	0,01
1097,2	0,007
1097,6	0,007
1098	0,001
1098,4	0,002
1098,8	-0,003
1099,2	-0,005
1099,6	-0,002
1100,1	0,001
1100,5	0,004
1100,9	0,003
1101,3	0,007
1101,7	0,012
1102,1	0,01
1102,5	0,005
1102,9	0,011
1103,3	0,005
1103,7	0,006
1104,2	0,001
1104,6	-0,001
1105	-0,004
1105,4	0,005
1105,8	-0,001
1106,2	0,005
1106,6	0,005
1107	0
1107,4	-0,003
1107,8	0,045
1108,3	-0
