Data from Absorbance_00086.txt Node
Date: Fri Aug 11 13:49:31 MSK 2023
User: vat
Spectrometer: MAYP114033
Trigger mode: 0
Integration Time (sec): 8,000000E-3
Scans to average: 10
Electric dark correction enabled: true
Nonlinearity correction enabled: false
Boxcar width: 3
XAxis mode: Wavelengths
Number of Pixels in Spectrum: 2068
>>>>>Begin Spectral Data<<<<<
199,4	-0
199,9	0,049
200,4	0,43
200,8	0,749
201,3	0,887
201,8	0,936
202,2	0,945
202,7	0,972
203,2	1,016
203,6	1,039
204,1	1,052
204,6	1,065
205	1,071
205,5	1,101
206	1,11
206,4	1,136
206,9	1,145
207,4	1,166
207,8	1,179
208,3	1,208
208,8	1,22
209,2	1,24
209,7	1,243
210,2	1,255
210,6	1,273
211,1	1,291
211,5	1,314
212	1,329
212,5	1,356
212,9	1,374
213,4	1,399
213,9	1,395
214,3	1,399
214,8	1,409
215,3	1,428
215,7	1,428
216,2	1,421
216,7	1,431
217,1	1,46
217,6	1,476
218,1	1,488
218,5	1,484
219	1,494
219,5	1,507
219,9	1,52
220,4	1,537
220,9	1,554
221,3	1,556
221,8	1,581
222,3	1,61
222,7	1,64
223,2	1,659
223,6	1,657
224,1	1,662
224,6	1,691
225	1,697
225,5	1,709
226	1,724
226,4	1,73
226,9	1,745
227,4	1,749
227,8	1,742
228,3	1,771
228,8	1,764
229,2	1,754
229,7	1,765
230,2	1,767
230,6	1,784
231,1	1,773
231,5	1,764
232	1,771
232,5	1,773
232,9	1,774
233,4	1,773
233,9	1,763
234,3	1,772
234,8	1,766
235,3	1,769
235,7	1,772
236,2	1,784
236,7	1,792
237,1	1,8
237,6	1,815
238,1	1,824
238,5	1,831
239	1,843
239,4	1,838
239,9	1,848
240,4	1,863
240,8	1,865
241,3	1,874
241,8	1,894
242,2	1,902
242,7	1,921
243,2	1,941
243,6	1,959
244,1	1,969
244,6	1,977
245	1,981
245,5	1,999
245,9	2,005
246,4	2,017
246,9	2,022
247,3	2,041
247,8	2,05
248,3	2,059
248,7	2,066
249,2	2,069
249,7	2,075
250,1	2,077
250,6	2,064
251	2,083
251,5	2,082
252	2,1
252,4	2,12
252,9	2,126
253,4	2,126
253,8	2,136
254,3	2,137
254,8	2,139
255,2	2,134
255,7	2,128
256,1	2,117
256,6	2,129
257,1	2,152
257,5	2,147
258	2,16
258,5	2,147
258,9	2,146
259,4	2,132
259,9	2,137
260,3	2,139
260,8	2,144
261,2	2,14
261,7	2,159
262,2	2,16
262,6	2,186
263,1	2,16
263,6	2,15
264	2,136
264,5	2,133
264,9	2,126
265,4	2,114
265,9	2,085
266,3	2,085
266,8	2,073
267,3	2,067
267,7	2,046
268,2	2,038
268,7	2,028
269,1	2,024
269,6	2,015
270	1,992
270,5	1,99
271	1,975
271,4	1,942
271,9	1,92
272,4	1,885
272,8	1,851
273,3	1,825
273,7	1,783
274,2	1,748
274,7	1,709
275,1	1,665
275,6	1,621
276,1	1,577
276,5	1,526
277	1,478
277,4	1,426
277,9	1,374
278,4	1,325
278,8	1,277
279,3	1,226
279,8	1,178
280,2	1,131
280,7	1,084
281,1	1,04
281,6	0,997
282,1	0,955
282,5	0,917
283	0,881
283,4	0,847
283,9	0,819
284,4	0,792
284,8	0,767
285,3	0,745
285,8	0,727
286,2	0,711
286,7	0,695
287,1	0,681
287,6	0,67
288,1	0,659
288,5	0,651
289	0,641
289,5	0,634
289,9	0,629
290,4	0,624
290,8	0,621
291,3	0,617
291,8	0,613
292,2	0,612
292,7	0,609
293,1	0,606
293,6	0,603
294,1	0,6
294,5	0,599
295	0,597
295,5	0,594
295,9	0,592
296,4	0,591
296,8	0,589
297,3	0,588
297,8	0,585
298,2	0,583
298,7	0,582
299,1	0,58
299,6	0,578
300,1	0,575
300,5	0,572
301	0,571
301,5	0,568
301,9	0,565
302,4	0,563
302,8	0,56
303,3	0,558
303,8	0,556
304,2	0,553
304,7	0,551
305,1	0,549
305,6	0,546
306,1	0,544
306,5	0,541
307	0,537
307,4	0,534
307,9	0,53
308,4	0,526
308,8	0,523
309,3	0,519
309,8	0,516
310,2	0,513
310,7	0,509
311,1	0,505
311,6	0,501
312,1	0,497
312,5	0,492
313	0,488
313,4	0,484
313,9	0,481
314,4	0,477
314,8	0,473
315,3	0,47
315,7	0,466
316,2	0,462
316,7	0,457
317,1	0,452
317,6	0,447
318	0,443
318,5	0,439
319	0,434
319,4	0,429
319,9	0,425
320,3	0,421
320,8	0,417
321,3	0,412
321,7	0,407
322,2	0,402
322,6	0,398
323,1	0,393
323,6	0,388
324	0,383
324,5	0,378
324,9	0,374
325,4	0,369
325,9	0,365
326,3	0,361
326,8	0,356
327,2	0,351
327,7	0,347
328,2	0,342
328,6	0,338
329,1	0,333
329,5	0,328
330	0,323
330,5	0,319
330,9	0,315
331,4	0,311
331,8	0,306
332,3	0,302
332,8	0,297
333,2	0,293
333,7	0,29
334,1	0,285
334,6	0,28
335,1	0,276
335,5	0,273
336	0,269
336,4	0,265
336,9	0,261
337,4	0,256
337,8	0,253
338,3	0,249
338,7	0,245
339,2	0,241
339,7	0,237
340,1	0,233
340,6	0,23
341	0,226
341,5	0,223
342	0,219
342,4	0,216
342,9	0,214
343,3	0,21
343,8	0,207
344,2	0,203
344,7	0,2
345,2	0,196
345,6	0,194
346,1	0,191
346,5	0,188
347	0,185
347,5	0,183
347,9	0,18
348,4	0,177
348,8	0,173
349,3	0,171
349,8	0,168
350,2	0,165
350,7	0,162
351,1	0,16
351,6	0,158
352	0,155
352,5	0,153
353	0,151
353,4	0,148
353,9	0,146
354,3	0,143
354,8	0,141
355,3	0,139
355,7	0,137
356,2	0,135
356,6	0,133
357,1	0,131
357,5	0,129
358	0,127
358,5	0,125
358,9	0,123
359,4	0,121
359,8	0,119
360,3	0,117
360,8	0,115
361,2	0,113
361,7	0,111
362,1	0,11
362,6	0,109
363	0,106
363,5	0,105
364	0,103
364,4	0,102
364,9	0,101
365,3	0,099
365,8	0,097
366,3	0,096
366,7	0,095
367,2	0,093
367,6	0,091
368,1	0,089
368,5	0,088
369	0,087
369,5	0,085
369,9	0,083
370,4	0,083
370,8	0,081
371,3	0,08
371,7	0,079
372,2	0,078
372,7	0,077
373,1	0,076
373,6	0,075
374	0,074
374,5	0,073
374,9	0,072
375,4	0,071
375,9	0,07
376,3	0,07
376,8	0,068
377,2	0,067
377,7	0,067
378,2	0,065
378,6	0,065
379,1	0,064
379,5	0,062
380	0,062
380,4	0,061
380,9	0,059
381,4	0,058
381,8	0,058
382,3	0,058
382,7	0,058
383,2	0,057
383,6	0,056
384,1	0,056
384,6	0,055
385	0,054
385,5	0,053
385,9	0,052
386,4	0,051
386,8	0,051
387,3	0,05
387,7	0,049
388,2	0,048
388,7	0,048
389,1	0,047
389,6	0,047
390	0,047
390,5	0,046
390,9	0,045
391,4	0,044
391,9	0,044
392,3	0,043
392,8	0,043
393,2	0,042
393,7	0,041
394,1	0,041
394,6	0,041
395,1	0,04
395,5	0,04
396	0,04
396,4	0,039
396,9	0,039
397,3	0,038
397,8	0,038
398,2	0,038
398,7	0,037
399,2	0,037
399,6	0,037
400,1	0,037
400,5	0,036
401	0,036
401,4	0,035
401,9	0,034
402,4	0,034
402,8	0,033
403,3	0,033
403,7	0,032
404,2	0,033
404,6	0,033
405,1	0,033
405,5	0,033
406	0,032
406,5	0,032
406,9	0,032
407,4	0,031
407,8	0,03
408,3	0,029
408,7	0,028
409,2	0,028
409,6	0,028
410,1	0,028
410,6	0,028
411	0,028
411,5	0,027
411,9	0,027
412,4	0,028
412,8	0,027
413,3	0,026
413,7	0,026
414,2	0,026
414,7	0,026
415,1	0,026
415,6	0,026
416	0,025
416,5	0,025
416,9	0,024
417,4	0,024
417,8	0,023
418,3	0,023
418,8	0,023
419,2	0,023
419,7	0,023
420,1	0,023
420,6	0,022
421	0,022
421,5	0,022
421,9	0,021
422,4	0,021
422,8	0,021
423,3	0,021
423,8	0,02
424,2	0,02
424,7	0,019
425,1	0,019
425,6	0,018
426	0,018
426,5	0,017
426,9	0,017
427,4	0,017
427,9	0,017
428,3	0,017
428,8	0,017
429,2	0,017
429,7	0,017
430,1	0,016
430,6	0,016
431	0,015
431,5	0,015
431,9	0,014
432,4	0,014
432,8	0,014
433,3	0,014
433,8	0,014
434,2	0,014
434,7	0,013
435,1	0,013
435,6	0,014
436	0,013
436,5	0,013
436,9	0,013
437,4	0,012
437,8	0,013
438,3	0,013
438,8	0,012
439,2	0,012
439,7	0,012
440,1	0,011
440,6	0,01
441	0,01
441,5	0,01
441,9	0,01
442,4	0,01
442,8	0,01
443,3	0,01
443,7	0,01
444,2	0,01
444,7	0,01
445,1	0,009
445,6	0,009
446	0,009
446,5	0,009
446,9	0,009
447,4	0,008
447,8	0,008
448,3	0,008
448,7	0,009
449,2	0,009
449,6	0,009
450,1	0,008
450,6	0,009
451	0,008
451,5	0,008
451,9	0,007
452,4	0,007
452,8	0,007
453,3	0,007
453,7	0,007
454,2	0,006
454,6	0,007
455,1	0,007
455,5	0,007
456	0,007
456,4	0,008
456,9	0,008
457,3	0,008
457,8	0,008
458,3	0,007
458,7	0,007
459,2	0,006
459,6	0,006
460,1	0,005
460,5	0,005
461	0,005
461,4	0,005
461,9	0,005
462,3	0,004
462,8	0,004
463,2	0,004
463,7	0,004
464,1	0,005
464,6	0,005
465	0,006
465,5	0,006
466	0,006
466,4	0,006
466,9	0,005
467,3	0,005
467,8	0,005
468,2	0,004
468,7	0,004
469,1	0,004
469,6	0,004
470	0,004
470,5	0,004
470,9	0,004
471,4	0,004
471,8	0,004
472,3	0,004
472,7	0,004
473,2	0,005
473,6	0,004
474,1	0,004
474,5	0,004
475	0,004
475,4	0,004
475,9	0,004
476,4	0,003
476,8	0,003
477,3	0,003
477,7	0,003
478,2	0,003
478,6	0,003
479,1	0,002
479,5	0,003
480	0,004
480,4	0,004
480,9	0,004
481,3	0,003
481,8	0,003
482,2	0,003
482,7	0,003
483,1	0,002
483,6	0,002
484	0,002
484,5	0,002
484,9	0,002
485,4	0,002
485,8	0,004
486,3	0,004
486,7	0,003
487,2	0,003
487,6	0,003
488,1	0,004
488,5	0,004
489	0,002
489,4	0,002
489,9	0,003
490,4	0,004
490,8	0,005
491,3	0,004
491,7	0,004
492,2	0,004
492,6	0,004
493,1	0,003
493,5	0,003
494	0,002
494,4	0,002
494,9	0,002
495,3	0,003
495,8	0,003
496,2	0,003
496,7	0,003
497,1	0,003
497,6	0,003
498	0,003
498,5	0,002
498,9	0,002
499,4	0,002
499,8	0,002
500,3	0,002
500,7	0,002
501,2	0,002
501,6	0,002
502,1	0,003
502,5	0,003
503	0,003
503,4	0,003
503,9	0,002
504,3	0,003
504,8	0,003
505,2	0,002
505,7	0,003
506,1	0,003
506,6	0,003
507	0,004
507,5	0,004
507,9	0,003
508,4	0,003
508,8	0,003
509,3	0,003
509,7	0,003
510,2	0,002
510,6	0,003
511,1	0,003
511,5	0,003
512	0,003
512,4	0,003
512,9	0,003
513,3	0,002
513,8	0,002
514,2	0,002
514,7	0,003
515,1	0,003
515,6	0,003
516	0,003
516,5	0,003
516,9	0,003
517,4	0,003
517,8	0,001
518,3	0,002
518,7	0,001
519,2	0,002
519,6	0,002
520,1	0,002
520,5	0,001
521	0,002
521,4	0,002
521,9	0,002
522,3	0,003
522,8	0,003
523,2	0,002
523,7	0,003
524,1	0,003
524,6	0,002
525	0,002
525,5	0,002
525,9	0,002
526,4	0,002
526,8	0,002
527,3	0,002
527,7	0,003
528,2	0,003
528,6	0,003
529,1	0,003
529,5	0,003
530	0,003
530,4	0,003
530,9	0,003
531,3	0,003
531,8	0,003
532,2	0,003
532,6	0,003
533,1	0,003
533,5	0,002
534	0,002
534,4	0,001
534,9	0,001
535,3	0,001
535,8	0
536,2	0
536,7	0
537,1	0
537,6	0
538	0,001
538,5	0,001
538,9	0,001
539,4	0,001
539,8	0,002
540,3	0,001
540,7	0,002
541,2	0,002
541,6	0,003
542,1	0,002
542,5	0,002
543	0,002
543,4	0,002
543,9	0,001
544,3	0
544,8	-0
545,2	-0
545,7	0
546,1	0
546,5	0
547	0,001
547,4	0,001
547,9	0,002
548,3	0,002
548,8	0,002
549,2	0,001
549,7	0,002
550,1	0,001
550,6	0,001
551	0,001
551,5	0,001
551,9	0,001
552,4	0,001
552,8	0,001
553,3	0,001
553,7	0,001
554,2	0,001
554,6	0,001
555,1	0,001
555,5	0,001
555,9	0,001
556,4	0,001
556,8	0,002
557,3	0,002
557,7	0,001
558,2	0,002
558,6	0,001
559,1	0,001
559,5	0,001
560	0,001
560,4	0
560,9	0,001
561,3	0,001
561,8	0,001
562,2	0,001
562,7	0,001
563,1	0,001
563,6	0,001
564	0,001
564,4	0,001
564,9	0,001
565,3	0,002
565,8	0,002
566,2	0,002
566,7	0,002
567,1	0,001
567,6	0,001
568	0,002
568,5	0,001
568,9	0
569,4	0,001
569,8	0,001
570,3	0,001
570,7	0,001
571,1	0,001
571,6	0,001
572	0,001
572,5	0,001
572,9	0,001
573,4	0,001
573,8	0,001
574,3	0,001
574,7	0,001
575,2	0
575,6	0,001
576,1	0
576,5	0,001
576,9	0,001
577,4	0,001
577,8	0,001
578,3	0,001
578,7	0,001
579,2	0,001
579,6	0,001
580,1	0,001
580,5	0,001
581	0,001
581,4	0,001
581,9	0,001
582,3	0,001
582,7	0,001
583,2	0,001
583,6	0,001
584,1	0,001
584,5	0,001
585	0,001
585,4	0,001
585,9	0,001
586,3	0,001
586,8	0,001
587,2	0,001
587,6	0,001
588,1	0,001
588,5	0,001
589	0,001
589,4	0,001
589,9	0,001
590,3	0,001
590,8	0,001
591,2	0,002
591,7	0,002
592,1	0,002
592,5	0,002
593	0,002
593,4	0,002
593,9	0,002
594,3	0,002
594,8	0,002
595,2	0,001
595,7	0,001
596,1	0,001
596,6	0,001
597	0,001
597,4	0,001
597,9	0
598,3	0
598,8	0
599,2	-0
599,7	-0
600,1	-0
600,6	-0,001
601	-0,001
601,4	-0,001
601,9	-0,001
602,3	-0,001
602,8	-0,001
603,2	-0,001
603,7	-0,001
604,1	-0,001
604,6	-0
605	0
605,4	0
605,9	0
606,3	0,001
606,8	0,001
607,2	0,001
607,7	0,001
608,1	0,001
608,6	0,001
609	0,001
609,4	0,001
609,9	0
610,3	0
610,8	0,001
611,2	0,001
611,7	0,001
612,1	0,001
612,6	0,001
613	0,001
613,4	0,001
613,9	0,001
614,3	0,001
614,8	0,001
615,2	0,001
615,7	0,001
616,1	0,001
616,6	0,001
617	0,001
617,4	0,001
617,9	0,001
618,3	0,001
618,8	0,001
619,2	0,001
619,7	0,001
620,1	0,001
620,5	0,001
621	0,002
621,4	0,001
621,9	0,001
622,3	0,002
622,8	0,002
623,2	0,002
623,6	0,001
624,1	0,001
624,5	0,001
625	0,001
625,4	0,001
625,9	0,001
626,3	0,001
626,8	0,001
627,2	0,001
627,6	0,001
628,1	0,001
628,5	0,001
629	0,002
629,4	0,002
629,9	0,001
630,3	0,002
630,7	0,002
631,2	0,002
631,6	0,002
632,1	0,001
632,5	0,002
633	0,002
633,4	0,001
633,8	0,001
634,3	0,001
634,7	0,002
635,2	0,002
635,6	0,002
636,1	0,002
636,5	0,002
636,9	0,002
637,4	0,001
637,8	0,001
638,3	0,001
638,7	0,001
639,2	0,001
639,6	0,001
640	0,001
640,5	0,001
640,9	0,001
641,4	0,001
641,8	0,001
642,2	0,001
642,7	0,001
643,1	0,001
643,6	0,001
644	0,001
644,5	0,002
644,9	0,001
645,3	0,002
645,8	0,002
646,2	0,002
646,7	0,002
647,1	0,002
647,6	0,002
648	0,002
648,4	0,002
648,9	0,002
649,3	0,002
649,8	0,002
650,2	0,001
650,6	0,001
651,1	0,001
651,5	0
652	0
652,4	-0
652,9	-0,001
653,3	-0,001
653,7	-0
654,2	-0
654,6	-0,001
655,1	-0,001
655,5	-0
655,9	-0
656,4	-0
656,8	0,001
657,3	0,002
657,7	0,002
658,2	0,003
658,6	0,004
659	0,006
659,5	0,009
659,9	0,01
660,4	0,007
660,8	0,005
661,2	0,004
661,7	0,003
662,1	0,002
662,6	0,001
663	0,001
663,4	0
663,9	0
664,3	-0
664,8	-0,001
665,2	-0
665,6	0
666,1	-0
666,5	-0
667	0
667,4	0,001
667,9	0,001
668,3	0,001
668,7	0,001
669,2	0,001
669,6	0,001
670,1	0,001
670,5	0
670,9	0
671,4	0
671,8	-0
672,3	-0
672,7	-0
673,1	-0,001
673,6	-0,001
674	-0,001
674,5	-0
674,9	-0
675,3	-0
675,8	-0
676,2	0
676,7	0
677,1	0
677,5	0
678	0
678,4	0,001
678,9	0,001
679,3	0,001
679,7	0,001
680,2	0,001
680,6	0
681,1	0
681,5	0
681,9	0
682,4	0,001
682,8	0,001
683,3	0,001
683,7	0,001
684,1	0,001
684,6	0,001
685	0
685,5	0
685,9	0
686,3	0
686,8	0
687,2	0
687,7	0
688,1	0,001
688,5	0
689	0,001
689,4	0,001
689,9	0,001
690,3	0,001
690,7	0,001
691,2	0,001
691,6	0,001
692	0,001
692,5	0,001
692,9	0,001
693,4	0,001
693,8	0
694,2	0
694,7	0,001
695,1	0,001
695,6	0,001
696	0,001
696,4	0,001
696,9	0,001
697,3	0,001
697,8	0,001
698,2	0
698,6	0
699,1	0
699,5	-0
699,9	-0
700,4	-0
700,8	0
701,3	0,001
701,7	0,001
702,1	0,001
702,6	0,001
703	0,001
703,5	0,002
703,9	0,002
704,3	0,001
704,8	0,001
705,2	0,001
705,6	0,001
706,1	0,001
706,5	0
707	-0
707,4	-0,001
707,8	-0
708,3	-0,001
708,7	-0,001
709,2	-0
709,6	0
710	0,001
710,5	0
710,9	0
711,3	0
711,8	0
712,2	0
712,7	-0
713,1	-0
713,5	-0
714	-0
714,4	-0
714,8	-0
715,3	-0
715,7	-0
716,2	0
716,6	0,001
717	0,001
717,5	0,001
717,9	0,001
718,3	0,001
718,8	0
719,2	0
719,7	0
720,1	0
720,5	0
721	0,001
721,4	0,001
721,8	0,001
722,3	0,001
722,7	0,001
723,2	0,001
723,6	0
724	0
724,5	0
724,9	0
725,3	0
725,8	-0
726,2	0
726,7	0
727,1	0
727,5	0
728	0
728,4	0
728,8	0
729,3	-0
729,7	-0
730,1	-0
730,6	-0
731	-0
731,5	-0
731,9	0
732,3	0
732,8	0
733,2	0
733,6	0
734,1	0
734,5	-0
734,9	0
735,4	0
735,8	0
736,3	0
736,7	0
737,1	0
737,6	0
738	0
738,4	0
738,9	0
739,3	-0
739,7	-0
740,2	-0
740,6	-0,001
741,1	-0,001
741,5	-0,001
741,9	-0,001
742,4	-0,001
742,8	-0
743,2	-0
743,7	-0
744,1	-0
744,5	-0
745	0
745,4	0
745,8	0
746,3	0
746,7	0
747,2	0
747,6	0
748	0
748,5	0,001
748,9	0,001
749,3	0,001
749,8	0,001
750,2	0,001
750,6	0,001
751,1	0
751,5	0,001
751,9	0,001
752,4	0,001
752,8	0,001
753,3	0,001
753,7	0,001
754,1	0,001
754,6	0,001
755	0,001
755,4	0,001
755,9	0
756,3	0
756,7	0
757,2	0,001
757,6	0,001
758	0,001
758,5	0
758,9	0,001
759,3	0,001
759,8	0,001
760,2	0,001
760,6	0,001
761,1	0,001
761,5	0,001
761,9	0,001
762,4	0,001
762,8	0,001
763,3	0,001
763,7	0,001
764,1	0,001
764,6	0,001
765	0,001
765,4	0,001
765,9	0,002
766,3	0,002
766,7	0,002
767,2	0,002
767,6	0,003
768	0,003
768,5	0,003
768,9	0,003
769,3	0,003
769,8	0,002
770,2	0,002
770,6	0,002
771,1	0,002
771,5	0,002
771,9	0,002
772,4	0,002
772,8	0,002
773,2	0,002
773,7	0,002
774,1	0,002
774,5	0,002
775	0,002
775,4	0,002
775,8	0,001
776,3	0,001
776,7	0,001
777,1	0,001
777,6	0,001
778	0,001
778,4	0,001
778,9	0,001
779,3	0,001
779,7	0,001
780,2	0,001
780,6	0,001
781	0,001
781,5	0,001
781,9	0,002
782,3	0,002
782,8	0,002
783,2	0,002
783,6	0,002
784,1	0,002
784,5	0,002
784,9	0,002
785,4	0,002
785,8	0,002
786,2	0,002
786,7	0,002
787,1	0,002
787,5	0,002
788	0,001
788,4	0,001
788,8	0,001
789,3	0,001
789,7	0,001
790,1	0,001
790,6	0,001
791	0,001
791,4	0,001
791,9	0,001
792,3	0,001
792,7	0,001
793,2	0
793,6	0
794	0,001
794,5	0,001
794,9	0,001
795,3	0,001
795,8	0,001
796,2	0,002
796,6	0,002
797,1	0,002
797,5	0,002
797,9	0,002
798,4	0,002
798,8	0,002
799,2	0,002
799,7	0,001
800,1	0,001
800,5	0,001
801	0,001
801,4	0
801,8	0,001
802,2	0,001
802,7	0,001
803,1	0,001
803,5	0,001
804	0,002
804,4	0,002
804,8	0,002
805,3	0,002
805,7	0,002
806,1	0,001
806,6	0,002
807	0,001
807,4	0,001
807,9	0,001
808,3	0
808,7	0,001
809,2	0,001
809,6	0
810	0,001
810,4	0,001
810,9	0
811,3	0
811,7	0
812,2	-0
812,6	0
813	0
813,5	-0
813,9	-0
814,3	-0
814,8	-0
815,2	-0
815,6	-0
816,1	-0,001
816,5	-0,001
816,9	-0,001
817,3	-0
817,8	-0
818,2	-0,001
818,6	-0,001
819,1	-0
819,5	-0,001
819,9	-0
820,4	-0,001
820,8	-0,001
821,2	-0,001
821,7	-0
822,1	-0,001
822,5	-0,001
822,9	-0,001
823,4	-0,001
823,8	-0,001
824,2	-0,001
824,7	-0,001
825,1	-0,001
825,5	-0
826	-0
826,4	-0
826,8	0
827,3	0
827,7	0,001
828,1	0,001
828,5	0,001
829	0,002
829,4	0,002
829,8	0,002
830,3	0,002
830,7	0,002
831,1	0,002
831,6	0,002
832	0,001
832,4	0,002
832,8	0,002
833,3	0,001
833,7	0,001
834,1	0,001
834,6	0,001
835	0,001
835,4	0,001
835,8	0,001
836,3	0
836,7	0
837,1	0
837,6	-0
838	-0
838,4	-0,001
838,9	-0,001
839,3	-0
839,7	-0
840,1	-0
840,6	0
841	0,001
841,4	0,001
841,9	0,001
842,3	0,001
842,7	0,001
843,1	0,001
843,6	0
844	0,001
844,4	0
844,9	0,001
845,3	0,001
845,7	0
846,2	0
846,6	0
847	-0
847,4	-0
847,9	-0
848,3	-0
848,7	0
849,2	-0
849,6	0
850	0
850,4	0
850,9	0
851,3	0
851,7	0
852,2	0,001
852,6	0,001
853	0,001
853,4	0,002
853,9	0,002
854,3	0,002
854,7	0,002
855,2	0,002
855,6	0,002
856	0,002
856,4	0,002
856,9	0,002
857,3	0,002
857,7	0,002
858,2	0,001
858,6	0,001
859	0
859,4	0,001
859,9	0,001
860,3	0
860,7	-0
861,1	0
861,6	0
862	0
862,4	0
862,9	0
863,3	0,001
863,7	0,001
864,1	0,001
864,6	0,001
865	0,001
865,4	0,001
865,9	0,001
866,3	0,001
866,7	0,001
867,1	0,001
867,6	0,001
868	0,001
868,4	0,001
868,8	0,001
869,3	0,001
869,7	0,001
870,1	0,001
870,6	0,001
871	0,001
871,4	0
871,8	0
872,3	-0
872,7	-0
873,1	-0,001
873,5	-0,001
874	-0,001
874,4	-0,002
874,8	-0,002
875,3	-0,002
875,7	-0,002
876,1	-0,002
876,5	-0,002
877	-0,002
877,4	-0,002
877,8	-0,002
878,2	-0,002
878,7	-0,001
879,1	-0,001
879,5	-0,001
879,9	-0,001
880,4	-0,001
880,8	-0
881,2	0,001
881,7	0,001
882,1	0,001
882,5	0,001
882,9	0,001
883,4	0,001
883,8	0,001
884,2	0
884,6	-0
885,1	-0
885,5	-0
885,9	-0
886,3	-0
886,8	0
887,2	0
887,6	0,001
888	0,001
888,5	0,001
888,9	0,001
889,3	0,001
889,8	0
890,2	0,001
890,6	0,001
891	0,001
891,5	0,001
891,9	0,001
892,3	0,001
892,7	0,001
893,2	0,001
893,6	0
894	0
894,4	0,001
894,9	0
895,3	0
895,7	0
896,1	-0
896,6	-0
897	0
897,4	-0
897,8	-0
898,3	-0
898,7	-0
899,1	-0,001
899,5	-0,001
900	-0,001
900,4	-0,001
900,8	-0
901,2	-0
901,7	-0
902,1	0
902,5	0,001
902,9	0
903,4	0
903,8	0
904,2	-0
904,6	-0
905,1	-0,001
905,5	-0,001
905,9	-0,001
906,3	-0,001
906,8	-0,002
907,2	-0,002
907,6	-0,002
908	-0,002
908,5	-0,002
908,9	-0,003
909,3	-0,003
909,7	-0,003
910,2	-0,003
910,6	-0,003
911	-0,002
911,4	-0,002
911,9	-0,001
912,3	-0,001
912,7	-0,001
913,1	-0,001
913,6	-0,001
914	-0,001
914,4	-0,001
914,8	-0,001
915,3	-0,001
915,7	-0,001
916,1	-0,001
916,5	-0,001
916,9	-0,001
917,4	-0,001
917,8	-0
918,2	-0
918,6	0
919,1	0
919,5	0,001
919,9	0,001
920,3	0,001
920,8	0,001
921,2	0,001
921,6	0,001
922	0
922,5	-0
922,9	-0
923,3	-0
923,7	-0
924,2	-0
924,6	-0
925	-0
925,4	0
925,8	0
926,3	0
926,7	0
927,1	0
927,5	0,001
928	0,001
928,4	0,001
928,8	0
929,2	0,001
929,7	0,001
930,1	0,001
930,5	0,001
930,9	0,001
931,3	0,001
931,8	0,001
932,2	0
932,6	0
933	-0
933,5	-0
933,9	-0
934,3	-0
934,7	0
935,2	0,001
935,6	0,001
936	0,001
936,4	0,001
936,8	0,002
937,3	0,001
937,7	0,002
938,1	0,002
938,5	0,002
939	0,001
939,4	0,001
939,8	0,001
940,2	0,001
940,6	0,001
941,1	0,001
941,5	0,001
941,9	0
942,3	0
942,8	0
943,2	0
943,6	-0
944	0
944,4	0
944,9	0,001
945,3	0,002
945,7	0,002
946,1	0,002
946,6	0,002
947	0,001
947,4	0,001
947,8	0
948,2	-0
948,7	-0,001
949,1	-0
949,5	-0,001
949,9	-0,001
950,3	-0,001
950,8	-0,001
951,2	-0,001
951,6	-0,001
952	-0,001
952,5	-0,001
952,9	-0,001
953,3	-0
953,7	-0
954,1	-0
954,6	-0
955	0
955,4	0
955,8	0
956,2	0
956,7	0,001
957,1	0,001
957,5	0,001
957,9	0
958,3	-0
958,8	-0,001
959,2	-0,001
959,6	-0,001
960	-0,002
960,5	-0,002
960,9	-0,003
961,3	-0,003
961,7	-0,002
962,1	-0,002
962,6	-0,002
963	-0,001
963,4	-0,001
963,8	-0
964,2	0
964,7	0
965,1	-0
965,5	0,001
965,9	0,001
966,3	0,001
966,8	0,001
967,2	0,001
967,6	0,001
968	0,001
968,4	0,001
968,9	0,001
969,3	0
969,7	0
970,1	0
970,5	0
971	0
971,4	-0
971,8	-0
972,2	-0,001
972,6	-0,001
973,1	-0,001
973,5	-0,002
973,9	-0,002
974,3	-0,002
974,7	-0,001
975,2	-0
975,6	-0,001
976	-0,001
976,4	-0
976,8	-0,001
977,3	-0,001
977,7	-0,001
978,1	-0,001
978,5	-0
978,9	0
979,4	0,001
979,8	0,001
980,2	0,002
980,6	0,001
981	0,002
981,5	0,002
981,9	0,001
982,3	0,001
982,7	0,001
983,1	0,001
983,6	0
984	-0
984,4	-0,001
984,8	-0
985,2	-0
985,6	-0,001
986,1	-0,001
986,5	-0
986,9	-0
987,3	-0,001
987,7	-0
988,2	-0
988,6	-0,001
989	-0,001
989,4	-0,001
989,8	-0,001
990,3	-0,001
990,7	-0,001
991,1	-0,001
991,5	-0
991,9	-0
992,3	-0,001
992,8	-0
993,2	0
993,6	0
994	0,001
994,4	0
994,9	-0
995,3	-0
995,7	-0
996,1	-0,001
996,5	-0,001
996,9	-0,002
997,4	-0,002
997,8	-0,001
998,2	-0,001
998,6	-0,001
999	-0
999,5	-0
999,9	0
1000,3	0
1000,7	0
1001,1	0
1001,5	-0
1002	-0,001
1002,4	-0,002
1002,8	-0,002
1003,2	-0,002
1003,6	-0,002
1004	-0,002
1004,5	-0,002
1004,9	-0,002
1005,3	-0,001
1005,7	-0,001
1006,1	-0
1006,6	-0,001
1007	-0,001
1007,4	-0
1007,8	-0
1008,2	-0,001
1008,6	-0
1009,1	-0,001
1009,5	-0,002
1009,9	-0,002
1010,3	-0,003
1010,7	-0,003
1011,1	-0,003
1011,6	-0,004
1012	-0,003
1012,4	-0,004
1012,8	-0,004
1013,2	-0,004
1013,6	-0,004
1014,1	-0,004
1014,5	-0,004
1014,9	-0,004
1015,3	-0,003
1015,7	-0,003
1016,1	-0,003
1016,6	-0,003
1017	-0,003
1017,4	-0,003
1017,8	-0,003
1018,2	-0,003
1018,6	-0,003
1019,1	-0,003
1019,5	-0,003
1019,9	-0,002
1020,3	-0,002
1020,7	-0,002
1021,1	-0,002
1021,6	-0,002
1022	-0,001
1022,4	-0,001
1022,8	-0,001
1023,2	-0,001
1023,6	-0
1024,1	-0
1024,5	0
1024,9	0,001
1025,3	0,002
1025,7	0,002
1026,1	0,002
1026,6	0,003
1027	0,003
1027,4	0,002
1027,8	0,002
1028,2	0,002
1028,6	0,002
1029	0,002
1029,5	0,002
1029,9	0,003
1030,3	0,003
1030,7	0,004
1031,1	0,003
1031,5	0,003
1032	0,003
1032,4	0,003
1032,8	0,002
1033,2	0,002
1033,6	0,001
1034	0,001
1034,4	0,001
1034,9	0,001
1035,3	0,001
1035,7	0,001
1036,1	0
1036,5	-0
1036,9	-0
1037,4	-0,001
1037,8	-0,001
1038,2	-0,001
1038,6	-0,001
1039	0
1039,4	0
1039,8	0,001
1040,3	0,001
1040,7	0
1041,1	-0,001
1041,5	-0,001
1041,9	-0,002
1042,3	-0,002
1042,7	-0,002
1043,2	-0,002
1043,6	-0,003
1044	-0,002
1044,4	-0,002
1044,8	-0,001
1045,2	-0,001
1045,6	-0,001
1046,1	-0
1046,5	0
1046,9	0,001
1047,3	0,001
1047,7	0,001
1048,1	0,001
1048,5	0,001
1049	0
1049,4	0
1049,8	0
1050,2	0
1050,6	0,001
1051	0
1051,4	-0
1051,9	-0
1052,3	-0
1052,7	-0
1053,1	-0
1053,5	-0,001
1053,9	0
1054,3	-0
1054,8	-0
1055,2	-0,001
1055,6	-0,001
1056	-0,001
1056,4	-0,001
1056,8	-0,001
1057,2	-0,001
1057,6	-0,002
1058,1	-0,002
1058,5	-0,003
1058,9	-0,003
1059,3	-0,003
1059,7	-0,003
1060,1	-0,003
1060,5	-0,002
1061	-0,003
1061,4	-0,003
1061,8	-0,002
1062,2	-0,002
1062,6	-0,003
1063	-0,003
1063,4	-0,002
1063,8	-0,002
1064,3	-0,002
1064,7	-0,002
1065,1	-0,002
1065,5	-0,003
1065,9	-0,002
1066,3	-0,002
1066,7	-0,001
1067,1	-0,001
1067,6	-0,001
1068	-0
1068,4	0,001
1068,8	0
1069,2	-0
1069,6	-0,001
1070	-0,001
1070,4	-0,001
1070,9	-0,002
1071,3	-0
1071,7	-0,001
1072,1	-0,001
1072,5	-0,001
1072,9	-0,001
1073,3	-0,001
1073,7	-0
1074,2	-0,002
1074,6	-0
1075	0
1075,4	-0
1075,8	0,001
1076,2	0,001
1076,6	0,002
1077	0,003
1077,5	0,001
1077,9	-0
1078,3	-0,001
1078,7	-0,002
1079,1	-0,003
1079,5	-0,004
1079,9	-0,005
1080,3	-0,005
1080,7	-0,005
1081,2	-0,002
1081,6	-0,002
1082	-0,002
1082,4	-0,001
1082,8	-0,002
1083,2	-0,001
1083,6	-0,001
1084	-0,001
1084,5	-0,001
1084,9	-0,001
1085,3	-0,001
1085,7	0
1086,1	0,001
1086,5	0,001
1086,9	0
1087,3	0,001
1087,7	0,001
1088,2	-0
1088,6	-0,003
1089	-0,003
1089,4	-0,002
1089,8	-0,003
1090,2	-0,005
1090,6	-0,007
1091	-0,003
1091,4	-0
1091,9	-0,002
1092,3	-0,003
1092,7	-0,001
1093,1	0,002
1093,5	0,001
1093,9	0
1094,3	-0,001
1094,7	0
1095,1	-0,001
1095,5	-0,003
1096	-0,004
1096,4	-0,004
1096,8	-0,006
1097,2	-0,007
1097,6	-0,009
1098	-0,013
1098,4	-0,011
1098,8	-0,014
1099,2	-0,015
1099,6	-0,016
1100,1	-0,014
1100,5	-0,01
1100,9	-0,008
1101,3	-0,01
1101,7	-0
1102,1	0,004
1102,5	0,004
1102,9	0,003
1103,3	-0,006
1103,7	-0
1104,2	-0
1104,6	-0,014
1105	-0,017
1105,4	-0,01
1105,8	-0,007
1106,2	-0,004
1106,6	-0,001
1107	0,003
1107,4	0,029
1107,8	0,066
1108,3	-0,26
