Data from Absorbance_00070.txt Node
Date: Fri Aug 11 13:33:34 MSK 2023
User: vat
Spectrometer: MAYP114033
Trigger mode: 0
Integration Time (sec): 8,000000E-3
Scans to average: 10
Electric dark correction enabled: true
Nonlinearity correction enabled: false
Boxcar width: 3
XAxis mode: Wavelengths
Number of Pixels in Spectrum: 2068
>>>>>Begin Spectral Data<<<<<
199,4	-0
199,9	0,285
200,4	0,451
200,8	0,726
201,3	0,834
201,8	0,918
202,2	0,948
202,7	0,991
203,2	1,036
203,6	1,066
204,1	1,094
204,6	1,12
205	1,134
205,5	1,16
206	1,156
206,4	1,163
206,9	1,193
207,4	1,219
207,8	1,233
208,3	1,262
208,8	1,258
209,2	1,273
209,7	1,294
210,2	1,3
210,6	1,322
211,1	1,329
211,5	1,328
212	1,361
212,5	1,379
212,9	1,396
213,4	1,41
213,9	1,398
214,3	1,402
214,8	1,431
215,3	1,43
215,7	1,44
216,2	1,449
216,7	1,485
217,1	1,512
217,6	1,54
218,1	1,533
218,5	1,558
219	1,575
219,5	1,581
219,9	1,571
220,4	1,573
220,9	1,586
221,3	1,599
221,8	1,625
222,3	1,634
222,7	1,66
223,2	1,678
223,6	1,706
224,1	1,71
224,6	1,744
225	1,748
225,5	1,773
226	1,79
226,4	1,8
226,9	1,812
227,4	1,86
227,8	1,85
228,3	1,875
228,8	1,882
229,2	1,881
229,7	1,897
230,2	1,91
230,6	1,906
231,1	1,912
231,5	1,927
232	1,941
232,5	1,95
232,9	1,958
233,4	1,971
233,9	1,969
234,3	1,972
234,8	1,969
235,3	1,977
235,7	1,981
236,2	1,995
236,7	1,989
237,1	1,993
237,6	2,012
238,1	2,007
238,5	2,011
239	2,017
239,4	2,024
239,9	2,036
240,4	2,053
240,8	2,062
241,3	2,068
241,8	2,083
242,2	2,091
242,7	2,094
243,2	2,092
243,6	2,103
244,1	2,101
244,6	2,117
245	2,116
245,5	2,13
245,9	2,129
246,4	2,156
246,9	2,157
247,3	2,179
247,8	2,157
248,3	2,171
248,7	2,167
249,2	2,173
249,7	2,163
250,1	2,156
250,6	2,139
251	2,147
251,5	2,143
252	2,139
252,4	2,156
252,9	2,161
253,4	2,164
253,8	2,17
254,3	2,174
254,8	2,172
255,2	2,181
255,7	2,16
256,1	2,155
256,6	2,169
257,1	2,168
257,5	2,174
258	2,186
258,5	2,185
258,9	2,191
259,4	2,194
259,9	2,189
260,3	2,203
260,8	2,213
261,2	2,204
261,7	2,217
262,2	2,215
262,6	2,211
263,1	2,208
263,6	2,215
264	2,213
264,5	2,217
264,9	2,221
265,4	2,23
265,9	2,231
266,3	2,232
266,8	2,223
267,3	2,212
267,7	2,2
268,2	2,194
268,7	2,184
269,1	2,172
269,6	2,17
270	2,156
270,5	2,161
271	2,177
271,4	2,169
271,9	2,174
272,4	2,159
272,8	2,15
273,3	2,154
273,7	2,152
274,2	2,143
274,7	2,162
275,1	2,167
275,6	2,205
276,1	2,209
276,5	2,207
277	2,214
277,4	2,202
277,9	2,165
278,4	2,155
278,8	2,145
279,3	2,127
279,8	2,115
280,2	2,101
280,7	2,095
281,1	2,085
281,6	2,079
282,1	2,062
282,5	2,053
283	2,045
283,4	2,025
283,9	2,016
284,4	1,994
284,8	1,945
285,3	1,901
285,8	1,847
286,2	1,777
286,7	1,705
287,1	1,62
287,6	1,538
288,1	1,456
288,5	1,378
289	1,303
289,5	1,236
289,9	1,175
290,4	1,121
290,8	1,071
291,3	1,028
291,8	0,99
292,2	0,955
292,7	0,926
293,1	0,898
293,6	0,875
294,1	0,855
294,5	0,838
295	0,821
295,5	0,805
295,9	0,79
296,4	0,778
296,8	0,767
297,3	0,757
297,8	0,746
298,2	0,738
298,7	0,732
299,1	0,727
299,6	0,722
300,1	0,716
300,5	0,712
301	0,708
301,5	0,704
301,9	0,698
302,4	0,693
302,8	0,687
303,3	0,683
303,8	0,678
304,2	0,674
304,7	0,67
305,1	0,666
305,6	0,662
306,1	0,659
306,5	0,653
307	0,648
307,4	0,643
307,9	0,638
308,4	0,634
308,8	0,629
309,3	0,625
309,8	0,621
310,2	0,618
310,7	0,613
311,1	0,609
311,6	0,603
312,1	0,598
312,5	0,593
313	0,588
313,4	0,583
313,9	0,578
314,4	0,572
314,8	0,568
315,3	0,563
315,7	0,556
316,2	0,551
316,7	0,546
317,1	0,54
317,6	0,535
318	0,529
318,5	0,524
319	0,519
319,4	0,514
319,9	0,508
320,3	0,502
320,8	0,497
321,3	0,492
321,7	0,486
322,2	0,482
322,6	0,476
323,1	0,471
323,6	0,466
324	0,46
324,5	0,455
324,9	0,45
325,4	0,444
325,9	0,439
326,3	0,433
326,8	0,428
327,2	0,423
327,7	0,417
328,2	0,412
328,6	0,407
329,1	0,402
329,5	0,396
330	0,39
330,5	0,385
330,9	0,381
331,4	0,376
331,8	0,371
332,3	0,365
332,8	0,361
333,2	0,356
333,7	0,352
334,1	0,346
334,6	0,34
335,1	0,335
335,5	0,33
336	0,325
336,4	0,321
336,9	0,315
337,4	0,31
337,8	0,304
338,3	0,299
338,7	0,295
339,2	0,289
339,7	0,283
340,1	0,279
340,6	0,274
341	0,27
341,5	0,265
342	0,26
342,4	0,256
342,9	0,252
343,3	0,247
343,8	0,243
344,2	0,239
344,7	0,235
345,2	0,231
345,6	0,228
346,1	0,225
346,5	0,222
347	0,217
347,5	0,214
347,9	0,21
348,4	0,205
348,8	0,201
349,3	0,196
349,8	0,192
350,2	0,189
350,7	0,186
351,1	0,182
351,6	0,179
352	0,176
352,5	0,173
353	0,17
353,4	0,167
353,9	0,163
354,3	0,16
354,8	0,157
355,3	0,155
355,7	0,152
356,2	0,148
356,6	0,146
357,1	0,143
357,5	0,14
358	0,137
358,5	0,134
358,9	0,132
359,4	0,129
359,8	0,127
360,3	0,124
360,8	0,122
361,2	0,12
361,7	0,118
362,1	0,116
362,6	0,113
363	0,11
363,5	0,109
364	0,107
364,4	0,104
364,9	0,103
365,3	0,1
365,8	0,099
366,3	0,098
366,7	0,096
367,2	0,093
367,6	0,092
368,1	0,09
368,5	0,089
369	0,087
369,5	0,085
369,9	0,084
370,4	0,082
370,8	0,081
371,3	0,079
371,7	0,078
372,2	0,077
372,7	0,076
373,1	0,074
373,6	0,073
374	0,072
374,5	0,071
374,9	0,069
375,4	0,068
375,9	0,067
376,3	0,066
376,8	0,065
377,2	0,064
377,7	0,063
378,2	0,062
378,6	0,061
379,1	0,06
379,5	0,059
380	0,058
380,4	0,057
380,9	0,056
381,4	0,055
381,8	0,054
382,3	0,054
382,7	0,053
383,2	0,053
383,6	0,052
384,1	0,051
384,6	0,051
385	0,051
385,5	0,05
385,9	0,049
386,4	0,048
386,8	0,047
387,3	0,046
387,7	0,045
388,2	0,043
388,7	0,043
389,1	0,042
389,6	0,041
390	0,041
390,5	0,041
390,9	0,04
391,4	0,04
391,9	0,039
392,3	0,038
392,8	0,038
393,2	0,037
393,7	0,036
394,1	0,036
394,6	0,036
395,1	0,035
395,5	0,035
396	0,035
396,4	0,034
396,9	0,034
397,3	0,033
397,8	0,033
398,2	0,033
398,7	0,032
399,2	0,032
399,6	0,031
400,1	0,031
400,5	0,03
401	0,029
401,4	0,028
401,9	0,028
402,4	0,027
402,8	0,026
403,3	0,026
403,7	0,026
404,2	0,026
404,6	0,026
405,1	0,026
405,5	0,026
406	0,026
406,5	0,026
406,9	0,025
407,4	0,024
407,8	0,024
408,3	0,022
408,7	0,022
409,2	0,022
409,6	0,022
410,1	0,021
410,6	0,021
411	0,021
411,5	0,021
411,9	0,021
412,4	0,021
412,8	0,02
413,3	0,019
413,7	0,019
414,2	0,018
414,7	0,018
415,1	0,018
415,6	0,017
416	0,017
416,5	0,016
416,9	0,016
417,4	0,016
417,8	0,015
418,3	0,015
418,8	0,015
419,2	0,015
419,7	0,015
420,1	0,014
420,6	0,014
421	0,014
421,5	0,013
421,9	0,013
422,4	0,013
422,8	0,012
423,3	0,012
423,8	0,012
424,2	0,012
424,7	0,011
425,1	0,011
425,6	0,01
426	0,01
426,5	0,01
426,9	0,009
427,4	0,01
427,9	0,01
428,3	0,01
428,8	0,009
429,2	0,009
429,7	0,009
430,1	0,009
430,6	0,008
431	0,008
431,5	0,007
431,9	0,007
432,4	0,007
432,8	0,007
433,3	0,007
433,8	0,007
434,2	0,007
434,7	0,007
435,1	0,006
435,6	0,007
436	0,006
436,5	0,006
436,9	0,006
437,4	0,005
437,8	0,006
438,3	0,006
438,8	0,005
439,2	0,006
439,7	0,005
440,1	0,004
440,6	0,003
441	0,003
441,5	0,003
441,9	0,002
442,4	0,002
442,8	0,002
443,3	0,003
443,7	0,004
444,2	0,004
444,7	0,004
445,1	0,004
445,6	0,003
446	0,004
446,5	0,003
446,9	0,003
447,4	0,002
447,8	0,002
448,3	0,002
448,7	0,003
449,2	0,003
449,6	0,003
450,1	0,003
450,6	0,003
451	0,002
451,5	0,002
451,9	0,001
452,4	0,001
452,8	0,001
453,3	0
453,7	0
454,2	0
454,6	0
455,1	0
455,5	0
456	0,001
456,4	0,001
456,9	0,002
457,3	0,002
457,8	0,002
458,3	0,002
458,7	0,001
459,2	0,001
459,6	0
460,1	-0
460,5	-0
461	-0
461,4	-0
461,9	-0
462,3	-0,001
462,8	-0
463,2	-0
463,7	-0
464,1	-0
464,6	-0
465	0
465,5	0,001
466	0,001
466,4	0,001
466,9	0,001
467,3	0,001
467,8	0,001
468,2	0
468,7	-0
469,1	-0
469,6	-0,001
470	-0,001
470,5	-0,001
470,9	-0,001
471,4	-0,001
471,8	-0,001
472,3	-0,001
472,7	-0,001
473,2	-0
473,6	-0
474,1	-0,001
474,5	-0
475	-0,001
475,4	-0,001
475,9	-0
476,4	-0
476,8	-0,001
477,3	-0
477,7	-0
478,2	0
478,6	0
479,1	-0
479,5	0
480	0,001
480,4	0,001
480,9	0,001
481,3	0,001
481,8	0
482,2	-0
482,7	-0,001
483,1	-0,001
483,6	-0,002
484	-0,002
484,5	-0,002
484,9	-0,002
485,4	-0,001
485,8	0
486,3	-0
486,7	-0,001
487,2	-0,001
487,6	-0,001
488,1	-0,001
488,5	-0
489	-0,002
489,4	-0,002
489,9	-0
490,4	0,001
490,8	0,001
491,3	0
491,7	0,001
492,2	0,001
492,6	0,001
493,1	0
493,5	-0
494	-0
494,4	0
494,9	0
495,3	0
495,8	0
496,2	0,001
496,7	0,001
497,1	0,001
497,6	0,001
498	0,001
498,5	0
498,9	0
499,4	-0
499,8	-0,001
500,3	-0,001
500,7	-0,001
501,2	-0,001
501,6	-0,001
502,1	-0,001
502,5	-0,001
503	-0,001
503,4	-0,001
503,9	-0,001
504,3	-0
504,8	0
505,2	0,001
505,7	0,001
506,1	0,002
506,6	0,002
507	0,002
507,5	0,001
507,9	0,001
508,4	0
508,8	-0
509,3	-0
509,7	-0,001
510,2	-0,001
510,6	-0,001
511,1	-0,001
511,5	-0,001
512	-0,001
512,4	-0
512,9	-0
513,3	-0
513,8	-0,001
514,2	-0
514,7	-0
515,1	-0
515,6	-0
516	-0
516,5	0,001
516,9	0
517,4	-0
517,8	-0
518,3	-0
518,7	-0,001
519,2	-0,001
519,6	-0,001
520,1	-0,001
520,5	-0,001
521	-0
521,4	-0
521,9	0
522,3	0,001
522,8	0,001
523,2	-0
523,7	0
524,1	0
524,6	0
525	-0
525,5	-0,001
525,9	-0,001
526,4	0
526,8	0
527,3	-0
527,7	0
528,2	-0
528,6	-0
529,1	0
529,5	0
530	0
530,4	0
530,9	0,001
531,3	0,001
531,8	0,001
532,2	0,001
532,6	0
533,1	0,001
533,5	0
534	0
534,4	0
534,9	-0
535,3	-0
535,8	-0
536,2	-0,001
536,7	-0,001
537,1	-0,002
537,6	-0,003
538	-0,002
538,5	-0,002
538,9	-0,001
539,4	-0,001
539,8	-0
540,3	0
540,7	0,001
541,2	0,001
541,6	0,001
542,1	0,001
542,5	0
543	-0
543,4	-0,001
543,9	-0,002
544,3	-0,002
544,8	-0,003
545,2	-0,003
545,7	-0,002
546,1	-0,002
546,5	-0,002
547	-0,001
547,4	-0
547,9	-0,001
548,3	0
548,8	-0
549,2	-0
549,7	0
550,1	-0
550,6	-0
551	0
551,5	0,001
551,9	0,001
552,4	0,001
552,8	0,001
553,3	0,001
553,7	0,001
554,2	0,001
554,6	0,001
555,1	0
555,5	0,001
555,9	0
556,4	0
556,8	-0
557,3	-0
557,7	-0
558,2	-0
558,6	-0,001
559,1	-0,001
559,5	-0,001
560	-0,001
560,4	-0,002
560,9	-0,001
561,3	-0,001
561,8	-0
562,2	-0
562,7	0,001
563,1	0,001
563,6	0,002
564	0,002
564,4	0,001
564,9	0,001
565,3	0,001
565,8	0,001
566,2	0
566,7	0
567,1	0
567,6	0
568	0
568,5	-0,001
568,9	-0,001
569,4	-0,001
569,8	-0,001
570,3	-0,001
570,7	-0,001
571,1	-0,001
571,6	-0
572	-0
572,5	-0,001
572,9	-0
573,4	-0,001
573,8	-0,001
574,3	-0,001
574,7	-0,001
575,2	-0,002
575,6	-0,001
576,1	-0,001
576,5	-0,001
576,9	-0,001
577,4	-0,001
577,8	-0
578,3	-0
578,7	-0
579,2	-0
579,6	0
580,1	0
580,5	0
581	0
581,4	0
581,9	0
582,3	-0
582,7	-0
583,2	0
583,6	0
584,1	0,001
584,5	0
585	0,001
585,4	0
585,9	-0
586,3	-0
586,8	-0
587,2	-0,001
587,6	-0,001
588,1	-0,001
588,5	-0,001
589	-0,001
589,4	-0,001
589,9	-0,001
590,3	-0,001
590,8	-0,001
591,2	-0,001
591,7	-0,001
592,1	-0,001
592,5	-0,001
593	-0,001
593,4	-0,001
593,9	-0
594,3	-0
594,8	0
595,2	0
595,7	0
596,1	0
596,6	0
597	0
597,4	-0
597,9	-0
598,3	-0
598,8	-0
599,2	-0,001
599,7	-0,001
600,1	-0,001
600,6	-0,001
601	-0,001
601,4	-0,002
601,9	-0,002
602,3	-0,001
602,8	-0,001
603,2	-0,002
603,7	-0,002
604,1	-0,001
604,6	-0,001
605	-0,001
605,4	-0,001
605,9	-0,001
606,3	-0,001
606,8	-0
607,2	-0
607,7	-0
608,1	-0
608,6	0
609	0
609,4	0,001
609,9	0
610,3	-0
610,8	-0
611,2	-0
611,7	-0
612,1	-0,001
612,6	-0,001
613	-0,001
613,4	-0,001
613,9	-0,001
614,3	-0,001
614,8	-0,001
615,2	-0,001
615,7	-0,001
616,1	-0,001
616,6	-0
617	-0
617,4	-0
617,9	-0
618,3	-0
618,8	0
619,2	-0
619,7	-0
620,1	-0
620,5	0
621	-0
621,4	-0
621,9	-0
622,3	0
622,8	0
623,2	0
623,6	0
624,1	0
624,5	-0
625	0
625,4	-0
625,9	-0
626,3	-0,001
626,8	-0,001
627,2	-0,001
627,6	-0
628,1	-0,001
628,5	-0
629	-0
629,4	0
629,9	0
630,3	0
630,7	0
631,2	0
631,6	0
632,1	-0
632,5	0
633	-0
633,4	-0,001
633,8	-0,001
634,3	-0,001
634,7	-0,001
635,2	-0
635,6	-0,001
636,1	-0
636,5	-0,001
636,9	-0
637,4	-0
637,8	-0
638,3	-0
638,7	-0
639,2	-0
639,6	0
640	0
640,5	0
640,9	0
641,4	-0
641,8	0
642,2	0
642,7	0
643,1	0
643,6	0
644	0
644,5	0
644,9	0
645,3	0
645,8	0
646,2	0
646,7	0,001
647,1	0,001
647,6	0,001
648	0,001
648,4	0,001
648,9	0,001
649,3	0,001
649,8	0,001
650,2	0
650,6	-0
651,1	-0
651,5	-0
652	-0
652,4	-0
652,9	-0,001
653,3	-0
653,7	0
654,2	0
654,6	-0
655,1	-0
655,5	-0
655,9	-0
656,4	-0
656,8	-0
657,3	0
657,7	0,001
658,2	0,001
658,6	0,002
659	0,003
659,5	0,004
659,9	0,005
660,4	0,004
660,8	0,002
661,2	0,001
661,7	0,001
662,1	0
662,6	-0
663	-0
663,4	-0,001
663,9	-0,001
664,3	-0,001
664,8	-0,001
665,2	-0,001
665,6	-0,001
666,1	-0
666,5	-0
667	-0,001
667,4	-0
667,9	-0
668,3	-0
668,7	-0
669,2	-0
669,6	-0,001
670,1	-0
670,5	-0
670,9	-0
671,4	-0,001
671,8	-0,001
672,3	-0,001
672,7	-0,001
673,1	-0,001
673,6	-0,001
674	-0,002
674,5	-0,001
674,9	-0,001
675,3	-0,001
675,8	-0,001
676,2	-0,001
676,7	-0,001
677,1	-0,002
677,5	-0,002
678	-0,002
678,4	-0,002
678,9	-0,001
679,3	-0,001
679,7	-0,001
680,2	-0,001
680,6	-0,001
681,1	-0,001
681,5	-0,001
681,9	-0
682,4	0
682,8	0
683,3	0
683,7	0
684,1	0,001
684,6	0
685	-0
685,5	-0,001
685,9	-0,001
686,3	-0,001
686,8	-0,001
687,2	-0,001
687,7	-0,001
688,1	-0,001
688,5	-0
689	0
689,4	0
689,9	0
690,3	0
690,7	0
691,2	0,001
691,6	0,001
692	0
692,5	0
692,9	0,001
693,4	0,001
693,8	0,001
694,2	0,001
694,7	0,001
695,1	0,001
695,6	0,001
696	0,001
696,4	0
696,9	0,001
697,3	0,001
697,8	0,001
698,2	0
698,6	0
699,1	0
699,5	0
699,9	0
700,4	-0
700,8	-0
701,3	0
701,7	-0
702,1	-0
702,6	0
703	0
703,5	0,001
703,9	0,001
704,3	0,001
704,8	0
705,2	0
705,6	0
706,1	-0
706,5	-0
707	-0,001
707,4	-0,001
707,8	-0
708,3	-0
708,7	-0
709,2	-0
709,6	-0
710	-0
710,5	-0
710,9	-0
711,3	-0,001
711,8	-0,001
712,2	-0,001
712,7	-0,001
713,1	-0,001
713,5	-0,001
714	-0,001
714,4	-0,001
714,8	-0,001
715,3	-0
715,7	-0
716,2	-0
716,6	-0
717	-0
717,5	-0
717,9	-0
718,3	-0,001
718,8	-0,001
719,2	-0,001
719,7	-0,001
720,1	-0,001
720,5	-0,001
721	-0
721,4	-0
721,8	-0
722,3	-0
722,7	-0
723,2	-0
723,6	-0,001
724	-0,001
724,5	-0,001
724,9	-0,001
725,3	-0,001
725,8	-0
726,2	-0
726,7	-0
727,1	-0
727,5	-0,001
728	-0,001
728,4	-0,001
728,8	-0,001
729,3	-0,001
729,7	-0,001
730,1	-0,001
730,6	-0,001
731	-0,001
731,5	-0,001
731,9	-0,001
732,3	-0,001
732,8	-0,001
733,2	-0,001
733,6	-0,001
734,1	-0,001
734,5	-0,001
734,9	-0
735,4	-0
735,8	-0
736,3	0
736,7	0
737,1	0
737,6	0
738	-0
738,4	0
738,9	-0
739,3	-0,001
739,7	-0,001
740,2	-0,001
740,6	-0,001
741,1	-0,001
741,5	-0,001
741,9	-0,001
742,4	-0,001
742,8	-0,001
743,2	-0
743,7	0
744,1	0
744,5	0
745	0
745,4	-0
745,8	-0
746,3	-0,001
746,7	-0,001
747,2	-0,001
747,6	-0,001
748	-0,001
748,5	-0,001
748,9	-0,001
749,3	-0
749,8	-0
750,2	0
750,6	0
751,1	0
751,5	0
751,9	0
752,4	0
752,8	0
753,3	0
753,7	0
754,1	0
754,6	0
755	0
755,4	0,001
755,9	0
756,3	0
756,7	0
757,2	0,001
757,6	0
758	0
758,5	0
758,9	0
759,3	0
759,8	0,001
760,2	0,001
760,6	0,001
761,1	0
761,5	0,001
761,9	0,001
762,4	0,001
762,8	0,001
763,3	0,001
763,7	0,001
764,1	0,001
764,6	0,001
765	0,001
765,4	0,001
765,9	0,001
766,3	0,002
766,7	0,002
767,2	0,002
767,6	0,002
768	0,002
768,5	0,002
768,9	0,002
769,3	0,002
769,8	0,003
770,2	0,002
770,6	0,002
771,1	0,002
771,5	0,001
771,9	0,001
772,4	0,001
772,8	0,001
773,2	0,001
773,7	0,002
774,1	0,002
774,5	0,002
775	0,002
775,4	0,002
775,8	0,001
776,3	0,001
776,7	0,001
777,1	0,001
777,6	0
778	0
778,4	0
778,9	0
779,3	0
779,7	0
780,2	-0
780,6	-0
781	0
781,5	0
781,9	-0
782,3	-0
782,8	-0
783,2	-0
783,6	-0
784,1	0
784,5	-0
784,9	0
785,4	0
785,8	-0
786,2	-0
786,7	-0,001
787,1	-0,001
787,5	-0,001
788	-0,001
788,4	-0,001
788,8	-0,001
789,3	-0,001
789,7	-0,001
790,1	-0,001
790,6	-0,001
791	-0,001
791,4	-0,001
791,9	-0,001
792,3	-0,001
792,7	-0,001
793,2	-0,001
793,6	-0,001
794	-0,001
794,5	-0,001
794,9	-0
795,3	-0
795,8	0
796,2	0
796,6	0
797,1	0,001
797,5	0,001
797,9	0,001
798,4	0,001
798,8	0,001
799,2	0
799,7	0,001
800,1	-0
800,5	-0
801	-0,001
801,4	-0,001
801,8	-0,001
802,2	-0,001
802,7	-0,001
803,1	-0,001
803,5	-0,001
804	-0
804,4	-0
804,8	-0,001
805,3	-0,001
805,7	-0,001
806,1	-0,001
806,6	-0,002
807	-0,002
807,4	-0,002
807,9	-0,001
808,3	-0,001
808,7	-0,001
809,2	-0,001
809,6	-0,001
810	-0
810,4	-0
810,9	-0
811,3	-0,001
811,7	-0,001
812,2	-0
812,6	-0
813	-0,001
813,5	-0,001
813,9	-0,001
814,3	-0,001
814,8	-0,001
815,2	-0,002
815,6	-0,002
816,1	-0,002
816,5	-0,002
816,9	-0,002
817,3	-0,002
817,8	-0,002
818,2	-0,002
818,6	-0,002
819,1	-0,002
819,5	-0,002
819,9	-0,001
820,4	-0,001
820,8	-0,001
821,2	-0,001
821,7	-0,001
822,1	-0,002
822,5	-0,002
822,9	-0,002
823,4	-0,002
823,8	-0,002
824,2	-0,002
824,7	-0,002
825,1	-0,002
825,5	-0,001
826	-0,001
826,4	-0,001
826,8	-0
827,3	-0
827,7	-0
828,1	-0
828,5	0
829	0
829,4	0
829,8	0
830,3	0
830,7	0
831,1	0
831,6	-0
832	-0
832,4	-0
832,8	0
833,3	0
833,7	0
834,1	-0
834,6	-0
835	-0
835,4	-0
835,8	-0
836,3	-0,001
836,7	-0,001
837,1	-0,001
837,6	-0,001
838	-0,001
838,4	-0,001
838,9	-0,001
839,3	-0,001
839,7	-0,001
840,1	-0
840,6	-0
841	0
841,4	0
841,9	-0
842,3	-0
842,7	-0,001
843,1	-0,001
843,6	-0,001
844	-0,001
844,4	-0,001
844,9	-0
845,3	-0
845,7	-0
846,2	-0
846,6	-0
847	-0
847,4	-0
847,9	-0
848,3	0
848,7	0
849,2	0
849,6	0
850	-0
850,4	0
850,9	-0
851,3	-0,001
851,7	-0,001
852,2	-0
852,6	-0
853	0
853,4	0
853,9	0
854,3	0,001
854,7	0,001
855,2	0,001
855,6	0,001
856	0,001
856,4	0,001
856,9	0,001
857,3	0,001
857,7	0
858,2	0
858,6	-0
859	-0
859,4	-0
859,9	-0,001
860,3	-0,001
860,7	-0,001
861,1	-0,001
861,6	-0,001
862	-0,001
862,4	-0,001
862,9	-0,001
863,3	-0,001
863,7	-0,001
864,1	-0,001
864,6	-0,001
865	-0,001
865,4	-0,001
865,9	-0,001
866,3	-0,001
866,7	-0,001
867,1	-0
867,6	-0
868	-0
868,4	-0
868,8	-0
869,3	-0
869,7	-0
870,1	-0
870,6	0
871	-0
871,4	-0
871,8	-0
872,3	-0
872,7	-0
873,1	-0,001
873,5	-0,001
874	-0,001
874,4	-0,001
874,8	-0,001
875,3	-0,001
875,7	-0,001
876,1	-0,001
876,5	-0,001
877	-0,001
877,4	-0,001
877,8	-0,001
878,2	-0,002
878,7	-0,002
879,1	-0,002
879,5	-0,002
879,9	-0,001
880,4	-0,001
880,8	-0,001
881,2	-0,001
881,7	-0,001
882,1	-0
882,5	-0
882,9	-0
883,4	-0,001
883,8	-0,001
884,2	-0,001
884,6	-0,001
885,1	-0,002
885,5	-0,002
885,9	-0,002
886,3	-0,001
886,8	-0,001
887,2	-0,001
887,6	-0
888	-0
888,5	-0
888,9	-0
889,3	-0
889,8	-0,001
890,2	-0
890,6	-0,001
891	-0
891,5	-0
891,9	-0
892,3	0
892,7	0
893,2	0,001
893,6	0,001
894	0,001
894,4	0,001
894,9	0,001
895,3	0,001
895,7	0,001
896,1	0
896,6	-0
897	-0
897,4	-0,001
897,8	-0,001
898,3	-0,001
898,7	-0,001
899,1	-0,001
899,5	-0,001
900	-0,001
900,4	-0,001
900,8	-0,001
901,2	-0,001
901,7	-0,001
902,1	-0,001
902,5	-0,002
902,9	-0,001
903,4	-0,001
903,8	-0,001
904,2	-0,001
904,6	-0,001
905,1	-0,001
905,5	-0,001
905,9	-0,001
906,3	-0,001
906,8	-0,001
907,2	-0,001
907,6	-0,002
908	-0,002
908,5	-0,002
908,9	-0,002
909,3	-0,002
909,7	-0,002
910,2	-0,002
910,6	-0,002
911	-0,002
911,4	-0,002
911,9	-0,002
912,3	-0,002
912,7	-0,002
913,1	-0,002
913,6	-0,002
914	-0,002
914,4	-0,002
914,8	-0,002
915,3	-0,002
915,7	-0,002
916,1	-0,002
916,5	-0,002
916,9	-0,002
917,4	-0,001
917,8	-0,001
918,2	-0,001
918,6	-0
919,1	0
919,5	0
919,9	0,001
920,3	0,001
920,8	0,001
921,2	0,001
921,6	0,001
922	0,001
922,5	0
922,9	0
923,3	-0
923,7	-0
924,2	0
924,6	0
925	-0
925,4	0
925,8	0
926,3	0
926,7	0
927,1	0
927,5	0
928	0
928,4	-0
928,8	-0
929,2	-0
929,7	-0,001
930,1	-0
930,5	-0
930,9	-0
931,3	0
931,8	0
932,2	0
932,6	0
933	-0
933,5	0
933,9	-0
934,3	-0
934,7	0
935,2	0
935,6	0
936	0,001
936,4	0
936,8	0,001
937,3	0
937,7	-0
938,1	-0,001
938,5	-0,001
939	-0,001
939,4	-0,001
939,8	-0,002
940,2	-0,002
940,6	-0,002
941,1	-0,002
941,5	-0,002
941,9	-0,002
942,3	-0,002
942,8	-0,002
943,2	-0,002
943,6	-0,001
944	-0,001
944,4	-0,001
944,9	-0,001
945,3	-0,001
945,7	-0,001
946,1	-0,001
946,6	-0,001
947	-0,001
947,4	-0,001
947,8	-0,001
948,2	-0,002
948,7	-0,002
949,1	-0,002
949,5	-0,002
949,9	-0,002
950,3	-0,002
950,8	-0,002
951,2	-0,002
951,6	-0,001
952	-0,001
952,5	-0,001
952,9	-0,001
953,3	-0,001
953,7	-0,001
954,1	-0,001
954,6	-0,001
955	-0,001
955,4	-0,001
955,8	-0
956,2	-0,001
956,7	-0
957,1	0
957,5	0
957,9	0,001
958,3	0
958,8	-0
959,2	-0,001
959,6	-0
960	-0,001
960,5	-0,001
960,9	-0,001
961,3	-0,001
961,7	-0,001
962,1	-0,001
962,6	-0,002
963	-0,002
963,4	-0,003
963,8	-0,003
964,2	-0,003
964,7	-0,003
965,1	-0,003
965,5	-0,002
965,9	-0,002
966,3	-0
966,8	0
967,2	0,001
967,6	0
968	0,001
968,4	0
968,9	0
969,3	-0
969,7	-0,001
970,1	-0,001
970,5	-0,001
971	-0,001
971,4	-0,001
971,8	-0,001
972,2	-0,002
972,6	-0,002
973,1	-0,002
973,5	-0,002
973,9	-0,002
974,3	-0,002
974,7	-0,001
975,2	-0,001
975,6	-0,001
976	-0,001
976,4	-0,001
976,8	-0,002
977,3	-0,001
977,7	-0,001
978,1	-0,001
978,5	-0,001
978,9	-0
979,4	-0
979,8	-0
980,2	0
980,6	0,001
981	0,001
981,5	0,001
981,9	0
982,3	0,001
982,7	0,001
983,1	0,001
983,6	0,001
984	0
984,4	-0
984,8	0
985,2	0
985,6	-0
986,1	-0
986,5	-0
986,9	-0
987,3	-0,001
987,7	-0
988,2	-0,001
988,6	-0,001
989	-0,001
989,4	-0,001
989,8	-0,001
990,3	-0,001
990,7	-0,002
991,1	-0,002
991,5	-0,001
991,9	-0,002
992,3	-0,002
992,8	-0,001
993,2	-0,001
993,6	-0
994	-0,001
994,4	-0,001
994,9	-0,001
995,3	-0,001
995,7	-0,002
996,1	-0,001
996,5	-0,001
996,9	-0,001
997,4	-0,001
997,8	-0,001
998,2	-0
998,6	-0
999	0,001
999,5	0,001
999,9	0,001
1000,3	0,001
1000,7	0,002
1001,1	0,002
1001,5	0,002
1002	0,001
1002,4	0
1002,8	-0,001
1003,2	-0,001
1003,6	-0,001
1004	-0,002
1004,5	-0,002
1004,9	-0,002
1005,3	-0,002
1005,7	-0,002
1006,1	-0,001
1006,6	-0,001
1007	-0,001
1007,4	-0
1007,8	-0
1008,2	-0,001
1008,6	-0
1009,1	-0,001
1009,5	-0,001
1009,9	-0,001
1010,3	-0,002
1010,7	-0,002
1011,1	-0,002
1011,6	-0,002
1012	-0,002
1012,4	-0,002
1012,8	-0,002
1013,2	-0,001
1013,6	-0,002
1014,1	-0,001
1014,5	-0,001
1014,9	-0,001
1015,3	-0,001
1015,7	-0,001
1016,1	-0,001
1016,6	-0,001
1017	-0,001
1017,4	-0,001
1017,8	-0,002
1018,2	-0,002
1018,6	-0,001
1019,1	-0,001
1019,5	-0,001
1019,9	-0
1020,3	0
1020,7	0,001
1021,1	0
1021,6	0
1022	-0
1022,4	-0,001
1022,8	-0,001
1023,2	-0,001
1023,6	-0,001
1024,1	0
1024,5	0
1024,9	0,001
1025,3	0,002
1025,7	0,002
1026,1	0,003
1026,6	0,003
1027	0,002
1027,4	0,002
1027,8	0,001
1028,2	0,001
1028,6	0,001
1029	0,001
1029,5	0,002
1029,9	0,002
1030,3	0,002
1030,7	0,003
1031,1	0,003
1031,5	0,002
1032	0,002
1032,4	0,002
1032,8	0,002
1033,2	0,001
1033,6	0,001
1034	0,001
1034,4	0
1034,9	0
1035,3	-0
1035,7	-0
1036,1	-0
1036,5	0
1036,9	-0
1037,4	-0
1037,8	0,001
1038,2	0,001
1038,6	0
1039	0,001
1039,4	0
1039,8	0,001
1040,3	0
1040,7	-0
1041,1	-0
1041,5	-0
1041,9	-0,001
1042,3	-0,001
1042,7	-0,002
1043,2	-0,002
1043,6	-0,002
1044	-0,002
1044,4	-0,002
1044,8	-0,002
1045,2	-0,001
1045,6	-0
1046,1	0
1046,5	0
1046,9	0,001
1047,3	0,001
1047,7	0,001
1048,1	0
1048,5	-0
1049	-0,001
1049,4	-0,001
1049,8	-0,001
1050,2	-0,001
1050,6	-0,001
1051	-0,002
1051,4	-0,003
1051,9	-0,003
1052,3	-0,002
1052,7	-0,003
1053,1	-0,002
1053,5	-0,002
1053,9	-0,001
1054,3	-0,001
1054,8	-0,001
1055,2	-0,002
1055,6	-0,002
1056	-0,002
1056,4	-0,001
1056,8	-0,002
1057,2	-0,001
1057,6	-0,001
1058,1	-0,001
1058,5	-0,002
1058,9	-0,003
1059,3	-0,003
1059,7	-0,003
1060,1	-0,003
1060,5	-0,003
1061	-0,003
1061,4	-0,003
1061,8	-0,002
1062,2	-0,002
1062,6	-0,002
1063	-0,003
1063,4	-0,002
1063,8	-0,003
1064,3	-0,002
1064,7	-0,002
1065,1	-0,003
1065,5	-0,003
1065,9	-0,002
1066,3	-0,001
1066,7	-0,001
1067,1	-0,002
1067,6	-0,002
1068	-0,002
1068,4	-0,001
1068,8	-0,001
1069,2	-0,002
1069,6	-0,002
1070	-0,001
1070,4	-0,001
1070,9	-0,001
1071,3	-0,001
1071,7	-0,001
1072,1	-0
1072,5	-0,001
1072,9	-0,002
1073,3	-0,002
1073,7	-0,001
1074,2	-0,001
1074,6	-0,001
1075	-0
1075,4	-0
1075,8	0,001
1076,2	-0
1076,6	-0
1077	-0,001
1077,5	-0,002
1077,9	-0,002
1078,3	-0,003
1078,7	-0,002
1079,1	-0,002
1079,5	-0,003
1079,9	-0,002
1080,3	-0,002
1080,7	-0,002
1081,2	-0,001
1081,6	-0
1082	-0,002
1082,4	-0,002
1082,8	-0,004
1083,2	-0,004
1083,6	-0,004
1084	-0,003
1084,5	-0,004
1084,9	-0,002
1085,3	-0
1085,7	0,002
1086,1	0,003
1086,5	0,003
1086,9	0,001
1087,3	0,001
1087,7	0,003
1088,2	0,001
1088,6	-0,003
1089	-0,001
1089,4	0
1089,8	0,001
1090,2	-0,001
1090,6	-0,002
1091	-0,002
1091,4	0,001
1091,9	0,001
1092,3	-0,001
1092,7	0,002
1093,1	0,002
1093,5	0,001
1093,9	0,001
1094,3	0,002
1094,7	0,004
1095,1	0,008
1095,5	0,006
1096	0,007
1096,4	0,006
1096,8	0,009
1097,2	0,008
1097,6	0,002
1098	-0,002
1098,4	0,001
1098,8	0,002
1099,2	0,002
1099,6	-0,001
1100,1	-0,004
1100,5	0
1100,9	-0,001
1101,3	-0,003
1101,7	0,004
1102,1	0,004
1102,5	-0,001
1102,9	0,003
1103,3	-0,009
1103,7	-0,002
1104,2	-0,004
1104,6	-0,016
1105	-0,02
1105,4	-0,003
1105,8	-0,006
1106,2	0,016
1106,6	0,013
1107	0,005
1107,4	0,015
1107,8	0,095
1108,3	0,405
