Data from Absorbance_00088.txt Node
Date: Fri Aug 11 13:51:05 MSK 2023
User: vat
Spectrometer: MAYP114033
Trigger mode: 0
Integration Time (sec): 8,000000E-3
Scans to average: 10
Electric dark correction enabled: true
Nonlinearity correction enabled: false
Boxcar width: 3
XAxis mode: Wavelengths
Number of Pixels in Spectrum: 2068
>>>>>Begin Spectral Data<<<<<
199,4	0,778
199,9	0,196
200,4	0,358
200,8	0,692
201,3	0,817
201,8	0,853
202,2	0,905
202,7	0,943
203,2	0,986
203,6	1,035
204,1	1,055
204,6	1,065
205	1,089
205,5	1,09
206	1,094
206,4	1,111
206,9	1,138
207,4	1,156
207,8	1,181
208,3	1,214
208,8	1,231
209,2	1,25
209,7	1,275
210,2	1,28
210,6	1,3
211,1	1,313
211,5	1,32
212	1,344
212,5	1,353
212,9	1,357
213,4	1,375
213,9	1,363
214,3	1,36
214,8	1,378
215,3	1,392
215,7	1,411
216,2	1,413
216,7	1,427
217,1	1,463
217,6	1,508
218,1	1,516
218,5	1,512
219	1,518
219,5	1,533
219,9	1,543
220,4	1,549
220,9	1,565
221,3	1,571
221,8	1,601
222,3	1,615
222,7	1,632
223,2	1,651
223,6	1,676
224,1	1,661
224,6	1,684
225	1,687
225,5	1,707
226	1,731
226,4	1,734
226,9	1,725
227,4	1,736
227,8	1,736
228,3	1,769
228,8	1,782
229,2	1,78
229,7	1,793
230,2	1,801
230,6	1,817
231,1	1,816
231,5	1,806
232	1,798
232,5	1,783
232,9	1,769
233,4	1,779
233,9	1,772
234,3	1,772
234,8	1,768
235,3	1,777
235,7	1,788
236,2	1,802
236,7	1,802
237,1	1,811
237,6	1,832
238,1	1,841
238,5	1,848
239	1,862
239,4	1,87
239,9	1,882
240,4	1,894
240,8	1,891
241,3	1,9
241,8	1,923
242,2	1,926
242,7	1,93
243,2	1,938
243,6	1,948
244,1	1,957
244,6	1,968
245	1,971
245,5	1,988
245,9	2,016
246,4	2,022
246,9	2,026
247,3	2,046
247,8	2,038
248,3	2,038
248,7	2,046
249,2	2,042
249,7	2,061
250,1	2,082
250,6	2,083
251	2,098
251,5	2,107
252	2,117
252,4	2,126
252,9	2,12
253,4	2,1
253,8	2,112
254,3	2,121
254,8	2,106
255,2	2,113
255,7	2,111
256,1	2,117
256,6	2,145
257,1	2,141
257,5	2,143
258	2,168
258,5	2,156
258,9	2,153
259,4	2,151
259,9	2,142
260,3	2,143
260,8	2,144
261,2	2,137
261,7	2,155
262,2	2,153
262,6	2,151
263,1	2,142
263,6	2,132
264	2,113
264,5	2,117
264,9	2,12
265,4	2,107
265,9	2,1
266,3	2,103
266,8	2,091
267,3	2,097
267,7	2,076
268,2	2,055
268,7	2,054
269,1	2,036
269,6	2,013
270	2,005
270,5	1,992
271	1,972
271,4	1,94
271,9	1,918
272,4	1,895
272,8	1,865
273,3	1,834
273,7	1,797
274,2	1,76
274,7	1,725
275,1	1,677
275,6	1,635
276,1	1,59
276,5	1,539
277	1,491
277,4	1,439
277,9	1,387
278,4	1,339
278,8	1,288
279,3	1,239
279,8	1,193
280,2	1,145
280,7	1,099
281,1	1,054
281,6	1,011
282,1	0,97
282,5	0,931
283	0,894
283,4	0,862
283,9	0,832
284,4	0,806
284,8	0,781
285,3	0,759
285,8	0,739
286,2	0,721
286,7	0,705
287,1	0,692
287,6	0,679
288,1	0,669
288,5	0,661
289	0,654
289,5	0,647
289,9	0,64
290,4	0,636
290,8	0,633
291,3	0,628
291,8	0,625
292,2	0,621
292,7	0,618
293,1	0,616
293,6	0,612
294,1	0,609
294,5	0,608
295	0,605
295,5	0,603
295,9	0,602
296,4	0,6
296,8	0,598
297,3	0,595
297,8	0,593
298,2	0,591
298,7	0,59
299,1	0,588
299,6	0,586
300,1	0,584
300,5	0,582
301	0,58
301,5	0,577
301,9	0,574
302,4	0,573
302,8	0,569
303,3	0,567
303,8	0,564
304,2	0,561
304,7	0,559
305,1	0,556
305,6	0,553
306,1	0,55
306,5	0,546
307	0,543
307,4	0,54
307,9	0,537
308,4	0,534
308,8	0,53
309,3	0,528
309,8	0,524
310,2	0,52
310,7	0,516
311,1	0,511
311,6	0,507
312,1	0,502
312,5	0,498
313	0,494
313,4	0,49
313,9	0,486
314,4	0,482
314,8	0,478
315,3	0,475
315,7	0,47
316,2	0,465
316,7	0,461
317,1	0,457
317,6	0,452
318	0,449
318,5	0,443
319	0,438
319,4	0,434
319,9	0,43
320,3	0,425
320,8	0,421
321,3	0,415
321,7	0,411
322,2	0,406
322,6	0,402
323,1	0,396
323,6	0,391
324	0,387
324,5	0,382
324,9	0,378
325,4	0,374
325,9	0,369
326,3	0,364
326,8	0,36
327,2	0,355
327,7	0,35
328,2	0,345
328,6	0,34
329,1	0,336
329,5	0,332
330	0,328
330,5	0,323
330,9	0,319
331,4	0,315
331,8	0,311
332,3	0,307
332,8	0,302
333,2	0,298
333,7	0,295
334,1	0,29
334,6	0,287
335,1	0,282
335,5	0,278
336	0,274
336,4	0,271
336,9	0,266
337,4	0,261
337,8	0,257
338,3	0,254
338,7	0,25
339,2	0,246
339,7	0,241
340,1	0,238
340,6	0,234
341	0,231
341,5	0,228
342	0,224
342,4	0,221
342,9	0,218
343,3	0,215
343,8	0,211
344,2	0,208
344,7	0,204
345,2	0,201
345,6	0,198
346,1	0,196
346,5	0,193
347	0,19
347,5	0,188
347,9	0,185
348,4	0,182
348,8	0,178
349,3	0,175
349,8	0,173
350,2	0,169
350,7	0,167
351,1	0,165
351,6	0,163
352	0,16
352,5	0,158
353	0,155
353,4	0,153
353,9	0,15
354,3	0,148
354,8	0,146
355,3	0,143
355,7	0,141
356,2	0,138
356,6	0,137
357,1	0,134
357,5	0,133
358	0,13
358,5	0,128
358,9	0,126
359,4	0,125
359,8	0,123
360,3	0,121
360,8	0,119
361,2	0,117
361,7	0,115
362,1	0,113
362,6	0,112
363	0,109
363,5	0,107
364	0,105
364,4	0,104
364,9	0,103
365,3	0,101
365,8	0,1
366,3	0,099
366,7	0,097
367,2	0,096
367,6	0,094
368,1	0,093
368,5	0,091
369	0,09
369,5	0,088
369,9	0,087
370,4	0,086
370,8	0,084
371,3	0,083
371,7	0,082
372,2	0,08
372,7	0,08
373,1	0,079
373,6	0,077
374	0,076
374,5	0,076
374,9	0,074
375,4	0,073
375,9	0,072
376,3	0,071
376,8	0,07
377,2	0,07
377,7	0,069
378,2	0,068
378,6	0,068
379,1	0,066
379,5	0,065
380	0,064
380,4	0,063
380,9	0,062
381,4	0,061
381,8	0,06
382,3	0,06
382,7	0,059
383,2	0,059
383,6	0,057
384,1	0,056
384,6	0,056
385	0,056
385,5	0,055
385,9	0,054
386,4	0,053
386,8	0,053
387,3	0,052
387,7	0,051
388,2	0,049
388,7	0,049
389,1	0,049
389,6	0,048
390	0,048
390,5	0,047
390,9	0,047
391,4	0,046
391,9	0,045
392,3	0,044
392,8	0,044
393,2	0,043
393,7	0,043
394,1	0,043
394,6	0,042
395,1	0,041
395,5	0,042
396	0,042
396,4	0,041
396,9	0,04
397,3	0,04
397,8	0,039
398,2	0,039
398,7	0,038
399,2	0,038
399,6	0,038
400,1	0,037
400,5	0,037
401	0,036
401,4	0,036
401,9	0,035
402,4	0,034
402,8	0,034
403,3	0,034
403,7	0,033
404,2	0,033
404,6	0,034
405,1	0,034
405,5	0,034
406	0,033
406,5	0,033
406,9	0,032
407,4	0,031
407,8	0,03
408,3	0,029
408,7	0,029
409,2	0,028
409,6	0,027
410,1	0,028
410,6	0,028
411	0,028
411,5	0,028
411,9	0,028
412,4	0,028
412,8	0,028
413,3	0,027
413,7	0,026
414,2	0,027
414,7	0,026
415,1	0,026
415,6	0,026
416	0,025
416,5	0,025
416,9	0,025
417,4	0,024
417,8	0,024
418,3	0,024
418,8	0,024
419,2	0,024
419,7	0,023
420,1	0,023
420,6	0,023
421	0,023
421,5	0,022
421,9	0,021
422,4	0,021
422,8	0,02
423,3	0,02
423,8	0,02
424,2	0,019
424,7	0,019
425,1	0,019
425,6	0,019
426	0,019
426,5	0,019
426,9	0,018
427,4	0,017
427,9	0,017
428,3	0,017
428,8	0,016
429,2	0,016
429,7	0,016
430,1	0,016
430,6	0,015
431	0,015
431,5	0,014
431,9	0,014
432,4	0,013
432,8	0,013
433,3	0,013
433,8	0,014
434,2	0,014
434,7	0,014
435,1	0,014
435,6	0,014
436	0,013
436,5	0,013
436,9	0,013
437,4	0,012
437,8	0,013
438,3	0,012
438,8	0,011
439,2	0,012
439,7	0,011
440,1	0,011
440,6	0,01
441	0,01
441,5	0,01
441,9	0,01
442,4	0,01
442,8	0,01
443,3	0,01
443,7	0,011
444,2	0,01
444,7	0,01
445,1	0,01
445,6	0,009
446	0,009
446,5	0,009
446,9	0,009
447,4	0,009
447,8	0,009
448,3	0,009
448,7	0,009
449,2	0,009
449,6	0,009
450,1	0,009
450,6	0,008
451	0,008
451,5	0,007
451,9	0,006
452,4	0,007
452,8	0,005
453,3	0,005
453,7	0,006
454,2	0,005
454,6	0,006
455,1	0,005
455,5	0,005
456	0,006
456,4	0,007
456,9	0,007
457,3	0,007
457,8	0,006
458,3	0,006
458,7	0,006
459,2	0,006
459,6	0,006
460,1	0,006
460,5	0,006
461	0,006
461,4	0,006
461,9	0,006
462,3	0,005
462,8	0,005
463,2	0,005
463,7	0,005
464,1	0,005
464,6	0,005
465	0,005
465,5	0,005
466	0,005
466,4	0,006
466,9	0,005
467,3	0,005
467,8	0,004
468,2	0,004
468,7	0,004
469,1	0,004
469,6	0,004
470	0,003
470,5	0,003
470,9	0,004
471,4	0,004
471,8	0,004
472,3	0,004
472,7	0,004
473,2	0,004
473,6	0,004
474,1	0,003
474,5	0,003
475	0,003
475,4	0,003
475,9	0,003
476,4	0,004
476,8	0,004
477,3	0,004
477,7	0,004
478,2	0,004
478,6	0,004
479,1	0,004
479,5	0,004
480	0,004
480,4	0,005
480,9	0,004
481,3	0,004
481,8	0,003
482,2	0,003
482,7	0,002
483,1	0,002
483,6	0,001
484	0,002
484,5	0,001
484,9	0,001
485,4	0,001
485,8	0,003
486,3	0,003
486,7	0,003
487,2	0,003
487,6	0,003
488,1	0,003
488,5	0,004
489	0,002
489,4	0,001
489,9	0,003
490,4	0,003
490,8	0,003
491,3	0,003
491,7	0,003
492,2	0,003
492,6	0,003
493,1	0,003
493,5	0,003
494	0,002
494,4	0,003
494,9	0,003
495,3	0,003
495,8	0,003
496,2	0,003
496,7	0,002
497,1	0,002
497,6	0,002
498	0,002
498,5	0,002
498,9	0,002
499,4	0,001
499,8	0,001
500,3	0,001
500,7	0,001
501,2	0,002
501,6	0,001
502,1	0,001
502,5	0,001
503	0,001
503,4	0,002
503,9	0,002
504,3	0,002
504,8	0,003
505,2	0,003
505,7	0,003
506,1	0,003
506,6	0,002
507	0,003
507,5	0,003
507,9	0,002
508,4	0,002
508,8	0,002
509,3	0,002
509,7	0,002
510,2	0,002
510,6	0,002
511,1	0,002
511,5	0,002
512	0,001
512,4	0,001
512,9	0,002
513,3	0,001
513,8	0,001
514,2	0,001
514,7	0,002
515,1	0,002
515,6	0,002
516	0,002
516,5	0,003
516,9	0,002
517,4	0,002
517,8	0,001
518,3	0
518,7	0
519,2	0,001
519,6	0,001
520,1	0,001
520,5	0,001
521	0,002
521,4	0,002
521,9	0,002
522,3	0,002
522,8	0,002
523,2	0,003
523,7	0,003
524,1	0,003
524,6	0,003
525	0,003
525,5	0,003
525,9	0,002
526,4	0,003
526,8	0,003
527,3	0,003
527,7	0,003
528,2	0,003
528,6	0,002
529,1	0,003
529,5	0,002
530	0,002
530,4	0,003
530,9	0,002
531,3	0,002
531,8	0,002
532,2	0,002
532,6	0,002
533,1	0,002
533,5	0,002
534	0,002
534,4	0,002
534,9	0,002
535,3	0,002
535,8	0,002
536,2	0,001
536,7	0,001
537,1	0
537,6	0
538	0,001
538,5	0,001
538,9	0,001
539,4	0,001
539,8	0,002
540,3	0,002
540,7	0,002
541,2	0,002
541,6	0,002
542,1	0,002
542,5	0,002
543	0,002
543,4	0,001
543,9	0,001
544,3	0,001
544,8	0
545,2	0
545,7	0
546,1	0,001
546,5	0,001
547	0,001
547,4	0,001
547,9	0,001
548,3	0,002
548,8	0,002
549,2	0,001
549,7	0,002
550,1	0,001
550,6	0,001
551	0,001
551,5	0,001
551,9	0,001
552,4	0,001
552,8	0,001
553,3	0,001
553,7	0,001
554,2	0,001
554,6	0,001
555,1	0,001
555,5	0,001
555,9	0
556,4	0
556,8	0,001
557,3	0
557,7	0,001
558,2	0,001
558,6	0
559,1	0,001
559,5	0
560	0,001
560,4	0,001
560,9	0,001
561,3	0,001
561,8	0,001
562,2	0,001
562,7	0,002
563,1	0,002
563,6	0,002
564	0,002
564,4	0,002
564,9	0,002
565,3	0,002
565,8	0,002
566,2	0,002
566,7	0,002
567,1	0,001
567,6	0,001
568	0,001
568,5	0
568,9	0
569,4	0,001
569,8	0,001
570,3	0,001
570,7	0,001
571,1	0,001
571,6	0,001
572	0,001
572,5	0,001
572,9	0,001
573,4	0,001
573,8	0,001
574,3	0,001
574,7	0
575,2	0
575,6	0
576,1	0
576,5	0,001
576,9	0,001
577,4	0,001
577,8	0,001
578,3	0,001
578,7	0,001
579,2	0,001
579,6	0,001
580,1	0,001
580,5	0
581	0,001
581,4	0,001
581,9	0,001
582,3	0
582,7	0
583,2	0
583,6	0,001
584,1	0,001
584,5	0,001
585	0,001
585,4	0,001
585,9	0,001
586,3	0,001
586,8	0,001
587,2	0,001
587,6	0,001
588,1	0,001
588,5	0,001
589	0,001
589,4	0,001
589,9	0,001
590,3	0,001
590,8	0,001
591,2	0,001
591,7	0,001
592,1	0,002
592,5	0,002
593	0,002
593,4	0,002
593,9	0,001
594,3	0,001
594,8	0,001
595,2	0,001
595,7	0,001
596,1	0,001
596,6	0,001
597	0,001
597,4	0,001
597,9	0,001
598,3	0
598,8	0,001
599,2	0
599,7	-0
600,1	-0
600,6	-0
601	-0,001
601,4	-0,001
601,9	-0,001
602,3	-0,001
602,8	-0,001
603,2	-0,001
603,7	-0,001
604,1	-0,001
604,6	-0
605	-0
605,4	-0
605,9	0
606,3	0
606,8	0,001
607,2	0,001
607,7	0,001
608,1	0,001
608,6	0,001
609	0,001
609,4	0,001
609,9	0,001
610,3	0
610,8	0
611,2	0
611,7	0
612,1	0
612,6	0
613	0,001
613,4	0,001
613,9	0,001
614,3	0,001
614,8	0,001
615,2	0,001
615,7	0,001
616,1	0,001
616,6	0,001
617	0,001
617,4	0,001
617,9	0,001
618,3	0,001
618,8	0,001
619,2	0,001
619,7	0,001
620,1	0,001
620,5	0,001
621	0,001
621,4	0,002
621,9	0,001
622,3	0,001
622,8	0,002
623,2	0,002
623,6	0,002
624,1	0,002
624,5	0,002
625	0,002
625,4	0,002
625,9	0,001
626,3	0,001
626,8	0,001
627,2	0,001
627,6	0,001
628,1	0,001
628,5	0,001
629	0,002
629,4	0,002
629,9	0,002
630,3	0,002
630,7	0,002
631,2	0,002
631,6	0,001
632,1	0,001
632,5	0,001
633	0,001
633,4	0,001
633,8	0,001
634,3	0,001
634,7	0,001
635,2	0,002
635,6	0,001
636,1	0,002
636,5	0,001
636,9	0,001
637,4	0
637,8	0
638,3	0
638,7	0,001
639,2	0
639,6	0,001
640	0,001
640,5	0,001
640,9	0,001
641,4	0,001
641,8	0,002
642,2	0,002
642,7	0,001
643,1	0,001
643,6	0,001
644	0,001
644,5	0,001
644,9	0
645,3	0,001
645,8	0,001
646,2	0,002
646,7	0,002
647,1	0,002
647,6	0,002
648	0,002
648,4	0,002
648,9	0,001
649,3	0,001
649,8	0,001
650,2	0,001
650,6	0,001
651,1	0
651,5	0,001
652	0
652,4	-0
652,9	-0
653,3	-0
653,7	0
654,2	0
654,6	-0,001
655,1	-0,001
655,5	-0
655,9	-0
656,4	-0
656,8	0,001
657,3	0,002
657,7	0,003
658,2	0,003
658,6	0,004
659	0,006
659,5	0,009
659,9	0,01
660,4	0,008
660,8	0,006
661,2	0,004
661,7	0,003
662,1	0,002
662,6	0,001
663	0,001
663,4	0
663,9	-0
664,3	-0
664,8	-0,001
665,2	-0
665,6	-0
666,1	-0
666,5	-0
667	0
667,4	0,001
667,9	0,001
668,3	0,001
668,7	0,001
669,2	0,001
669,6	0
670,1	0
670,5	0
670,9	-0
671,4	-0
671,8	-0
672,3	-0
672,7	-0
673,1	-0
673,6	-0
674	-0
674,5	-0
674,9	-0,001
675,3	-0
675,8	-0
676,2	0
676,7	0
677,1	-0
677,5	-0
678	0,001
678,4	0,001
678,9	0,001
679,3	0,001
679,7	0,001
680,2	0,001
680,6	0,001
681,1	0,001
681,5	0,001
681,9	0,001
682,4	0,001
682,8	0,001
683,3	0,001
683,7	0,001
684,1	0,001
684,6	0,001
685	0
685,5	0
685,9	-0
686,3	-0
686,8	0
687,2	0
687,7	0
688,1	0
688,5	0,001
689	0,001
689,4	0,001
689,9	0
690,3	0,001
690,7	0,001
691,2	0,001
691,6	0,001
692	0,001
692,5	0,001
692,9	0,001
693,4	0,001
693,8	0,001
694,2	0,001
694,7	0,001
695,1	0,001
695,6	0,001
696	0,001
696,4	0,001
696,9	0,001
697,3	0,001
697,8	0,001
698,2	0
698,6	0
699,1	0
699,5	0,001
699,9	0,001
700,4	0,001
700,8	0,001
701,3	0,001
701,7	0,001
702,1	0,001
702,6	0,001
703	0,001
703,5	0,002
703,9	0,001
704,3	0,001
704,8	0,001
705,2	0,001
705,6	-0
706,1	-0
706,5	-0,001
707	-0,001
707,4	-0,001
707,8	-0,001
708,3	-0
708,7	0
709,2	0
709,6	0
710	0,001
710,5	0,001
710,9	0,001
711,3	0,001
711,8	0
712,2	0
712,7	0
713,1	-0
713,5	-0
714	-0
714,4	-0,001
714,8	-0,001
715,3	-0,001
715,7	-0,001
716,2	-0
716,6	0
717	0
717,5	0,001
717,9	0
718,3	0
718,8	0
719,2	-0
719,7	-0
720,1	-0
720,5	0
721	0,001
721,4	0,001
721,8	0
722,3	0
722,7	0
723,2	0
723,6	0
724	-0
724,5	-0,001
724,9	-0
725,3	-0
725,8	-0
726,2	0
726,7	0
727,1	0
727,5	0
728	0
728,4	-0
728,8	-0
729,3	-0
729,7	-0
730,1	-0
730,6	-0
731	-0
731,5	-0
731,9	-0
732,3	-0
732,8	-0
733,2	-0
733,6	-0
734,1	-0
734,5	-0
734,9	0
735,4	0
735,8	-0
736,3	0
736,7	0
737,1	0
737,6	0
738	0
738,4	0
738,9	0
739,3	-0
739,7	-0,001
740,2	-0,001
740,6	-0,001
741,1	-0,001
741,5	-0,001
741,9	-0,001
742,4	-0,001
742,8	-0,001
743,2	-0,001
743,7	-0
744,1	0
744,5	0
745	0
745,4	0
745,8	0
746,3	0
746,7	-0
747,2	-0
747,6	0
748	-0
748,5	-0
748,9	0
749,3	0
749,8	0
750,2	0
750,6	0
751,1	0
751,5	0,001
751,9	0
752,4	0
752,8	0,001
753,3	0,001
753,7	0,001
754,1	0,001
754,6	0,001
755	0,001
755,4	0,001
755,9	0
756,3	0,001
756,7	0
757,2	0
757,6	-0
758	-0
758,5	-0
758,9	0
759,3	0
759,8	0
760,2	0
760,6	0,001
761,1	0,001
761,5	0,001
761,9	0,001
762,4	0,001
762,8	0,001
763,3	0,001
763,7	0,001
764,1	0,002
764,6	0,001
765	0,001
765,4	0,002
765,9	0,002
766,3	0,002
766,7	0,002
767,2	0,003
767,6	0,003
768	0,003
768,5	0,003
768,9	0,003
769,3	0,003
769,8	0,003
770,2	0,003
770,6	0,003
771,1	0,002
771,5	0,002
771,9	0,002
772,4	0,002
772,8	0,001
773,2	0,001
773,7	0,001
774,1	0,001
774,5	0,002
775	0,002
775,4	0,002
775,8	0,001
776,3	0,001
776,7	0,001
777,1	0,001
777,6	0,001
778	0,001
778,4	0,001
778,9	0,001
779,3	0,001
779,7	0,001
780,2	0,001
780,6	0,001
781	0,001
781,5	0,001
781,9	0,001
782,3	0,001
782,8	0,001
783,2	0,001
783,6	0,002
784,1	0,002
784,5	0,002
784,9	0,002
785,4	0,002
785,8	0,002
786,2	0,002
786,7	0,002
787,1	0,002
787,5	0,002
788	0,002
788,4	0,002
788,8	0,002
789,3	0,002
789,7	0,002
790,1	0,001
790,6	0,001
791	0,001
791,4	0,001
791,9	0,001
792,3	0,001
792,7	0,001
793,2	0,001
793,6	0,001
794	0
794,5	0
794,9	0
795,3	0,001
795,8	0,001
796,2	0,001
796,6	0,001
797,1	0,002
797,5	0,002
797,9	0,002
798,4	0,002
798,8	0,001
799,2	0,001
799,7	0,001
800,1	0,001
800,5	0,001
801	0
801,4	0
801,8	0
802,2	0,001
802,7	0,001
803,1	0,001
803,5	0,001
804	0,002
804,4	0,002
804,8	0,002
805,3	0,002
805,7	0,001
806,1	0,001
806,6	0,001
807	0,001
807,4	0
807,9	0
808,3	0
808,7	0,001
809,2	0,001
809,6	0
810	0
810,4	0
810,9	-0
811,3	0
811,7	0
812,2	0
812,6	0
813	0
813,5	0
813,9	0
814,3	0
814,8	-0
815,2	-0
815,6	-0
816,1	-0,001
816,5	-0,001
816,9	-0,001
817,3	-0,001
817,8	-0,001
818,2	-0,001
818,6	-0,001
819,1	-0,001
819,5	-0,001
819,9	-0,001
820,4	-0,001
820,8	-0,001
821,2	-0,001
821,7	-0,001
822,1	-0,001
822,5	-0,001
822,9	-0,001
823,4	-0,001
823,8	-0,002
824,2	-0,001
824,7	-0,001
825,1	-0,001
825,5	-0,001
826	-0
826,4	-0,001
826,8	0
827,3	0
827,7	0
828,1	0,001
828,5	0,001
829	0,001
829,4	0,001
829,8	0,001
830,3	0,002
830,7	0,002
831,1	0,002
831,6	0,001
832	0,001
832,4	0,001
832,8	0,001
833,3	0,001
833,7	0,001
834,1	0,001
834,6	0
835	0,001
835,4	0
835,8	0
836,3	-0
836,7	-0
837,1	-0
837,6	-0
838	-0
838,4	-0,001
838,9	-0
839,3	-0
839,7	0
840,1	0
840,6	0,001
841	0,001
841,4	0,001
841,9	0,001
842,3	0,001
842,7	0,001
843,1	0,001
843,6	0,001
844	0,001
844,4	0
844,9	0
845,3	0
845,7	0
846,2	-0
846,6	-0
847	-0
847,4	-0
847,9	0
848,3	0
848,7	0
849,2	0
849,6	0
850	0
850,4	0
850,9	-0
851,3	-0
851,7	-0
852,2	0
852,6	0,001
853	0,001
853,4	0,001
853,9	0,002
854,3	0,002
854,7	0,002
855,2	0,002
855,6	0,002
856	0,002
856,4	0,002
856,9	0,002
857,3	0,002
857,7	0,002
858,2	0,002
858,6	0,002
859	0,001
859,4	0,001
859,9	0,001
860,3	0
860,7	0
861,1	-0
861,6	-0
862	-0
862,4	-0
862,9	0
863,3	0
863,7	0
864,1	0
864,6	0
865	0
865,4	0
865,9	-0
866,3	0
866,7	0
867,1	0
867,6	0,001
868	0,001
868,4	0,001
868,8	0,001
869,3	0
869,7	0,001
870,1	0
870,6	0
871	0
871,4	0
871,8	-0
872,3	-0
872,7	-0
873,1	-0
873,5	-0,001
874	-0,001
874,4	-0,001
874,8	-0,001
875,3	-0,002
875,7	-0,002
876,1	-0,002
876,5	-0,002
877	-0,002
877,4	-0,001
877,8	-0,002
878,2	-0,002
878,7	-0,001
879,1	-0,001
879,5	-0,001
879,9	-0
880,4	-0,001
880,8	-0
881,2	0,001
881,7	0,001
882,1	0,001
882,5	0,001
882,9	0,001
883,4	0,001
883,8	0,001
884,2	0,001
884,6	-0
885,1	-0,001
885,5	-0
885,9	-0
886,3	-0
886,8	-0
887,2	0
887,6	0,001
888	0,001
888,5	0,001
888,9	0
889,3	0
889,8	0
890,2	0
890,6	0
891	0
891,5	0
891,9	0,001
892,3	0,001
892,7	0
893,2	0
893,6	-0
894	-0
894,4	-0
894,9	-0
895,3	-0
895,7	0
896,1	-0
896,6	-0
897	-0
897,4	-0,001
897,8	-0,001
898,3	-0,001
898,7	-0,001
899,1	-0,001
899,5	-0,001
900	-0,002
900,4	-0,001
900,8	-0,001
901,2	-0,001
901,7	-0
902,1	-0
902,5	-0
902,9	-0
903,4	-0,001
903,8	-0,001
904,2	-0,001
904,6	-0,001
905,1	-0,001
905,5	-0,001
905,9	-0,001
906,3	-0,001
906,8	-0,002
907,2	-0,002
907,6	-0,002
908	-0,002
908,5	-0,002
908,9	-0,002
909,3	-0,002
909,7	-0,002
910,2	-0,002
910,6	-0,002
911	-0,002
911,4	-0,001
911,9	-0,001
912,3	-0,001
912,7	-0,001
913,1	-0
913,6	-0
914	-0
914,4	-0
914,8	-0,001
915,3	-0,001
915,7	-0,001
916,1	-0,001
916,5	-0,001
916,9	-0,001
917,4	-0,001
917,8	-0,001
918,2	-0,001
918,6	-0,001
919,1	-0
919,5	0
919,9	0
920,3	0,001
920,8	0,001
921,2	0,001
921,6	0
922	0
922,5	-0
922,9	0
923,3	-0
923,7	-0
924,2	-0
924,6	-0
925	-0,001
925,4	-0
925,8	-0
926,3	-0
926,7	-0
927,1	-0
927,5	0
928	0
928,4	0
928,8	-0
929,2	0
929,7	-0
930,1	0
930,5	0
930,9	0
931,3	0
931,8	0
932,2	0
932,6	0
933	-0
933,5	-0
933,9	-0
934,3	-0
934,7	0
935,2	0
935,6	0,001
936	0,001
936,4	0,001
936,8	0,001
937,3	0,001
937,7	0,001
938,1	0,001
938,5	0,001
939	0,001
939,4	0,001
939,8	0,001
940,2	0,001
940,6	0,001
941,1	0,001
941,5	0,002
941,9	0,001
942,3	0,001
942,8	0
943,2	-0
943,6	-0
944	-0
944,4	-0
944,9	0
945,3	0,001
945,7	0,001
946,1	0,001
946,6	0,001
947	0,001
947,4	0,001
947,8	0
948,2	-0
948,7	0
949,1	-0
949,5	-0
949,9	-0
950,3	-0,001
950,8	-0,001
951,2	-0,001
951,6	-0,001
952	-0,001
952,5	-0,001
952,9	-0,001
953,3	-0
953,7	-0
954,1	0
954,6	0
955	0,001
955,4	0
955,8	0,001
956,2	0
956,7	0,001
957,1	0,001
957,5	0,001
957,9	0,001
958,3	0,001
958,8	0
959,2	0
959,6	-0,001
960	-0,001
960,5	-0,001
960,9	-0,001
961,3	-0,002
961,7	-0,002
962,1	-0,001
962,6	-0,002
963	-0,002
963,4	-0,002
963,8	-0,002
964,2	-0,001
964,7	-0,001
965,1	-0,001
965,5	-0
965,9	-0
966,3	0,001
966,8	0,001
967,2	0,001
967,6	0,001
968	0,001
968,4	0,001
968,9	0,001
969,3	-0
969,7	0
970,1	-0
970,5	-0
971	0
971,4	-0
971,8	-0
972,2	-0
972,6	-0
973,1	-0,001
973,5	-0,001
973,9	-0
974,3	0
974,7	0,001
975,2	0,001
975,6	0
976	0,001
976,4	0
976,8	-0
977,3	-0
977,7	-0,001
978,1	-0,001
978,5	-0,001
978,9	-0
979,4	-0
979,8	0
980,2	0
980,6	0,001
981	0,001
981,5	0,001
981,9	0,001
982,3	0,001
982,7	0,001
983,1	0,001
983,6	0,001
984	0
984,4	-0
984,8	-0,001
985,2	-0
985,6	-0,001
986,1	-0,001
986,5	-0
986,9	-0
987,3	-0,001
987,7	-0
988,2	-0,001
988,6	-0,001
989	-0,001
989,4	-0,001
989,8	-0,002
990,3	-0,002
990,7	-0,001
991,1	-0,001
991,5	-0,001
991,9	-0,001
992,3	-0
992,8	0,001
993,2	0,001
993,6	0
994	0
994,4	-0,001
994,9	-0,001
995,3	-0,001
995,7	-0,001
996,1	-0,002
996,5	-0,001
996,9	-0,001
997,4	-0
997,8	-0
998,2	0
998,6	0
999	0,001
999,5	0
999,9	0,001
1000,3	0
1000,7	0
1001,1	0
1001,5	-0
1002	-0,001
1002,4	-0,001
1002,8	-0,001
1003,2	-0,001
1003,6	-0,002
1004	-0,002
1004,5	-0,002
1004,9	-0,002
1005,3	-0,001
1005,7	-0,001
1006,1	-0,001
1006,6	-0,001
1007	-0,001
1007,4	-0,001
1007,8	-0,001
1008,2	-0,001
1008,6	-0,001
1009,1	-0,002
1009,5	-0,002
1009,9	-0,003
1010,3	-0,003
1010,7	-0,003
1011,1	-0,003
1011,6	-0,004
1012	-0,004
1012,4	-0,005
1012,8	-0,005
1013,2	-0,005
1013,6	-0,005
1014,1	-0,004
1014,5	-0,004
1014,9	-0,004
1015,3	-0,003
1015,7	-0,004
1016,1	-0,004
1016,6	-0,003
1017	-0,003
1017,4	-0,003
1017,8	-0,003
1018,2	-0,003
1018,6	-0,002
1019,1	-0,002
1019,5	-0,002
1019,9	-0,002
1020,3	-0,002
1020,7	-0,002
1021,1	-0,002
1021,6	-0,002
1022	-0,001
1022,4	-0,001
1022,8	-0,001
1023,2	-0,001
1023,6	-0
1024,1	0
1024,5	0
1024,9	0,001
1025,3	0,002
1025,7	0,002
1026,1	0,002
1026,6	0,002
1027	0,002
1027,4	0,002
1027,8	0,001
1028,2	0,001
1028,6	0,001
1029	0,002
1029,5	0,002
1029,9	0,002
1030,3	0,002
1030,7	0,003
1031,1	0,003
1031,5	0,002
1032	0,002
1032,4	0,002
1032,8	0,001
1033,2	0,001
1033,6	0,001
1034	0,001
1034,4	0,001
1034,9	0,001
1035,3	0,001
1035,7	0,001
1036,1	0,001
1036,5	0
1036,9	-0
1037,4	-0
1037,8	-0
1038,2	-0
1038,6	-0,001
1039	-0
1039,4	-0
1039,8	0
1040,3	0
1040,7	0
1041,1	0
1041,5	-0
1041,9	-0,001
1042,3	-0,002
1042,7	-0,003
1043,2	-0,003
1043,6	-0,003
1044	-0,003
1044,4	-0,003
1044,8	-0,002
1045,2	-0,001
1045,6	-0
1046,1	0
1046,5	0
1046,9	0,001
1047,3	0,001
1047,7	0
1048,1	-0
1048,5	-0,001
1049	-0,001
1049,4	-0,001
1049,8	-0,001
1050,2	-0,001
1050,6	-0,002
1051	-0,002
1051,4	-0,002
1051,9	-0,002
1052,3	-0,002
1052,7	-0,002
1053,1	-0,002
1053,5	-0,001
1053,9	-0
1054,3	-0,001
1054,8	-0
1055,2	-0,001
1055,6	-0,001
1056	-0,002
1056,4	-0,002
1056,8	-0,002
1057,2	-0,002
1057,6	-0,003
1058,1	-0,003
1058,5	-0,003
1058,9	-0,003
1059,3	-0,003
1059,7	-0,003
1060,1	-0,003
1060,5	-0,003
1061	-0,003
1061,4	-0,003
1061,8	-0,003
1062,2	-0,003
1062,6	-0,003
1063	-0,002
1063,4	-0,002
1063,8	-0,002
1064,3	-0,001
1064,7	-0,001
1065,1	-0,001
1065,5	-0,001
1065,9	-0
1066,3	-0
1066,7	0
1067,1	-0
1067,6	-0,001
1068	-0
1068,4	-0
1068,8	-0,001
1069,2	-0,001
1069,6	-0,001
1070	-0,001
1070,4	-0,001
1070,9	-0,002
1071,3	-0,002
1071,7	-0,003
1072,1	-0,003
1072,5	-0,003
1072,9	-0,004
1073,3	-0,003
1073,7	-0,002
1074,2	-0,003
1074,6	-0,001
1075	-0,001
1075,4	-0,001
1075,8	0,001
1076,2	0,001
1076,6	0,001
1077	0
1077,5	-0,002
1077,9	-0,002
1078,3	-0,002
1078,7	-0,002
1079,1	-0,001
1079,5	-0,002
1079,9	-0,001
1080,3	-0
1080,7	-0,001
1081,2	0
1081,6	-0,001
1082	-0,003
1082,4	-0,002
1082,8	-0,003
1083,2	-0,003
1083,6	-0,003
1084	-0,003
1084,5	-0,003
1084,9	-0,001
1085,3	-0,002
1085,7	-0,002
1086,1	-0,002
1086,5	-0,002
1086,9	-0,002
1087,3	0
1087,7	-0
1088,2	-0,002
1088,6	-0,003
1089	-0,001
1089,4	-0,002
1089,8	-0,005
1090,2	-0,009
1090,6	-0,008
1091	-0,007
1091,4	-0,004
1091,9	-0,005
1092,3	-0,003
1092,7	-0,001
1093,1	0,003
1093,5	0,002
1093,9	0
1094,3	0,001
1094,7	0,002
1095,1	0,002
1095,5	0
1096	-0,004
1096,4	-0,005
1096,8	-0,006
1097,2	-0,006
1097,6	-0,012
1098	-0,015
1098,4	-0,015
1098,8	-0,013
1099,2	-0,013
1099,6	-0,009
1100,1	-0,012
1100,5	-0,005
1100,9	-0,004
1101,3	0,003
1101,7	0,006
1102,1	0,005
1102,5	0,003
1102,9	0,011
1103,3	0,004
1103,7	-0
1104,2	-0,006
1104,6	-0,013
1105	-0,017
1105,4	-0,015
1105,8	-0,021
1106,2	-0,016
1106,6	-0,009
1107	-0,027
1107,4	-0,03
1107,8	-0,001
1108,3	0,615
