Data from Absorbance_00083.txt Node
Date: Fri Aug 11 13:46:30 MSK 2023
User: vat
Spectrometer: MAYP114033
Trigger mode: 0
Integration Time (sec): 8,000000E-3
Scans to average: 10
Electric dark correction enabled: true
Nonlinearity correction enabled: false
Boxcar width: 3
XAxis mode: Wavelengths
Number of Pixels in Spectrum: 2068
>>>>>Begin Spectral Data<<<<<
199,4	-0
199,9	0,271
200,4	0,441
200,8	0,712
201,3	0,852
201,8	0,909
202,2	0,931
202,7	0,98
203,2	1,009
203,6	1,054
204,1	1,091
204,6	1,124
205	1,157
205,5	1,172
206	1,169
206,4	1,189
206,9	1,193
207,4	1,206
207,8	1,202
208,3	1,216
208,8	1,233
209,2	1,252
209,7	1,265
210,2	1,284
210,6	1,277
211,1	1,301
211,5	1,31
212	1,332
212,5	1,35
212,9	1,362
213,4	1,375
213,9	1,389
214,3	1,386
214,8	1,395
215,3	1,405
215,7	1,407
216,2	1,401
216,7	1,427
217,1	1,46
217,6	1,491
218,1	1,503
218,5	1,51
219	1,537
219,5	1,556
219,9	1,565
220,4	1,566
220,9	1,573
221,3	1,589
221,8	1,615
222,3	1,623
222,7	1,653
223,2	1,668
223,6	1,682
224,1	1,703
224,6	1,727
225	1,749
225,5	1,762
226	1,779
226,4	1,788
226,9	1,805
227,4	1,814
227,8	1,807
228,3	1,816
228,8	1,826
229,2	1,823
229,7	1,838
230,2	1,859
230,6	1,887
231,1	1,897
231,5	1,906
232	1,918
232,5	1,929
232,9	1,931
233,4	1,929
233,9	1,91
234,3	1,909
234,8	1,909
235,3	1,914
235,7	1,93
236,2	1,956
236,7	1,974
237,1	1,979
237,6	2,017
238,1	2,024
238,5	2,025
239	2,026
239,4	2,023
239,9	2,027
240,4	2,034
240,8	2,026
241,3	2,035
241,8	2,08
242,2	2,076
242,7	2,068
243,2	2,075
243,6	2,087
244,1	2,087
244,6	2,076
245	2,057
245,5	2,079
245,9	2,097
246,4	2,11
246,9	2,124
247,3	2,134
247,8	2,137
248,3	2,139
248,7	2,131
249,2	2,116
249,7	2,123
250,1	2,102
250,6	2,11
251	2,115
251,5	2,112
252	2,115
252,4	2,13
252,9	2,113
253,4	2,132
253,8	2,117
254,3	2,117
254,8	2,125
255,2	2,134
255,7	2,128
256,1	2,121
256,6	2,125
257,1	2,144
257,5	2,165
258	2,153
258,5	2,15
258,9	2,158
259,4	2,175
259,9	2,171
260,3	2,176
260,8	2,171
261,2	2,194
261,7	2,208
262,2	2,192
262,6	2,19
263,1	2,188
263,6	2,173
264	2,159
264,5	2,148
264,9	2,142
265,4	2,136
265,9	2,131
266,3	2,133
266,8	2,138
267,3	2,14
267,7	2,138
268,2	2,13
268,7	2,142
269,1	2,125
269,6	2,122
270	2,111
270,5	2,11
271	2,103
271,4	2,09
271,9	2,077
272,4	2,064
272,8	2,054
273,3	2,047
273,7	2,034
274,2	2,02
274,7	2,015
275,1	2,014
275,6	2,013
276,1	1,988
276,5	1,961
277	1,947
277,4	1,919
277,9	1,881
278,4	1,84
278,8	1,794
279,3	1,743
279,8	1,691
280,2	1,622
280,7	1,553
281,1	1,484
281,6	1,416
282,1	1,345
282,5	1,276
283	1,211
283,4	1,148
283,9	1,093
284,4	1,04
284,8	0,989
285,3	0,945
285,8	0,906
286,2	0,867
286,7	0,835
287,1	0,806
287,6	0,78
288,1	0,76
288,5	0,742
289	0,725
289,5	0,713
289,9	0,701
290,4	0,691
290,8	0,685
291,3	0,676
291,8	0,671
292,2	0,665
292,7	0,661
293,1	0,657
293,6	0,654
294,1	0,648
294,5	0,646
295	0,642
295,5	0,641
295,9	0,638
296,4	0,635
296,8	0,632
297,3	0,631
297,8	0,628
298,2	0,625
298,7	0,622
299,1	0,62
299,6	0,619
300,1	0,617
300,5	0,615
301	0,612
301,5	0,61
301,9	0,607
302,4	0,603
302,8	0,6
303,3	0,598
303,8	0,596
304,2	0,594
304,7	0,592
305,1	0,589
305,6	0,587
306,1	0,583
306,5	0,578
307	0,574
307,4	0,57
307,9	0,565
308,4	0,562
308,8	0,558
309,3	0,555
309,8	0,552
310,2	0,548
310,7	0,544
311,1	0,541
311,6	0,537
312,1	0,532
312,5	0,528
313	0,523
313,4	0,52
313,9	0,516
314,4	0,512
314,8	0,508
315,3	0,503
315,7	0,498
316,2	0,493
316,7	0,488
317,1	0,482
317,6	0,477
318	0,472
318,5	0,468
319	0,463
319,4	0,459
319,9	0,453
320,3	0,448
320,8	0,443
321,3	0,437
321,7	0,43
322,2	0,425
322,6	0,418
323,1	0,414
323,6	0,408
324	0,402
324,5	0,397
324,9	0,392
325,4	0,388
325,9	0,383
326,3	0,377
326,8	0,372
327,2	0,368
327,7	0,362
328,2	0,358
328,6	0,353
329,1	0,348
329,5	0,344
330	0,339
330,5	0,334
330,9	0,329
331,4	0,325
331,8	0,32
332,3	0,315
332,8	0,31
333,2	0,306
333,7	0,302
334,1	0,298
334,6	0,293
335,1	0,289
335,5	0,285
336	0,28
336,4	0,276
336,9	0,272
337,4	0,267
337,8	0,262
338,3	0,259
338,7	0,255
339,2	0,251
339,7	0,247
340,1	0,242
340,6	0,238
341	0,235
341,5	0,231
342	0,227
342,4	0,223
342,9	0,22
343,3	0,216
343,8	0,214
344,2	0,21
344,7	0,206
345,2	0,204
345,6	0,201
346,1	0,199
346,5	0,196
347	0,192
347,5	0,189
347,9	0,186
348,4	0,183
348,8	0,179
349,3	0,176
349,8	0,174
350,2	0,172
350,7	0,169
351,1	0,167
351,6	0,164
352	0,161
352,5	0,158
353	0,156
353,4	0,153
353,9	0,15
354,3	0,148
354,8	0,146
355,3	0,144
355,7	0,141
356,2	0,139
356,6	0,137
357,1	0,135
357,5	0,133
358	0,131
358,5	0,129
358,9	0,127
359,4	0,125
359,8	0,123
360,3	0,121
360,8	0,119
361,2	0,117
361,7	0,116
362,1	0,113
362,6	0,112
363	0,109
363,5	0,108
364	0,106
364,4	0,105
364,9	0,103
365,3	0,102
365,8	0,1
366,3	0,099
366,7	0,098
367,2	0,096
367,6	0,094
368,1	0,093
368,5	0,091
369	0,09
369,5	0,088
369,9	0,087
370,4	0,086
370,8	0,085
371,3	0,083
371,7	0,082
372,2	0,081
372,7	0,08
373,1	0,079
373,6	0,077
374	0,075
374,5	0,074
374,9	0,073
375,4	0,072
375,9	0,071
376,3	0,071
376,8	0,07
377,2	0,07
377,7	0,07
378,2	0,069
378,6	0,067
379,1	0,066
379,5	0,065
380	0,064
380,4	0,063
380,9	0,061
381,4	0,06
381,8	0,06
382,3	0,059
382,7	0,058
383,2	0,057
383,6	0,056
384,1	0,056
384,6	0,055
385	0,055
385,5	0,054
385,9	0,053
386,4	0,052
386,8	0,052
387,3	0,052
387,7	0,051
388,2	0,05
388,7	0,05
389,1	0,049
389,6	0,048
390	0,048
390,5	0,047
390,9	0,046
391,4	0,045
391,9	0,044
392,3	0,044
392,8	0,043
393,2	0,043
393,7	0,043
394,1	0,042
394,6	0,042
395,1	0,041
395,5	0,041
396	0,041
396,4	0,04
396,9	0,039
397,3	0,039
397,8	0,038
398,2	0,038
398,7	0,038
399,2	0,037
399,6	0,036
400,1	0,036
400,5	0,036
401	0,036
401,4	0,034
401,9	0,034
402,4	0,033
402,8	0,033
403,3	0,032
403,7	0,031
404,2	0,032
404,6	0,032
405,1	0,032
405,5	0,032
406	0,031
406,5	0,031
406,9	0,03
407,4	0,029
407,8	0,029
408,3	0,028
408,7	0,028
409,2	0,028
409,6	0,027
410,1	0,028
410,6	0,028
411	0,028
411,5	0,027
411,9	0,026
412,4	0,026
412,8	0,025
413,3	0,025
413,7	0,025
414,2	0,024
414,7	0,025
415,1	0,025
415,6	0,024
416	0,024
416,5	0,023
416,9	0,023
417,4	0,023
417,8	0,022
418,3	0,021
418,8	0,022
419,2	0,021
419,7	0,02
420,1	0,02
420,6	0,02
421	0,02
421,5	0,02
421,9	0,02
422,4	0,02
422,8	0,02
423,3	0,02
423,8	0,02
424,2	0,019
424,7	0,019
425,1	0,018
425,6	0,017
426	0,017
426,5	0,016
426,9	0,015
427,4	0,015
427,9	0,015
428,3	0,016
428,8	0,015
429,2	0,015
429,7	0,016
430,1	0,015
430,6	0,014
431	0,014
431,5	0,013
431,9	0,013
432,4	0,012
432,8	0,012
433,3	0,013
433,8	0,012
434,2	0,012
434,7	0,012
435,1	0,012
435,6	0,012
436	0,011
436,5	0,011
436,9	0,011
437,4	0,011
437,8	0,012
438,3	0,011
438,8	0,011
439,2	0,011
439,7	0,011
440,1	0,01
440,6	0,009
441	0,009
441,5	0,009
441,9	0,009
442,4	0,008
442,8	0,008
443,3	0,008
443,7	0,009
444,2	0,008
444,7	0,008
445,1	0,008
445,6	0,008
446	0,008
446,5	0,008
446,9	0,008
447,4	0,007
447,8	0,008
448,3	0,008
448,7	0,008
449,2	0,008
449,6	0,008
450,1	0,008
450,6	0,008
451	0,007
451,5	0,007
451,9	0,006
452,4	0,006
452,8	0,006
453,3	0,005
453,7	0,006
454,2	0,005
454,6	0,005
455,1	0,005
455,5	0,005
456	0,006
456,4	0,006
456,9	0,006
457,3	0,006
457,8	0,006
458,3	0,005
458,7	0,005
459,2	0,004
459,6	0,004
460,1	0,004
460,5	0,004
461	0,003
461,4	0,004
461,9	0,004
462,3	0,004
462,8	0,003
463,2	0,003
463,7	0,003
464,1	0,003
464,6	0,004
465	0,004
465,5	0,004
466	0,005
466,4	0,005
466,9	0,005
467,3	0,004
467,8	0,004
468,2	0,003
468,7	0,004
469,1	0,003
469,6	0,003
470	0,003
470,5	0,003
470,9	0,003
471,4	0,002
471,8	0,002
472,3	0,002
472,7	0,002
473,2	0,002
473,6	0,003
474,1	0,002
474,5	0,003
475	0,003
475,4	0,003
475,9	0,003
476,4	0,002
476,8	0,002
477,3	0,003
477,7	0,002
478,2	0,001
478,6	0,001
479,1	0,001
479,5	0,001
480	0,002
480,4	0,003
480,9	0,003
481,3	0,003
481,8	0,003
482,2	0,003
482,7	0,002
483,1	0,002
483,6	0,001
484	0,001
484,5	0
484,9	-0
485,4	0
485,8	0,002
486,3	0,002
486,7	0,002
487,2	0,002
487,6	0,002
488,1	0,002
488,5	0,003
489	0,001
489,4	0,001
489,9	0,003
490,4	0,003
490,8	0,004
491,3	0,003
491,7	0,003
492,2	0,003
492,6	0,003
493,1	0,003
493,5	0,003
494	0,003
494,4	0,003
494,9	0,002
495,3	0,002
495,8	0,003
496,2	0,003
496,7	0,003
497,1	0,002
497,6	0,002
498	0,002
498,5	0,002
498,9	0,002
499,4	0,001
499,8	0,001
500,3	0
500,7	0,001
501,2	0,001
501,6	0,001
502,1	0,001
502,5	0,001
503	0,001
503,4	0,001
503,9	0,001
504,3	0,001
504,8	0,002
505,2	0,002
505,7	0,002
506,1	0,002
506,6	0,002
507	0,003
507,5	0,002
507,9	0,002
508,4	0,002
508,8	0,002
509,3	0,002
509,7	0,001
510,2	0,001
510,6	0,002
511,1	0,002
511,5	0,001
512	0,001
512,4	0,002
512,9	0,002
513,3	0,001
513,8	0,002
514,2	0,001
514,7	0,002
515,1	0,002
515,6	0,002
516	0,002
516,5	0,002
516,9	0,001
517,4	0,001
517,8	0,001
518,3	0,001
518,7	0,001
519,2	0,001
519,6	0,001
520,1	0,001
520,5	0,001
521	0,002
521,4	0,002
521,9	0,002
522,3	0,002
522,8	0,002
523,2	0,002
523,7	0,002
524,1	0,001
524,6	0,001
525	0,001
525,5	0,001
525,9	0,001
526,4	0,001
526,8	0,001
527,3	0,001
527,7	0,001
528,2	0,001
528,6	0,001
529,1	0,001
529,5	0,001
530	0,001
530,4	0,002
530,9	0,002
531,3	0,002
531,8	0,002
532,2	0,002
532,6	0,002
533,1	0,001
533,5	0,001
534	0,001
534,4	0,001
534,9	0
535,3	0
535,8	0,001
536,2	0
536,7	-0
537,1	-0,001
537,6	-0,001
538	-0,001
538,5	-0,001
538,9	-0
539,4	-0
539,8	0
540,3	0,001
540,7	0,001
541,2	0,001
541,6	0,002
542,1	0,002
542,5	0,001
543	0,001
543,4	0,001
543,9	0
544,3	-0
544,8	-0,001
545,2	-0,002
545,7	-0,001
546,1	-0,001
546,5	-0,001
547	-0,001
547,4	-0
547,9	0
548,3	0
548,8	0
549,2	0
549,7	0
550,1	0
550,6	-0
551	0
551,5	0
551,9	0,001
552,4	0,001
552,8	0,002
553,3	0,002
553,7	0,002
554,2	0,001
554,6	0,001
555,1	0
555,5	0
555,9	-0
556,4	-0
556,8	0
557,3	-0
557,7	-0
558,2	-0
558,6	-0
559,1	-0
559,5	-0,001
560	-0
560,4	-0
560,9	0
561,3	0,001
561,8	0,001
562,2	0,001
562,7	0,001
563,1	0,001
563,6	0,001
564	0,001
564,4	0,001
564,9	0
565,3	0,001
565,8	0,001
566,2	0,001
566,7	0,001
567,1	0,001
567,6	0,001
568	0,001
568,5	0
568,9	0
569,4	0,001
569,8	0
570,3	-0
570,7	-0
571,1	-0
571,6	0
572	0,001
572,5	0
572,9	0,001
573,4	0,001
573,8	0
574,3	0
574,7	-0
575,2	-0
575,6	-0
576,1	-0
576,5	-0
576,9	0
577,4	0
577,8	0,001
578,3	0,001
578,7	0,001
579,2	0,001
579,6	0,001
580,1	0,001
580,5	0,001
581	0,001
581,4	0,001
581,9	0,001
582,3	0
582,7	0
583,2	0
583,6	0,001
584,1	0,001
584,5	0
585	0,001
585,4	0,001
585,9	0,001
586,3	0,001
586,8	0,001
587,2	0,001
587,6	0,001
588,1	0,001
588,5	0,001
589	0,001
589,4	0,001
589,9	0
590,3	0,001
590,8	0
591,2	0,001
591,7	0,001
592,1	0,001
592,5	0,001
593	0,001
593,4	0,001
593,9	0,001
594,3	0
594,8	0,001
595,2	0
595,7	0
596,1	0
596,6	0
597	0
597,4	0
597,9	-0
598,3	0
598,8	-0
599,2	-0
599,7	-0
600,1	-0
600,6	-0
601	-0,001
601,4	-0,001
601,9	-0,001
602,3	-0,001
602,8	-0,001
603,2	-0,001
603,7	-0,001
604,1	-0,001
604,6	-0
605	-0
605,4	0
605,9	0
606,3	0,001
606,8	0,001
607,2	0,001
607,7	0,001
608,1	0,001
608,6	0
609	0,001
609,4	0,001
609,9	0
610,3	0
610,8	0
611,2	0
611,7	0
612,1	-0
612,6	-0,001
613	-0
613,4	-0
613,9	-0
614,3	0
614,8	0
615,2	0
615,7	0
616,1	0
616,6	0
617	0
617,4	0
617,9	0
618,3	0
618,8	-0
619,2	0
619,7	0
620,1	0
620,5	0
621	0
621,4	0
621,9	0
622,3	0
622,8	0
623,2	0
623,6	0,001
624,1	0,001
624,5	0,001
625	0,001
625,4	0,001
625,9	0
626,3	0
626,8	0
627,2	0
627,6	0
628,1	0
628,5	0
629	0
629,4	0
629,9	0
630,3	0,001
630,7	0,001
631,2	0,001
631,6	0,001
632,1	0,001
632,5	0,001
633	0
633,4	0
633,8	0
634,3	0
634,7	0
635,2	0,001
635,6	0,001
636,1	0,001
636,5	0
636,9	0,001
637,4	0
637,8	0,001
638,3	0,001
638,7	0,001
639,2	0,001
639,6	0,001
640	0,001
640,5	0,001
640,9	0,001
641,4	0,001
641,8	0,001
642,2	0,001
642,7	0,001
643,1	0,001
643,6	0,001
644	0
644,5	0,001
644,9	0,001
645,3	0,001
645,8	0,001
646,2	0,001
646,7	0,001
647,1	0,002
647,6	0,002
648	0,002
648,4	0,001
648,9	0,001
649,3	0,001
649,8	0,001
650,2	0,001
650,6	0,001
651,1	0
651,5	0
652	-0
652,4	-0
652,9	-0,001
653,3	-0,001
653,7	-0
654,2	-0
654,6	-0,001
655,1	-0,001
655,5	-0,001
655,9	-0,001
656,4	-0
656,8	0
657,3	0,001
657,7	0,001
658,2	0,002
658,6	0,003
659	0,004
659,5	0,006
659,9	0,007
660,4	0,006
660,8	0,004
661,2	0,003
661,7	0,002
662,1	0,001
662,6	0,001
663	0
663,4	-0
663,9	-0
664,3	-0
664,8	-0,001
665,2	-0
665,6	0
666,1	0
666,5	0
667	0
667,4	0
667,9	0
668,3	0
668,7	-0
669,2	0
669,6	0
670,1	0
670,5	-0
670,9	0
671,4	0
671,8	-0
672,3	-0
672,7	-0,001
673,1	-0,001
673,6	-0,001
674	-0,001
674,5	-0,001
674,9	-0,001
675,3	-0,001
675,8	-0,001
676,2	-0
676,7	0
677,1	-0
677,5	-0
678	0
678,4	0
678,9	-0
679,3	-0
679,7	-0
680,2	0
680,6	-0
681,1	-0
681,5	-0
681,9	0
682,4	0
682,8	0
683,3	0
683,7	0
684,1	0
684,6	-0
685	-0
685,5	-0,001
685,9	-0,001
686,3	-0,001
686,8	0
687,2	0
687,7	0,001
688,1	0,001
688,5	0,001
689	0,002
689,4	0,002
689,9	0,001
690,3	0,001
690,7	0,001
691,2	0,001
691,6	0,001
692	0,001
692,5	0
692,9	0,001
693,4	0,001
693,8	0,001
694,2	0
694,7	0,001
695,1	0,001
695,6	0,001
696	0,001
696,4	0,001
696,9	0,001
697,3	0,001
697,8	0,001
698,2	0,001
698,6	0,001
699,1	0
699,5	0
699,9	0,001
700,4	0,001
700,8	0,001
701,3	0,001
701,7	0,001
702,1	0,001
702,6	0,001
703	0,001
703,5	0,001
703,9	0,002
704,3	0,002
704,8	0,001
705,2	0,001
705,6	0,001
706,1	0,001
706,5	0,001
707	0
707,4	0
707,8	0
708,3	0
708,7	0
709,2	-0
709,6	0
710	0
710,5	0
710,9	-0
711,3	-0
711,8	-0
712,2	-0
712,7	-0
713,1	0
713,5	0
714	0
714,4	-0
714,8	-0
715,3	0
715,7	-0
716,2	-0
716,6	0
717	0,001
717,5	0,001
717,9	0,001
718,3	0,001
718,8	0,001
719,2	0
719,7	-0
720,1	0
720,5	0
721	0
721,4	0
721,8	0
722,3	0
722,7	0
723,2	0
723,6	-0
724	-0
724,5	-0,001
724,9	-0,001
725,3	-0
725,8	-0
726,2	-0
726,7	0
727,1	-0
727,5	0
728	0
728,4	0
728,8	-0
729,3	-0
729,7	-0
730,1	-0
730,6	-0
731	-0,001
731,5	-0
731,9	-0
732,3	-0
732,8	-0
733,2	-0,001
733,6	-0
734,1	-0
734,5	-0
734,9	0
735,4	0
735,8	0
736,3	0,001
736,7	0,001
737,1	0,001
737,6	0,001
738	0
738,4	0
738,9	0
739,3	-0
739,7	-0
740,2	-0
740,6	-0
741,1	-0,001
741,5	-0,001
741,9	-0,001
742,4	-0
742,8	-0
743,2	-0
743,7	-0
744,1	0
744,5	0
745	0
745,4	0
745,8	0
746,3	0
746,7	-0
747,2	-0
747,6	-0
748	-0
748,5	-0
748,9	-0
749,3	-0
749,8	-0
750,2	0
750,6	-0
751,1	0
751,5	0
751,9	0
752,4	0
752,8	0,001
753,3	0,001
753,7	0,001
754,1	0
754,6	0,001
755	0,001
755,4	0,001
755,9	0,001
756,3	0,001
756,7	0,001
757,2	0,001
757,6	0,001
758	0
758,5	0
758,9	0
759,3	0
759,8	0
760,2	0
760,6	0,001
761,1	0
761,5	0
761,9	0,001
762,4	0,001
762,8	0,001
763,3	0,001
763,7	0,001
764,1	0,002
764,6	0,002
765	0,002
765,4	0,002
765,9	0,002
766,3	0,002
766,7	0,002
767,2	0,002
767,6	0,003
768	0,003
768,5	0,003
768,9	0,003
769,3	0,003
769,8	0,002
770,2	0,002
770,6	0,002
771,1	0,002
771,5	0,001
771,9	0,001
772,4	0,001
772,8	0,001
773,2	0,002
773,7	0,002
774,1	0,002
774,5	0,002
775	0,002
775,4	0,002
775,8	0,002
776,3	0,002
776,7	0,002
777,1	0,002
777,6	0,002
778	0,002
778,4	0,002
778,9	0,002
779,3	0,002
779,7	0,002
780,2	0,002
780,6	0,002
781	0,002
781,5	0,002
781,9	0,002
782,3	0,001
782,8	0,002
783,2	0,002
783,6	0,001
784,1	0,001
784,5	0,001
784,9	0,001
785,4	0,001
785,8	0,001
786,2	0,001
786,7	0
787,1	0
787,5	0
788	0
788,4	0
788,8	0
789,3	0
789,7	0
790,1	-0
790,6	-0
791	-0
791,4	-0
791,9	0
792,3	0
792,7	0
793,2	0,001
793,6	0,001
794	0,001
794,5	0,001
794,9	0,001
795,3	0,001
795,8	0,001
796,2	0,001
796,6	0,001
797,1	0,002
797,5	0,001
797,9	0,001
798,4	0,001
798,8	0,001
799,2	0,001
799,7	0,001
800,1	0,001
800,5	0
801	0
801,4	-0
801,8	-0
802,2	-0
802,7	-0
803,1	0
803,5	0
804	0
804,4	0
804,8	0
805,3	0
805,7	0
806,1	-0
806,6	0
807	0
807,4	0
807,9	0
808,3	0
808,7	0
809,2	0
809,6	0
810	0
810,4	0
810,9	-0
811,3	-0
811,7	-0
812,2	0
812,6	0
813	0
813,5	0
813,9	0
814,3	0
814,8	-0
815,2	-0
815,6	-0,001
816,1	-0,001
816,5	-0,001
816,9	-0,001
817,3	-0,001
817,8	-0,001
818,2	-0,001
818,6	-0,001
819,1	-0,001
819,5	-0
819,9	-0
820,4	-0
820,8	-0
821,2	-0
821,7	-0
822,1	-0
822,5	-0
822,9	-0
823,4	-0
823,8	-0
824,2	-0
824,7	-0
825,1	-0
825,5	-0
826	0
826,4	-0
826,8	0
827,3	0
827,7	-0
828,1	0
828,5	0
829	0
829,4	0
829,8	-0
830,3	0
830,7	0
831,1	0
831,6	0
832	0
832,4	0
832,8	0
833,3	0
833,7	0
834,1	-0
834,6	-0,001
835	-0,001
835,4	-0,001
835,8	-0,001
836,3	-0,001
836,7	-0,001
837,1	-0,001
837,6	-0,001
838	-0,001
838,4	-0,001
838,9	-0,001
839,3	-0,001
839,7	-0
840,1	-0
840,6	0
841	0
841,4	0
841,9	0
842,3	0
842,7	0
843,1	0,001
843,6	0
844	0
844,4	0
844,9	0
845,3	0,001
845,7	0
846,2	-0
846,6	0
847	-0
847,4	0
847,9	-0
848,3	-0
848,7	0
849,2	0
849,6	0
850	0
850,4	0,001
850,9	0
851,3	0
851,7	0
852,2	0,001
852,6	0,001
853	0,001
853,4	0,001
853,9	0,001
854,3	0,001
854,7	0,001
855,2	0,001
855,6	0,001
856	0,001
856,4	0,001
856,9	0,001
857,3	0,001
857,7	0,001
858,2	0,001
858,6	0
859	-0
859,4	-0
859,9	-0
860,3	-0,001
860,7	-0,001
861,1	-0,001
861,6	-0,001
862	-0,001
862,4	-0,001
862,9	-0,001
863,3	-0,001
863,7	-0,001
864,1	-0
864,6	0
865	0,001
865,4	0,001
865,9	0,001
866,3	0,001
866,7	0,001
867,1	0,001
867,6	0,001
868	0,001
868,4	0
868,8	0,001
869,3	0
869,7	0
870,1	0
870,6	0
871	0
871,4	-0
871,8	-0
872,3	-0
872,7	-0,001
873,1	-0,001
873,5	-0,001
874	-0,002
874,4	-0,001
874,8	-0,002
875,3	-0,002
875,7	-0,002
876,1	-0,002
876,5	-0,001
877	-0,001
877,4	-0,001
877,8	-0,001
878,2	-0,001
878,7	-0,001
879,1	-0,001
879,5	-0,001
879,9	-0,001
880,4	-0,001
880,8	-0,001
881,2	-0,001
881,7	-0,001
882,1	-0,001
882,5	-0
882,9	-0
883,4	-0
883,8	-0
884,2	-0
884,6	-0
885,1	-0
885,5	-0
885,9	-0
886,3	-0
886,8	0
887,2	0,001
887,6	0,001
888	0,001
888,5	0,001
888,9	0,001
889,3	0,001
889,8	0
890,2	0
890,6	0
891	0
891,5	-0
891,9	-0
892,3	-0
892,7	-0
893,2	-0
893,6	-0
894	-0,001
894,4	-0
894,9	-0,001
895,3	-0,001
895,7	-0,001
896,1	-0,001
896,6	-0,001
897	-0,001
897,4	-0,001
897,8	-0,001
898,3	-0,001
898,7	-0,002
899,1	-0,002
899,5	-0,001
900	-0,002
900,4	-0,001
900,8	-0,001
901,2	-0,001
901,7	-0,001
902,1	-0
902,5	-0
902,9	-0
903,4	-0
903,8	-0
904,2	-0
904,6	-0
905,1	-0
905,5	-0
905,9	-0
906,3	-0,001
906,8	-0,001
907,2	-0,001
907,6	-0,001
908	-0,002
908,5	-0,002
908,9	-0,002
909,3	-0,002
909,7	-0,002
910,2	-0,002
910,6	-0,003
911	-0,002
911,4	-0,002
911,9	-0,002
912,3	-0,002
912,7	-0,002
913,1	-0,002
913,6	-0,002
914	-0,002
914,4	-0,002
914,8	-0,002
915,3	-0,002
915,7	-0,002
916,1	-0,002
916,5	-0,001
916,9	-0,001
917,4	-0
917,8	-0
918,2	0
918,6	0,001
919,1	0,001
919,5	0,001
919,9	0,001
920,3	0,001
920,8	0,001
921,2	0,001
921,6	0,001
922	0,001
922,5	0
922,9	0
923,3	0
923,7	-0
924,2	-0
924,6	-0
925	-0
925,4	-0
925,8	-0
926,3	-0
926,7	-0
927,1	-0,001
927,5	-0
928	-0
928,4	-0
928,8	-0,001
929,2	-0
929,7	-0,001
930,1	-0
930,5	-0,001
930,9	-0,001
931,3	-0,001
931,8	-0,001
932,2	-0,001
932,6	-0,001
933	-0,002
933,5	-0,002
933,9	-0,002
934,3	-0,002
934,7	-0,002
935,2	-0,001
935,6	-0,001
936	-0,001
936,4	-0,001
936,8	0
937,3	0
937,7	0,001
938,1	0,001
938,5	0
939	0,001
939,4	0,001
939,8	0,001
940,2	0,001
940,6	0,001
941,1	0,001
941,5	0,001
941,9	0,002
942,3	0,001
942,8	0,001
943,2	0,001
943,6	0,001
944	0,001
944,4	0,001
944,9	0,001
945,3	0,001
945,7	0,001
946,1	0,001
946,6	0,001
947	0,001
947,4	0
947,8	0
948,2	0
948,7	-0,001
949,1	-0
949,5	-0,001
949,9	-0,001
950,3	-0,001
950,8	-0,002
951,2	-0,002
951,6	-0,002
952	-0,002
952,5	-0,001
952,9	-0
953,3	0
953,7	0
954,1	0,001
954,6	0,001
955	0,001
955,4	0
955,8	0
956,2	0
956,7	0,001
957,1	0
957,5	0,001
957,9	0,001
958,3	0
958,8	-0
959,2	-0
959,6	-0
960	-0,001
960,5	-0,001
960,9	-0,001
961,3	-0,001
961,7	-0,001
962,1	-0,001
962,6	-0,001
963	-0
963,4	-0,001
963,8	-0,001
964,2	-0,001
964,7	-0,001
965,1	-0,001
965,5	-0
965,9	-0
966,3	0,001
966,8	0,001
967,2	0,002
967,6	0,002
968	0,002
968,4	0,002
968,9	0,001
969,3	0
969,7	-0
970,1	-0
970,5	-0,001
971	-0
971,4	-0
971,8	-0,001
972,2	-0
972,6	-0
973,1	-0,001
973,5	-0,001
973,9	-0,001
974,3	-0,001
974,7	-0
975,2	-0
975,6	-0
976	-0
976,4	-0,001
976,8	-0,001
977,3	-0
977,7	-0,001
978,1	-0,001
978,5	-0,001
978,9	-0,001
979,4	-0
979,8	0
980,2	0
980,6	0,001
981	0,001
981,5	0,002
981,9	0,002
982,3	0,002
982,7	0,002
983,1	0,002
983,6	0,002
984	0,001
984,4	0,001
984,8	0
985,2	0,001
985,6	0
986,1	-0
986,5	0
986,9	0
987,3	0
987,7	0,001
988,2	0
988,6	-0
989	-0,001
989,4	-0,001
989,8	-0,001
990,3	-0,001
990,7	-0,002
991,1	-0,002
991,5	-0,001
991,9	-0,001
992,3	-0,001
992,8	0
993,2	0
993,6	0
994	0,001
994,4	-0
994,9	0
995,3	-0
995,7	-0,001
996,1	-0,001
996,5	-0,001
996,9	-0,001
997,4	-0,001
997,8	-0,001
998,2	-0,001
998,6	-0,001
999	-0
999,5	-0,001
999,9	0
1000,3	0
1000,7	-0
1001,1	-0
1001,5	-0
1002	-0,001
1002,4	-0,001
1002,8	-0,001
1003,2	-0,001
1003,6	-0,001
1004	-0,001
1004,5	-0,001
1004,9	-0,001
1005,3	0
1005,7	0
1006,1	0
1006,6	-0
1007	0
1007,4	0
1007,8	0
1008,2	-0,001
1008,6	-0,001
1009,1	-0,001
1009,5	-0,002
1009,9	-0,002
1010,3	-0,002
1010,7	-0,003
1011,1	-0,003
1011,6	-0,003
1012	-0,003
1012,4	-0,003
1012,8	-0,003
1013,2	-0,003
1013,6	-0,003
1014,1	-0,003
1014,5	-0,003
1014,9	-0,002
1015,3	-0,002
1015,7	-0,002
1016,1	-0,002
1016,6	-0,002
1017	-0,002
1017,4	-0,002
1017,8	-0,003
1018,2	-0,003
1018,6	-0,002
1019,1	-0,003
1019,5	-0,003
1019,9	-0,002
1020,3	-0,001
1020,7	-0,001
1021,1	-0,001
1021,6	-0,001
1022	-0
1022,4	-0,001
1022,8	-0,001
1023,2	-0,002
1023,6	-0,002
1024,1	-0,001
1024,5	-0,001
1024,9	-0
1025,3	0
1025,7	0,001
1026,1	0,002
1026,6	0,003
1027	0,002
1027,4	0,002
1027,8	0,001
1028,2	0,002
1028,6	0,002
1029	0,002
1029,5	0,002
1029,9	0,002
1030,3	0,002
1030,7	0,002
1031,1	0,002
1031,5	0,002
1032	0,001
1032,4	0,001
1032,8	0
1033,2	0
1033,6	0,001
1034	0
1034,4	0
1034,9	0
1035,3	0
1035,7	0
1036,1	0,001
1036,5	0
1036,9	0
1037,4	-0
1037,8	0
1038,2	0,001
1038,6	0
1039	0,001
1039,4	0
1039,8	0
1040,3	0
1040,7	-0
1041,1	-0
1041,5	-0
1041,9	-0,001
1042,3	-0,001
1042,7	-0,001
1043,2	-0,001
1043,6	-0,001
1044	-0
1044,4	-0,001
1044,8	-0
1045,2	-0
1045,6	0
1046,1	0
1046,5	0
1046,9	0,001
1047,3	0
1047,7	-0
1048,1	-0
1048,5	0
1049	-0
1049,4	-0
1049,8	-0
1050,2	0
1050,6	0
1051	0
1051,4	-0,001
1051,9	-0,001
1052,3	-0,001
1052,7	-0,001
1053,1	-0,002
1053,5	-0,001
1053,9	-0,001
1054,3	-0,002
1054,8	-0,001
1055,2	-0,001
1055,6	-0,001
1056	-0,001
1056,4	-0,001
1056,8	-0
1057,2	-0
1057,6	-0,001
1058,1	-0,002
1058,5	-0,003
1058,9	-0,003
1059,3	-0,003
1059,7	-0,003
1060,1	-0,004
1060,5	-0,004
1061	-0,003
1061,4	-0,003
1061,8	-0,002
1062,2	-0,003
1062,6	-0,003
1063	-0,002
1063,4	-0,002
1063,8	-0,002
1064,3	-0,002
1064,7	-0,002
1065,1	-0,002
1065,5	-0,002
1065,9	-0,002
1066,3	-0,001
1066,7	-0
1067,1	-0
1067,6	-0,001
1068	-0
1068,4	-0
1068,8	-0
1069,2	-0,001
1069,6	-0,001
1070	-0,001
1070,4	-0,001
1070,9	-0,001
1071,3	-0
1071,7	0
1072,1	0
1072,5	-0,001
1072,9	-0,001
1073,3	-0,001
1073,7	-0
1074,2	-0,001
1074,6	-0,001
1075	-0,001
1075,4	-0
1075,8	0,001
1076,2	0,001
1076,6	0,001
1077	0,001
1077,5	-0
1077,9	0,001
1078,3	0
1078,7	0
1079,1	0
1079,5	0
1079,9	0,001
1080,3	0,001
1080,7	-0,001
1081,2	0,001
1081,6	-0
1082	-0,001
1082,4	-0,001
1082,8	-0,004
1083,2	-0,004
1083,6	-0,004
1084	-0,005
1084,5	-0,003
1084,9	-0,003
1085,3	-0,002
1085,7	0,002
1086,1	0,003
1086,5	0,005
1086,9	0,005
1087,3	0,007
1087,7	0,008
1088,2	0,006
1088,6	0,002
1089	0,002
1089,4	0,002
1089,8	0,002
1090,2	-0,002
1090,6	-0,001
1091	0,001
1091,4	0,006
1091,9	0,005
1092,3	0,005
1092,7	0,002
1093,1	0,004
1093,5	-0,001
1093,9	-0,002
1094,3	-0,002
1094,7	-0,002
1095,1	0
1095,5	0,003
1096	0,002
1096,4	0,01
1096,8	0,014
1097,2	0,013
1097,6	0,008
1098	0,007
1098,4	0,007
1098,8	0,005
1099,2	0,001
1099,6	-0,004
1100,1	-0,008
1100,5	-0,004
1100,9	-0,006
1101,3	-0,006
1101,7	0,008
1102,1	-0,005
1102,5	-0,008
1102,9	0,004
1103,3	-0,001
1103,7	0,001
1104,2	-0,004
1104,6	-0,018
1105	-0,003
1105,4	0,007
1105,8	0
1106,2	0,017
1106,6	0,018
1107	0,023
1107,4	0,035
1107,8	0,044
1108,3	0,314
