Data from Absorbance_00063.txt Node
Date: Fri Aug 11 13:26:42 MSK 2023
User: vat
Spectrometer: MAYP114033
Trigger mode: 0
Integration Time (sec): 8,000000E-3
Scans to average: 10
Electric dark correction enabled: true
Nonlinearity correction enabled: false
Boxcar width: 3
XAxis mode: Wavelengths
Number of Pixels in Spectrum: 2068
>>>>>Begin Spectral Data<<<<<
199,4	-0,352
199,9	0,354
200,4	0,485
200,8	0,736
201,3	0,883
201,8	0,92
202,2	0,957
202,7	0,959
203,2	1,002
203,6	1,042
204,1	1,074
204,6	1,085
205	1,101
205,5	1,116
206	1,137
206,4	1,153
206,9	1,174
207,4	1,19
207,8	1,207
208,3	1,229
208,8	1,233
209,2	1,254
209,7	1,269
210,2	1,276
210,6	1,276
211,1	1,28
211,5	1,291
212	1,318
212,5	1,335
212,9	1,372
213,4	1,382
213,9	1,39
214,3	1,397
214,8	1,414
215,3	1,417
215,7	1,429
216,2	1,423
216,7	1,459
217,1	1,495
217,6	1,534
218,1	1,546
218,5	1,537
219	1,544
219,5	1,551
219,9	1,555
220,4	1,566
220,9	1,57
221,3	1,58
221,8	1,623
222,3	1,636
222,7	1,648
223,2	1,652
223,6	1,673
224,1	1,683
224,6	1,711
225	1,731
225,5	1,761
226	1,784
226,4	1,798
226,9	1,798
227,4	1,822
227,8	1,826
228,3	1,834
228,8	1,845
229,2	1,861
229,7	1,88
230,2	1,889
230,6	1,902
231,1	1,9
231,5	1,911
232	1,924
232,5	1,915
232,9	1,912
233,4	1,926
233,9	1,93
234,3	1,943
234,8	1,946
235,3	1,948
235,7	1,953
236,2	1,973
236,7	1,986
237,1	2,002
237,6	2,018
238,1	2,03
238,5	2,028
239	2,066
239,4	2,062
239,9	2,071
240,4	2,061
240,8	2,062
241,3	2,063
241,8	2,083
242,2	2,067
242,7	2,07
243,2	2,076
243,6	2,079
244,1	2,083
244,6	2,091
245	2,08
245,5	2,084
245,9	2,082
246,4	2,082
246,9	2,092
247,3	2,09
247,8	2,081
248,3	2,096
248,7	2,106
249,2	2,123
249,7	2,117
250,1	2,122
250,6	2,123
251	2,122
251,5	2,112
252	2,104
252,4	2,117
252,9	2,131
253,4	2,13
253,8	2,133
254,3	2,141
254,8	2,147
255,2	2,16
255,7	2,148
256,1	2,146
256,6	2,145
257,1	2,175
257,5	2,188
258	2,216
258,5	2,202
258,9	2,202
259,4	2,225
259,9	2,218
260,3	2,206
260,8	2,198
261,2	2,183
261,7	2,217
262,2	2,219
262,6	2,199
263,1	2,191
263,6	2,179
264	2,174
264,5	2,177
264,9	2,163
265,4	2,152
265,9	2,144
266,3	2,171
266,8	2,183
267,3	2,157
267,7	2,163
268,2	2,158
268,7	2,169
269,1	2,164
269,6	2,145
270	2,136
270,5	2,18
271	2,175
271,4	2,192
271,9	2,187
272,4	2,185
272,8	2,191
273,3	2,197
273,7	2,178
274,2	2,171
274,7	2,161
275,1	2,174
275,6	2,197
276,1	2,183
276,5	2,169
277	2,169
277,4	2,167
277,9	2,152
278,4	2,147
278,8	2,153
279,3	2,154
279,8	2,161
280,2	2,154
280,7	2,145
281,1	2,131
281,6	2,125
282,1	2,091
282,5	2,08
283	2,076
283,4	2,078
283,9	2,081
284,4	2,089
284,8	2,077
285,3	2,066
285,8	2,047
286,2	2,019
286,7	1,971
287,1	1,92
287,6	1,864
288,1	1,805
288,5	1,743
289	1,675
289,5	1,604
289,9	1,533
290,4	1,463
290,8	1,395
291,3	1,326
291,8	1,263
292,2	1,204
292,7	1,148
293,1	1,097
293,6	1,05
294,1	1,009
294,5	0,972
295	0,94
295,5	0,91
295,9	0,883
296,4	0,86
296,8	0,839
297,3	0,82
297,8	0,802
298,2	0,786
298,7	0,772
299,1	0,759
299,6	0,748
300,1	0,736
300,5	0,725
301	0,716
301,5	0,708
301,9	0,699
302,4	0,693
302,8	0,687
303,3	0,682
303,8	0,677
304,2	0,671
304,7	0,666
305,1	0,661
305,6	0,655
306,1	0,649
306,5	0,643
307	0,638
307,4	0,634
307,9	0,627
308,4	0,622
308,8	0,617
309,3	0,612
309,8	0,607
310,2	0,602
310,7	0,596
311,1	0,591
311,6	0,586
312,1	0,58
312,5	0,574
313	0,569
313,4	0,564
313,9	0,559
314,4	0,553
314,8	0,549
315,3	0,544
315,7	0,539
316,2	0,535
316,7	0,53
317,1	0,526
317,6	0,521
318	0,515
318,5	0,51
319	0,505
319,4	0,498
319,9	0,493
320,3	0,487
320,8	0,483
321,3	0,478
321,7	0,473
322,2	0,467
322,6	0,464
323,1	0,459
323,6	0,454
324	0,449
324,5	0,444
324,9	0,44
325,4	0,436
325,9	0,431
326,3	0,427
326,8	0,421
327,2	0,417
327,7	0,412
328,2	0,406
328,6	0,402
329,1	0,397
329,5	0,391
330	0,387
330,5	0,383
330,9	0,378
331,4	0,373
331,8	0,368
332,3	0,363
332,8	0,359
333,2	0,353
333,7	0,349
334,1	0,345
334,6	0,34
335,1	0,336
335,5	0,331
336	0,327
336,4	0,322
336,9	0,317
337,4	0,311
337,8	0,306
338,3	0,302
338,7	0,298
339,2	0,293
339,7	0,287
340,1	0,283
340,6	0,279
341	0,274
341,5	0,269
342	0,264
342,4	0,261
342,9	0,257
343,3	0,253
343,8	0,249
344,2	0,245
344,7	0,241
345,2	0,237
345,6	0,233
346,1	0,23
346,5	0,225
347	0,222
347,5	0,218
347,9	0,214
348,4	0,21
348,8	0,206
349,3	0,202
349,8	0,199
350,2	0,195
350,7	0,191
351,1	0,188
351,6	0,185
352	0,182
352,5	0,178
353	0,174
353,4	0,171
353,9	0,167
354,3	0,164
354,8	0,161
355,3	0,158
355,7	0,155
356,2	0,153
356,6	0,15
357,1	0,147
357,5	0,144
358	0,141
358,5	0,137
358,9	0,135
359,4	0,133
359,8	0,13
360,3	0,128
360,8	0,126
361,2	0,124
361,7	0,122
362,1	0,12
362,6	0,117
363	0,115
363,5	0,112
364	0,11
364,4	0,107
364,9	0,105
365,3	0,103
365,8	0,101
366,3	0,1
366,7	0,098
367,2	0,096
367,6	0,094
368,1	0,092
368,5	0,09
369	0,089
369,5	0,087
369,9	0,085
370,4	0,084
370,8	0,082
371,3	0,08
371,7	0,079
372,2	0,077
372,7	0,076
373,1	0,074
373,6	0,073
374	0,072
374,5	0,07
374,9	0,069
375,4	0,068
375,9	0,067
376,3	0,067
376,8	0,065
377,2	0,065
377,7	0,065
378,2	0,063
378,6	0,062
379,1	0,061
379,5	0,059
380	0,058
380,4	0,056
380,9	0,055
381,4	0,055
381,8	0,054
382,3	0,053
382,7	0,053
383,2	0,052
383,6	0,051
384,1	0,05
384,6	0,049
385	0,048
385,5	0,047
385,9	0,046
386,4	0,045
386,8	0,044
387,3	0,043
387,7	0,042
388,2	0,041
388,7	0,04
389,1	0,039
389,6	0,038
390	0,037
390,5	0,036
390,9	0,035
391,4	0,034
391,9	0,033
392,3	0,033
392,8	0,033
393,2	0,032
393,7	0,032
394,1	0,032
394,6	0,032
395,1	0,031
395,5	0,031
396	0,031
396,4	0,03
396,9	0,029
397,3	0,028
397,8	0,028
398,2	0,028
398,7	0,027
399,2	0,027
399,6	0,027
400,1	0,026
400,5	0,026
401	0,026
401,4	0,025
401,9	0,024
402,4	0,024
402,8	0,024
403,3	0,023
403,7	0,022
404,2	0,022
404,6	0,023
405,1	0,023
405,5	0,023
406	0,022
406,5	0,022
406,9	0,022
407,4	0,021
407,8	0,02
408,3	0,02
408,7	0,019
409,2	0,019
409,6	0,019
410,1	0,019
410,6	0,019
411	0,019
411,5	0,019
411,9	0,019
412,4	0,019
412,8	0,018
413,3	0,018
413,7	0,017
414,2	0,017
414,7	0,017
415,1	0,017
415,6	0,016
416	0,016
416,5	0,015
416,9	0,015
417,4	0,015
417,8	0,014
418,3	0,014
418,8	0,015
419,2	0,015
419,7	0,016
420,1	0,015
420,6	0,015
421	0,016
421,5	0,015
421,9	0,014
422,4	0,014
422,8	0,013
423,3	0,013
423,8	0,012
424,2	0,012
424,7	0,012
425,1	0,011
425,6	0,011
426	0,011
426,5	0,011
426,9	0,011
427,4	0,011
427,9	0,011
428,3	0,011
428,8	0,01
429,2	0,01
429,7	0,01
430,1	0,009
430,6	0,008
431	0,008
431,5	0,007
431,9	0,007
432,4	0,007
432,8	0,007
433,3	0,008
433,8	0,009
434,2	0,009
434,7	0,01
435,1	0,01
435,6	0,01
436	0,009
436,5	0,009
436,9	0,009
437,4	0,009
437,8	0,009
438,3	0,009
438,8	0,008
439,2	0,008
439,7	0,007
440,1	0,007
440,6	0,006
441	0,006
441,5	0,006
441,9	0,006
442,4	0,006
442,8	0,005
443,3	0,006
443,7	0,006
444,2	0,006
444,7	0,006
445,1	0,006
445,6	0,006
446	0,007
446,5	0,007
446,9	0,007
447,4	0,006
447,8	0,006
448,3	0,006
448,7	0,006
449,2	0,006
449,6	0,006
450,1	0,005
450,6	0,005
451	0,005
451,5	0,005
451,9	0,005
452,4	0,004
452,8	0,004
453,3	0,004
453,7	0,004
454,2	0,004
454,6	0,004
455,1	0,004
455,5	0,005
456	0,005
456,4	0,006
456,9	0,006
457,3	0,006
457,8	0,006
458,3	0,005
458,7	0,005
459,2	0,004
459,6	0,004
460,1	0,003
460,5	0,003
461	0,003
461,4	0,003
461,9	0,003
462,3	0,003
462,8	0,003
463,2	0,003
463,7	0,003
464,1	0,003
464,6	0,003
465	0,003
465,5	0,003
466	0,004
466,4	0,004
466,9	0,003
467,3	0,004
467,8	0,003
468,2	0,004
468,7	0,003
469,1	0,004
469,6	0,004
470	0,004
470,5	0,004
470,9	0,004
471,4	0,004
471,8	0,004
472,3	0,003
472,7	0,003
473,2	0,003
473,6	0,003
474,1	0,003
474,5	0,003
475	0,003
475,4	0,003
475,9	0,004
476,4	0,004
476,8	0,004
477,3	0,004
477,7	0,003
478,2	0,003
478,6	0,003
479,1	0,002
479,5	0,002
480	0,002
480,4	0,003
480,9	0,004
481,3	0,004
481,8	0,003
482,2	0,004
482,7	0,003
483,1	0,004
483,6	0,003
484	0,002
484,5	0,002
484,9	0,002
485,4	0,002
485,8	0,004
486,3	0,004
486,7	0,004
487,2	0,004
487,6	0,003
488,1	0,004
488,5	0,004
489	0,003
489,4	0,002
489,9	0,003
490,4	0,004
490,8	0,004
491,3	0,005
491,7	0,004
492,2	0,004
492,6	0,005
493,1	0,005
493,5	0,005
494	0,005
494,4	0,005
494,9	0,005
495,3	0,004
495,8	0,005
496,2	0,005
496,7	0,004
497,1	0,005
497,6	0,004
498	0,004
498,5	0,004
498,9	0,004
499,4	0,003
499,8	0,003
500,3	0,003
500,7	0,003
501,2	0,003
501,6	0,003
502,1	0,003
502,5	0,004
503	0,004
503,4	0,004
503,9	0,004
504,3	0,003
504,8	0,003
505,2	0,003
505,7	0,003
506,1	0,003
506,6	0,003
507	0,004
507,5	0,003
507,9	0,004
508,4	0,004
508,8	0,004
509,3	0,004
509,7	0,004
510,2	0,004
510,6	0,004
511,1	0,004
511,5	0,004
512	0,004
512,4	0,004
512,9	0,004
513,3	0,004
513,8	0,004
514,2	0,004
514,7	0,004
515,1	0,005
515,6	0,005
516	0,004
516,5	0,004
516,9	0,004
517,4	0,004
517,8	0,003
518,3	0,003
518,7	0,003
519,2	0,004
519,6	0,003
520,1	0,003
520,5	0,003
521	0,004
521,4	0,003
521,9	0,004
522,3	0,004
522,8	0,004
523,2	0,003
523,7	0,004
524,1	0,004
524,6	0,004
525	0,004
525,5	0,004
525,9	0,003
526,4	0,004
526,8	0,004
527,3	0,004
527,7	0,004
528,2	0,004
528,6	0,004
529,1	0,004
529,5	0,004
530	0,004
530,4	0,005
530,9	0,005
531,3	0,005
531,8	0,005
532,2	0,005
532,6	0,005
533,1	0,005
533,5	0,005
534	0,005
534,4	0,005
534,9	0,005
535,3	0,004
535,8	0,004
536,2	0,004
536,7	0,003
537,1	0,002
537,6	0,003
538	0,003
538,5	0,003
538,9	0,004
539,4	0,003
539,8	0,004
540,3	0,004
540,7	0,005
541,2	0,005
541,6	0,005
542,1	0,004
542,5	0,004
543	0,003
543,4	0,003
543,9	0,002
544,3	0,002
544,8	0,002
545,2	0,002
545,7	0,002
546,1	0,003
546,5	0,003
547	0,003
547,4	0,003
547,9	0,003
548,3	0,004
548,8	0,003
549,2	0,003
549,7	0,004
550,1	0,004
550,6	0,004
551	0,004
551,5	0,004
551,9	0,004
552,4	0,004
552,8	0,004
553,3	0,004
553,7	0,004
554,2	0,004
554,6	0,004
555,1	0,004
555,5	0,004
555,9	0,003
556,4	0,003
556,8	0,004
557,3	0,003
557,7	0,003
558,2	0,003
558,6	0,003
559,1	0,003
559,5	0,003
560	0,003
560,4	0,003
560,9	0,004
561,3	0,004
561,8	0,004
562,2	0,004
562,7	0,004
563,1	0,005
563,6	0,004
564	0,004
564,4	0,004
564,9	0,004
565,3	0,004
565,8	0,004
566,2	0,004
566,7	0,004
567,1	0,004
567,6	0,004
568	0,004
568,5	0,004
568,9	0,004
569,4	0,004
569,8	0,004
570,3	0,004
570,7	0,004
571,1	0,004
571,6	0,004
572	0,004
572,5	0,004
572,9	0,004
573,4	0,004
573,8	0,004
574,3	0,003
574,7	0,003
575,2	0,003
575,6	0,003
576,1	0,003
576,5	0,003
576,9	0,003
577,4	0,004
577,8	0,004
578,3	0,004
578,7	0,004
579,2	0,004
579,6	0,004
580,1	0,004
580,5	0,004
581	0,004
581,4	0,005
581,9	0,004
582,3	0,004
582,7	0,004
583,2	0,004
583,6	0,004
584,1	0,004
584,5	0,004
585	0,004
585,4	0,004
585,9	0,004
586,3	0,004
586,8	0,004
587,2	0,004
587,6	0,004
588,1	0,004
588,5	0,004
589	0,004
589,4	0,004
589,9	0,003
590,3	0,003
590,8	0,003
591,2	0,004
591,7	0,004
592,1	0,004
592,5	0,005
593	0,005
593,4	0,005
593,9	0,005
594,3	0,005
594,8	0,004
595,2	0,004
595,7	0,004
596,1	0,004
596,6	0,004
597	0,004
597,4	0,004
597,9	0,004
598,3	0,004
598,8	0,004
599,2	0,003
599,7	0,003
600,1	0,003
600,6	0,003
601	0,003
601,4	0,003
601,9	0,002
602,3	0,003
602,8	0,003
603,2	0,002
603,7	0,002
604,1	0,003
604,6	0,003
605	0,003
605,4	0,003
605,9	0,003
606,3	0,003
606,8	0,003
607,2	0,003
607,7	0,003
608,1	0,004
608,6	0,004
609	0,004
609,4	0,004
609,9	0,004
610,3	0,003
610,8	0,004
611,2	0,003
611,7	0,004
612,1	0,003
612,6	0,003
613	0,004
613,4	0,003
613,9	0,003
614,3	0,003
614,8	0,003
615,2	0,003
615,7	0,004
616,1	0,004
616,6	0,004
617	0,004
617,4	0,004
617,9	0,004
618,3	0,004
618,8	0,003
619,2	0,003
619,7	0,003
620,1	0,003
620,5	0,003
621	0,003
621,4	0,004
621,9	0,004
622,3	0,004
622,8	0,004
623,2	0,004
623,6	0,004
624,1	0,004
624,5	0,004
625	0,004
625,4	0,004
625,9	0,004
626,3	0,003
626,8	0,004
627,2	0,004
627,6	0,004
628,1	0,004
628,5	0,004
629	0,004
629,4	0,004
629,9	0,004
630,3	0,004
630,7	0,004
631,2	0,004
631,6	0,004
632,1	0,004
632,5	0,004
633	0,004
633,4	0,004
633,8	0,004
634,3	0,004
634,7	0,004
635,2	0,004
635,6	0,004
636,1	0,005
636,5	0,004
636,9	0,004
637,4	0,004
637,8	0,004
638,3	0,004
638,7	0,004
639,2	0,004
639,6	0,005
640	0,004
640,5	0,005
640,9	0,004
641,4	0,004
641,8	0,004
642,2	0,004
642,7	0,004
643,1	0,004
643,6	0,004
644	0,004
644,5	0,004
644,9	0,004
645,3	0,005
645,8	0,005
646,2	0,005
646,7	0,005
647,1	0,005
647,6	0,005
648	0,005
648,4	0,005
648,9	0,004
649,3	0,004
649,8	0,004
650,2	0,004
650,6	0,004
651,1	0,004
651,5	0,004
652	0,003
652,4	0,003
652,9	0,003
653,3	0,003
653,7	0,004
654,2	0,004
654,6	0,004
655,1	0,004
655,5	0,002
655,9	0,002
656,4	0,001
656,8	0,001
657,3	0,002
657,7	0,002
658,2	0,002
658,6	0,003
659	0,004
659,5	0,007
659,9	0,008
660,4	0,007
660,8	0,006
661,2	0,005
661,7	0,005
662,1	0,005
662,6	0,004
663	0,004
663,4	0,004
663,9	0,003
664,3	0,003
664,8	0,003
665,2	0,003
665,6	0,003
666,1	0,003
666,5	0,003
667	0,003
667,4	0,004
667,9	0,004
668,3	0,004
668,7	0,004
669,2	0,004
669,6	0,004
670,1	0,003
670,5	0,003
670,9	0,003
671,4	0,003
671,8	0,003
672,3	0,003
672,7	0,002
673,1	0,003
673,6	0,002
674	0,003
674,5	0,003
674,9	0,002
675,3	0,003
675,8	0,003
676,2	0,003
676,7	0,003
677,1	0,002
677,5	0,003
678	0,003
678,4	0,003
678,9	0,003
679,3	0,003
679,7	0,003
680,2	0,004
680,6	0,003
681,1	0,003
681,5	0,003
681,9	0,004
682,4	0,004
682,8	0,004
683,3	0,004
683,7	0,004
684,1	0,004
684,6	0,004
685	0,003
685,5	0,003
685,9	0,003
686,3	0,003
686,8	0,003
687,2	0,003
687,7	0,003
688,1	0,003
688,5	0,003
689	0,003
689,4	0,003
689,9	0,004
690,3	0,004
690,7	0,004
691,2	0,004
691,6	0,004
692	0,004
692,5	0,004
692,9	0,004
693,4	0,003
693,8	0,003
694,2	0,003
694,7	0,003
695,1	0,003
695,6	0,004
696	0,003
696,4	0,003
696,9	0,004
697,3	0,004
697,8	0,004
698,2	0,003
698,6	0,003
699,1	0,003
699,5	0,003
699,9	0,003
700,4	0,003
700,8	0,004
701,3	0,004
701,7	0,004
702,1	0,004
702,6	0,005
703	0,005
703,5	0,005
703,9	0,005
704,3	0,005
704,8	0,005
705,2	0,004
705,6	0,004
706,1	0,004
706,5	0,004
707	0,004
707,4	0,003
707,8	0,003
708,3	0,004
708,7	0,004
709,2	0,004
709,6	0,004
710	0,004
710,5	0,004
710,9	0,003
711,3	0,003
711,8	0,003
712,2	0,003
712,7	0,003
713,1	0,003
713,5	0,003
714	0,003
714,4	0,003
714,8	0,003
715,3	0,003
715,7	0,003
716,2	0,003
716,6	0,004
717	0,004
717,5	0,003
717,9	0,003
718,3	0,003
718,8	0,003
719,2	0,002
719,7	0,002
720,1	0,002
720,5	0,002
721	0,003
721,4	0,003
721,8	0,003
722,3	0,003
722,7	0,003
723,2	0,003
723,6	0,003
724	0,002
724,5	0,002
724,9	0,002
725,3	0,002
725,8	0,002
726,2	0,002
726,7	0,003
727,1	0,002
727,5	0,002
728	0,003
728,4	0,002
728,8	0,002
729,3	0,002
729,7	0,002
730,1	0,002
730,6	0,003
731	0,003
731,5	0,003
731,9	0,003
732,3	0,003
732,8	0,003
733,2	0,003
733,6	0,003
734,1	0,003
734,5	0,003
734,9	0,003
735,4	0,003
735,8	0,003
736,3	0,003
736,7	0,004
737,1	0,003
737,6	0,004
738	0,003
738,4	0,003
738,9	0,003
739,3	0,003
739,7	0,002
740,2	0,002
740,6	0,002
741,1	0,002
741,5	0,002
741,9	0,002
742,4	0,003
742,8	0,003
743,2	0,003
743,7	0,003
744,1	0,004
744,5	0,003
745	0,003
745,4	0,003
745,8	0,003
746,3	0,003
746,7	0,003
747,2	0,002
747,6	0,003
748	0,003
748,5	0,003
748,9	0,003
749,3	0,003
749,8	0,004
750,2	0,004
750,6	0,004
751,1	0,004
751,5	0,004
751,9	0,004
752,4	0,004
752,8	0,004
753,3	0,004
753,7	0,004
754,1	0,004
754,6	0,004
755	0,004
755,4	0,004
755,9	0,003
756,3	0,003
756,7	0,003
757,2	0,003
757,6	0,003
758	0,003
758,5	0,003
758,9	0,003
759,3	0,003
759,8	0,003
760,2	0,003
760,6	0,003
761,1	0,003
761,5	0,003
761,9	0,004
762,4	0,004
762,8	0,004
763,3	0,004
763,7	0,004
764,1	0,004
764,6	0,005
765	0,004
765,4	0,004
765,9	0,005
766,3	0,005
766,7	0,005
767,2	0,005
767,6	0,005
768	0,005
768,5	0,005
768,9	0,006
769,3	0,006
769,8	0,005
770,2	0,005
770,6	0,005
771,1	0,005
771,5	0,005
771,9	0,005
772,4	0,004
772,8	0,005
773,2	0,004
773,7	0,005
774,1	0,005
774,5	0,005
775	0,005
775,4	0,005
775,8	0,004
776,3	0,004
776,7	0,004
777,1	0,003
777,6	0,003
778	0,003
778,4	0,003
778,9	0,003
779,3	0,004
779,7	0,004
780,2	0,003
780,6	0,004
781	0,003
781,5	0,004
781,9	0,003
782,3	0,003
782,8	0,004
783,2	0,004
783,6	0,004
784,1	0,004
784,5	0,004
784,9	0,004
785,4	0,004
785,8	0,003
786,2	0,003
786,7	0,003
787,1	0,002
787,5	0,002
788	0,002
788,4	0,003
788,8	0,002
789,3	0,003
789,7	0,003
790,1	0,003
790,6	0,003
791	0,002
791,4	0,002
791,9	0,002
792,3	0,002
792,7	0,002
793,2	0,002
793,6	0,002
794	0,003
794,5	0,003
794,9	0,003
795,3	0,003
795,8	0,003
796,2	0,003
796,6	0,003
797,1	0,004
797,5	0,004
797,9	0,004
798,4	0,004
798,8	0,003
799,2	0,003
799,7	0,003
800,1	0,003
800,5	0,003
801	0,002
801,4	0,002
801,8	0,002
802,2	0,002
802,7	0,002
803,1	0,002
803,5	0,003
804	0,003
804,4	0,003
804,8	0,003
805,3	0,002
805,7	0,002
806,1	0,002
806,6	0,002
807	0,002
807,4	0,002
807,9	0,002
808,3	0,002
808,7	0,003
809,2	0,003
809,6	0,003
810	0,003
810,4	0,003
810,9	0,003
811,3	0,002
811,7	0,003
812,2	0,003
812,6	0,003
813	0,003
813,5	0,003
813,9	0,003
814,3	0,003
814,8	0,003
815,2	0,002
815,6	0,002
816,1	0,002
816,5	0,002
816,9	0,002
817,3	0,002
817,8	0,002
818,2	0,002
818,6	0,002
819,1	0,002
819,5	0,003
819,9	0,002
820,4	0,002
820,8	0,002
821,2	0,002
821,7	0,002
822,1	0,001
822,5	0,001
822,9	0,001
823,4	0,002
823,8	0,001
824,2	0,001
824,7	0,002
825,1	0,002
825,5	0,002
826	0,002
826,4	0,002
826,8	0,003
827,3	0,003
827,7	0,003
828,1	0,003
828,5	0,003
829	0,003
829,4	0,003
829,8	0,003
830,3	0,003
830,7	0,003
831,1	0,003
831,6	0,003
832	0,003
832,4	0,003
832,8	0,003
833,3	0,003
833,7	0,003
834,1	0,002
834,6	0,002
835	0,002
835,4	0,002
835,8	0,002
836,3	0,002
836,7	0,002
837,1	0,002
837,6	0,002
838	0,002
838,4	0,002
838,9	0,003
839,3	0,003
839,7	0,003
840,1	0,004
840,6	0,004
841	0,004
841,4	0,004
841,9	0,004
842,3	0,003
842,7	0,003
843,1	0,003
843,6	0,002
844	0,003
844,4	0,003
844,9	0,003
845,3	0,003
845,7	0,003
846,2	0,003
846,6	0,004
847	0,003
847,4	0,004
847,9	0,004
848,3	0,004
848,7	0,004
849,2	0,004
849,6	0,004
850	0,004
850,4	0,004
850,9	0,003
851,3	0,003
851,7	0,003
852,2	0,003
852,6	0,003
853	0,003
853,4	0,003
853,9	0,004
854,3	0,004
854,7	0,004
855,2	0,004
855,6	0,004
856	0,004
856,4	0,004
856,9	0,004
857,3	0,004
857,7	0,003
858,2	0,003
858,6	0,003
859	0,002
859,4	0,002
859,9	0,002
860,3	0,002
860,7	0,002
861,1	0,002
861,6	0,002
862	0,002
862,4	0,002
862,9	0,002
863,3	0,003
863,7	0,002
864,1	0,002
864,6	0,002
865	0,002
865,4	0,002
865,9	0,002
866,3	0,002
866,7	0,003
867,1	0,003
867,6	0,003
868	0,003
868,4	0,002
868,8	0,003
869,3	0,002
869,7	0,003
870,1	0,002
870,6	0,003
871	0,003
871,4	0,003
871,8	0,003
872,3	0,003
872,7	0,002
873,1	0,002
873,5	0,002
874	0,002
874,4	0,002
874,8	0,002
875,3	0,002
875,7	0,002
876,1	0,002
876,5	0,002
877	0,002
877,4	0,001
877,8	0,001
878,2	0,001
878,7	0,001
879,1	0,001
879,5	0,001
879,9	0,001
880,4	0,001
880,8	0,002
881,2	0,002
881,7	0,002
882,1	0,002
882,5	0,002
882,9	0,002
883,4	0,002
883,8	0,002
884,2	0,002
884,6	0,002
885,1	0,002
885,5	0,001
885,9	0,002
886,3	0,002
886,8	0,002
887,2	0,002
887,6	0,003
888	0,003
888,5	0,003
888,9	0,003
889,3	0,003
889,8	0,003
890,2	0,003
890,6	0,003
891	0,003
891,5	0,004
891,9	0,004
892,3	0,004
892,7	0,004
893,2	0,004
893,6	0,004
894	0,004
894,4	0,003
894,9	0,003
895,3	0,003
895,7	0,003
896,1	0,003
896,6	0,003
897	0,003
897,4	0,003
897,8	0,003
898,3	0,003
898,7	0,002
899,1	0,002
899,5	0,002
900	0,002
900,4	0,002
900,8	0,002
901,2	0,002
901,7	0,002
902,1	0,002
902,5	0,002
902,9	0,002
903,4	0,001
903,8	0,002
904,2	0,002
904,6	0,002
905,1	0,002
905,5	0,002
905,9	0,002
906,3	0,002
906,8	0,002
907,2	0,001
907,6	0,001
908	0,001
908,5	0,001
908,9	0
909,3	0
909,7	-0
910,2	0
910,6	-0
911	-0
911,4	0
911,9	0
912,3	0,001
912,7	0,001
913,1	0,001
913,6	0,001
914	0,001
914,4	0,001
914,8	0,001
915,3	0,001
915,7	0,001
916,1	0,001
916,5	0,001
916,9	0,001
917,4	0,001
917,8	0,002
918,2	0,002
918,6	0,003
919,1	0,003
919,5	0,004
919,9	0,004
920,3	0,004
920,8	0,004
921,2	0,004
921,6	0,004
922	0,004
922,5	0,003
922,9	0,003
923,3	0,003
923,7	0,003
924,2	0,003
924,6	0,003
925	0,003
925,4	0,003
925,8	0,003
926,3	0,003
926,7	0,003
927,1	0,003
927,5	0,004
928	0,003
928,4	0,003
928,8	0,003
929,2	0,003
929,7	0,002
930,1	0,003
930,5	0,003
930,9	0,003
931,3	0,003
931,8	0,003
932,2	0,003
932,6	0,003
933	0,002
933,5	0,002
933,9	0,002
934,3	0,002
934,7	0,002
935,2	0,003
935,6	0,003
936	0,003
936,4	0,003
936,8	0,003
937,3	0,003
937,7	0,003
938,1	0,002
938,5	0,002
939	0,002
939,4	0,001
939,8	0,001
940,2	0,001
940,6	0,001
941,1	0,001
941,5	0,001
941,9	0,001
942,3	0,001
942,8	0,001
943,2	0,001
943,6	0,001
944	0,002
944,4	0,002
944,9	0,002
945,3	0,002
945,7	0,002
946,1	0,002
946,6	0,002
947	0,002
947,4	0,002
947,8	0,002
948,2	0,001
948,7	0,001
949,1	0,001
949,5	0,001
949,9	0,001
950,3	0,001
950,8	0,001
951,2	0,001
951,6	0,001
952	0,001
952,5	0,001
952,9	0,001
953,3	0,002
953,7	0,001
954,1	0,001
954,6	0,001
955	0,002
955,4	0,002
955,8	0,003
956,2	0,002
956,7	0,003
957,1	0,003
957,5	0,003
957,9	0,004
958,3	0,004
958,8	0,003
959,2	0,003
959,6	0,003
960	0,003
960,5	0,003
960,9	0,002
961,3	0,002
961,7	0,002
962,1	0,002
962,6	0,001
963	0,001
963,4	0,001
963,8	0,001
964,2	0,001
964,7	0,001
965,1	0,001
965,5	0,002
965,9	0,002
966,3	0,003
966,8	0,005
967,2	0,005
967,6	0,005
968	0,005
968,4	0,004
968,9	0,004
969,3	0,004
969,7	0,003
970,1	0,003
970,5	0,003
971	0,003
971,4	0,003
971,8	0,002
972,2	0,002
972,6	0,002
973,1	0,002
973,5	0,002
973,9	0,002
974,3	0,003
974,7	0,002
975,2	0,003
975,6	0,003
976	0,003
976,4	0,003
976,8	0,002
977,3	0,002
977,7	0,002
978,1	0,003
978,5	0,003
978,9	0,003
979,4	0,003
979,8	0,003
980,2	0,003
980,6	0,003
981	0,004
981,5	0,003
981,9	0,003
982,3	0,003
982,7	0,003
983,1	0,003
983,6	0,003
984	0,002
984,4	0,002
984,8	0,002
985,2	0,002
985,6	0,002
986,1	0,001
986,5	0,002
986,9	0,002
987,3	0,002
987,7	0,003
988,2	0,003
988,6	0,003
989	0,002
989,4	0,002
989,8	0,002
990,3	0,002
990,7	0,001
991,1	0,001
991,5	0,001
991,9	0,002
992,3	0,002
992,8	0,002
993,2	0,002
993,6	0,002
994	0,003
994,4	0,002
994,9	0,001
995,3	0,001
995,7	0,001
996,1	0,001
996,5	0,001
996,9	0,001
997,4	0,002
997,8	0,002
998,2	0,002
998,6	0,002
999	0,003
999,5	0,004
999,9	0,004
1000,3	0,004
1000,7	0,005
1001,1	0,005
1001,5	0,004
1002	0,003
1002,4	0,001
1002,8	0,001
1003,2	0
1003,6	0
1004	-0
1004,5	-0
1004,9	0
1005,3	0,001
1005,7	0,002
1006,1	0,002
1006,6	0,002
1007	0,002
1007,4	0,003
1007,8	0,003
1008,2	0,003
1008,6	0,003
1009,1	0,002
1009,5	0,002
1009,9	0,001
1010,3	0,001
1010,7	0,001
1011,1	0,001
1011,6	0
1012	0,001
1012,4	0,001
1012,8	0,001
1013,2	0
1013,6	0
1014,1	0
1014,5	0,001
1014,9	0,001
1015,3	0,001
1015,7	0,001
1016,1	0,001
1016,6	0,002
1017	0,002
1017,4	0,002
1017,8	0,001
1018,2	0,001
1018,6	0,001
1019,1	0,001
1019,5	0,001
1019,9	0,001
1020,3	0,002
1020,7	0,002
1021,1	0,002
1021,6	0,003
1022	0,003
1022,4	0,002
1022,8	0,002
1023,2	0,001
1023,6	0,002
1024,1	0,002
1024,5	0,002
1024,9	0,003
1025,3	0,003
1025,7	0,004
1026,1	0,004
1026,6	0,005
1027	0,004
1027,4	0,004
1027,8	0,003
1028,2	0,003
1028,6	0,003
1029	0,003
1029,5	0,003
1029,9	0,004
1030,3	0,004
1030,7	0,004
1031,1	0,005
1031,5	0,005
1032	0,005
1032,4	0,005
1032,8	0,004
1033,2	0,004
1033,6	0,004
1034	0,004
1034,4	0,004
1034,9	0,003
1035,3	0,002
1035,7	0,003
1036,1	0,003
1036,5	0,002
1036,9	0,002
1037,4	0,001
1037,8	0,002
1038,2	0,001
1038,6	0
1039	0,001
1039,4	0,001
1039,8	0,002
1040,3	0,002
1040,7	0,002
1041,1	0,002
1041,5	0,002
1041,9	0,001
1042,3	0,001
1042,7	0
1043,2	-0
1043,6	0,001
1044	0
1044,4	0,001
1044,8	0,001
1045,2	0,002
1045,6	0,002
1046,1	0,003
1046,5	0,003
1046,9	0,004
1047,3	0,003
1047,7	0,003
1048,1	0,003
1048,5	0,003
1049	0,002
1049,4	0,002
1049,8	0,001
1050,2	0,001
1050,6	0
1051	0
1051,4	-0
1051,9	-0
1052,3	0
1052,7	-0
1053,1	0,001
1053,5	0,001
1053,9	0,001
1054,3	0,002
1054,8	0,002
1055,2	0,002
1055,6	0,002
1056	0,001
1056,4	0,001
1056,8	0,002
1057,2	0,002
1057,6	0,002
1058,1	0,002
1058,5	0,001
1058,9	0,001
1059,3	0,001
1059,7	0
1060,1	-0
1060,5	-0
1061	-0
1061,4	0
1061,8	0,001
1062,2	0
1062,6	0
1063	0,001
1063,4	0,001
1063,8	0,001
1064,3	0,001
1064,7	0,001
1065,1	0,002
1065,5	0,002
1065,9	0,003
1066,3	0,002
1066,7	0,002
1067,1	0,001
1067,6	0,001
1068	-0
1068,4	-0,001
1068,8	-0,001
1069,2	-0,001
1069,6	-0,001
1070	-0
1070,4	-0
1070,9	0
1071,3	0,001
1071,7	0,001
1072,1	0
1072,5	0
1072,9	-0
1073,3	0
1073,7	0,001
1074,2	0,001
1074,6	0,001
1075	0,002
1075,4	0,001
1075,8	0,002
1076,2	0,002
1076,6	0,001
1077	0,001
1077,5	0,001
1077,9	0
1078,3	0
1078,7	-0
1079,1	0
1079,5	0,001
1079,9	0,001
1080,3	0,001
1080,7	0,001
1081,2	0,003
1081,6	0,004
1082	0,004
1082,4	0,003
1082,8	0,002
1083,2	0
1083,6	-0,001
1084	-0,001
1084,5	-0,002
1084,9	-0,002
1085,3	-0
1085,7	0,001
1086,1	0,002
1086,5	0,002
1086,9	0,001
1087,3	-0
1087,7	0,002
1088,2	0
1088,6	-0,002
1089	-0
1089,4	-0,001
1089,8	-0,002
1090,2	-0,002
1090,6	-0,003
1091	-0,001
1091,4	0,001
1091,9	0
1092,3	0,003
1092,7	0,004
1093,1	0,003
1093,5	0,001
1093,9	0,001
1094,3	-0
1094,7	-0
1095,1	0
1095,5	-0,002
1096	-0
1096,4	0,002
1096,8	0,002
1097,2	0,001
1097,6	-0,006
1098	-0,007
1098,4	-0,006
1098,8	-0,003
1099,2	-0,003
1099,6	-0,003
1100,1	-0,003
1100,5	0,006
1100,9	0,006
1101,3	0,008
1101,7	0,006
1102,1	-0,002
1102,5	-0,006
1102,9	-0
1103,3	-0,005
1103,7	-0,008
1104,2	-0,011
1104,6	-0,013
1105	-0,01
1105,4	0,004
1105,8	0,006
1106,2	0,01
1106,6	0,008
1107	-0
1107,4	0,016
1107,8	0,044
1108,3	-0
