Data from Absorbance_00054.txt Node
Date: Fri Aug 11 13:17:51 MSK 2023
User: vat
Spectrometer: MAYP114033
Trigger mode: 0
Integration Time (sec): 8,000000E-3
Scans to average: 10
Electric dark correction enabled: true
Nonlinearity correction enabled: false
Boxcar width: 3
XAxis mode: Wavelengths
Number of Pixels in Spectrum: 2068
>>>>>Begin Spectral Data<<<<<
199,4	-0,323
199,9	0,694
200,4	0,679
200,8	0,853
201,3	0,959
201,8	0,966
202,2	0,982
202,7	0,997
203,2	1,033
203,6	1,061
204,1	1,091
204,6	1,095
205	1,113
205,5	1,123
206	1,127
206,4	1,135
206,9	1,151
207,4	1,152
207,8	1,162
208,3	1,191
208,8	1,213
209,2	1,239
209,7	1,271
210,2	1,29
210,6	1,31
211,1	1,346
211,5	1,366
212	1,395
212,5	1,415
212,9	1,423
213,4	1,43
213,9	1,442
214,3	1,439
214,8	1,448
215,3	1,46
215,7	1,462
216,2	1,466
216,7	1,499
217,1	1,544
217,6	1,556
218,1	1,553
218,5	1,55
219	1,578
219,5	1,584
219,9	1,573
220,4	1,573
220,9	1,59
221,3	1,604
221,8	1,617
222,3	1,63
222,7	1,651
223,2	1,671
223,6	1,686
224,1	1,703
224,6	1,729
225	1,775
225,5	1,798
226	1,838
226,4	1,86
226,9	1,867
227,4	1,895
227,8	1,896
228,3	1,887
228,8	1,911
229,2	1,9
229,7	1,906
230,2	1,905
230,6	1,918
231,1	1,918
231,5	1,94
232	1,94
232,5	1,949
232,9	1,957
233,4	1,996
233,9	1,986
234,3	2,004
234,8	1,993
235,3	1,982
235,7	1,994
236,2	2,013
236,7	2,003
237,1	2,028
237,6	2,04
238,1	2,05
238,5	2,07
239	2,083
239,4	2,08
239,9	2,075
240,4	2,075
240,8	2,078
241,3	2,084
241,8	2,094
242,2	2,094
242,7	2,096
243,2	2,121
243,6	2,111
244,1	2,103
244,6	2,103
245	2,12
245,5	2,125
245,9	2,139
246,4	2,135
246,9	2,153
247,3	2,171
247,8	2,173
248,3	2,16
248,7	2,167
249,2	2,161
249,7	2,171
250,1	2,16
250,6	2,168
251	2,188
251,5	2,178
252	2,177
252,4	2,194
252,9	2,206
253,4	2,226
253,8	2,204
254,3	2,172
254,8	2,184
255,2	2,183
255,7	2,185
256,1	2,166
256,6	2,171
257,1	2,185
257,5	2,208
258	2,215
258,5	2,215
258,9	2,2
259,4	2,203
259,9	2,198
260,3	2,21
260,8	2,201
261,2	2,194
261,7	2,195
262,2	2,2
262,6	2,208
263,1	2,194
263,6	2,175
264	2,181
264,5	2,191
264,9	2,206
265,4	2,184
265,9	2,174
266,3	2,187
266,8	2,199
267,3	2,176
267,7	2,176
268,2	2,169
268,7	2,192
269,1	2,18
269,6	2,175
270	2,174
270,5	2,21
271	2,213
271,4	2,196
271,9	2,189
272,4	2,185
272,8	2,192
273,3	2,189
273,7	2,184
274,2	2,169
274,7	2,181
275,1	2,211
275,6	2,247
276,1	2,235
276,5	2,232
277	2,222
277,4	2,216
277,9	2,214
278,4	2,21
278,8	2,191
279,3	2,174
279,8	2,175
280,2	2,176
280,7	2,174
281,1	2,159
281,6	2,135
282,1	2,127
282,5	2,13
283	2,133
283,4	2,123
283,9	2,12
284,4	2,126
284,8	2,121
285,3	2,12
285,8	2,113
286,2	2,083
286,7	2,059
287,1	2,01
287,6	1,958
288,1	1,9
288,5	1,84
289	1,767
289,5	1,692
289,9	1,622
290,4	1,551
290,8	1,479
291,3	1,409
291,8	1,338
292,2	1,274
292,7	1,215
293,1	1,157
293,6	1,104
294,1	1,057
294,5	1,014
295	0,975
295,5	0,939
295,9	0,907
296,4	0,879
296,8	0,854
297,3	0,831
297,8	0,811
298,2	0,792
298,7	0,779
299,1	0,766
299,6	0,754
300,1	0,743
300,5	0,733
301	0,724
301,5	0,716
301,9	0,706
302,4	0,697
302,8	0,689
303,3	0,684
303,8	0,677
304,2	0,672
304,7	0,667
305,1	0,662
305,6	0,657
306,1	0,652
306,5	0,645
307	0,639
307,4	0,634
307,9	0,627
308,4	0,621
308,8	0,617
309,3	0,612
309,8	0,609
310,2	0,604
310,7	0,599
311,1	0,593
311,6	0,589
312,1	0,583
312,5	0,578
313	0,572
313,4	0,568
313,9	0,563
314,4	0,558
314,8	0,553
315,3	0,549
315,7	0,545
316,2	0,538
316,7	0,534
317,1	0,529
317,6	0,524
318	0,519
318,5	0,514
319	0,508
319,4	0,505
319,9	0,499
320,3	0,495
320,8	0,49
321,3	0,485
321,7	0,48
322,2	0,474
322,6	0,47
323,1	0,465
323,6	0,459
324	0,454
324,5	0,45
324,9	0,445
325,4	0,44
325,9	0,435
326,3	0,43
326,8	0,425
327,2	0,421
327,7	0,416
328,2	0,412
328,6	0,408
329,1	0,402
329,5	0,397
330	0,393
330,5	0,388
330,9	0,383
331,4	0,378
331,8	0,373
332,3	0,368
332,8	0,363
333,2	0,358
333,7	0,354
334,1	0,349
334,6	0,344
335,1	0,339
335,5	0,335
336	0,331
336,4	0,326
336,9	0,321
337,4	0,316
337,8	0,311
338,3	0,306
338,7	0,302
339,2	0,297
339,7	0,292
340,1	0,286
340,6	0,281
341	0,277
341,5	0,272
342	0,267
342,4	0,263
342,9	0,258
343,3	0,254
343,8	0,25
344,2	0,246
344,7	0,242
345,2	0,239
345,6	0,235
346,1	0,231
346,5	0,228
347	0,225
347,5	0,221
347,9	0,216
348,4	0,211
348,8	0,207
349,3	0,203
349,8	0,199
350,2	0,195
350,7	0,191
351,1	0,188
351,6	0,185
352	0,182
352,5	0,178
353	0,174
353,4	0,172
353,9	0,168
354,3	0,165
354,8	0,162
355,3	0,16
355,7	0,156
356,2	0,153
356,6	0,15
357,1	0,147
357,5	0,143
358	0,14
358,5	0,136
358,9	0,134
359,4	0,132
359,8	0,129
360,3	0,126
360,8	0,124
361,2	0,121
361,7	0,12
362,1	0,117
362,6	0,115
363	0,111
363,5	0,11
364	0,107
364,4	0,105
364,9	0,103
365,3	0,1
365,8	0,098
366,3	0,096
366,7	0,094
367,2	0,093
367,6	0,09
368,1	0,088
368,5	0,087
369	0,086
369,5	0,084
369,9	0,082
370,4	0,081
370,8	0,079
371,3	0,077
371,7	0,077
372,2	0,075
372,7	0,074
373,1	0,073
373,6	0,071
374	0,07
374,5	0,069
374,9	0,066
375,4	0,065
375,9	0,063
376,3	0,062
376,8	0,061
377,2	0,061
377,7	0,06
378,2	0,059
378,6	0,058
379,1	0,056
379,5	0,055
380	0,054
380,4	0,053
380,9	0,051
381,4	0,051
381,8	0,05
382,3	0,05
382,7	0,049
383,2	0,048
383,6	0,047
384,1	0,046
384,6	0,046
385	0,045
385,5	0,044
385,9	0,042
386,4	0,041
386,8	0,041
387,3	0,041
387,7	0,039
388,2	0,038
388,7	0,038
389,1	0,037
389,6	0,037
390	0,036
390,5	0,035
390,9	0,034
391,4	0,033
391,9	0,033
392,3	0,032
392,8	0,032
393,2	0,031
393,7	0,031
394,1	0,03
394,6	0,03
395,1	0,029
395,5	0,029
396	0,029
396,4	0,029
396,9	0,029
397,3	0,028
397,8	0,028
398,2	0,027
398,7	0,026
399,2	0,026
399,6	0,025
400,1	0,025
400,5	0,024
401	0,024
401,4	0,023
401,9	0,023
402,4	0,022
402,8	0,022
403,3	0,022
403,7	0,021
404,2	0,021
404,6	0,021
405,1	0,021
405,5	0,021
406	0,021
406,5	0,02
406,9	0,02
407,4	0,019
407,8	0,018
408,3	0,018
408,7	0,017
409,2	0,017
409,6	0,017
410,1	0,017
410,6	0,017
411	0,017
411,5	0,017
411,9	0,017
412,4	0,016
412,8	0,016
413,3	0,015
413,7	0,015
414,2	0,015
414,7	0,015
415,1	0,015
415,6	0,014
416	0,014
416,5	0,014
416,9	0,014
417,4	0,014
417,8	0,013
418,3	0,012
418,8	0,012
419,2	0,012
419,7	0,012
420,1	0,011
420,6	0,012
421	0,012
421,5	0,012
421,9	0,012
422,4	0,011
422,8	0,011
423,3	0,011
423,8	0,011
424,2	0,01
424,7	0,01
425,1	0,01
425,6	0,01
426	0,01
426,5	0,01
426,9	0,009
427,4	0,008
427,9	0,008
428,3	0,008
428,8	0,008
429,2	0,008
429,7	0,007
430,1	0,007
430,6	0,007
431	0,006
431,5	0,006
431,9	0,006
432,4	0,006
432,8	0,006
433,3	0,006
433,8	0,006
434,2	0,006
434,7	0,005
435,1	0,005
435,6	0,005
436	0,005
436,5	0,005
436,9	0,005
437,4	0,005
437,8	0,005
438,3	0,006
438,8	0,005
439,2	0,005
439,7	0,005
440,1	0,004
440,6	0,004
441	0,004
441,5	0,004
441,9	0,003
442,4	0,003
442,8	0,004
443,3	0,004
443,7	0,004
444,2	0,004
444,7	0,004
445,1	0,004
445,6	0,004
446	0,003
446,5	0,003
446,9	0,002
447,4	0,002
447,8	0,002
448,3	0,002
448,7	0,002
449,2	0,002
449,6	0,003
450,1	0,003
450,6	0,003
451	0,002
451,5	0,002
451,9	0,001
452,4	0,001
452,8	0,001
453,3	0,001
453,7	0,001
454,2	0,001
454,6	0,002
455,1	0,002
455,5	0,002
456	0,003
456,4	0,003
456,9	0,003
457,3	0,003
457,8	0,003
458,3	0,002
458,7	0,001
459,2	0,001
459,6	0,001
460,1	0,001
460,5	0
461	0
461,4	0,001
461,9	0,001
462,3	0,001
462,8	0
463,2	0,001
463,7	0
464,1	0
464,6	0
465	0,001
465,5	0,001
466	0,002
466,4	0,002
466,9	0,002
467,3	0,002
467,8	0,002
468,2	0,001
468,7	0,001
469,1	0,001
469,6	0,001
470	0,001
470,5	0,001
470,9	0,001
471,4	0,002
471,8	0,001
472,3	0,001
472,7	0,001
473,2	0,001
473,6	0,001
474,1	0,001
474,5	0,001
475	0,001
475,4	0,001
475,9	0,002
476,4	0,001
476,8	0,001
477,3	0,001
477,7	0,001
478,2	0
478,6	0,001
479,1	0
479,5	0,001
480	0,002
480,4	0,002
480,9	0,003
481,3	0,003
481,8	0,002
482,2	0,002
482,7	0,001
483,1	0,001
483,6	0
484	0
484,5	-0,001
484,9	-0
485,4	0
485,8	0,001
486,3	0,001
486,7	0,001
487,2	0,001
487,6	0,001
488,1	0,001
488,5	0,002
489	0,001
489,4	0,001
489,9	0,001
490,4	0,002
490,8	0,003
491,3	0,002
491,7	0,002
492,2	0,002
492,6	0,002
493,1	0,002
493,5	0,002
494	0,001
494,4	0,001
494,9	0,001
495,3	0,001
495,8	0,002
496,2	0,002
496,7	0,001
497,1	0,001
497,6	0,001
498	0,001
498,5	0,001
498,9	0
499,4	-0
499,8	-0
500,3	-0
500,7	0
501,2	0
501,6	-0
502,1	0,001
502,5	0,001
503	0,001
503,4	0,002
503,9	0,002
504,3	0,002
504,8	0,003
505,2	0,002
505,7	0,002
506,1	0,003
506,6	0,002
507	0,002
507,5	0,002
507,9	0,002
508,4	0,002
508,8	0,002
509,3	0,002
509,7	0,002
510,2	0,001
510,6	0,001
511,1	0,001
511,5	0,001
512	0,001
512,4	0,001
512,9	0,001
513,3	0,001
513,8	0,001
514,2	0,001
514,7	0,002
515,1	0,002
515,6	0,002
516	0,001
516,5	0,002
516,9	0,002
517,4	0,001
517,8	0,001
518,3	0,001
518,7	0,001
519,2	0,001
519,6	0,001
520,1	0,001
520,5	0,001
521	0,002
521,4	0,002
521,9	0,002
522,3	0,003
522,8	0,002
523,2	0,002
523,7	0,002
524,1	0,003
524,6	0,002
525	0,003
525,5	0,002
525,9	0,002
526,4	0,002
526,8	0,002
527,3	0,002
527,7	0,002
528,2	0,001
528,6	0,002
529,1	0,001
529,5	0,001
530	0,001
530,4	0,002
530,9	0,002
531,3	0,002
531,8	0,002
532,2	0,002
532,6	0,002
533,1	0,003
533,5	0,003
534	0,003
534,4	0,002
534,9	0,002
535,3	0,003
535,8	0,002
536,2	0,001
536,7	0,001
537,1	0
537,6	0
538	0,001
538,5	0
538,9	0,001
539,4	0,002
539,8	0,002
540,3	0,002
540,7	0,002
541,2	0,002
541,6	0,003
542,1	0,003
542,5	0,002
543	0,002
543,4	0,001
543,9	0,001
544,3	0,001
544,8	0
545,2	-0
545,7	0,001
546,1	0
546,5	0
547	0,001
547,4	0,001
547,9	0,001
548,3	0,001
548,8	0,001
549,2	0,001
549,7	0,002
550,1	0,002
550,6	0,002
551	0,002
551,5	0,002
551,9	0,002
552,4	0,002
552,8	0,002
553,3	0,003
553,7	0,002
554,2	0,002
554,6	0,003
555,1	0,002
555,5	0,002
555,9	0,002
556,4	0,001
556,8	0,001
557,3	0,001
557,7	0,001
558,2	0,002
558,6	0,001
559,1	0,001
559,5	0,001
560	0,001
560,4	0,001
560,9	0,001
561,3	0,001
561,8	0,002
562,2	0,002
562,7	0,002
563,1	0,002
563,6	0,002
564	0,002
564,4	0,002
564,9	0,002
565,3	0,002
565,8	0,003
566,2	0,002
566,7	0,003
567,1	0,002
567,6	0,002
568	0,002
568,5	0,002
568,9	0,002
569,4	0,002
569,8	0,002
570,3	0,002
570,7	0,002
571,1	0,002
571,6	0,002
572	0,002
572,5	0,002
572,9	0,002
573,4	0,002
573,8	0,002
574,3	0,001
574,7	0,001
575,2	0,001
575,6	0,001
576,1	0
576,5	0,001
576,9	0,001
577,4	0,001
577,8	0,001
578,3	0,001
578,7	0,001
579,2	0,002
579,6	0,002
580,1	0,002
580,5	0,002
581	0,002
581,4	0,002
581,9	0,002
582,3	0,002
582,7	0,002
583,2	0,002
583,6	0,002
584,1	0,002
584,5	0,001
585	0,002
585,4	0,002
585,9	0,001
586,3	0,001
586,8	0,002
587,2	0,002
587,6	0,001
588,1	0,001
588,5	0,001
589	0,002
589,4	0,001
589,9	0,001
590,3	0,001
590,8	0,001
591,2	0,001
591,7	0,002
592,1	0,002
592,5	0,003
593	0,003
593,4	0,003
593,9	0,003
594,3	0,003
594,8	0,002
595,2	0,002
595,7	0,002
596,1	0,002
596,6	0,002
597	0,002
597,4	0,002
597,9	0,002
598,3	0,002
598,8	0,001
599,2	0,001
599,7	0,001
600,1	0,001
600,6	0,001
601	0,001
601,4	0,001
601,9	0,001
602,3	0,001
602,8	0,001
603,2	0,001
603,7	0
604,1	0
604,6	0,001
605	0,001
605,4	0,001
605,9	0,001
606,3	0,001
606,8	0,001
607,2	0,002
607,7	0,002
608,1	0,002
608,6	0,002
609	0,002
609,4	0,002
609,9	0,002
610,3	0,002
610,8	0,002
611,2	0,002
611,7	0,002
612,1	0,001
612,6	0,001
613	0,002
613,4	0,002
613,9	0,001
614,3	0,001
614,8	0,001
615,2	0,002
615,7	0,002
616,1	0,002
616,6	0,002
617	0,002
617,4	0,002
617,9	0,001
618,3	0,002
618,8	0,001
619,2	0,002
619,7	0,002
620,1	0,002
620,5	0,002
621	0,002
621,4	0,002
621,9	0,002
622,3	0,002
622,8	0,002
623,2	0,002
623,6	0,002
624,1	0,002
624,5	0,002
625	0,002
625,4	0,002
625,9	0,002
626,3	0,002
626,8	0,002
627,2	0,002
627,6	0,002
628,1	0,001
628,5	0,001
629	0,002
629,4	0,002
629,9	0,002
630,3	0,002
630,7	0,003
631,2	0,003
631,6	0,003
632,1	0,002
632,5	0,002
633	0,002
633,4	0,002
633,8	0,002
634,3	0,002
634,7	0,002
635,2	0,003
635,6	0,002
636,1	0,002
636,5	0,002
636,9	0,002
637,4	0,001
637,8	0,001
638,3	0,001
638,7	0,002
639,2	0,002
639,6	0,002
640	0,002
640,5	0,002
640,9	0,002
641,4	0,002
641,8	0,002
642,2	0,002
642,7	0,002
643,1	0,002
643,6	0,003
644	0,003
644,5	0,003
644,9	0,003
645,3	0,003
645,8	0,003
646,2	0,003
646,7	0,003
647,1	0,004
647,6	0,004
648	0,004
648,4	0,004
648,9	0,004
649,3	0,004
649,8	0,003
650,2	0,003
650,6	0,002
651,1	0,002
651,5	0,002
652	0,001
652,4	0,001
652,9	0,001
653,3	0,002
653,7	0,002
654,2	0,001
654,6	0,002
655,1	0,002
655,5	0,001
655,9	0,001
656,4	0,001
656,8	0,001
657,3	0,001
657,7	0,001
658,2	0,001
658,6	0,002
659	0,002
659,5	0,004
659,9	0,005
660,4	0,005
660,8	0,004
661,2	0,003
661,7	0,003
662,1	0,002
662,6	0,002
663	0,002
663,4	0,002
663,9	0,001
664,3	0,001
664,8	0,001
665,2	0,001
665,6	0,001
666,1	0,001
666,5	0,001
667	0,001
667,4	0,002
667,9	0,002
668,3	0,002
668,7	0,002
669,2	0,002
669,6	0,002
670,1	0,002
670,5	0,001
670,9	0,001
671,4	0,001
671,8	0,001
672,3	0,001
672,7	0
673,1	0
673,6	0
674	0
674,5	0
674,9	0,001
675,3	0,001
675,8	0,001
676,2	0,001
676,7	0,002
677,1	0,001
677,5	0,001
678	0,001
678,4	0,002
678,9	0,002
679,3	0,002
679,7	0,002
680,2	0,002
680,6	0,002
681,1	0,002
681,5	0,002
681,9	0,002
682,4	0,002
682,8	0,002
683,3	0,002
683,7	0,002
684,1	0,003
684,6	0,003
685	0,002
685,5	0,002
685,9	0,002
686,3	0,002
686,8	0,002
687,2	0,002
687,7	0,001
688,1	0,001
688,5	0,001
689	0,002
689,4	0,001
689,9	0,001
690,3	0,002
690,7	0,002
691,2	0,002
691,6	0,002
692	0,002
692,5	0,002
692,9	0,002
693,4	0,002
693,8	0,002
694,2	0,002
694,7	0,002
695,1	0,002
695,6	0,002
696	0,002
696,4	0,002
696,9	0,002
697,3	0,002
697,8	0,002
698,2	0,002
698,6	0,002
699,1	0,002
699,5	0,002
699,9	0,002
700,4	0,002
700,8	0,002
701,3	0,002
701,7	0,002
702,1	0,002
702,6	0,003
703	0,003
703,5	0,003
703,9	0,003
704,3	0,003
704,8	0,003
705,2	0,003
705,6	0,003
706,1	0,003
706,5	0,003
707	0,002
707,4	0,002
707,8	0,002
708,3	0,002
708,7	0,002
709,2	0,002
709,6	0,001
710	0,002
710,5	0,002
710,9	0,002
711,3	0,002
711,8	0,002
712,2	0,002
712,7	0,002
713,1	0,002
713,5	0,002
714	0,002
714,4	0,001
714,8	0,002
715,3	0,002
715,7	0,002
716,2	0,002
716,6	0,002
717	0,002
717,5	0,002
717,9	0,002
718,3	0,002
718,8	0,001
719,2	0,001
719,7	0,001
720,1	0,001
720,5	0,001
721	0,001
721,4	0,001
721,8	0,002
722,3	0,002
722,7	0,002
723,2	0,002
723,6	0,002
724	0,002
724,5	0,002
724,9	0,002
725,3	0,002
725,8	0,002
726,2	0,002
726,7	0,002
727,1	0,002
727,5	0,001
728	0,001
728,4	0,001
728,8	0
729,3	0,001
729,7	0
730,1	0
730,6	0
731	0,001
731,5	0,001
731,9	0,001
732,3	0,001
732,8	0,002
733,2	0,002
733,6	0,002
734,1	0,002
734,5	0,002
734,9	0,002
735,4	0,003
735,8	0,003
736,3	0,002
736,7	0,002
737,1	0,002
737,6	0,003
738	0,002
738,4	0,002
738,9	0,002
739,3	0,002
739,7	0,002
740,2	0,002
740,6	0,002
741,1	0,002
741,5	0,002
741,9	0,002
742,4	0,002
742,8	0,002
743,2	0,002
743,7	0,003
744,1	0,003
744,5	0,003
745	0,003
745,4	0,003
745,8	0,002
746,3	0,002
746,7	0,002
747,2	0,002
747,6	0,002
748	0,002
748,5	0,002
748,9	0,002
749,3	0,002
749,8	0,002
750,2	0,003
750,6	0,003
751,1	0,003
751,5	0,003
751,9	0,003
752,4	0,003
752,8	0,003
753,3	0,003
753,7	0,003
754,1	0,003
754,6	0,003
755	0,003
755,4	0,003
755,9	0,003
756,3	0,003
756,7	0,003
757,2	0,003
757,6	0,003
758	0,003
758,5	0,002
758,9	0,003
759,3	0,003
759,8	0,003
760,2	0,003
760,6	0,003
761,1	0,003
761,5	0,003
761,9	0,004
762,4	0,004
762,8	0,004
763,3	0,004
763,7	0,003
764,1	0,004
764,6	0,003
765	0,003
765,4	0,003
765,9	0,003
766,3	0,003
766,7	0,004
767,2	0,004
767,6	0,004
768	0,005
768,5	0,005
768,9	0,005
769,3	0,005
769,8	0,004
770,2	0,004
770,6	0,004
771,1	0,003
771,5	0,003
771,9	0,003
772,4	0,003
772,8	0,003
773,2	0,003
773,7	0,003
774,1	0,003
774,5	0,003
775	0,003
775,4	0,003
775,8	0,002
776,3	0,002
776,7	0,003
777,1	0,002
777,6	0,003
778	0,003
778,4	0,003
778,9	0,003
779,3	0,003
779,7	0,003
780,2	0,003
780,6	0,003
781	0,003
781,5	0,003
781,9	0,003
782,3	0,003
782,8	0,003
783,2	0,003
783,6	0,003
784,1	0,003
784,5	0,003
784,9	0,003
785,4	0,003
785,8	0,002
786,2	0,002
786,7	0,002
787,1	0,001
787,5	0,001
788	0,001
788,4	0,001
788,8	0,001
789,3	0,001
789,7	0,001
790,1	0,002
790,6	0,002
791	0,001
791,4	0,001
791,9	0,002
792,3	0,002
792,7	0,002
793,2	0,002
793,6	0,002
794	0,002
794,5	0,003
794,9	0,002
795,3	0,003
795,8	0,003
796,2	0,003
796,6	0,003
797,1	0,003
797,5	0,003
797,9	0,003
798,4	0,003
798,8	0,003
799,2	0,003
799,7	0,003
800,1	0,003
800,5	0,003
801	0,003
801,4	0,002
801,8	0,002
802,2	0,002
802,7	0,002
803,1	0,002
803,5	0,003
804	0,003
804,4	0,003
804,8	0,003
805,3	0,003
805,7	0,003
806,1	0,002
806,6	0,002
807	0,002
807,4	0,002
807,9	0,002
808,3	0,002
808,7	0,002
809,2	0,002
809,6	0,002
810	0,002
810,4	0,002
810,9	0,002
811,3	0,002
811,7	0,002
812,2	0,002
812,6	0,002
813	0,002
813,5	0,002
813,9	0,002
814,3	0,002
814,8	0,002
815,2	0,001
815,6	0,001
816,1	0,001
816,5	0,001
816,9	0,001
817,3	0,001
817,8	0,001
818,2	0
818,6	0
819,1	0,001
819,5	0,001
819,9	0,001
820,4	0
820,8	0
821,2	0
821,7	0
822,1	0
822,5	-0
822,9	-0
823,4	0
823,8	-0
824,2	-0
824,7	0
825,1	0
825,5	0,001
826	0,001
826,4	0,001
826,8	0,002
827,3	0,002
827,7	0,002
828,1	0,002
828,5	0,002
829	0,002
829,4	0,002
829,8	0,002
830,3	0,002
830,7	0,002
831,1	0,001
831,6	0,001
832	0,001
832,4	0,001
832,8	0,001
833,3	0,001
833,7	0,001
834,1	0,001
834,6	0,001
835	0,002
835,4	0,001
835,8	0,001
836,3	0,001
836,7	0,001
837,1	0,001
837,6	0,001
838	0,001
838,4	0
838,9	0,001
839,3	0,001
839,7	0,001
840,1	0,002
840,6	0,002
841	0,002
841,4	0,003
841,9	0,002
842,3	0,002
842,7	0,002
843,1	0,002
843,6	0,001
844	0,002
844,4	0,002
844,9	0,002
845,3	0,002
845,7	0,002
846,2	0,002
846,6	0,003
847	0,003
847,4	0,003
847,9	0,003
848,3	0,003
848,7	0,004
849,2	0,003
849,6	0,003
850	0,003
850,4	0,003
850,9	0,003
851,3	0,003
851,7	0,003
852,2	0,003
852,6	0,003
853	0,003
853,4	0,003
853,9	0,003
854,3	0,004
854,7	0,004
855,2	0,003
855,6	0,003
856	0,003
856,4	0,003
856,9	0,003
857,3	0,003
857,7	0,002
858,2	0,002
858,6	0,001
859	0,001
859,4	0,001
859,9	0,001
860,3	0
860,7	0
861,1	0
861,6	0,001
862	0,001
862,4	0,001
862,9	0,001
863,3	0,001
863,7	0,001
864,1	0,001
864,6	0,001
865	0,001
865,4	0,001
865,9	0,001
866,3	0,002
866,7	0,001
867,1	0,002
867,6	0,002
868	0,002
868,4	0,002
868,8	0,002
869,3	0,002
869,7	0,002
870,1	0,002
870,6	0,002
871	0,002
871,4	0,002
871,8	0,002
872,3	0,002
872,7	0,002
873,1	0,001
873,5	0,001
874	0,001
874,4	0,001
874,8	0,001
875,3	0,001
875,7	0,001
876,1	0,002
876,5	0,002
877	0,002
877,4	0,002
877,8	0,001
878,2	0,001
878,7	0,001
879,1	0,001
879,5	0,001
879,9	0,002
880,4	0,001
880,8	0,002
881,2	0,002
881,7	0,002
882,1	0,002
882,5	0,001
882,9	0,001
883,4	0,001
883,8	0,001
884,2	0,001
884,6	0,001
885,1	0,001
885,5	0,001
885,9	0,002
886,3	0,002
886,8	0,002
887,2	0,002
887,6	0,002
888	0,002
888,5	0,003
888,9	0,003
889,3	0,002
889,8	0,002
890,2	0,003
890,6	0,003
891	0,003
891,5	0,003
891,9	0,003
892,3	0,003
892,7	0,003
893,2	0,002
893,6	0,002
894	0,002
894,4	0,002
894,9	0,002
895,3	0,002
895,7	0,002
896,1	0,002
896,6	0,002
897	0,002
897,4	0,002
897,8	0,002
898,3	0,002
898,7	0,002
899,1	0,002
899,5	0,002
900	0,002
900,4	0,002
900,8	0,002
901,2	0,001
901,7	0,001
902,1	0,001
902,5	0,001
902,9	0,001
903,4	0
903,8	0
904,2	0
904,6	0,001
905,1	0,001
905,5	0,001
905,9	0,001
906,3	0,001
906,8	0
907,2	0
907,6	-0
908	-0
908,5	-0
908,9	-0
909,3	-0,001
909,7	-0
910,2	-0,001
910,6	-0,001
911	-0
911,4	0
911,9	0
912,3	0,001
912,7	0,001
913,1	0,001
913,6	0,001
914	0,001
914,4	0
914,8	0
915,3	0
915,7	0
916,1	0
916,5	0,001
916,9	0,001
917,4	0,001
917,8	0,002
918,2	0,002
918,6	0,002
919,1	0,003
919,5	0,003
919,9	0,003
920,3	0,004
920,8	0,003
921,2	0,003
921,6	0,003
922	0,002
922,5	0,002
922,9	0,002
923,3	0,001
923,7	0,001
924,2	0,001
924,6	0,001
925	0,001
925,4	0,002
925,8	0,001
926,3	0,002
926,7	0,002
927,1	0,002
927,5	0,002
928	0,002
928,4	0,002
928,8	0,001
929,2	0,002
929,7	0,001
930,1	0,002
930,5	0,001
930,9	0,001
931,3	0,001
931,8	0,002
932,2	0,001
932,6	0,002
933	0,001
933,5	0,002
933,9	0,001
934,3	0,001
934,7	0,002
935,2	0,002
935,6	0,002
936	0,003
936,4	0,003
936,8	0,003
937,3	0,003
937,7	0,003
938,1	0,002
938,5	0,002
939	0,001
939,4	0,001
939,8	0
940,2	-0
940,6	0
941,1	0
941,5	0
941,9	0
942,3	-0
942,8	-0
943,2	-0
943,6	-0
944	-0
944,4	0
944,9	0,001
945,3	0,001
945,7	0,001
946,1	0,001
946,6	0,001
947	0,001
947,4	0,001
947,8	0,001
948,2	-0
948,7	-0
949,1	-0,001
949,5	-0,001
949,9	-0,001
950,3	-0,002
950,8	-0,002
951,2	-0,001
951,6	-0,001
952	-0,001
952,5	-0
952,9	-0
953,3	0
953,7	-0
954,1	0
954,6	0
955	0,001
955,4	0,001
955,8	0,001
956,2	0,001
956,7	0,002
957,1	0,002
957,5	0,002
957,9	0,002
958,3	0,002
958,8	0,002
959,2	0,001
959,6	0,001
960	0,001
960,5	0
960,9	0
961,3	0
961,7	0
962,1	0,001
962,6	0
963	0,001
963,4	0
963,8	-0
964,2	-0
964,7	-0
965,1	-0
965,5	0
965,9	0
966,3	0,001
966,8	0,002
967,2	0,003
967,6	0,002
968	0,002
968,4	0,002
968,9	0,001
969,3	0,001
969,7	0,001
970,1	0,001
970,5	0,001
971	0,001
971,4	0,001
971,8	0,001
972,2	0,001
972,6	0,001
973,1	0,001
973,5	0,001
973,9	0,001
974,3	0,002
974,7	0,002
975,2	0,002
975,6	0,002
976	0,003
976,4	0,002
976,8	0,001
977,3	0,001
977,7	0,001
978,1	0,002
978,5	0,002
978,9	0,002
979,4	0,003
979,8	0,003
980,2	0,004
980,6	0,003
981	0,003
981,5	0,004
981,9	0,004
982,3	0,003
982,7	0,004
983,1	0,004
983,6	0,003
984	0,003
984,4	0,002
984,8	0,002
985,2	0,002
985,6	0,002
986,1	0,001
986,5	0,001
986,9	0,001
987,3	0,001
987,7	0,002
988,2	0,001
988,6	0,001
989	0,001
989,4	0,001
989,8	0,001
990,3	0,001
990,7	0
991,1	0
991,5	0,001
991,9	0,001
992,3	0,001
992,8	0,002
993,2	0,002
993,6	0,001
994	0,001
994,4	0
994,9	0
995,3	0,001
995,7	0
996,1	-0
996,5	-0
996,9	-0
997,4	0,001
997,8	0,001
998,2	0,001
998,6	0,001
999	0,003
999,5	0,002
999,9	0,003
1000,3	0,003
1000,7	0,003
1001,1	0,003
1001,5	0,003
1002	0,002
1002,4	0,002
1002,8	0,001
1003,2	0,001
1003,6	0,001
1004	-0
1004,5	-0
1004,9	0
1005,3	0
1005,7	0
1006,1	0,001
1006,6	0,001
1007	0,001
1007,4	0,002
1007,8	0,002
1008,2	0,002
1008,6	0,002
1009,1	0,001
1009,5	0,001
1009,9	0,001
1010,3	0
1010,7	0,001
1011,1	0,001
1011,6	0,001
1012	0,001
1012,4	0,001
1012,8	0,001
1013,2	0,001
1013,6	0,001
1014,1	0
1014,5	-0
1014,9	0
1015,3	0,001
1015,7	0,001
1016,1	0,001
1016,6	0,001
1017	0,002
1017,4	0,002
1017,8	0,002
1018,2	0,002
1018,6	0,002
1019,1	0,002
1019,5	0,002
1019,9	0,002
1020,3	0,004
1020,7	0,004
1021,1	0,004
1021,6	0,004
1022	0,004
1022,4	0,003
1022,8	0,003
1023,2	0,002
1023,6	0,002
1024,1	0,002
1024,5	0,002
1024,9	0,003
1025,3	0,003
1025,7	0,004
1026,1	0,005
1026,6	0,005
1027	0,006
1027,4	0,005
1027,8	0,005
1028,2	0,005
1028,6	0,004
1029	0,005
1029,5	0,005
1029,9	0,004
1030,3	0,005
1030,7	0,005
1031,1	0,005
1031,5	0,005
1032	0,005
1032,4	0,005
1032,8	0,004
1033,2	0,004
1033,6	0,003
1034	0,003
1034,4	0,002
1034,9	0,002
1035,3	0,001
1035,7	0,002
1036,1	0,002
1036,5	0,001
1036,9	0,001
1037,4	0,001
1037,8	0,001
1038,2	0,002
1038,6	0,001
1039	0,002
1039,4	0,002
1039,8	0,002
1040,3	0,002
1040,7	0,002
1041,1	0,002
1041,5	0,002
1041,9	0,001
1042,3	0
1042,7	-0,001
1043,2	-0
1043,6	-0
1044	-0,001
1044,4	-0
1044,8	0
1045,2	0,001
1045,6	0,002
1046,1	0,002
1046,5	0,002
1046,9	0,003
1047,3	0,002
1047,7	0,002
1048,1	0,001
1048,5	0
1049	0
1049,4	0
1049,8	-0
1050,2	0,001
1050,6	0
1051	-0
1051,4	0
1051,9	0
1052,3	-0
1052,7	-0
1053,1	0
1053,5	0,001
1053,9	0,001
1054,3	0
1054,8	0
1055,2	0,001
1055,6	0,001
1056	0,001
1056,4	0,001
1056,8	0,002
1057,2	0,002
1057,6	0,002
1058,1	0,002
1058,5	0,001
1058,9	-0
1059,3	-0
1059,7	-0,001
1060,1	-0,001
1060,5	-0,001
1061	-0,001
1061,4	-0
1061,8	0,001
1062,2	0
1062,6	-0,001
1063	-0,001
1063,4	-0
1063,8	-0
1064,3	0
1064,7	0
1065,1	0
1065,5	0,001
1065,9	0,001
1066,3	0,002
1066,7	0,002
1067,1	0,002
1067,6	0,001
1068	0,001
1068,4	0,002
1068,8	0,001
1069,2	0,001
1069,6	0,001
1070	0,002
1070,4	0,002
1070,9	0,002
1071,3	0,003
1071,7	0,003
1072,1	0,003
1072,5	0,002
1072,9	0,001
1073,3	0,001
1073,7	0,002
1074,2	0,001
1074,6	0,001
1075	0,001
1075,4	0,001
1075,8	0,002
1076,2	0,002
1076,6	0,001
1077	0,002
1077,5	0
1077,9	0,001
1078,3	-0
1078,7	0
1079,1	0,001
1079,5	0
1079,9	0,001
1080,3	0,001
1080,7	0
1081,2	0,001
1081,6	0,002
1082	0,001
1082,4	0,001
1082,8	-0
1083,2	0
1083,6	0,001
1084	0,001
1084,5	0,002
1084,9	0,002
1085,3	0,003
1085,7	0,005
1086,1	0,007
1086,5	0,006
1086,9	0,007
1087,3	0,007
1087,7	0,009
1088,2	0,008
1088,6	0,006
1089	0,003
1089,4	0,004
1089,8	0,003
1090,2	-0,001
1090,6	-0,001
1091	0
1091,4	0,002
1091,9	0,003
1092,3	0,004
1092,7	0,005
1093,1	0,003
1093,5	0,001
1093,9	0,001
1094,3	0,005
1094,7	0,008
1095,1	0,008
1095,5	0,007
1096	0,01
1096,4	0,012
1096,8	0,01
1097,2	0,005
1097,6	0
1098	-0,002
1098,4	0,001
1098,8	0,006
1099,2	0,008
1099,6	0,009
1100,1	0,008
1100,5	0,007
1100,9	0,008
1101,3	0,01
1101,7	0,011
1102,1	0,008
1102,5	0,004
1102,9	0,013
1103,3	0,021
1103,7	0,013
1104,2	0,01
1104,6	0,003
1105	0,008
1105,4	0,015
1105,8	0,015
1106,2	0,011
1106,6	0,03
1107	0,006
1107,4	0,009
1107,8	-0,005
1108,3	-0
