Data from Absorbance_00074.txt Node
Date: Fri Aug 11 13:36:26 MSK 2023
User: vat
Spectrometer: MAYP114033
Trigger mode: 0
Integration Time (sec): 8,000000E-3
Scans to average: 10
Electric dark correction enabled: true
Nonlinearity correction enabled: false
Boxcar width: 3
XAxis mode: Wavelengths
Number of Pixels in Spectrum: 2068
>>>>>Begin Spectral Data<<<<<
199,4	-0
199,9	-0,083
200,4	0,286
200,8	0,597
201,3	0,796
201,8	0,894
202,2	0,924
202,7	0,952
203,2	1,029
203,6	1,062
204,1	1,093
204,6	1,079
205	1,088
205,5	1,108
206	1,111
206,4	1,109
206,9	1,121
207,4	1,137
207,8	1,164
208,3	1,191
208,8	1,202
209,2	1,222
209,7	1,243
210,2	1,261
210,6	1,277
211,1	1,286
211,5	1,29
212	1,329
212,5	1,363
212,9	1,381
213,4	1,397
213,9	1,394
214,3	1,398
214,8	1,414
215,3	1,413
215,7	1,402
216,2	1,403
216,7	1,428
217,1	1,461
217,6	1,498
218,1	1,5
218,5	1,495
219	1,532
219,5	1,535
219,9	1,541
220,4	1,558
220,9	1,57
221,3	1,581
221,8	1,612
222,3	1,619
222,7	1,654
223,2	1,666
223,6	1,689
224,1	1,698
224,6	1,732
225	1,734
225,5	1,749
226	1,767
226,4	1,781
226,9	1,779
227,4	1,792
227,8	1,796
228,3	1,824
228,8	1,839
229,2	1,834
229,7	1,855
230,2	1,874
230,6	1,897
231,1	1,9
231,5	1,919
232	1,921
232,5	1,939
232,9	1,93
233,4	1,936
233,9	1,939
234,3	1,934
234,8	1,925
235,3	1,945
235,7	1,953
236,2	1,974
236,7	1,984
237,1	1,985
237,6	2,019
238,1	2,028
238,5	2,021
239	2,031
239,4	2,043
239,9	2,05
240,4	2,053
240,8	2,039
241,3	2,045
241,8	2,066
242,2	2,059
242,7	2,047
243,2	2,057
243,6	2,078
244,1	2,092
244,6	2,086
245	2,078
245,5	2,086
245,9	2,093
246,4	2,104
246,9	2,101
247,3	2,098
247,8	2,102
248,3	2,1
248,7	2,102
249,2	2,103
249,7	2,091
250,1	2,084
250,6	2,079
251	2,096
251,5	2,1
252	2,119
252,4	2,126
252,9	2,151
253,4	2,154
253,8	2,156
254,3	2,139
254,8	2,135
255,2	2,128
255,7	2,124
256,1	2,099
256,6	2,103
257,1	2,106
257,5	2,136
258	2,156
258,5	2,138
258,9	2,136
259,4	2,168
259,9	2,179
260,3	2,202
260,8	2,181
261,2	2,172
261,7	2,194
262,2	2,194
262,6	2,174
263,1	2,158
263,6	2,145
264	2,14
264,5	2,138
264,9	2,141
265,4	2,146
265,9	2,143
266,3	2,142
266,8	2,157
267,3	2,159
267,7	2,16
268,2	2,159
268,7	2,169
269,1	2,148
269,6	2,148
270	2,139
270,5	2,144
271	2,14
271,4	2,141
271,9	2,127
272,4	2,119
272,8	2,121
273,3	2,117
273,7	2,108
274,2	2,117
274,7	2,118
275,1	2,119
275,6	2,146
276,1	2,149
276,5	2,146
277	2,154
277,4	2,132
277,9	2,122
278,4	2,129
278,8	2,127
279,3	2,117
279,8	2,103
280,2	2,083
280,7	2,082
281,1	2,061
281,6	2,047
282,1	2,012
282,5	1,993
283	1,995
283,4	1,98
283,9	1,973
284,4	1,961
284,8	1,938
285,3	1,921
285,8	1,887
286,2	1,828
286,7	1,776
287,1	1,71
287,6	1,643
288,1	1,567
288,5	1,493
289	1,417
289,5	1,341
289,9	1,263
290,4	1,19
290,8	1,118
291,3	1,053
291,8	0,991
292,2	0,932
292,7	0,878
293,1	0,83
293,6	0,785
294,1	0,745
294,5	0,709
295	0,676
295,5	0,647
295,9	0,62
296,4	0,596
296,8	0,575
297,3	0,557
297,8	0,54
298,2	0,526
298,7	0,514
299,1	0,504
299,6	0,495
300,1	0,486
300,5	0,478
301	0,472
301,5	0,464
301,9	0,458
302,4	0,451
302,8	0,446
303,3	0,441
303,8	0,437
304,2	0,433
304,7	0,429
305,1	0,425
305,6	0,421
306,1	0,418
306,5	0,414
307	0,41
307,4	0,405
307,9	0,402
308,4	0,399
308,8	0,397
309,3	0,394
309,8	0,391
310,2	0,388
310,7	0,386
311,1	0,383
311,6	0,38
312,1	0,375
312,5	0,372
313	0,369
313,4	0,367
313,9	0,364
314,4	0,361
314,8	0,359
315,3	0,357
315,7	0,354
316,2	0,351
316,7	0,349
317,1	0,345
317,6	0,343
318	0,34
318,5	0,337
319	0,333
319,4	0,331
319,9	0,328
320,3	0,326
320,8	0,323
321,3	0,32
321,7	0,317
322,2	0,315
322,6	0,313
323,1	0,311
323,6	0,309
324	0,306
324,5	0,304
324,9	0,302
325,4	0,299
325,9	0,296
326,3	0,294
326,8	0,29
327,2	0,289
327,7	0,286
328,2	0,284
328,6	0,281
329,1	0,279
329,5	0,277
330	0,274
330,5	0,272
330,9	0,27
331,4	0,267
331,8	0,265
332,3	0,262
332,8	0,26
333,2	0,258
333,7	0,256
334,1	0,253
334,6	0,251
335,1	0,248
335,5	0,246
336	0,243
336,4	0,24
336,9	0,236
337,4	0,234
337,8	0,231
338,3	0,229
338,7	0,227
339,2	0,225
339,7	0,222
340,1	0,22
340,6	0,218
341	0,216
341,5	0,212
342	0,209
342,4	0,206
342,9	0,205
343,3	0,202
343,8	0,2
344,2	0,197
344,7	0,196
345,2	0,195
345,6	0,193
346,1	0,192
346,5	0,19
347	0,187
347,5	0,185
347,9	0,182
348,4	0,18
348,8	0,177
349,3	0,174
349,8	0,173
350,2	0,171
350,7	0,17
351,1	0,169
351,6	0,166
352	0,165
352,5	0,163
353	0,16
353,4	0,158
353,9	0,156
354,3	0,153
354,8	0,152
355,3	0,15
355,7	0,148
356,2	0,147
356,6	0,145
357,1	0,144
357,5	0,142
358	0,141
358,5	0,138
358,9	0,137
359,4	0,135
359,8	0,133
360,3	0,132
360,8	0,13
361,2	0,128
361,7	0,127
362,1	0,125
362,6	0,124
363	0,122
363,5	0,121
364	0,12
364,4	0,119
364,9	0,117
365,3	0,116
365,8	0,115
366,3	0,114
366,7	0,113
367,2	0,111
367,6	0,109
368,1	0,107
368,5	0,106
369	0,105
369,5	0,104
369,9	0,102
370,4	0,101
370,8	0,1
371,3	0,1
371,7	0,099
372,2	0,098
372,7	0,098
373,1	0,097
373,6	0,096
374	0,095
374,5	0,094
374,9	0,094
375,4	0,093
375,9	0,092
376,3	0,092
376,8	0,091
377,2	0,09
377,7	0,089
378,2	0,088
378,6	0,088
379,1	0,087
379,5	0,085
380	0,085
380,4	0,084
380,9	0,083
381,4	0,082
381,8	0,082
382,3	0,081
382,7	0,08
383,2	0,08
383,6	0,079
384,1	0,078
384,6	0,078
385	0,078
385,5	0,077
385,9	0,076
386,4	0,075
386,8	0,075
387,3	0,075
387,7	0,074
388,2	0,072
388,7	0,072
389,1	0,071
389,6	0,071
390	0,07
390,5	0,07
390,9	0,069
391,4	0,068
391,9	0,067
392,3	0,067
392,8	0,067
393,2	0,067
393,7	0,066
394,1	0,066
394,6	0,065
395,1	0,065
395,5	0,064
396	0,064
396,4	0,063
396,9	0,063
397,3	0,062
397,8	0,062
398,2	0,062
398,7	0,062
399,2	0,062
399,6	0,061
400,1	0,061
400,5	0,061
401	0,06
401,4	0,059
401,9	0,059
402,4	0,058
402,8	0,059
403,3	0,058
403,7	0,058
404,2	0,058
404,6	0,058
405,1	0,058
405,5	0,058
406	0,057
406,5	0,056
406,9	0,056
407,4	0,055
407,8	0,055
408,3	0,054
408,7	0,054
409,2	0,054
409,6	0,054
410,1	0,054
410,6	0,055
411	0,055
411,5	0,055
411,9	0,055
412,4	0,054
412,8	0,054
413,3	0,053
413,7	0,053
414,2	0,053
414,7	0,053
415,1	0,053
415,6	0,053
416	0,052
416,5	0,052
416,9	0,051
417,4	0,051
417,8	0,051
418,3	0,051
418,8	0,051
419,2	0,051
419,7	0,051
420,1	0,051
420,6	0,05
421	0,051
421,5	0,051
421,9	0,05
422,4	0,05
422,8	0,05
423,3	0,049
423,8	0,049
424,2	0,048
424,7	0,048
425,1	0,048
425,6	0,047
426	0,047
426,5	0,047
426,9	0,047
427,4	0,046
427,9	0,047
428,3	0,048
428,8	0,047
429,2	0,047
429,7	0,047
430,1	0,046
430,6	0,046
431	0,045
431,5	0,045
431,9	0,045
432,4	0,046
432,8	0,045
433,3	0,045
433,8	0,046
434,2	0,046
434,7	0,045
435,1	0,045
435,6	0,044
436	0,044
436,5	0,044
436,9	0,044
437,4	0,044
437,8	0,045
438,3	0,045
438,8	0,045
439,2	0,045
439,7	0,044
440,1	0,043
440,6	0,042
441	0,041
441,5	0,042
441,9	0,041
442,4	0,041
442,8	0,041
443,3	0,041
443,7	0,042
444,2	0,042
444,7	0,041
445,1	0,042
445,6	0,041
446	0,042
446,5	0,042
446,9	0,041
447,4	0,041
447,8	0,041
448,3	0,041
448,7	0,042
449,2	0,041
449,6	0,041
450,1	0,041
450,6	0,04
451	0,04
451,5	0,039
451,9	0,039
452,4	0,039
452,8	0,038
453,3	0,038
453,7	0,038
454,2	0,038
454,6	0,038
455,1	0,038
455,5	0,039
456	0,039
456,4	0,039
456,9	0,039
457,3	0,039
457,8	0,039
458,3	0,038
458,7	0,038
459,2	0,037
459,6	0,037
460,1	0,037
460,5	0,037
461	0,037
461,4	0,038
461,9	0,038
462,3	0,038
462,8	0,038
463,2	0,037
463,7	0,037
464,1	0,037
464,6	0,037
465	0,037
465,5	0,037
466	0,037
466,4	0,037
466,9	0,036
467,3	0,037
467,8	0,037
468,2	0,036
468,7	0,036
469,1	0,036
469,6	0,036
470	0,036
470,5	0,036
470,9	0,036
471,4	0,036
471,8	0,036
472,3	0,036
472,7	0,036
473,2	0,036
473,6	0,036
474,1	0,036
474,5	0,035
475	0,036
475,4	0,036
475,9	0,035
476,4	0,035
476,8	0,035
477,3	0,035
477,7	0,035
478,2	0,034
478,6	0,034
479,1	0,035
479,5	0,035
480	0,035
480,4	0,036
480,9	0,036
481,3	0,036
481,8	0,036
482,2	0,035
482,7	0,035
483,1	0,035
483,6	0,034
484	0,034
484,5	0,033
484,9	0,033
485,4	0,034
485,8	0,035
486,3	0,035
486,7	0,034
487,2	0,034
487,6	0,034
488,1	0,034
488,5	0,034
489	0,033
489,4	0,032
489,9	0,034
490,4	0,034
490,8	0,034
491,3	0,034
491,7	0,033
492,2	0,034
492,6	0,033
493,1	0,033
493,5	0,034
494	0,034
494,4	0,034
494,9	0,034
495,3	0,034
495,8	0,034
496,2	0,035
496,7	0,034
497,1	0,034
497,6	0,034
498	0,034
498,5	0,033
498,9	0,033
499,4	0,032
499,8	0,032
500,3	0,032
500,7	0,032
501,2	0,032
501,6	0,031
502,1	0,032
502,5	0,032
503	0,032
503,4	0,033
503,9	0,032
504,3	0,033
504,8	0,033
505,2	0,033
505,7	0,032
506,1	0,033
506,6	0,032
507	0,033
507,5	0,033
507,9	0,033
508,4	0,033
508,8	0,032
509,3	0,032
509,7	0,032
510,2	0,031
510,6	0,032
511,1	0,032
511,5	0,032
512	0,032
512,4	0,032
512,9	0,032
513,3	0,032
513,8	0,032
514,2	0,032
514,7	0,032
515,1	0,032
515,6	0,032
516	0,032
516,5	0,033
516,9	0,032
517,4	0,031
517,8	0,031
518,3	0,031
518,7	0,03
519,2	0,03
519,6	0,03
520,1	0,03
520,5	0,03
521	0,031
521,4	0,031
521,9	0,032
522,3	0,032
522,8	0,032
523,2	0,032
523,7	0,032
524,1	0,031
524,6	0,031
525	0,03
525,5	0,03
525,9	0,03
526,4	0,03
526,8	0,03
527,3	0,031
527,7	0,032
528,2	0,031
528,6	0,031
529,1	0,031
529,5	0,031
530	0,031
530,4	0,031
530,9	0,031
531,3	0,031
531,8	0,03
532,2	0,03
532,6	0,03
533,1	0,03
533,5	0,03
534	0,03
534,4	0,03
534,9	0,03
535,3	0,03
535,8	0,03
536,2	0,029
536,7	0,029
537,1	0,029
537,6	0,029
538	0,029
538,5	0,029
538,9	0,029
539,4	0,03
539,8	0,03
540,3	0,031
540,7	0,031
541,2	0,031
541,6	0,031
542,1	0,031
542,5	0,03
543	0,03
543,4	0,029
543,9	0,028
544,3	0,027
544,8	0,027
545,2	0,027
545,7	0,028
546,1	0,028
546,5	0,028
547	0,028
547,4	0,028
547,9	0,028
548,3	0,028
548,8	0,028
549,2	0,028
549,7	0,028
550,1	0,028
550,6	0,028
551	0,028
551,5	0,029
551,9	0,029
552,4	0,029
552,8	0,029
553,3	0,029
553,7	0,029
554,2	0,028
554,6	0,028
555,1	0,028
555,5	0,029
555,9	0,028
556,4	0,028
556,8	0,029
557,3	0,028
557,7	0,029
558,2	0,029
558,6	0,028
559,1	0,028
559,5	0,028
560	0,028
560,4	0,028
560,9	0,027
561,3	0,027
561,8	0,028
562,2	0,028
562,7	0,029
563,1	0,029
563,6	0,029
564	0,029
564,4	0,029
564,9	0,028
565,3	0,028
565,8	0,028
566,2	0,028
566,7	0,028
567,1	0,027
567,6	0,027
568	0,028
568,5	0,027
568,9	0,027
569,4	0,027
569,8	0,027
570,3	0,027
570,7	0,027
571,1	0,026
571,6	0,027
572	0,027
572,5	0,026
572,9	0,027
573,4	0,027
573,8	0,026
574,3	0,026
574,7	0,026
575,2	0,026
575,6	0,026
576,1	0,026
576,5	0,026
576,9	0,026
577,4	0,026
577,8	0,026
578,3	0,026
578,7	0,027
579,2	0,026
579,6	0,027
580,1	0,026
580,5	0,026
581	0,026
581,4	0,026
581,9	0,026
582,3	0,026
582,7	0,026
583,2	0,026
583,6	0,026
584,1	0,026
584,5	0,026
585	0,026
585,4	0,026
585,9	0,026
586,3	0,026
586,8	0,026
587,2	0,026
587,6	0,026
588,1	0,025
588,5	0,025
589	0,025
589,4	0,025
589,9	0,025
590,3	0,025
590,8	0,025
591,2	0,025
591,7	0,025
592,1	0,025
592,5	0,025
593	0,025
593,4	0,024
593,9	0,025
594,3	0,025
594,8	0,025
595,2	0,025
595,7	0,025
596,1	0,025
596,6	0,025
597	0,025
597,4	0,025
597,9	0,024
598,3	0,024
598,8	0,024
599,2	0,024
599,7	0,023
600,1	0,023
600,6	0,023
601	0,023
601,4	0,023
601,9	0,022
602,3	0,022
602,8	0,022
603,2	0,023
603,7	0,022
604,1	0,023
604,6	0,022
605	0,023
605,4	0,023
605,9	0,023
606,3	0,023
606,8	0,023
607,2	0,023
607,7	0,023
608,1	0,023
608,6	0,023
609	0,023
609,4	0,024
609,9	0,023
610,3	0,023
610,8	0,023
611,2	0,023
611,7	0,023
612,1	0,022
612,6	0,022
613	0,022
613,4	0,022
613,9	0,022
614,3	0,022
614,8	0,022
615,2	0,022
615,7	0,023
616,1	0,023
616,6	0,023
617	0,023
617,4	0,022
617,9	0,022
618,3	0,022
618,8	0,022
619,2	0,022
619,7	0,022
620,1	0,022
620,5	0,022
621	0,022
621,4	0,022
621,9	0,022
622,3	0,023
622,8	0,023
623,2	0,023
623,6	0,023
624,1	0,023
624,5	0,023
625	0,023
625,4	0,022
625,9	0,022
626,3	0,022
626,8	0,022
627,2	0,022
627,6	0,022
628,1	0,022
628,5	0,022
629	0,022
629,4	0,022
629,9	0,022
630,3	0,022
630,7	0,022
631,2	0,022
631,6	0,022
632,1	0,021
632,5	0,021
633	0,021
633,4	0,021
633,8	0,021
634,3	0,021
634,7	0,021
635,2	0,021
635,6	0,021
636,1	0,022
636,5	0,022
636,9	0,022
637,4	0,022
637,8	0,022
638,3	0,022
638,7	0,022
639,2	0,022
639,6	0,021
640	0,021
640,5	0,021
640,9	0,021
641,4	0,021
641,8	0,021
642,2	0,021
642,7	0,02
643,1	0,021
643,6	0,021
644	0,021
644,5	0,021
644,9	0,021
645,3	0,021
645,8	0,022
646,2	0,022
646,7	0,022
647,1	0,022
647,6	0,022
648	0,022
648,4	0,022
648,9	0,022
649,3	0,022
649,8	0,021
650,2	0,021
650,6	0,021
651,1	0,02
651,5	0,02
652	0,02
652,4	0,02
652,9	0,02
653,3	0,02
653,7	0,02
654,2	0,021
654,6	0,02
655,1	0,02
655,5	0,012
655,9	0,008
656,4	0,005
656,8	0,007
657,3	0,008
657,7	0,008
658,2	0,008
658,6	0,011
659	0,015
659,5	0,024
659,9	0,026
660,4	0,024
660,8	0,023
661,2	0,022
661,7	0,021
662,1	0,02
662,6	0,02
663	0,019
663,4	0,019
663,9	0,019
664,3	0,019
664,8	0,018
665,2	0,019
665,6	0,019
666,1	0,019
666,5	0,019
667	0,019
667,4	0,02
667,9	0,02
668,3	0,02
668,7	0,019
669,2	0,019
669,6	0,019
670,1	0,019
670,5	0,019
670,9	0,018
671,4	0,018
671,8	0,018
672,3	0,018
672,7	0,018
673,1	0,018
673,6	0,018
674	0,018
674,5	0,018
674,9	0,017
675,3	0,018
675,8	0,017
676,2	0,018
676,7	0,018
677,1	0,017
677,5	0,018
678	0,018
678,4	0,018
678,9	0,018
679,3	0,018
679,7	0,018
680,2	0,018
680,6	0,018
681,1	0,018
681,5	0,018
681,9	0,019
682,4	0,019
682,8	0,019
683,3	0,019
683,7	0,019
684,1	0,019
684,6	0,019
685	0,018
685,5	0,018
685,9	0,018
686,3	0,018
686,8	0,018
687,2	0,018
687,7	0,018
688,1	0,018
688,5	0,019
689	0,019
689,4	0,019
689,9	0,018
690,3	0,018
690,7	0,018
691,2	0,018
691,6	0,018
692	0,018
692,5	0,018
692,9	0,019
693,4	0,019
693,8	0,019
694,2	0,018
694,7	0,018
695,1	0,018
695,6	0,018
696	0,018
696,4	0,018
696,9	0,018
697,3	0,018
697,8	0,018
698,2	0,017
698,6	0,017
699,1	0,017
699,5	0,017
699,9	0,017
700,4	0,017
700,8	0,017
701,3	0,017
701,7	0,018
702,1	0,018
702,6	0,018
703	0,019
703,5	0,019
703,9	0,018
704,3	0,018
704,8	0,018
705,2	0,018
705,6	0,017
706,1	0,017
706,5	0,018
707	0,018
707,4	0,017
707,8	0,017
708,3	0,018
708,7	0,017
709,2	0,018
709,6	0,018
710	0,018
710,5	0,018
710,9	0,017
711,3	0,017
711,8	0,017
712,2	0,017
712,7	0,016
713,1	0,016
713,5	0,016
714	0,016
714,4	0,016
714,8	0,017
715,3	0,017
715,7	0,017
716,2	0,017
716,6	0,017
717	0,017
717,5	0,016
717,9	0,016
718,3	0,016
718,8	0,016
719,2	0,016
719,7	0,016
720,1	0,016
720,5	0,017
721	0,017
721,4	0,017
721,8	0,017
722,3	0,017
722,7	0,017
723,2	0,017
723,6	0,017
724	0,016
724,5	0,016
724,9	0,016
725,3	0,016
725,8	0,016
726,2	0,016
726,7	0,016
727,1	0,016
727,5	0,016
728	0,016
728,4	0,016
728,8	0,016
729,3	0,015
729,7	0,015
730,1	0,015
730,6	0,015
731	0,015
731,5	0,016
731,9	0,016
732,3	0,016
732,8	0,016
733,2	0,016
733,6	0,016
734,1	0,016
734,5	0,016
734,9	0,016
735,4	0,016
735,8	0,016
736,3	0,016
736,7	0,016
737,1	0,016
737,6	0,016
738	0,016
738,4	0,016
738,9	0,016
739,3	0,015
739,7	0,015
740,2	0,015
740,6	0,015
741,1	0,015
741,5	0,015
741,9	0,015
742,4	0,015
742,8	0,015
743,2	0,016
743,7	0,016
744,1	0,016
744,5	0,016
745	0,016
745,4	0,016
745,8	0,016
746,3	0,016
746,7	0,016
747,2	0,015
747,6	0,015
748	0,016
748,5	0,016
748,9	0,016
749,3	0,016
749,8	0,016
750,2	0,016
750,6	0,016
751,1	0,016
751,5	0,016
751,9	0,016
752,4	0,016
752,8	0,016
753,3	0,016
753,7	0,016
754,1	0,016
754,6	0,016
755	0,016
755,4	0,017
755,9	0,017
756,3	0,017
756,7	0,016
757,2	0,017
757,6	0,016
758	0,016
758,5	0,016
758,9	0,016
759,3	0,016
759,8	0,016
760,2	0,016
760,6	0,016
761,1	0,016
761,5	0,016
761,9	0,016
762,4	0,016
762,8	0,016
763,3	0,016
763,7	0,016
764,1	0,017
764,6	0,016
765	0,016
765,4	0,016
765,9	0,016
766,3	0,016
766,7	0,017
767,2	0,017
767,6	0,017
768	0,017
768,5	0,018
768,9	0,018
769,3	0,017
769,8	0,017
770,2	0,017
770,6	0,017
771,1	0,016
771,5	0,016
771,9	0,016
772,4	0,016
772,8	0,016
773,2	0,016
773,7	0,016
774,1	0,016
774,5	0,017
775	0,017
775,4	0,016
775,8	0,016
776,3	0,016
776,7	0,016
777,1	0,016
777,6	0,015
778	0,016
778,4	0,015
778,9	0,015
779,3	0,015
779,7	0,015
780,2	0,015
780,6	0,015
781	0,015
781,5	0,015
781,9	0,015
782,3	0,015
782,8	0,015
783,2	0,016
783,6	0,016
784,1	0,015
784,5	0,015
784,9	0,015
785,4	0,015
785,8	0,014
786,2	0,014
786,7	0,013
787,1	0,013
787,5	0,013
788	0,013
788,4	0,013
788,8	0,013
789,3	0,013
789,7	0,013
790,1	0,013
790,6	0,013
791	0,013
791,4	0,013
791,9	0,013
792,3	0,013
792,7	0,013
793,2	0,013
793,6	0,013
794	0,014
794,5	0,014
794,9	0,014
795,3	0,014
795,8	0,015
796,2	0,015
796,6	0,015
797,1	0,015
797,5	0,015
797,9	0,016
798,4	0,015
798,8	0,015
799,2	0,015
799,7	0,015
800,1	0,015
800,5	0,014
801	0,014
801,4	0,013
801,8	0,013
802,2	0,014
802,7	0,014
803,1	0,014
803,5	0,014
804	0,014
804,4	0,015
804,8	0,014
805,3	0,014
805,7	0,013
806,1	0,013
806,6	0,013
807	0,013
807,4	0,013
807,9	0,013
808,3	0,013
808,7	0,014
809,2	0,014
809,6	0,014
810	0,014
810,4	0,014
810,9	0,014
811,3	0,013
811,7	0,013
812,2	0,014
812,6	0,014
813	0,013
813,5	0,013
813,9	0,013
814,3	0,013
814,8	0,013
815,2	0,012
815,6	0,012
816,1	0,012
816,5	0,012
816,9	0,012
817,3	0,012
817,8	0,012
818,2	0,012
818,6	0,012
819,1	0,013
819,5	0,013
819,9	0,013
820,4	0,013
820,8	0,013
821,2	0,013
821,7	0,013
822,1	0,012
822,5	0,012
822,9	0,012
823,4	0,012
823,8	0,012
824,2	0,012
824,7	0,012
825,1	0,012
825,5	0,012
826	0,013
826,4	0,013
826,8	0,013
827,3	0,013
827,7	0,013
828,1	0,013
828,5	0,014
829	0,013
829,4	0,013
829,8	0,013
830,3	0,013
830,7	0,013
831,1	0,013
831,6	0,012
832	0,012
832,4	0,012
832,8	0,012
833,3	0,013
833,7	0,013
834,1	0,012
834,6	0,012
835	0,012
835,4	0,013
835,8	0,012
836,3	0,012
836,7	0,012
837,1	0,012
837,6	0,012
838	0,012
838,4	0,012
838,9	0,012
839,3	0,012
839,7	0,013
840,1	0,013
840,6	0,014
841	0,014
841,4	0,014
841,9	0,014
842,3	0,013
842,7	0,013
843,1	0,013
843,6	0,012
844	0,013
844,4	0,013
844,9	0,013
845,3	0,013
845,7	0,013
846,2	0,013
846,6	0,013
847	0,013
847,4	0,013
847,9	0,014
848,3	0,013
848,7	0,014
849,2	0,014
849,6	0,014
850	0,014
850,4	0,014
850,9	0,013
851,3	0,013
851,7	0,013
852,2	0,013
852,6	0,013
853	0,013
853,4	0,013
853,9	0,014
854,3	0,014
854,7	0,014
855,2	0,014
855,6	0,014
856	0,014
856,4	0,014
856,9	0,014
857,3	0,014
857,7	0,013
858,2	0,013
858,6	0,012
859	0,012
859,4	0,012
859,9	0,012
860,3	0,011
860,7	0,011
861,1	0,012
861,6	0,012
862	0,012
862,4	0,012
862,9	0,012
863,3	0,012
863,7	0,012
864,1	0,012
864,6	0,012
865	0,012
865,4	0,012
865,9	0,012
866,3	0,012
866,7	0,013
867,1	0,013
867,6	0,013
868	0,013
868,4	0,013
868,8	0,013
869,3	0,013
869,7	0,013
870,1	0,013
870,6	0,013
871	0,013
871,4	0,013
871,8	0,012
872,3	0,012
872,7	0,012
873,1	0,012
873,5	0,011
874	0,011
874,4	0,011
874,8	0,011
875,3	0,011
875,7	0,011
876,1	0,011
876,5	0,011
877	0,011
877,4	0,011
877,8	0,011
878,2	0,011
878,7	0,011
879,1	0,01
879,5	0,01
879,9	0,011
880,4	0,011
880,8	0,011
881,2	0,012
881,7	0,012
882,1	0,012
882,5	0,012
882,9	0,012
883,4	0,012
883,8	0,012
884,2	0,011
884,6	0,011
885,1	0,01
885,5	0,01
885,9	0,011
886,3	0,011
886,8	0,011
887,2	0,011
887,6	0,012
888	0,012
888,5	0,012
888,9	0,012
889,3	0,012
889,8	0,012
890,2	0,013
890,6	0,012
891	0,012
891,5	0,012
891,9	0,012
892,3	0,012
892,7	0,012
893,2	0,012
893,6	0,012
894	0,012
894,4	0,012
894,9	0,012
895,3	0,012
895,7	0,012
896,1	0,012
896,6	0,012
897	0,012
897,4	0,011
897,8	0,011
898,3	0,011
898,7	0,011
899,1	0,011
899,5	0,011
900	0,01
900,4	0,01
900,8	0,011
901,2	0,01
901,7	0,01
902,1	0,011
902,5	0,01
902,9	0,01
903,4	0,01
903,8	0,01
904,2	0,011
904,6	0,011
905,1	0,011
905,5	0,011
905,9	0,011
906,3	0,011
906,8	0,01
907,2	0,01
907,6	0,01
908	0,01
908,5	0,009
908,9	0,009
909,3	0,008
909,7	0,008
910,2	0,008
910,6	0,008
911	0,009
911,4	0,009
911,9	0,009
912,3	0,009
912,7	0,009
913,1	0,01
913,6	0,01
914	0,01
914,4	0,01
914,8	0,009
915,3	0,009
915,7	0,009
916,1	0,009
916,5	0,009
916,9	0,009
917,4	0,009
917,8	0,01
918,2	0,01
918,6	0,011
919,1	0,011
919,5	0,012
919,9	0,013
920,3	0,013
920,8	0,013
921,2	0,013
921,6	0,012
922	0,012
922,5	0,011
922,9	0,011
923,3	0,011
923,7	0,011
924,2	0,011
924,6	0,011
925	0,011
925,4	0,011
925,8	0,011
926,3	0,011
926,7	0,011
927,1	0,011
927,5	0,012
928	0,012
928,4	0,011
928,8	0,01
929,2	0,011
929,7	0,01
930,1	0,01
930,5	0,01
930,9	0,01
931,3	0,01
931,8	0,011
932,2	0,01
932,6	0,01
933	0,01
933,5	0,01
933,9	0,01
934,3	0,01
934,7	0,01
935,2	0,011
935,6	0,011
936	0,011
936,4	0,011
936,8	0,012
937,3	0,011
937,7	0,011
938,1	0,01
938,5	0,01
939	0,01
939,4	0,009
939,8	0,009
940,2	0,009
940,6	0,009
941,1	0,009
941,5	0,009
941,9	0,009
942,3	0,009
942,8	0,009
943,2	0,01
943,6	0,009
944	0,009
944,4	0,009
944,9	0,01
945,3	0,01
945,7	0,01
946,1	0,009
946,6	0,01
947	0,009
947,4	0,009
947,8	0,009
948,2	0,008
948,7	0,008
949,1	0,008
949,5	0,008
949,9	0,008
950,3	0,008
950,8	0,008
951,2	0,008
951,6	0,008
952	0,008
952,5	0,008
952,9	0,008
953,3	0,008
953,7	0,008
954,1	0,009
954,6	0,009
955	0,009
955,4	0,009
955,8	0,01
956,2	0,009
956,7	0,01
957,1	0,01
957,5	0,01
957,9	0,01
958,3	0,01
958,8	0,009
959,2	0,009
959,6	0,009
960	0,009
960,5	0,009
960,9	0,009
961,3	0,009
961,7	0,01
962,1	0,01
962,6	0,009
963	0,01
963,4	0,009
963,8	0,008
964,2	0,008
964,7	0,008
965,1	0,008
965,5	0,009
965,9	0,009
966,3	0,01
966,8	0,011
967,2	0,011
967,6	0,011
968	0,012
968,4	0,011
968,9	0,011
969,3	0,01
969,7	0,01
970,1	0,01
970,5	0,01
971	0,01
971,4	0,009
971,8	0,009
972,2	0,008
972,6	0,008
973,1	0,008
973,5	0,008
973,9	0,009
974,3	0,008
974,7	0,009
975,2	0,01
975,6	0,01
976	0,01
976,4	0,01
976,8	0,009
977,3	0,01
977,7	0,01
978,1	0,01
978,5	0,01
978,9	0,011
979,4	0,011
979,8	0,011
980,2	0,011
980,6	0,011
981	0,011
981,5	0,011
981,9	0,011
982,3	0,01
982,7	0,01
983,1	0,01
983,6	0,009
984	0,008
984,4	0,008
984,8	0,008
985,2	0,008
985,6	0,007
986,1	0,007
986,5	0,008
986,9	0,008
987,3	0,008
987,7	0,009
988,2	0,009
988,6	0,009
989	0,009
989,4	0,009
989,8	0,009
990,3	0,008
990,7	0,008
991,1	0,008
991,5	0,008
991,9	0,008
992,3	0,009
992,8	0,009
993,2	0,009
993,6	0,009
994	0,009
994,4	0,009
994,9	0,009
995,3	0,009
995,7	0,008
996,1	0,008
996,5	0,009
996,9	0,009
997,4	0,009
997,8	0,009
998,2	0,01
998,6	0,01
999	0,011
999,5	0,011
999,9	0,011
1000,3	0,011
1000,7	0,012
1001,1	0,011
1001,5	0,011
1002	0,01
1002,4	0,009
1002,8	0,009
1003,2	0,008
1003,6	0,008
1004	0,008
1004,5	0,008
1004,9	0,009
1005,3	0,009
1005,7	0,009
1006,1	0,009
1006,6	0,009
1007	0,009
1007,4	0,009
1007,8	0,008
1008,2	0,008
1008,6	0,008
1009,1	0,009
1009,5	0,008
1009,9	0,007
1010,3	0,007
1010,7	0,008
1011,1	0,008
1011,6	0,008
1012	0,008
1012,4	0,008
1012,8	0,008
1013,2	0,008
1013,6	0,008
1014,1	0,008
1014,5	0,007
1014,9	0,007
1015,3	0,008
1015,7	0,008
1016,1	0,008
1016,6	0,008
1017	0,008
1017,4	0,008
1017,8	0,008
1018,2	0,008
1018,6	0,009
1019,1	0,008
1019,5	0,009
1019,9	0,009
1020,3	0,009
1020,7	0,01
1021,1	0,009
1021,6	0,009
1022	0,009
1022,4	0,009
1022,8	0,009
1023,2	0,008
1023,6	0,008
1024,1	0,008
1024,5	0,008
1024,9	0,009
1025,3	0,01
1025,7	0,011
1026,1	0,011
1026,6	0,011
1027	0,012
1027,4	0,011
1027,8	0,01
1028,2	0,01
1028,6	0,01
1029	0,01
1029,5	0,011
1029,9	0,011
1030,3	0,011
1030,7	0,012
1031,1	0,012
1031,5	0,012
1032	0,012
1032,4	0,011
1032,8	0,011
1033,2	0,011
1033,6	0,011
1034	0,01
1034,4	0,01
1034,9	0,01
1035,3	0,009
1035,7	0,01
1036,1	0,01
1036,5	0,009
1036,9	0,009
1037,4	0,009
1037,8	0,009
1038,2	0,009
1038,6	0,009
1039	0,009
1039,4	0,009
1039,8	0,009
1040,3	0,009
1040,7	0,008
1041,1	0,009
1041,5	0,008
1041,9	0,007
1042,3	0,007
1042,7	0,007
1043,2	0,007
1043,6	0,007
1044	0,006
1044,4	0,007
1044,8	0,007
1045,2	0,007
1045,6	0,008
1046,1	0,008
1046,5	0,008
1046,9	0,009
1047,3	0,008
1047,7	0,009
1048,1	0,008
1048,5	0,008
1049	0,008
1049,4	0,008
1049,8	0,008
1050,2	0,009
1050,6	0,008
1051	0,007
1051,4	0,006
1051,9	0,006
1052,3	0,006
1052,7	0,005
1053,1	0,006
1053,5	0,006
1053,9	0,007
1054,3	0,007
1054,8	0,008
1055,2	0,008
1055,6	0,008
1056	0,007
1056,4	0,007
1056,8	0,007
1057,2	0,007
1057,6	0,007
1058,1	0,007
1058,5	0,006
1058,9	0,006
1059,3	0,007
1059,7	0,006
1060,1	0,007
1060,5	0,007
1061	0,006
1061,4	0,006
1061,8	0,006
1062,2	0,006
1062,6	0,006
1063	0,005
1063,4	0,005
1063,8	0,006
1064,3	0,007
1064,7	0,007
1065,1	0,007
1065,5	0,006
1065,9	0,006
1066,3	0,006
1066,7	0,006
1067,1	0,005
1067,6	0,005
1068	0,005
1068,4	0,007
1068,8	0,007
1069,2	0,007
1069,6	0,007
1070	0,007
1070,4	0,007
1070,9	0,007
1071,3	0,007
1071,7	0,006
1072,1	0,006
1072,5	0,006
1072,9	0,005
1073,3	0,006
1073,7	0,006
1074,2	0,006
1074,6	0,006
1075	0,007
1075,4	0,007
1075,8	0,007
1076,2	0,007
1076,6	0,007
1077	0,005
1077,5	0,005
1077,9	0,004
1078,3	0,004
1078,7	0,005
1079,1	0,006
1079,5	0,004
1079,9	0,006
1080,3	0,006
1080,7	0,006
1081,2	0,008
1081,6	0,008
1082	0,007
1082,4	0,006
1082,8	0,004
1083,2	0,003
1083,6	0,003
1084	0,002
1084,5	0,001
1084,9	0,003
1085,3	0,005
1085,7	0,009
1086,1	0,01
1086,5	0,01
1086,9	0,01
1087,3	0,012
1087,7	0,013
1088,2	0,01
1088,6	0,007
1089	0,008
1089,4	0,008
1089,8	0,008
1090,2	0,004
1090,6	0,001
1091	0,004
1091,4	0,006
1091,9	0,007
1092,3	0,004
1092,7	0,006
1093,1	0,007
1093,5	0,006
1093,9	0,004
1094,3	0,003
1094,7	0,003
1095,1	0,008
1095,5	0,006
1096	0,009
1096,4	0,01
1096,8	0,009
1097,2	0,011
1097,6	0,009
1098	0,003
1098,4	0,005
1098,8	0,005
1099,2	0,007
1099,6	0,012
1100,1	0,007
1100,5	0,01
1100,9	0,01
1101,3	0,009
1101,7	0,015
1102,1	0,013
1102,5	0,009
1102,9	0,02
1103,3	0,012
1103,7	0,013
1104,2	0,007
1104,6	0
1105	-0,005
1105,4	-0,001
1105,8	-0,006
1106,2	0,003
1106,6	0,007
1107	0,004
1107,4	-0,002
1107,8	0,031
1108,3	-0
