Data from Absorbance_00042.txt Node
Date: Fri Aug 11 13:07:35 MSK 2023
User: vat
Spectrometer: MAYP114033
Trigger mode: 0
Integration Time (sec): 8,000000E-3
Scans to average: 10
Electric dark correction enabled: true
Nonlinearity correction enabled: false
Boxcar width: 3
XAxis mode: Wavelengths
Number of Pixels in Spectrum: 2068
>>>>>Begin Spectral Data<<<<<
199,4	-0,104
199,9	0,261
200,4	0,497
200,8	0,784
201,3	0,894
201,8	0,971
202,2	0,984
202,7	1,022
203,2	1,074
203,6	1,096
204,1	1,109
204,6	1,129
205	1,142
205,5	1,168
206	1,171
206,4	1,178
206,9	1,208
207,4	1,232
207,8	1,242
208,3	1,252
208,8	1,257
209,2	1,276
209,7	1,304
210,2	1,297
210,6	1,317
211,1	1,326
211,5	1,339
212	1,361
212,5	1,375
212,9	1,382
213,4	1,387
213,9	1,387
214,3	1,392
214,8	1,407
215,3	1,425
215,7	1,438
216,2	1,44
216,7	1,488
217,1	1,516
217,6	1,549
218,1	1,55
218,5	1,544
219	1,557
219,5	1,574
219,9	1,584
220,4	1,593
220,9	1,622
221,3	1,647
221,8	1,683
222,3	1,692
222,7	1,708
223,2	1,721
223,6	1,737
224,1	1,746
224,6	1,772
225	1,792
225,5	1,81
226	1,833
226,4	1,838
226,9	1,841
227,4	1,839
227,8	1,837
228,3	1,853
228,8	1,873
229,2	1,898
229,7	1,915
230,2	1,926
230,6	1,962
231,1	1,966
231,5	1,955
232	1,974
232,5	1,963
232,9	1,959
233,4	1,988
233,9	1,973
234,3	1,984
234,8	2,007
235,3	2,005
235,7	2,013
236,2	2,033
236,7	2,033
237,1	2,046
237,6	2,059
238,1	2,044
238,5	2,046
239	2,065
239,4	2,066
239,9	2,068
240,4	2,069
240,8	2,067
241,3	2,091
241,8	2,118
242,2	2,107
242,7	2,119
243,2	2,112
243,6	2,112
244,1	2,115
244,6	2,107
245	2,101
245,5	2,118
245,9	2,116
246,4	2,145
246,9	2,161
247,3	2,176
247,8	2,175
248,3	2,172
248,7	2,181
249,2	2,174
249,7	2,178
250,1	2,165
250,6	2,17
251	2,169
251,5	2,154
252	2,154
252,4	2,194
252,9	2,178
253,4	2,195
253,8	2,198
254,3	2,199
254,8	2,212
255,2	2,21
255,7	2,174
256,1	2,169
256,6	2,189
257,1	2,206
257,5	2,222
258	2,259
258,5	2,257
258,9	2,256
259,4	2,276
259,9	2,258
260,3	2,251
260,8	2,24
261,2	2,225
261,7	2,244
262,2	2,262
262,6	2,262
263,1	2,238
263,6	2,221
264	2,226
264,5	2,203
264,9	2,173
265,4	2,161
265,9	2,17
266,3	2,17
266,8	2,169
267,3	2,167
267,7	2,184
268,2	2,193
268,7	2,218
269,1	2,193
269,6	2,205
270	2,204
270,5	2,212
271	2,213
271,4	2,228
271,9	2,198
272,4	2,194
272,8	2,183
273,3	2,179
273,7	2,162
274,2	2,157
274,7	2,149
275,1	2,15
275,6	2,166
276,1	2,171
276,5	2,171
277	2,18
277,4	2,156
277,9	2,14
278,4	2,15
278,8	2,139
279,3	2,114
279,8	2,103
280,2	2,083
280,7	2,077
281,1	2,063
281,6	2,035
282,1	2,014
282,5	1,997
283	1,968
283,4	1,934
283,9	1,887
284,4	1,831
284,8	1,768
285,3	1,687
285,8	1,602
286,2	1,511
286,7	1,428
287,1	1,349
287,6	1,276
288,1	1,208
288,5	1,146
289	1,092
289,5	1,044
289,9	1,002
290,4	0,966
290,8	0,932
291,3	0,901
291,8	0,878
292,2	0,856
292,7	0,839
293,1	0,822
293,6	0,806
294,1	0,795
294,5	0,786
295	0,777
295,5	0,767
295,9	0,759
296,4	0,753
296,8	0,747
297,3	0,741
297,8	0,735
298,2	0,73
298,7	0,727
299,1	0,724
299,6	0,719
300,1	0,716
300,5	0,712
301	0,708
301,5	0,704
301,9	0,7
302,4	0,695
302,8	0,692
303,3	0,688
303,8	0,682
304,2	0,678
304,7	0,675
305,1	0,67
305,6	0,666
306,1	0,661
306,5	0,657
307	0,652
307,4	0,648
307,9	0,644
308,4	0,639
308,8	0,634
309,3	0,629
309,8	0,625
310,2	0,62
310,7	0,614
311,1	0,609
311,6	0,604
312,1	0,599
312,5	0,594
313	0,589
313,4	0,584
313,9	0,58
314,4	0,575
314,8	0,57
315,3	0,565
315,7	0,559
316,2	0,553
316,7	0,546
317,1	0,54
317,6	0,534
318	0,529
318,5	0,523
319	0,518
319,4	0,513
319,9	0,508
320,3	0,503
320,8	0,498
321,3	0,492
321,7	0,486
322,2	0,48
322,6	0,475
323,1	0,47
323,6	0,463
324	0,457
324,5	0,452
324,9	0,447
325,4	0,442
325,9	0,436
326,3	0,43
326,8	0,426
327,2	0,421
327,7	0,416
328,2	0,41
328,6	0,405
329,1	0,4
329,5	0,395
330	0,39
330,5	0,385
330,9	0,379
331,4	0,374
331,8	0,368
332,3	0,362
332,8	0,357
333,2	0,352
333,7	0,347
334,1	0,342
334,6	0,336
335,1	0,332
335,5	0,327
336	0,323
336,4	0,318
336,9	0,312
337,4	0,306
337,8	0,301
338,3	0,296
338,7	0,29
339,2	0,285
339,7	0,279
340,1	0,274
340,6	0,269
341	0,264
341,5	0,259
342	0,254
342,4	0,25
342,9	0,246
343,3	0,242
343,8	0,238
344,2	0,234
344,7	0,23
345,2	0,226
345,6	0,222
346,1	0,219
346,5	0,215
347	0,211
347,5	0,207
347,9	0,203
348,4	0,199
348,8	0,195
349,3	0,191
349,8	0,188
350,2	0,183
350,7	0,18
351,1	0,178
351,6	0,174
352	0,171
352,5	0,167
353	0,165
353,4	0,162
353,9	0,159
354,3	0,155
354,8	0,153
355,3	0,151
355,7	0,148
356,2	0,144
356,6	0,142
357,1	0,139
357,5	0,136
358	0,133
358,5	0,129
358,9	0,127
359,4	0,125
359,8	0,123
360,3	0,121
360,8	0,119
361,2	0,117
361,7	0,115
362,1	0,113
362,6	0,111
363	0,108
363,5	0,106
364	0,104
364,4	0,102
364,9	0,1
365,3	0,098
365,8	0,097
366,3	0,096
366,7	0,094
367,2	0,092
367,6	0,09
368,1	0,088
368,5	0,087
369	0,086
369,5	0,084
369,9	0,082
370,4	0,081
370,8	0,08
371,3	0,078
371,7	0,077
372,2	0,076
372,7	0,075
373,1	0,073
373,6	0,072
374	0,071
374,5	0,07
374,9	0,068
375,4	0,067
375,9	0,066
376,3	0,066
376,8	0,065
377,2	0,064
377,7	0,064
378,2	0,063
378,6	0,062
379,1	0,061
379,5	0,059
380	0,058
380,4	0,057
380,9	0,056
381,4	0,055
381,8	0,055
382,3	0,054
382,7	0,053
383,2	0,053
383,6	0,052
384,1	0,051
384,6	0,051
385	0,051
385,5	0,05
385,9	0,049
386,4	0,048
386,8	0,047
387,3	0,047
387,7	0,045
388,2	0,044
388,7	0,044
389,1	0,043
389,6	0,043
390	0,042
390,5	0,041
390,9	0,041
391,4	0,04
391,9	0,04
392,3	0,039
392,8	0,039
393,2	0,038
393,7	0,038
394,1	0,038
394,6	0,037
395,1	0,036
395,5	0,037
396	0,036
396,4	0,035
396,9	0,034
397,3	0,033
397,8	0,032
398,2	0,032
398,7	0,031
399,2	0,031
399,6	0,031
400,1	0,03
400,5	0,03
401	0,029
401,4	0,028
401,9	0,028
402,4	0,027
402,8	0,027
403,3	0,026
403,7	0,025
404,2	0,026
404,6	0,026
405,1	0,026
405,5	0,025
406	0,025
406,5	0,024
406,9	0,024
407,4	0,022
407,8	0,021
408,3	0,021
408,7	0,02
409,2	0,02
409,6	0,02
410,1	0,02
410,6	0,02
411	0,019
411,5	0,019
411,9	0,019
412,4	0,019
412,8	0,018
413,3	0,018
413,7	0,018
414,2	0,018
414,7	0,017
415,1	0,017
415,6	0,017
416	0,016
416,5	0,016
416,9	0,015
417,4	0,015
417,8	0,014
418,3	0,014
418,8	0,014
419,2	0,014
419,7	0,014
420,1	0,013
420,6	0,013
421	0,013
421,5	0,013
421,9	0,012
422,4	0,012
422,8	0,011
423,3	0,011
423,8	0,011
424,2	0,011
424,7	0,01
425,1	0,009
425,6	0,008
426	0,008
426,5	0,008
426,9	0,007
427,4	0,007
427,9	0,007
428,3	0,008
428,8	0,008
429,2	0,008
429,7	0,008
430,1	0,007
430,6	0,007
431	0,006
431,5	0,006
431,9	0,006
432,4	0,005
432,8	0,005
433,3	0,005
433,8	0,005
434,2	0,005
434,7	0,005
435,1	0,005
435,6	0,005
436	0,005
436,5	0,005
436,9	0,005
437,4	0,005
437,8	0,005
438,3	0,005
438,8	0,004
439,2	0,004
439,7	0,003
440,1	0,003
440,6	0,003
441	0,002
441,5	0,002
441,9	0,001
442,4	0,001
442,8	0,001
443,3	0,001
443,7	0,002
444,2	0,001
444,7	0,001
445,1	0,001
445,6	0,001
446	0,001
446,5	0,002
446,9	0,002
447,4	0,002
447,8	0,002
448,3	0,003
448,7	0,003
449,2	0,003
449,6	0,003
450,1	0,003
450,6	0,003
451	0,003
451,5	0,002
451,9	0,001
452,4	0,001
452,8	-0
453,3	-0,001
453,7	-0
454,2	-0,001
454,6	-0
455,1	-0
455,5	0,001
456	0,001
456,4	0,002
456,9	0,001
457,3	0,001
457,8	0,001
458,3	0,001
458,7	-0
459,2	-0,001
459,6	-0,001
460,1	-0,001
460,5	-0,001
461	-0,001
461,4	-0,001
461,9	-0,001
462,3	-0,001
462,8	-0,001
463,2	-0,001
463,7	-0,001
464,1	-0,001
464,6	-0,001
465	-0,001
465,5	-0,001
466	-0
466,4	-0
466,9	-0
467,3	-0
467,8	0
468,2	-0
468,7	-0
469,1	0
469,6	-0
470	-0
470,5	-0,001
470,9	-0,001
471,4	-0,001
471,8	-0,001
472,3	-0,002
472,7	-0,002
473,2	-0,002
473,6	-0,002
474,1	-0,002
474,5	-0,001
475	-0,001
475,4	-0,001
475,9	-0
476,4	0
476,8	-0
477,3	-0
477,7	-0,001
478,2	-0,002
478,6	-0,002
479,1	-0,002
479,5	-0,002
480	-0,001
480,4	-0
480,9	0
481,3	0,001
481,8	0
482,2	-0
482,7	-0,001
483,1	-0,001
483,6	-0,002
484	-0,002
484,5	-0,002
484,9	-0,002
485,4	-0,001
485,8	-0,001
486,3	-0,001
486,7	-0,001
487,2	-0,001
487,6	-0
488,1	-0
488,5	-0
489	-0
489,4	-0,001
489,9	-0,001
490,4	-0,001
490,8	-0
491,3	-0,001
491,7	-0
492,2	-0
492,6	0
493,1	0
493,5	0
494	0
494,4	-0
494,9	-0,001
495,3	-0
495,8	-0
496,2	0
496,7	-0,001
497,1	-0
497,6	0
498	0
498,5	-0
498,9	-0
499,4	-0,001
499,8	-0
500,3	-0,001
500,7	-0,001
501,2	-0,001
501,6	-0,001
502,1	-0,001
502,5	-0,001
503	-0,001
503,4	-0,001
503,9	-0,001
504,3	-0
504,8	-0
505,2	-0
505,7	-0,001
506,1	-0
506,6	-0
507	-0
507,5	-0,001
507,9	-0,001
508,4	-0,001
508,8	-0,001
509,3	-0,001
509,7	-0,001
510,2	-0,001
510,6	-0,001
511,1	-0,001
511,5	-0,001
512	-0,001
512,4	-0,001
512,9	-0,001
513,3	-0,001
513,8	-0,001
514,2	-0,001
514,7	-0
515,1	-0
515,6	-0
516	-0
516,5	0
516,9	-0
517,4	-0
517,8	-0,001
518,3	-0,001
518,7	-0,001
519,2	-0
519,6	-0
520,1	0
520,5	-0
521	0
521,4	0
521,9	0
522,3	0,001
522,8	0,001
523,2	0
523,7	0,001
524,1	0,001
524,6	0,001
525	0,001
525,5	-0
525,9	-0
526,4	-0
526,8	-0,001
527,3	-0
527,7	0
528,2	0
528,6	0
529,1	0
529,5	0,001
530	0,001
530,4	0,001
530,9	0,001
531,3	0,001
531,8	0
532,2	0,001
532,6	0,001
533,1	0,001
533,5	0
534	0,001
534,4	-0
534,9	-0
535,3	-0
535,8	-0,001
536,2	-0,001
536,7	-0,001
537,1	-0,002
537,6	-0,002
538	-0,002
538,5	-0,001
538,9	-0,001
539,4	-0,001
539,8	-0,001
540,3	-0,001
540,7	-0
541,2	0
541,6	0,001
542,1	0
542,5	-0
543	-0,001
543,4	-0,001
543,9	-0,002
544,3	-0,002
544,8	-0,003
545,2	-0,003
545,7	-0,002
546,1	-0,002
546,5	-0,002
547	-0,001
547,4	-0,001
547,9	-0,001
548,3	-0,001
548,8	-0,001
549,2	-0,001
549,7	-0,001
550,1	-0,001
550,6	-0,001
551	-0,001
551,5	-0,001
551,9	-0,001
552,4	-0
552,8	-0
553,3	-0
553,7	-0
554,2	-0
554,6	-0
555,1	-0,001
555,5	-0,001
555,9	-0,001
556,4	-0,001
556,8	-0
557,3	-0
557,7	-0
558,2	-0
558,6	-0,001
559,1	-0,001
559,5	-0,001
560	-0,001
560,4	-0,001
560,9	-0,001
561,3	-0,001
561,8	-0
562,2	-0,001
562,7	-0
563,1	-0
563,6	-0
564	0
564,4	-0
564,9	-0,001
565,3	-0
565,8	-0
566,2	-0
566,7	-0
567,1	-0,001
567,6	-0
568	-0
568,5	-0,001
568,9	-0,001
569,4	-0,001
569,8	-0,001
570,3	-0,001
570,7	-0,001
571,1	-0,001
571,6	-0
572	-0
572,5	-0
572,9	-0
573,4	-0
573,8	-0
574,3	-0,001
574,7	-0,001
575,2	-0,001
575,6	-0,001
576,1	-0,001
576,5	-0,001
576,9	-0,001
577,4	-0,001
577,8	-0,001
578,3	-0,001
578,7	-0,001
579,2	-0,001
579,6	-0,001
580,1	-0,001
580,5	-0,001
581	-0,001
581,4	-0,001
581,9	-0,001
582,3	-0,001
582,7	-0,001
583,2	-0,001
583,6	-0,001
584,1	-0,001
584,5	-0
585	-0
585,4	-0,001
585,9	-0,001
586,3	-0,001
586,8	-0
587,2	-0
587,6	-0,001
588,1	-0,001
588,5	-0
589	-0
589,4	-0
589,9	-0,001
590,3	-0,001
590,8	-0,001
591,2	-0
591,7	-0
592,1	-0
592,5	-0
593	-0
593,4	-0
593,9	-0
594,3	-0,001
594,8	-0,001
595,2	-0,001
595,7	-0,001
596,1	-0,001
596,6	-0
597	-0
597,4	0
597,9	0
598,3	-0
598,8	-0
599,2	-0
599,7	-0,001
600,1	-0,001
600,6	-0,001
601	-0,001
601,4	-0,002
601,9	-0,002
602,3	-0,002
602,8	-0,001
603,2	-0,002
603,7	-0,002
604,1	-0,001
604,6	-0,001
605	-0,001
605,4	-0,001
605,9	-0,001
606,3	-0,001
606,8	-0,001
607,2	-0,001
607,7	-0,001
608,1	-0,001
608,6	-0,001
609	-0,001
609,4	-0,001
609,9	-0,001
610,3	-0,001
610,8	-0,001
611,2	-0,001
611,7	-0,001
612,1	-0,001
612,6	-0,001
613	-0,001
613,4	-0,001
613,9	-0,001
614,3	-0,001
614,8	-0,001
615,2	-0
615,7	-0
616,1	-0
616,6	-0
617	-0,001
617,4	-0,001
617,9	-0,001
618,3	-0,001
618,8	-0,001
619,2	-0,001
619,7	-0,001
620,1	-0,001
620,5	-0,001
621	-0,001
621,4	-0,001
621,9	-0,001
622,3	-0
622,8	-0
623,2	-0
623,6	-0
624,1	-0
624,5	-0
625	-0,001
625,4	-0,001
625,9	-0,001
626,3	-0,001
626,8	-0,001
627,2	-0,001
627,6	-0,001
628,1	-0,001
628,5	-0,001
629	-0,001
629,4	-0,001
629,9	-0,001
630,3	-0,001
630,7	-0,001
631,2	-0
631,6	-0
632,1	-0,001
632,5	-0,001
633	-0,001
633,4	-0
633,8	-0
634,3	-0
634,7	0
635,2	0
635,6	0
636,1	0
636,5	-0
636,9	-0
637,4	-0,001
637,8	-0,001
638,3	-0,001
638,7	-0,001
639,2	-0,001
639,6	-0,001
640	-0,001
640,5	-0
640,9	-0
641,4	-0
641,8	-0
642,2	-0
642,7	0
643,1	-0
643,6	-0
644	-0
644,5	-0,001
644,9	-0,001
645,3	-0,001
645,8	-0,001
646,2	-0,001
646,7	-0
647,1	0
647,6	0,001
648	0
648,4	0
648,9	0
649,3	0
649,8	0
650,2	0
650,6	-0
651,1	-0
651,5	-0
652	-0,001
652,4	-0,001
652,9	-0,002
653,3	-0,001
653,7	-0,001
654,2	-0,001
654,6	-0,001
655,1	-0
655,5	0
655,9	0
656,4	0
656,8	-0
657,3	-0
657,7	-0
658,2	-0
658,6	-0
659	-0
659,5	-0
659,9	0,001
660,4	0,001
660,8	0,001
661,2	-0
661,7	-0
662,1	-0
662,6	-0,001
663	-0,001
663,4	-0,001
663,9	-0,001
664,3	-0,001
664,8	-0,002
665,2	-0,001
665,6	-0,001
666,1	-0
666,5	-0,001
667	-0
667,4	-0
667,9	0
668,3	0
668,7	-0
669,2	-0
669,6	-0
670,1	-0
670,5	-0,001
670,9	-0,001
671,4	-0
671,8	-0,001
672,3	-0
672,7	-0
673,1	-0
673,6	-0
674	-0,001
674,5	-0,001
674,9	-0,001
675,3	-0,001
675,8	-0,001
676,2	-0,001
676,7	-0,001
677,1	-0,001
677,5	-0,001
678	-0,001
678,4	-0,001
678,9	-0,001
679,3	-0,001
679,7	-0,001
680,2	-0,001
680,6	-0,001
681,1	-0,001
681,5	-0,001
681,9	-0,001
682,4	-0,001
682,8	-0,001
683,3	-0,001
683,7	-0,001
684,1	-0,001
684,6	-0,001
685	-0,001
685,5	-0,001
685,9	-0,001
686,3	-0,001
686,8	-0
687,2	-0
687,7	0
688,1	0
688,5	0,001
689	0,001
689,4	0,001
689,9	0,001
690,3	0,001
690,7	0,001
691,2	0,001
691,6	0
692	0
692,5	0,001
692,9	0
693,4	0
693,8	0
694,2	0
694,7	0
695,1	0
695,6	0
696	0
696,4	0
696,9	-0
697,3	-0
697,8	-0
698,2	-0,001
698,6	-0,001
699,1	-0,001
699,5	-0,001
699,9	-0,001
700,4	-0,001
700,8	-0,001
701,3	-0,001
701,7	-0,001
702,1	-0
702,6	-0
703	-0
703,5	0
703,9	0
704,3	0
704,8	0
705,2	-0
705,6	-0
706,1	-0
706,5	-0
707	-0,001
707,4	-0,001
707,8	-0,001
708,3	-0,001
708,7	-0,001
709,2	-0,001
709,6	-0,001
710	-0,001
710,5	-0,001
710,9	-0,001
711,3	-0,001
711,8	-0,001
712,2	-0,001
712,7	-0,001
713,1	-0,001
713,5	-0,001
714	-0,001
714,4	-0,001
714,8	-0,001
715,3	-0,001
715,7	-0
716,2	-0,001
716,6	-0,001
717	-0,001
717,5	-0,001
717,9	-0,001
718,3	-0,002
718,8	-0,002
719,2	-0,002
719,7	-0,002
720,1	-0,002
720,5	-0,002
721	-0,001
721,4	-0,001
721,8	-0,001
722,3	-0,001
722,7	-0,001
723,2	-0,001
723,6	-0,001
724	-0,001
724,5	-0,001
724,9	-0
725,3	-0
725,8	0
726,2	0
726,7	0
727,1	-0
727,5	-0,001
728	-0,001
728,4	-0,001
728,8	-0,002
729,3	-0,001
729,7	-0,001
730,1	-0,001
730,6	-0,001
731	-0,001
731,5	-0
731,9	-0
732,3	-0
732,8	-0
733,2	-0
733,6	-0
734,1	-0,001
734,5	-0,001
734,9	-0
735,4	-0
735,8	-0
736,3	-0
736,7	-0
737,1	0
737,6	0
738	0
738,4	0
738,9	0,001
739,3	0
739,7	0
740,2	-0
740,6	-0,001
741,1	-0,001
741,5	-0,001
741,9	-0,001
742,4	-0,001
742,8	-0,001
743,2	-0
743,7	-0
744,1	0
744,5	-0
745	-0
745,4	-0,001
745,8	-0,001
746,3	-0,001
746,7	-0,001
747,2	-0,002
747,6	-0,002
748	-0,002
748,5	-0,002
748,9	-0,002
749,3	-0,002
749,8	-0,002
750,2	-0,002
750,6	-0,002
751,1	-0,001
751,5	-0,001
751,9	-0,001
752,4	-0,001
752,8	-0,001
753,3	-0
753,7	-0
754,1	-0
754,6	-0
755	-0
755,4	-0
755,9	-0,001
756,3	-0,001
756,7	-0,001
757,2	-0,001
757,6	-0,001
758	-0,001
758,5	-0,001
758,9	-0,001
759,3	-0,001
759,8	-0,001
760,2	-0,001
760,6	-0,001
761,1	-0,001
761,5	-0,001
761,9	-0,001
762,4	-0,001
762,8	-0,001
763,3	-0,001
763,7	-0,001
764,1	-0,001
764,6	-0,001
765	-0,001
765,4	-0,001
765,9	-0,001
766,3	-0,001
766,7	-0,001
767,2	-0
767,6	-0
768	0
768,5	0
768,9	0
769,3	0
769,8	0
770,2	-0
770,6	-0
771,1	-0,001
771,5	-0,001
771,9	-0,001
772,4	-0,001
772,8	-0,001
773,2	-0,001
773,7	-0
774,1	-0
774,5	-0
775	-0
775,4	-0
775,8	-0
776,3	-0
776,7	0
777,1	0
777,6	0
778	0,001
778,4	0,001
778,9	0,001
779,3	0,001
779,7	0
780,2	0
780,6	-0
781	-0
781,5	-0
781,9	-0
782,3	-0
782,8	0
783,2	0,001
783,6	0,001
784,1	0,001
784,5	0,001
784,9	0,001
785,4	0,001
785,8	0,001
786,2	0,001
786,7	0
787,1	0
787,5	0
788	0
788,4	0
788,8	-0
789,3	-0
789,7	-0
790,1	-0,001
790,6	-0,001
791	-0,001
791,4	-0,001
791,9	-0
792,3	-0
792,7	-0
793,2	-0
793,6	-0
794	-0
794,5	-0
794,9	-0
795,3	0
795,8	0
796,2	0
796,6	0,001
797,1	0,001
797,5	0,001
797,9	0,001
798,4	0,001
798,8	0,001
799,2	0,001
799,7	0,001
800,1	0
800,5	0
801	-0
801,4	-0
801,8	-0
802,2	-0
802,7	-0
803,1	-0
803,5	-0
804	-0
804,4	-0
804,8	-0
805,3	-0
805,7	-0
806,1	-0,001
806,6	-0
807	-0,001
807,4	-0,001
807,9	-0,001
808,3	-0,001
808,7	-0,002
809,2	-0,001
809,6	-0,002
810	-0,001
810,4	-0,001
810,9	-0,001
811,3	-0,001
811,7	-0,001
812,2	-0
812,6	0
813	0
813,5	0
813,9	0,001
814,3	0,001
814,8	0,001
815,2	0
815,6	-0
816,1	-0,001
816,5	-0,001
816,9	-0,001
817,3	-0,001
817,8	-0,001
818,2	-0,001
818,6	-0,001
819,1	-0
819,5	0
819,9	0
820,4	0
820,8	0
821,2	-0
821,7	-0
822,1	-0,001
822,5	-0,001
822,9	-0,002
823,4	-0,002
823,8	-0,002
824,2	-0,002
824,7	-0,002
825,1	-0,002
825,5	-0,001
826	-0,001
826,4	-0,001
826,8	-0,001
827,3	-0,001
827,7	-0,001
828,1	-0,001
828,5	-0,001
829	-0
829,4	-0
829,8	0
830,3	0,001
830,7	0,001
831,1	0,001
831,6	0,001
832	0,001
832,4	0,001
832,8	0,001
833,3	0
833,7	0
834,1	0
834,6	-0
835	0
835,4	-0
835,8	-0
836,3	-0
836,7	-0
837,1	-0
837,6	-0
838	-0
838,4	-0,001
838,9	-0,001
839,3	-0,001
839,7	-0,001
840,1	-0,001
840,6	-0
841	-0,001
841,4	-0
841,9	-0
842,3	-0
842,7	-0,001
843,1	-0
843,6	-0,001
844	-0,001
844,4	-0,001
844,9	-0,001
845,3	-0,001
845,7	-0,001
846,2	-0,002
846,6	-0,001
847	-0,001
847,4	-0,001
847,9	-0,001
848,3	-0,001
848,7	-0,001
849,2	-0,001
849,6	-0,001
850	-0,001
850,4	-0,001
850,9	-0,001
851,3	-0,001
851,7	-0,001
852,2	-0,001
852,6	-0,001
853	-0
853,4	-0,001
853,9	-0
854,3	-0
854,7	-0
855,2	-0
855,6	-0
856	-0
856,4	-0
856,9	-0
857,3	-0
857,7	-0,001
858,2	-0,001
858,6	-0,001
859	-0,002
859,4	-0,002
859,9	-0,002
860,3	-0,002
860,7	-0,002
861,1	-0,002
861,6	-0,002
862	-0,001
862,4	-0,001
862,9	-0,001
863,3	-0
863,7	-0
864,1	0
864,6	0
865	0,001
865,4	0,001
865,9	0,001
866,3	0,001
866,7	0,001
867,1	0,001
867,6	0,001
868	0,001
868,4	0,001
868,8	0,001
869,3	0
869,7	0,001
870,1	0
870,6	0,001
871	0
871,4	0
871,8	0
872,3	0
872,7	-0
873,1	-0
873,5	-0,001
874	-0,001
874,4	-0,001
874,8	-0,001
875,3	-0,001
875,7	-0,001
876,1	-0
876,5	-0
877	-0,001
877,4	-0
877,8	-0
878,2	-0,001
878,7	-0
879,1	-0,001
879,5	-0,001
879,9	-0,001
880,4	-0,001
880,8	-0,001
881,2	-0,001
881,7	-0,001
882,1	-0,001
882,5	-0,001
882,9	-0,001
883,4	-0,001
883,8	-0,001
884,2	-0,001
884,6	-0,001
885,1	-0,001
885,5	-0
885,9	-0
886,3	-0
886,8	-0
887,2	-0
887,6	0
888	0
888,5	0
888,9	0
889,3	-0
889,8	-0
890,2	0
890,6	-0
891	-0
891,5	-0
891,9	0
892,3	0
892,7	0
893,2	0
893,6	0
894	0
894,4	0
894,9	-0
895,3	0
895,7	-0
896,1	0
896,6	0
897	-0
897,4	-0
897,8	-0
898,3	-0
898,7	-0
899,1	-0,001
899,5	-0,001
900	-0,001
900,4	-0,001
900,8	-0,001
901,2	-0,001
901,7	-0
902,1	-0
902,5	-0,001
902,9	-0
903,4	-0
903,8	-0
904,2	0
904,6	0,001
905,1	0,001
905,5	0,001
905,9	0,001
906,3	0
906,8	0
907,2	-0
907,6	-0
908	-0
908,5	-0,001
908,9	-0,001
909,3	-0,002
909,7	-0,001
910,2	-0,002
910,6	-0,002
911	-0,002
911,4	-0,002
911,9	-0,002
912,3	-0,002
912,7	-0,001
913,1	-0,001
913,6	-0,001
914	-0,001
914,4	-0,001
914,8	-0,001
915,3	-0,001
915,7	-0,001
916,1	-0
916,5	-0,001
916,9	-0,001
917,4	-0,001
917,8	-0
918,2	-0
918,6	-0
919,1	-0
919,5	0
919,9	0,001
920,3	0,001
920,8	0
921,2	0,001
921,6	0,001
922	0,001
922,5	0
922,9	0
923,3	0
923,7	0,001
924,2	0,001
924,6	0,001
925	0
925,4	0,001
925,8	0,001
926,3	0
926,7	0,001
927,1	0
927,5	0
928	0
928,4	-0
928,8	-0,001
929,2	-0,001
929,7	-0,001
930,1	-0,001
930,5	-0,001
930,9	-0,001
931,3	-0,001
931,8	-0,001
932,2	-0,001
932,6	-0,001
933	-0,001
933,5	-0,001
933,9	-0,002
934,3	-0,002
934,7	-0,002
935,2	-0,002
935,6	-0,001
936	-0,001
936,4	-0,002
936,8	-0,001
937,3	-0,002
937,7	-0,002
938,1	-0,002
938,5	-0,002
939	-0,002
939,4	-0,002
939,8	-0,002
940,2	-0,002
940,6	-0,002
941,1	-0,001
941,5	-0,002
941,9	-0,002
942,3	-0,002
942,8	-0,003
943,2	-0,003
943,6	-0,003
944	-0,002
944,4	-0,002
944,9	-0,001
945,3	-0,001
945,7	0
946,1	-0
946,6	-0
947	-0
947,4	-0
947,8	-0,001
948,2	-0,001
948,7	-0,001
949,1	-0,001
949,5	-0,001
949,9	-0,001
950,3	-0,001
950,8	-0,002
951,2	-0,001
951,6	-0,001
952	-0,001
952,5	-0,001
952,9	-0,001
953,3	-0,001
953,7	-0,001
954,1	-0,001
954,6	-0
955	0
955,4	0,001
955,8	0,002
956,2	0,002
956,7	0,002
957,1	0,002
957,5	0,002
957,9	0,002
958,3	0,001
958,8	0,001
959,2	0
959,6	0
960	-0
960,5	-0
960,9	-0,001
961,3	-0,001
961,7	-0,001
962,1	-0
962,6	-0,001
963	-0
963,4	-0,001
963,8	-0,001
964,2	-0,002
964,7	-0,002
965,1	-0,002
965,5	-0,002
965,9	-0,002
966,3	-0,001
966,8	-0
967,2	0
967,6	0,001
968	0,001
968,4	0,001
968,9	0
969,3	0
969,7	-0
970,1	-0
970,5	-0
971	0
971,4	0
971,8	0
972,2	0
972,6	0
973,1	0
973,5	-0
973,9	-0
974,3	-0
974,7	0
975,2	0
975,6	-0
976	0
976,4	0
976,8	-0
977,3	-0,001
977,7	-0,002
978,1	-0,002
978,5	-0,002
978,9	-0,002
979,4	-0,002
979,8	-0,002
980,2	-0
980,6	0
981	0
981,5	0,001
981,9	0,001
982,3	0,001
982,7	0
983,1	0
983,6	-0
984	-0
984,4	-0
984,8	-0
985,2	0,001
985,6	0,001
986,1	0,001
986,5	0,001
986,9	0,001
987,3	0,001
987,7	0,001
988,2	0,001
988,6	0
989	0
989,4	0
989,8	-0
990,3	-0
990,7	-0,001
991,1	-0,001
991,5	-0
991,9	0
992,3	0
992,8	0,001
993,2	0,001
993,6	0,001
994	0,001
994,4	0,001
994,9	0,001
995,3	0
995,7	0
996,1	0
996,5	0,001
996,9	0
997,4	0
997,8	0
998,2	0
998,6	0
999	0,001
999,5	0
999,9	0,001
1000,3	0,001
1000,7	0,001
1001,1	0,001
1001,5	0,001
1002	-0
1002,4	-0
1002,8	0
1003,2	-0
1003,6	-0
1004	-0
1004,5	-0,001
1004,9	-0
1005,3	0,001
1005,7	0,001
1006,1	0,001
1006,6	0,001
1007	0,002
1007,4	0,002
1007,8	0,002
1008,2	0,002
1008,6	0,002
1009,1	0,001
1009,5	0,001
1009,9	0
1010,3	0
1010,7	0,001
1011,1	0
1011,6	-0
1012	0
1012,4	-0
1012,8	0
1013,2	-0
1013,6	0
1014,1	0
1014,5	0
1014,9	-0
1015,3	0,001
1015,7	-0
1016,1	-0,001
1016,6	-0,001
1017	-0,001
1017,4	-0,001
1017,8	-0,001
1018,2	-0,001
1018,6	-0,001
1019,1	-0,002
1019,5	-0,002
1019,9	-0,001
1020,3	-0,001
1020,7	-0,001
1021,1	-0,002
1021,6	-0,001
1022	-0
1022,4	-0,001
1022,8	-0,001
1023,2	-0,001
1023,6	-0,001
1024,1	-0,001
1024,5	-0,001
1024,9	-0
1025,3	-0
1025,7	0
1026,1	0
1026,6	0
1027	0
1027,4	0
1027,8	-0,001
1028,2	0
1028,6	0
1029	0
1029,5	0,001
1029,9	0,001
1030,3	0,001
1030,7	0,001
1031,1	0,001
1031,5	0,001
1032	0,001
1032,4	0,001
1032,8	0,001
1033,2	0,001
1033,6	0,002
1034	0,001
1034,4	0,001
1034,9	0
1035,3	-0
1035,7	-0
1036,1	-0,001
1036,5	-0,001
1036,9	-0,001
1037,4	-0,002
1037,8	-0
1038,2	-0
1038,6	-0,001
1039	-0
1039,4	0
1039,8	0,001
1040,3	0,001
1040,7	0
1041,1	0
1041,5	0
1041,9	-0,001
1042,3	-0,001
1042,7	-0,002
1043,2	-0,002
1043,6	-0,002
1044	-0,002
1044,4	-0,002
1044,8	-0,001
1045,2	-0,001
1045,6	-0,001
1046,1	-0
1046,5	-0
1046,9	0,001
1047,3	0,001
1047,7	0
1048,1	0
1048,5	0
1049	-0
1049,4	-0,001
1049,8	-0,001
1050,2	-0,001
1050,6	-0,001
1051	-0,002
1051,4	-0,002
1051,9	-0,002
1052,3	-0,002
1052,7	-0,002
1053,1	-0,002
1053,5	-0,002
1053,9	-0,002
1054,3	-0,002
1054,8	-0,002
1055,2	-0,003
1055,6	-0,002
1056	-0,002
1056,4	-0,003
1056,8	-0,002
1057,2	-0,002
1057,6	-0,002
1058,1	-0,001
1058,5	-0,002
1058,9	-0,003
1059,3	-0,002
1059,7	-0,002
1060,1	-0,002
1060,5	-0,002
1061	-0,001
1061,4	-0
1061,8	0
1062,2	-0
1062,6	-0,001
1063	-0,001
1063,4	-0,001
1063,8	-0,001
1064,3	-0,001
1064,7	-0,001
1065,1	-0,001
1065,5	-0,002
1065,9	-0,001
1066,3	-0,001
1066,7	-0,001
1067,1	-0
1067,6	-0,001
1068	0
1068,4	0,001
1068,8	0,001
1069,2	0
1069,6	-0
1070	-0
1070,4	-0
1070,9	-0,001
1071,3	-0
1071,7	-0,001
1072,1	-0,002
1072,5	-0,002
1072,9	-0,002
1073,3	-0,002
1073,7	-0,001
1074,2	-0,002
1074,6	-0,001
1075	-0,001
1075,4	-0
1075,8	-0
1076,2	-0,001
1076,6	-0,001
1077	-0,001
1077,5	-0,003
1077,9	-0,002
1078,3	-0,003
1078,7	-0,003
1079,1	-0,002
1079,5	-0,002
1079,9	-0,002
1080,3	-0,001
1080,7	-0,001
1081,2	0
1081,6	0
1082	-0
1082,4	-0,001
1082,8	-0,002
1083,2	-0,001
1083,6	-0,001
1084	-0
1084,5	0,001
1084,9	0,001
1085,3	0,002
1085,7	0,004
1086,1	0,004
1086,5	0,005
1086,9	0,003
1087,3	0,003
1087,7	0,005
1088,2	0,003
1088,6	0,001
1089	0,001
1089,4	0
1089,8	0,001
1090,2	-0,003
1090,6	-0,004
1091	-0,003
1091,4	0
1091,9	-0,001
1092,3	-0,001
1092,7	0
1093,1	0,004
1093,5	0,001
1093,9	0,003
1094,3	0,003
1094,7	0,007
1095,1	0,008
1095,5	0,006
1096	0,003
1096,4	0,003
1096,8	0,002
1097,2	0,001
1097,6	-0,003
1098	-0,005
1098,4	-0,006
1098,8	-0,004
1099,2	-0,003
1099,6	-0,002
1100,1	-0,001
1100,5	0,001
1100,9	0,006
1101,3	0,008
1101,7	0,007
1102,1	0,006
1102,5	0,005
1102,9	0,01
1103,3	0,003
1103,7	-0,001
1104,2	-0,002
1104,6	-0,002
1105	-0,008
1105,4	0,009
1105,8	-0,003
1106,2	0,009
1106,6	0,02
1107	0,019
1107,4	0,02
1107,8	0,085
1108,3	-0
