Data from Absorbance_00047.txt Node
Date: Fri Aug 11 13:11:09 MSK 2023
User: vat
Spectrometer: MAYP114033
Trigger mode: 0
Integration Time (sec): 8,000000E-3
Scans to average: 10
Electric dark correction enabled: true
Nonlinearity correction enabled: false
Boxcar width: 3
XAxis mode: Wavelengths
Number of Pixels in Spectrum: 2068
>>>>>Begin Spectral Data<<<<<
199,4	0,125
199,9	0,16
200,4	0,477
200,8	0,759
201,3	0,871
201,8	0,913
202,2	0,928
202,7	0,97
203,2	1,037
203,6	1,062
204,1	1,089
204,6	1,117
205	1,146
205,5	1,182
206	1,194
206,4	1,199
206,9	1,214
207,4	1,232
207,8	1,242
208,3	1,264
208,8	1,274
209,2	1,275
209,7	1,298
210,2	1,319
210,6	1,332
211,1	1,339
211,5	1,356
212	1,367
212,5	1,412
212,9	1,414
213,4	1,429
213,9	1,428
214,3	1,429
214,8	1,432
215,3	1,446
215,7	1,451
216,2	1,466
216,7	1,491
217,1	1,517
217,6	1,561
218,1	1,581
218,5	1,582
219	1,584
219,5	1,581
219,9	1,595
220,4	1,61
220,9	1,606
221,3	1,614
221,8	1,649
222,3	1,664
222,7	1,702
223,2	1,721
223,6	1,742
224,1	1,746
224,6	1,779
225	1,793
225,5	1,818
226	1,839
226,4	1,843
226,9	1,836
227,4	1,867
227,8	1,852
228,3	1,874
228,8	1,893
229,2	1,878
229,7	1,879
230,2	1,898
230,6	1,901
231,1	1,911
231,5	1,923
232	1,926
232,5	1,952
232,9	1,954
233,4	1,971
233,9	1,993
234,3	2,007
234,8	1,994
235,3	2,001
235,7	2,012
236,2	2,027
236,7	2,03
237,1	2,042
237,6	2,061
238,1	2,067
238,5	2,07
239	2,066
239,4	2,097
239,9	2,122
240,4	2,103
240,8	2,091
241,3	2,103
241,8	2,133
242,2	2,138
242,7	2,114
243,2	2,109
243,6	2,131
244,1	2,142
244,6	2,14
245	2,118
245,5	2,119
245,9	2,142
246,4	2,144
246,9	2,139
247,3	2,142
247,8	2,128
248,3	2,145
248,7	2,153
249,2	2,141
249,7	2,148
250,1	2,152
250,6	2,146
251	2,161
251,5	2,149
252	2,139
252,4	2,157
252,9	2,154
253,4	2,157
253,8	2,172
254,3	2,179
254,8	2,178
255,2	2,175
255,7	2,169
256,1	2,159
256,6	2,161
257,1	2,16
257,5	2,157
258	2,18
258,5	2,185
258,9	2,165
259,4	2,181
259,9	2,186
260,3	2,199
260,8	2,204
261,2	2,198
261,7	2,225
262,2	2,251
262,6	2,229
263,1	2,208
263,6	2,219
264	2,214
264,5	2,213
264,9	2,207
265,4	2,198
265,9	2,199
266,3	2,214
266,8	2,196
267,3	2,195
267,7	2,182
268,2	2,171
268,7	2,172
269,1	2,153
269,6	2,161
270	2,147
270,5	2,156
271	2,17
271,4	2,168
271,9	2,151
272,4	2,159
272,8	2,148
273,3	2,157
273,7	2,142
274,2	2,128
274,7	2,133
275,1	2,149
275,6	2,173
276,1	2,169
276,5	2,152
277	2,151
277,4	2,151
277,9	2,137
278,4	2,135
278,8	2,124
279,3	2,112
279,8	2,116
280,2	2,116
280,7	2,088
281,1	2,076
281,6	2,068
282,1	2,038
282,5	2,023
283	2
283,4	1,973
283,9	1,964
284,4	1,943
284,8	1,906
285,3	1,861
285,8	1,802
286,2	1,74
286,7	1,67
287,1	1,597
287,6	1,521
288,1	1,441
288,5	1,367
289	1,297
289,5	1,226
289,9	1,159
290,4	1,094
290,8	1,032
291,3	0,973
291,8	0,92
292,2	0,87
292,7	0,824
293,1	0,782
293,6	0,744
294,1	0,711
294,5	0,682
295	0,653
295,5	0,629
295,9	0,607
296,4	0,588
296,8	0,571
297,3	0,556
297,8	0,542
298,2	0,53
298,7	0,52
299,1	0,51
299,6	0,501
300,1	0,493
300,5	0,486
301	0,479
301,5	0,474
301,9	0,469
302,4	0,463
302,8	0,458
303,3	0,455
303,8	0,45
304,2	0,447
304,7	0,442
305,1	0,438
305,6	0,436
306,1	0,432
306,5	0,429
307	0,425
307,4	0,421
307,9	0,417
308,4	0,415
308,8	0,411
309,3	0,408
309,8	0,404
310,2	0,402
310,7	0,399
311,1	0,396
311,6	0,392
312,1	0,389
312,5	0,386
313	0,383
313,4	0,379
313,9	0,377
314,4	0,373
314,8	0,37
315,3	0,368
315,7	0,365
316,2	0,361
316,7	0,358
317,1	0,355
317,6	0,352
318	0,349
318,5	0,345
319	0,342
319,4	0,339
319,9	0,336
320,3	0,334
320,8	0,331
321,3	0,328
321,7	0,325
322,2	0,323
322,6	0,32
323,1	0,318
323,6	0,314
324	0,311
324,5	0,309
324,9	0,306
325,4	0,304
325,9	0,301
326,3	0,299
326,8	0,296
327,2	0,294
327,7	0,292
328,2	0,29
328,6	0,287
329,1	0,284
329,5	0,281
330	0,279
330,5	0,276
330,9	0,274
331,4	0,271
331,8	0,269
332,3	0,266
332,8	0,263
333,2	0,26
333,7	0,257
334,1	0,255
334,6	0,252
335,1	0,249
335,5	0,247
336	0,244
336,4	0,242
336,9	0,239
337,4	0,236
337,8	0,233
338,3	0,23
338,7	0,228
339,2	0,225
339,7	0,222
340,1	0,22
340,6	0,217
341	0,215
341,5	0,213
342	0,21
342,4	0,207
342,9	0,205
343,3	0,202
343,8	0,2
344,2	0,197
344,7	0,195
345,2	0,193
345,6	0,192
346,1	0,19
346,5	0,188
347	0,186
347,5	0,184
347,9	0,181
348,4	0,178
348,8	0,175
349,3	0,173
349,8	0,171
350,2	0,168
350,7	0,167
351,1	0,165
351,6	0,163
352	0,162
352,5	0,16
353	0,157
353,4	0,155
353,9	0,153
354,3	0,15
354,8	0,149
355,3	0,148
355,7	0,146
356,2	0,144
356,6	0,143
357,1	0,141
357,5	0,139
358	0,137
358,5	0,135
358,9	0,134
359,4	0,132
359,8	0,13
360,3	0,128
360,8	0,127
361,2	0,125
361,7	0,124
362,1	0,122
362,6	0,121
363	0,119
363,5	0,117
364	0,116
364,4	0,115
364,9	0,114
365,3	0,112
365,8	0,111
366,3	0,11
366,7	0,109
367,2	0,108
367,6	0,106
368,1	0,104
368,5	0,103
369	0,103
369,5	0,102
369,9	0,1
370,4	0,099
370,8	0,098
371,3	0,097
371,7	0,097
372,2	0,095
372,7	0,094
373,1	0,094
373,6	0,093
374	0,092
374,5	0,09
374,9	0,089
375,4	0,088
375,9	0,087
376,3	0,086
376,8	0,085
377,2	0,084
377,7	0,084
378,2	0,084
378,6	0,083
379,1	0,082
379,5	0,08
380	0,08
380,4	0,08
380,9	0,078
381,4	0,077
381,8	0,077
382,3	0,077
382,7	0,076
383,2	0,075
383,6	0,074
384,1	0,073
384,6	0,073
385	0,072
385,5	0,071
385,9	0,071
386,4	0,07
386,8	0,07
387,3	0,07
387,7	0,069
388,2	0,067
388,7	0,067
389,1	0,066
389,6	0,065
390	0,064
390,5	0,063
390,9	0,062
391,4	0,062
391,9	0,062
392,3	0,061
392,8	0,061
393,2	0,061
393,7	0,061
394,1	0,061
394,6	0,06
395,1	0,059
395,5	0,06
396	0,059
396,4	0,059
396,9	0,059
397,3	0,058
397,8	0,058
398,2	0,057
398,7	0,057
399,2	0,056
399,6	0,055
400,1	0,055
400,5	0,055
401	0,054
401,4	0,053
401,9	0,053
402,4	0,053
402,8	0,053
403,3	0,052
403,7	0,052
404,2	0,053
404,6	0,053
405,1	0,053
405,5	0,052
406	0,051
406,5	0,051
406,9	0,05
407,4	0,049
407,8	0,048
408,3	0,048
408,7	0,047
409,2	0,047
409,6	0,047
410,1	0,047
410,6	0,048
411	0,048
411,5	0,048
411,9	0,048
412,4	0,048
412,8	0,048
413,3	0,048
413,7	0,048
414,2	0,047
414,7	0,047
415,1	0,046
415,6	0,046
416	0,046
416,5	0,045
416,9	0,045
417,4	0,045
417,8	0,044
418,3	0,044
418,8	0,044
419,2	0,044
419,7	0,044
420,1	0,044
420,6	0,043
421	0,044
421,5	0,044
421,9	0,043
422,4	0,044
422,8	0,043
423,3	0,044
423,8	0,044
424,2	0,044
424,7	0,043
425,1	0,043
425,6	0,042
426	0,043
426,5	0,042
426,9	0,042
427,4	0,041
427,9	0,041
428,3	0,041
428,8	0,041
429,2	0,041
429,7	0,041
430,1	0,041
430,6	0,04
431	0,04
431,5	0,04
431,9	0,04
432,4	0,04
432,8	0,039
433,3	0,039
433,8	0,039
434,2	0,04
434,7	0,04
435,1	0,039
435,6	0,039
436	0,038
436,5	0,039
436,9	0,039
437,4	0,038
437,8	0,039
438,3	0,039
438,8	0,039
439,2	0,039
439,7	0,039
440,1	0,038
440,6	0,037
441	0,037
441,5	0,037
441,9	0,036
442,4	0,037
442,8	0,036
443,3	0,036
443,7	0,037
444,2	0,036
444,7	0,036
445,1	0,036
445,6	0,035
446	0,035
446,5	0,036
446,9	0,036
447,4	0,035
447,8	0,036
448,3	0,036
448,7	0,036
449,2	0,035
449,6	0,035
450,1	0,035
450,6	0,035
451	0,034
451,5	0,035
451,9	0,034
452,4	0,034
452,8	0,033
453,3	0,033
453,7	0,033
454,2	0,032
454,6	0,032
455,1	0,033
455,5	0,033
456	0,033
456,4	0,035
456,9	0,034
457,3	0,034
457,8	0,034
458,3	0,033
458,7	0,032
459,2	0,032
459,6	0,031
460,1	0,032
460,5	0,032
461	0,032
461,4	0,033
461,9	0,032
462,3	0,033
462,8	0,032
463,2	0,032
463,7	0,032
464,1	0,032
464,6	0,031
465	0,032
465,5	0,032
466	0,032
466,4	0,033
466,9	0,033
467,3	0,033
467,8	0,033
468,2	0,032
468,7	0,032
469,1	0,031
469,6	0,031
470	0,031
470,5	0,031
470,9	0,031
471,4	0,031
471,8	0,031
472,3	0,032
472,7	0,03
473,2	0,031
473,6	0,031
474,1	0,031
474,5	0,031
475	0,03
475,4	0,03
475,9	0,031
476,4	0,031
476,8	0,03
477,3	0,03
477,7	0,03
478,2	0,029
478,6	0,029
479,1	0,029
479,5	0,029
480	0,03
480,4	0,03
480,9	0,03
481,3	0,031
481,8	0,03
482,2	0,03
482,7	0,029
483,1	0,029
483,6	0,029
484	0,029
484,5	0,029
484,9	0,028
485,4	0,029
485,8	0,03
486,3	0,03
486,7	0,03
487,2	0,029
487,6	0,03
488,1	0,03
488,5	0,029
489	0,028
489,4	0,027
489,9	0,028
490,4	0,028
490,8	0,029
491,3	0,028
491,7	0,029
492,2	0,029
492,6	0,029
493,1	0,029
493,5	0,029
494	0,029
494,4	0,029
494,9	0,028
495,3	0,028
495,8	0,028
496,2	0,028
496,7	0,028
497,1	0,028
497,6	0,028
498	0,028
498,5	0,029
498,9	0,028
499,4	0,028
499,8	0,028
500,3	0,028
500,7	0,028
501,2	0,028
501,6	0,027
502,1	0,028
502,5	0,028
503	0,028
503,4	0,028
503,9	0,028
504,3	0,029
504,8	0,028
505,2	0,028
505,7	0,028
506,1	0,028
506,6	0,028
507	0,029
507,5	0,028
507,9	0,028
508,4	0,028
508,8	0,028
509,3	0,028
509,7	0,028
510,2	0,027
510,6	0,027
511,1	0,028
511,5	0,028
512	0,028
512,4	0,028
512,9	0,028
513,3	0,028
513,8	0,028
514,2	0,027
514,7	0,027
515,1	0,028
515,6	0,028
516	0,027
516,5	0,028
516,9	0,028
517,4	0,028
517,8	0,027
518,3	0,027
518,7	0,026
519,2	0,026
519,6	0,026
520,1	0,026
520,5	0,026
521	0,027
521,4	0,026
521,9	0,027
522,3	0,027
522,8	0,027
523,2	0,026
523,7	0,027
524,1	0,026
524,6	0,026
525	0,026
525,5	0,026
525,9	0,025
526,4	0,026
526,8	0,025
527,3	0,025
527,7	0,026
528,2	0,025
528,6	0,025
529,1	0,026
529,5	0,026
530	0,026
530,4	0,026
530,9	0,026
531,3	0,027
531,8	0,027
532,2	0,026
532,6	0,026
533,1	0,026
533,5	0,026
534	0,026
534,4	0,025
534,9	0,025
535,3	0,025
535,8	0,025
536,2	0,024
536,7	0,025
537,1	0,024
537,6	0,024
538	0,024
538,5	0,024
538,9	0,025
539,4	0,025
539,8	0,025
540,3	0,026
540,7	0,026
541,2	0,026
541,6	0,026
542,1	0,025
542,5	0,025
543	0,024
543,4	0,024
543,9	0,024
544,3	0,023
544,8	0,023
545,2	0,023
545,7	0,023
546,1	0,024
546,5	0,024
547	0,024
547,4	0,024
547,9	0,024
548,3	0,025
548,8	0,025
549,2	0,025
549,7	0,025
550,1	0,024
550,6	0,025
551	0,025
551,5	0,025
551,9	0,025
552,4	0,025
552,8	0,025
553,3	0,024
553,7	0,024
554,2	0,024
554,6	0,024
555,1	0,024
555,5	0,024
555,9	0,024
556,4	0,024
556,8	0,024
557,3	0,024
557,7	0,024
558,2	0,024
558,6	0,023
559,1	0,022
559,5	0,023
560	0,022
560,4	0,022
560,9	0,023
561,3	0,023
561,8	0,023
562,2	0,023
562,7	0,024
563,1	0,024
563,6	0,024
564	0,024
564,4	0,023
564,9	0,023
565,3	0,023
565,8	0,023
566,2	0,022
566,7	0,023
567,1	0,023
567,6	0,023
568	0,024
568,5	0,023
568,9	0,023
569,4	0,023
569,8	0,023
570,3	0,022
570,7	0,022
571,1	0,022
571,6	0,022
572	0,022
572,5	0,022
572,9	0,022
573,4	0,022
573,8	0,022
574,3	0,022
574,7	0,021
575,2	0,022
575,6	0,022
576,1	0,021
576,5	0,022
576,9	0,021
577,4	0,021
577,8	0,021
578,3	0,022
578,7	0,022
579,2	0,022
579,6	0,022
580,1	0,022
580,5	0,022
581	0,022
581,4	0,022
581,9	0,022
582,3	0,022
582,7	0,022
583,2	0,022
583,6	0,022
584,1	0,022
584,5	0,021
585	0,022
585,4	0,022
585,9	0,022
586,3	0,022
586,8	0,022
587,2	0,021
587,6	0,021
588,1	0,021
588,5	0,021
589	0,021
589,4	0,021
589,9	0,021
590,3	0,021
590,8	0,021
591,2	0,021
591,7	0,021
592,1	0,021
592,5	0,021
593	0,021
593,4	0,02
593,9	0,02
594,3	0,02
594,8	0,02
595,2	0,02
595,7	0,02
596,1	0,02
596,6	0,02
597	0,021
597,4	0,021
597,9	0,021
598,3	0,021
598,8	0,021
599,2	0,02
599,7	0,02
600,1	0,02
600,6	0,02
601	0,02
601,4	0,019
601,9	0,019
602,3	0,019
602,8	0,019
603,2	0,019
603,7	0,019
604,1	0,019
604,6	0,019
605	0,019
605,4	0,019
605,9	0,019
606,3	0,019
606,8	0,019
607,2	0,019
607,7	0,019
608,1	0,019
608,6	0,019
609	0,019
609,4	0,019
609,9	0,019
610,3	0,018
610,8	0,019
611,2	0,018
611,7	0,019
612,1	0,018
612,6	0,018
613	0,019
613,4	0,019
613,9	0,019
614,3	0,019
614,8	0,019
615,2	0,019
615,7	0,019
616,1	0,019
616,6	0,018
617	0,018
617,4	0,018
617,9	0,018
618,3	0,018
618,8	0,018
619,2	0,017
619,7	0,018
620,1	0,017
620,5	0,018
621	0,018
621,4	0,018
621,9	0,018
622,3	0,018
622,8	0,018
623,2	0,018
623,6	0,018
624,1	0,018
624,5	0,018
625	0,018
625,4	0,018
625,9	0,018
626,3	0,018
626,8	0,018
627,2	0,018
627,6	0,018
628,1	0,018
628,5	0,018
629	0,018
629,4	0,018
629,9	0,018
630,3	0,018
630,7	0,018
631,2	0,018
631,6	0,018
632,1	0,018
632,5	0,018
633	0,018
633,4	0,018
633,8	0,018
634,3	0,018
634,7	0,018
635,2	0,018
635,6	0,018
636,1	0,019
636,5	0,018
636,9	0,018
637,4	0,018
637,8	0,018
638,3	0,018
638,7	0,018
639,2	0,018
639,6	0,018
640	0,018
640,5	0,018
640,9	0,018
641,4	0,017
641,8	0,017
642,2	0,017
642,7	0,017
643,1	0,017
643,6	0,017
644	0,017
644,5	0,017
644,9	0,017
645,3	0,017
645,8	0,018
646,2	0,018
646,7	0,018
647,1	0,018
647,6	0,018
648	0,018
648,4	0,018
648,9	0,017
649,3	0,017
649,8	0,018
650,2	0,017
650,6	0,017
651,1	0,017
651,5	0,017
652	0,017
652,4	0,016
652,9	0,016
653,3	0,016
653,7	0,016
654,2	0,016
654,6	0,016
655,1	0,016
655,5	0,01
655,9	0,006
656,4	0,004
656,8	0,006
657,3	0,006
657,7	0,006
658,2	0,005
658,6	0,007
659	0,011
659,5	0,017
659,9	0,018
660,4	0,017
660,8	0,017
661,2	0,016
661,7	0,016
662,1	0,016
662,6	0,016
663	0,016
663,4	0,016
663,9	0,016
664,3	0,016
664,8	0,015
665,2	0,016
665,6	0,016
666,1	0,016
666,5	0,016
667	0,015
667,4	0,015
667,9	0,016
668,3	0,016
668,7	0,016
669,2	0,016
669,6	0,016
670,1	0,016
670,5	0,016
670,9	0,016
671,4	0,016
671,8	0,016
672,3	0,016
672,7	0,016
673,1	0,015
673,6	0,015
674	0,015
674,5	0,015
674,9	0,015
675,3	0,014
675,8	0,015
676,2	0,015
676,7	0,015
677,1	0,015
677,5	0,015
678	0,015
678,4	0,015
678,9	0,015
679,3	0,014
679,7	0,014
680,2	0,014
680,6	0,014
681,1	0,014
681,5	0,014
681,9	0,015
682,4	0,015
682,8	0,015
683,3	0,015
683,7	0,015
684,1	0,015
684,6	0,015
685	0,015
685,5	0,015
685,9	0,014
686,3	0,014
686,8	0,015
687,2	0,015
687,7	0,015
688,1	0,015
688,5	0,015
689	0,016
689,4	0,016
689,9	0,016
690,3	0,016
690,7	0,016
691,2	0,016
691,6	0,016
692	0,016
692,5	0,016
692,9	0,016
693,4	0,016
693,8	0,016
694,2	0,016
694,7	0,016
695,1	0,016
695,6	0,015
696	0,015
696,4	0,015
696,9	0,015
697,3	0,015
697,8	0,015
698,2	0,014
698,6	0,014
699,1	0,014
699,5	0,014
699,9	0,015
700,4	0,015
700,8	0,015
701,3	0,015
701,7	0,015
702,1	0,015
702,6	0,015
703	0,014
703,5	0,015
703,9	0,015
704,3	0,015
704,8	0,014
705,2	0,014
705,6	0,014
706,1	0,014
706,5	0,014
707	0,014
707,4	0,013
707,8	0,013
708,3	0,013
708,7	0,013
709,2	0,013
709,6	0,013
710	0,013
710,5	0,013
710,9	0,013
711,3	0,013
711,8	0,013
712,2	0,013
712,7	0,013
713,1	0,013
713,5	0,013
714	0,013
714,4	0,013
714,8	0,014
715,3	0,014
715,7	0,014
716,2	0,014
716,6	0,014
717	0,014
717,5	0,013
717,9	0,013
718,3	0,013
718,8	0,013
719,2	0,013
719,7	0,013
720,1	0,013
720,5	0,013
721	0,014
721,4	0,014
721,8	0,013
722,3	0,014
722,7	0,013
723,2	0,013
723,6	0,013
724	0,013
724,5	0,013
724,9	0,013
725,3	0,013
725,8	0,014
726,2	0,014
726,7	0,013
727,1	0,013
727,5	0,013
728	0,013
728,4	0,013
728,8	0,013
729,3	0,012
729,7	0,012
730,1	0,012
730,6	0,012
731	0,012
731,5	0,012
731,9	0,012
732,3	0,012
732,8	0,012
733,2	0,012
733,6	0,013
734,1	0,013
734,5	0,013
734,9	0,013
735,4	0,013
735,8	0,013
736,3	0,013
736,7	0,013
737,1	0,013
737,6	0,014
738	0,014
738,4	0,014
738,9	0,014
739,3	0,014
739,7	0,014
740,2	0,013
740,6	0,013
741,1	0,012
741,5	0,012
741,9	0,012
742,4	0,012
742,8	0,012
743,2	0,013
743,7	0,013
744,1	0,013
744,5	0,013
745	0,013
745,4	0,013
745,8	0,013
746,3	0,013
746,7	0,013
747,2	0,012
747,6	0,012
748	0,013
748,5	0,012
748,9	0,012
749,3	0,012
749,8	0,012
750,2	0,012
750,6	0,012
751,1	0,012
751,5	0,012
751,9	0,012
752,4	0,012
752,8	0,012
753,3	0,013
753,7	0,013
754,1	0,013
754,6	0,013
755	0,013
755,4	0,013
755,9	0,013
756,3	0,012
756,7	0,012
757,2	0,012
757,6	0,012
758	0,012
758,5	0,012
758,9	0,012
759,3	0,012
759,8	0,012
760,2	0,012
760,6	0,012
761,1	0,012
761,5	0,012
761,9	0,012
762,4	0,012
762,8	0,012
763,3	0,012
763,7	0,011
764,1	0,012
764,6	0,012
765	0,012
765,4	0,012
765,9	0,012
766,3	0,012
766,7	0,012
767,2	0,012
767,6	0,012
768	0,012
768,5	0,012
768,9	0,013
769,3	0,012
769,8	0,012
770,2	0,012
770,6	0,012
771,1	0,012
771,5	0,012
771,9	0,011
772,4	0,011
772,8	0,012
773,2	0,012
773,7	0,012
774,1	0,012
774,5	0,012
775	0,012
775,4	0,012
775,8	0,012
776,3	0,013
776,7	0,013
777,1	0,013
777,6	0,013
778	0,013
778,4	0,013
778,9	0,013
779,3	0,013
779,7	0,012
780,2	0,012
780,6	0,012
781	0,012
781,5	0,012
781,9	0,012
782,3	0,012
782,8	0,012
783,2	0,013
783,6	0,013
784,1	0,013
784,5	0,013
784,9	0,013
785,4	0,013
785,8	0,012
786,2	0,012
786,7	0,012
787,1	0,012
787,5	0,012
788	0,012
788,4	0,012
788,8	0,012
789,3	0,012
789,7	0,011
790,1	0,011
790,6	0,011
791	0,011
791,4	0,011
791,9	0,012
792,3	0,012
792,7	0,012
793,2	0,012
793,6	0,012
794	0,012
794,5	0,012
794,9	0,012
795,3	0,012
795,8	0,012
796,2	0,012
796,6	0,012
797,1	0,012
797,5	0,013
797,9	0,013
798,4	0,013
798,8	0,013
799,2	0,013
799,7	0,012
800,1	0,012
800,5	0,012
801	0,011
801,4	0,011
801,8	0,011
802,2	0,011
802,7	0,011
803,1	0,011
803,5	0,011
804	0,011
804,4	0,011
804,8	0,011
805,3	0,012
805,7	0,011
806,1	0,011
806,6	0,011
807	0,011
807,4	0,01
807,9	0,01
808,3	0,01
808,7	0,01
809,2	0,01
809,6	0,01
810	0,01
810,4	0,01
810,9	0,01
811,3	0,01
811,7	0,011
812,2	0,011
812,6	0,011
813	0,012
813,5	0,011
813,9	0,011
814,3	0,011
814,8	0,011
815,2	0,01
815,6	0,011
816,1	0,01
816,5	0,01
816,9	0,01
817,3	0,01
817,8	0,01
818,2	0,01
818,6	0,011
819,1	0,011
819,5	0,011
819,9	0,011
820,4	0,011
820,8	0,011
821,2	0,011
821,7	0,01
822,1	0,01
822,5	0,01
822,9	0,01
823,4	0,01
823,8	0,009
824,2	0,009
824,7	0,009
825,1	0,009
825,5	0,009
826	0,009
826,4	0,009
826,8	0,01
827,3	0,01
827,7	0,01
828,1	0,01
828,5	0,01
829	0,01
829,4	0,01
829,8	0,01
830,3	0,011
830,7	0,011
831,1	0,011
831,6	0,011
832	0,011
832,4	0,011
832,8	0,011
833,3	0,012
833,7	0,011
834,1	0,011
834,6	0,011
835	0,012
835,4	0,012
835,8	0,011
836,3	0,011
836,7	0,011
837,1	0,011
837,6	0,011
838	0,01
838,4	0,01
838,9	0,01
839,3	0,01
839,7	0,01
840,1	0,01
840,6	0,01
841	0,011
841,4	0,011
841,9	0,01
842,3	0,01
842,7	0,01
843,1	0,01
843,6	0,01
844	0,009
844,4	0,009
844,9	0,009
845,3	0,009
845,7	0,009
846,2	0,009
846,6	0,009
847	0,009
847,4	0,009
847,9	0,009
848,3	0,009
848,7	0,01
849,2	0,01
849,6	0,01
850	0,01
850,4	0,01
850,9	0,01
851,3	0,01
851,7	0,01
852,2	0,01
852,6	0,01
853	0,01
853,4	0,01
853,9	0,01
854,3	0,01
854,7	0,01
855,2	0,01
855,6	0,01
856	0,011
856,4	0,01
856,9	0,011
857,3	0,01
857,7	0,01
858,2	0,01
858,6	0,01
859	0,009
859,4	0,009
859,9	0,009
860,3	0,008
860,7	0,009
861,1	0,009
861,6	0,009
862	0,009
862,4	0,009
862,9	0,01
863,3	0,01
863,7	0,01
864,1	0,01
864,6	0,01
865	0,011
865,4	0,011
865,9	0,011
866,3	0,011
866,7	0,011
867,1	0,011
867,6	0,011
868	0,011
868,4	0,011
868,8	0,011
869,3	0,01
869,7	0,011
870,1	0,011
870,6	0,011
871	0,011
871,4	0,011
871,8	0,011
872,3	0,01
872,7	0,01
873,1	0,01
873,5	0,009
874	0,009
874,4	0,009
874,8	0,009
875,3	0,009
875,7	0,009
876,1	0,009
876,5	0,009
877	0,009
877,4	0,009
877,8	0,009
878,2	0,009
878,7	0,009
879,1	0,009
879,5	0,009
879,9	0,009
880,4	0,009
880,8	0,009
881,2	0,009
881,7	0,009
882,1	0,009
882,5	0,009
882,9	0,009
883,4	0,009
883,8	0,009
884,2	0,009
884,6	0,009
885,1	0,009
885,5	0,009
885,9	0,01
886,3	0,01
886,8	0,01
887,2	0,01
887,6	0,01
888	0,009
888,5	0,01
888,9	0,01
889,3	0,009
889,8	0,009
890,2	0,01
890,6	0,01
891	0,01
891,5	0,01
891,9	0,01
892,3	0,009
892,7	0,01
893,2	0,009
893,6	0,009
894	0,01
894,4	0,01
894,9	0,01
895,3	0,01
895,7	0,011
896,1	0,01
896,6	0,011
897	0,01
897,4	0,01
897,8	0,01
898,3	0,01
898,7	0,009
899,1	0,009
899,5	0,009
900	0,009
900,4	0,009
900,8	0,009
901,2	0,009
901,7	0,009
902,1	0,009
902,5	0,009
902,9	0,009
903,4	0,009
903,8	0,009
904,2	0,009
904,6	0,009
905,1	0,009
905,5	0,01
905,9	0,01
906,3	0,01
906,8	0,01
907,2	0,009
907,6	0,009
908	0,008
908,5	0,008
908,9	0,008
909,3	0,008
909,7	0,008
910,2	0,008
910,6	0,008
911	0,008
911,4	0,008
911,9	0,007
912,3	0,008
912,7	0,008
913,1	0,008
913,6	0,008
914	0,007
914,4	0,008
914,8	0,007
915,3	0,007
915,7	0,007
916,1	0,007
916,5	0,008
916,9	0,008
917,4	0,008
917,8	0,008
918,2	0,008
918,6	0,008
919,1	0,008
919,5	0,009
919,9	0,009
920,3	0,009
920,8	0,01
921,2	0,01
921,6	0,009
922	0,009
922,5	0,009
922,9	0,009
923,3	0,009
923,7	0,008
924,2	0,008
924,6	0,008
925	0,008
925,4	0,009
925,8	0,009
926,3	0,009
926,7	0,009
927,1	0,009
927,5	0,009
928	0,009
928,4	0,008
928,8	0,007
929,2	0,007
929,7	0,007
930,1	0,007
930,5	0,007
930,9	0,007
931,3	0,008
931,8	0,008
932,2	0,008
932,6	0,008
933	0,007
933,5	0,007
933,9	0,007
934,3	0,007
934,7	0,007
935,2	0,007
935,6	0,008
936	0,008
936,4	0,008
936,8	0,008
937,3	0,007
937,7	0,007
938,1	0,007
938,5	0,007
939	0,007
939,4	0,007
939,8	0,007
940,2	0,007
940,6	0,007
941,1	0,007
941,5	0,007
941,9	0,007
942,3	0,006
942,8	0,006
943,2	0,006
943,6	0,006
944	0,007
944,4	0,006
944,9	0,007
945,3	0,008
945,7	0,009
946,1	0,009
946,6	0,009
947	0,009
947,4	0,009
947,8	0,009
948,2	0,008
948,7	0,009
949,1	0,008
949,5	0,008
949,9	0,008
950,3	0,008
950,8	0,008
951,2	0,007
951,6	0,008
952	0,008
952,5	0,009
952,9	0,009
953,3	0,009
953,7	0,009
954,1	0,009
954,6	0,009
955	0,01
955,4	0,009
955,8	0,01
956,2	0,01
956,7	0,01
957,1	0,011
957,5	0,01
957,9	0,01
958,3	0,01
958,8	0,009
959,2	0,009
959,6	0,009
960	0,009
960,5	0,009
960,9	0,008
961,3	0,008
961,7	0,008
962,1	0,009
962,6	0,008
963	0,008
963,4	0,007
963,8	0,007
964,2	0,007
964,7	0,006
965,1	0,006
965,5	0,006
965,9	0,007
966,3	0,008
966,8	0,009
967,2	0,009
967,6	0,01
968	0,01
968,4	0,01
968,9	0,009
969,3	0,008
969,7	0,008
970,1	0,008
970,5	0,008
971	0,009
971,4	0,009
971,8	0,009
972,2	0,009
972,6	0,009
973,1	0,008
973,5	0,008
973,9	0,008
974,3	0,008
974,7	0,008
975,2	0,008
975,6	0,008
976	0,008
976,4	0,008
976,8	0,008
977,3	0,008
977,7	0,007
978,1	0,007
978,5	0,007
978,9	0,008
979,4	0,008
979,8	0,008
980,2	0,008
980,6	0,009
981	0,009
981,5	0,009
981,9	0,009
982,3	0,009
982,7	0,009
983,1	0,009
983,6	0,009
984	0,009
984,4	0,008
984,8	0,008
985,2	0,008
985,6	0,008
986,1	0,008
986,5	0,008
986,9	0,007
987,3	0,007
987,7	0,008
988,2	0,007
988,6	0,007
989	0,007
989,4	0,007
989,8	0,007
990,3	0,007
990,7	0,006
991,1	0,006
991,5	0,007
991,9	0,008
992,3	0,007
992,8	0,008
993,2	0,008
993,6	0,009
994	0,009
994,4	0,009
994,9	0,009
995,3	0,009
995,7	0,008
996,1	0,008
996,5	0,008
996,9	0,007
997,4	0,008
997,8	0,007
998,2	0,007
998,6	0,007
999	0,007
999,5	0,007
999,9	0,008
1000,3	0,007
1000,7	0,008
1001,1	0,008
1001,5	0,008
1002	0,007
1002,4	0,006
1002,8	0,007
1003,2	0,007
1003,6	0,007
1004	0,007
1004,5	0,007
1004,9	0,008
1005,3	0,008
1005,7	0,008
1006,1	0,009
1006,6	0,008
1007	0,009
1007,4	0,009
1007,8	0,009
1008,2	0,008
1008,6	0,008
1009,1	0,008
1009,5	0,007
1009,9	0,007
1010,3	0,007
1010,7	0,008
1011,1	0,008
1011,6	0,008
1012	0,008
1012,4	0,008
1012,8	0,008
1013,2	0,008
1013,6	0,008
1014,1	0,008
1014,5	0,007
1014,9	0,007
1015,3	0,007
1015,7	0,007
1016,1	0,007
1016,6	0,006
1017	0,006
1017,4	0,006
1017,8	0,005
1018,2	0,005
1018,6	0,005
1019,1	0,005
1019,5	0,005
1019,9	0,005
1020,3	0,006
1020,7	0,006
1021,1	0,007
1021,6	0,007
1022	0,006
1022,4	0,006
1022,8	0,006
1023,2	0,005
1023,6	0,005
1024,1	0,005
1024,5	0,005
1024,9	0,006
1025,3	0,007
1025,7	0,008
1026,1	0,008
1026,6	0,008
1027	0,008
1027,4	0,007
1027,8	0,007
1028,2	0,007
1028,6	0,007
1029	0,007
1029,5	0,007
1029,9	0,008
1030,3	0,008
1030,7	0,008
1031,1	0,008
1031,5	0,008
1032	0,008
1032,4	0,008
1032,8	0,008
1033,2	0,008
1033,6	0,008
1034	0,008
1034,4	0,008
1034,9	0,007
1035,3	0,007
1035,7	0,007
1036,1	0,007
1036,5	0,007
1036,9	0,006
1037,4	0,006
1037,8	0,006
1038,2	0,006
1038,6	0,006
1039	0,006
1039,4	0,006
1039,8	0,007
1040,3	0,007
1040,7	0,007
1041,1	0,007
1041,5	0,008
1041,9	0,007
1042,3	0,007
1042,7	0,006
1043,2	0,007
1043,6	0,006
1044	0,006
1044,4	0,006
1044,8	0,006
1045,2	0,006
1045,6	0,006
1046,1	0,005
1046,5	0,005
1046,9	0,004
1047,3	0,004
1047,7	0,004
1048,1	0,004
1048,5	0,004
1049	0,004
1049,4	0,004
1049,8	0,004
1050,2	0,005
1050,6	0,005
1051	0,004
1051,4	0,004
1051,9	0,005
1052,3	0,005
1052,7	0,005
1053,1	0,005
1053,5	0,005
1053,9	0,005
1054,3	0,005
1054,8	0,005
1055,2	0,005
1055,6	0,005
1056	0,004
1056,4	0,004
1056,8	0,004
1057,2	0,005
1057,6	0,004
1058,1	0,004
1058,5	0,003
1058,9	0,003
1059,3	0,003
1059,7	0,003
1060,1	0,003
1060,5	0,003
1061	0,002
1061,4	0,003
1061,8	0,003
1062,2	0,003
1062,6	0,003
1063	0,004
1063,4	0,003
1063,8	0,004
1064,3	0,004
1064,7	0,004
1065,1	0,004
1065,5	0,003
1065,9	0,004
1066,3	0,005
1066,7	0,006
1067,1	0,005
1067,6	0,005
1068	0,006
1068,4	0,007
1068,8	0,006
1069,2	0,005
1069,6	0,006
1070	0,006
1070,4	0,006
1070,9	0,006
1071,3	0,007
1071,7	0,008
1072,1	0,008
1072,5	0,007
1072,9	0,007
1073,3	0,007
1073,7	0,008
1074,2	0,006
1074,6	0,006
1075	0,006
1075,4	0,006
1075,8	0,007
1076,2	0,005
1076,6	0,005
1077	0,005
1077,5	0,004
1077,9	0,004
1078,3	0,003
1078,7	0,003
1079,1	0,005
1079,5	0,004
1079,9	0,004
1080,3	0,004
1080,7	0,005
1081,2	0,007
1081,6	0,005
1082	0,005
1082,4	0,003
1082,8	0,003
1083,2	0,003
1083,6	0,002
1084	0,002
1084,5	0,003
1084,9	0,004
1085,3	0,006
1085,7	0,008
1086,1	0,008
1086,5	0,009
1086,9	0,008
1087,3	0,009
1087,7	0,009
1088,2	0,007
1088,6	0,005
1089	0,006
1089,4	0,005
1089,8	0,006
1090,2	0,003
1090,6	0,002
1091	0,004
1091,4	0,006
1091,9	0,005
1092,3	0,005
1092,7	0,006
1093,1	0,008
1093,5	0,007
1093,9	0,009
1094,3	0,007
1094,7	0,006
1095,1	0,009
1095,5	0,009
1096	0,011
1096,4	0,011
1096,8	0,011
1097,2	0,012
1097,6	0,013
1098	0,014
1098,4	0,012
1098,8	0,014
1099,2	0,013
1099,6	0,017
1100,1	0,015
1100,5	0,021
1100,9	0,019
1101,3	0,027
1101,7	0,027
1102,1	0,026
1102,5	0,019
1102,9	0,021
1103,3	0,014
1103,7	0,016
1104,2	0,008
1104,6	0,01
1105	0,006
1105,4	0,019
1105,8	0,027
1106,2	0,042
1106,6	0,046
1107	0,041
1107,4	0,037
1107,8	0,105
1108,3	0,564
