Data from Absorbance_00041.txt Node
Date: Fri Aug 11 13:06:54 MSK 2023
User: vat
Spectrometer: MAYP114033
Trigger mode: 0
Integration Time (sec): 8,000000E-3
Scans to average: 10
Electric dark correction enabled: true
Nonlinearity correction enabled: false
Boxcar width: 3
XAxis mode: Wavelengths
Number of Pixels in Spectrum: 2068
>>>>>Begin Spectral Data<<<<<
199,4	-0
199,9	-0,069
200,4	0,255
200,8	0,627
201,3	0,795
201,8	0,879
202,2	0,927
202,7	0,966
203,2	1,026
203,6	1,069
204,1	1,086
204,6	1,095
205	1,118
205,5	1,129
206	1,123
206,4	1,134
206,9	1,151
207,4	1,159
207,8	1,167
208,3	1,183
208,8	1,201
209,2	1,214
209,7	1,221
210,2	1,23
210,6	1,265
211,1	1,302
211,5	1,309
212	1,321
212,5	1,354
212,9	1,382
213,4	1,402
213,9	1,408
214,3	1,397
214,8	1,422
215,3	1,434
215,7	1,44
216,2	1,439
216,7	1,468
217,1	1,469
217,6	1,498
218,1	1,498
218,5	1,508
219	1,52
219,5	1,518
219,9	1,52
220,4	1,534
220,9	1,55
221,3	1,562
221,8	1,569
222,3	1,59
222,7	1,628
223,2	1,65
223,6	1,697
224,1	1,706
224,6	1,74
225	1,77
225,5	1,794
226	1,802
226,4	1,813
226,9	1,807
227,4	1,819
227,8	1,806
228,3	1,83
228,8	1,848
229,2	1,852
229,7	1,868
230,2	1,868
230,6	1,877
231,1	1,897
231,5	1,913
232	1,91
232,5	1,931
232,9	1,944
233,4	1,959
233,9	1,967
234,3	1,971
234,8	1,967
235,3	1,983
235,7	1,979
236,2	1,974
236,7	1,984
237,1	2,001
237,6	2,021
238,1	2,026
238,5	2,017
239	2,03
239,4	2,053
239,9	2,065
240,4	2,058
240,8	2,048
241,3	2,048
241,8	2,071
242,2	2,088
242,7	2,083
243,2	2,086
243,6	2,098
244,1	2,121
244,6	2,133
245	2,125
245,5	2,129
245,9	2,145
246,4	2,154
246,9	2,164
247,3	2,162
247,8	2,148
248,3	2,161
248,7	2,158
249,2	2,137
249,7	2,135
250,1	2,128
250,6	2,121
251	2,118
251,5	2,105
252	2,1
252,4	2,118
252,9	2,128
253,4	2,123
253,8	2,117
254,3	2,117
254,8	2,132
255,2	2,131
255,7	2,11
256,1	2,089
256,6	2,115
257,1	2,147
257,5	2,163
258	2,166
258,5	2,173
258,9	2,191
259,4	2,224
259,9	2,213
260,3	2,212
260,8	2,213
261,2	2,212
261,7	2,226
262,2	2,204
262,6	2,18
263,1	2,176
263,6	2,167
264	2,168
264,5	2,157
264,9	2,146
265,4	2,158
265,9	2,158
266,3	2,155
266,8	2,158
267,3	2,16
267,7	2,158
268,2	2,159
268,7	2,168
269,1	2,158
269,6	2,16
270	2,155
270,5	2,149
271	2,163
271,4	2,156
271,9	2,145
272,4	2,147
272,8	2,135
273,3	2,131
273,7	2,125
274,2	2,126
274,7	2,131
275,1	2,147
275,6	2,161
276,1	2,165
276,5	2,149
277	2,144
277,4	2,128
277,9	2,102
278,4	2,093
278,8	2,071
279,3	2,049
279,8	2,043
280,2	2,038
280,7	2,026
281,1	2,017
281,6	1,993
282,1	1,977
282,5	1,958
283	1,923
283,4	1,866
283,9	1,817
284,4	1,751
284,8	1,678
285,3	1,592
285,8	1,509
286,2	1,426
286,7	1,347
287,1	1,268
287,6	1,199
288,1	1,135
288,5	1,079
289	1,028
289,5	0,982
289,9	0,945
290,4	0,914
290,8	0,886
291,3	0,86
291,8	0,841
292,2	0,824
292,7	0,81
293,1	0,794
293,6	0,783
294,1	0,771
294,5	0,763
295	0,755
295,5	0,746
295,9	0,741
296,4	0,734
296,8	0,729
297,3	0,725
297,8	0,718
298,2	0,712
298,7	0,709
299,1	0,706
299,6	0,703
300,1	0,698
300,5	0,694
301	0,692
301,5	0,688
301,9	0,684
302,4	0,68
302,8	0,675
303,3	0,673
303,8	0,669
304,2	0,665
304,7	0,661
305,1	0,657
305,6	0,652
306,1	0,647
306,5	0,642
307	0,636
307,4	0,632
307,9	0,628
308,4	0,623
308,8	0,619
309,3	0,614
309,8	0,609
310,2	0,605
310,7	0,6
311,1	0,595
311,6	0,59
312,1	0,585
312,5	0,58
313	0,576
313,4	0,57
313,9	0,566
314,4	0,561
314,8	0,555
315,3	0,551
315,7	0,545
316,2	0,539
316,7	0,534
317,1	0,529
317,6	0,522
318	0,516
318,5	0,511
319	0,505
319,4	0,501
319,9	0,495
320,3	0,49
320,8	0,484
321,3	0,479
321,7	0,473
322,2	0,467
322,6	0,461
323,1	0,454
323,6	0,449
324	0,444
324,5	0,439
324,9	0,434
325,4	0,429
325,9	0,425
326,3	0,42
326,8	0,415
327,2	0,41
327,7	0,404
328,2	0,398
328,6	0,394
329,1	0,387
329,5	0,382
330	0,377
330,5	0,371
330,9	0,367
331,4	0,362
331,8	0,356
332,3	0,351
332,8	0,345
333,2	0,34
333,7	0,335
334,1	0,33
334,6	0,325
335,1	0,32
335,5	0,315
336	0,31
336,4	0,306
336,9	0,301
337,4	0,295
337,8	0,29
338,3	0,285
338,7	0,28
339,2	0,275
339,7	0,269
340,1	0,264
340,6	0,261
341	0,256
341,5	0,252
342	0,247
342,4	0,243
342,9	0,238
343,3	0,234
343,8	0,23
344,2	0,226
344,7	0,222
345,2	0,218
345,6	0,215
346,1	0,211
346,5	0,207
347	0,203
347,5	0,2
347,9	0,196
348,4	0,193
348,8	0,188
349,3	0,185
349,8	0,182
350,2	0,178
350,7	0,175
351,1	0,172
351,6	0,169
352	0,166
352,5	0,163
353	0,159
353,4	0,156
353,9	0,153
354,3	0,15
354,8	0,147
355,3	0,145
355,7	0,142
356,2	0,139
356,6	0,137
357,1	0,134
357,5	0,132
358	0,129
358,5	0,126
358,9	0,124
359,4	0,122
359,8	0,12
360,3	0,118
360,8	0,116
361,2	0,114
361,7	0,111
362,1	0,11
362,6	0,108
363	0,105
363,5	0,103
364	0,101
364,4	0,1
364,9	0,099
365,3	0,097
365,8	0,095
366,3	0,094
366,7	0,092
367,2	0,091
367,6	0,088
368,1	0,086
368,5	0,085
369	0,084
369,5	0,082
369,9	0,081
370,4	0,079
370,8	0,078
371,3	0,077
371,7	0,076
372,2	0,074
372,7	0,073
373,1	0,072
373,6	0,071
374	0,07
374,5	0,069
374,9	0,068
375,4	0,067
375,9	0,066
376,3	0,065
376,8	0,064
377,2	0,063
377,7	0,063
378,2	0,062
378,6	0,061
379,1	0,06
379,5	0,059
380	0,058
380,4	0,056
380,9	0,055
381,4	0,054
381,8	0,053
382,3	0,053
382,7	0,052
383,2	0,052
383,6	0,051
384,1	0,051
384,6	0,051
385	0,05
385,5	0,049
385,9	0,048
386,4	0,047
386,8	0,047
387,3	0,046
387,7	0,045
388,2	0,044
388,7	0,044
389,1	0,043
389,6	0,043
390	0,042
390,5	0,042
390,9	0,041
391,4	0,04
391,9	0,039
392,3	0,039
392,8	0,038
393,2	0,038
393,7	0,037
394,1	0,037
394,6	0,037
395,1	0,036
395,5	0,036
396	0,036
396,4	0,035
396,9	0,034
397,3	0,033
397,8	0,033
398,2	0,033
398,7	0,032
399,2	0,031
399,6	0,031
400,1	0,03
400,5	0,03
401	0,03
401,4	0,029
401,9	0,028
402,4	0,028
402,8	0,027
403,3	0,027
403,7	0,026
404,2	0,026
404,6	0,026
405,1	0,026
405,5	0,026
406	0,025
406,5	0,025
406,9	0,025
407,4	0,024
407,8	0,023
408,3	0,023
408,7	0,022
409,2	0,022
409,6	0,021
410,1	0,021
410,6	0,021
411	0,021
411,5	0,02
411,9	0,02
412,4	0,019
412,8	0,018
413,3	0,018
413,7	0,018
414,2	0,017
414,7	0,017
415,1	0,017
415,6	0,017
416	0,017
416,5	0,016
416,9	0,016
417,4	0,016
417,8	0,015
418,3	0,014
418,8	0,014
419,2	0,014
419,7	0,014
420,1	0,013
420,6	0,013
421	0,013
421,5	0,013
421,9	0,012
422,4	0,012
422,8	0,012
423,3	0,012
423,8	0,011
424,2	0,011
424,7	0,01
425,1	0,009
425,6	0,009
426	0,009
426,5	0,008
426,9	0,008
427,4	0,008
427,9	0,008
428,3	0,008
428,8	0,008
429,2	0,008
429,7	0,007
430,1	0,007
430,6	0,006
431	0,006
431,5	0,006
431,9	0,005
432,4	0,005
432,8	0,005
433,3	0,005
433,8	0,006
434,2	0,006
434,7	0,005
435,1	0,006
435,6	0,005
436	0,005
436,5	0,004
436,9	0,003
437,4	0,003
437,8	0,004
438,3	0,003
438,8	0,002
439,2	0,003
439,7	0,002
440,1	0,002
440,6	0,002
441	0,001
441,5	0,002
441,9	0,002
442,4	0,002
442,8	0,001
443,3	0,002
443,7	0,002
444,2	0,002
444,7	0,002
445,1	0,002
445,6	0,001
446	0,002
446,5	0,001
446,9	0,001
447,4	0,001
447,8	0,001
448,3	0,001
448,7	0,002
449,2	0,002
449,6	0,002
450,1	0,002
450,6	0,002
451	0,001
451,5	0,001
451,9	-0
452,4	-0
452,8	-0,001
453,3	-0,001
453,7	-0,001
454,2	-0,001
454,6	-0
455,1	-0
455,5	-0
456	-0
456,4	0,001
456,9	0,001
457,3	0,001
457,8	0
458,3	0
458,7	0
459,2	-0
459,6	-0
460,1	-0
460,5	-0,001
461	-0
461,4	0
461,9	-0,001
462,3	-0
462,8	-0,001
463,2	-0,001
463,7	-0,001
464,1	-0,001
464,6	-0,001
465	-0,001
465,5	-0
466	0,001
466,4	0
466,9	0,001
467,3	0,001
467,8	0,001
468,2	0
468,7	-0
469,1	-0,001
469,6	-0,001
470	-0,002
470,5	-0,002
470,9	-0,002
471,4	-0,001
471,8	-0,002
472,3	-0,002
472,7	-0,001
473,2	-0,001
473,6	-0,001
474,1	-0,001
474,5	-0,001
475	-0,001
475,4	-0
475,9	-0,001
476,4	-0
476,8	-0,001
477,3	-0,001
477,7	-0,001
478,2	-0,001
478,6	-0,002
479,1	-0,002
479,5	-0,001
480	-0,001
480,4	-0,001
480,9	-0,001
481,3	-0,001
481,8	-0,001
482,2	-0,001
482,7	-0,002
483,1	-0,002
483,6	-0,002
484	-0,002
484,5	-0,002
484,9	-0,002
485,4	-0,001
485,8	-0
486,3	-0
486,7	-0,001
487,2	-0,001
487,6	-0,001
488,1	-0,001
488,5	-0,001
489	-0,001
489,4	-0,002
489,9	-0,001
490,4	-0,001
490,8	-0
491,3	-0
491,7	-0,001
492,2	-0
492,6	0
493,1	0
493,5	0
494	-0,001
494,4	-0
494,9	-0
495,3	-0,001
495,8	-0,001
496,2	-0
496,7	-0
497,1	-0
497,6	-0,001
498	-0,001
498,5	-0,001
498,9	-0,001
499,4	-0,001
499,8	-0,001
500,3	-0,001
500,7	-0,001
501,2	-0,001
501,6	-0,002
502,1	-0,002
502,5	-0,002
503	-0,002
503,4	-0,001
503,9	-0,001
504,3	-0,001
504,8	-0
505,2	0
505,7	-0
506,1	-0,001
506,6	-0,001
507	-0,001
507,5	-0,001
507,9	-0,002
508,4	-0,002
508,8	-0,002
509,3	-0,002
509,7	-0,001
510,2	-0,001
510,6	-0,001
511,1	0
511,5	0
512	0
512,4	0
512,9	0
513,3	-0
513,8	0
514,2	-0
514,7	-0
515,1	-0
515,6	0
516	0
516,5	0,001
516,9	0
517,4	-0
517,8	-0
518,3	-0
518,7	-0,001
519,2	-0,001
519,6	-0,001
520,1	-0,001
520,5	-0,001
521	-0
521,4	-0,001
521,9	-0
522,3	0
522,8	0,001
523,2	-0
523,7	-0
524,1	-0
524,6	-0
525	0
525,5	-0,001
525,9	-0,001
526,4	-0
526,8	-0
527,3	0
527,7	-0
528,2	-0,001
528,6	-0
529,1	0,001
529,5	0,001
530	0
530,4	0,001
530,9	0,001
531,3	0,001
531,8	0
532,2	-0,001
532,6	-0,001
533,1	-0,001
533,5	-0,001
534	-0
534,4	-0,001
534,9	-0,001
535,3	-0,001
535,8	-0,001
536,2	-0,001
536,7	-0,002
537,1	-0,002
537,6	-0,002
538	-0,001
538,5	-0,001
538,9	-0,001
539,4	-0,001
539,8	-0,001
540,3	-0,001
540,7	-0
541,2	-0
541,6	0,001
542,1	0
542,5	-0
543	-0,001
543,4	-0,001
543,9	-0,001
544,3	-0,002
544,8	-0,003
545,2	-0,003
545,7	-0,002
546,1	-0,002
546,5	-0,002
547	-0,001
547,4	-0,001
547,9	-0,001
548,3	-0,001
548,8	-0,001
549,2	-0,001
549,7	-0
550,1	-0,001
550,6	-0,001
551	-0,001
551,5	-0,001
551,9	-0,001
552,4	-0,001
552,8	-0,001
553,3	-0,001
553,7	-0,001
554,2	-0,001
554,6	-0,001
555,1	-0,002
555,5	-0,002
555,9	-0,003
556,4	-0,002
556,8	-0,002
557,3	-0,002
557,7	-0,001
558,2	-0,001
558,6	-0,001
559,1	-0
559,5	-0,001
560	-0,001
560,4	-0,002
560,9	-0,001
561,3	-0,002
561,8	-0,001
562,2	-0,001
562,7	-0,001
563,1	-0
563,6	-0
564	0
564,4	0
564,9	-0
565,3	-0
565,8	-0,001
566,2	-0,001
566,7	-0,001
567,1	-0,001
567,6	-0
568	0
568,5	-0
568,9	-0,001
569,4	0
569,8	0
570,3	-0
570,7	-0
571,1	-0,001
571,6	-0,001
572	-0
572,5	-0,001
572,9	-0,001
573,4	-0,001
573,8	-0,001
574,3	-0,001
574,7	-0,001
575,2	-0,001
575,6	-0,001
576,1	-0,001
576,5	-0,001
576,9	-0
577,4	-0,001
577,8	-0,001
578,3	-0
578,7	-0,001
579,2	-0,001
579,6	-0,001
580,1	-0,001
580,5	-0,001
581	-0,001
581,4	-0,001
581,9	-0,001
582,3	-0,001
582,7	-0,001
583,2	-0,001
583,6	-0,001
584,1	-0,001
584,5	-0,001
585	-0,001
585,4	-0,001
585,9	-0,001
586,3	-0,001
586,8	-0
587,2	-0,001
587,6	-0,001
588,1	-0,001
588,5	-0,001
589	-0,001
589,4	-0,001
589,9	-0,002
590,3	-0,001
590,8	-0,001
591,2	-0,001
591,7	-0
592,1	-0
592,5	-0
593	-0
593,4	-0
593,9	-0
594,3	-0,001
594,8	-0,001
595,2	-0,001
595,7	-0,001
596,1	-0,001
596,6	-0
597	-0
597,4	-0
597,9	0
598,3	-0
598,8	-0
599,2	-0
599,7	-0
600,1	-0,001
600,6	-0,001
601	-0,001
601,4	-0,001
601,9	-0,001
602,3	-0,001
602,8	-0,002
603,2	-0,002
603,7	-0,002
604,1	-0,001
604,6	-0,001
605	-0,001
605,4	-0,001
605,9	-0,001
606,3	-0
606,8	-0
607,2	-0
607,7	-0,001
608,1	-0
608,6	-0,001
609	-0
609,4	-0
609,9	-0,001
610,3	-0,001
610,8	-0,001
611,2	-0,001
611,7	-0,001
612,1	-0,001
612,6	-0,001
613	-0,001
613,4	-0,001
613,9	-0,001
614,3	-0,001
614,8	-0,001
615,2	-0
615,7	-0
616,1	-0
616,6	-0
617	-0,001
617,4	-0
617,9	-0,001
618,3	-0,001
618,8	-0,001
619,2	-0,001
619,7	-0,001
620,1	-0,001
620,5	-0,001
621	-0,001
621,4	-0,001
621,9	-0,001
622,3	-0,001
622,8	-0,001
623,2	-0,001
623,6	-0,001
624,1	-0,001
624,5	-0,001
625	-0
625,4	-0
625,9	-0
626,3	-0,001
626,8	-0,001
627,2	-0,001
627,6	-0
628,1	-0
628,5	-0,001
629	-0,001
629,4	-0
629,9	-0,001
630,3	-0,001
630,7	-0
631,2	-0
631,6	-0
632,1	-0
632,5	-0
633	0
633,4	0
633,8	-0
634,3	-0
634,7	-0
635,2	0
635,6	0
636,1	0
636,5	0
636,9	-0
637,4	-0,001
637,8	-0,001
638,3	-0,001
638,7	-0,001
639,2	-0,001
639,6	-0,001
640	-0
640,5	-0
640,9	-0
641,4	-0
641,8	-0
642,2	-0,001
642,7	-0
643,1	-0,001
643,6	-0,001
644	-0,001
644,5	-0,001
644,9	-0,001
645,3	-0,001
645,8	-0
646,2	0
646,7	0
647,1	0,001
647,6	0,001
648	0,001
648,4	0,001
648,9	0,001
649,3	0,001
649,8	0,001
650,2	0
650,6	-0
651,1	-0
651,5	-0
652	-0,001
652,4	-0,001
652,9	-0
653,3	-0
653,7	0
654,2	0
654,6	-0
655,1	0,001
655,5	0
655,9	0
656,4	0
656,8	-0
657,3	-0
657,7	-0
658,2	-0
658,6	-0
659	-0
659,5	-0
659,9	0,001
660,4	0,001
660,8	0
661,2	-0
661,7	-0,001
662,1	-0,001
662,6	-0,001
663	-0,001
663,4	-0,001
663,9	-0,001
664,3	-0,001
664,8	-0,001
665,2	-0,001
665,6	-0,001
666,1	-0,001
666,5	-0,001
667	-0,001
667,4	-0
667,9	-0
668,3	-0
668,7	-0
669,2	-0
669,6	-0
670,1	-0
670,5	-0
670,9	-0
671,4	-0,001
671,8	-0,001
672,3	-0,001
672,7	-0,001
673,1	-0,001
673,6	-0,001
674	-0,001
674,5	-0,001
674,9	-0,001
675,3	-0,001
675,8	-0,001
676,2	-0
676,7	-0
677,1	-0,001
677,5	-0,001
678	-0,001
678,4	-0,001
678,9	-0,001
679,3	-0,001
679,7	-0,001
680,2	-0,001
680,6	-0,001
681,1	-0,001
681,5	-0,001
681,9	-0,001
682,4	-0,001
682,8	-0,001
683,3	-0,001
683,7	-0,001
684,1	-0,001
684,6	-0,001
685	-0,001
685,5	-0,001
685,9	-0,001
686,3	-0,001
686,8	-0,001
687,2	-0,001
687,7	-0
688,1	0
688,5	0
689	0,001
689,4	0,001
689,9	0,001
690,3	0,001
690,7	0
691,2	0
691,6	0
692	-0
692,5	-0
692,9	-0
693,4	-0,001
693,8	-0
694,2	-0
694,7	-0
695,1	-0
695,6	-0
696	-0
696,4	-0
696,9	0
697,3	0
697,8	-0
698,2	-0
698,6	-0
699,1	-0
699,5	-0
699,9	-0,001
700,4	-0,001
700,8	-0,001
701,3	-0
701,7	-0
702,1	0
702,6	0
703	0
703,5	0
703,9	0
704,3	-0
704,8	0
705,2	-0
705,6	-0,001
706,1	-0
706,5	0
707	-0
707,4	-0
707,8	-0
708,3	-0
708,7	-0
709,2	-0
709,6	-0,001
710	-0
710,5	-0,001
710,9	-0,001
711,3	-0,001
711,8	-0,001
712,2	-0,001
712,7	-0,001
713,1	-0,001
713,5	-0,001
714	-0,001
714,4	-0
714,8	-0
715,3	-0,001
715,7	-0,001
716,2	-0,001
716,6	-0
717	-0,001
717,5	-0,001
717,9	-0,001
718,3	-0,001
718,8	-0,001
719,2	-0,001
719,7	-0,001
720,1	-0,001
720,5	-0,001
721	-0,001
721,4	-0,001
721,8	-0,001
722,3	-0,001
722,7	-0,001
723,2	-0,001
723,6	-0,001
724	-0,001
724,5	-0,001
724,9	-0,001
725,3	-0
725,8	-0
726,2	-0
726,7	-0
727,1	-0
727,5	-0
728	-0
728,4	-0,001
728,8	-0,001
729,3	-0,001
729,7	-0,001
730,1	-0,001
730,6	-0,001
731	-0,001
731,5	-0
731,9	-0
732,3	-0
732,8	-0
733,2	-0
733,6	-0,001
734,1	-0,001
734,5	-0,001
734,9	-0
735,4	-0
735,8	-0
736,3	0
736,7	0
737,1	0
737,6	0
738	0
738,4	0
738,9	-0
739,3	-0
739,7	-0
740,2	-0
740,6	-0,001
741,1	-0,001
741,5	-0,001
741,9	-0,001
742,4	-0,001
742,8	-0,001
743,2	-0,001
743,7	-0,001
744,1	-0
744,5	-0
745	-0
745,4	-0,001
745,8	-0,001
746,3	-0,001
746,7	-0,001
747,2	-0,001
747,6	-0,001
748	-0,001
748,5	-0,002
748,9	-0,002
749,3	-0,002
749,8	-0,002
750,2	-0,001
750,6	-0,001
751,1	-0,001
751,5	-0,001
751,9	-0,001
752,4	-0,001
752,8	-0
753,3	-0
753,7	-0
754,1	-0
754,6	-0
755	-0
755,4	-0
755,9	-0,001
756,3	-0,001
756,7	-0,001
757,2	-0,001
757,6	-0,002
758	-0,001
758,5	-0,002
758,9	-0,002
759,3	-0,001
759,8	-0,001
760,2	-0,001
760,6	-0,001
761,1	-0,001
761,5	-0,001
761,9	-0,001
762,4	-0,001
762,8	-0,001
763,3	-0,002
763,7	-0,002
764,1	-0,001
764,6	-0,001
765	-0,001
765,4	-0,001
765,9	-0,001
766,3	-0,001
766,7	-0,001
767,2	-0
767,6	-0
768	-0
768,5	-0
768,9	-0
769,3	-0
769,8	-0
770,2	-0,001
770,6	-0,001
771,1	-0,001
771,5	-0,001
771,9	-0,001
772,4	-0,001
772,8	-0,001
773,2	-0,001
773,7	-0,001
774,1	-0
774,5	-0
775	0
775,4	-0
775,8	-0
776,3	-0
776,7	-0
777,1	0
777,6	0
778	0
778,4	0
778,9	0
779,3	0,001
779,7	0,001
780,2	0
780,6	0
781	0
781,5	0
781,9	-0
782,3	-0
782,8	0
783,2	0,001
783,6	0,001
784,1	0,001
784,5	0,001
784,9	0,001
785,4	0,001
785,8	0,001
786,2	0,001
786,7	0,001
787,1	0,001
787,5	0,001
788	0,001
788,4	0,001
788,8	0
789,3	0
789,7	-0
790,1	-0
790,6	-0
791	-0
791,4	-0
791,9	0
792,3	0
792,7	0
793,2	0
793,6	-0
794	-0
794,5	-0
794,9	-0
795,3	0
795,8	0
796,2	0
796,6	0,001
797,1	0,001
797,5	0,001
797,9	0,001
798,4	0,001
798,8	0
799,2	0
799,7	0
800,1	0
800,5	0
801	0
801,4	0
801,8	0
802,2	0
802,7	-0
803,1	-0
803,5	-0
804	-0
804,4	0
804,8	0
805,3	0
805,7	-0
806,1	-0
806,6	-0
807	-0,001
807,4	-0,001
807,9	-0,001
808,3	-0,001
808,7	-0,001
809,2	-0,001
809,6	-0,002
810	-0,001
810,4	-0,001
810,9	-0,001
811,3	-0,001
811,7	-0,001
812,2	-0
812,6	-0
813	-0
813,5	-0
813,9	-0
814,3	-0
814,8	-0,001
815,2	-0,001
815,6	-0,001
816,1	-0,001
816,5	-0,001
816,9	-0,001
817,3	-0,001
817,8	-0,001
818,2	-0
818,6	-0
819,1	0
819,5	0
819,9	0,001
820,4	0
820,8	0
821,2	0
821,7	0
822,1	-0
822,5	-0
822,9	-0,001
823,4	-0,001
823,8	-0,001
824,2	-0,002
824,7	-0,001
825,1	-0,002
825,5	-0,001
826	-0,001
826,4	-0,001
826,8	-0,001
827,3	-0,001
827,7	-0,001
828,1	-0,001
828,5	-0,001
829	-0,001
829,4	-0
829,8	-0,001
830,3	-0
830,7	0
831,1	-0
831,6	-0
832	-0,001
832,4	-0
832,8	-0
833,3	-0
833,7	-0
834,1	-0
834,6	0
835	0,001
835,4	0
835,8	0,001
836,3	0,001
836,7	0
837,1	0
837,6	-0
838	-0
838,4	-0,001
838,9	-0,001
839,3	-0,001
839,7	-0,001
840,1	-0
840,6	-0
841	-0
841,4	-0
841,9	-0
842,3	-0,001
842,7	-0,001
843,1	-0
843,6	-0,001
844	-0
844,4	-0
844,9	-0
845,3	-0
845,7	-0
846,2	-0
846,6	-0,001
847	-0,001
847,4	-0,001
847,9	-0,001
848,3	-0,001
848,7	-0
849,2	-0,001
849,6	-0,001
850	-0,001
850,4	-0,001
850,9	-0,001
851,3	-0,001
851,7	-0,001
852,2	-0,001
852,6	-0,001
853	-0
853,4	-0
853,9	-0
854,3	-0
854,7	-0
855,2	-0
855,6	-0
856	0
856,4	-0
856,9	0
857,3	0,001
857,7	0
858,2	0
858,6	0
859	-0
859,4	-0,001
859,9	-0,001
860,3	-0,001
860,7	-0,001
861,1	-0,001
861,6	-0,001
862	-0,001
862,4	-0,001
862,9	-0,001
863,3	-0,001
863,7	-0,001
864,1	-0
864,6	0
865	0,001
865,4	0,001
865,9	0,001
866,3	0,002
866,7	0,001
867,1	0,002
867,6	0,002
868	0,002
868,4	0,002
868,8	0,001
869,3	0,001
869,7	0,001
870,1	0,001
870,6	0,001
871	0,001
871,4	0,001
871,8	0,001
872,3	0,001
872,7	0
873,1	0
873,5	-0,001
874	-0,001
874,4	-0
874,8	-0,001
875,3	-0,001
875,7	-0,001
876,1	-0
876,5	-0
877	-0
877,4	-0
877,8	0
878,2	-0
878,7	-0
879,1	-0,001
879,5	-0
879,9	-0,001
880,4	-0,001
880,8	-0,002
881,2	-0,001
881,7	-0,001
882,1	-0,001
882,5	-0,001
882,9	-0,001
883,4	-0,001
883,8	-0
884,2	-0,001
884,6	-0,001
885,1	-0,001
885,5	-0,001
885,9	-0,001
886,3	-0,001
886,8	-0,001
887,2	-0
887,6	0
888	0
888,5	0,001
888,9	0,001
889,3	0,001
889,8	0,001
890,2	0,001
890,6	0
891	0
891,5	0
891,9	0
892,3	0
892,7	0
893,2	0
893,6	0,001
894	0,001
894,4	0,001
894,9	0,001
895,3	0,001
895,7	0,001
896,1	0
896,6	0
897	0
897,4	-0
897,8	-0
898,3	-0
898,7	-0
899,1	-0,001
899,5	-0
900	-0,001
900,4	-0
900,8	-0,001
901,2	-0,001
901,7	-0
902,1	0
902,5	-0
902,9	-0
903,4	-0
903,8	0
904,2	-0
904,6	-0
905,1	0
905,5	0
905,9	0
906,3	0
906,8	-0
907,2	-0
907,6	-0,001
908	-0,001
908,5	-0,001
908,9	-0,001
909,3	-0,001
909,7	-0,001
910,2	-0,001
910,6	-0,001
911	-0,001
911,4	-0,001
911,9	-0,001
912,3	-0,001
912,7	-0
913,1	-0
913,6	-0
914	-0,001
914,4	-0,001
914,8	-0,001
915,3	-0,001
915,7	-0,001
916,1	-0,001
916,5	-0,001
916,9	-0,001
917,4	-0,001
917,8	-0,001
918,2	-0,001
918,6	-0,001
919,1	-0,001
919,5	-0
919,9	-0
920,3	0
920,8	-0
921,2	0
921,6	0
922	0
922,5	0
922,9	0
923,3	0
923,7	0
924,2	-0
924,6	0
925	-0
925,4	-0
925,8	-0
926,3	-0
926,7	0
927,1	-0
927,5	0
928	-0
928,4	-0,001
928,8	-0,001
929,2	-0,001
929,7	-0,001
930,1	-0,001
930,5	-0,001
930,9	-0
931,3	-0
931,8	0
932,2	0
932,6	-0
933	-0,001
933,5	-0,001
933,9	-0,001
934,3	-0,001
934,7	-0,001
935,2	-0,001
935,6	-0,001
936	-0,001
936,4	-0,001
936,8	-0,001
937,3	-0,001
937,7	-0,001
938,1	-0,002
938,5	-0,002
939	-0,002
939,4	-0,002
939,8	-0,003
940,2	-0,002
940,6	-0,002
941,1	-0,003
941,5	-0,003
941,9	-0,003
942,3	-0,002
942,8	-0,002
943,2	-0,003
943,6	-0,003
944	-0,002
944,4	-0,002
944,9	-0,001
945,3	-0,001
945,7	-0,001
946,1	-0
946,6	0,001
947	0
947,4	0,001
947,8	0
948,2	-0
948,7	-0
949,1	-0
949,5	-0,001
949,9	-0,001
950,3	-0,001
950,8	-0,001
951,2	-0,001
951,6	-0,001
952	-0
952,5	-0
952,9	-0
953,3	0,001
953,7	0
954,1	0
954,6	0,001
955	0,001
955,4	0,001
955,8	0,001
956,2	0,001
956,7	0,001
957,1	0,001
957,5	0,001
957,9	0,001
958,3	0,001
958,8	0
959,2	-0
959,6	-0
960	-0
960,5	-0
960,9	-0,001
961,3	-0,001
961,7	-0
962,1	-0
962,6	-0,001
963	-0,001
963,4	-0,001
963,8	-0,001
964,2	-0,002
964,7	-0,002
965,1	-0,002
965,5	-0,001
965,9	-0,002
966,3	-0,001
966,8	-0
967,2	-0
967,6	-0
968	-0
968,4	-0,001
968,9	-0
969,3	-0,001
969,7	-0,001
970,1	-0,001
970,5	-0
971	0
971,4	0
971,8	0
972,2	0
972,6	-0
973,1	-0
973,5	-0,001
973,9	-0,001
974,3	-0
974,7	0
975,2	0
975,6	0
976	-0
976,4	0
976,8	-0,001
977,3	-0,001
977,7	-0,002
978,1	-0,001
978,5	-0,001
978,9	-0,001
979,4	-0,001
979,8	-0,001
980,2	-0,001
980,6	-0
981	-0
981,5	-0
981,9	-0
982,3	0
982,7	0,001
983,1	0,001
983,6	0,001
984	0,001
984,4	0,001
984,8	0,001
985,2	0,002
985,6	0,001
986,1	0,001
986,5	0,001
986,9	0,001
987,3	0,001
987,7	0,001
988,2	0,001
988,6	0,001
989	0,001
989,4	0,001
989,8	0
990,3	0
990,7	-0
991,1	0
991,5	0
991,9	0
992,3	0
992,8	0,001
993,2	0,001
993,6	0,001
994	0,001
994,4	0
994,9	0
995,3	0
995,7	-0
996,1	-0,001
996,5	-0,001
996,9	-0,001
997,4	-0,001
997,8	-0,001
998,2	-0,001
998,6	-0,001
999	0
999,5	-0
999,9	0
1000,3	0
1000,7	0,001
1001,1	0,001
1001,5	0
1002	-0
1002,4	-0
1002,8	-0,001
1003,2	-0,001
1003,6	-0,001
1004	-0,001
1004,5	-0,001
1004,9	-0,001
1005,3	-0
1005,7	0
1006,1	0
1006,6	0
1007	0,001
1007,4	0,002
1007,8	0,002
1008,2	0,002
1008,6	0,001
1009,1	0,001
1009,5	0
1009,9	0
1010,3	-0
1010,7	-0
1011,1	-0
1011,6	-0
1012	0
1012,4	0,001
1012,8	0
1013,2	0
1013,6	-0
1014,1	-0
1014,5	-0,001
1014,9	-0,001
1015,3	-0
1015,7	-0,001
1016,1	-0,001
1016,6	-0
1017	-0
1017,4	-0
1017,8	-0,001
1018,2	-0,001
1018,6	-0,001
1019,1	-0,002
1019,5	-0,002
1019,9	-0,002
1020,3	-0,001
1020,7	-0,001
1021,1	-0,001
1021,6	-0,001
1022	-0,001
1022,4	-0,001
1022,8	-0,001
1023,2	-0,002
1023,6	-0,002
1024,1	-0,002
1024,5	-0,001
1024,9	-0,001
1025,3	-0
1025,7	0,001
1026,1	0
1026,6	0,001
1027	0,001
1027,4	0,001
1027,8	-0
1028,2	0
1028,6	-0
1029	0
1029,5	0
1029,9	0,001
1030,3	0,001
1030,7	0,002
1031,1	0,001
1031,5	0,001
1032	0,001
1032,4	0
1032,8	-0
1033,2	-0
1033,6	0,001
1034	0
1034,4	0
1034,9	0
1035,3	0
1035,7	0,001
1036,1	0
1036,5	-0,001
1036,9	-0,001
1037,4	-0,001
1037,8	-0,001
1038,2	-0
1038,6	-0,001
1039	-0,001
1039,4	-0
1039,8	0
1040,3	0
1040,7	0
1041,1	0
1041,5	0,001
1041,9	0
1042,3	-0
1042,7	-0,001
1043,2	-0,001
1043,6	-0,002
1044	-0,001
1044,4	-0,001
1044,8	-0,001
1045,2	-0,001
1045,6	-0,001
1046,1	-0
1046,5	0
1046,9	0
1047,3	-0
1047,7	-0,001
1048,1	-0,001
1048,5	-0,001
1049	-0,001
1049,4	-0,002
1049,8	-0,002
1050,2	-0,002
1050,6	-0,002
1051	-0,002
1051,4	-0,002
1051,9	-0,003
1052,3	-0,003
1052,7	-0,002
1053,1	-0,002
1053,5	-0,002
1053,9	-0,003
1054,3	-0,002
1054,8	-0,002
1055,2	-0,002
1055,6	-0,002
1056	-0,002
1056,4	-0,001
1056,8	-0,001
1057,2	-0,002
1057,6	-0,002
1058,1	-0,002
1058,5	-0,003
1058,9	-0,003
1059,3	-0,003
1059,7	-0,003
1060,1	-0,003
1060,5	-0,003
1061	-0,004
1061,4	-0,004
1061,8	-0,003
1062,2	-0,004
1062,6	-0,003
1063	-0,003
1063,4	-0,002
1063,8	-0,001
1064,3	-0,001
1064,7	-0,001
1065,1	-0,001
1065,5	-0,001
1065,9	-0
1066,3	-0,001
1066,7	-0,001
1067,1	-0,001
1067,6	-0,001
1068	-0
1068,4	-0
1068,8	-0
1069,2	-0,001
1069,6	-0,002
1070	-0,001
1070,4	-0,001
1070,9	-0,002
1071,3	-0
1071,7	-0,001
1072,1	-0,001
1072,5	-0,002
1072,9	-0,002
1073,3	-0,002
1073,7	-0,001
1074,2	-0,002
1074,6	-0,001
1075	-0
1075,4	0
1075,8	0,002
1076,2	0,002
1076,6	0,001
1077	0,002
1077,5	0
1077,9	0,001
1078,3	-0
1078,7	-0,001
1079,1	-0,001
1079,5	-0,001
1079,9	-0,002
1080,3	-0,002
1080,7	-0,003
1081,2	-0,001
1081,6	-0
1082	-0,001
1082,4	-0,001
1082,8	-0,001
1083,2	-0,002
1083,6	-0,002
1084	-0,002
1084,5	-0,003
1084,9	-0,002
1085,3	-0,002
1085,7	0
1086,1	0,003
1086,5	0,002
1086,9	0,001
1087,3	0,001
1087,7	0,002
1088,2	-0,001
1088,6	-0,003
1089	-0,004
1089,4	-0,003
1089,8	-0,002
1090,2	-0,004
1090,6	-0,004
1091	-0,003
1091,4	-0
1091,9	-0
1092,3	-0,001
1092,7	0,001
1093,1	0,002
1093,5	0,002
1093,9	0,003
1094,3	0,003
1094,7	0,004
1095,1	0,008
1095,5	0,008
1096	0,009
1096,4	0,004
1096,8	0,003
1097,2	-0,001
1097,6	-0,004
1098	-0,01
1098,4	-0,015
1098,8	-0,015
1099,2	-0,014
1099,6	-0,013
1100,1	-0,013
1100,5	-0,008
1100,9	-0,01
1101,3	-0,008
1101,7	-0,002
1102,1	-0,002
1102,5	-0,001
1102,9	0,007
1103,3	-0,001
1103,7	0
1104,2	-0,004
1104,6	-0,009
1105	-0,013
1105,4	-0,015
1105,8	-0,021
1106,2	-0,016
1106,6	-0,01
1107	-0,014
1107,4	-0,018
1107,8	0,012
1108,3	0,477
