Data from Absorbance_00090.txt Node
Date: Fri Aug 11 13:52:41 MSK 2023
User: vat
Spectrometer: MAYP114033
Trigger mode: 0
Integration Time (sec): 8,000000E-3
Scans to average: 10
Electric dark correction enabled: true
Nonlinearity correction enabled: false
Boxcar width: 3
XAxis mode: Wavelengths
Number of Pixels in Spectrum: 2068
>>>>>Begin Spectral Data<<<<<
199,4	-0
199,9	0,005
200,4	0,448
200,8	0,757
201,3	0,86
201,8	0,914
202,2	0,937
202,7	0,97
203,2	1,016
203,6	1,024
204,1	1,04
204,6	1,064
205	1,074
205,5	1,101
206	1,118
206,4	1,146
206,9	1,176
207,4	1,204
207,8	1,214
208,3	1,253
208,8	1,253
209,2	1,259
209,7	1,26
210,2	1,274
210,6	1,279
211,1	1,301
211,5	1,32
212	1,339
212,5	1,373
212,9	1,408
213,4	1,415
213,9	1,399
214,3	1,396
214,8	1,393
215,3	1,396
215,7	1,388
216,2	1,387
216,7	1,415
217,1	1,461
217,6	1,493
218,1	1,504
218,5	1,528
219	1,57
219,5	1,584
219,9	1,585
220,4	1,592
220,9	1,622
221,3	1,632
221,8	1,642
222,3	1,641
222,7	1,636
223,2	1,647
223,6	1,678
224,1	1,668
224,6	1,692
225	1,712
225,5	1,72
226	1,75
226,4	1,764
226,9	1,742
227,4	1,756
227,8	1,759
228,3	1,756
228,8	1,765
229,2	1,761
229,7	1,758
230,2	1,761
230,6	1,774
231,1	1,761
231,5	1,765
232	1,767
232,5	1,766
232,9	1,771
233,4	1,785
233,9	1,767
234,3	1,77
234,8	1,772
235,3	1,776
235,7	1,793
236,2	1,799
236,7	1,801
237,1	1,814
237,6	1,841
238,1	1,843
238,5	1,847
239	1,857
239,4	1,869
239,9	1,877
240,4	1,875
240,8	1,875
241,3	1,901
241,8	1,936
242,2	1,933
242,7	1,943
243,2	1,957
243,6	1,981
244,1	1,973
244,6	1,98
245	1,966
245,5	1,978
245,9	1,992
246,4	2,001
246,9	2,01
247,3	2,036
247,8	2,03
248,3	2,04
248,7	2,061
249,2	2,054
249,7	2,066
250,1	2,073
250,6	2,082
251	2,091
251,5	2,103
252	2,109
252,4	2,125
252,9	2,121
253,4	2,122
253,8	2,122
254,3	2,128
254,8	2,112
255,2	2,115
255,7	2,108
256,1	2,112
256,6	2,118
257,1	2,129
257,5	2,136
258	2,144
258,5	2,133
258,9	2,149
259,4	2,159
259,9	2,153
260,3	2,157
260,8	2,149
261,2	2,173
261,7	2,177
262,2	2,159
262,6	2,15
263,1	2,146
263,6	2,137
264	2,143
264,5	2,122
264,9	2,118
265,4	2,11
265,9	2,11
266,3	2,113
266,8	2,107
267,3	2,087
267,7	2,082
268,2	2,085
268,7	2,082
269,1	2,04
269,6	2,037
270	2,015
270,5	2,001
271	1,982
271,4	1,943
271,9	1,914
272,4	1,884
272,8	1,842
273,3	1,816
273,7	1,782
274,2	1,739
274,7	1,7
275,1	1,662
275,6	1,628
276,1	1,581
276,5	1,53
277	1,479
277,4	1,426
277,9	1,377
278,4	1,328
278,8	1,277
279,3	1,226
279,8	1,177
280,2	1,129
280,7	1,083
281,1	1,037
281,6	0,993
282,1	0,952
282,5	0,914
283	0,88
283,4	0,848
283,9	0,819
284,4	0,791
284,8	0,766
285,3	0,745
285,8	0,725
286,2	0,707
286,7	0,692
287,1	0,678
287,6	0,668
288,1	0,659
288,5	0,65
289	0,644
289,5	0,638
289,9	0,632
290,4	0,628
290,8	0,623
291,3	0,619
291,8	0,617
292,2	0,614
292,7	0,612
293,1	0,608
293,6	0,606
294,1	0,603
294,5	0,601
295	0,598
295,5	0,596
295,9	0,594
296,4	0,592
296,8	0,59
297,3	0,589
297,8	0,587
298,2	0,584
298,7	0,581
299,1	0,58
299,6	0,579
300,1	0,577
300,5	0,574
301	0,572
301,5	0,569
301,9	0,567
302,4	0,565
302,8	0,561
303,3	0,559
303,8	0,557
304,2	0,554
304,7	0,552
305,1	0,548
305,6	0,545
306,1	0,542
306,5	0,539
307	0,535
307,4	0,532
307,9	0,528
308,4	0,524
308,8	0,521
309,3	0,517
309,8	0,514
310,2	0,51
310,7	0,507
311,1	0,504
311,6	0,501
312,1	0,496
312,5	0,492
313	0,489
313,4	0,484
313,9	0,48
314,4	0,476
314,8	0,471
315,3	0,468
315,7	0,464
316,2	0,459
316,7	0,455
317,1	0,45
317,6	0,445
318	0,439
318,5	0,435
319	0,431
319,4	0,426
319,9	0,422
320,3	0,418
320,8	0,413
321,3	0,409
321,7	0,404
322,2	0,398
322,6	0,393
323,1	0,389
323,6	0,384
324	0,379
324,5	0,374
324,9	0,37
325,4	0,366
325,9	0,362
326,3	0,357
326,8	0,353
327,2	0,349
327,7	0,344
328,2	0,34
328,6	0,336
329,1	0,331
329,5	0,327
330	0,323
330,5	0,318
330,9	0,314
331,4	0,31
331,8	0,305
332,3	0,3
332,8	0,296
333,2	0,292
333,7	0,289
334,1	0,285
334,6	0,28
335,1	0,277
335,5	0,273
336	0,269
336,4	0,266
336,9	0,261
337,4	0,258
337,8	0,253
338,3	0,249
338,7	0,245
339,2	0,242
339,7	0,237
340,1	0,233
340,6	0,23
341	0,226
341,5	0,222
342	0,219
342,4	0,215
342,9	0,212
343,3	0,208
343,8	0,206
344,2	0,203
344,7	0,2
345,2	0,197
345,6	0,194
346,1	0,192
346,5	0,189
347	0,186
347,5	0,183
347,9	0,181
348,4	0,177
348,8	0,174
349,3	0,171
349,8	0,168
350,2	0,165
350,7	0,163
351,1	0,161
351,6	0,158
352	0,155
352,5	0,153
353	0,151
353,4	0,148
353,9	0,146
354,3	0,144
354,8	0,143
355,3	0,141
355,7	0,138
356,2	0,136
356,6	0,134
357,1	0,131
357,5	0,129
358	0,126
358,5	0,123
358,9	0,122
359,4	0,121
359,8	0,119
360,3	0,118
360,8	0,117
361,2	0,115
361,7	0,114
362,1	0,112
362,6	0,11
363	0,107
363,5	0,106
364	0,105
364,4	0,103
364,9	0,102
365,3	0,1
365,8	0,099
366,3	0,097
366,7	0,095
367,2	0,093
367,6	0,092
368,1	0,09
368,5	0,089
369	0,088
369,5	0,087
369,9	0,086
370,4	0,085
370,8	0,083
371,3	0,082
371,7	0,081
372,2	0,079
372,7	0,079
373,1	0,078
373,6	0,077
374	0,075
374,5	0,074
374,9	0,073
375,4	0,072
375,9	0,071
376,3	0,071
376,8	0,069
377,2	0,069
377,7	0,068
378,2	0,067
378,6	0,066
379,1	0,064
379,5	0,062
380	0,062
380,4	0,061
380,9	0,06
381,4	0,059
381,8	0,059
382,3	0,058
382,7	0,058
383,2	0,057
383,6	0,056
384,1	0,056
384,6	0,055
385	0,055
385,5	0,054
385,9	0,052
386,4	0,052
386,8	0,051
387,3	0,051
387,7	0,05
388,2	0,049
388,7	0,048
389,1	0,047
389,6	0,047
390	0,046
390,5	0,045
390,9	0,044
391,4	0,044
391,9	0,043
392,3	0,043
392,8	0,042
393,2	0,041
393,7	0,041
394,1	0,041
394,6	0,041
395,1	0,041
395,5	0,041
396	0,041
396,4	0,04
396,9	0,039
397,3	0,039
397,8	0,038
398,2	0,038
398,7	0,037
399,2	0,037
399,6	0,037
400,1	0,037
400,5	0,036
401	0,035
401,4	0,034
401,9	0,034
402,4	0,033
402,8	0,033
403,3	0,032
403,7	0,032
404,2	0,032
404,6	0,032
405,1	0,031
405,5	0,031
406	0,031
406,5	0,03
406,9	0,03
407,4	0,029
407,8	0,029
408,3	0,028
408,7	0,027
409,2	0,027
409,6	0,027
410,1	0,027
410,6	0,027
411	0,026
411,5	0,026
411,9	0,026
412,4	0,026
412,8	0,026
413,3	0,025
413,7	0,025
414,2	0,025
414,7	0,024
415,1	0,024
415,6	0,024
416	0,023
416,5	0,022
416,9	0,022
417,4	0,023
417,8	0,022
418,3	0,021
418,8	0,022
419,2	0,021
419,7	0,021
420,1	0,021
420,6	0,02
421	0,02
421,5	0,02
421,9	0,019
422,4	0,019
422,8	0,019
423,3	0,019
423,8	0,019
424,2	0,018
424,7	0,018
425,1	0,017
425,6	0,017
426	0,016
426,5	0,016
426,9	0,015
427,4	0,015
427,9	0,016
428,3	0,015
428,8	0,015
429,2	0,015
429,7	0,015
430,1	0,015
430,6	0,014
431	0,014
431,5	0,013
431,9	0,013
432,4	0,012
432,8	0,012
433,3	0,012
433,8	0,012
434,2	0,012
434,7	0,011
435,1	0,011
435,6	0,011
436	0,011
436,5	0,011
436,9	0,01
437,4	0,01
437,8	0,011
438,3	0,011
438,8	0,01
439,2	0,01
439,7	0,01
440,1	0,009
440,6	0,008
441	0,008
441,5	0,008
441,9	0,008
442,4	0,008
442,8	0,008
443,3	0,008
443,7	0,009
444,2	0,009
444,7	0,008
445,1	0,008
445,6	0,007
446	0,008
446,5	0,008
446,9	0,008
447,4	0,007
447,8	0,008
448,3	0,008
448,7	0,008
449,2	0,007
449,6	0,007
450,1	0,007
450,6	0,007
451	0,007
451,5	0,006
451,9	0,006
452,4	0,006
452,8	0,006
453,3	0,005
453,7	0,005
454,2	0,005
454,6	0,005
455,1	0,004
455,5	0,004
456	0,004
456,4	0,004
456,9	0,004
457,3	0,004
457,8	0,004
458,3	0,004
458,7	0,004
459,2	0,003
459,6	0,004
460,1	0,003
460,5	0,003
461	0,003
461,4	0,003
461,9	0,003
462,3	0,002
462,8	0,002
463,2	0,002
463,7	0,003
464,1	0,003
464,6	0,003
465	0,003
465,5	0,004
466	0,003
466,4	0,004
466,9	0,003
467,3	0,003
467,8	0,003
468,2	0,002
468,7	0,003
469,1	0,003
469,6	0,003
470	0,002
470,5	0,003
470,9	0,003
471,4	0,003
471,8	0,003
472,3	0,002
472,7	0,002
473,2	0,002
473,6	0,002
474,1	0,002
474,5	0,002
475	0,002
475,4	0,002
475,9	0,002
476,4	0,002
476,8	0,002
477,3	0,002
477,7	0,001
478,2	0,002
478,6	0,002
479,1	0,002
479,5	0,002
480	0,002
480,4	0,002
480,9	0,003
481,3	0,002
481,8	0,002
482,2	0,001
482,7	0,001
483,1	0,001
483,6	0
484	-0
484,5	-0,001
484,9	-0,001
485,4	-0,001
485,8	0,001
486,3	0,001
486,7	0,001
487,2	0,001
487,6	0,002
488,1	0,002
488,5	0,003
489	0,001
489,4	0,001
489,9	0,002
490,4	0,002
490,8	0,003
491,3	0,002
491,7	0,002
492,2	0,002
492,6	0,002
493,1	0,002
493,5	0,001
494	0
494,4	0
494,9	0,001
495,3	0,001
495,8	0,001
496,2	0,001
496,7	0,001
497,1	0,002
497,6	0,001
498	0,002
498,5	0,002
498,9	0,002
499,4	0,001
499,8	0,001
500,3	0,001
500,7	0,001
501,2	0
501,6	0
502,1	0
502,5	0
503	0
503,4	-0
503,9	-0
504,3	0
504,8	0
505,2	0
505,7	0
506,1	0
506,6	0,001
507	0,001
507,5	0,001
507,9	0,001
508,4	0,001
508,8	0,001
509,3	0,001
509,7	0,001
510,2	0,001
510,6	0,001
511,1	0
511,5	-0
512	-0
512,4	-0
512,9	-0
513,3	-0,001
513,8	0
514,2	0,001
514,7	0,001
515,1	0,002
515,6	0,001
516	0,001
516,5	0,002
516,9	0,001
517,4	0,001
517,8	0
518,3	0
518,7	0
519,2	0
519,6	0
520,1	0,001
520,5	0
521	0
521,4	0,001
521,9	0
522,3	0,001
522,8	0
523,2	-0
523,7	0,001
524,1	0,001
524,6	0
525	0
525,5	0
525,9	-0
526,4	-0
526,8	-0
527,3	-0
527,7	0
528,2	-0
528,6	-0
529,1	0
529,5	0,001
530	0,001
530,4	0,001
530,9	0,001
531,3	0,001
531,8	0,001
532,2	0,001
532,6	0,001
533,1	0,001
533,5	0,001
534	0,001
534,4	0,001
534,9	0
535,3	0
535,8	-0
536,2	-0,001
536,7	-0,002
537,1	-0,002
537,6	-0,002
538	-0,001
538,5	-0,002
538,9	-0,001
539,4	-0
539,8	-0
540,3	0
540,7	0
541,2	-0
541,6	-0
542,1	-0,001
542,5	-0,001
543	-0,002
543,4	-0,002
543,9	-0,002
544,3	-0,002
544,8	-0,003
545,2	-0,003
545,7	-0,002
546,1	-0,001
546,5	-0,001
547	-0,001
547,4	0
547,9	0,001
548,3	0
548,8	0,001
549,2	0
549,7	0
550,1	-0
550,6	-0,001
551	-0
551,5	0
551,9	0
552,4	0
552,8	0,001
553,3	0,001
553,7	0,001
554,2	0
554,6	-0
555,1	-0,001
555,5	-0
555,9	-0,001
556,4	-0,001
556,8	-0,001
557,3	-0,001
557,7	-0,001
558,2	-0,001
558,6	-0,001
559,1	-0,001
559,5	-0
560	-0,001
560,4	-0,001
560,9	-0,001
561,3	-0,001
561,8	0
562,2	0
562,7	-0
563,1	0
563,6	0
564	0,001
564,4	0,001
564,9	0
565,3	0,001
565,8	0,001
566,2	0,001
566,7	0,001
567,1	0,001
567,6	0,001
568	0,001
568,5	-0
568,9	-0
569,4	0
569,8	-0
570,3	-0,001
570,7	-0,001
571,1	-0,001
571,6	-0
572	-0
572,5	-0,001
572,9	-0
573,4	-0
573,8	-0,001
574,3	-0,001
574,7	-0,001
575,2	-0,001
575,6	-0,001
576,1	-0,001
576,5	-0,001
576,9	-0,001
577,4	-0,001
577,8	-0,001
578,3	-0,001
578,7	-0,001
579,2	-0,001
579,6	-0
580,1	-0
580,5	-0
581	0
581,4	0
581,9	-0
582,3	-0,001
582,7	-0,001
583,2	-0
583,6	-0
584,1	-0
584,5	-0,001
585	-0
585,4	0
585,9	-0
586,3	-0
586,8	0
587,2	-0
587,6	-0
588,1	-0
588,5	-0
589	-0,001
589,4	-0,001
589,9	-0,001
590,3	-0,001
590,8	-0,001
591,2	-0
591,7	0
592,1	0,001
592,5	0,001
593	0
593,4	0
593,9	0
594,3	-0
594,8	0
595,2	-0
595,7	-0
596,1	-0
596,6	-0
597	-0
597,4	-0
597,9	-0,001
598,3	-0,001
598,8	-0,002
599,2	-0,002
599,7	-0,002
600,1	-0,002
600,6	-0,001
601	-0,001
601,4	-0,001
601,9	-0,002
602,3	-0,001
602,8	-0,001
603,2	-0,002
603,7	-0,002
604,1	-0,002
604,6	-0,002
605	-0,001
605,4	-0,001
605,9	-0,001
606,3	-0,001
606,8	-0
607,2	-0,001
607,7	-0,001
608,1	-0,001
608,6	-0,001
609	-0,001
609,4	-0,001
609,9	-0,001
610,3	-0,001
610,8	-0,001
611,2	-0,001
611,7	-0
612,1	-0,001
612,6	-0,001
613	-0,001
613,4	-0,001
613,9	-0,001
614,3	-0,001
614,8	-0,001
615,2	0
615,7	-0
616,1	-0
616,6	-0
617	-0
617,4	-0
617,9	-0
618,3	-0,001
618,8	-0
619,2	-0
619,7	0
620,1	0
620,5	0
621	-0
621,4	-0
621,9	-0
622,3	0
622,8	0
623,2	0
623,6	0
624,1	0
624,5	0
625	-0
625,4	0
625,9	-0
626,3	-0
626,8	-0
627,2	-0
627,6	-0
628,1	0
628,5	-0
629	0
629,4	0
629,9	0
630,3	0
630,7	0
631,2	0,001
631,6	0,001
632,1	0
632,5	0
633	0
633,4	0
633,8	0
634,3	0
634,7	0
635,2	0
635,6	0
636,1	0,001
636,5	0,001
636,9	0
637,4	0
637,8	0
638,3	0
638,7	0
639,2	-0
639,6	-0
640	-0
640,5	-0
640,9	-0
641,4	-0
641,8	-0,001
642,2	-0,001
642,7	-0,001
643,1	-0,001
643,6	-0,001
644	-0,001
644,5	-0,001
644,9	-0,001
645,3	-0
645,8	0
646,2	0
646,7	0
647,1	0
647,6	0
648	0
648,4	0
648,9	-0
649,3	-0
649,8	0
650,2	-0
650,6	-0
651,1	-0,001
651,5	-0,001
652	-0,001
652,4	-0,001
652,9	-0,002
653,3	-0,002
653,7	-0,002
654,2	-0,002
654,6	-0,002
655,1	-0,002
655,5	-0,001
655,9	-0,001
656,4	-0,001
656,8	0
657,3	0,001
657,7	0,002
658,2	0,003
658,6	0,004
659	0,005
659,5	0,008
659,9	0,009
660,4	0,006
660,8	0,004
661,2	0,002
661,7	0,001
662,1	0
662,6	-0
663	-0,001
663,4	-0,001
663,9	-0,001
664,3	-0,001
664,8	-0,001
665,2	-0,001
665,6	-0,001
666,1	-0,001
666,5	-0,001
667	-0,001
667,4	-0,001
667,9	-0,001
668,3	-0,001
668,7	-0,001
669,2	-0,001
669,6	-0,001
670,1	-0,001
670,5	-0,001
670,9	-0,001
671,4	-0,001
671,8	-0,001
672,3	-0,002
672,7	-0,002
673,1	-0,002
673,6	-0,002
674	-0,002
674,5	-0,002
674,9	-0,002
675,3	-0,002
675,8	-0,001
676,2	-0,001
676,7	-0,001
677,1	-0,001
677,5	-0,001
678	-0,001
678,4	-0,001
678,9	-0,001
679,3	-0,001
679,7	-0,001
680,2	-0,001
680,6	-0,001
681,1	-0,001
681,5	-0
681,9	-0
682,4	-0
682,8	-0
683,3	-0
683,7	-0,001
684,1	-0
684,6	-0,001
685	-0,001
685,5	-0,002
685,9	-0,002
686,3	-0,002
686,8	-0,001
687,2	-0,001
687,7	-0,001
688,1	-0,001
688,5	-0,001
689	-0
689,4	-0
689,9	-0,001
690,3	-0,001
690,7	-0,001
691,2	-0,001
691,6	-0,001
692	-0,001
692,5	-0,001
692,9	-0,001
693,4	-0,001
693,8	-0,001
694,2	-0,001
694,7	-0,001
695,1	-0,001
695,6	-0,001
696	-0,001
696,4	-0,001
696,9	-0,001
697,3	-0,001
697,8	-0,001
698,2	-0,001
698,6	-0,001
699,1	-0,001
699,5	-0,001
699,9	-0,001
700,4	-0,001
700,8	-0,001
701,3	-0,001
701,7	-0,001
702,1	-0
702,6	-0
703	-0
703,5	0
703,9	0
704,3	-0
704,8	0
705,2	0
705,6	-0
706,1	-0
706,5	-0,001
707	-0,001
707,4	-0,001
707,8	-0,001
708,3	-0,001
708,7	-0,001
709,2	-0,001
709,6	-0,001
710	-0,001
710,5	-0,001
710,9	-0,001
711,3	-0,001
711,8	-0,002
712,2	-0,001
712,7	-0,002
713,1	-0,002
713,5	-0,002
714	-0,002
714,4	-0,002
714,8	-0,002
715,3	-0,002
715,7	-0,002
716,2	-0,002
716,6	-0,001
717	-0,001
717,5	-0,001
717,9	-0,001
718,3	-0,001
718,8	-0,001
719,2	-0,001
719,7	-0,002
720,1	-0,001
720,5	-0,001
721	-0,001
721,4	-0,001
721,8	-0,001
722,3	-0,001
722,7	-0,001
723,2	-0,001
723,6	-0,001
724	-0,001
724,5	-0,001
724,9	-0,001
725,3	-0,001
725,8	-0,001
726,2	-0,001
726,7	-0,001
727,1	-0,001
727,5	-0,001
728	-0,001
728,4	-0,001
728,8	-0,001
729,3	-0,001
729,7	-0,001
730,1	-0,001
730,6	-0,001
731	-0,002
731,5	-0,002
731,9	-0,001
732,3	-0,001
732,8	-0,001
733,2	-0,001
733,6	-0,001
734,1	-0,001
734,5	-0,001
734,9	-0,001
735,4	-0,001
735,8	-0,001
736,3	-0,001
736,7	-0,001
737,1	-0,001
737,6	-0,001
738	-0,001
738,4	-0,001
738,9	-0,001
739,3	-0,002
739,7	-0,002
740,2	-0,002
740,6	-0,002
741,1	-0,002
741,5	-0,002
741,9	-0,002
742,4	-0,002
742,8	-0,002
743,2	-0,001
743,7	-0,001
744,1	-0,001
744,5	-0,001
745	-0,001
745,4	-0,001
745,8	-0,001
746,3	-0,001
746,7	-0,001
747,2	-0,001
747,6	-0,001
748	-0,001
748,5	-0,002
748,9	-0,002
749,3	-0,002
749,8	-0,001
750,2	-0,001
750,6	-0,001
751,1	-0,001
751,5	-0,001
751,9	-0,001
752,4	-0,001
752,8	-0
753,3	-0
753,7	0
754,1	-0
754,6	-0
755	-0
755,4	-0
755,9	-0
756,3	-0
756,7	-0
757,2	0
757,6	0
758	-0
758,5	-0
758,9	-0
759,3	-0
759,8	-0
760,2	-0
760,6	0
761,1	-0
761,5	0
761,9	0
762,4	0
762,8	0
763,3	0
763,7	0
764,1	0
764,6	0
765	-0
765,4	0
765,9	0
766,3	0
766,7	0,001
767,2	0,001
767,6	0,001
768	0,002
768,5	0,002
768,9	0,002
769,3	0,002
769,8	0,002
770,2	0,001
770,6	0,001
771,1	0,001
771,5	0
771,9	0
772,4	0
772,8	0
773,2	-0
773,7	-0
774,1	0
774,5	0
775	0
775,4	-0
775,8	-0
776,3	-0
776,7	-0
777,1	-0
777,6	-0
778	-0
778,4	-0
778,9	0
779,3	0
779,7	0
780,2	-0
780,6	0
781	0
781,5	0
781,9	0
782,3	0
782,8	0
783,2	0,001
783,6	0,001
784,1	0,001
784,5	0,001
784,9	0,001
785,4	0,001
785,8	0,001
786,2	0,001
786,7	0,001
787,1	0,001
787,5	0,001
788	0,001
788,4	0,001
788,8	0,001
789,3	0
789,7	0
790,1	-0
790,6	-0
791	-0,001
791,4	-0,001
791,9	-0
792,3	-0
792,7	-0
793,2	-0
793,6	-0
794	-0
794,5	-0,001
794,9	-0,001
795,3	-0
795,8	-0
796,2	0
796,6	0
797,1	0,001
797,5	0,001
797,9	0,001
798,4	0,001
798,8	0,001
799,2	0,001
799,7	0,001
800,1	0
800,5	-0
801	-0
801,4	-0,001
801,8	-0
802,2	0
802,7	0
803,1	0,001
803,5	0,001
804	0,001
804,4	0,001
804,8	0,001
805,3	0,001
805,7	0
806,1	-0
806,6	-0
807	-0,001
807,4	-0,001
807,9	-0,001
808,3	-0,001
808,7	-0
809,2	-0
809,6	-0
810	-0
810,4	-0,001
810,9	-0,001
811,3	-0,001
811,7	-0,001
812,2	-0,001
812,6	-0,001
813	-0,001
813,5	-0,001
813,9	-0,001
814,3	-0,001
814,8	-0,001
815,2	-0,001
815,6	-0,001
816,1	-0,002
816,5	-0,002
816,9	-0,002
817,3	-0,002
817,8	-0,003
818,2	-0,003
818,6	-0,003
819,1	-0,002
819,5	-0,002
819,9	-0,002
820,4	-0,002
820,8	-0,002
821,2	-0,002
821,7	-0,002
822,1	-0,002
822,5	-0,002
822,9	-0,002
823,4	-0,002
823,8	-0,002
824,2	-0,002
824,7	-0,002
825,1	-0,002
825,5	-0,002
826	-0,001
826,4	-0,001
826,8	-0,001
827,3	-0,001
827,7	-0,001
828,1	-0,001
828,5	-0
829	-0
829,4	-0
829,8	-0
830,3	0
830,7	0,001
831,1	0
831,6	0
832	0
832,4	0
832,8	0
833,3	0
833,7	-0
834,1	-0,001
834,6	-0,001
835	-0,001
835,4	-0,001
835,8	-0,002
836,3	-0,002
836,7	-0,002
837,1	-0,002
837,6	-0,002
838	-0,002
838,4	-0,003
838,9	-0,002
839,3	-0,002
839,7	-0,002
840,1	-0,002
840,6	-0,001
841	-0,001
841,4	-0
841,9	-0,001
842,3	-0,001
842,7	-0,001
843,1	-0,001
843,6	-0,001
844	-0,001
844,4	-0,001
844,9	-0,001
845,3	-0,002
845,7	-0,002
846,2	-0,002
846,6	-0,002
847	-0,002
847,4	-0,002
847,9	-0,002
848,3	-0,002
848,7	-0,001
849,2	-0,001
849,6	-0,001
850	-0,001
850,4	-0,001
850,9	-0,001
851,3	-0,001
851,7	-0,001
852,2	-0,001
852,6	-0,001
853	-0
853,4	-0
853,9	0
854,3	0,001
854,7	0,001
855,2	0
855,6	0
856	0
856,4	0
856,9	-0
857,3	-0
857,7	-0,001
858,2	-0,001
858,6	-0,001
859	-0,001
859,4	-0,001
859,9	-0,001
860,3	-0,001
860,7	-0,001
861,1	-0,001
861,6	-0,001
862	-0,001
862,4	-0,001
862,9	-0,001
863,3	-0,001
863,7	-0,001
864,1	-0,001
864,6	-0,001
865	-0,001
865,4	-0,001
865,9	-0,001
866,3	-0,001
866,7	-0,001
867,1	-0,001
867,6	-0,001
868	-0,001
868,4	-0,001
868,8	-0,001
869,3	-0,001
869,7	-0,001
870,1	-0,001
870,6	-0,001
871	-0,001
871,4	-0,001
871,8	-0,001
872,3	-0,001
872,7	-0,001
873,1	-0,002
873,5	-0,002
874	-0,002
874,4	-0,003
874,8	-0,003
875,3	-0,003
875,7	-0,003
876,1	-0,003
876,5	-0,003
877	-0,003
877,4	-0,003
877,8	-0,002
878,2	-0,002
878,7	-0,002
879,1	-0,002
879,5	-0,002
879,9	-0,001
880,4	-0,001
880,8	-0,001
881,2	-0,001
881,7	-0
882,1	-0
882,5	-0,001
882,9	-0,001
883,4	-0,001
883,8	-0,001
884,2	-0,001
884,6	-0,001
885,1	-0,001
885,5	-0,001
885,9	-0,001
886,3	-0,001
886,8	-0,001
887,2	-0,001
887,6	-0,001
888	-0,001
888,5	-0,001
888,9	-0,002
889,3	-0,002
889,8	-0,002
890,2	-0,002
890,6	-0,002
891	-0,002
891,5	-0,001
891,9	-0,001
892,3	-0,001
892,7	-0,001
893,2	-0,001
893,6	-0,001
894	-0,001
894,4	-0,001
894,9	-0,001
895,3	-0,001
895,7	-0,001
896,1	-0,001
896,6	-0,001
897	-0,001
897,4	-0,001
897,8	-0,001
898,3	-0,001
898,7	-0,001
899,1	-0,002
899,5	-0,001
900	-0,002
900,4	-0,002
900,8	-0,001
901,2	-0,001
901,7	-0,001
902,1	-0,001
902,5	-0,001
902,9	-0,001
903,4	-0,001
903,8	-0,001
904,2	-0,002
904,6	-0,002
905,1	-0,002
905,5	-0,002
905,9	-0,002
906,3	-0,002
906,8	-0,003
907,2	-0,003
907,6	-0,003
908	-0,003
908,5	-0,003
908,9	-0,003
909,3	-0,003
909,7	-0,003
910,2	-0,004
910,6	-0,004
911	-0,003
911,4	-0,003
911,9	-0,003
912,3	-0,002
912,7	-0,002
913,1	-0,002
913,6	-0,002
914	-0,001
914,4	-0,002
914,8	-0,002
915,3	-0,002
915,7	-0,002
916,1	-0,002
916,5	-0,002
916,9	-0,002
917,4	-0,002
917,8	-0,001
918,2	-0,001
918,6	-0,001
919,1	-0
919,5	0
919,9	0
920,3	0,001
920,8	0
921,2	0
921,6	-0
922	-0
922,5	-0,001
922,9	-0,001
923,3	-0,001
923,7	-0,002
924,2	-0,001
924,6	-0,001
925	-0,001
925,4	-0,001
925,8	-0,001
926,3	-0,001
926,7	-0,001
927,1	-0,001
927,5	-0,001
928	-0,001
928,4	-0,001
928,8	-0,001
929,2	-0,001
929,7	-0,002
930,1	-0,002
930,5	-0,002
930,9	-0,002
931,3	-0,002
931,8	-0,002
932,2	-0,002
932,6	-0,002
933	-0,002
933,5	-0,002
933,9	-0,002
934,3	-0,002
934,7	-0,002
935,2	-0,002
935,6	-0,001
936	-0,001
936,4	-0,001
936,8	0
937,3	0
937,7	0
938,1	0
938,5	0
939	-0
939,4	-0
939,8	-0,001
940,2	-0
940,6	-0,001
941,1	-0,001
941,5	-0,001
941,9	-0,001
942,3	-0,001
942,8	-0,001
943,2	-0,002
943,6	-0,002
944	-0,001
944,4	-0,001
944,9	-0,001
945,3	-0
945,7	-0
946,1	-0,001
946,6	-0
947	-0
947,4	-0,001
947,8	-0,001
948,2	-0,001
948,7	-0,002
949,1	-0,002
949,5	-0,002
949,9	-0,002
950,3	-0,003
950,8	-0,003
951,2	-0,003
951,6	-0,003
952	-0,003
952,5	-0,002
952,9	-0,003
953,3	-0,002
953,7	-0,002
954,1	-0,002
954,6	-0,002
955	-0,002
955,4	-0,002
955,8	-0,001
956,2	-0,002
956,7	-0,001
957,1	-0,001
957,5	-0,001
957,9	-0,001
958,3	-0,001
958,8	-0,002
959,2	-0,002
959,6	-0,002
960	-0,002
960,5	-0,002
960,9	-0,002
961,3	-0,002
961,7	-0,002
962,1	-0,001
962,6	-0,002
963	-0,001
963,4	-0,002
963,8	-0,002
964,2	-0,002
964,7	-0,002
965,1	-0,002
965,5	-0,002
965,9	-0,002
966,3	-0,001
966,8	-0
967,2	-0
967,6	-0
968	-0
968,4	-0,001
968,9	-0,001
969,3	-0,001
969,7	-0,002
970,1	-0,002
970,5	-0,002
971	-0,002
971,4	-0,002
971,8	-0,002
972,2	-0,003
972,6	-0,002
973,1	-0,003
973,5	-0,002
973,9	-0,002
974,3	-0,002
974,7	-0,001
975,2	-0
975,6	-0
976	-0
976,4	-0,001
976,8	-0,001
977,3	-0,001
977,7	-0,002
978,1	-0,002
978,5	-0,002
978,9	-0,002
979,4	-0,002
979,8	-0,002
980,2	-0,002
980,6	-0,001
981	-0,001
981,5	-0,001
981,9	-0,001
982,3	-0,001
982,7	-0
983,1	-0
983,6	-0
984	-0,001
984,4	-0,002
984,8	-0,002
985,2	-0,001
985,6	-0,002
986,1	-0,002
986,5	-0,001
986,9	-0,001
987,3	-0,001
987,7	-0,001
988,2	-0,002
988,6	-0,002
989	-0,002
989,4	-0,002
989,8	-0,002
990,3	-0,003
990,7	-0,003
991,1	-0,003
991,5	-0,002
991,9	-0,003
992,3	-0,003
992,8	-0,002
993,2	-0,002
993,6	-0,002
994	-0,002
994,4	-0,002
994,9	-0,002
995,3	-0,001
995,7	-0,001
996,1	-0,001
996,5	-0,001
996,9	-0,001
997,4	-0,001
997,8	-0,001
998,2	-0,001
998,6	-0,001
999	-0
999,5	-0
999,9	0
1000,3	0
1000,7	0,001
1001,1	0
1001,5	-0
1002	-0,001
1002,4	-0,001
1002,8	-0,002
1003,2	-0,002
1003,6	-0,002
1004	-0,002
1004,5	-0,003
1004,9	-0,003
1005,3	-0,003
1005,7	-0,003
1006,1	-0,003
1006,6	-0,003
1007	-0,002
1007,4	-0,002
1007,8	-0,002
1008,2	-0,003
1008,6	-0,003
1009,1	-0,003
1009,5	-0,004
1009,9	-0,004
1010,3	-0,004
1010,7	-0,004
1011,1	-0,004
1011,6	-0,004
1012	-0,004
1012,4	-0,005
1012,8	-0,005
1013,2	-0,005
1013,6	-0,006
1014,1	-0,005
1014,5	-0,005
1014,9	-0,005
1015,3	-0,004
1015,7	-0,004
1016,1	-0,004
1016,6	-0,003
1017	-0,003
1017,4	-0,004
1017,8	-0,004
1018,2	-0,004
1018,6	-0,003
1019,1	-0,004
1019,5	-0,005
1019,9	-0,005
1020,3	-0,004
1020,7	-0,004
1021,1	-0,004
1021,6	-0,003
1022	-0,002
1022,4	-0,002
1022,8	-0,002
1023,2	-0,002
1023,6	-0,001
1024,1	-0,001
1024,5	-0,001
1024,9	0
1025,3	0
1025,7	0,001
1026,1	0
1026,6	0
1027	-0
1027,4	-0
1027,8	-0,001
1028,2	-0
1028,6	-0
1029	0
1029,5	0
1029,9	0,001
1030,3	0,001
1030,7	0,002
1031,1	0,002
1031,5	0,002
1032	0,001
1032,4	0,001
1032,8	-0
1033,2	-0,001
1033,6	-0
1034	-0
1034,4	-0
1034,9	-0,001
1035,3	-0
1035,7	0
1036,1	0
1036,5	-0
1036,9	-0,001
1037,4	-0,001
1037,8	-0
1038,2	-0
1038,6	-0,002
1039	-0,001
1039,4	-0,002
1039,8	-0,002
1040,3	-0,002
1040,7	-0,002
1041,1	-0,002
1041,5	-0,002
1041,9	-0,002
1042,3	-0,003
1042,7	-0,003
1043,2	-0,003
1043,6	-0,003
1044	-0,003
1044,4	-0,003
1044,8	-0,003
1045,2	-0,002
1045,6	-0,001
1046,1	-0
1046,5	-0,001
1046,9	-0
1047,3	-0,001
1047,7	-0,001
1048,1	-0,001
1048,5	-0,001
1049	-0,002
1049,4	-0,002
1049,8	-0,002
1050,2	-0,002
1050,6	-0,002
1051	-0,002
1051,4	-0,003
1051,9	-0,002
1052,3	-0,002
1052,7	-0,002
1053,1	-0,002
1053,5	-0,001
1053,9	-0,001
1054,3	-0,001
1054,8	-0,002
1055,2	-0,002
1055,6	-0,002
1056	-0,002
1056,4	-0,002
1056,8	-0,001
1057,2	-0,001
1057,6	-0,002
1058,1	-0,002
1058,5	-0,003
1058,9	-0,004
1059,3	-0,003
1059,7	-0,003
1060,1	-0,003
1060,5	-0,004
1061	-0,004
1061,4	-0,003
1061,8	-0,002
1062,2	-0,003
1062,6	-0,004
1063	-0,003
1063,4	-0,003
1063,8	-0,003
1064,3	-0,003
1064,7	-0,002
1065,1	-0,003
1065,5	-0,003
1065,9	-0,003
1066,3	-0,002
1066,7	-0,002
1067,1	-0,002
1067,6	-0,002
1068	-0,001
1068,4	-0,001
1068,8	-0,001
1069,2	-0,002
1069,6	-0,001
1070	-0,002
1070,4	-0,002
1070,9	-0,003
1071,3	-0,002
1071,7	-0,002
1072,1	-0,003
1072,5	-0,002
1072,9	-0,002
1073,3	-0,002
1073,7	-0,001
1074,2	-0,002
1074,6	-0,001
1075	-0,001
1075,4	-0,002
1075,8	-0,002
1076,2	-0,002
1076,6	-0,002
1077	-0,001
1077,5	-0,003
1077,9	-0,002
1078,3	-0,002
1078,7	-0,001
1079,1	-0,001
1079,5	-0,002
1079,9	-0,001
1080,3	-0,002
1080,7	-0,001
1081,2	0
1081,6	-0
1082	-0,002
1082,4	-0,002
1082,8	-0,005
1083,2	-0,005
1083,6	-0,005
1084	-0,005
1084,5	-0,006
1084,9	-0,004
1085,3	-0,003
1085,7	0,001
1086,1	0,003
1086,5	0,003
1086,9	0,002
1087,3	0,004
1087,7	0,005
1088,2	0,003
1088,6	0
1089	0,001
1089,4	-0,001
1089,8	-0,001
1090,2	-0,005
1090,6	-0,004
1091	-0,002
1091,4	-0
1091,9	-0,003
1092,3	-0,001
1092,7	-0,001
1093,1	-0,002
1093,5	-0,005
1093,9	-0,005
1094,3	-0,004
1094,7	-0,001
1095,1	0,001
1095,5	0,002
1096	0,005
1096,4	0,006
1096,8	0,005
1097,2	0,003
1097,6	-0,002
1098	-0,004
1098,4	-0,005
1098,8	-0,006
1099,2	-0,005
1099,6	-0,005
1100,1	-0,009
1100,5	-0,007
1100,9	-0,008
1101,3	-0,006
1101,7	-0
1102,1	-0,002
1102,5	0,002
1102,9	0,018
1103,3	0,019
1103,7	0,02
1104,2	0,019
1104,6	0,021
1105	0,013
1105,4	0,014
1105,8	0,008
1106,2	0,018
1106,6	0,022
1107	0,01
1107,4	-0,009
1107,8	0,075
1108,3	0,041
