Data from Absorbance_00079.txt Node
Date: Fri Aug 11 13:41:50 MSK 2023
User: vat
Spectrometer: MAYP114033
Trigger mode: 0
Integration Time (sec): 8,000000E-3
Scans to average: 10
Electric dark correction enabled: true
Nonlinearity correction enabled: false
Boxcar width: 3
XAxis mode: Wavelengths
Number of Pixels in Spectrum: 2068
>>>>>Begin Spectral Data<<<<<
199,4	-0
199,9	-0,06
200,4	0,326
200,8	0,701
201,3	0,841
201,8	0,926
202,2	0,932
202,7	0,946
203,2	1,005
203,6	1,033
204,1	1,044
204,6	1,057
205	1,066
205,5	1,088
206	1,098
206,4	1,114
206,9	1,137
207,4	1,151
207,8	1,166
208,3	1,194
208,8	1,21
209,2	1,233
209,7	1,252
210,2	1,263
210,6	1,276
211,1	1,289
211,5	1,293
212	1,308
212,5	1,329
212,9	1,353
213,4	1,373
213,9	1,372
214,3	1,367
214,8	1,4
215,3	1,414
215,7	1,43
216,2	1,417
216,7	1,436
217,1	1,475
217,6	1,518
218,1	1,517
218,5	1,531
219	1,527
219,5	1,54
219,9	1,54
220,4	1,553
220,9	1,565
221,3	1,571
221,8	1,583
222,3	1,609
222,7	1,626
223,2	1,649
223,6	1,653
224,1	1,674
224,6	1,683
225	1,693
225,5	1,715
226	1,742
226,4	1,752
226,9	1,776
227,4	1,8
227,8	1,828
228,3	1,863
228,8	1,869
229,2	1,867
229,7	1,88
230,2	1,874
230,6	1,872
231,1	1,869
231,5	1,875
232	1,886
232,5	1,901
232,9	1,903
233,4	1,911
233,9	1,909
234,3	1,91
234,8	1,905
235,3	1,897
235,7	1,907
236,2	1,923
236,7	1,946
237,1	1,954
237,6	1,974
238,1	1,987
238,5	2,003
239	2,005
239,4	2,01
239,9	2,006
240,4	2,018
240,8	2,018
241,3	2,033
241,8	2,059
242,2	2,061
242,7	2,068
243,2	2,082
243,6	2,079
244,1	2,094
244,6	2,087
245	2,084
245,5	2,089
245,9	2,084
246,4	2,084
246,9	2,093
247,3	2,089
247,8	2,088
248,3	2,077
248,7	2,084
249,2	2,084
249,7	2,098
250,1	2,096
250,6	2,094
251	2,09
251,5	2,09
252	2,081
252,4	2,098
252,9	2,091
253,4	2,095
253,8	2,108
254,3	2,118
254,8	2,117
255,2	2,14
255,7	2,132
256,1	2,124
256,6	2,141
257,1	2,147
257,5	2,151
258	2,171
258,5	2,161
258,9	2,161
259,4	2,186
259,9	2,171
260,3	2,17
260,8	2,168
261,2	2,16
261,7	2,165
262,2	2,169
262,6	2,146
263,1	2,153
263,6	2,154
264	2,145
264,5	2,157
264,9	2,16
265,4	2,143
265,9	2,141
266,3	2,157
266,8	2,138
267,3	2,139
267,7	2,124
268,2	2,12
268,7	2,137
269,1	2,129
269,6	2,114
270	2,109
270,5	2,108
271	2,113
271,4	2,1
271,9	2,082
272,4	2,063
272,8	2,035
273,3	2,034
273,7	2,027
274,2	2,01
274,7	2,002
275,1	1,993
275,6	1,991
276,1	1,99
276,5	1,948
277	1,918
277,4	1,884
277,9	1,846
278,4	1,81
278,8	1,766
279,3	1,711
279,8	1,662
280,2	1,603
280,7	1,543
281,1	1,475
281,6	1,407
282,1	1,34
282,5	1,27
283	1,207
283,4	1,146
283,9	1,09
284,4	1,038
284,8	0,987
285,3	0,941
285,8	0,9
286,2	0,863
286,7	0,831
287,1	0,8
287,6	0,775
288,1	0,752
288,5	0,733
289	0,717
289,5	0,703
289,9	0,69
290,4	0,681
290,8	0,671
291,3	0,663
291,8	0,658
292,2	0,652
292,7	0,647
293,1	0,643
293,6	0,639
294,1	0,635
294,5	0,634
295	0,629
295,5	0,627
295,9	0,624
296,4	0,621
296,8	0,62
297,3	0,617
297,8	0,613
298,2	0,611
298,7	0,61
299,1	0,61
299,6	0,608
300,1	0,606
300,5	0,604
301	0,602
301,5	0,599
301,9	0,596
302,4	0,593
302,8	0,591
303,3	0,588
303,8	0,585
304,2	0,582
304,7	0,581
305,1	0,578
305,6	0,574
306,1	0,571
306,5	0,567
307	0,564
307,4	0,561
307,9	0,557
308,4	0,553
308,8	0,55
309,3	0,547
309,8	0,543
310,2	0,539
310,7	0,536
311,1	0,531
311,6	0,527
312,1	0,523
312,5	0,517
313	0,513
313,4	0,509
313,9	0,504
314,4	0,5
314,8	0,496
315,3	0,491
315,7	0,488
316,2	0,483
316,7	0,48
317,1	0,474
317,6	0,469
318	0,465
318,5	0,461
319	0,455
319,4	0,45
319,9	0,444
320,3	0,44
320,8	0,434
321,3	0,428
321,7	0,423
322,2	0,419
322,6	0,414
323,1	0,408
323,6	0,403
324	0,397
324,5	0,391
324,9	0,386
325,4	0,38
325,9	0,375
326,3	0,369
326,8	0,363
327,2	0,359
327,7	0,353
328,2	0,348
328,6	0,344
329,1	0,339
329,5	0,334
330	0,33
330,5	0,326
330,9	0,322
331,4	0,318
331,8	0,314
332,3	0,308
332,8	0,303
333,2	0,298
333,7	0,294
334,1	0,29
334,6	0,285
335,1	0,28
335,5	0,276
336	0,272
336,4	0,269
336,9	0,264
337,4	0,26
337,8	0,256
338,3	0,252
338,7	0,248
339,2	0,244
339,7	0,239
340,1	0,235
340,6	0,231
341	0,227
341,5	0,224
342	0,219
342,4	0,215
342,9	0,213
343,3	0,209
343,8	0,206
344,2	0,203
344,7	0,2
345,2	0,198
345,6	0,195
346,1	0,192
346,5	0,189
347	0,185
347,5	0,183
347,9	0,18
348,4	0,176
348,8	0,173
349,3	0,17
349,8	0,167
350,2	0,164
350,7	0,161
351,1	0,159
351,6	0,157
352	0,154
352,5	0,152
353	0,149
353,4	0,147
353,9	0,145
354,3	0,143
354,8	0,141
355,3	0,14
355,7	0,137
356,2	0,134
356,6	0,132
357,1	0,13
357,5	0,127
358	0,125
358,5	0,122
358,9	0,12
359,4	0,118
359,8	0,117
360,3	0,115
360,8	0,113
361,2	0,112
361,7	0,11
362,1	0,108
362,6	0,106
363	0,103
363,5	0,102
364	0,101
364,4	0,1
364,9	0,099
365,3	0,097
365,8	0,095
366,3	0,094
366,7	0,092
367,2	0,089
367,6	0,087
368,1	0,085
368,5	0,084
369	0,083
369,5	0,082
369,9	0,08
370,4	0,079
370,8	0,078
371,3	0,077
371,7	0,076
372,2	0,075
372,7	0,074
373,1	0,074
373,6	0,072
374	0,071
374,5	0,07
374,9	0,069
375,4	0,068
375,9	0,066
376,3	0,065
376,8	0,065
377,2	0,064
377,7	0,063
378,2	0,062
378,6	0,061
379,1	0,059
379,5	0,058
380	0,058
380,4	0,057
380,9	0,056
381,4	0,055
381,8	0,054
382,3	0,054
382,7	0,053
383,2	0,053
383,6	0,052
384,1	0,052
384,6	0,051
385	0,051
385,5	0,051
385,9	0,05
386,4	0,049
386,8	0,049
387,3	0,048
387,7	0,047
388,2	0,046
388,7	0,045
389,1	0,045
389,6	0,044
390	0,043
390,5	0,043
390,9	0,041
391,4	0,041
391,9	0,04
392,3	0,039
392,8	0,039
393,2	0,039
393,7	0,039
394,1	0,039
394,6	0,039
395,1	0,037
395,5	0,037
396	0,037
396,4	0,036
396,9	0,036
397,3	0,036
397,8	0,036
398,2	0,036
398,7	0,035
399,2	0,035
399,6	0,034
400,1	0,033
400,5	0,033
401	0,032
401,4	0,031
401,9	0,031
402,4	0,03
402,8	0,03
403,3	0,029
403,7	0,029
404,2	0,029
404,6	0,029
405,1	0,029
405,5	0,029
406	0,028
406,5	0,028
406,9	0,027
407,4	0,027
407,8	0,026
408,3	0,026
408,7	0,025
409,2	0,025
409,6	0,025
410,1	0,025
410,6	0,025
411	0,025
411,5	0,025
411,9	0,025
412,4	0,024
412,8	0,023
413,3	0,023
413,7	0,022
414,2	0,022
414,7	0,022
415,1	0,021
415,6	0,021
416	0,021
416,5	0,02
416,9	0,021
417,4	0,021
417,8	0,02
418,3	0,019
418,8	0,02
419,2	0,02
419,7	0,019
420,1	0,019
420,6	0,019
421	0,019
421,5	0,019
421,9	0,018
422,4	0,018
422,8	0,017
423,3	0,017
423,8	0,017
424,2	0,016
424,7	0,015
425,1	0,015
425,6	0,015
426	0,014
426,5	0,014
426,9	0,014
427,4	0,014
427,9	0,014
428,3	0,014
428,8	0,014
429,2	0,015
429,7	0,015
430,1	0,014
430,6	0,014
431	0,013
431,5	0,013
431,9	0,012
432,4	0,011
432,8	0,011
433,3	0,011
433,8	0,01
434,2	0,011
434,7	0,01
435,1	0,01
435,6	0,01
436	0,01
436,5	0,01
436,9	0,009
437,4	0,009
437,8	0,009
438,3	0,009
438,8	0,009
439,2	0,009
439,7	0,008
440,1	0,008
440,6	0,008
441	0,008
441,5	0,008
441,9	0,007
442,4	0,007
442,8	0,007
443,3	0,007
443,7	0,007
444,2	0,007
444,7	0,007
445,1	0,007
445,6	0,007
446	0,007
446,5	0,008
446,9	0,007
447,4	0,007
447,8	0,007
448,3	0,006
448,7	0,007
449,2	0,006
449,6	0,006
450,1	0,006
450,6	0,006
451	0,006
451,5	0,006
451,9	0,005
452,4	0,005
452,8	0,005
453,3	0,003
453,7	0,003
454,2	0,003
454,6	0,004
455,1	0,004
455,5	0,005
456	0,005
456,4	0,006
456,9	0,005
457,3	0,006
457,8	0,005
458,3	0,004
458,7	0,004
459,2	0,003
459,6	0,003
460,1	0,003
460,5	0,002
461	0,002
461,4	0,002
461,9	0,002
462,3	0,002
462,8	0,002
463,2	0,002
463,7	0,002
464,1	0,003
464,6	0,003
465	0,003
465,5	0,003
466	0,003
466,4	0,003
466,9	0,003
467,3	0,003
467,8	0,003
468,2	0,002
468,7	0,002
469,1	0,003
469,6	0,002
470	0,002
470,5	0,001
470,9	0,002
471,4	0,002
471,8	0,001
472,3	0,001
472,7	0,001
473,2	0,001
473,6	0,001
474,1	0,001
474,5	0,001
475	0,001
475,4	0,001
475,9	0,002
476,4	0,001
476,8	0,001
477,3	0,002
477,7	0,002
478,2	0,002
478,6	0,001
479,1	0,002
479,5	0,002
480	0,004
480,4	0,004
480,9	0,004
481,3	0,004
481,8	0,003
482,2	0,002
482,7	0,002
483,1	0,001
483,6	-0
484	-0
484,5	-0,001
484,9	-0
485,4	-0
485,8	0,001
486,3	0,001
486,7	0,001
487,2	0
487,6	0,001
488,1	0
488,5	0,001
489	-0,001
489,4	-0,001
489,9	0
490,4	0,001
490,8	0,001
491,3	0,001
491,7	0,002
492,2	0,002
492,6	0,002
493,1	0,002
493,5	0,002
494	0,002
494,4	0,001
494,9	0,002
495,3	0,002
495,8	0,002
496,2	0,002
496,7	0,001
497,1	0,001
497,6	0,001
498	0,001
498,5	0,001
498,9	0
499,4	-0
499,8	0
500,3	0
500,7	0,001
501,2	0,001
501,6	0,001
502,1	0,001
502,5	0,001
503	0,001
503,4	0,002
503,9	0,001
504,3	0,002
504,8	0,002
505,2	0,002
505,7	0,002
506,1	0,002
506,6	0,002
507	0,002
507,5	0,001
507,9	0,001
508,4	0,001
508,8	-0
509,3	-0
509,7	-0,001
510,2	-0,001
510,6	-0
511,1	-0
511,5	-0
512	0
512,4	0
512,9	0
513,3	-0
513,8	0
514,2	0
514,7	0
515,1	0
515,6	0
516	0
516,5	0,001
516,9	0,001
517,4	0,001
517,8	-0
518,3	0
518,7	0
519,2	0
519,6	0,001
520,1	0,001
520,5	0
521	0,001
521,4	0,001
521,9	0,001
522,3	0,001
522,8	0,001
523,2	0,001
523,7	0,001
524,1	0,001
524,6	0
525	0,001
525,5	0
525,9	0
526,4	0
526,8	0
527,3	0,001
527,7	0,001
528,2	0,001
528,6	0,001
529,1	0,001
529,5	0,001
530	0,001
530,4	0,002
530,9	0,002
531,3	0,002
531,8	0,001
532,2	0,001
532,6	0,001
533,1	0,001
533,5	0,001
534	0,001
534,4	0,001
534,9	0
535,3	0,001
535,8	-0
536,2	-0,001
536,7	-0,001
537,1	-0,001
537,6	-0,001
538	-0,001
538,5	-0,001
538,9	-0,001
539,4	-0,001
539,8	-0
540,3	0
540,7	0,001
541,2	0,001
541,6	0,001
542,1	0
542,5	0
543	-0
543,4	-0,001
543,9	-0,002
544,3	-0,001
544,8	-0,002
545,2	-0,002
545,7	-0,001
546,1	-0,001
546,5	-0,001
547	-0
547,4	-0
547,9	-0
548,3	-0
548,8	-0
549,2	-0
549,7	-0
550,1	-0,001
550,6	-0,001
551	-0,001
551,5	-0
551,9	-0
552,4	-0
552,8	0
553,3	0,001
553,7	0
554,2	-0
554,6	-0,001
555,1	-0,001
555,5	-0,001
555,9	-0,001
556,4	-0,001
556,8	-0,001
557,3	-0,001
557,7	-0,001
558,2	-0,001
558,6	-0,002
559,1	-0,002
559,5	-0,002
560	-0,002
560,4	-0,002
560,9	-0,002
561,3	-0,002
561,8	-0,001
562,2	-0,001
562,7	-0,001
563,1	-0
563,6	-0
564	0
564,4	0
564,9	0
565,3	0,001
565,8	0
566,2	0
566,7	0,001
567,1	0
567,6	0
568	0
568,5	-0
568,9	-0
569,4	0
569,8	-0
570,3	0
570,7	0
571,1	0
571,6	0,001
572	0,001
572,5	0
572,9	0,001
573,4	0
573,8	0
574,3	-0
574,7	-0,001
575,2	-0,001
575,6	-0,001
576,1	-0,001
576,5	-0,001
576,9	-0,001
577,4	-0
577,8	0
578,3	0
578,7	0
579,2	0
579,6	0,001
580,1	0,001
580,5	0
581	0
581,4	0,001
581,9	0
582,3	0
582,7	-0
583,2	-0
583,6	0
584,1	0
584,5	-0
585	0
585,4	0
585,9	-0
586,3	-0
586,8	-0
587,2	-0
587,6	-0
588,1	-0
588,5	-0
589	-0
589,4	-0
589,9	-0
590,3	-0
590,8	-0
591,2	-0
591,7	0
592,1	0,001
592,5	0,001
593	0
593,4	-0
593,9	0
594,3	-0
594,8	-0
595,2	-0,001
595,7	-0,001
596,1	-0,001
596,6	-0,001
597	-0,001
597,4	-0,001
597,9	-0,001
598,3	-0,001
598,8	-0,001
599,2	-0,001
599,7	-0,002
600,1	-0,001
600,6	-0,002
601	-0,002
601,4	-0,002
601,9	-0,002
602,3	-0,001
602,8	-0,001
603,2	-0,001
603,7	-0,001
604,1	-0,001
604,6	-0,001
605	-0,001
605,4	-0,001
605,9	-0
606,3	-0
606,8	-0
607,2	-0
607,7	-0
608,1	-0
608,6	-0
609	-0
609,4	-0
609,9	-0
610,3	-0,001
610,8	-0,001
611,2	-0,001
611,7	-0,001
612,1	-0,001
612,6	-0,001
613	-0,001
613,4	-0,001
613,9	-0,001
614,3	-0
614,8	-0
615,2	0
615,7	0
616,1	0
616,6	0
617	0
617,4	0
617,9	-0
618,3	-0
618,8	-0
619,2	-0
619,7	-0
620,1	-0
620,5	-0
621	-0
621,4	-0
621,9	-0
622,3	-0
622,8	-0
623,2	-0
623,6	-0
624,1	0
624,5	0
625	0
625,4	-0
625,9	-0
626,3	-0,001
626,8	-0
627,2	-0
627,6	-0
628,1	-0
628,5	0
629	0,001
629,4	0,001
629,9	0,001
630,3	0,001
630,7	0,001
631,2	0,001
631,6	0,001
632,1	0
632,5	0
633	0
633,4	0
633,8	-0
634,3	0
634,7	0
635,2	0
635,6	0
636,1	0,001
636,5	0,001
636,9	0
637,4	0
637,8	-0
638,3	-0
638,7	0
639,2	-0
639,6	-0
640	-0
640,5	-0
640,9	0
641,4	0
641,8	0
642,2	0
642,7	0
643,1	0
643,6	0
644	0
644,5	0
644,9	0
645,3	0,001
645,8	0,001
646,2	0,001
646,7	0,001
647,1	0,002
647,6	0,002
648	0,002
648,4	0,001
648,9	0,001
649,3	0,001
649,8	0,001
650,2	-0
650,6	-0
651,1	-0,001
651,5	-0,001
652	-0,001
652,4	-0,001
652,9	-0,001
653,3	-0,001
653,7	-0,001
654,2	-0,001
654,6	-0,002
655,1	-0,001
655,5	-0,001
655,9	-0
656,4	-0
656,8	0
657,3	0,001
657,7	0,001
658,2	0,002
658,6	0,002
659	0,003
659,5	0,005
659,9	0,006
660,4	0,004
660,8	0,003
661,2	0,002
661,7	0,001
662,1	0
662,6	0
663	-0
663,4	-0
663,9	-0,001
664,3	-0,001
664,8	-0,001
665,2	-0,001
665,6	-0
666,1	-0
666,5	-0
667	-0
667,4	0
667,9	0
668,3	0
668,7	-0
669,2	0
669,6	-0
670,1	0
670,5	-0
670,9	-0
671,4	-0
671,8	-0,001
672,3	-0,001
672,7	-0,001
673,1	-0,001
673,6	-0,001
674	-0,001
674,5	-0,001
674,9	-0,001
675,3	-0,001
675,8	-0,001
676,2	-0,001
676,7	-0
677,1	-0,001
677,5	-0
678	-0
678,4	-0
678,9	0
679,3	0
679,7	0
680,2	0
680,6	0
681,1	-0
681,5	0
681,9	0
682,4	-0
682,8	-0
683,3	-0,001
683,7	-0
684,1	-0
684,6	-0
685	-0,001
685,5	-0,001
685,9	-0,001
686,3	-0,001
686,8	-0
687,2	-0
687,7	0
688,1	0,001
688,5	0,001
689	0,001
689,4	0,001
689,9	0
690,3	0
690,7	0
691,2	0
691,6	0,001
692	0
692,5	0
692,9	0
693,4	0
693,8	0
694,2	-0
694,7	-0
695,1	0
695,6	-0
696	0
696,4	0
696,9	0
697,3	0,001
697,8	0,001
698,2	0
698,6	0
699,1	0
699,5	0
699,9	-0
700,4	-0
700,8	-0
701,3	0
701,7	-0
702,1	0
702,6	0
703	0
703,5	0
703,9	0
704,3	0
704,8	0
705,2	0
705,6	0
706,1	0
706,5	0
707	-0
707,4	-0,001
707,8	-0,001
708,3	-0
708,7	-0
709,2	-0,001
709,6	-0,001
710	-0
710,5	-0
710,9	-0
711,3	-0,001
711,8	-0,001
712,2	-0,001
712,7	-0
713,1	-0,001
713,5	-0,001
714	-0,001
714,4	-0,001
714,8	-0,001
715,3	-0
715,7	-0,001
716,2	-0,001
716,6	-0
717	-0
717,5	-0
717,9	-0
718,3	-0,001
718,8	-0,001
719,2	-0,001
719,7	-0,001
720,1	-0,001
720,5	-0,001
721	-0
721,4	-0
721,8	-0
722,3	0
722,7	-0
723,2	-0
723,6	-0
724	-0,001
724,5	-0,001
724,9	-0,001
725,3	-0,001
725,8	-0
726,2	-0
726,7	-0
727,1	0
727,5	0
728	-0
728,4	-0
728,8	-0,001
729,3	-0,001
729,7	-0,001
730,1	-0,001
730,6	-0,001
731	-0,001
731,5	-0,001
731,9	-0,001
732,3	-0,001
732,8	-0,001
733,2	-0,001
733,6	-0,001
734,1	-0,001
734,5	-0,001
734,9	-0,001
735,4	-0
735,8	-0
736,3	0
736,7	0
737,1	0
737,6	0,001
738	0
738,4	0,001
738,9	0
739,3	-0
739,7	-0,001
740,2	-0,001
740,6	-0,001
741,1	-0,001
741,5	-0,001
741,9	-0,001
742,4	-0,001
742,8	-0
743,2	-0
743,7	-0
744,1	0
744,5	0
745	0
745,4	-0
745,8	-0
746,3	-0
746,7	-0
747,2	-0,001
747,6	-0
748	0
748,5	0
748,9	0
749,3	0
749,8	0
750,2	0
750,6	-0
751,1	-0,001
751,5	-0
751,9	-0,001
752,4	-0,001
752,8	-0
753,3	-0
753,7	0
754,1	0
754,6	0
755	0,001
755,4	0,001
755,9	0
756,3	0
756,7	0
757,2	0,001
757,6	-0
758	-0
758,5	-0
758,9	-0,001
759,3	-0,001
759,8	-0,001
760,2	-0,001
760,6	-0
761,1	-0
761,5	-0
761,9	0
762,4	0
762,8	0
763,3	0
763,7	0,001
764,1	0,001
764,6	0,001
765	0,001
765,4	0,001
765,9	0,001
766,3	0,001
766,7	0,001
767,2	0,001
767,6	0,001
768	0,002
768,5	0,002
768,9	0,001
769,3	0,001
769,8	0,001
770,2	0,001
770,6	0,001
771,1	0
771,5	0
771,9	0
772,4	0
772,8	0
773,2	0
773,7	0
774,1	0
774,5	0,001
775	0,001
775,4	0,001
775,8	0,001
776,3	0,001
776,7	0,001
777,1	0,001
777,6	0,001
778	0,002
778,4	0,001
778,9	0,001
779,3	0,002
779,7	0,001
780,2	0,001
780,6	0,001
781	0,001
781,5	0,001
781,9	0
782,3	-0
782,8	0
783,2	0
783,6	0
784,1	-0
784,5	-0
784,9	-0
785,4	0
785,8	-0
786,2	-0
786,7	0
787,1	0
787,5	0
788	0,001
788,4	0,001
788,8	0,001
789,3	0,001
789,7	0
790,1	0
790,6	-0
791	-0,001
791,4	-0,001
791,9	-0
792,3	-0
792,7	-0
793,2	-0
793,6	-0
794	0
794,5	0
794,9	0
795,3	0
795,8	0,001
796,2	0,001
796,6	0,001
797,1	0,001
797,5	0,001
797,9	0,002
798,4	0,002
798,8	0,001
799,2	0,001
799,7	0,001
800,1	0,001
800,5	0
801	-0
801,4	-0,001
801,8	-0,001
802,2	-0,001
802,7	-0,001
803,1	-0,001
803,5	-0,001
804	-0,001
804,4	-0,001
804,8	-0
805,3	-0
805,7	-0,001
806,1	-0,001
806,6	-0,001
807	-0,001
807,4	-0
807,9	-0
808,3	-0
808,7	-0
809,2	-0
809,6	-0
810	-0
810,4	-0
810,9	-0,001
811,3	-0,001
811,7	-0
812,2	-0
812,6	0
813	0
813,5	0
813,9	0
814,3	0
814,8	0
815,2	-0
815,6	-0
816,1	-0,001
816,5	-0,001
816,9	-0,001
817,3	-0,001
817,8	-0,001
818,2	-0,001
818,6	-0,001
819,1	-0,001
819,5	-0,001
819,9	-0,001
820,4	-0,001
820,8	-0,001
821,2	-0,001
821,7	-0,001
822,1	-0,001
822,5	-0,001
822,9	-0,001
823,4	-0,001
823,8	-0,001
824,2	-0,001
824,7	-0,001
825,1	-0,001
825,5	-0,001
826	-0,001
826,4	-0,001
826,8	-0
827,3	-0
827,7	-0
828,1	0
828,5	0
829	0
829,4	-0
829,8	0
830,3	0
830,7	0
831,1	0
831,6	0
832	0
832,4	0,001
832,8	0,001
833,3	0,001
833,7	0
834,1	-0
834,6	-0
835	-0,001
835,4	-0,001
835,8	-0,001
836,3	-0,002
836,7	-0,002
837,1	-0,002
837,6	-0,002
838	-0,001
838,4	-0,001
838,9	-0,001
839,3	-0,001
839,7	-0,001
840,1	-0
840,6	0
841	0
841,4	0,001
841,9	0,001
842,3	0,001
842,7	0,001
843,1	0,001
843,6	0
844	0,001
844,4	0
844,9	0
845,3	0
845,7	-0
846,2	-0
846,6	-0
847	-0,001
847,4	-0
847,9	-0
848,3	0
848,7	0,001
849,2	0
849,6	0
850	0
850,4	0
850,9	-0
851,3	-0
851,7	-0
852,2	0
852,6	0
853	0,001
853,4	0,001
853,9	0,001
854,3	0,001
854,7	0,001
855,2	0,001
855,6	0,001
856	0,001
856,4	0,001
856,9	0,001
857,3	0,001
857,7	0,001
858,2	0,001
858,6	0
859	0
859,4	-0
859,9	-0
860,3	-0
860,7	-0
861,1	-0
861,6	-0
862	-0
862,4	-0
862,9	-0
863,3	-0
863,7	-0
864,1	-0
864,6	0
865	0
865,4	0
865,9	0
866,3	0
866,7	0
867,1	-0
867,6	-0
868	-0,001
868,4	-0,001
868,8	-0,001
869,3	-0,001
869,7	-0,001
870,1	-0,001
870,6	-0,001
871	-0,001
871,4	-0,001
871,8	-0,001
872,3	-0,001
872,7	-0,001
873,1	-0,002
873,5	-0,002
874	-0,002
874,4	-0,002
874,8	-0,002
875,3	-0,002
875,7	-0,002
876,1	-0,002
876,5	-0,002
877	-0,002
877,4	-0,002
877,8	-0,002
878,2	-0,002
878,7	-0,002
879,1	-0,002
879,5	-0,002
879,9	-0,001
880,4	-0,001
880,8	-0,002
881,2	-0,001
881,7	-0,002
882,1	-0,001
882,5	-0,001
882,9	-0,001
883,4	-0,001
883,8	-0,001
884,2	-0,001
884,6	-0,001
885,1	-0,001
885,5	-0,001
885,9	-0,001
886,3	-0,001
886,8	-0,001
887,2	-0,001
887,6	-0,001
888	-0,001
888,5	-0,001
888,9	-0,001
889,3	-0,001
889,8	-0,001
890,2	-0,001
890,6	-0,001
891	-0,001
891,5	-0,001
891,9	-0,001
892,3	-0,001
892,7	-0,001
893,2	-0,001
893,6	-0,001
894	-0,001
894,4	-0,001
894,9	-0,002
895,3	-0,002
895,7	-0,002
896,1	-0,002
896,6	-0,002
897	-0,002
897,4	-0,002
897,8	-0,002
898,3	-0,002
898,7	-0,002
899,1	-0,002
899,5	-0,002
900	-0,002
900,4	-0,002
900,8	-0,001
901,2	-0,001
901,7	-0,001
902,1	-0
902,5	-0
902,9	-0
903,4	-0,001
903,8	-0,001
904,2	-0,001
904,6	-0,001
905,1	-0,001
905,5	-0,001
905,9	-0,001
906,3	-0,001
906,8	-0,001
907,2	-0,001
907,6	-0,001
908	-0,001
908,5	-0,001
908,9	-0,002
909,3	-0,002
909,7	-0,002
910,2	-0,002
910,6	-0,002
911	-0,002
911,4	-0,002
911,9	-0,002
912,3	-0,002
912,7	-0,002
913,1	-0,002
913,6	-0,002
914	-0,002
914,4	-0,002
914,8	-0,002
915,3	-0,003
915,7	-0,002
916,1	-0,002
916,5	-0,002
916,9	-0,002
917,4	-0,002
917,8	-0,002
918,2	-0,001
918,6	-0,001
919,1	-0
919,5	0
919,9	0
920,3	0
920,8	0
921,2	0
921,6	-0
922	-0
922,5	-0,001
922,9	-0,001
923,3	-0,001
923,7	-0,001
924,2	-0,001
924,6	-0,001
925	-0,002
925,4	-0,001
925,8	-0,001
926,3	-0,001
926,7	-0,001
927,1	-0,001
927,5	-0,001
928	-0,001
928,4	-0,001
928,8	-0,001
929,2	-0,001
929,7	-0,001
930,1	-0,001
930,5	-0,001
930,9	-0,001
931,3	-0,001
931,8	-0,001
932,2	-0,001
932,6	-0,001
933	-0,002
933,5	-0,002
933,9	-0,003
934,3	-0,002
934,7	-0,002
935,2	-0,002
935,6	-0,001
936	-0,001
936,4	-0,001
936,8	0
937,3	-0
937,7	0
938,1	-0
938,5	-0
939	0
939,4	-0
939,8	-0
940,2	0
940,6	-0
941,1	0
941,5	0,001
941,9	0,001
942,3	0,001
942,8	0,001
943,2	0
943,6	-0
944	-0
944,4	-0
944,9	0
945,3	0
945,7	0,001
946,1	0
946,6	0
947	0
947,4	-0
947,8	-0
948,2	-0,001
948,7	-0,001
949,1	-0,001
949,5	-0,001
949,9	-0,002
950,3	-0,002
950,8	-0,002
951,2	-0,002
951,6	-0,002
952	-0,001
952,5	-0,001
952,9	-0,001
953,3	-0,001
953,7	-0
954,1	-0
954,6	0
955	0
955,4	0
955,8	0,001
956,2	0
956,7	-0
957,1	0
957,5	-0
957,9	-0
958,3	-0
958,8	-0,001
959,2	-0,001
959,6	-0
960	-0,001
960,5	-0,001
960,9	-0,002
961,3	-0,002
961,7	-0,002
962,1	-0,002
962,6	-0,003
963	-0,002
963,4	-0,002
963,8	-0,002
964,2	-0,002
964,7	-0,002
965,1	-0,002
965,5	-0,001
965,9	-0,001
966,3	0,001
966,8	0,001
967,2	0,001
967,6	0,002
968	0,002
968,4	0,001
968,9	0,001
969,3	-0
969,7	-0,001
970,1	-0
970,5	-0
971	0
971,4	0
971,8	-0
972,2	-0
972,6	0
973,1	-0
973,5	-0,001
973,9	-0,001
974,3	-0
974,7	0
975,2	0
975,6	0
976	0
976,4	0
976,8	-0,001
977,3	-0,001
977,7	-0,001
978,1	-0,001
978,5	-0,001
978,9	-0
979,4	0
979,8	0,001
980,2	0,001
980,6	0,001
981	0,002
981,5	0,002
981,9	0,002
982,3	0,001
982,7	0,002
983,1	0,002
983,6	0,001
984	0
984,4	-0
984,8	-0
985,2	0
985,6	-0
986,1	-0
986,5	0
986,9	-0
987,3	-0,001
987,7	0
988,2	-0,001
988,6	-0,001
989	-0,001
989,4	-0,001
989,8	-0,001
990,3	-0,001
990,7	-0,002
991,1	-0,002
991,5	-0,001
991,9	-0,001
992,3	-0,001
992,8	-0
993,2	0
993,6	0
994	0,001
994,4	-0
994,9	-0,001
995,3	-0,001
995,7	-0,001
996,1	-0,001
996,5	-0,001
996,9	-0,001
997,4	-0
997,8	-0
998,2	-0
998,6	-0,001
999	-0
999,5	-0,001
999,9	-0
1000,3	-0
1000,7	-0
1001,1	-0,001
1001,5	-0,001
1002	-0,002
1002,4	-0,002
1002,8	-0,002
1003,2	-0,002
1003,6	-0,002
1004	-0,002
1004,5	-0,002
1004,9	-0,001
1005,3	-0,001
1005,7	-0,001
1006,1	-0
1006,6	-0,001
1007	-0,001
1007,4	0
1007,8	0
1008,2	-0,001
1008,6	-0,001
1009,1	-0,002
1009,5	-0,002
1009,9	-0,002
1010,3	-0,003
1010,7	-0,003
1011,1	-0,003
1011,6	-0,004
1012	-0,003
1012,4	-0,004
1012,8	-0,004
1013,2	-0,004
1013,6	-0,004
1014,1	-0,003
1014,5	-0,003
1014,9	-0,003
1015,3	-0,003
1015,7	-0,003
1016,1	-0,003
1016,6	-0,003
1017	-0,003
1017,4	-0,003
1017,8	-0,004
1018,2	-0,004
1018,6	-0,003
1019,1	-0,003
1019,5	-0,003
1019,9	-0,003
1020,3	-0,002
1020,7	-0,001
1021,1	-0,001
1021,6	-0,001
1022	-0
1022,4	-0,001
1022,8	-0,001
1023,2	-0,001
1023,6	-0,001
1024,1	-0
1024,5	0
1024,9	0,001
1025,3	0,001
1025,7	0,002
1026,1	0,001
1026,6	0,002
1027	0,002
1027,4	0,001
1027,8	0,001
1028,2	0,001
1028,6	0,001
1029	0,001
1029,5	0,001
1029,9	0,001
1030,3	0,001
1030,7	0,001
1031,1	0,001
1031,5	0,001
1032	0
1032,4	0
1032,8	0
1033,2	0,001
1033,6	0,001
1034	0
1034,4	-0
1034,9	-0
1035,3	-0,001
1035,7	-0,001
1036,1	-0,001
1036,5	-0,002
1036,9	-0,002
1037,4	-0,002
1037,8	-0,001
1038,2	-0,001
1038,6	-0,002
1039	-0,001
1039,4	-0,001
1039,8	-0,001
1040,3	-0,001
1040,7	-0,001
1041,1	-0,001
1041,5	-0
1041,9	-0,002
1042,3	-0,002
1042,7	-0,003
1043,2	-0,003
1043,6	-0,003
1044	-0,003
1044,4	-0,003
1044,8	-0,002
1045,2	-0,002
1045,6	-0,001
1046,1	-0
1046,5	-0
1046,9	-0
1047,3	-0
1047,7	-0
1048,1	-0,001
1048,5	-0,002
1049	-0,002
1049,4	-0,002
1049,8	-0,002
1050,2	-0,002
1050,6	-0,002
1051	-0,002
1051,4	-0,002
1051,9	-0,002
1052,3	-0,002
1052,7	-0,002
1053,1	-0,002
1053,5	-0,002
1053,9	-0,001
1054,3	-0,001
1054,8	-0
1055,2	-0,001
1055,6	-0,001
1056	-0,001
1056,4	-0,001
1056,8	-0,002
1057,2	-0,002
1057,6	-0,003
1058,1	-0,004
1058,5	-0,005
1058,9	-0,006
1059,3	-0,006
1059,7	-0,005
1060,1	-0,005
1060,5	-0,006
1061	-0,005
1061,4	-0,005
1061,8	-0,004
1062,2	-0,003
1062,6	-0,004
1063	-0,004
1063,4	-0,003
1063,8	-0,004
1064,3	-0,004
1064,7	-0,004
1065,1	-0,005
1065,5	-0,005
1065,9	-0,004
1066,3	-0,003
1066,7	-0,003
1067,1	-0,004
1067,6	-0,004
1068	-0,004
1068,4	-0,004
1068,8	-0,003
1069,2	-0,004
1069,6	-0,004
1070	-0,003
1070,4	-0,002
1070,9	-0,003
1071,3	-0,002
1071,7	-0,003
1072,1	-0,004
1072,5	-0,003
1072,9	-0,004
1073,3	-0,004
1073,7	-0,003
1074,2	-0,004
1074,6	-0,002
1075	-0,001
1075,4	-0,001
1075,8	-0,001
1076,2	0
1076,6	-0,001
1077	-0
1077,5	-0,001
1077,9	-0,001
1078,3	-0,001
1078,7	-0,001
1079,1	-0,001
1079,5	-0,001
1079,9	-0
1080,3	-0,001
1080,7	-0,001
1081,2	0
1081,6	0
1082	-0,001
1082,4	-0,001
1082,8	-0,003
1083,2	-0,002
1083,6	-0,002
1084	-0,003
1084,5	-0,003
1084,9	-0,002
1085,3	-0
1085,7	0,001
1086,1	0,002
1086,5	0,002
1086,9	0,001
1087,3	-0,001
1087,7	0
1088,2	-0,002
1088,6	-0,004
1089	-0,004
1089,4	-0,003
1089,8	-0,004
1090,2	-0,005
1090,6	-0,006
1091	-0,005
1091,4	-0,002
1091,9	-0,003
1092,3	-0,003
1092,7	0
1093,1	-0,002
1093,5	-0,005
1093,9	-0,006
1094,3	-0,006
1094,7	-0,005
1095,1	-0,007
1095,5	-0,008
1096	-0,006
1096,4	-0,005
1096,8	-0,007
1097,2	-0,009
1097,6	-0,012
1098	-0,014
1098,4	-0,016
1098,8	-0,013
1099,2	-0,01
1099,6	-0,008
1100,1	-0,01
1100,5	-0,013
1100,9	-0,016
1101,3	-0,008
1101,7	-0
1102,1	-0,005
1102,5	-0,007
1102,9	-0,001
1103,3	-0,005
1103,7	-0,003
1104,2	-0,011
1104,6	-0,016
1105	-0,01
1105,4	-0,004
1105,8	0,002
1106,2	0,019
1106,6	0,022
1107	0,02
1107,4	0,006
1107,8	0,015
1108,3	-0
