Data from Absorbance_00085.txt Node
Date: Fri Aug 11 13:48:33 MSK 2023
User: vat
Spectrometer: MAYP114033
Trigger mode: 0
Integration Time (sec): 8,000000E-3
Scans to average: 10
Electric dark correction enabled: true
Nonlinearity correction enabled: false
Boxcar width: 3
XAxis mode: Wavelengths
Number of Pixels in Spectrum: 2068
>>>>>Begin Spectral Data<<<<<
199,4	-0,194
199,9	0,235
200,4	0,392
200,8	0,657
201,3	0,815
201,8	0,864
202,2	0,902
202,7	0,927
203,2	0,98
203,6	1,026
204,1	1,072
204,6	1,079
205	1,106
205,5	1,115
206	1,139
206,4	1,152
206,9	1,153
207,4	1,163
207,8	1,185
208,3	1,208
208,8	1,227
209,2	1,229
209,7	1,254
210,2	1,276
210,6	1,291
211,1	1,303
211,5	1,307
212	1,33
212,5	1,35
212,9	1,367
213,4	1,381
213,9	1,378
214,3	1,367
214,8	1,392
215,3	1,393
215,7	1,407
216,2	1,396
216,7	1,42
217,1	1,441
217,6	1,474
218,1	1,465
218,5	1,481
219	1,488
219,5	1,505
219,9	1,502
220,4	1,527
220,9	1,543
221,3	1,566
221,8	1,59
222,3	1,62
222,7	1,646
223,2	1,676
223,6	1,697
224,1	1,705
224,6	1,721
225	1,734
225,5	1,75
226	1,764
226,4	1,775
226,9	1,782
227,4	1,792
227,8	1,808
228,3	1,832
228,8	1,836
229,2	1,844
229,7	1,856
230,2	1,848
230,6	1,869
231,1	1,859
231,5	1,865
232	1,868
232,5	1,869
232,9	1,871
233,4	1,887
233,9	1,889
234,3	1,892
234,8	1,891
235,3	1,905
235,7	1,914
236,2	1,942
236,7	1,948
237,1	1,963
237,6	1,994
238,1	1,996
238,5	1,994
239	2,022
239,4	2,013
239,9	2,021
240,4	2,016
240,8	2,017
241,3	2,04
241,8	2,063
242,2	2,037
242,7	2,04
243,2	2,042
243,6	2,047
244,1	2,058
244,6	2,048
245	2,041
245,5	2,064
245,9	2,072
246,4	2,076
246,9	2,092
247,3	2,079
247,8	2,069
248,3	2,084
248,7	2,086
249,2	2,086
249,7	2,096
250,1	2,086
250,6	2,09
251	2,101
251,5	2,092
252	2,092
252,4	2,114
252,9	2,119
253,4	2,123
253,8	2,15
254,3	2,15
254,8	2,147
255,2	2,155
255,7	2,125
256,1	2,112
256,6	2,121
257,1	2,106
257,5	2,116
258	2,141
258,5	2,133
258,9	2,132
259,4	2,144
259,9	2,14
260,3	2,151
260,8	2,151
261,2	2,142
261,7	2,156
262,2	2,168
262,6	2,157
263,1	2,136
263,6	2,124
264	2,125
264,5	2,11
264,9	2,113
265,4	2,111
265,9	2,117
266,3	2,131
266,8	2,145
267,3	2,125
267,7	2,128
268,2	2,122
268,7	2,124
269,1	2,117
269,6	2,12
270	2,095
270,5	2,101
271	2,106
271,4	2,096
271,9	2,083
272,4	2,065
272,8	2,053
273,3	2,049
273,7	2,03
274,2	2,006
274,7	1,985
275,1	1,976
275,6	1,97
276,1	1,949
276,5	1,934
277	1,914
277,4	1,889
277,9	1,856
278,4	1,819
278,8	1,773
279,3	1,717
279,8	1,655
280,2	1,59
280,7	1,518
281,1	1,448
281,6	1,375
282,1	1,301
282,5	1,233
283	1,171
283,4	1,11
283,9	1,051
284,4	0,997
284,8	0,947
285,3	0,903
285,8	0,863
286,2	0,824
286,7	0,792
287,1	0,763
287,6	0,738
288,1	0,717
288,5	0,699
289	0,681
289,5	0,667
289,9	0,655
290,4	0,646
290,8	0,638
291,3	0,629
291,8	0,623
292,2	0,618
292,7	0,613
293,1	0,609
293,6	0,605
294,1	0,602
294,5	0,601
295	0,598
295,5	0,595
295,9	0,592
296,4	0,59
296,8	0,587
297,3	0,585
297,8	0,582
298,2	0,58
298,7	0,578
299,1	0,577
299,6	0,575
300,1	0,573
300,5	0,57
301	0,568
301,5	0,566
301,9	0,563
302,4	0,56
302,8	0,557
303,3	0,555
303,8	0,553
304,2	0,55
304,7	0,548
305,1	0,546
305,6	0,543
306,1	0,541
306,5	0,537
307	0,534
307,4	0,531
307,9	0,528
308,4	0,523
308,8	0,519
309,3	0,516
309,8	0,512
310,2	0,509
310,7	0,505
311,1	0,5
311,6	0,496
312,1	0,493
312,5	0,489
313	0,486
313,4	0,481
313,9	0,478
314,4	0,475
314,8	0,471
315,3	0,468
315,7	0,463
316,2	0,459
316,7	0,455
317,1	0,45
317,6	0,445
318	0,441
318,5	0,436
319	0,432
319,4	0,427
319,9	0,423
320,3	0,418
320,8	0,413
321,3	0,408
321,7	0,403
322,2	0,398
322,6	0,393
323,1	0,388
323,6	0,383
324	0,377
324,5	0,372
324,9	0,367
325,4	0,363
325,9	0,359
326,3	0,354
326,8	0,349
327,2	0,345
327,7	0,341
328,2	0,336
328,6	0,332
329,1	0,327
329,5	0,323
330	0,319
330,5	0,315
330,9	0,311
331,4	0,307
331,8	0,302
332,3	0,297
332,8	0,292
333,2	0,287
333,7	0,284
334,1	0,28
334,6	0,276
335,1	0,273
335,5	0,269
336	0,266
336,4	0,263
336,9	0,258
337,4	0,254
337,8	0,25
338,3	0,246
338,7	0,243
339,2	0,238
339,7	0,234
340,1	0,231
340,6	0,227
341	0,223
341,5	0,219
342	0,216
342,4	0,213
342,9	0,21
343,3	0,207
343,8	0,204
344,2	0,201
344,7	0,199
345,2	0,195
345,6	0,193
346,1	0,19
346,5	0,187
347	0,184
347,5	0,181
347,9	0,178
348,4	0,175
348,8	0,172
349,3	0,169
349,8	0,167
350,2	0,164
350,7	0,162
351,1	0,16
351,6	0,157
352	0,155
352,5	0,153
353	0,151
353,4	0,149
353,9	0,146
354,3	0,144
354,8	0,142
355,3	0,141
355,7	0,137
356,2	0,135
356,6	0,134
357,1	0,132
357,5	0,129
358	0,127
358,5	0,124
358,9	0,123
359,4	0,121
359,8	0,12
360,3	0,118
360,8	0,116
361,2	0,115
361,7	0,112
362,1	0,111
362,6	0,109
363	0,107
363,5	0,106
364	0,105
364,4	0,103
364,9	0,102
365,3	0,1
365,8	0,099
366,3	0,097
366,7	0,095
367,2	0,093
367,6	0,091
368,1	0,09
368,5	0,088
369	0,088
369,5	0,087
369,9	0,086
370,4	0,086
370,8	0,084
371,3	0,083
371,7	0,082
372,2	0,081
372,7	0,08
373,1	0,079
373,6	0,077
374	0,076
374,5	0,075
374,9	0,074
375,4	0,073
375,9	0,071
376,3	0,071
376,8	0,07
377,2	0,07
377,7	0,069
378,2	0,068
378,6	0,067
379,1	0,065
379,5	0,064
380	0,063
380,4	0,062
380,9	0,06
381,4	0,06
381,8	0,059
382,3	0,059
382,7	0,058
383,2	0,058
383,6	0,057
384,1	0,057
384,6	0,056
385	0,055
385,5	0,055
385,9	0,054
386,4	0,053
386,8	0,053
387,3	0,053
387,7	0,052
388,2	0,051
388,7	0,051
389,1	0,05
389,6	0,049
390	0,049
390,5	0,048
390,9	0,047
391,4	0,046
391,9	0,046
392,3	0,045
392,8	0,044
393,2	0,044
393,7	0,044
394,1	0,044
394,6	0,043
395,1	0,042
395,5	0,043
396	0,042
396,4	0,042
396,9	0,041
397,3	0,04
397,8	0,04
398,2	0,04
398,7	0,04
399,2	0,039
399,6	0,039
400,1	0,039
400,5	0,038
401	0,037
401,4	0,036
401,9	0,036
402,4	0,035
402,8	0,035
403,3	0,035
403,7	0,034
404,2	0,034
404,6	0,034
405,1	0,034
405,5	0,033
406	0,032
406,5	0,032
406,9	0,032
407,4	0,031
407,8	0,03
408,3	0,03
408,7	0,029
409,2	0,029
409,6	0,029
410,1	0,029
410,6	0,029
411	0,029
411,5	0,029
411,9	0,029
412,4	0,028
412,8	0,027
413,3	0,027
413,7	0,027
414,2	0,027
414,7	0,027
415,1	0,026
415,6	0,026
416	0,026
416,5	0,025
416,9	0,025
417,4	0,025
417,8	0,024
418,3	0,024
418,8	0,023
419,2	0,023
419,7	0,023
420,1	0,023
420,6	0,022
421	0,023
421,5	0,022
421,9	0,022
422,4	0,021
422,8	0,021
423,3	0,02
423,8	0,02
424,2	0,02
424,7	0,02
425,1	0,019
425,6	0,019
426	0,019
426,5	0,019
426,9	0,018
427,4	0,017
427,9	0,017
428,3	0,017
428,8	0,017
429,2	0,017
429,7	0,017
430,1	0,017
430,6	0,017
431	0,016
431,5	0,016
431,9	0,016
432,4	0,015
432,8	0,015
433,3	0,015
433,8	0,015
434,2	0,015
434,7	0,014
435,1	0,014
435,6	0,014
436	0,014
436,5	0,014
436,9	0,014
437,4	0,013
437,8	0,014
438,3	0,014
438,8	0,013
439,2	0,013
439,7	0,012
440,1	0,012
440,6	0,011
441	0,011
441,5	0,012
441,9	0,012
442,4	0,012
442,8	0,012
443,3	0,011
443,7	0,012
444,2	0,011
444,7	0,011
445,1	0,011
445,6	0,01
446	0,011
446,5	0,011
446,9	0,01
447,4	0,01
447,8	0,01
448,3	0,01
448,7	0,01
449,2	0,01
449,6	0,009
450,1	0,01
450,6	0,01
451	0,009
451,5	0,009
451,9	0,008
452,4	0,008
452,8	0,008
453,3	0,007
453,7	0,007
454,2	0,007
454,6	0,007
455,1	0,007
455,5	0,007
456	0,007
456,4	0,008
456,9	0,007
457,3	0,007
457,8	0,007
458,3	0,007
458,7	0,006
459,2	0,006
459,6	0,006
460,1	0,006
460,5	0,006
461	0,005
461,4	0,006
461,9	0,005
462,3	0,006
462,8	0,005
463,2	0,006
463,7	0,006
464,1	0,006
464,6	0,006
465	0,006
465,5	0,006
466	0,006
466,4	0,006
466,9	0,006
467,3	0,005
467,8	0,005
468,2	0,005
468,7	0,005
469,1	0,005
469,6	0,005
470	0,005
470,5	0,005
470,9	0,005
471,4	0,005
471,8	0,004
472,3	0,004
472,7	0,004
473,2	0,004
473,6	0,004
474,1	0,003
474,5	0,004
475	0,005
475,4	0,005
475,9	0,005
476,4	0,005
476,8	0,005
477,3	0,005
477,7	0,005
478,2	0,004
478,6	0,005
479,1	0,004
479,5	0,005
480	0,006
480,4	0,006
480,9	0,006
481,3	0,006
481,8	0,005
482,2	0,005
482,7	0,004
483,1	0,004
483,6	0,004
484	0,003
484,5	0,003
484,9	0,003
485,4	0,003
485,8	0,005
486,3	0,005
486,7	0,004
487,2	0,004
487,6	0,004
488,1	0,004
488,5	0,005
489	0,003
489,4	0,002
489,9	0,004
490,4	0,004
490,8	0,004
491,3	0,004
491,7	0,004
492,2	0,004
492,6	0,004
493,1	0,004
493,5	0,004
494	0,004
494,4	0,003
494,9	0,004
495,3	0,004
495,8	0,004
496,2	0,004
496,7	0,004
497,1	0,004
497,6	0,004
498	0,004
498,5	0,004
498,9	0,004
499,4	0,003
499,8	0,003
500,3	0,003
500,7	0,003
501,2	0,003
501,6	0,003
502,1	0,003
502,5	0,003
503	0,003
503,4	0,003
503,9	0,003
504,3	0,004
504,8	0,004
505,2	0,004
505,7	0,004
506,1	0,004
506,6	0,004
507	0,005
507,5	0,004
507,9	0,004
508,4	0,004
508,8	0,004
509,3	0,004
509,7	0,003
510,2	0,003
510,6	0,003
511,1	0,003
511,5	0,003
512	0,003
512,4	0,003
512,9	0,003
513,3	0,002
513,8	0,003
514,2	0,003
514,7	0,003
515,1	0,004
515,6	0,004
516	0,004
516,5	0,004
516,9	0,003
517,4	0,003
517,8	0,003
518,3	0,003
518,7	0,003
519,2	0,003
519,6	0,004
520,1	0,004
520,5	0,003
521	0,003
521,4	0,004
521,9	0,004
522,3	0,004
522,8	0,004
523,2	0,004
523,7	0,005
524,1	0,005
524,6	0,004
525	0,004
525,5	0,003
525,9	0,002
526,4	0,003
526,8	0,002
527,3	0,003
527,7	0,003
528,2	0,003
528,6	0,003
529,1	0,003
529,5	0,003
530	0,003
530,4	0,003
530,9	0,003
531,3	0,003
531,8	0,003
532,2	0,003
532,6	0,004
533,1	0,004
533,5	0,004
534	0,004
534,4	0,004
534,9	0,004
535,3	0,004
535,8	0,003
536,2	0,003
536,7	0,002
537,1	0,001
537,6	0,001
538	0,001
538,5	0,001
538,9	0,001
539,4	0,001
539,8	0,002
540,3	0,003
540,7	0,003
541,2	0,003
541,6	0,004
542,1	0,003
542,5	0,003
543	0,002
543,4	0,002
543,9	0,002
544,3	0,001
544,8	0,001
545,2	0
545,7	0,001
546,1	0,002
546,5	0,002
547	0,002
547,4	0,002
547,9	0,002
548,3	0,003
548,8	0,002
549,2	0,002
549,7	0,002
550,1	0,002
550,6	0,002
551	0,002
551,5	0,002
551,9	0,003
552,4	0,003
552,8	0,004
553,3	0,004
553,7	0,003
554,2	0,003
554,6	0,003
555,1	0,002
555,5	0,002
555,9	0,002
556,4	0,002
556,8	0,002
557,3	0,003
557,7	0,003
558,2	0,002
558,6	0,002
559,1	0,002
559,5	0,002
560	0,002
560,4	0,001
560,9	0,002
561,3	0,002
561,8	0,002
562,2	0,003
562,7	0,003
563,1	0,003
563,6	0,003
564	0,003
564,4	0,003
564,9	0,003
565,3	0,004
565,8	0,004
566,2	0,003
566,7	0,003
567,1	0,003
567,6	0,003
568	0,003
568,5	0,002
568,9	0,002
569,4	0,002
569,8	0,002
570,3	0,002
570,7	0,002
571,1	0,002
571,6	0,002
572	0,002
572,5	0,002
572,9	0,002
573,4	0,002
573,8	0,001
574,3	0,001
574,7	0,002
575,2	0,001
575,6	0,002
576,1	0,002
576,5	0,002
576,9	0,002
577,4	0,002
577,8	0,002
578,3	0,002
578,7	0,002
579,2	0,002
579,6	0,002
580,1	0,002
580,5	0,002
581	0,002
581,4	0,002
581,9	0,002
582,3	0,002
582,7	0,002
583,2	0,002
583,6	0,003
584,1	0,002
584,5	0,002
585	0,002
585,4	0,002
585,9	0,002
586,3	0,002
586,8	0,002
587,2	0,002
587,6	0,002
588,1	0,002
588,5	0,002
589	0,002
589,4	0,002
589,9	0,002
590,3	0,002
590,8	0,002
591,2	0,002
591,7	0,002
592,1	0,003
592,5	0,003
593	0,003
593,4	0,003
593,9	0,003
594,3	0,003
594,8	0,002
595,2	0,002
595,7	0,002
596,1	0,002
596,6	0,002
597	0,002
597,4	0,002
597,9	0,001
598,3	0,001
598,8	0,001
599,2	0,001
599,7	0,001
600,1	0,001
600,6	0
601	0
601,4	0
601,9	-0
602,3	0
602,8	0
603,2	0
603,7	0
604,1	0,001
604,6	0,001
605	0,001
605,4	0,002
605,9	0,002
606,3	0,002
606,8	0,002
607,2	0,002
607,7	0,002
608,1	0,002
608,6	0,002
609	0,002
609,4	0,003
609,9	0,002
610,3	0,002
610,8	0,002
611,2	0,001
611,7	0,002
612,1	0,001
612,6	0,001
613	0,002
613,4	0,002
613,9	0,002
614,3	0,002
614,8	0,002
615,2	0,002
615,7	0,002
616,1	0,001
616,6	0,001
617	0,001
617,4	0,001
617,9	0,001
618,3	0,001
618,8	0,001
619,2	0,001
619,7	0,002
620,1	0,002
620,5	0,002
621	0,002
621,4	0,002
621,9	0,002
622,3	0,002
622,8	0,002
623,2	0,002
623,6	0,002
624,1	0,003
624,5	0,002
625	0,003
625,4	0,003
625,9	0,002
626,3	0,002
626,8	0,003
627,2	0,003
627,6	0,003
628,1	0,003
628,5	0,003
629	0,003
629,4	0,003
629,9	0,003
630,3	0,002
630,7	0,002
631,2	0,002
631,6	0,002
632,1	0,002
632,5	0,002
633	0,002
633,4	0,002
633,8	0,002
634,3	0,002
634,7	0,002
635,2	0,003
635,6	0,002
636,1	0,002
636,5	0,002
636,9	0,002
637,4	0,001
637,8	0,001
638,3	0,001
638,7	0,002
639,2	0,002
639,6	0,002
640	0,002
640,5	0,002
640,9	0,002
641,4	0,002
641,8	0,003
642,2	0,002
642,7	0,002
643,1	0,002
643,6	0,002
644	0,002
644,5	0,002
644,9	0,002
645,3	0,003
645,8	0,003
646,2	0,003
646,7	0,003
647,1	0,003
647,6	0,003
648	0,003
648,4	0,003
648,9	0,003
649,3	0,002
649,8	0,002
650,2	0,002
650,6	0,002
651,1	0,001
651,5	0,001
652	0,001
652,4	0,001
652,9	0,001
653,3	0
653,7	0,001
654,2	0,001
654,6	0
655,1	0
655,5	0
655,9	-0
656,4	-0
656,8	0,001
657,3	0,002
657,7	0,002
658,2	0,003
658,6	0,004
659	0,006
659,5	0,009
659,9	0,01
660,4	0,008
660,8	0,006
661,2	0,005
661,7	0,004
662,1	0,003
662,6	0,002
663	0,002
663,4	0,001
663,9	0,001
664,3	0,001
664,8	0
665,2	0
665,6	0
666,1	0,001
666,5	0,001
667	0,001
667,4	0,001
667,9	0,001
668,3	0,001
668,7	0,001
669,2	0,001
669,6	0,001
670,1	0,001
670,5	0,001
670,9	0,001
671,4	0,001
671,8	0,001
672,3	0
672,7	0
673,1	0
673,6	0
674	0
674,5	0
674,9	0
675,3	0,001
675,8	0,001
676,2	0,001
676,7	0,001
677,1	0
677,5	0,001
678	0,001
678,4	0,001
678,9	0,001
679,3	0,001
679,7	0,001
680,2	0,001
680,6	0,001
681,1	0,001
681,5	0,002
681,9	0,002
682,4	0,002
682,8	0,002
683,3	0,002
683,7	0,002
684,1	0,002
684,6	0,001
685	0,001
685,5	0,001
685,9	0,001
686,3	0,001
686,8	0,001
687,2	0,001
687,7	0,001
688,1	0,001
688,5	0,001
689	0,001
689,4	0,001
689,9	0,001
690,3	0,001
690,7	0,001
691,2	0,001
691,6	0,001
692	0,001
692,5	0,001
692,9	0,001
693,4	0,001
693,8	0,001
694,2	0,001
694,7	0,002
695,1	0,002
695,6	0,002
696	0,002
696,4	0,002
696,9	0,002
697,3	0,001
697,8	0,001
698,2	0,001
698,6	0,001
699,1	0,001
699,5	0,001
699,9	0,001
700,4	0,001
700,8	0,001
701,3	0,002
701,7	0,002
702,1	0,002
702,6	0,002
703	0,002
703,5	0,002
703,9	0,002
704,3	0,002
704,8	0,002
705,2	0,002
705,6	0,002
706,1	0,002
706,5	0,001
707	0,001
707,4	0,001
707,8	0,001
708,3	0
708,7	0,001
709,2	0
709,6	0,001
710	0,001
710,5	0,001
710,9	0
711,3	0,001
711,8	0,001
712,2	0,001
712,7	0,001
713,1	0,001
713,5	0,001
714	0,001
714,4	0,001
714,8	0,001
715,3	0
715,7	0
716,2	0
716,6	0,001
717	0,001
717,5	0,001
717,9	0
718,3	0,001
718,8	0,001
719,2	0,001
719,7	0,001
720,1	0,001
720,5	0,001
721	0,001
721,4	0,002
721,8	0,001
722,3	0,001
722,7	0,001
723,2	0,001
723,6	0
724	0
724,5	0
724,9	0
725,3	0,001
725,8	0,001
726,2	0,001
726,7	0,001
727,1	0,001
727,5	0,001
728	0,001
728,4	0,001
728,8	0
729,3	0
729,7	0
730,1	0
730,6	0
731	0
731,5	0
731,9	0,001
732,3	0,001
732,8	0,001
733,2	0,001
733,6	0,001
734,1	0,001
734,5	0,001
734,9	0,001
735,4	0,001
735,8	0,001
736,3	0,001
736,7	0,001
737,1	0,001
737,6	0,001
738	0,001
738,4	0,001
738,9	0,001
739,3	0
739,7	0
740,2	-0
740,6	-0
741,1	-0
741,5	-0
741,9	-0
742,4	0
742,8	0
743,2	0,001
743,7	0,001
744,1	0,001
744,5	0,001
745	0,001
745,4	0
745,8	0
746,3	-0
746,7	-0
747,2	-0
747,6	0
748	0
748,5	0
748,9	0,001
749,3	0,001
749,8	0,001
750,2	0,001
750,6	0,001
751,1	0,001
751,5	0,001
751,9	0,001
752,4	0,001
752,8	0,001
753,3	0,002
753,7	0,002
754,1	0,001
754,6	0,001
755	0,001
755,4	0,001
755,9	0,001
756,3	0,001
756,7	0,001
757,2	0,002
757,6	0,001
758	0,001
758,5	0,001
758,9	0,001
759,3	0,001
759,8	0,001
760,2	0,001
760,6	0,002
761,1	0,001
761,5	0,001
761,9	0,002
762,4	0,002
762,8	0,002
763,3	0,001
763,7	0,001
764,1	0,002
764,6	0,002
765	0,002
765,4	0,002
765,9	0,002
766,3	0,002
766,7	0,003
767,2	0,003
767,6	0,003
768	0,004
768,5	0,003
768,9	0,003
769,3	0,003
769,8	0,003
770,2	0,003
770,6	0,003
771,1	0,002
771,5	0,002
771,9	0,002
772,4	0,002
772,8	0,002
773,2	0,002
773,7	0,002
774,1	0,002
774,5	0,003
775	0,002
775,4	0,002
775,8	0,002
776,3	0,002
776,7	0,002
777,1	0,001
777,6	0,001
778	0,002
778,4	0,001
778,9	0,002
779,3	0,002
779,7	0,002
780,2	0,002
780,6	0,002
781	0,002
781,5	0,002
781,9	0,002
782,3	0,002
782,8	0,002
783,2	0,002
783,6	0,002
784,1	0,002
784,5	0,002
784,9	0,002
785,4	0,003
785,8	0,002
786,2	0,002
786,7	0,002
787,1	0,002
787,5	0,002
788	0,002
788,4	0,002
788,8	0,002
789,3	0,002
789,7	0,002
790,1	0,002
790,6	0,001
791	0,001
791,4	0,001
791,9	0,001
792,3	0,001
792,7	0,001
793,2	0,001
793,6	0,001
794	0,001
794,5	0,001
794,9	0,001
795,3	0,001
795,8	0,002
796,2	0,002
796,6	0,002
797,1	0,002
797,5	0,002
797,9	0,002
798,4	0,003
798,8	0,002
799,2	0,002
799,7	0,002
800,1	0,002
800,5	0,002
801	0,002
801,4	0,002
801,8	0,002
802,2	0,002
802,7	0,002
803,1	0,002
803,5	0,002
804	0,003
804,4	0,003
804,8	0,003
805,3	0,003
805,7	0,002
806,1	0,002
806,6	0,002
807	0,001
807,4	0,001
807,9	0,001
808,3	0,001
808,7	0,001
809,2	0,001
809,6	0,001
810	0,001
810,4	0,001
810,9	0
811,3	0
811,7	-0
812,2	0
812,6	0
813	0
813,5	0
813,9	0
814,3	0,001
814,8	0,001
815,2	0
815,6	0
816,1	-0
816,5	-0
816,9	0
817,3	-0
817,8	0
818,2	-0
818,6	-0
819,1	0
819,5	0
819,9	0,001
820,4	0
820,8	0
821,2	0
821,7	0
822,1	0
822,5	0
822,9	-0
823,4	0
823,8	-0
824,2	-0
824,7	-0
825,1	-0
825,5	-0
826	0
826,4	0
826,8	0,001
827,3	0,001
827,7	0,001
828,1	0,002
828,5	0,002
829	0,002
829,4	0,002
829,8	0,002
830,3	0,002
830,7	0,003
831,1	0,002
831,6	0,002
832	0,002
832,4	0,002
832,8	0,002
833,3	0,002
833,7	0,001
834,1	0,001
834,6	0,001
835	0,001
835,4	0,001
835,8	0,001
836,3	0,001
836,7	0,001
837,1	0
837,6	0
838	-0
838,4	-0,001
838,9	-0
839,3	-0
839,7	0
840,1	0,001
840,6	0,001
841	0,001
841,4	0,002
841,9	0,001
842,3	0,001
842,7	0,001
843,1	0,001
843,6	0,001
844	0,001
844,4	0,001
844,9	0,001
845,3	0,001
845,7	0,001
846,2	0,001
846,6	0,001
847	0,001
847,4	0,001
847,9	0,001
848,3	0,001
848,7	0,002
849,2	0,002
849,6	0,001
850	0,001
850,4	0,001
850,9	0,001
851,3	0,001
851,7	0,001
852,2	0,001
852,6	0,001
853	0,002
853,4	0,002
853,9	0,002
854,3	0,002
854,7	0,002
855,2	0,002
855,6	0,002
856	0,002
856,4	0,002
856,9	0,002
857,3	0,002
857,7	0,002
858,2	0,002
858,6	0,001
859	0,001
859,4	0,001
859,9	0,001
860,3	0
860,7	-0
861,1	-0
861,6	-0
862	0
862,4	0
862,9	0,001
863,3	0,001
863,7	0,001
864,1	0,001
864,6	0,001
865	0,001
865,4	0,001
865,9	0,001
866,3	0,001
866,7	0,001
867,1	0,001
867,6	0,001
868	0,001
868,4	0,001
868,8	0,001
869,3	0,001
869,7	0,001
870,1	0,001
870,6	0,001
871	0,001
871,4	0,001
871,8	0
872,3	-0
872,7	-0
873,1	-0,001
873,5	-0,001
874	-0,001
874,4	-0,001
874,8	-0,001
875,3	-0,001
875,7	-0,001
876,1	-0,001
876,5	-0,001
877	-0,001
877,4	-0,001
877,8	-0,001
878,2	-0,001
878,7	-0,001
879,1	-0,001
879,5	-0,001
879,9	-0
880,4	-0
880,8	-0
881,2	0,001
881,7	0,001
882,1	0,001
882,5	0,001
882,9	0,001
883,4	0,001
883,8	0,001
884,2	0,001
884,6	0
885,1	0
885,5	0
885,9	0
886,3	0
886,8	0,001
887,2	0,001
887,6	0,001
888	0,001
888,5	0,001
888,9	0,001
889,3	0,001
889,8	0,001
890,2	0,001
890,6	0,001
891	0,001
891,5	0,001
891,9	0,001
892,3	0,001
892,7	0,001
893,2	0,001
893,6	0,001
894	0,001
894,4	0,001
894,9	0
895,3	0
895,7	0
896,1	0
896,6	0
897	0,001
897,4	0,001
897,8	0
898,3	0
898,7	0
899,1	-0
899,5	-0
900	-0
900,4	-0
900,8	-0
901,2	-0
901,7	0
902,1	0
902,5	0
902,9	0
903,4	0
903,8	0
904,2	0
904,6	-0
905,1	-0
905,5	-0
905,9	-0
906,3	-0
906,8	-0,001
907,2	-0,001
907,6	-0,001
908	-0,001
908,5	-0,002
908,9	-0,002
909,3	-0,002
909,7	-0,002
910,2	-0,002
910,6	-0,002
911	-0,002
911,4	-0,001
911,9	-0,001
912,3	-0,001
912,7	-0
913,1	-0
913,6	0
914	0
914,4	0
914,8	-0
915,3	-0
915,7	-0
916,1	-0
916,5	-0
916,9	-0,001
917,4	-0
917,8	-0
918,2	-0
918,6	0
919,1	0,001
919,5	0,001
919,9	0,001
920,3	0,001
920,8	0,001
921,2	0,001
921,6	0,001
922	0,001
922,5	0
922,9	0
923,3	-0
923,7	0
924,2	0
924,6	0
925	0
925,4	0,001
925,8	0,001
926,3	0,001
926,7	0,001
927,1	0,001
927,5	0,001
928	0,001
928,4	0,001
928,8	0,001
929,2	0,001
929,7	0,001
930,1	0,001
930,5	0,001
930,9	0,001
931,3	0
931,8	0,001
932,2	0
932,6	0
933	-0
933,5	0
933,9	0
934,3	0
934,7	0,001
935,2	0,001
935,6	0,001
936	0,001
936,4	0,001
936,8	0,002
937,3	0,002
937,7	0,002
938,1	0,002
938,5	0,002
939	0,002
939,4	0,003
939,8	0,002
940,2	0,002
940,6	0,002
941,1	0,002
941,5	0,002
941,9	0,001
942,3	0,001
942,8	0,001
943,2	0,001
943,6	0,001
944	0,001
944,4	0,001
944,9	0,002
945,3	0,002
945,7	0,002
946,1	0,002
946,6	0,002
947	0,002
947,4	0,002
947,8	0,001
948,2	0
948,7	0,001
949,1	0
949,5	0
949,9	0
950,3	-0
950,8	0
951,2	-0
951,6	-0,001
952	-0
952,5	0
952,9	0
953,3	0,001
953,7	0
954,1	0,001
954,6	0,001
955	0,001
955,4	0,001
955,8	0,002
956,2	0,001
956,7	0,002
957,1	0,002
957,5	0,002
957,9	0,002
958,3	0,001
958,8	0,001
959,2	0
959,6	0
960	0
960,5	-0
960,9	-0
961,3	-0
961,7	0
962,1	0,001
962,6	0
963	0
963,4	0
963,8	0
964,2	0
964,7	0
965,1	0
965,5	0,001
965,9	0,001
966,3	0,002
966,8	0,002
967,2	0,002
967,6	0,002
968	0,002
968,4	0,002
968,9	0,001
969,3	0,001
969,7	0
970,1	0
970,5	0,001
971	0,001
971,4	-0
971,8	-0
972,2	-0
972,6	-0
973,1	-0
973,5	-0,001
973,9	-0,001
974,3	0
974,7	0
975,2	0
975,6	-0
976	-0,001
976,4	-0
976,8	-0
977,3	-0
977,7	-0,001
978,1	0
978,5	0
978,9	0,001
979,4	0,001
979,8	0,001
980,2	0,002
980,6	0,002
981	0,002
981,5	0,002
981,9	0,002
982,3	0,002
982,7	0,002
983,1	0,002
983,6	0,001
984	0,001
984,4	0
984,8	0
985,2	0
985,6	0
986,1	0
986,5	0
986,9	-0
987,3	-0
987,7	0
988,2	-0
988,6	-0,001
989	-0
989,4	-0,001
989,8	-0
990,3	-0
990,7	-0,001
991,1	-0,001
991,5	-0
991,9	-0
992,3	-0
992,8	0
993,2	0,001
993,6	0,001
994	0,001
994,4	0
994,9	0
995,3	0
995,7	-0
996,1	-0
996,5	-0
996,9	0
997,4	0,001
997,8	0,001
998,2	0,001
998,6	0,001
999	0,002
999,5	0,001
999,9	0,002
1000,3	0,002
1000,7	0,002
1001,1	0,001
1001,5	0,002
1002	0,001
1002,4	0
1002,8	-0
1003,2	-0,001
1003,6	-0,002
1004	-0,002
1004,5	-0,002
1004,9	-0,002
1005,3	-0,001
1005,7	-0,001
1006,1	-0,001
1006,6	-0,001
1007	-0
1007,4	-0
1007,8	-0
1008,2	-0,001
1008,6	-0,001
1009,1	-0,002
1009,5	-0,002
1009,9	-0,002
1010,3	-0,003
1010,7	-0,003
1011,1	-0,003
1011,6	-0,003
1012	-0,003
1012,4	-0,003
1012,8	-0,004
1013,2	-0,004
1013,6	-0,004
1014,1	-0,004
1014,5	-0,004
1014,9	-0,004
1015,3	-0,003
1015,7	-0,003
1016,1	-0,003
1016,6	-0,003
1017	-0,003
1017,4	-0,002
1017,8	-0,002
1018,2	-0,002
1018,6	-0,002
1019,1	-0,002
1019,5	-0,002
1019,9	-0,001
1020,3	-0
1020,7	-0
1021,1	-0
1021,6	0
1022	0,001
1022,4	0,001
1022,8	0
1023,2	0
1023,6	0
1024,1	0,001
1024,5	0,001
1024,9	0,002
1025,3	0,003
1025,7	0,003
1026,1	0,003
1026,6	0,003
1027	0,003
1027,4	0,002
1027,8	0,001
1028,2	0,001
1028,6	0,001
1029	0,001
1029,5	0,002
1029,9	0,002
1030,3	0,002
1030,7	0,002
1031,1	0,002
1031,5	0,002
1032	0,002
1032,4	0,002
1032,8	0,001
1033,2	0,001
1033,6	0,001
1034	0,001
1034,4	0,001
1034,9	0,001
1035,3	0,001
1035,7	0,002
1036,1	0,002
1036,5	0,001
1036,9	0
1037,4	-0
1037,8	-0
1038,2	-0
1038,6	-0,001
1039	-0,001
1039,4	-0,001
1039,8	-0
1040,3	-0
1040,7	-0,001
1041,1	-0,001
1041,5	-0,001
1041,9	-0,001
1042,3	-0,002
1042,7	-0,002
1043,2	-0,002
1043,6	-0,002
1044	-0,002
1044,4	-0,002
1044,8	-0,002
1045,2	-0,001
1045,6	-0,001
1046,1	0
1046,5	0,001
1046,9	0,002
1047,3	0,002
1047,7	0,002
1048,1	0,002
1048,5	0,002
1049	0,001
1049,4	0,001
1049,8	0
1050,2	0,001
1050,6	-0
1051	-0,001
1051,4	-0
1051,9	-0,001
1052,3	-0,001
1052,7	-0,001
1053,1	-0,001
1053,5	-0
1053,9	0
1054,3	-0,001
1054,8	-0,001
1055,2	-0,001
1055,6	-0,001
1056	-0,002
1056,4	-0,002
1056,8	-0,002
1057,2	-0,002
1057,6	-0,002
1058,1	-0,002
1058,5	-0,002
1058,9	-0,002
1059,3	-0,003
1059,7	-0,002
1060,1	-0,003
1060,5	-0,002
1061	-0,002
1061,4	-0,001
1061,8	-0,001
1062,2	-0
1062,6	-0,001
1063	-0
1063,4	-0,001
1063,8	-0,001
1064,3	-0
1064,7	0
1065,1	-0
1065,5	-0
1065,9	0
1066,3	0
1066,7	-0
1067,1	-0,001
1067,6	-0,001
1068	-0,002
1068,4	-0,001
1068,8	-0,001
1069,2	-0,001
1069,6	-0,002
1070	-0,002
1070,4	-0,002
1070,9	-0,001
1071,3	0
1071,7	-0,001
1072,1	-0,001
1072,5	-0,001
1072,9	-0,001
1073,3	0,001
1073,7	0,002
1074,2	0,002
1074,6	0,002
1075	0,002
1075,4	0,001
1075,8	0,003
1076,2	0,001
1076,6	0
1077	-0,001
1077,5	-0,002
1077,9	-0,001
1078,3	-0,002
1078,7	-0,002
1079,1	-0,001
1079,5	-0,002
1079,9	-0
1080,3	-0
1080,7	-0
1081,2	0,002
1081,6	0,001
1082	-0
1082,4	-0,002
1082,8	-0,004
1083,2	-0,006
1083,6	-0,006
1084	-0,006
1084,5	-0,006
1084,9	-0,005
1085,3	-0,003
1085,7	-0,001
1086,1	0,001
1086,5	0,001
1086,9	-0,001
1087,3	0
1087,7	-0
1088,2	-0,002
1088,6	-0,003
1089	-0,003
1089,4	-0,004
1089,8	-0,002
1090,2	-0,004
1090,6	-0,002
1091	0,001
1091,4	0,003
1091,9	0,002
1092,3	0,001
1092,7	0
1093,1	-0,001
1093,5	-0,006
1093,9	-0,007
1094,3	-0,006
1094,7	-0,007
1095,1	-0,004
1095,5	-0,004
1096	-0,001
1096,4	0,001
1096,8	-0,001
1097,2	-0,002
1097,6	-0,004
1098	-0,01
1098,4	-0,013
1098,8	-0,009
1099,2	-0,009
1099,6	-0,004
1100,1	-0,002
1100,5	0,004
1100,9	0,003
1101,3	0,01
1101,7	0,011
1102,1	0,007
1102,5	0,007
1102,9	0,01
1103,3	0,001
1103,7	0,006
1104,2	0,002
1104,6	-0,004
1105	-0,003
1105,4	-0,003
1105,8	-0,005
1106,2	0,002
1106,6	0,003
1107	-0,002
1107,4	-0,003
1107,8	0,024
1108,3	-0
