Data from Absorbance_00057.txt Node
Date: Fri Aug 11 13:22:11 MSK 2023
User: vat
Spectrometer: MAYP114033
Trigger mode: 0
Integration Time (sec): 8,000000E-3
Scans to average: 10
Electric dark correction enabled: true
Nonlinearity correction enabled: false
Boxcar width: 3
XAxis mode: Wavelengths
Number of Pixels in Spectrum: 2068
>>>>>Begin Spectral Data<<<<<
199,4	-0
199,9	0,067
200,4	0,382
200,8	0,727
201,3	0,872
201,8	0,949
202,2	0,968
202,7	0,999
203,2	1,023
203,6	1,056
204,1	1,058
204,6	1,071
205	1,079
205,5	1,098
206	1,095
206,4	1,118
206,9	1,15
207,4	1,18
207,8	1,191
208,3	1,228
208,8	1,239
209,2	1,265
209,7	1,279
210,2	1,283
210,6	1,301
211,1	1,32
211,5	1,319
212	1,333
212,5	1,362
212,9	1,393
213,4	1,406
213,9	1,401
214,3	1,422
214,8	1,444
215,3	1,458
215,7	1,458
216,2	1,461
216,7	1,49
217,1	1,527
217,6	1,535
218,1	1,527
218,5	1,539
219	1,559
219,5	1,565
219,9	1,577
220,4	1,585
220,9	1,607
221,3	1,628
221,8	1,643
222,3	1,654
222,7	1,676
223,2	1,678
223,6	1,705
224,1	1,693
224,6	1,711
225	1,737
225,5	1,758
226	1,776
226,4	1,787
226,9	1,794
227,4	1,833
227,8	1,84
228,3	1,86
228,8	1,867
229,2	1,86
229,7	1,875
230,2	1,876
230,6	1,9
231,1	1,907
231,5	1,909
232	1,928
232,5	1,949
232,9	1,96
233,4	1,98
233,9	1,969
234,3	1,987
234,8	1,968
235,3	1,986
235,7	1,979
236,2	1,984
236,7	1,99
237,1	1,995
237,6	1,992
238,1	2,016
238,5	2,021
239	2,05
239,4	2,06
239,9	2,067
240,4	2,052
240,8	2,061
241,3	2,068
241,8	2,081
242,2	2,078
242,7	2,061
243,2	2,066
243,6	2,102
244,1	2,111
244,6	2,098
245	2,089
245,5	2,093
245,9	2,116
246,4	2,118
246,9	2,114
247,3	2,123
247,8	2,124
248,3	2,121
248,7	2,13
249,2	2,113
249,7	2,113
250,1	2,109
250,6	2,105
251	2,128
251,5	2,131
252	2,132
252,4	2,168
252,9	2,172
253,4	2,188
253,8	2,195
254,3	2,196
254,8	2,193
255,2	2,203
255,7	2,188
256,1	2,186
256,6	2,184
257,1	2,186
257,5	2,187
258	2,208
258,5	2,189
258,9	2,185
259,4	2,185
259,9	2,182
260,3	2,19
260,8	2,203
261,2	2,205
261,7	2,217
262,2	2,232
262,6	2,225
263,1	2,225
263,6	2,211
264	2,192
264,5	2,184
264,9	2,194
265,4	2,175
265,9	2,186
266,3	2,176
266,8	2,179
267,3	2,177
267,7	2,154
268,2	2,132
268,7	2,148
269,1	2,136
269,6	2,155
270	2,153
270,5	2,173
271	2,2
271,4	2,216
271,9	2,215
272,4	2,21
272,8	2,189
273,3	2,205
273,7	2,195
274,2	2,186
274,7	2,193
275,1	2,198
275,6	2,228
276,1	2,235
276,5	2,22
277	2,22
277,4	2,208
277,9	2,184
278,4	2,179
278,8	2,172
279,3	2,167
279,8	2,164
280,2	2,146
280,7	2,145
281,1	2,137
281,6	2,135
282,1	2,111
282,5	2,095
283	2,096
283,4	2,101
283,9	2,098
284,4	2,1
284,8	2,061
285,3	2,029
285,8	1,988
286,2	1,917
286,7	1,838
287,1	1,765
287,6	1,693
288,1	1,628
288,5	1,567
289	1,509
289,5	1,456
289,9	1,411
290,4	1,367
290,8	1,328
291,3	1,292
291,8	1,262
292,2	1,236
292,7	1,213
293,1	1,192
293,6	1,174
294,1	1,16
294,5	1,148
295	1,136
295,5	1,125
295,9	1,113
296,4	1,103
296,8	1,093
297,3	1,085
297,8	1,074
298,2	1,062
298,7	1,054
299,1	1,047
299,6	1,04
300,1	1,033
300,5	1,023
301	1,016
301,5	1,01
301,9	1,002
302,4	0,994
302,8	0,987
303,3	0,98
303,8	0,975
304,2	0,966
304,7	0,959
305,1	0,951
305,6	0,942
306,1	0,935
306,5	0,924
307	0,915
307,4	0,907
307,9	0,898
308,4	0,89
308,8	0,882
309,3	0,872
309,8	0,865
310,2	0,857
310,7	0,847
311,1	0,838
311,6	0,829
312,1	0,818
312,5	0,809
313	0,8
313,4	0,791
313,9	0,782
314,4	0,773
314,8	0,764
315,3	0,757
315,7	0,748
316,2	0,739
316,7	0,729
317,1	0,72
317,6	0,711
318	0,702
318,5	0,693
319	0,683
319,4	0,674
319,9	0,665
320,3	0,656
320,8	0,648
321,3	0,639
321,7	0,63
322,2	0,621
322,6	0,612
323,1	0,604
323,6	0,595
324	0,585
324,5	0,577
324,9	0,568
325,4	0,559
325,9	0,55
326,3	0,542
326,8	0,533
327,2	0,525
327,7	0,516
328,2	0,506
328,6	0,498
329,1	0,489
329,5	0,48
330	0,471
330,5	0,462
330,9	0,454
331,4	0,446
331,8	0,438
332,3	0,43
332,8	0,421
333,2	0,413
333,7	0,406
334,1	0,398
334,6	0,39
335,1	0,383
335,5	0,375
336	0,367
336,4	0,36
336,9	0,353
337,4	0,346
337,8	0,338
338,3	0,331
338,7	0,324
339,2	0,317
339,7	0,31
340,1	0,302
340,6	0,295
341	0,29
341,5	0,283
342	0,277
342,4	0,271
342,9	0,266
343,3	0,26
343,8	0,255
344,2	0,249
344,7	0,243
345,2	0,239
345,6	0,235
346,1	0,23
346,5	0,225
347	0,221
347,5	0,217
347,9	0,212
348,4	0,208
348,8	0,203
349,3	0,198
349,8	0,194
350,2	0,19
350,7	0,186
351,1	0,183
351,6	0,179
352	0,175
352,5	0,171
353	0,167
353,4	0,164
353,9	0,161
354,3	0,158
354,8	0,155
355,3	0,152
355,7	0,149
356,2	0,147
356,6	0,144
357,1	0,141
357,5	0,137
358	0,135
358,5	0,132
358,9	0,13
359,4	0,127
359,8	0,125
360,3	0,123
360,8	0,121
361,2	0,119
361,7	0,117
362,1	0,115
362,6	0,112
363	0,109
363,5	0,108
364	0,106
364,4	0,104
364,9	0,103
365,3	0,1
365,8	0,098
366,3	0,097
366,7	0,095
367,2	0,093
367,6	0,091
368,1	0,088
368,5	0,087
369	0,085
369,5	0,084
369,9	0,082
370,4	0,08
370,8	0,079
371,3	0,077
371,7	0,076
372,2	0,075
372,7	0,074
373,1	0,073
373,6	0,072
374	0,071
374,5	0,07
374,9	0,069
375,4	0,068
375,9	0,066
376,3	0,066
376,8	0,064
377,2	0,063
377,7	0,062
378,2	0,061
378,6	0,06
379,1	0,06
379,5	0,058
380	0,057
380,4	0,056
380,9	0,054
381,4	0,053
381,8	0,052
382,3	0,051
382,7	0,05
383,2	0,05
383,6	0,049
384,1	0,049
384,6	0,049
385	0,048
385,5	0,047
385,9	0,046
386,4	0,044
386,8	0,044
387,3	0,043
387,7	0,042
388,2	0,041
388,7	0,041
389,1	0,04
389,6	0,04
390	0,039
390,5	0,037
390,9	0,037
391,4	0,036
391,9	0,035
392,3	0,035
392,8	0,034
393,2	0,034
393,7	0,034
394,1	0,033
394,6	0,033
395,1	0,032
395,5	0,032
396	0,031
396,4	0,031
396,9	0,03
397,3	0,03
397,8	0,029
398,2	0,029
398,7	0,029
399,2	0,028
399,6	0,028
400,1	0,027
400,5	0,027
401	0,027
401,4	0,026
401,9	0,025
402,4	0,025
402,8	0,025
403,3	0,024
403,7	0,023
404,2	0,023
404,6	0,023
405,1	0,023
405,5	0,022
406	0,021
406,5	0,022
406,9	0,021
407,4	0,02
407,8	0,019
408,3	0,018
408,7	0,017
409,2	0,017
409,6	0,017
410,1	0,016
410,6	0,016
411	0,016
411,5	0,016
411,9	0,016
412,4	0,016
412,8	0,015
413,3	0,015
413,7	0,015
414,2	0,015
414,7	0,015
415,1	0,014
415,6	0,014
416	0,014
416,5	0,014
416,9	0,013
417,4	0,013
417,8	0,012
418,3	0,012
418,8	0,012
419,2	0,011
419,7	0,01
420,1	0,011
420,6	0,01
421	0,01
421,5	0,01
421,9	0,01
422,4	0,01
422,8	0,009
423,3	0,009
423,8	0,009
424,2	0,009
424,7	0,009
425,1	0,008
425,6	0,008
426	0,008
426,5	0,008
426,9	0,007
427,4	0,007
427,9	0,007
428,3	0,007
428,8	0,007
429,2	0,008
429,7	0,008
430,1	0,007
430,6	0,007
431	0,006
431,5	0,006
431,9	0,005
432,4	0,005
432,8	0,004
433,3	0,005
433,8	0,006
434,2	0,005
434,7	0,005
435,1	0,005
435,6	0,005
436	0,005
436,5	0,004
436,9	0,004
437,4	0,004
437,8	0,005
438,3	0,005
438,8	0,004
439,2	0,005
439,7	0,004
440,1	0,004
440,6	0,003
441	0,003
441,5	0,003
441,9	0,003
442,4	0,002
442,8	0,002
443,3	0,002
443,7	0,003
444,2	0,003
444,7	0,002
445,1	0,003
445,6	0,003
446	0,003
446,5	0,003
446,9	0,002
447,4	0,002
447,8	0,002
448,3	0,002
448,7	0,002
449,2	0,002
449,6	0,002
450,1	0,002
450,6	0,002
451	0,001
451,5	0,001
451,9	0,001
452,4	0,001
452,8	-0
453,3	-0,001
453,7	-0
454,2	0
454,6	0
455,1	0
455,5	0
456	0,001
456,4	0,002
456,9	0,002
457,3	0,002
457,8	0,001
458,3	0,001
458,7	0
459,2	-0
459,6	-0,001
460,1	-0,001
460,5	-0,001
461	-0,001
461,4	-0,001
461,9	-0,001
462,3	-0,001
462,8	-0,001
463,2	-0,001
463,7	-0
464,1	-0
464,6	-0
465	0
465,5	0
466	0,001
466,4	0,001
466,9	0,001
467,3	0
467,8	0
468,2	-0
468,7	-0
469,1	-0
469,6	-0
470	-0,001
470,5	-0,001
470,9	-0
471,4	-0
471,8	-0
472,3	-0,001
472,7	-0,001
473,2	-0
473,6	-0
474,1	-0
474,5	-0,001
475	-0
475,4	-0
475,9	0
476,4	-0
476,8	-0
477,3	-0
477,7	-0
478,2	-0,001
478,6	-0,001
479,1	-0,001
479,5	-0
480	0
480,4	0
480,9	0
481,3	0
481,8	0
482,2	-0
482,7	-0,001
483,1	-0,001
483,6	-0,002
484	-0,002
484,5	-0,002
484,9	-0,002
485,4	-0,001
485,8	-0
486,3	-0
486,7	-0
487,2	-0
487,6	0
488,1	0
488,5	0
489	-0,001
489,4	-0,002
489,9	-0,001
490,4	-0
490,8	0
491,3	-0
491,7	0
492,2	0
492,6	0,001
493,1	0
493,5	0
494	-0
494,4	-0
494,9	-0
495,3	0
495,8	0
496,2	0
496,7	-0
497,1	-0
497,6	-0,001
498	-0,001
498,5	-0,001
498,9	-0,001
499,4	-0,001
499,8	-0,001
500,3	-0,001
500,7	-0,001
501,2	-0,001
501,6	-0,001
502,1	-0,001
502,5	-0
503	-0,001
503,4	-0
503,9	-0,001
504,3	-0,001
504,8	-0,001
505,2	-0
505,7	-0,001
506,1	-0
506,6	0
507	0,001
507,5	0
507,9	0
508,4	-0
508,8	-0,001
509,3	-0,001
509,7	-0,001
510,2	-0,002
510,6	-0,001
511,1	-0,001
511,5	-0,001
512	-0,001
512,4	-0,001
512,9	-0,001
513,3	-0,001
513,8	-0,001
514,2	-0,001
514,7	-0,001
515,1	-0
515,6	-0
516	-0
516,5	0
516,9	0
517,4	-0
517,8	-0,001
518,3	-0,001
518,7	-0,001
519,2	-0,001
519,6	-0,001
520,1	-0,001
520,5	-0,002
521	-0,001
521,4	-0,001
521,9	-0,001
522,3	-0,001
522,8	-0
523,2	-0,001
523,7	-0
524,1	-0,001
524,6	-0,001
525	-0,001
525,5	-0,002
525,9	-0,002
526,4	-0,001
526,8	-0,001
527,3	-0,002
527,7	-0,001
528,2	-0,001
528,6	-0
529,1	-0,001
529,5	-0
530	-0,001
530,4	0
530,9	0
531,3	0,001
531,8	-0
532,2	0,001
532,6	0
533,1	0
533,5	-0
534	-0,001
534,4	-0,001
534,9	-0,001
535,3	-0,002
535,8	-0,002
536,2	-0,002
536,7	-0,003
537,1	-0,003
537,6	-0,003
538	-0,003
538,5	-0,003
538,9	-0,002
539,4	-0,003
539,8	-0,002
540,3	-0,001
540,7	-0,001
541,2	-0
541,6	-0
542,1	-0,001
542,5	-0
543	-0,001
543,4	-0,001
543,9	-0,002
544,3	-0,002
544,8	-0,003
545,2	-0,003
545,7	-0,003
546,1	-0,002
546,5	-0,002
547	-0,003
547,4	-0,002
547,9	-0,002
548,3	-0,002
548,8	-0,002
549,2	-0,002
549,7	-0,002
550,1	-0,002
550,6	-0,002
551	-0,001
551,5	-0,001
551,9	-0,001
552,4	-0
552,8	-0
553,3	-0
553,7	-0
554,2	-0
554,6	-0
555,1	-0,001
555,5	-0
555,9	-0,001
556,4	-0,001
556,8	-0,001
557,3	-0,001
557,7	-0,001
558,2	-0,001
558,6	-0,002
559,1	-0,002
559,5	-0,002
560	-0,002
560,4	-0,003
560,9	-0,002
561,3	-0,002
561,8	-0,001
562,2	-0,002
562,7	-0,002
563,1	-0,001
563,6	-0,001
564	-0,002
564,4	-0,002
564,9	-0,002
565,3	-0,001
565,8	-0,001
566,2	-0,002
566,7	-0,002
567,1	-0,001
567,6	-0,001
568	-0,001
568,5	-0,002
568,9	-0,002
569,4	-0,001
569,8	-0,001
570,3	-0,001
570,7	-0,001
571,1	-0,001
571,6	-0,001
572	-0,001
572,5	-0,001
572,9	-0,001
573,4	-0,002
573,8	-0,002
574,3	-0,002
574,7	-0,002
575,2	-0,002
575,6	-0,002
576,1	-0,002
576,5	-0,002
576,9	-0,002
577,4	-0,001
577,8	-0,001
578,3	-0,001
578,7	-0,001
579,2	-0,001
579,6	-0,001
580,1	-0,001
580,5	-0,001
581	-0,001
581,4	-0,001
581,9	-0,001
582,3	-0,001
582,7	-0,001
583,2	-0,001
583,6	-0,001
584,1	-0,001
584,5	-0
585	-0
585,4	-0
585,9	-0,001
586,3	-0,001
586,8	-0
587,2	-0,001
587,6	-0,001
588,1	-0,001
588,5	-0,001
589	-0,001
589,4	-0,001
589,9	-0,001
590,3	-0,001
590,8	-0,001
591,2	-0,001
591,7	-0,001
592,1	-0,001
592,5	-0,001
593	-0,001
593,4	-0,001
593,9	-0,001
594,3	-0,001
594,8	-0,001
595,2	-0,001
595,7	-0,001
596,1	-0,001
596,6	-0,001
597	-0,001
597,4	-0,001
597,9	-0,001
598,3	-0,001
598,8	-0,002
599,2	-0,002
599,7	-0,002
600,1	-0,002
600,6	-0,002
601	-0,002
601,4	-0,002
601,9	-0,002
602,3	-0,002
602,8	-0,003
603,2	-0,003
603,7	-0,003
604,1	-0,002
604,6	-0,002
605	-0,002
605,4	-0,002
605,9	-0,002
606,3	-0,002
606,8	-0,001
607,2	-0,001
607,7	-0,001
608,1	-0,001
608,6	-0,001
609	-0,001
609,4	-0,001
609,9	-0,001
610,3	-0,001
610,8	-0,001
611,2	-0,001
611,7	-0,001
612,1	-0,002
612,6	-0,002
613	-0,002
613,4	-0,002
613,9	-0,001
614,3	-0,001
614,8	-0,001
615,2	-0,001
615,7	-0,001
616,1	-0,001
616,6	-0,001
617	-0,001
617,4	-0,001
617,9	-0,002
618,3	-0,001
618,8	-0,001
619,2	-0,001
619,7	-0,001
620,1	-0,001
620,5	-0,001
621	-0,001
621,4	-0,001
621,9	-0,001
622,3	-0,001
622,8	-0,001
623,2	-0,001
623,6	-0,001
624,1	-0,001
624,5	-0,001
625	-0,001
625,4	-0,002
625,9	-0,002
626,3	-0,002
626,8	-0,002
627,2	-0,001
627,6	-0,001
628,1	-0,001
628,5	-0,001
629	-0,001
629,4	-0,001
629,9	-0,001
630,3	-0,001
630,7	-0,001
631,2	-0
631,6	-0,001
632,1	-0,001
632,5	-0,001
633	-0,001
633,4	-0,001
633,8	-0,001
634,3	-0,001
634,7	-0,001
635,2	-0
635,6	-0,001
636,1	-0
636,5	-0,001
636,9	-0,001
637,4	-0,001
637,8	-0,001
638,3	-0,001
638,7	-0,001
639,2	-0,001
639,6	-0,001
640	-0
640,5	-0
640,9	-0
641,4	-0,001
641,8	-0,001
642,2	-0,001
642,7	-0,001
643,1	-0,001
643,6	-0,001
644	-0,001
644,5	-0,001
644,9	-0,001
645,3	-0
645,8	-0
646,2	-0
646,7	0
647,1	0
647,6	0
648	0
648,4	-0
648,9	-0,001
649,3	-0,001
649,8	-0,001
650,2	-0,001
650,6	-0,001
651,1	-0,002
651,5	-0,002
652	-0,002
652,4	-0,002
652,9	-0,002
653,3	-0,002
653,7	-0,002
654,2	-0,002
654,6	-0,002
655,1	-0,002
655,5	-0,001
655,9	-0,001
656,4	-0,001
656,8	-0
657,3	-0
657,7	0
658,2	0,001
658,6	0,001
659	0,002
659,5	0,002
659,9	0,003
660,4	0,002
660,8	0,001
661,2	0
661,7	-0
662,1	-0,001
662,6	-0,001
663	-0,001
663,4	-0,002
663,9	-0,002
664,3	-0,001
664,8	-0,002
665,2	-0,002
665,6	-0,001
666,1	-0,001
666,5	-0,002
667	-0,001
667,4	-0,001
667,9	-0,001
668,3	-0,001
668,7	-0,001
669,2	-0,001
669,6	-0,001
670,1	-0,001
670,5	-0,001
670,9	-0,001
671,4	-0,002
671,8	-0,002
672,3	-0,002
672,7	-0,003
673,1	-0,003
673,6	-0,003
674	-0,002
674,5	-0,002
674,9	-0,002
675,3	-0,002
675,8	-0,002
676,2	-0,002
676,7	-0,002
677,1	-0,002
677,5	-0,002
678	-0,002
678,4	-0,002
678,9	-0,002
679,3	-0,002
679,7	-0,002
680,2	-0,001
680,6	-0,001
681,1	-0,002
681,5	-0,001
681,9	-0,001
682,4	-0
682,8	-0
683,3	-0
683,7	-0
684,1	-0
684,6	-0,001
685	-0,001
685,5	-0,002
685,9	-0,002
686,3	-0,002
686,8	-0,002
687,2	-0,002
687,7	-0,001
688,1	-0,001
688,5	-0,001
689	-0,001
689,4	-0,001
689,9	-0,001
690,3	-0
690,7	-0
691,2	-0,001
691,6	-0
692	-0
692,5	-0
692,9	-0
693,4	-0,001
693,8	-0,001
694,2	-0,001
694,7	-0,001
695,1	-0,001
695,6	-0,001
696	-0,001
696,4	-0,001
696,9	-0,001
697,3	-0,001
697,8	-0,001
698,2	-0,002
698,6	-0,001
699,1	-0,002
699,5	-0,002
699,9	-0,002
700,4	-0,002
700,8	-0,002
701,3	-0,001
701,7	-0,001
702,1	-0,001
702,6	-0,001
703	-0,001
703,5	-0
703,9	-0
704,3	0
704,8	0
705,2	-0
705,6	0
706,1	0
706,5	0
707	-0
707,4	-0,001
707,8	-0
708,3	-0
708,7	-0,001
709,2	-0,001
709,6	-0,001
710	-0,001
710,5	-0,001
710,9	-0,001
711,3	-0,001
711,8	-0,001
712,2	-0,001
712,7	-0,001
713,1	-0,001
713,5	-0,001
714	-0,001
714,4	-0,002
714,8	-0,001
715,3	-0,001
715,7	-0,002
716,2	-0,002
716,6	-0,001
717	-0,001
717,5	-0,001
717,9	-0,002
718,3	-0,002
718,8	-0,002
719,2	-0,002
719,7	-0,002
720,1	-0,002
720,5	-0,002
721	-0,001
721,4	-0,001
721,8	-0,001
722,3	-0,001
722,7	-0,001
723,2	-0,002
723,6	-0,002
724	-0,002
724,5	-0,002
724,9	-0,002
725,3	-0,002
725,8	-0,001
726,2	-0,001
726,7	-0,001
727,1	-0,001
727,5	-0,001
728	-0,001
728,4	-0,002
728,8	-0,002
729,3	-0,002
729,7	-0,002
730,1	-0,003
730,6	-0,003
731	-0,002
731,5	-0,002
731,9	-0,002
732,3	-0,001
732,8	-0,001
733,2	-0,001
733,6	-0,001
734,1	-0,001
734,5	-0,001
734,9	-0,001
735,4	-0,001
735,8	-0,001
736,3	-0,001
736,7	-0,001
737,1	-0,001
737,6	-0,001
738	-0,001
738,4	-0,001
738,9	-0,001
739,3	-0,002
739,7	-0,002
740,2	-0,002
740,6	-0,002
741,1	-0,003
741,5	-0,002
741,9	-0,002
742,4	-0,002
742,8	-0,002
743,2	-0,001
743,7	-0,001
744,1	-0,001
744,5	-0,001
745	-0,001
745,4	-0,001
745,8	-0,001
746,3	-0,001
746,7	-0,001
747,2	-0,002
747,6	-0,002
748	-0,001
748,5	-0,002
748,9	-0,002
749,3	-0,002
749,8	-0,001
750,2	-0,001
750,6	-0,001
751,1	-0,001
751,5	-0
751,9	-0
752,4	-0
752,8	-0
753,3	-0
753,7	-0
754,1	-0
754,6	-0
755	-0
755,4	-0
755,9	-0
756,3	-0
756,7	-0,001
757,2	-0
757,6	-0,001
758	-0
758,5	-0,001
758,9	-0
759,3	-0,001
759,8	-0,001
760,2	-0,001
760,6	-0
761,1	-0,001
761,5	-0
761,9	-0
762,4	-0
762,8	0
763,3	0
763,7	0
764,1	0
764,6	0
765	0
765,4	0
765,9	0,001
766,3	0,001
766,7	0,001
767,2	0,001
767,6	0,001
768	0,002
768,5	0,001
768,9	0,002
769,3	0,001
769,8	0,001
770,2	0,001
770,6	0,001
771,1	0,001
771,5	0
771,9	0
772,4	0
772,8	-0
773,2	0
773,7	0
774,1	0,001
774,5	0,001
775	0,001
775,4	0,001
775,8	0,001
776,3	0,001
776,7	0
777,1	0
777,6	0
778	0
778,4	0
778,9	0,001
779,3	0,001
779,7	0
780,2	0
780,6	0,001
781	0,001
781,5	0,001
781,9	0,001
782,3	0,001
782,8	0,001
783,2	0,001
783,6	0,001
784,1	0,001
784,5	0,001
784,9	0,001
785,4	0
785,8	-0
786,2	-0,001
786,7	-0,001
787,1	-0,001
787,5	-0,001
788	-0,001
788,4	-0,001
788,8	-0,001
789,3	-0,001
789,7	-0,001
790,1	-0,001
790,6	-0,001
791	-0,002
791,4	-0,002
791,9	-0,001
792,3	-0,001
792,7	-0,002
793,2	-0,001
793,6	-0,001
794	-0,001
794,5	-0,001
794,9	-0,001
795,3	-0,001
795,8	-0
796,2	-0
796,6	-0
797,1	0
797,5	0
797,9	0
798,4	0
798,8	0
799,2	0
799,7	0
800,1	-0
800,5	-0
801	-0,001
801,4	-0,001
801,8	-0,001
802,2	-0,001
802,7	-0,001
803,1	-0,001
803,5	-0,001
804	-0
804,4	-0
804,8	-0
805,3	-0
805,7	-0
806,1	-0,001
806,6	-0
807	-0,001
807,4	-0,001
807,9	-0,001
808,3	-0,001
808,7	-0
809,2	-0
809,6	-0,001
810	-0,001
810,4	-0
810,9	-0,001
811,3	-0,001
811,7	-0,001
812,2	-0,002
812,6	-0,001
813	-0,002
813,5	-0,002
813,9	-0,002
814,3	-0,002
814,8	-0,002
815,2	-0,002
815,6	-0,002
816,1	-0,002
816,5	-0,002
816,9	-0,002
817,3	-0,002
817,8	-0,002
818,2	-0,002
818,6	-0,002
819,1	-0,001
819,5	-0,001
819,9	-0,001
820,4	-0,001
820,8	-0,002
821,2	-0,002
821,7	-0,002
822,1	-0,002
822,5	-0,002
822,9	-0,003
823,4	-0,002
823,8	-0,003
824,2	-0,003
824,7	-0,002
825,1	-0,002
825,5	-0,002
826	-0,001
826,4	-0,001
826,8	-0,001
827,3	-0
827,7	-0
828,1	0
828,5	0
829	-0
829,4	-0
829,8	-0
830,3	-0,001
830,7	-0,001
831,1	-0,001
831,6	-0,001
832	-0,001
832,4	-0,001
832,8	-0,001
833,3	-0,001
833,7	-0,001
834,1	-0,001
834,6	-0,001
835	-0,001
835,4	-0,001
835,8	-0,002
836,3	-0,002
836,7	-0,002
837,1	-0,002
837,6	-0,002
838	-0,002
838,4	-0,002
838,9	-0,002
839,3	-0,002
839,7	-0,002
840,1	-0,001
840,6	-0
841	-0
841,4	0
841,9	-0
842,3	-0
842,7	-0
843,1	-0
843,6	-0,001
844	-0
844,4	-0,001
844,9	-0
845,3	-0
845,7	-0
846,2	-0
846,6	0
847	-0
847,4	-0
847,9	-0
848,3	-0
848,7	0
849,2	-0
849,6	-0
850	0
850,4	0
850,9	-0
851,3	-0
851,7	-0
852,2	0
852,6	0
853	0
853,4	0
853,9	0
854,3	0,001
854,7	0,001
855,2	0,001
855,6	0
856	0,001
856,4	0
856,9	0
857,3	0
857,7	-0
858,2	-0,001
858,6	-0,001
859	-0,002
859,4	-0,002
859,9	-0,002
860,3	-0,002
860,7	-0,002
861,1	-0,002
861,6	-0,002
862	-0,002
862,4	-0,001
862,9	-0,001
863,3	-0,001
863,7	-0,001
864,1	-0,001
864,6	-0,001
865	-0,001
865,4	-0,001
865,9	-0,001
866,3	-0,001
866,7	-0,001
867,1	-0,001
867,6	-0,001
868	-0,001
868,4	-0,001
868,8	-0,001
869,3	-0,001
869,7	-0,001
870,1	-0,001
870,6	-0,001
871	-0,001
871,4	-0,001
871,8	-0,002
872,3	-0,002
872,7	-0,002
873,1	-0,002
873,5	-0,003
874	-0,003
874,4	-0,003
874,8	-0,002
875,3	-0,003
875,7	-0,003
876,1	-0,002
876,5	-0,002
877	-0,002
877,4	-0,002
877,8	-0,002
878,2	-0,002
878,7	-0,002
879,1	-0,002
879,5	-0,002
879,9	-0,002
880,4	-0,002
880,8	-0,002
881,2	-0,001
881,7	-0,001
882,1	-0,001
882,5	-0,001
882,9	-0,001
883,4	-0,001
883,8	-0,001
884,2	-0,001
884,6	-0,001
885,1	-0,001
885,5	-0,001
885,9	-0,001
886,3	-0,001
886,8	-0,001
887,2	-0,001
887,6	-0,001
888	-0,001
888,5	-0,001
888,9	-0,001
889,3	-0,001
889,8	-0,001
890,2	-0
890,6	-0
891	0
891,5	0
891,9	0
892,3	0
892,7	0,001
893,2	0
893,6	0
894	-0
894,4	-0
894,9	-0
895,3	-0
895,7	-0,001
896,1	-0,001
896,6	-0,001
897	-0,001
897,4	-0,002
897,8	-0,001
898,3	-0,001
898,7	-0,001
899,1	-0,001
899,5	-0,001
900	-0,001
900,4	-0,001
900,8	-0,001
901,2	-0,001
901,7	-0,001
902,1	-0,001
902,5	-0,001
902,9	-0,002
903,4	-0,002
903,8	-0,002
904,2	-0,002
904,6	-0,002
905,1	-0,002
905,5	-0,002
905,9	-0,002
906,3	-0,002
906,8	-0,002
907,2	-0,002
907,6	-0,003
908	-0,003
908,5	-0,003
908,9	-0,004
909,3	-0,004
909,7	-0,004
910,2	-0,004
910,6	-0,004
911	-0,003
911,4	-0,003
911,9	-0,003
912,3	-0,003
912,7	-0,002
913,1	-0,002
913,6	-0,002
914	-0,002
914,4	-0,003
914,8	-0,003
915,3	-0,002
915,7	-0,003
916,1	-0,003
916,5	-0,002
916,9	-0,002
917,4	-0,002
917,8	-0,001
918,2	-0,001
918,6	-0,001
919,1	-0
919,5	0
919,9	0
920,3	0
920,8	0
921,2	0
921,6	-0
922	-0
922,5	-0,001
922,9	-0,001
923,3	-0,001
923,7	-0,001
924,2	-0,001
924,6	-0,001
925	-0,002
925,4	-0,001
925,8	-0,001
926,3	-0,001
926,7	-0
927,1	-0
927,5	0
928	0,001
928,4	0
928,8	-0,001
929,2	-0,001
929,7	-0,001
930,1	-0,001
930,5	-0,001
930,9	-0,001
931,3	-0,001
931,8	-0,001
932,2	-0,001
932,6	-0,001
933	-0,001
933,5	-0,001
933,9	-0,002
934,3	-0,002
934,7	-0,001
935,2	-0,001
935,6	-0
936	0
936,4	-0
936,8	0
937,3	0
937,7	-0
938,1	-0,001
938,5	-0,001
939	-0,002
939,4	-0,002
939,8	-0,002
940,2	-0,002
940,6	-0,002
941,1	-0,002
941,5	-0,002
941,9	-0,002
942,3	-0,002
942,8	-0,002
943,2	-0,003
943,6	-0,003
944	-0,002
944,4	-0,002
944,9	-0,002
945,3	-0,002
945,7	-0,001
946,1	-0,001
946,6	-0,001
947	-0,002
947,4	-0,002
947,8	-0,002
948,2	-0,003
948,7	-0,003
949,1	-0,004
949,5	-0,004
949,9	-0,004
950,3	-0,004
950,8	-0,004
951,2	-0,004
951,6	-0,004
952	-0,003
952,5	-0,003
952,9	-0,003
953,3	-0,003
953,7	-0,003
954,1	-0,002
954,6	-0,002
955	-0,003
955,4	-0,002
955,8	-0,002
956,2	-0,002
956,7	-0,002
957,1	-0,002
957,5	-0,002
957,9	-0,001
958,3	-0,001
958,8	-0,002
959,2	-0,002
959,6	-0,002
960	-0,003
960,5	-0,003
960,9	-0,003
961,3	-0,003
961,7	-0,003
962,1	-0,002
962,6	-0,003
963	-0,003
963,4	-0,003
963,8	-0,003
964,2	-0,002
964,7	-0,002
965,1	-0,002
965,5	-0,002
965,9	-0,001
966,3	-0
966,8	-0
967,2	0
967,6	-0
968	-0
968,4	-0
968,9	-0,001
969,3	-0,002
969,7	-0,002
970,1	-0,002
970,5	-0,002
971	-0,002
971,4	-0,002
971,8	-0,002
972,2	-0,002
972,6	-0,002
973,1	-0,003
973,5	-0,003
973,9	-0,002
974,3	-0,002
974,7	-0,002
975,2	-0,001
975,6	-0,001
976	-0,001
976,4	-0,001
976,8	-0,001
977,3	-0,002
977,7	-0,002
978,1	-0,002
978,5	-0,001
978,9	-0,001
979,4	-0
979,8	-0
980,2	0
980,6	0,001
981	0,001
981,5	0,001
981,9	0,001
982,3	0
982,7	0
983,1	0
983,6	0
984	-0
984,4	-0,001
984,8	-0,001
985,2	-0,001
985,6	-0,001
986,1	-0,002
986,5	-0,001
986,9	-0,002
987,3	-0,002
987,7	-0,002
988,2	-0,002
988,6	-0,002
989	-0,002
989,4	-0,002
989,8	-0,002
990,3	-0,003
990,7	-0,003
991,1	-0,003
991,5	-0,003
991,9	-0,003
992,3	-0,003
992,8	-0,003
993,2	-0,003
993,6	-0,003
994	-0,003
994,4	-0,003
994,9	-0,003
995,3	-0,003
995,7	-0,003
996,1	-0,002
996,5	-0,002
996,9	-0,002
997,4	-0,001
997,8	-0,001
998,2	0
998,6	0
999	0,001
999,5	0,001
999,9	0,001
1000,3	0,001
1000,7	0,001
1001,1	0,001
1001,5	0
1002	-0
1002,4	-0
1002,8	-0,001
1003,2	-0,001
1003,6	-0,001
1004	-0,001
1004,5	-0,001
1004,9	-0,001
1005,3	-0,001
1005,7	-0,001
1006,1	-0,001
1006,6	-0,001
1007	-0
1007,4	0
1007,8	-0
1008,2	-0
1008,6	-0
1009,1	-0,001
1009,5	-0,001
1009,9	-0,002
1010,3	-0,002
1010,7	-0,002
1011,1	-0,002
1011,6	-0,002
1012	-0,002
1012,4	-0,002
1012,8	-0,002
1013,2	-0,002
1013,6	-0,003
1014,1	-0,002
1014,5	-0,003
1014,9	-0,002
1015,3	-0,002
1015,7	-0,001
1016,1	-0,001
1016,6	-0,001
1017	-0,001
1017,4	-0,001
1017,8	-0,002
1018,2	-0,002
1018,6	-0,001
1019,1	-0,002
1019,5	-0,002
1019,9	-0,001
1020,3	-0
1020,7	-0
1021,1	0
1021,6	0
1022	0,001
1022,4	0,001
1022,8	0,001
1023,2	0,001
1023,6	0,001
1024,1	0,001
1024,5	0,001
1024,9	0,002
1025,3	0,003
1025,7	0,003
1026,1	0,003
1026,6	0,004
1027	0,003
1027,4	0,002
1027,8	0,002
1028,2	0,002
1028,6	0,001
1029	0,002
1029,5	0,001
1029,9	0,002
1030,3	0,002
1030,7	0,002
1031,1	0,002
1031,5	0,002
1032	0,002
1032,4	0,002
1032,8	0,001
1033,2	0,001
1033,6	0,001
1034	0,001
1034,4	0,001
1034,9	0
1035,3	-0
1035,7	0,001
1036,1	0,001
1036,5	0,001
1036,9	0
1037,4	0
1037,8	0
1038,2	0,001
1038,6	0
1039	0
1039,4	0
1039,8	0
1040,3	0
1040,7	-0
1041,1	0
1041,5	0
1041,9	-0,001
1042,3	-0,001
1042,7	-0,001
1043,2	-0,001
1043,6	-0,001
1044	-0,002
1044,4	-0,002
1044,8	-0,002
1045,2	-0,002
1045,6	-0,001
1046,1	-0
1046,5	-0
1046,9	-0
1047,3	-0
1047,7	-0
1048,1	-0,001
1048,5	-0,001
1049	-0,002
1049,4	-0,002
1049,8	-0,002
1050,2	-0,002
1050,6	-0,002
1051	-0,002
1051,4	-0,002
1051,9	-0,002
1052,3	-0,002
1052,7	-0,002
1053,1	-0,002
1053,5	-0,001
1053,9	-0,001
1054,3	-0,002
1054,8	-0,001
1055,2	-0,002
1055,6	-0,001
1056	-0,002
1056,4	-0,002
1056,8	-0,001
1057,2	-0,001
1057,6	-0,001
1058,1	-0,002
1058,5	-0,002
1058,9	-0,003
1059,3	-0,003
1059,7	-0,004
1060,1	-0,003
1060,5	-0,004
1061	-0,004
1061,4	-0,003
1061,8	-0,003
1062,2	-0,003
1062,6	-0,003
1063	-0,004
1063,4	-0,003
1063,8	-0,003
1064,3	-0,002
1064,7	-0,002
1065,1	-0,001
1065,5	-0,001
1065,9	-0
1066,3	-0
1066,7	-0
1067,1	-0,001
1067,6	-0,002
1068	-0,003
1068,4	-0,003
1068,8	-0,003
1069,2	-0,003
1069,6	-0,003
1070	-0,002
1070,4	-0,002
1070,9	-0,002
1071,3	-0,001
1071,7	-0,001
1072,1	-0,001
1072,5	-0,001
1072,9	-0,002
1073,3	-0,001
1073,7	-0
1074,2	-0
1074,6	0
1075	-0,001
1075,4	-0,002
1075,8	-0,002
1076,2	-0,002
1076,6	-0,002
1077	-0,004
1077,5	-0,004
1077,9	-0,004
1078,3	-0,004
1078,7	-0,004
1079,1	-0,004
1079,5	-0,004
1079,9	-0,003
1080,3	-0,002
1080,7	-0,002
1081,2	-0,001
1081,6	-0,001
1082	-0,001
1082,4	-0,002
1082,8	-0,003
1083,2	-0,005
1083,6	-0,004
1084	-0,004
1084,5	-0,004
1084,9	-0,004
1085,3	-0,004
1085,7	-0,001
1086,1	-0
1086,5	-0,001
1086,9	-0,001
1087,3	-0,001
1087,7	0
1088,2	-0
1088,6	-0,003
1089	-0,002
1089,4	-0,001
1089,8	-0,001
1090,2	-0,006
1090,6	-0,006
1091	-0,005
1091,4	0
1091,9	0,001
1092,3	-0
1092,7	0,001
1093,1	0,003
1093,5	0,003
1093,9	-0,001
1094,3	-0,002
1094,7	-0,003
1095,1	0
1095,5	0
1096	0,004
1096,4	0,004
1096,8	0,006
1097,2	0,002
1097,6	0,002
1098	-0,004
1098,4	-0,007
1098,8	-0,011
1099,2	-0,008
1099,6	-0,004
1100,1	-0,006
1100,5	-0,005
1100,9	0
1101,3	0,007
1101,7	0,011
1102,1	0,005
1102,5	0,005
1102,9	0,025
1103,3	0,02
1103,7	0,018
1104,2	0,006
1104,6	0,011
1105	0,01
1105,4	0,012
1105,8	0,002
1106,2	0,009
1106,6	0,015
1107	0,02
1107,4	0,008
1107,8	0,045
1108,3	0,288
