Data from Absorbance_00069.txt Node
Date: Fri Aug 11 13:32:54 MSK 2023
User: vat
Spectrometer: MAYP114033
Trigger mode: 0
Integration Time (sec): 8,000000E-3
Scans to average: 10
Electric dark correction enabled: true
Nonlinearity correction enabled: false
Boxcar width: 3
XAxis mode: Wavelengths
Number of Pixels in Spectrum: 2068
>>>>>Begin Spectral Data<<<<<
199,4	-0
199,9	0,156
200,4	0,477
200,8	0,735
201,3	0,889
201,8	0,95
202,2	0,997
202,7	1,02
203,2	1,05
203,6	1,071
204,1	1,109
204,6	1,114
205	1,132
205,5	1,137
206	1,131
206,4	1,152
206,9	1,164
207,4	1,177
207,8	1,19
208,3	1,215
208,8	1,231
209,2	1,267
209,7	1,274
210,2	1,296
210,6	1,31
211,1	1,328
211,5	1,34
212	1,355
212,5	1,371
212,9	1,415
213,4	1,428
213,9	1,423
214,3	1,424
214,8	1,439
215,3	1,451
215,7	1,443
216,2	1,431
216,7	1,452
217,1	1,49
217,6	1,516
218,1	1,518
218,5	1,529
219	1,548
219,5	1,573
219,9	1,583
220,4	1,575
220,9	1,593
221,3	1,608
221,8	1,629
222,3	1,66
222,7	1,674
223,2	1,686
223,6	1,72
224,1	1,732
224,6	1,747
225	1,755
225,5	1,775
226	1,795
226,4	1,819
226,9	1,817
227,4	1,851
227,8	1,865
228,3	1,905
228,8	1,917
229,2	1,911
229,7	1,926
230,2	1,943
230,6	1,941
231,1	1,936
231,5	1,937
232	1,937
232,5	1,952
232,9	1,942
233,4	1,962
233,9	1,96
234,3	1,969
234,8	1,958
235,3	1,966
235,7	1,973
236,2	2,002
236,7	2,012
237,1	2,023
237,6	2,043
238,1	2,047
238,5	2,061
239	2,07
239,4	2,066
239,9	2,069
240,4	2,068
240,8	2,062
241,3	2,057
241,8	2,079
242,2	2,09
242,7	2,093
243,2	2,087
243,6	2,102
244,1	2,109
244,6	2,151
245	2,13
245,5	2,128
245,9	2,138
246,4	2,158
246,9	2,155
247,3	2,154
247,8	2,12
248,3	2,12
248,7	2,127
249,2	2,12
249,7	2,119
250,1	2,131
250,6	2,134
251	2,157
251,5	2,162
252	2,164
252,4	2,184
252,9	2,183
253,4	2,183
253,8	2,182
254,3	2,176
254,8	2,16
255,2	2,16
255,7	2,138
256,1	2,137
256,6	2,135
257,1	2,156
257,5	2,165
258	2,184
258,5	2,191
258,9	2,196
259,4	2,191
259,9	2,205
260,3	2,21
260,8	2,222
261,2	2,228
261,7	2,232
262,2	2,236
262,6	2,242
263,1	2,213
263,6	2,189
264	2,185
264,5	2,189
264,9	2,195
265,4	2,188
265,9	2,181
266,3	2,201
266,8	2,204
267,3	2,187
267,7	2,174
268,2	2,161
268,7	2,159
269,1	2,158
269,6	2,141
270	2,14
270,5	2,162
271	2,168
271,4	2,165
271,9	2,158
272,4	2,144
272,8	2,14
273,3	2,138
273,7	2,123
274,2	2,12
274,7	2,113
275,1	2,114
275,6	2,133
276,1	2,133
276,5	2,13
277	2,125
277,4	2,122
277,9	2,114
278,4	2,138
278,8	2,117
279,3	2,1
279,8	2,099
280,2	2,086
280,7	2,073
281,1	2,057
281,6	2,035
282,1	2,022
282,5	2,013
283	1,996
283,4	1,973
283,9	1,946
284,4	1,908
284,8	1,853
285,3	1,788
285,8	1,713
286,2	1,623
286,7	1,537
287,1	1,452
287,6	1,371
288,1	1,291
288,5	1,221
289	1,155
289,5	1,1
289,9	1,048
290,4	1,002
290,8	0,963
291,3	0,928
291,8	0,9
292,2	0,874
292,7	0,852
293,1	0,832
293,6	0,815
294,1	0,798
294,5	0,786
295	0,774
295,5	0,765
295,9	0,755
296,4	0,748
296,8	0,74
297,3	0,735
297,8	0,729
298,2	0,722
298,7	0,717
299,1	0,712
299,6	0,706
300,1	0,702
300,5	0,696
301	0,692
301,5	0,687
301,9	0,683
302,4	0,679
302,8	0,676
303,3	0,672
303,8	0,669
304,2	0,665
304,7	0,661
305,1	0,657
305,6	0,652
306,1	0,648
306,5	0,643
307	0,638
307,4	0,633
307,9	0,629
308,4	0,623
308,8	0,619
309,3	0,615
309,8	0,61
310,2	0,606
310,7	0,601
311,1	0,596
311,6	0,592
312,1	0,587
312,5	0,581
313	0,577
313,4	0,572
313,9	0,568
314,4	0,563
314,8	0,557
315,3	0,554
315,7	0,549
316,2	0,543
316,7	0,538
317,1	0,532
317,6	0,526
318	0,521
318,5	0,516
319	0,51
319,4	0,504
319,9	0,499
320,3	0,493
320,8	0,49
321,3	0,484
321,7	0,478
322,2	0,474
322,6	0,468
323,1	0,463
323,6	0,457
324	0,45
324,5	0,445
324,9	0,44
325,4	0,434
325,9	0,429
326,3	0,424
326,8	0,419
327,2	0,415
327,7	0,41
328,2	0,404
328,6	0,4
329,1	0,394
329,5	0,389
330	0,384
330,5	0,379
330,9	0,375
331,4	0,37
331,8	0,365
332,3	0,359
332,8	0,354
333,2	0,348
333,7	0,343
334,1	0,338
334,6	0,333
335,1	0,327
335,5	0,322
336	0,317
336,4	0,313
336,9	0,308
337,4	0,303
337,8	0,298
338,3	0,294
338,7	0,289
339,2	0,285
339,7	0,278
340,1	0,273
340,6	0,269
341	0,265
341,5	0,26
342	0,255
342,4	0,251
342,9	0,247
343,3	0,242
343,8	0,238
344,2	0,234
344,7	0,23
345,2	0,226
345,6	0,223
346,1	0,22
346,5	0,216
347	0,213
347,5	0,209
347,9	0,205
348,4	0,201
348,8	0,196
349,3	0,192
349,8	0,189
350,2	0,184
350,7	0,182
351,1	0,179
351,6	0,176
352	0,173
352,5	0,17
353	0,167
353,4	0,163
353,9	0,16
354,3	0,157
354,8	0,154
355,3	0,152
355,7	0,149
356,2	0,146
356,6	0,144
357,1	0,141
357,5	0,138
358	0,135
358,5	0,131
358,9	0,129
359,4	0,127
359,8	0,125
360,3	0,123
360,8	0,121
361,2	0,119
361,7	0,118
362,1	0,115
362,6	0,113
363	0,11
363,5	0,108
364	0,106
364,4	0,105
364,9	0,103
365,3	0,102
365,8	0,1
366,3	0,099
366,7	0,097
367,2	0,095
367,6	0,093
368,1	0,091
368,5	0,09
369	0,088
369,5	0,087
369,9	0,084
370,4	0,083
370,8	0,082
371,3	0,08
371,7	0,079
372,2	0,078
372,7	0,077
373,1	0,077
373,6	0,076
374	0,074
374,5	0,073
374,9	0,072
375,4	0,07
375,9	0,069
376,3	0,069
376,8	0,067
377,2	0,066
377,7	0,066
378,2	0,065
378,6	0,064
379,1	0,063
379,5	0,061
380	0,061
380,4	0,06
380,9	0,059
381,4	0,058
381,8	0,058
382,3	0,057
382,7	0,056
383,2	0,055
383,6	0,054
384,1	0,054
384,6	0,053
385	0,052
385,5	0,052
385,9	0,05
386,4	0,05
386,8	0,05
387,3	0,049
387,7	0,048
388,2	0,047
388,7	0,047
389,1	0,047
389,6	0,046
390	0,046
390,5	0,044
390,9	0,044
391,4	0,043
391,9	0,043
392,3	0,041
392,8	0,041
393,2	0,04
393,7	0,04
394,1	0,04
394,6	0,039
395,1	0,037
395,5	0,038
396	0,038
396,4	0,037
396,9	0,037
397,3	0,035
397,8	0,035
398,2	0,035
398,7	0,033
399,2	0,033
399,6	0,033
400,1	0,033
400,5	0,033
401	0,032
401,4	0,032
401,9	0,031
402,4	0,03
402,8	0,03
403,3	0,029
403,7	0,028
404,2	0,029
404,6	0,029
405,1	0,029
405,5	0,028
406	0,028
406,5	0,027
406,9	0,027
407,4	0,025
407,8	0,024
408,3	0,023
408,7	0,022
409,2	0,022
409,6	0,022
410,1	0,022
410,6	0,022
411	0,022
411,5	0,022
411,9	0,022
412,4	0,021
412,8	0,02
413,3	0,02
413,7	0,02
414,2	0,02
414,7	0,02
415,1	0,019
415,6	0,019
416	0,019
416,5	0,018
416,9	0,018
417,4	0,018
417,8	0,017
418,3	0,017
418,8	0,016
419,2	0,016
419,7	0,016
420,1	0,015
420,6	0,014
421	0,015
421,5	0,014
421,9	0,013
422,4	0,013
422,8	0,013
423,3	0,013
423,8	0,013
424,2	0,012
424,7	0,012
425,1	0,012
425,6	0,012
426	0,012
426,5	0,012
426,9	0,011
427,4	0,011
427,9	0,011
428,3	0,011
428,8	0,011
429,2	0,011
429,7	0,01
430,1	0,01
430,6	0,009
431	0,009
431,5	0,008
431,9	0,008
432,4	0,008
432,8	0,007
433,3	0,008
433,8	0,008
434,2	0,008
434,7	0,007
435,1	0,008
435,6	0,008
436	0,008
436,5	0,008
436,9	0,007
437,4	0,007
437,8	0,008
438,3	0,008
438,8	0,007
439,2	0,007
439,7	0,006
440,1	0,006
440,6	0,005
441	0,004
441,5	0,004
441,9	0,004
442,4	0,004
442,8	0,004
443,3	0,004
443,7	0,004
444,2	0,004
444,7	0,004
445,1	0,004
445,6	0,003
446	0,003
446,5	0,003
446,9	0,003
447,4	0,002
447,8	0,002
448,3	0,003
448,7	0,003
449,2	0,002
449,6	0,003
450,1	0,003
450,6	0,003
451	0,003
451,5	0,002
451,9	0,002
452,4	0,002
452,8	0,002
453,3	0,002
453,7	0,002
454,2	0,002
454,6	0,003
455,1	0,003
455,5	0,003
456	0,004
456,4	0,004
456,9	0,004
457,3	0,004
457,8	0,003
458,3	0,002
458,7	0,001
459,2	0,001
459,6	0,001
460,1	0
460,5	0
461	0,001
461,4	0,001
461,9	0,001
462,3	0,001
462,8	0,001
463,2	0,001
463,7	0,002
464,1	0,002
464,6	0,001
465	0,002
465,5	0,002
466	0,002
466,4	0,002
466,9	0,001
467,3	0,001
467,8	0,001
468,2	0
468,7	0,001
469,1	0,001
469,6	0,001
470	0
470,5	0
470,9	0,001
471,4	0
471,8	0
472,3	-0
472,7	-0,001
473,2	0
473,6	0
474,1	0
474,5	0,001
475	0,001
475,4	0,001
475,9	0,002
476,4	0,001
476,8	0,001
477,3	0,001
477,7	0,001
478,2	0,001
478,6	0
479,1	0
479,5	0,001
480	0,002
480,4	0,002
480,9	0,001
481,3	0,001
481,8	0,001
482,2	0,001
482,7	-0
483,1	-0
483,6	-0
484	0
484,5	-0
484,9	-0
485,4	-0
485,8	0,002
486,3	0,001
486,7	0,001
487,2	0
487,6	0,001
488,1	0,001
488,5	0,002
489	-0
489,4	-0
489,9	0,001
490,4	0,001
490,8	0,002
491,3	0,002
491,7	0,002
492,2	0,001
492,6	0,001
493,1	0,001
493,5	0,002
494	0,001
494,4	0,001
494,9	0,002
495,3	0,002
495,8	0,002
496,2	0,002
496,7	0,001
497,1	0,001
497,6	0,001
498	0,001
498,5	0,001
498,9	0,001
499,4	0,001
499,8	0
500,3	-0
500,7	0
501,2	0
501,6	0
502,1	-0
502,5	0
503	0
503,4	0,001
503,9	0,001
504,3	0,001
504,8	0,002
505,2	0,002
505,7	0,001
506,1	0,002
506,6	0,002
507	0,002
507,5	0,002
507,9	0,001
508,4	0,001
508,8	0,001
509,3	0
509,7	-0
510,2	-0
510,6	0
511,1	0,001
511,5	0
512	0
512,4	0,001
512,9	0,001
513,3	0,001
513,8	0,001
514,2	0,001
514,7	0,001
515,1	0,002
515,6	0,001
516	0,002
516,5	0,002
516,9	0,002
517,4	0,002
517,8	0,001
518,3	0,001
518,7	0,001
519,2	0,001
519,6	0,001
520,1	0,001
520,5	0,001
521	0,001
521,4	0,002
521,9	0,002
522,3	0,003
522,8	0,003
523,2	0,002
523,7	0,003
524,1	0,003
524,6	0,002
525	0,002
525,5	0,002
525,9	0,001
526,4	0,002
526,8	0,002
527,3	0,002
527,7	0,002
528,2	0,002
528,6	0,002
529,1	0,002
529,5	0,003
530	0,003
530,4	0,002
530,9	0,002
531,3	0,002
531,8	0,002
532,2	0,001
532,6	0,001
533,1	0,001
533,5	0,002
534	0,001
534,4	0,002
534,9	0,001
535,3	0,001
535,8	0,001
536,2	0
536,7	-0
537,1	-0,001
537,6	-0,001
538	-0
538,5	0
538,9	0
539,4	0,001
539,8	0,002
540,3	0,002
540,7	0,002
541,2	0,002
541,6	0,002
542,1	0,002
542,5	0,002
543	0,001
543,4	0,001
543,9	0,001
544,3	0
544,8	-0
545,2	-0,001
545,7	0
546,1	0
546,5	0,001
547	0,001
547,4	0,001
547,9	0,001
548,3	0,001
548,8	0,001
549,2	0,001
549,7	0,001
550,1	0,001
550,6	0,001
551	0,002
551,5	0,002
551,9	0,002
552,4	0,001
552,8	0,001
553,3	0,001
553,7	0,001
554,2	0,001
554,6	0,001
555,1	0,001
555,5	0,001
555,9	0,001
556,4	0,001
556,8	0,001
557,3	0,001
557,7	0,001
558,2	0,001
558,6	0
559,1	0,001
559,5	0,001
560	0
560,4	0
560,9	0,001
561,3	0,001
561,8	0,002
562,2	0,002
562,7	0,002
563,1	0,002
563,6	0,002
564	0,002
564,4	0,002
564,9	0,001
565,3	0,002
565,8	0,001
566,2	0,001
566,7	0,001
567,1	0,001
567,6	0,001
568	0,001
568,5	0,001
568,9	0,001
569,4	0,001
569,8	0,001
570,3	0,001
570,7	0,001
571,1	0,001
571,6	0,001
572	0,001
572,5	0,001
572,9	0,001
573,4	0,001
573,8	0
574,3	-0
574,7	-0
575,2	-0
575,6	-0
576,1	-0
576,5	-0
576,9	0
577,4	0,001
577,8	0,001
578,3	0,001
578,7	0,001
579,2	0,001
579,6	0,001
580,1	0,001
580,5	0,001
581	0,001
581,4	0,001
581,9	0,001
582,3	0,001
582,7	0,001
583,2	0,001
583,6	0,001
584,1	0,001
584,5	0,001
585	0,002
585,4	0,001
585,9	0,001
586,3	0,001
586,8	0,001
587,2	0
587,6	0
588,1	0
588,5	-0
589	0
589,4	0
589,9	0
590,3	0,001
590,8	0,001
591,2	0,001
591,7	0,001
592,1	0,001
592,5	0,002
593	0,002
593,4	0,001
593,9	0,002
594,3	0,002
594,8	0,002
595,2	0,001
595,7	0,001
596,1	0,001
596,6	0,001
597	0,001
597,4	0,001
597,9	0,001
598,3	0,001
598,8	0,001
599,2	0
599,7	-0
600,1	-0
600,6	-0
601	-0
601,4	-0,001
601,9	-0,001
602,3	-0
602,8	-0
603,2	-0
603,7	-0
604,1	-0
604,6	0
605	0
605,4	0
605,9	0,001
606,3	0,001
606,8	0,001
607,2	0,001
607,7	0,001
608,1	0,001
608,6	0,001
609	0,001
609,4	0,001
609,9	0,001
610,3	0,001
610,8	0,001
611,2	0
611,7	0
612,1	0
612,6	-0
613	0
613,4	0
613,9	0
614,3	0
614,8	0
615,2	0
615,7	0,001
616,1	0,001
616,6	0,001
617	0,001
617,4	0,001
617,9	0,001
618,3	0,001
618,8	0,001
619,2	0,001
619,7	0,001
620,1	0,001
620,5	0,001
621	0,001
621,4	0,001
621,9	0,001
622,3	0,001
622,8	0,001
623,2	0,002
623,6	0,001
624,1	0,001
624,5	0,001
625	0,001
625,4	0,001
625,9	0,001
626,3	0,001
626,8	0,001
627,2	0,001
627,6	0,001
628,1	0,001
628,5	0,001
629	0,001
629,4	0,001
629,9	0,001
630,3	0,001
630,7	0,001
631,2	0,001
631,6	0,001
632,1	0,001
632,5	0,001
633	0,001
633,4	0,001
633,8	0,001
634,3	0,001
634,7	0
635,2	0
635,6	0
636,1	0,001
636,5	0
636,9	0
637,4	0
637,8	0
638,3	0
638,7	0,001
639,2	0,001
639,6	0,001
640	0,001
640,5	0,001
640,9	0,001
641,4	0
641,8	0,001
642,2	0,001
642,7	0,001
643,1	0,001
643,6	0,001
644	0,001
644,5	0,001
644,9	0
645,3	0
645,8	0,001
646,2	0,001
646,7	0,001
647,1	0,002
647,6	0,002
648	0,002
648,4	0,002
648,9	0,002
649,3	0,002
649,8	0,002
650,2	0,001
650,6	0,001
651,1	0
651,5	0
652	0
652,4	0
652,9	-0
653,3	0
653,7	0
654,2	0,001
654,6	0
655,1	0,001
655,5	0
655,9	0
656,4	0
656,8	0
657,3	0,001
657,7	0,001
658,2	0,002
658,6	0,002
659	0,003
659,5	0,005
659,9	0,006
660,4	0,006
660,8	0,004
661,2	0,003
661,7	0,003
662,1	0,002
662,6	0,001
663	0,001
663,4	0
663,9	-0
664,3	-0,001
664,8	-0,001
665,2	-0
665,6	-0,001
666,1	-0
666,5	-0
667	0
667,4	0,001
667,9	0,001
668,3	0,001
668,7	0,001
669,2	0,001
669,6	0,001
670,1	0,001
670,5	0,001
670,9	0,001
671,4	0
671,8	0
672,3	0
672,7	-0
673,1	-0
673,6	-0
674	-0
674,5	-0
674,9	-0
675,3	-0
675,8	-0
676,2	-0
676,7	-0
677,1	-0,001
677,5	-0,001
678	-0
678,4	0
678,9	0
679,3	0
679,7	0
680,2	0,001
680,6	0,001
681,1	0,001
681,5	0,001
681,9	0,001
682,4	0,001
682,8	0,001
683,3	0,001
683,7	0,001
684,1	0,001
684,6	0,001
685	0
685,5	0
685,9	0
686,3	0
686,8	0,001
687,2	0,001
687,7	0,001
688,1	0,001
688,5	0,001
689	0,001
689,4	0,001
689,9	0,001
690,3	0,001
690,7	0,001
691,2	0,001
691,6	0,001
692	0,001
692,5	0,001
692,9	0,001
693,4	0,001
693,8	0,001
694,2	0,001
694,7	0,001
695,1	0,001
695,6	0,001
696	0,001
696,4	0,001
696,9	0,002
697,3	0,001
697,8	0,001
698,2	0,001
698,6	0,001
699,1	0,001
699,5	0,001
699,9	0,001
700,4	0
700,8	0,001
701,3	0,001
701,7	0,001
702,1	0,001
702,6	0,002
703	0,002
703,5	0,002
703,9	0,002
704,3	0,002
704,8	0,001
705,2	0,001
705,6	0,001
706,1	0,001
706,5	0,001
707	0,001
707,4	0,001
707,8	0,001
708,3	0,001
708,7	0,001
709,2	0,001
709,6	0,001
710	0,001
710,5	0,001
710,9	0
711,3	0
711,8	0,001
712,2	0
712,7	0
713,1	0,001
713,5	0,001
714	0,001
714,4	0,001
714,8	0
715,3	0,001
715,7	0,001
716,2	0,001
716,6	0,001
717	0,001
717,5	0,001
717,9	0
718,3	-0
718,8	-0,001
719,2	-0,001
719,7	-0,001
720,1	-0
720,5	0
721	0,001
721,4	0,001
721,8	0,001
722,3	0,001
722,7	0,002
723,2	0,001
723,6	0
724	0
724,5	0
724,9	0
725,3	-0
725,8	0
726,2	0
726,7	0,001
727,1	0,001
727,5	0,001
728	0,001
728,4	0,001
728,8	0
729,3	0
729,7	0
730,1	-0
730,6	-0
731	-0
731,5	0
731,9	0,001
732,3	0,001
732,8	0,001
733,2	0,001
733,6	0,001
734,1	0,001
734,5	0,001
734,9	0,001
735,4	0,002
735,8	0,001
736,3	0,001
736,7	0,001
737,1	0,001
737,6	0,001
738	0
738,4	0
738,9	0
739,3	0
739,7	0
740,2	0
740,6	0
741,1	0
741,5	0
741,9	0,001
742,4	0,001
742,8	0,001
743,2	0,001
743,7	0,001
744,1	0,001
744,5	0,001
745	0,001
745,4	0,001
745,8	0,001
746,3	0,001
746,7	0,001
747,2	0
747,6	0
748	0
748,5	0
748,9	0
749,3	0
749,8	0,001
750,2	0,001
750,6	0,001
751,1	0,001
751,5	0,001
751,9	0,001
752,4	0,001
752,8	0,001
753,3	0,001
753,7	0,002
754,1	0,002
754,6	0,002
755	0,002
755,4	0,002
755,9	0,002
756,3	0,002
756,7	0,002
757,2	0,002
757,6	0,001
758	0,001
758,5	0,001
758,9	0,001
759,3	0,001
759,8	0,001
760,2	0,001
760,6	0,001
761,1	0,001
761,5	0,001
761,9	0,002
762,4	0,002
762,8	0,002
763,3	0,002
763,7	0,003
764,1	0,003
764,6	0,003
765	0,002
765,4	0,003
765,9	0,003
766,3	0,003
766,7	0,003
767,2	0,003
767,6	0,003
768	0,004
768,5	0,003
768,9	0,004
769,3	0,003
769,8	0,003
770,2	0,003
770,6	0,003
771,1	0,002
771,5	0,002
771,9	0,002
772,4	0,002
772,8	0,002
773,2	0,002
773,7	0,002
774,1	0,002
774,5	0,002
775	0,002
775,4	0,002
775,8	0,002
776,3	0,002
776,7	0,002
777,1	0,002
777,6	0,002
778	0,002
778,4	0,001
778,9	0,001
779,3	0,001
779,7	0,001
780,2	0,001
780,6	0,001
781	0,001
781,5	0,001
781,9	0,001
782,3	0,001
782,8	0,001
783,2	0,001
783,6	0,002
784,1	0,002
784,5	0,002
784,9	0,002
785,4	0,002
785,8	0,001
786,2	0,001
786,7	0,001
787,1	0,001
787,5	0,001
788	0,001
788,4	0,001
788,8	0,001
789,3	0,001
789,7	0,001
790,1	0,001
790,6	0,001
791	0
791,4	0
791,9	0,001
792,3	0,001
792,7	0
793,2	0,001
793,6	0
794	0,001
794,5	0,001
794,9	0,001
795,3	0,001
795,8	0,001
796,2	0,001
796,6	0,002
797,1	0,002
797,5	0,002
797,9	0,002
798,4	0,003
798,8	0,002
799,2	0,002
799,7	0,002
800,1	0,001
800,5	0,001
801	0
801,4	-0
801,8	-0
802,2	0
802,7	0
803,1	0
803,5	0,001
804	0,001
804,4	0,001
804,8	0,001
805,3	0,001
805,7	0,001
806,1	0,001
806,6	0,001
807	0,001
807,4	0
807,9	0,001
808,3	0,001
808,7	0,001
809,2	0,001
809,6	0,001
810	0,001
810,4	0,001
810,9	0,001
811,3	0,001
811,7	0,001
812,2	0,001
812,6	0,001
813	0,001
813,5	0
813,9	0
814,3	0
814,8	0
815,2	-0
815,6	-0
816,1	-0,001
816,5	-0,001
816,9	-0,001
817,3	-0,001
817,8	-0,001
818,2	-0,001
818,6	-0,001
819,1	-0
819,5	-0
819,9	-0
820,4	-0
820,8	-0
821,2	-0
821,7	-0
822,1	-0
822,5	-0
822,9	-0,001
823,4	-0
823,8	-0,001
824,2	-0,001
824,7	-0,001
825,1	-0,001
825,5	-0
826	0
826,4	0
826,8	0,001
827,3	0,001
827,7	0,001
828,1	0,001
828,5	0,001
829	0,001
829,4	0,001
829,8	0,001
830,3	0,001
830,7	0,001
831,1	0,001
831,6	0,001
832	0,001
832,4	0,001
832,8	0,001
833,3	0,001
833,7	0,001
834,1	0,001
834,6	0,001
835	0,001
835,4	0,001
835,8	0
836,3	0
836,7	0
837,1	0
837,6	-0
838	-0
838,4	-0,001
838,9	-0
839,3	0
839,7	0
840,1	0,001
840,6	0,001
841	0,001
841,4	0,001
841,9	0,001
842,3	0,001
842,7	0,001
843,1	0,001
843,6	0
844	0,001
844,4	0
844,9	0,001
845,3	0,001
845,7	0,001
846,2	0,001
846,6	0,001
847	0,001
847,4	0,001
847,9	0,001
848,3	0,001
848,7	0,001
849,2	0,001
849,6	0,001
850	0,001
850,4	0,001
850,9	0,001
851,3	0,001
851,7	0,001
852,2	0,001
852,6	0,001
853	0,002
853,4	0,002
853,9	0,002
854,3	0,002
854,7	0,003
855,2	0,003
855,6	0,002
856	0,003
856,4	0,002
856,9	0,002
857,3	0,002
857,7	0,002
858,2	0,002
858,6	0,001
859	0
859,4	0
859,9	0
860,3	0
860,7	0
861,1	0
861,6	0
862	0,001
862,4	0,001
862,9	0,001
863,3	0,001
863,7	0,001
864,1	0,001
864,6	0,001
865	0,001
865,4	0,001
865,9	0,001
866,3	0,001
866,7	0,001
867,1	0,001
867,6	0,001
868	0,001
868,4	0,001
868,8	0,001
869,3	0,001
869,7	0,001
870,1	0,001
870,6	0,001
871	0
871,4	0
871,8	-0
872,3	0
872,7	-0
873,1	-0
873,5	-0,001
874	-0,001
874,4	-0
874,8	0
875,3	0
875,7	0
876,1	0
876,5	0
877	0
877,4	0
877,8	-0
878,2	-0,001
878,7	-0
879,1	-0
879,5	-0
879,9	0
880,4	0,001
880,8	0,001
881,2	0,001
881,7	0,001
882,1	0,002
882,5	0,001
882,9	0,001
883,4	0,001
883,8	0,001
884,2	0
884,6	0
885,1	0
885,5	0
885,9	0
886,3	0,001
886,8	0,001
887,2	0,001
887,6	0,001
888	0
888,5	0,001
888,9	0,001
889,3	0
889,8	0
890,2	0,001
890,6	0
891	0,001
891,5	0,001
891,9	0,001
892,3	0,001
892,7	0,002
893,2	0,002
893,6	0,002
894	0,002
894,4	0,002
894,9	0,001
895,3	0,001
895,7	0,001
896,1	0,001
896,6	0,001
897	0,001
897,4	0,001
897,8	0,001
898,3	0,001
898,7	0,001
899,1	0
899,5	0
900	0
900,4	0
900,8	0,001
901,2	0
901,7	0
902,1	0
902,5	0
902,9	0
903,4	0
903,8	0
904,2	0
904,6	0,001
905,1	0,001
905,5	0
905,9	0,001
906,3	0
906,8	-0
907,2	-0
907,6	-0
908	-0,001
908,5	-0,001
908,9	-0,001
909,3	-0,001
909,7	-0,001
910,2	-0,001
910,6	-0,001
911	-0,001
911,4	-0,001
911,9	-0,001
912,3	-0,001
912,7	-0,001
913,1	-0,001
913,6	-0,001
914	-0,001
914,4	-0,001
914,8	-0,001
915,3	-0,001
915,7	-0,001
916,1	-0,001
916,5	-0
916,9	-0
917,4	0
917,8	0,001
918,2	0,001
918,6	0,001
919,1	0,001
919,5	0,002
919,9	0,002
920,3	0,002
920,8	0,002
921,2	0,002
921,6	0,002
922	0,002
922,5	0,001
922,9	0,001
923,3	0,001
923,7	0,001
924,2	0,001
924,6	0,001
925	0,001
925,4	0,001
925,8	0,001
926,3	0,001
926,7	0,001
927,1	0,001
927,5	0,001
928	0,001
928,4	0,001
928,8	0,001
929,2	0,001
929,7	0,001
930,1	0,001
930,5	0,001
930,9	0,001
931,3	0,001
931,8	0,001
932,2	0,001
932,6	0,001
933	0,001
933,5	0,001
933,9	0,001
934,3	0,001
934,7	0,001
935,2	0,001
935,6	0,002
936	0,002
936,4	0,002
936,8	0,002
937,3	0,002
937,7	0,001
938,1	0
938,5	0
939	0
939,4	0
939,8	-0
940,2	0
940,6	-0
941,1	-0,001
941,5	-0,001
941,9	-0,001
942,3	-0,001
942,8	-0,001
943,2	-0,001
943,6	-0,001
944	-0
944,4	-0,001
944,9	0
945,3	0,001
945,7	0
946,1	0
946,6	-0
947	-0
947,4	-0
947,8	-0,001
948,2	-0,001
948,7	-0,001
949,1	-0,001
949,5	-0,001
949,9	-0,001
950,3	-0,001
950,8	-0,001
951,2	-0,001
951,6	-0,001
952	-0,001
952,5	-0
952,9	-0
953,3	0
953,7	-0
954,1	-0
954,6	-0
955	-0
955,4	-0
955,8	-0
956,2	-0
956,7	0,001
957,1	0,001
957,5	0,001
957,9	0,002
958,3	0,001
958,8	0,001
959,2	0
959,6	-0
960	-0
960,5	-0,001
960,9	-0,001
961,3	-0,001
961,7	-0,001
962,1	-0
962,6	-0,001
963	-0,001
963,4	-0,001
963,8	-0,001
964,2	-0,001
964,7	-0,001
965,1	-0,001
965,5	-0
965,9	-0
966,3	0,001
966,8	0,001
967,2	0,002
967,6	0,002
968	0,002
968,4	0,002
968,9	0,002
969,3	0,001
969,7	0,001
970,1	0,001
970,5	0,001
971	0
971,4	0
971,8	-0
972,2	-0,001
972,6	-0,001
973,1	-0,001
973,5	-0,001
973,9	-0,001
974,3	-0
974,7	0
975,2	0
975,6	0,001
976	0,001
976,4	0,001
976,8	0
977,3	0
977,7	-0
978,1	0
978,5	0
978,9	0,001
979,4	0,001
979,8	0,001
980,2	0,001
980,6	0,001
981	0,001
981,5	0,001
981,9	0,001
982,3	0,001
982,7	0,002
983,1	0,002
983,6	0,001
984	0,001
984,4	0
984,8	0
985,2	0
985,6	0
986,1	-0
986,5	-0
986,9	-0
987,3	-0
987,7	0
988,2	-0,001
988,6	-0,001
989	-0,001
989,4	-0,001
989,8	-0,001
990,3	-0,001
990,7	-0,001
991,1	-0,001
991,5	-0,001
991,9	-0,001
992,3	-0,001
992,8	-0
993,2	0
993,6	0
994	0,001
994,4	0
994,9	0,001
995,3	0,001
995,7	0,001
996,1	0,001
996,5	0,001
996,9	0,001
997,4	0,001
997,8	0,002
998,2	0,002
998,6	0,002
999	0,003
999,5	0,002
999,9	0,003
1000,3	0,003
1000,7	0,003
1001,1	0,003
1001,5	0,003
1002	0,002
1002,4	0,001
1002,8	0
1003,2	-0
1003,6	-0
1004	-0,001
1004,5	-0,001
1004,9	-0,001
1005,3	0
1005,7	0
1006,1	0
1006,6	0
1007	0,001
1007,4	0,001
1007,8	0,001
1008,2	0
1008,6	0,001
1009,1	0,001
1009,5	0
1009,9	-0
1010,3	0
1010,7	-0
1011,1	-0
1011,6	-0
1012	-0
1012,4	-0,001
1012,8	-0,001
1013,2	-0,001
1013,6	-0,001
1014,1	-0,001
1014,5	-0,001
1014,9	-0,002
1015,3	-0
1015,7	-0,001
1016,1	-0
1016,6	-0
1017	-0
1017,4	-0
1017,8	0
1018,2	-0
1018,6	0
1019,1	-0
1019,5	-0
1019,9	-0
1020,3	0,001
1020,7	0
1021,1	0,001
1021,6	0,001
1022	0,001
1022,4	0,001
1022,8	0,002
1023,2	0,001
1023,6	0,002
1024,1	0,002
1024,5	0,002
1024,9	0,003
1025,3	0,004
1025,7	0,004
1026,1	0,004
1026,6	0,004
1027	0,004
1027,4	0,004
1027,8	0,004
1028,2	0,004
1028,6	0,003
1029	0,003
1029,5	0,003
1029,9	0,003
1030,3	0,003
1030,7	0,003
1031,1	0,003
1031,5	0,003
1032	0,003
1032,4	0,003
1032,8	0,002
1033,2	0,002
1033,6	0,002
1034	0,002
1034,4	0,001
1034,9	0,001
1035,3	0
1035,7	0,001
1036,1	0,001
1036,5	0,001
1036,9	0,001
1037,4	0,001
1037,8	0,001
1038,2	0,001
1038,6	0
1039	0
1039,4	0
1039,8	0
1040,3	0
1040,7	-0
1041,1	0
1041,5	0
1041,9	-0
1042,3	-0,001
1042,7	-0,001
1043,2	-0,001
1043,6	-0,001
1044	-0,001
1044,4	-0,001
1044,8	-0,002
1045,2	-0,001
1045,6	-0,001
1046,1	-0
1046,5	-0
1046,9	0
1047,3	0
1047,7	0,001
1048,1	0,001
1048,5	0,001
1049	0
1049,4	-0
1049,8	-0,001
1050,2	0
1050,6	-0
1051	-0
1051,4	-0
1051,9	-0
1052,3	0
1052,7	0
1053,1	0
1053,5	0,001
1053,9	0
1054,3	0
1054,8	-0
1055,2	-0
1055,6	-0
1056	-0,001
1056,4	-0,001
1056,8	0
1057,2	0
1057,6	-0
1058,1	-0
1058,5	-0,002
1058,9	-0,002
1059,3	-0,002
1059,7	-0,002
1060,1	-0,003
1060,5	-0,002
1061	-0,002
1061,4	-0,002
1061,8	-0,002
1062,2	-0,001
1062,6	-0,002
1063	-0,002
1063,4	-0,002
1063,8	-0,003
1064,3	-0,003
1064,7	-0,002
1065,1	-0,003
1065,5	-0,003
1065,9	-0,002
1066,3	-0,001
1066,7	0
1067,1	0,001
1067,6	0
1068	0,001
1068,4	0,002
1068,8	0,001
1069,2	0,001
1069,6	-0
1070	-0,001
1070,4	-0,002
1070,9	-0,002
1071,3	-0,002
1071,7	-0,002
1072,1	-0,003
1072,5	-0,002
1072,9	-0,002
1073,3	-0,001
1073,7	-0,001
1074,2	-0,002
1074,6	-0,002
1075	-0,002
1075,4	-0,002
1075,8	-0,002
1076,2	-0,002
1076,6	-0,001
1077	-0
1077,5	-0,002
1077,9	-0,001
1078,3	-0,001
1078,7	-0
1079,1	0,001
1079,5	-0
1079,9	0
1080,3	0,001
1080,7	0,001
1081,2	0,002
1081,6	0,001
1082	-0
1082,4	-0,001
1082,8	-0,003
1083,2	-0,004
1083,6	-0,005
1084	-0,003
1084,5	-0,003
1084,9	-0,002
1085,3	-0,002
1085,7	0,002
1086,1	0,003
1086,5	0,003
1086,9	0,001
1087,3	0,001
1087,7	0,002
1088,2	0,003
1088,6	0,001
1089	0,003
1089,4	0,002
1089,8	0,002
1090,2	-0,001
1090,6	-0,002
1091	-0,002
1091,4	0,001
1091,9	-0,001
1092,3	0,001
1092,7	0,002
1093,1	0,002
1093,5	0,002
1093,9	0,002
1094,3	-0,001
1094,7	0
1095,1	-0
1095,5	-0,001
1096	0,001
1096,4	-0,001
1096,8	0,001
1097,2	0,001
1097,6	-0,002
1098	0
1098,4	0,003
1098,8	0,005
1099,2	0,006
1099,6	0,005
1100,1	0,003
1100,5	0,004
1100,9	0,001
1101,3	-0,002
1101,7	0
1102,1	-0,003
1102,5	-0,004
1102,9	0,008
1103,3	0,007
1103,7	0,01
1104,2	0,011
1104,6	0,001
1105	0,002
1105,4	0,014
1105,8	0,006
1106,2	0,024
1106,6	0,026
1107	0,016
1107,4	0,033
1107,8	0,085
1108,3	0,056
