Data from Absorbance_00097.txt Node
Date: Fri Aug 11 13:59:26 MSK 2023
User: vat
Spectrometer: MAYP114033
Trigger mode: 0
Integration Time (sec): 8,000000E-3
Scans to average: 10
Electric dark correction enabled: true
Nonlinearity correction enabled: false
Boxcar width: 3
XAxis mode: Wavelengths
Number of Pixels in Spectrum: 2068
>>>>>Begin Spectral Data<<<<<
199,4	0,903
199,9	0,142
200,4	0,4
200,8	0,725
201,3	0,858
201,8	0,919
202,2	0,964
202,7	0,985
203,2	1,032
203,6	1,06
204,1	1,078
204,6	1,091
205	1,118
205,5	1,13
206	1,134
206,4	1,144
206,9	1,168
207,4	1,172
207,8	1,175
208,3	1,186
208,8	1,195
209,2	1,226
209,7	1,248
210,2	1,27
210,6	1,306
211,1	1,345
211,5	1,367
212	1,4
212,5	1,41
212,9	1,425
213,4	1,427
213,9	1,422
214,3	1,417
214,8	1,423
215,3	1,414
215,7	1,419
216,2	1,42
216,7	1,445
217,1	1,476
217,6	1,5
218,1	1,495
218,5	1,512
219	1,54
219,5	1,561
219,9	1,574
220,4	1,585
220,9	1,601
221,3	1,639
221,8	1,666
222,3	1,66
222,7	1,685
223,2	1,695
223,6	1,704
224,1	1,713
224,6	1,722
225	1,737
225,5	1,772
226	1,793
226,4	1,802
226,9	1,815
227,4	1,828
227,8	1,833
228,3	1,832
228,8	1,829
229,2	1,834
229,7	1,847
230,2	1,853
230,6	1,878
231,1	1,878
231,5	1,901
232	1,93
232,5	1,924
232,9	1,943
233,4	1,953
233,9	1,934
234,3	1,95
234,8	1,938
235,3	1,938
235,7	1,95
236,2	1,958
236,7	1,968
237,1	1,998
237,6	2
238,1	2,015
238,5	2,02
239	2,039
239,4	2,023
239,9	2,045
240,4	2,036
240,8	2,035
241,3	2,042
241,8	2,057
242,2	2,042
242,7	2,053
243,2	2,045
243,6	2,055
244,1	2,066
244,6	2,06
245	2,07
245,5	2,082
245,9	2,094
246,4	2,085
246,9	2,082
247,3	2,099
247,8	2,084
248,3	2,076
248,7	2,085
249,2	2,086
249,7	2,104
250,1	2,11
250,6	2,095
251	2,123
251,5	2,12
252	2,108
252,4	2,116
252,9	2,118
253,4	2,125
253,8	2,139
254,3	2,131
254,8	2,136
255,2	2,14
255,7	2,122
256,1	2,124
256,6	2,122
257,1	2,121
257,5	2,131
258	2,143
258,5	2,137
258,9	2,147
259,4	2,147
259,9	2,152
260,3	2,167
260,8	2,18
261,2	2,178
261,7	2,203
262,2	2,21
262,6	2,2
263,1	2,19
263,6	2,173
264	2,157
264,5	2,16
264,9	2,154
265,4	2,147
265,9	2,153
266,3	2,159
266,8	2,158
267,3	2,154
267,7	2,136
268,2	2,129
268,7	2,147
269,1	2,13
269,6	2,123
270	2,117
270,5	2,141
271	2,164
271,4	2,165
271,9	2,144
272,4	2,141
272,8	2,137
273,3	2,145
273,7	2,125
274,2	2,094
274,7	2,094
275,1	2,095
275,6	2,115
276,1	2,11
276,5	2,094
277	2,097
277,4	2,088
277,9	2,066
278,4	2,076
278,8	2,051
279,3	2,036
279,8	2,027
280,2	1,995
280,7	1,979
281,1	1,964
281,6	1,916
282,1	1,882
282,5	1,834
283	1,784
283,4	1,725
283,9	1,656
284,4	1,578
284,8	1,499
285,3	1,416
285,8	1,338
286,2	1,263
286,7	1,194
287,1	1,129
287,6	1,07
288,1	1,016
288,5	0,969
289	0,926
289,5	0,889
289,9	0,856
290,4	0,828
290,8	0,803
291,3	0,78
291,8	0,759
292,2	0,741
292,7	0,723
293,1	0,707
293,6	0,692
294,1	0,679
294,5	0,668
295	0,656
295,5	0,646
295,9	0,636
296,4	0,626
296,8	0,617
297,3	0,607
297,8	0,597
298,2	0,588
298,7	0,58
299,1	0,574
299,6	0,567
300,1	0,559
300,5	0,552
301	0,545
301,5	0,539
301,9	0,533
302,4	0,526
302,8	0,519
303,3	0,514
303,8	0,509
304,2	0,503
304,7	0,498
305,1	0,492
305,6	0,486
306,1	0,48
306,5	0,474
307	0,466
307,4	0,46
307,9	0,455
308,4	0,449
308,8	0,443
309,3	0,438
309,8	0,433
310,2	0,428
310,7	0,424
311,1	0,418
311,6	0,412
312,1	0,407
312,5	0,402
313	0,398
313,4	0,393
313,9	0,389
314,4	0,384
314,8	0,38
315,3	0,376
315,7	0,371
316,2	0,365
316,7	0,361
317,1	0,355
317,6	0,351
318	0,345
318,5	0,341
319	0,337
319,4	0,333
319,9	0,328
320,3	0,325
320,8	0,321
321,3	0,317
321,7	0,312
322,2	0,309
322,6	0,305
323,1	0,302
323,6	0,297
324	0,294
324,5	0,291
324,9	0,288
325,4	0,285
325,9	0,282
326,3	0,278
326,8	0,275
327,2	0,273
327,7	0,269
328,2	0,265
328,6	0,262
329,1	0,258
329,5	0,256
330	0,253
330,5	0,249
330,9	0,247
331,4	0,244
331,8	0,241
332,3	0,239
332,8	0,235
333,2	0,233
333,7	0,23
334,1	0,227
334,6	0,224
335,1	0,222
335,5	0,219
336	0,216
336,4	0,214
336,9	0,211
337,4	0,209
337,8	0,206
338,3	0,204
338,7	0,202
339,2	0,2
339,7	0,197
340,1	0,195
340,6	0,193
341	0,19
341,5	0,188
342	0,186
342,4	0,184
342,9	0,182
343,3	0,18
343,8	0,178
344,2	0,176
344,7	0,174
345,2	0,173
345,6	0,172
346,1	0,17
346,5	0,168
347	0,168
347,5	0,166
347,9	0,164
348,4	0,162
348,8	0,16
349,3	0,158
349,8	0,156
350,2	0,153
350,7	0,152
351,1	0,15
351,6	0,149
352	0,147
352,5	0,146
353	0,144
353,4	0,143
353,9	0,142
354,3	0,141
354,8	0,14
355,3	0,139
355,7	0,137
356,2	0,135
356,6	0,134
357,1	0,133
357,5	0,132
358	0,13
358,5	0,128
358,9	0,127
359,4	0,126
359,8	0,125
360,3	0,123
360,8	0,122
361,2	0,121
361,7	0,119
362,1	0,118
362,6	0,117
363	0,114
363,5	0,113
364	0,112
364,4	0,111
364,9	0,11
365,3	0,109
365,8	0,107
366,3	0,107
366,7	0,106
367,2	0,105
367,6	0,104
368,1	0,102
368,5	0,101
369	0,1
369,5	0,099
369,9	0,097
370,4	0,096
370,8	0,095
371,3	0,094
371,7	0,093
372,2	0,092
372,7	0,091
373,1	0,09
373,6	0,089
374	0,088
374,5	0,087
374,9	0,086
375,4	0,085
375,9	0,084
376,3	0,084
376,8	0,083
377,2	0,082
377,7	0,082
378,2	0,081
378,6	0,08
379,1	0,078
379,5	0,077
380	0,076
380,4	0,075
380,9	0,074
381,4	0,074
381,8	0,073
382,3	0,073
382,7	0,072
383,2	0,072
383,6	0,071
384,1	0,07
384,6	0,069
385	0,069
385,5	0,068
385,9	0,068
386,4	0,067
386,8	0,066
387,3	0,066
387,7	0,065
388,2	0,063
388,7	0,063
389,1	0,063
389,6	0,062
390	0,062
390,5	0,061
390,9	0,061
391,4	0,06
391,9	0,059
392,3	0,058
392,8	0,058
393,2	0,057
393,7	0,056
394,1	0,056
394,6	0,056
395,1	0,055
395,5	0,055
396	0,055
396,4	0,054
396,9	0,054
397,3	0,053
397,8	0,053
398,2	0,052
398,7	0,051
399,2	0,051
399,6	0,05
400,1	0,05
400,5	0,05
401	0,049
401,4	0,048
401,9	0,048
402,4	0,047
402,8	0,047
403,3	0,046
403,7	0,045
404,2	0,045
404,6	0,046
405,1	0,045
405,5	0,045
406	0,045
406,5	0,044
406,9	0,044
407,4	0,043
407,8	0,042
408,3	0,041
408,7	0,041
409,2	0,04
409,6	0,039
410,1	0,039
410,6	0,04
411	0,039
411,5	0,039
411,9	0,038
412,4	0,038
412,8	0,038
413,3	0,038
413,7	0,038
414,2	0,037
414,7	0,038
415,1	0,037
415,6	0,037
416	0,037
416,5	0,036
416,9	0,035
417,4	0,035
417,8	0,035
418,3	0,034
418,8	0,034
419,2	0,034
419,7	0,034
420,1	0,034
420,6	0,033
421	0,033
421,5	0,033
421,9	0,032
422,4	0,032
422,8	0,032
423,3	0,032
423,8	0,031
424,2	0,031
424,7	0,031
425,1	0,031
425,6	0,03
426	0,031
426,5	0,03
426,9	0,03
427,4	0,029
427,9	0,029
428,3	0,029
428,8	0,029
429,2	0,028
429,7	0,029
430,1	0,028
430,6	0,028
431	0,028
431,5	0,028
431,9	0,027
432,4	0,027
432,8	0,026
433,3	0,026
433,8	0,026
434,2	0,027
434,7	0,026
435,1	0,026
435,6	0,026
436	0,026
436,5	0,026
436,9	0,026
437,4	0,025
437,8	0,026
438,3	0,026
438,8	0,025
439,2	0,025
439,7	0,025
440,1	0,024
440,6	0,023
441	0,023
441,5	0,023
441,9	0,022
442,4	0,022
442,8	0,023
443,3	0,023
443,7	0,023
444,2	0,022
444,7	0,022
445,1	0,022
445,6	0,021
446	0,022
446,5	0,022
446,9	0,021
447,4	0,021
447,8	0,021
448,3	0,021
448,7	0,022
449,2	0,021
449,6	0,021
450,1	0,021
450,6	0,02
451	0,02
451,5	0,02
451,9	0,02
452,4	0,02
452,8	0,019
453,3	0,018
453,7	0,018
454,2	0,018
454,6	0,018
455,1	0,017
455,5	0,017
456	0,018
456,4	0,018
456,9	0,017
457,3	0,017
457,8	0,017
458,3	0,016
458,7	0,016
459,2	0,016
459,6	0,016
460,1	0,016
460,5	0,016
461	0,016
461,4	0,017
461,9	0,016
462,3	0,016
462,8	0,016
463,2	0,016
463,7	0,016
464,1	0,015
464,6	0,015
465	0,016
465,5	0,016
466	0,016
466,4	0,016
466,9	0,016
467,3	0,016
467,8	0,015
468,2	0,014
468,7	0,014
469,1	0,014
469,6	0,014
470	0,013
470,5	0,013
470,9	0,013
471,4	0,013
471,8	0,013
472,3	0,013
472,7	0,013
473,2	0,014
473,6	0,014
474,1	0,014
474,5	0,013
475	0,013
475,4	0,013
475,9	0,013
476,4	0,012
476,8	0,012
477,3	0,012
477,7	0,012
478,2	0,012
478,6	0,012
479,1	0,012
479,5	0,013
480	0,013
480,4	0,014
480,9	0,014
481,3	0,014
481,8	0,013
482,2	0,013
482,7	0,012
483,1	0,012
483,6	0,011
484	0,01
484,5	0,01
484,9	0,01
485,4	0,01
485,8	0,012
486,3	0,012
486,7	0,011
487,2	0,011
487,6	0,011
488,1	0,012
488,5	0,012
489	0,01
489,4	0,01
489,9	0,011
490,4	0,011
490,8	0,012
491,3	0,011
491,7	0,011
492,2	0,01
492,6	0,01
493,1	0,01
493,5	0,01
494	0,01
494,4	0,01
494,9	0,011
495,3	0,011
495,8	0,011
496,2	0,012
496,7	0,011
497,1	0,011
497,6	0,01
498	0,01
498,5	0,009
498,9	0,009
499,4	0,008
499,8	0,008
500,3	0,007
500,7	0,008
501,2	0,008
501,6	0,008
502,1	0,008
502,5	0,008
503	0,009
503,4	0,009
503,9	0,009
504,3	0,009
504,8	0,009
505,2	0,009
505,7	0,01
506,1	0,01
506,6	0,01
507	0,01
507,5	0,009
507,9	0,009
508,4	0,008
508,8	0,007
509,3	0,007
509,7	0,007
510,2	0,007
510,6	0,007
511,1	0,007
511,5	0,007
512	0,007
512,4	0,007
512,9	0,007
513,3	0,006
513,8	0,007
514,2	0,007
514,7	0,008
515,1	0,007
515,6	0,007
516	0,007
516,5	0,007
516,9	0,007
517,4	0,006
517,8	0,005
518,3	0,006
518,7	0,005
519,2	0,005
519,6	0,005
520,1	0,005
520,5	0,005
521	0,006
521,4	0,006
521,9	0,006
522,3	0,007
522,8	0,007
523,2	0,007
523,7	0,007
524,1	0,006
524,6	0,006
525	0,006
525,5	0,006
525,9	0,006
526,4	0,007
526,8	0,007
527,3	0,007
527,7	0,008
528,2	0,007
528,6	0,007
529,1	0,007
529,5	0,007
530	0,007
530,4	0,007
530,9	0,007
531,3	0,007
531,8	0,007
532,2	0,007
532,6	0,006
533,1	0,007
533,5	0,006
534	0,006
534,4	0,006
534,9	0,005
535,3	0,006
535,8	0,006
536,2	0,004
536,7	0,004
537,1	0,004
537,6	0,004
538	0,004
538,5	0,004
538,9	0,004
539,4	0,005
539,8	0,005
540,3	0,005
540,7	0,006
541,2	0,006
541,6	0,006
542,1	0,005
542,5	0,005
543	0,004
543,4	0,004
543,9	0,004
544,3	0,003
544,8	0,003
545,2	0,003
545,7	0,004
546,1	0,004
546,5	0,004
547	0,004
547,4	0,004
547,9	0,004
548,3	0,004
548,8	0,004
549,2	0,003
549,7	0,004
550,1	0,004
550,6	0,004
551	0,004
551,5	0,004
551,9	0,004
552,4	0,004
552,8	0,005
553,3	0,005
553,7	0,004
554,2	0,005
554,6	0,005
555,1	0,004
555,5	0,004
555,9	0,003
556,4	0,003
556,8	0,003
557,3	0,003
557,7	0,003
558,2	0,004
558,6	0,003
559,1	0,003
559,5	0,003
560	0,003
560,4	0,003
560,9	0,003
561,3	0,003
561,8	0,003
562,2	0,004
562,7	0,004
563,1	0,005
563,6	0,005
564	0,005
564,4	0,004
564,9	0,004
565,3	0,004
565,8	0,004
566,2	0,003
566,7	0,004
567,1	0,003
567,6	0,003
568	0,003
568,5	0,003
568,9	0,003
569,4	0,003
569,8	0,003
570,3	0,003
570,7	0,003
571,1	0,002
571,6	0,003
572	0,003
572,5	0,002
572,9	0,003
573,4	0,002
573,8	0,002
574,3	0,002
574,7	0,002
575,2	0,002
575,6	0,003
576,1	0,002
576,5	0,002
576,9	0,002
577,4	0,003
577,8	0,002
578,3	0,002
578,7	0,002
579,2	0,002
579,6	0,002
580,1	0,002
580,5	0,002
581	0,002
581,4	0,003
581,9	0,002
582,3	0,002
582,7	0,002
583,2	0,002
583,6	0,003
584,1	0,003
584,5	0,003
585	0,003
585,4	0,003
585,9	0,003
586,3	0,003
586,8	0,003
587,2	0,003
587,6	0,003
588,1	0,003
588,5	0,002
589	0,002
589,4	0,002
589,9	0,002
590,3	0,002
590,8	0,002
591,2	0,002
591,7	0,003
592,1	0,003
592,5	0,003
593	0,002
593,4	0,002
593,9	0,002
594,3	0,002
594,8	0,002
595,2	0,002
595,7	0,002
596,1	0,002
596,6	0,002
597	0,002
597,4	0,002
597,9	0,002
598,3	0,001
598,8	0,001
599,2	0,001
599,7	0
600,1	0
600,6	0
601	0,001
601,4	0
601,9	0
602,3	0
602,8	0,001
603,2	0
603,7	0
604,1	0,001
604,6	0,001
605	0,001
605,4	0,001
605,9	0,001
606,3	0,002
606,8	0,002
607,2	0,002
607,7	0,002
608,1	0,002
608,6	0,002
609	0,002
609,4	0,002
609,9	0,001
610,3	0,001
610,8	0,001
611,2	0,001
611,7	0,001
612,1	0,001
612,6	0,001
613	0,001
613,4	0,001
613,9	0,001
614,3	0,001
614,8	0,002
615,2	0,002
615,7	0,002
616,1	0,002
616,6	0,002
617	0,002
617,4	0,002
617,9	0,002
618,3	0,002
618,8	0,002
619,2	0,001
619,7	0,002
620,1	0,002
620,5	0,002
621	0,002
621,4	0,002
621,9	0,002
622,3	0,002
622,8	0,002
623,2	0,002
623,6	0,002
624,1	0,002
624,5	0,002
625	0,002
625,4	0,002
625,9	0,002
626,3	0,002
626,8	0,002
627,2	0,002
627,6	0,002
628,1	0,001
628,5	0,001
629	0,002
629,4	0,001
629,9	0,001
630,3	0,001
630,7	0,002
631,2	0,002
631,6	0,002
632,1	0,001
632,5	0,001
633	0,001
633,4	0,001
633,8	0,001
634,3	0,002
634,7	0,002
635,2	0,002
635,6	0,002
636,1	0,002
636,5	0,002
636,9	0,001
637,4	0,001
637,8	0,001
638,3	0,001
638,7	0,001
639,2	0,001
639,6	0,001
640	0,001
640,5	0,001
640,9	0,001
641,4	0,001
641,8	0,001
642,2	0,002
642,7	0,002
643,1	0,002
643,6	0,002
644	0,002
644,5	0,002
644,9	0,001
645,3	0,002
645,8	0,002
646,2	0,002
646,7	0,002
647,1	0,003
647,6	0,003
648	0,003
648,4	0,002
648,9	0,002
649,3	0,002
649,8	0,002
650,2	0,001
650,6	0,001
651,1	0,001
651,5	0
652	0
652,4	0
652,9	-0
653,3	-0,001
653,7	-0
654,2	-0
654,6	-0,001
655,1	-0,001
655,5	-0
655,9	-0
656,4	-0
656,8	0,001
657,3	0,002
657,7	0,003
658,2	0,004
658,6	0,005
659	0,007
659,5	0,01
659,9	0,01
660,4	0,008
660,8	0,006
661,2	0,004
661,7	0,003
662,1	0,002
662,6	0,002
663	0,001
663,4	0,001
663,9	0,001
664,3	0
664,8	-0,001
665,2	-0
665,6	-0,001
666,1	-0,001
666,5	-0
667	-0
667,4	0
667,9	0
668,3	0,001
668,7	0,001
669,2	0,001
669,6	0
670,1	0,001
670,5	0,001
670,9	0,001
671,4	0,001
671,8	0
672,3	-0
672,7	-0
673,1	-0
673,6	-0
674	-0
674,5	-0
674,9	0
675,3	-0
675,8	-0
676,2	-0,001
676,7	-0,001
677,1	-0,001
677,5	-0,001
678	-0,001
678,4	-0,001
678,9	-0,001
679,3	-0
679,7	-0
680,2	0
680,6	-0
681,1	0
681,5	0,001
681,9	0,001
682,4	0,001
682,8	0,001
683,3	0,001
683,7	0,001
684,1	0,001
684,6	0
685	-0
685,5	-0
685,9	-0
686,3	-0
686,8	0
687,2	0
687,7	0
688,1	0
688,5	0
689	0
689,4	0
689,9	-0
690,3	0
690,7	-0
691,2	0
691,6	0
692	0
692,5	0
692,9	0
693,4	-0
693,8	0
694,2	0
694,7	-0
695,1	0
695,6	-0
696	0
696,4	0
696,9	0
697,3	0
697,8	0
698,2	-0
698,6	0
699,1	0
699,5	-0
699,9	-0
700,4	-0
700,8	0
701,3	0
701,7	0
702,1	0
702,6	0
703	0
703,5	0,001
703,9	0,001
704,3	0,001
704,8	0,001
705,2	0,001
705,6	0,001
706,1	0,001
706,5	0
707	0
707,4	-0
707,8	0
708,3	-0
708,7	0
709,2	-0
709,6	0
710	0
710,5	0
710,9	-0
711,3	-0
711,8	-0,001
712,2	-0
712,7	-0,001
713,1	-0
713,5	-0,001
714	-0,001
714,4	-0,001
714,8	-0
715,3	-0,001
715,7	-0
716,2	-0
716,6	-0
717	0
717,5	0
717,9	-0
718,3	-0
718,8	-0
719,2	-0,001
719,7	-0,001
720,1	-0,001
720,5	-0,001
721	-0
721,4	-0
721,8	-0
722,3	0
722,7	-0
723,2	-0
723,6	-0
724	-0
724,5	-0
724,9	0
725,3	-0
725,8	0
726,2	0
726,7	0
727,1	-0
727,5	-0
728	-0
728,4	-0
728,8	-0,001
729,3	-0,001
729,7	-0,001
730,1	-0,001
730,6	-0,001
731	-0,001
731,5	-0,001
731,9	-0,001
732,3	-0,001
732,8	-0,001
733,2	-0,001
733,6	-0,001
734,1	-0,001
734,5	-0,001
734,9	-0
735,4	-0
735,8	-0
736,3	-0
736,7	-0
737,1	-0
737,6	0
738	-0
738,4	-0
738,9	-0
739,3	-0,001
739,7	-0,001
740,2	-0,001
740,6	-0,001
741,1	-0,001
741,5	-0,001
741,9	-0,001
742,4	-0
742,8	-0
743,2	0
743,7	0
744,1	0,001
744,5	0,001
745	0,001
745,4	0,001
745,8	0,001
746,3	0
746,7	-0
747,2	-0,001
747,6	-0,001
748	-0
748,5	-0,001
748,9	-0,001
749,3	-0
749,8	-0
750,2	-0
750,6	-0
751,1	-0
751,5	0
751,9	0
752,4	0
752,8	0
753,3	0,001
753,7	0,001
754,1	0,001
754,6	0,001
755	0,001
755,4	0,001
755,9	0,001
756,3	0
756,7	-0
757,2	0
757,6	-0
758	0
758,5	0
758,9	0
759,3	0
759,8	0
760,2	0
760,6	0,001
761,1	0
761,5	0
761,9	0,001
762,4	0,001
762,8	0,001
763,3	0,001
763,7	0,001
764,1	0,001
764,6	0,001
765	0,001
765,4	0,001
765,9	0,002
766,3	0,002
766,7	0,002
767,2	0,002
767,6	0,003
768	0,003
768,5	0,002
768,9	0,002
769,3	0,002
769,8	0,002
770,2	0,002
770,6	0,001
771,1	0,001
771,5	0,001
771,9	0,001
772,4	0,001
772,8	0,001
773,2	0
773,7	0,001
774,1	0,001
774,5	0,001
775	0,001
775,4	0,001
775,8	0,001
776,3	0,001
776,7	0,001
777,1	0,001
777,6	0,001
778	0,001
778,4	0,001
778,9	0,001
779,3	0
779,7	0
780,2	0
780,6	0,001
781	0,001
781,5	0,001
781,9	0,001
782,3	0,001
782,8	0,001
783,2	0,001
783,6	0,001
784,1	0,001
784,5	0,001
784,9	0,001
785,4	0,001
785,8	0,001
786,2	0,001
786,7	0,001
787,1	0,001
787,5	0,001
788	0,001
788,4	0,001
788,8	0
789,3	0
789,7	-0
790,1	-0
790,6	0
791	0
791,4	0
791,9	0,001
792,3	0,001
792,7	0,001
793,2	0,001
793,6	0
794	0
794,5	0,001
794,9	0,001
795,3	0,001
795,8	0,001
796,2	0,001
796,6	0,002
797,1	0,002
797,5	0,002
797,9	0,002
798,4	0,002
798,8	0,002
799,2	0,001
799,7	0,001
800,1	0,001
800,5	0,001
801	0
801,4	0
801,8	0
802,2	0
802,7	0
803,1	0,001
803,5	0
804	0,001
804,4	0,001
804,8	0,001
805,3	0,001
805,7	0,001
806,1	0
806,6	0,001
807	0
807,4	0
807,9	0
808,3	0
808,7	0
809,2	0
809,6	-0
810	0
810,4	-0
810,9	-0
811,3	-0,001
811,7	-0
812,2	-0
812,6	-0
813	-0
813,5	-0
813,9	-0,001
814,3	-0
814,8	-0,001
815,2	-0,001
815,6	-0,001
816,1	-0,001
816,5	-0,001
816,9	-0,001
817,3	-0,002
817,8	-0,002
818,2	-0,002
818,6	-0,002
819,1	-0,002
819,5	-0,002
819,9	-0,002
820,4	-0,002
820,8	-0,002
821,2	-0,002
821,7	-0,002
822,1	-0,002
822,5	-0,002
822,9	-0,002
823,4	-0,002
823,8	-0,002
824,2	-0,002
824,7	-0,001
825,1	-0,001
825,5	-0,001
826	-0
826,4	-0
826,8	0
827,3	0,001
827,7	0,001
828,1	0,001
828,5	0,001
829	0,001
829,4	0,001
829,8	0,001
830,3	0,001
830,7	0,001
831,1	0
831,6	0
832	-0
832,4	0
832,8	0
833,3	0
833,7	-0
834,1	-0
834,6	-0
835	-0
835,4	-0,001
835,8	-0,001
836,3	-0,001
836,7	-0,001
837,1	-0,001
837,6	-0,002
838	-0,002
838,4	-0,002
838,9	-0,002
839,3	-0,002
839,7	-0,001
840,1	-0,001
840,6	-0,001
841	-0,001
841,4	-0
841,9	-0,001
842,3	-0,001
842,7	-0,001
843,1	-0,001
843,6	-0,001
844	-0,001
844,4	-0,001
844,9	-0,001
845,3	-0
845,7	-0
846,2	-0,001
846,6	-0,001
847	-0,001
847,4	-0,001
847,9	-0,001
848,3	-0,001
848,7	-0
849,2	-0
849,6	-0
850	-0
850,4	0
850,9	0
851,3	0
851,7	0
852,2	0,001
852,6	0,001
853	0,001
853,4	0,001
853,9	0,001
854,3	0,002
854,7	0,002
855,2	0,001
855,6	0,001
856	0,002
856,4	0,001
856,9	0,001
857,3	0,001
857,7	0,001
858,2	0,001
858,6	0,001
859	0
859,4	0
859,9	-0
860,3	-0,001
860,7	-0
861,1	-0,001
861,6	-0,001
862	-0,001
862,4	-0,001
862,9	-0,001
863,3	-0
863,7	-0,001
864,1	-0
864,6	-0
865	-0
865,4	0
865,9	-0
866,3	0
866,7	-0
867,1	-0
867,6	-0
868	0
868,4	-0
868,8	0
869,3	0
869,7	0
870,1	0
870,6	-0
871	-0
871,4	-0,001
871,8	-0,001
872,3	-0,001
872,7	-0,001
873,1	-0,002
873,5	-0,002
874	-0,002
874,4	-0,002
874,8	-0,002
875,3	-0,002
875,7	-0,002
876,1	-0,002
876,5	-0,002
877	-0,002
877,4	-0,002
877,8	-0,001
878,2	-0,002
878,7	-0,001
879,1	-0,001
879,5	-0,001
879,9	-0,001
880,4	-0,001
880,8	-0,001
881,2	0
881,7	0
882,1	0
882,5	0
882,9	-0
883,4	0
883,8	-0
884,2	-0,001
884,6	-0,001
885,1	-0,001
885,5	-0,002
885,9	-0,001
886,3	-0,001
886,8	-0,001
887,2	-0,001
887,6	-0
888	-0
888,5	0
888,9	0
889,3	-0
889,8	-0
890,2	-0
890,6	-0
891	0
891,5	0
891,9	-0
892,3	-0
892,7	-0
893,2	-0,001
893,6	-0,001
894	-0,001
894,4	-0,001
894,9	-0,001
895,3	-0,001
895,7	-0,001
896,1	-0,001
896,6	-0,001
897	-0,001
897,4	-0,001
897,8	-0,001
898,3	-0,001
898,7	-0,001
899,1	-0,001
899,5	-0,001
900	-0,001
900,4	-0,001
900,8	-0,001
901,2	-0,001
901,7	-0,001
902,1	-0,001
902,5	-0,001
902,9	-0,001
903,4	-0,001
903,8	-0,001
904,2	-0,001
904,6	-0,001
905,1	-0,001
905,5	-0,001
905,9	-0,002
906,3	-0,002
906,8	-0,002
907,2	-0,002
907,6	-0,002
908	-0,003
908,5	-0,003
908,9	-0,003
909,3	-0,003
909,7	-0,003
910,2	-0,003
910,6	-0,003
911	-0,002
911,4	-0,002
911,9	-0,001
912,3	-0,001
912,7	-0,001
913,1	-0
913,6	-0
914	-0,001
914,4	-0,001
914,8	-0,001
915,3	-0,002
915,7	-0,002
916,1	-0,002
916,5	-0,002
916,9	-0,002
917,4	-0,002
917,8	-0,001
918,2	-0,001
918,6	-0
919,1	0
919,5	0,001
919,9	0,001
920,3	0,001
920,8	0,001
921,2	0,001
921,6	0
922	0
922,5	-0,001
922,9	-0,001
923,3	-0,001
923,7	-0,001
924,2	-0,001
924,6	-0
925	-0
925,4	-0
925,8	-0,001
926,3	-0,001
926,7	-0
927,1	-0
927,5	-0
928	-0,001
928,4	-0
928,8	-0,001
929,2	-0,001
929,7	-0,002
930,1	-0,001
930,5	-0,001
930,9	-0,001
931,3	-0,002
931,8	-0,001
932,2	-0,001
932,6	-0,001
933	-0,002
933,5	-0,002
933,9	-0,002
934,3	-0,002
934,7	-0,001
935,2	-0,001
935,6	-0,001
936	-0,001
936,4	-0
936,8	0,001
937,3	0,001
937,7	0,001
938,1	0,001
938,5	0,001
939	0,001
939,4	0,001
939,8	0
940,2	0
940,6	0
941,1	0
941,5	0
941,9	-0,001
942,3	-0,001
942,8	-0,001
943,2	-0,001
943,6	-0,001
944	-0,001
944,4	-0,001
944,9	-0
945,3	0
945,7	-0
946,1	-0
946,6	-0
947	-0
947,4	-0
947,8	-0,001
948,2	-0,001
948,7	-0,001
949,1	-0,001
949,5	-0,002
949,9	-0,002
950,3	-0,002
950,8	-0,001
951,2	-0,002
951,6	-0,002
952	-0,002
952,5	-0,001
952,9	-0,002
953,3	-0,001
953,7	-0,001
954,1	-0,001
954,6	-0
955	-0
955,4	-0
955,8	0,001
956,2	0
956,7	0
957,1	0,001
957,5	0
957,9	0,001
958,3	0,001
958,8	0
959,2	0
959,6	0
960	-0
960,5	-0
960,9	-0,001
961,3	-0,001
961,7	-0,001
962,1	-0,001
962,6	-0,002
963	-0,001
963,4	-0,001
963,8	-0,001
964,2	-0,001
964,7	-0
965,1	-0,001
965,5	0
965,9	-0
966,3	0
966,8	0
967,2	0
967,6	0
968	0
968,4	0
968,9	-0
969,3	-0,001
969,7	-0,001
970,1	-0,001
970,5	-0
971	-0,001
971,4	-0,001
971,8	-0,001
972,2	-0,001
972,6	-0,001
973,1	-0,001
973,5	-0,002
973,9	-0,001
974,3	-0,001
974,7	-0
975,2	-0
975,6	-0
976	-0
976,4	-0
976,8	-0
977,3	-0
977,7	-0,001
978,1	-0,001
978,5	-0,001
978,9	-0,001
979,4	-0,001
979,8	-0,001
980,2	-0
980,6	-0
981	-0
981,5	0
981,9	-0
982,3	-0
982,7	0
983,1	-0
983,6	-0
984	-0,001
984,4	-0,001
984,8	-0,001
985,2	-0,001
985,6	-0,001
986,1	-0,002
986,5	-0,001
986,9	-0,001
987,3	-0,001
987,7	-0
988,2	-0
988,6	-0
989	0
989,4	-0
989,8	0
990,3	-0
990,7	-0
991,1	-0,001
991,5	-0
991,9	-0,001
992,3	-0
992,8	0
993,2	0,001
993,6	0
994	0
994,4	-0
994,9	-0
995,3	-0,001
995,7	-0,001
996,1	-0,002
996,5	-0,001
996,9	-0,002
997,4	-0,001
997,8	-0,001
998,2	-0
998,6	0
999	0
999,5	0
999,9	0,001
1000,3	0,001
1000,7	0
1001,1	-0
1001,5	-0,001
1002	-0,002
1002,4	-0,002
1002,8	-0,003
1003,2	-0,003
1003,6	-0,003
1004	-0,003
1004,5	-0,004
1004,9	-0,003
1005,3	-0,002
1005,7	-0,002
1006,1	-0,002
1006,6	-0,002
1007	-0,002
1007,4	-0,001
1007,8	-0,002
1008,2	-0,002
1008,6	-0,002
1009,1	-0,002
1009,5	-0,003
1009,9	-0,003
1010,3	-0,003
1010,7	-0,003
1011,1	-0,004
1011,6	-0,004
1012	-0,004
1012,4	-0,005
1012,8	-0,005
1013,2	-0,004
1013,6	-0,004
1014,1	-0,004
1014,5	-0,004
1014,9	-0,004
1015,3	-0,002
1015,7	-0,002
1016,1	-0,003
1016,6	-0,003
1017	-0,002
1017,4	-0,002
1017,8	-0,003
1018,2	-0,003
1018,6	-0,002
1019,1	-0,003
1019,5	-0,003
1019,9	-0,003
1020,3	-0,001
1020,7	-0,002
1021,1	-0,002
1021,6	-0,002
1022	-0,001
1022,4	-0,001
1022,8	-0,002
1023,2	-0,002
1023,6	-0,002
1024,1	-0,001
1024,5	-0,001
1024,9	-0,001
1025,3	0
1025,7	0,001
1026,1	0,001
1026,6	0,002
1027	0,002
1027,4	0,001
1027,8	0,001
1028,2	0,001
1028,6	0
1029	0
1029,5	0
1029,9	0,001
1030,3	0,001
1030,7	0,001
1031,1	0,001
1031,5	0,001
1032	0,001
1032,4	0,001
1032,8	0
1033,2	0
1033,6	0
1034	0,001
1034,4	0,001
1034,9	0
1035,3	-0
1035,7	0
1036,1	0,001
1036,5	0,001
1036,9	-0
1037,4	-0,001
1037,8	-0
1038,2	-0,001
1038,6	-0,001
1039	-0,001
1039,4	-0,002
1039,8	-0,001
1040,3	-0,001
1040,7	-0,002
1041,1	-0,001
1041,5	-0,001
1041,9	-0,002
1042,3	-0,002
1042,7	-0,002
1043,2	-0,002
1043,6	-0,002
1044	-0,002
1044,4	-0,002
1044,8	-0,002
1045,2	-0,001
1045,6	-0,001
1046,1	-0,001
1046,5	-0,001
1046,9	-0,001
1047,3	-0
1047,7	-0,001
1048,1	-0,002
1048,5	-0,001
1049	-0,001
1049,4	-0,001
1049,8	-0,001
1050,2	-0,002
1050,6	-0,001
1051	-0,001
1051,4	-0,001
1051,9	-0,001
1052,3	-0,001
1052,7	-0,001
1053,1	-0,001
1053,5	-0
1053,9	-0
1054,3	-0,001
1054,8	-0,001
1055,2	-0,002
1055,6	-0,002
1056	-0,003
1056,4	-0,003
1056,8	-0,004
1057,2	-0,003
1057,6	-0,004
1058,1	-0,003
1058,5	-0,004
1058,9	-0,004
1059,3	-0,003
1059,7	-0,003
1060,1	-0,003
1060,5	-0,003
1061	-0,003
1061,4	-0,003
1061,8	-0,002
1062,2	-0,003
1062,6	-0,003
1063	-0,003
1063,4	-0,003
1063,8	-0,003
1064,3	-0,003
1064,7	-0,003
1065,1	-0,003
1065,5	-0,003
1065,9	-0,003
1066,3	-0,003
1066,7	-0,002
1067,1	-0,002
1067,6	-0,002
1068	-0,003
1068,4	-0,002
1068,8	-0,003
1069,2	-0,003
1069,6	-0,003
1070	-0,004
1070,4	-0,005
1070,9	-0,004
1071,3	-0,003
1071,7	-0,003
1072,1	-0,003
1072,5	-0,004
1072,9	-0,004
1073,3	-0,003
1073,7	-0,002
1074,2	-0,003
1074,6	-0,002
1075	-0,001
1075,4	-0,002
1075,8	-0,001
1076,2	-0
1076,6	-0,001
1077	-0,001
1077,5	-0,003
1077,9	-0,003
1078,3	-0,003
1078,7	-0,001
1079,1	-0,002
1079,5	-0,003
1079,9	-0,002
1080,3	-0,003
1080,7	-0,002
1081,2	-0
1081,6	-0,001
1082	-0
1082,4	0
1082,8	-0,003
1083,2	-0,002
1083,6	-0,002
1084	-0,003
1084,5	-0,002
1084,9	-0,002
1085,3	-0,001
1085,7	0,003
1086,1	0,003
1086,5	0,003
1086,9	0,003
1087,3	0,003
1087,7	0,003
1088,2	0
1088,6	-0,003
1089	-0,001
1089,4	-0,001
1089,8	-0,002
1090,2	-0,005
1090,6	-0,006
1091	-0,003
1091,4	-0,001
1091,9	-0,002
1092,3	-0,001
1092,7	-0
1093,1	-0
1093,5	-0
1093,9	-0,005
1094,3	-0,004
1094,7	-0,006
1095,1	-0,008
1095,5	-0,006
1096	-0
1096,4	0,002
1096,8	0,004
1097,2	0,004
1097,6	0,004
1098	0,002
1098,4	-0,003
1098,8	-0,005
1099,2	-0,004
1099,6	-0,004
1100,1	-0,006
1100,5	-0,002
1100,9	0
1101,3	0,009
1101,7	0,002
1102,1	-0
1102,5	-0,004
1102,9	0
1103,3	-0,011
1103,7	-0,009
1104,2	-0,027
1104,6	-0,019
1105	-0,017
1105,4	-0,013
1105,8	-0,013
1106,2	-0,005
1106,6	-0,002
1107	0,014
1107,4	0,006
1107,8	-0,007
1108,3	0,263
