Data from Absorbance_00064.txt Node
Date: Fri Aug 11 13:27:21 MSK 2023
User: vat
Spectrometer: MAYP114033
Trigger mode: 0
Integration Time (sec): 8,000000E-3
Scans to average: 10
Electric dark correction enabled: true
Nonlinearity correction enabled: false
Boxcar width: 3
XAxis mode: Wavelengths
Number of Pixels in Spectrum: 2068
>>>>>Begin Spectral Data<<<<<
199,4	-0
199,9	0,015
200,4	0,333
200,8	0,684
201,3	0,835
201,8	0,894
202,2	0,919
202,7	0,956
203,2	1,011
203,6	1,044
204,1	1,056
204,6	1,083
205	1,088
205,5	1,111
206	1,118
206,4	1,124
206,9	1,151
207,4	1,183
207,8	1,179
208,3	1,211
208,8	1,223
209,2	1,251
209,7	1,284
210,2	1,298
210,6	1,307
211,1	1,326
211,5	1,334
212	1,35
212,5	1,373
212,9	1,388
213,4	1,403
213,9	1,402
214,3	1,415
214,8	1,429
215,3	1,444
215,7	1,436
216,2	1,436
216,7	1,45
217,1	1,467
217,6	1,505
218,1	1,511
218,5	1,52
219	1,551
219,5	1,557
219,9	1,56
220,4	1,573
220,9	1,57
221,3	1,597
221,8	1,614
222,3	1,618
222,7	1,643
223,2	1,67
223,6	1,702
224,1	1,722
224,6	1,747
225	1,771
225,5	1,788
226	1,8
226,4	1,812
226,9	1,817
227,4	1,83
227,8	1,816
228,3	1,831
228,8	1,843
229,2	1,861
229,7	1,871
230,2	1,88
230,6	1,897
231,1	1,898
231,5	1,914
232	1,94
232,5	1,946
232,9	1,956
233,4	1,973
233,9	1,966
234,3	1,968
234,8	1,951
235,3	1,945
235,7	1,953
236,2	1,951
236,7	1,965
237,1	1,977
237,6	2,007
238,1	2,035
238,5	2,039
239	2,05
239,4	2,057
239,9	2,059
240,4	2,058
240,8	2,059
241,3	2,067
241,8	2,091
242,2	2,082
242,7	2,075
243,2	2,067
243,6	2,083
244,1	2,082
244,6	2,077
245	2,062
245,5	2,07
245,9	2,091
246,4	2,123
246,9	2,113
247,3	2,129
247,8	2,121
248,3	2,128
248,7	2,14
249,2	2,141
249,7	2,125
250,1	2,123
250,6	2,115
251	2,116
251,5	2,125
252	2,121
252,4	2,135
252,9	2,133
253,4	2,137
253,8	2,144
254,3	2,143
254,8	2,136
255,2	2,141
255,7	2,129
256,1	2,12
256,6	2,131
257,1	2,145
257,5	2,162
258	2,185
258,5	2,177
258,9	2,162
259,4	2,181
259,9	2,185
260,3	2,188
260,8	2,178
261,2	2,185
261,7	2,193
262,2	2,207
262,6	2,199
263,1	2,191
263,6	2,188
264	2,19
264,5	2,169
264,9	2,175
265,4	2,15
265,9	2,141
266,3	2,145
266,8	2,144
267,3	2,139
267,7	2,13
268,2	2,112
268,7	2,129
269,1	2,118
269,6	2,12
270	2,104
270,5	2,112
271	2,126
271,4	2,136
271,9	2,12
272,4	2,132
272,8	2,107
273,3	2,112
273,7	2,122
274,2	2,105
274,7	2,105
275,1	2,112
275,6	2,11
276,1	2,132
276,5	2,125
277	2,115
277,4	2,124
277,9	2,111
278,4	2,12
278,8	2,105
279,3	2,074
279,8	2,061
280,2	2,034
280,7	2,004
281,1	1,989
281,6	1,96
282,1	1,944
282,5	1,93
283	1,911
283,4	1,875
283,9	1,844
284,4	1,798
284,8	1,744
285,3	1,682
285,8	1,614
286,2	1,539
286,7	1,468
287,1	1,393
287,6	1,32
288,1	1,252
288,5	1,184
289	1,118
289,5	1,054
289,9	0,997
290,4	0,942
290,8	0,889
291,3	0,841
291,8	0,796
292,2	0,753
292,7	0,715
293,1	0,68
293,6	0,647
294,1	0,618
294,5	0,592
295	0,569
295,5	0,55
295,9	0,531
296,4	0,516
296,8	0,502
297,3	0,49
297,8	0,479
298,2	0,469
298,7	0,46
299,1	0,453
299,6	0,445
300,1	0,439
300,5	0,433
301	0,428
301,5	0,423
301,9	0,419
302,4	0,415
302,8	0,411
303,3	0,408
303,8	0,405
304,2	0,402
304,7	0,399
305,1	0,395
305,6	0,393
306,1	0,39
306,5	0,386
307	0,383
307,4	0,381
307,9	0,377
308,4	0,375
308,8	0,372
309,3	0,37
309,8	0,367
310,2	0,365
310,7	0,362
311,1	0,36
311,6	0,357
312,1	0,354
312,5	0,351
313	0,349
313,4	0,346
313,9	0,343
314,4	0,34
314,8	0,337
315,3	0,335
315,7	0,332
316,2	0,328
316,7	0,326
317,1	0,323
317,6	0,321
318	0,318
318,5	0,316
319	0,313
319,4	0,311
319,9	0,309
320,3	0,306
320,8	0,303
321,3	0,301
321,7	0,298
322,2	0,295
322,6	0,293
323,1	0,29
323,6	0,287
324	0,285
324,5	0,283
324,9	0,281
325,4	0,279
325,9	0,277
326,3	0,274
326,8	0,272
327,2	0,27
327,7	0,267
328,2	0,264
328,6	0,262
329,1	0,26
329,5	0,257
330	0,255
330,5	0,252
330,9	0,25
331,4	0,248
331,8	0,245
332,3	0,242
332,8	0,239
333,2	0,237
333,7	0,236
334,1	0,233
334,6	0,231
335,1	0,229
335,5	0,227
336	0,224
336,4	0,222
336,9	0,219
337,4	0,216
337,8	0,213
338,3	0,211
338,7	0,208
339,2	0,205
339,7	0,203
340,1	0,2
340,6	0,198
341	0,195
341,5	0,192
342	0,19
342,4	0,188
342,9	0,186
343,3	0,184
343,8	0,182
344,2	0,18
344,7	0,178
345,2	0,177
345,6	0,175
346,1	0,172
346,5	0,171
347	0,168
347,5	0,166
347,9	0,164
348,4	0,161
348,8	0,159
349,3	0,157
349,8	0,156
350,2	0,154
350,7	0,152
351,1	0,151
351,6	0,149
352	0,147
352,5	0,145
353	0,142
353,4	0,141
353,9	0,139
354,3	0,137
354,8	0,136
355,3	0,135
355,7	0,132
356,2	0,131
356,6	0,129
357,1	0,127
357,5	0,125
358	0,124
358,5	0,121
358,9	0,12
359,4	0,119
359,8	0,117
360,3	0,116
360,8	0,115
361,2	0,113
361,7	0,112
362,1	0,111
362,6	0,11
363	0,108
363,5	0,107
364	0,106
364,4	0,105
364,9	0,104
365,3	0,102
365,8	0,101
366,3	0,1
366,7	0,098
367,2	0,097
367,6	0,095
368,1	0,094
368,5	0,093
369	0,092
369,5	0,091
369,9	0,09
370,4	0,089
370,8	0,088
371,3	0,088
371,7	0,087
372,2	0,086
372,7	0,085
373,1	0,084
373,6	0,083
374	0,082
374,5	0,081
374,9	0,08
375,4	0,079
375,9	0,079
376,3	0,079
376,8	0,078
377,2	0,078
377,7	0,077
378,2	0,076
378,6	0,076
379,1	0,075
379,5	0,074
380	0,073
380,4	0,072
380,9	0,07
381,4	0,07
381,8	0,069
382,3	0,069
382,7	0,068
383,2	0,068
383,6	0,067
384,1	0,067
384,6	0,067
385	0,066
385,5	0,065
385,9	0,064
386,4	0,063
386,8	0,062
387,3	0,062
387,7	0,06
388,2	0,06
388,7	0,059
389,1	0,059
389,6	0,058
390	0,058
390,5	0,057
390,9	0,057
391,4	0,056
391,9	0,055
392,3	0,055
392,8	0,054
393,2	0,054
393,7	0,054
394,1	0,054
394,6	0,054
395,1	0,053
395,5	0,053
396	0,053
396,4	0,052
396,9	0,051
397,3	0,051
397,8	0,05
398,2	0,05
398,7	0,05
399,2	0,049
399,6	0,05
400,1	0,05
400,5	0,049
401	0,049
401,4	0,048
401,9	0,048
402,4	0,047
402,8	0,047
403,3	0,046
403,7	0,046
404,2	0,046
404,6	0,046
405,1	0,046
405,5	0,046
406	0,045
406,5	0,046
406,9	0,045
407,4	0,044
407,8	0,044
408,3	0,044
408,7	0,043
409,2	0,043
409,6	0,043
410,1	0,043
410,6	0,044
411	0,043
411,5	0,043
411,9	0,043
412,4	0,043
412,8	0,042
413,3	0,041
413,7	0,041
414,2	0,041
414,7	0,041
415,1	0,041
415,6	0,041
416	0,041
416,5	0,041
416,9	0,041
417,4	0,04
417,8	0,039
418,3	0,039
418,8	0,039
419,2	0,039
419,7	0,039
420,1	0,039
420,6	0,039
421	0,04
421,5	0,039
421,9	0,039
422,4	0,039
422,8	0,038
423,3	0,038
423,8	0,037
424,2	0,037
424,7	0,036
425,1	0,036
425,6	0,036
426	0,036
426,5	0,036
426,9	0,035
427,4	0,035
427,9	0,036
428,3	0,036
428,8	0,036
429,2	0,036
429,7	0,036
430,1	0,036
430,6	0,036
431	0,035
431,5	0,034
431,9	0,034
432,4	0,033
432,8	0,033
433,3	0,033
433,8	0,033
434,2	0,034
434,7	0,033
435,1	0,033
435,6	0,033
436	0,033
436,5	0,033
436,9	0,033
437,4	0,033
437,8	0,034
438,3	0,034
438,8	0,033
439,2	0,033
439,7	0,033
440,1	0,032
440,6	0,031
441	0,031
441,5	0,03
441,9	0,03
442,4	0,03
442,8	0,03
443,3	0,03
443,7	0,031
444,2	0,031
444,7	0,03
445,1	0,031
445,6	0,03
446	0,031
446,5	0,031
446,9	0,03
447,4	0,03
447,8	0,03
448,3	0,031
448,7	0,031
449,2	0,03
449,6	0,03
450,1	0,03
450,6	0,03
451	0,03
451,5	0,029
451,9	0,029
452,4	0,029
452,8	0,029
453,3	0,028
453,7	0,029
454,2	0,028
454,6	0,029
455,1	0,028
455,5	0,028
456	0,029
456,4	0,029
456,9	0,029
457,3	0,029
457,8	0,029
458,3	0,028
458,7	0,028
459,2	0,028
459,6	0,028
460,1	0,028
460,5	0,028
461	0,028
461,4	0,028
461,9	0,027
462,3	0,027
462,8	0,026
463,2	0,026
463,7	0,026
464,1	0,026
464,6	0,026
465	0,027
465,5	0,026
466	0,027
466,4	0,026
466,9	0,026
467,3	0,027
467,8	0,027
468,2	0,027
468,7	0,027
469,1	0,027
469,6	0,027
470	0,027
470,5	0,026
470,9	0,026
471,4	0,025
471,8	0,025
472,3	0,025
472,7	0,025
473,2	0,025
473,6	0,025
474,1	0,025
474,5	0,025
475	0,026
475,4	0,025
475,9	0,026
476,4	0,026
476,8	0,026
477,3	0,025
477,7	0,025
478,2	0,025
478,6	0,025
479,1	0,024
479,5	0,025
480	0,025
480,4	0,026
480,9	0,026
481,3	0,026
481,8	0,026
482,2	0,026
482,7	0,025
483,1	0,025
483,6	0,024
484	0,025
484,5	0,024
484,9	0,024
485,4	0,024
485,8	0,025
486,3	0,025
486,7	0,025
487,2	0,024
487,6	0,025
488,1	0,025
488,5	0,025
489	0,023
489,4	0,023
489,9	0,024
490,4	0,024
490,8	0,024
491,3	0,024
491,7	0,023
492,2	0,024
492,6	0,024
493,1	0,024
493,5	0,024
494	0,024
494,4	0,024
494,9	0,025
495,3	0,025
495,8	0,025
496,2	0,025
496,7	0,025
497,1	0,025
497,6	0,024
498	0,024
498,5	0,024
498,9	0,024
499,4	0,023
499,8	0,023
500,3	0,023
500,7	0,023
501,2	0,023
501,6	0,022
502,1	0,022
502,5	0,022
503	0,022
503,4	0,023
503,9	0,022
504,3	0,022
504,8	0,023
505,2	0,023
505,7	0,023
506,1	0,023
506,6	0,023
507	0,024
507,5	0,023
507,9	0,023
508,4	0,023
508,8	0,023
509,3	0,023
509,7	0,023
510,2	0,022
510,6	0,023
511,1	0,023
511,5	0,022
512	0,022
512,4	0,022
512,9	0,022
513,3	0,022
513,8	0,022
514,2	0,022
514,7	0,022
515,1	0,023
515,6	0,023
516	0,023
516,5	0,023
516,9	0,022
517,4	0,023
517,8	0,022
518,3	0,022
518,7	0,022
519,2	0,022
519,6	0,022
520,1	0,023
520,5	0,022
521	0,023
521,4	0,023
521,9	0,023
522,3	0,023
522,8	0,024
523,2	0,023
523,7	0,024
524,1	0,024
524,6	0,023
525	0,023
525,5	0,023
525,9	0,022
526,4	0,022
526,8	0,022
527,3	0,022
527,7	0,023
528,2	0,023
528,6	0,023
529,1	0,023
529,5	0,024
530	0,023
530,4	0,023
530,9	0,023
531,3	0,023
531,8	0,022
532,2	0,023
532,6	0,022
533,1	0,023
533,5	0,023
534	0,022
534,4	0,022
534,9	0,022
535,3	0,022
535,8	0,022
536,2	0,021
536,7	0,02
537,1	0,02
537,6	0,021
538	0,021
538,5	0,021
538,9	0,021
539,4	0,021
539,8	0,022
540,3	0,022
540,7	0,022
541,2	0,022
541,6	0,022
542,1	0,022
542,5	0,021
543	0,021
543,4	0,02
543,9	0,02
544,3	0,02
544,8	0,019
545,2	0,019
545,7	0,02
546,1	0,02
546,5	0,021
547	0,021
547,4	0,021
547,9	0,021
548,3	0,021
548,8	0,02
549,2	0,02
549,7	0,02
550,1	0,02
550,6	0,02
551	0,02
551,5	0,02
551,9	0,02
552,4	0,02
552,8	0,021
553,3	0,021
553,7	0,021
554,2	0,02
554,6	0,02
555,1	0,02
555,5	0,021
555,9	0,02
556,4	0,02
556,8	0,02
557,3	0,02
557,7	0,02
558,2	0,02
558,6	0,019
559,1	0,019
559,5	0,019
560	0,019
560,4	0,018
560,9	0,018
561,3	0,018
561,8	0,019
562,2	0,019
562,7	0,02
563,1	0,02
563,6	0,02
564	0,021
564,4	0,021
564,9	0,02
565,3	0,021
565,8	0,021
566,2	0,02
566,7	0,021
567,1	0,02
567,6	0,021
568	0,021
568,5	0,02
568,9	0,02
569,4	0,02
569,8	0,02
570,3	0,02
570,7	0,019
571,1	0,019
571,6	0,02
572	0,019
572,5	0,019
572,9	0,019
573,4	0,019
573,8	0,019
574,3	0,019
574,7	0,018
575,2	0,018
575,6	0,018
576,1	0,018
576,5	0,018
576,9	0,018
577,4	0,019
577,8	0,019
578,3	0,019
578,7	0,019
579,2	0,018
579,6	0,018
580,1	0,019
580,5	0,018
581	0,018
581,4	0,019
581,9	0,018
582,3	0,019
582,7	0,018
583,2	0,018
583,6	0,018
584,1	0,019
584,5	0,018
585	0,019
585,4	0,019
585,9	0,018
586,3	0,019
586,8	0,019
587,2	0,018
587,6	0,018
588,1	0,018
588,5	0,017
589	0,018
589,4	0,017
589,9	0,017
590,3	0,017
590,8	0,017
591,2	0,017
591,7	0,018
592,1	0,018
592,5	0,018
593	0,018
593,4	0,018
593,9	0,018
594,3	0,018
594,8	0,018
595,2	0,018
595,7	0,018
596,1	0,018
596,6	0,018
597	0,018
597,4	0,018
597,9	0,017
598,3	0,017
598,8	0,017
599,2	0,017
599,7	0,017
600,1	0,017
600,6	0,017
601	0,017
601,4	0,016
601,9	0,016
602,3	0,016
602,8	0,016
603,2	0,016
603,7	0,016
604,1	0,016
604,6	0,016
605	0,016
605,4	0,016
605,9	0,016
606,3	0,016
606,8	0,016
607,2	0,016
607,7	0,016
608,1	0,016
608,6	0,016
609	0,016
609,4	0,016
609,9	0,016
610,3	0,016
610,8	0,017
611,2	0,016
611,7	0,016
612,1	0,016
612,6	0,015
613	0,015
613,4	0,015
613,9	0,015
614,3	0,015
614,8	0,015
615,2	0,015
615,7	0,015
616,1	0,015
616,6	0,015
617	0,015
617,4	0,015
617,9	0,015
618,3	0,016
618,8	0,016
619,2	0,016
619,7	0,016
620,1	0,016
620,5	0,016
621	0,016
621,4	0,016
621,9	0,016
622,3	0,016
622,8	0,016
623,2	0,016
623,6	0,016
624,1	0,016
624,5	0,016
625	0,015
625,4	0,015
625,9	0,015
626,3	0,015
626,8	0,015
627,2	0,015
627,6	0,015
628,1	0,015
628,5	0,015
629	0,015
629,4	0,015
629,9	0,015
630,3	0,015
630,7	0,015
631,2	0,015
631,6	0,015
632,1	0,015
632,5	0,015
633	0,015
633,4	0,015
633,8	0,014
634,3	0,014
634,7	0,014
635,2	0,015
635,6	0,014
636,1	0,015
636,5	0,014
636,9	0,015
637,4	0,014
637,8	0,015
638,3	0,014
638,7	0,015
639,2	0,015
639,6	0,015
640	0,015
640,5	0,015
640,9	0,015
641,4	0,015
641,8	0,015
642,2	0,014
642,7	0,015
643,1	0,015
643,6	0,015
644	0,014
644,5	0,014
644,9	0,014
645,3	0,014
645,8	0,015
646,2	0,015
646,7	0,015
647,1	0,015
647,6	0,015
648	0,015
648,4	0,015
648,9	0,015
649,3	0,015
649,8	0,015
650,2	0,015
650,6	0,015
651,1	0,014
651,5	0,014
652	0,014
652,4	0,014
652,9	0,014
653,3	0,014
653,7	0,014
654,2	0,014
654,6	0,014
655,1	0,014
655,5	0,008
655,9	0,005
656,4	0,004
656,8	0,005
657,3	0,005
657,7	0,006
658,2	0,005
658,6	0,007
659	0,01
659,5	0,016
659,9	0,018
660,4	0,018
660,8	0,016
661,2	0,015
661,7	0,015
662,1	0,014
662,6	0,014
663	0,013
663,4	0,013
663,9	0,013
664,3	0,013
664,8	0,012
665,2	0,012
665,6	0,013
666,1	0,013
666,5	0,013
667	0,013
667,4	0,013
667,9	0,013
668,3	0,013
668,7	0,013
669,2	0,014
669,6	0,014
670,1	0,013
670,5	0,013
670,9	0,013
671,4	0,013
671,8	0,013
672,3	0,012
672,7	0,012
673,1	0,012
673,6	0,012
674	0,013
674,5	0,013
674,9	0,013
675,3	0,013
675,8	0,013
676,2	0,013
676,7	0,013
677,1	0,012
677,5	0,012
678	0,012
678,4	0,012
678,9	0,012
679,3	0,012
679,7	0,012
680,2	0,012
680,6	0,012
681,1	0,012
681,5	0,012
681,9	0,013
682,4	0,013
682,8	0,013
683,3	0,013
683,7	0,013
684,1	0,013
684,6	0,013
685	0,012
685,5	0,012
685,9	0,012
686,3	0,012
686,8	0,012
687,2	0,012
687,7	0,012
688,1	0,013
688,5	0,012
689	0,013
689,4	0,013
689,9	0,013
690,3	0,013
690,7	0,013
691,2	0,013
691,6	0,013
692	0,013
692,5	0,013
692,9	0,013
693,4	0,013
693,8	0,013
694,2	0,012
694,7	0,012
695,1	0,012
695,6	0,012
696	0,012
696,4	0,012
696,9	0,013
697,3	0,012
697,8	0,012
698,2	0,012
698,6	0,012
699,1	0,012
699,5	0,012
699,9	0,012
700,4	0,012
700,8	0,012
701,3	0,013
701,7	0,012
702,1	0,013
702,6	0,013
703	0,013
703,5	0,013
703,9	0,013
704,3	0,013
704,8	0,013
705,2	0,013
705,6	0,012
706,1	0,012
706,5	0,012
707	0,011
707,4	0,012
707,8	0,012
708,3	0,012
708,7	0,012
709,2	0,012
709,6	0,012
710	0,012
710,5	0,012
710,9	0,012
711,3	0,012
711,8	0,012
712,2	0,012
712,7	0,011
713,1	0,011
713,5	0,011
714	0,011
714,4	0,011
714,8	0,011
715,3	0,011
715,7	0,012
716,2	0,012
716,6	0,012
717	0,012
717,5	0,011
717,9	0,011
718,3	0,011
718,8	0,01
719,2	0,01
719,7	0,01
720,1	0,011
720,5	0,011
721	0,012
721,4	0,012
721,8	0,012
722,3	0,011
722,7	0,012
723,2	0,011
723,6	0,011
724	0,011
724,5	0,011
724,9	0,011
725,3	0,011
725,8	0,01
726,2	0,01
726,7	0,01
727,1	0,01
727,5	0,01
728	0,01
728,4	0,01
728,8	0,01
729,3	0,01
729,7	0,01
730,1	0,01
730,6	0,01
731	0,01
731,5	0,01
731,9	0,01
732,3	0,01
732,8	0,011
733,2	0,011
733,6	0,011
734,1	0,011
734,5	0,011
734,9	0,011
735,4	0,011
735,8	0,011
736,3	0,011
736,7	0,011
737,1	0,011
737,6	0,011
738	0,011
738,4	0,011
738,9	0,011
739,3	0,01
739,7	0,01
740,2	0,01
740,6	0,01
741,1	0,01
741,5	0,01
741,9	0,01
742,4	0,01
742,8	0,01
743,2	0,01
743,7	0,011
744,1	0,011
744,5	0,011
745	0,011
745,4	0,011
745,8	0,011
746,3	0,011
746,7	0,011
747,2	0,01
747,6	0,01
748	0,01
748,5	0,01
748,9	0,01
749,3	0,01
749,8	0,011
750,2	0,011
750,6	0,011
751,1	0,011
751,5	0,011
751,9	0,011
752,4	0,011
752,8	0,011
753,3	0,011
753,7	0,011
754,1	0,011
754,6	0,011
755	0,011
755,4	0,011
755,9	0,011
756,3	0,011
756,7	0,011
757,2	0,011
757,6	0,011
758	0,011
758,5	0,011
758,9	0,011
759,3	0,011
759,8	0,011
760,2	0,011
760,6	0,011
761,1	0,011
761,5	0,011
761,9	0,011
762,4	0,011
762,8	0,011
763,3	0,011
763,7	0,011
764,1	0,012
764,6	0,012
765	0,012
765,4	0,012
765,9	0,012
766,3	0,012
766,7	0,012
767,2	0,013
767,6	0,013
768	0,013
768,5	0,013
768,9	0,013
769,3	0,013
769,8	0,013
770,2	0,012
770,6	0,012
771,1	0,012
771,5	0,012
771,9	0,011
772,4	0,011
772,8	0,011
773,2	0,012
773,7	0,012
774,1	0,012
774,5	0,012
775	0,012
775,4	0,012
775,8	0,011
776,3	0,011
776,7	0,011
777,1	0,011
777,6	0,011
778	0,011
778,4	0,011
778,9	0,011
779,3	0,011
779,7	0,011
780,2	0,01
780,6	0,01
781	0,01
781,5	0,01
781,9	0,01
782,3	0,01
782,8	0,01
783,2	0,01
783,6	0,01
784,1	0,01
784,5	0,01
784,9	0,01
785,4	0,01
785,8	0,01
786,2	0,009
786,7	0,009
787,1	0,009
787,5	0,009
788	0,009
788,4	0,009
788,8	0,009
789,3	0,009
789,7	0,009
790,1	0,009
790,6	0,009
791	0,009
791,4	0,009
791,9	0,009
792,3	0,009
792,7	0,009
793,2	0,009
793,6	0,009
794	0,009
794,5	0,009
794,9	0,009
795,3	0,01
795,8	0,01
796,2	0,01
796,6	0,01
797,1	0,01
797,5	0,011
797,9	0,011
798,4	0,011
798,8	0,011
799,2	0,011
799,7	0,011
800,1	0,01
800,5	0,01
801	0,01
801,4	0,009
801,8	0,009
802,2	0,009
802,7	0,009
803,1	0,009
803,5	0,008
804	0,009
804,4	0,009
804,8	0,009
805,3	0,009
805,7	0,008
806,1	0,008
806,6	0,008
807	0,008
807,4	0,008
807,9	0,008
808,3	0,008
808,7	0,009
809,2	0,009
809,6	0,009
810	0,009
810,4	0,009
810,9	0,009
811,3	0,009
811,7	0,009
812,2	0,009
812,6	0,009
813	0,009
813,5	0,009
813,9	0,009
814,3	0,009
814,8	0,009
815,2	0,009
815,6	0,009
816,1	0,008
816,5	0,009
816,9	0,008
817,3	0,008
817,8	0,008
818,2	0,008
818,6	0,008
819,1	0,009
819,5	0,008
819,9	0,009
820,4	0,009
820,8	0,008
821,2	0,008
821,7	0,008
822,1	0,008
822,5	0,007
822,9	0,007
823,4	0,007
823,8	0,007
824,2	0,007
824,7	0,007
825,1	0,008
825,5	0,008
826	0,009
826,4	0,009
826,8	0,009
827,3	0,009
827,7	0,009
828,1	0,009
828,5	0,009
829	0,009
829,4	0,009
829,8	0,009
830,3	0,009
830,7	0,01
831,1	0,009
831,6	0,01
832	0,009
832,4	0,01
832,8	0,009
833,3	0,009
833,7	0,009
834,1	0,009
834,6	0,008
835	0,008
835,4	0,008
835,8	0,008
836,3	0,008
836,7	0,008
837,1	0,008
837,6	0,008
838	0,008
838,4	0,008
838,9	0,008
839,3	0,008
839,7	0,008
840,1	0,008
840,6	0,009
841	0,009
841,4	0,009
841,9	0,009
842,3	0,009
842,7	0,009
843,1	0,009
843,6	0,008
844	0,008
844,4	0,008
844,9	0,008
845,3	0,008
845,7	0,008
846,2	0,008
846,6	0,009
847	0,008
847,4	0,009
847,9	0,009
848,3	0,009
848,7	0,009
849,2	0,01
849,6	0,009
850	0,009
850,4	0,009
850,9	0,009
851,3	0,009
851,7	0,009
852,2	0,009
852,6	0,009
853	0,009
853,4	0,009
853,9	0,01
854,3	0,01
854,7	0,01
855,2	0,01
855,6	0,01
856	0,01
856,4	0,01
856,9	0,01
857,3	0,01
857,7	0,01
858,2	0,009
858,6	0,009
859	0,008
859,4	0,008
859,9	0,008
860,3	0,007
860,7	0,008
861,1	0,008
861,6	0,008
862	0,008
862,4	0,008
862,9	0,008
863,3	0,009
863,7	0,008
864,1	0,009
864,6	0,009
865	0,008
865,4	0,008
865,9	0,008
866,3	0,008
866,7	0,008
867,1	0,008
867,6	0,008
868	0,009
868,4	0,008
868,8	0,009
869,3	0,008
869,7	0,009
870,1	0,008
870,6	0,009
871	0,008
871,4	0,008
871,8	0,008
872,3	0,008
872,7	0,008
873,1	0,008
873,5	0,007
874	0,007
874,4	0,007
874,8	0,007
875,3	0,007
875,7	0,007
876,1	0,007
876,5	0,007
877	0,007
877,4	0,007
877,8	0,007
878,2	0,006
878,7	0,007
879,1	0,006
879,5	0,007
879,9	0,007
880,4	0,007
880,8	0,007
881,2	0,007
881,7	0,007
882,1	0,008
882,5	0,008
882,9	0,007
883,4	0,007
883,8	0,007
884,2	0,007
884,6	0,007
885,1	0,007
885,5	0,007
885,9	0,007
886,3	0,008
886,8	0,008
887,2	0,008
887,6	0,008
888	0,008
888,5	0,008
888,9	0,008
889,3	0,008
889,8	0,008
890,2	0,009
890,6	0,009
891	0,009
891,5	0,009
891,9	0,009
892,3	0,009
892,7	0,009
893,2	0,009
893,6	0,009
894	0,009
894,4	0,009
894,9	0,009
895,3	0,009
895,7	0,009
896,1	0,008
896,6	0,008
897	0,008
897,4	0,007
897,8	0,007
898,3	0,007
898,7	0,007
899,1	0,007
899,5	0,007
900	0,007
900,4	0,007
900,8	0,007
901,2	0,007
901,7	0,007
902,1	0,007
902,5	0,006
902,9	0,006
903,4	0,006
903,8	0,007
904,2	0,007
904,6	0,007
905,1	0,007
905,5	0,008
905,9	0,008
906,3	0,008
906,8	0,008
907,2	0,007
907,6	0,007
908	0,007
908,5	0,006
908,9	0,006
909,3	0,006
909,7	0,006
910,2	0,006
910,6	0,006
911	0,006
911,4	0,006
911,9	0,006
912,3	0,006
912,7	0,006
913,1	0,006
913,6	0,006
914	0,006
914,4	0,006
914,8	0,006
915,3	0,006
915,7	0,006
916,1	0,006
916,5	0,006
916,9	0,007
917,4	0,007
917,8	0,008
918,2	0,008
918,6	0,008
919,1	0,008
919,5	0,009
919,9	0,009
920,3	0,009
920,8	0,009
921,2	0,009
921,6	0,009
922	0,008
922,5	0,008
922,9	0,008
923,3	0,008
923,7	0,008
924,2	0,008
924,6	0,008
925	0,008
925,4	0,008
925,8	0,008
926,3	0,008
926,7	0,008
927,1	0,008
927,5	0,008
928	0,008
928,4	0,008
928,8	0,008
929,2	0,008
929,7	0,008
930,1	0,008
930,5	0,008
930,9	0,008
931,3	0,008
931,8	0,008
932,2	0,008
932,6	0,008
933	0,008
933,5	0,008
933,9	0,007
934,3	0,007
934,7	0,008
935,2	0,008
935,6	0,008
936	0,008
936,4	0,008
936,8	0,008
937,3	0,008
937,7	0,007
938,1	0,007
938,5	0,007
939	0,007
939,4	0,007
939,8	0,006
940,2	0,007
940,6	0,006
941,1	0,006
941,5	0,006
941,9	0,006
942,3	0,006
942,8	0,006
943,2	0,006
943,6	0,006
944	0,006
944,4	0,006
944,9	0,006
945,3	0,007
945,7	0,007
946,1	0,007
946,6	0,007
947	0,007
947,4	0,007
947,8	0,006
948,2	0,006
948,7	0,006
949,1	0,006
949,5	0,006
949,9	0,006
950,3	0,007
950,8	0,006
951,2	0,006
951,6	0,006
952	0,006
952,5	0,006
952,9	0,006
953,3	0,005
953,7	0,005
954,1	0,006
954,6	0,006
955	0,006
955,4	0,006
955,8	0,006
956,2	0,006
956,7	0,007
957,1	0,007
957,5	0,007
957,9	0,008
958,3	0,008
958,8	0,008
959,2	0,007
959,6	0,007
960	0,007
960,5	0,007
960,9	0,006
961,3	0,006
961,7	0,006
962,1	0,007
962,6	0,006
963	0,007
963,4	0,006
963,8	0,006
964,2	0,006
964,7	0,006
965,1	0,006
965,5	0,006
965,9	0,006
966,3	0,007
966,8	0,008
967,2	0,008
967,6	0,008
968	0,008
968,4	0,008
968,9	0,008
969,3	0,007
969,7	0,007
970,1	0,006
970,5	0,006
971	0,007
971,4	0,006
971,8	0,006
972,2	0,006
972,6	0,006
973,1	0,006
973,5	0,006
973,9	0,006
974,3	0,006
974,7	0,007
975,2	0,007
975,6	0,007
976	0,007
976,4	0,006
976,8	0,006
977,3	0,006
977,7	0,005
978,1	0,006
978,5	0,006
978,9	0,006
979,4	0,007
979,8	0,007
980,2	0,008
980,6	0,008
981	0,008
981,5	0,008
981,9	0,008
982,3	0,008
982,7	0,008
983,1	0,008
983,6	0,007
984	0,007
984,4	0,007
984,8	0,007
985,2	0,007
985,6	0,007
986,1	0,006
986,5	0,007
986,9	0,007
987,3	0,007
987,7	0,007
988,2	0,007
988,6	0,007
989	0,006
989,4	0,006
989,8	0,007
990,3	0,006
990,7	0,006
991,1	0,006
991,5	0,006
991,9	0,007
992,3	0,007
992,8	0,007
993,2	0,007
993,6	0,007
994	0,007
994,4	0,007
994,9	0,006
995,3	0,006
995,7	0,007
996,1	0,007
996,5	0,007
996,9	0,007
997,4	0,007
997,8	0,007
998,2	0,008
998,6	0,008
999	0,008
999,5	0,008
999,9	0,009
1000,3	0,009
1000,7	0,009
1001,1	0,009
1001,5	0,008
1002	0,007
1002,4	0,007
1002,8	0,006
1003,2	0,005
1003,6	0,005
1004	0,005
1004,5	0,005
1004,9	0,005
1005,3	0,006
1005,7	0,007
1006,1	0,007
1006,6	0,007
1007	0,007
1007,4	0,007
1007,8	0,007
1008,2	0,007
1008,6	0,006
1009,1	0,005
1009,5	0,005
1009,9	0,005
1010,3	0,005
1010,7	0,006
1011,1	0,005
1011,6	0,005
1012	0,005
1012,4	0,004
1012,8	0,004
1013,2	0,004
1013,6	0,005
1014,1	0,005
1014,5	0,005
1014,9	0,005
1015,3	0,006
1015,7	0,006
1016,1	0,006
1016,6	0,006
1017	0,006
1017,4	0,006
1017,8	0,006
1018,2	0,005
1018,6	0,006
1019,1	0,006
1019,5	0,006
1019,9	0,006
1020,3	0,007
1020,7	0,006
1021,1	0,006
1021,6	0,006
1022	0,006
1022,4	0,006
1022,8	0,006
1023,2	0,006
1023,6	0,005
1024,1	0,006
1024,5	0,006
1024,9	0,008
1025,3	0,007
1025,7	0,008
1026,1	0,008
1026,6	0,009
1027	0,01
1027,4	0,009
1027,8	0,008
1028,2	0,009
1028,6	0,009
1029	0,009
1029,5	0,009
1029,9	0,009
1030,3	0,009
1030,7	0,009
1031,1	0,009
1031,5	0,008
1032	0,008
1032,4	0,008
1032,8	0,007
1033,2	0,007
1033,6	0,007
1034	0,007
1034,4	0,007
1034,9	0,006
1035,3	0,006
1035,7	0,007
1036,1	0,006
1036,5	0,006
1036,9	0,006
1037,4	0,006
1037,8	0,007
1038,2	0,007
1038,6	0,006
1039	0,007
1039,4	0,007
1039,8	0,008
1040,3	0,008
1040,7	0,007
1041,1	0,007
1041,5	0,007
1041,9	0,006
1042,3	0,006
1042,7	0,005
1043,2	0,004
1043,6	0,004
1044	0,004
1044,4	0,004
1044,8	0,005
1045,2	0,004
1045,6	0,005
1046,1	0,006
1046,5	0,006
1046,9	0,007
1047,3	0,007
1047,7	0,007
1048,1	0,007
1048,5	0,006
1049	0,006
1049,4	0,006
1049,8	0,005
1050,2	0,005
1050,6	0,005
1051	0,004
1051,4	0,004
1051,9	0,005
1052,3	0,005
1052,7	0,005
1053,1	0,006
1053,5	0,006
1053,9	0,007
1054,3	0,006
1054,8	0,007
1055,2	0,006
1055,6	0,006
1056	0,006
1056,4	0,006
1056,8	0,006
1057,2	0,006
1057,6	0,005
1058,1	0,005
1058,5	0,004
1058,9	0,004
1059,3	0,003
1059,7	0,003
1060,1	0,003
1060,5	0,003
1061	0,002
1061,4	0,002
1061,8	0,003
1062,2	0,004
1062,6	0,004
1063	0,004
1063,4	0,004
1063,8	0,005
1064,3	0,005
1064,7	0,005
1065,1	0,004
1065,5	0,004
1065,9	0,004
1066,3	0,005
1066,7	0,004
1067,1	0,004
1067,6	0,004
1068	0,004
1068,4	0,006
1068,8	0,005
1069,2	0,004
1069,6	0,004
1070	0,004
1070,4	0,003
1070,9	0,003
1071,3	0,003
1071,7	0,003
1072,1	0,003
1072,5	0,002
1072,9	0,002
1073,3	0,002
1073,7	0,003
1074,2	0,003
1074,6	0,004
1075	0,003
1075,4	0,004
1075,8	0,004
1076,2	0,004
1076,6	0,004
1077	0,004
1077,5	0,003
1077,9	0,004
1078,3	0,004
1078,7	0,005
1079,1	0,005
1079,5	0,004
1079,9	0,004
1080,3	0,005
1080,7	0,004
1081,2	0,005
1081,6	0,005
1082	0,005
1082,4	0,004
1082,8	0,003
1083,2	0,003
1083,6	0,004
1084	0,005
1084,5	0,004
1084,9	0,005
1085,3	0,005
1085,7	0,006
1086,1	0,006
1086,5	0,007
1086,9	0,005
1087,3	0,006
1087,7	0,006
1088,2	0,007
1088,6	0,004
1089	0,006
1089,4	0,006
1089,8	0,007
1090,2	0,003
1090,6	0,004
1091	0,004
1091,4	0,008
1091,9	0,006
1092,3	0,004
1092,7	0,006
1093,1	0,009
1093,5	0,01
1093,9	0,011
1094,3	0,009
1094,7	0,01
1095,1	0,015
1095,5	0,01
1096	0,011
1096,4	0,009
1096,8	0,012
1097,2	0,01
1097,6	0,006
1098	0,002
1098,4	0,004
1098,8	0,006
1099,2	0,002
1099,6	0,001
1100,1	-0,001
1100,5	0,003
1100,9	-0
1101,3	0,004
1101,7	0,007
1102,1	0,005
1102,5	0,002
1102,9	0,01
1103,3	0,009
1103,7	0,013
1104,2	0,003
1104,6	-0,006
1105	-0,001
1105,4	0,001
1105,8	-0,003
1106,2	0,004
1106,6	0,01
1107	0,009
1107,4	0,022
1107,8	0,046
1108,3	-0,084
