Data from Absorbance_00043.txt Node
Date: Fri Aug 11 13:08:15 MSK 2023
User: vat
Spectrometer: MAYP114033
Trigger mode: 0
Integration Time (sec): 8,000000E-3
Scans to average: 10
Electric dark correction enabled: true
Nonlinearity correction enabled: false
Boxcar width: 3
XAxis mode: Wavelengths
Number of Pixels in Spectrum: 2068
>>>>>Begin Spectral Data<<<<<
199,4	0,451
199,9	0,256
200,4	0,5
200,8	0,759
201,3	0,903
201,8	0,968
202,2	0,989
202,7	0,995
203,2	1,033
203,6	1,064
204,1	1,084
204,6	1,103
205	1,113
205,5	1,137
206	1,151
206,4	1,152
206,9	1,174
207,4	1,194
207,8	1,208
208,3	1,228
208,8	1,237
209,2	1,258
209,7	1,283
210,2	1,286
210,6	1,297
211,1	1,307
211,5	1,323
212	1,336
212,5	1,352
212,9	1,377
213,4	1,397
213,9	1,407
214,3	1,41
214,8	1,423
215,3	1,435
215,7	1,439
216,2	1,451
216,7	1,482
217,1	1,498
217,6	1,519
218,1	1,529
218,5	1,542
219	1,557
219,5	1,567
219,9	1,559
220,4	1,582
220,9	1,609
221,3	1,619
221,8	1,634
222,3	1,655
222,7	1,67
223,2	1,69
223,6	1,709
224,1	1,694
224,6	1,727
225	1,764
225,5	1,789
226	1,806
226,4	1,819
226,9	1,821
227,4	1,868
227,8	1,862
228,3	1,857
228,8	1,873
229,2	1,874
229,7	1,898
230,2	1,906
230,6	1,92
231,1	1,918
231,5	1,933
232	1,942
232,5	1,949
232,9	1,93
233,4	1,948
233,9	1,942
234,3	1,946
234,8	1,952
235,3	1,94
235,7	1,943
236,2	1,967
236,7	1,973
237,1	1,98
237,6	2,008
238,1	2
238,5	2,027
239	2,067
239,4	2,067
239,9	2,08
240,4	2,078
240,8	2,068
241,3	2,085
241,8	2,098
242,2	2,077
242,7	2,08
243,2	2,07
243,6	2,095
244,1	2,101
244,6	2,091
245	2,074
245,5	2,078
245,9	2,081
246,4	2,091
246,9	2,087
247,3	2,097
247,8	2,105
248,3	2,115
248,7	2,12
249,2	2,144
249,7	2,151
250,1	2,139
250,6	2,138
251	2,142
251,5	2,139
252	2,144
252,4	2,142
252,9	2,135
253,4	2,138
253,8	2,136
254,3	2,129
254,8	2,126
255,2	2,145
255,7	2,142
256,1	2,149
256,6	2,159
257,1	2,172
257,5	2,199
258	2,214
258,5	2,191
258,9	2,19
259,4	2,208
259,9	2,207
260,3	2,201
260,8	2,191
261,2	2,193
261,7	2,213
262,2	2,216
262,6	2,22
263,1	2,211
263,6	2,216
264	2,213
264,5	2,229
264,9	2,232
265,4	2,213
265,9	2,197
266,3	2,21
266,8	2,207
267,3	2,196
267,7	2,169
268,2	2,162
268,7	2,166
269,1	2,16
269,6	2,155
270	2,149
270,5	2,159
271	2,189
271,4	2,177
271,9	2,17
272,4	2,151
272,8	2,135
273,3	2,131
273,7	2,136
274,2	2,115
274,7	2,125
275,1	2,135
275,6	2,159
276,1	2,177
276,5	2,194
277	2,186
277,4	2,191
277,9	2,172
278,4	2,188
278,8	2,182
279,3	2,169
279,8	2,157
280,2	2,129
280,7	2,109
281,1	2,098
281,6	2,068
282,1	2,038
282,5	2,021
283	2,002
283,4	1,992
283,9	1,959
284,4	1,915
284,8	1,867
285,3	1,811
285,8	1,74
286,2	1,66
286,7	1,578
287,1	1,497
287,6	1,421
288,1	1,347
288,5	1,278
289	1,214
289,5	1,16
289,9	1,111
290,4	1,069
290,8	1,029
291,3	0,992
291,8	0,962
292,2	0,934
292,7	0,907
293,1	0,883
293,6	0,861
294,1	0,842
294,5	0,827
295	0,813
295,5	0,801
295,9	0,79
296,4	0,78
296,8	0,771
297,3	0,765
297,8	0,757
298,2	0,748
298,7	0,741
299,1	0,736
299,6	0,732
300,1	0,727
300,5	0,722
301	0,717
301,5	0,713
301,9	0,709
302,4	0,705
302,8	0,701
303,3	0,697
303,8	0,693
304,2	0,689
304,7	0,685
305,1	0,681
305,6	0,675
306,1	0,67
306,5	0,665
307	0,659
307,4	0,653
307,9	0,649
308,4	0,644
308,8	0,639
309,3	0,635
309,8	0,631
310,2	0,627
310,7	0,623
311,1	0,617
311,6	0,612
312,1	0,607
312,5	0,601
313	0,597
313,4	0,591
313,9	0,587
314,4	0,581
314,8	0,577
315,3	0,572
315,7	0,566
316,2	0,559
316,7	0,554
317,1	0,548
317,6	0,543
318	0,537
318,5	0,533
319	0,528
319,4	0,524
319,9	0,517
320,3	0,511
320,8	0,505
321,3	0,5
321,7	0,494
322,2	0,487
322,6	0,481
323,1	0,477
323,6	0,471
324	0,466
324,5	0,46
324,9	0,455
325,4	0,45
325,9	0,444
326,3	0,439
326,8	0,433
327,2	0,428
327,7	0,423
328,2	0,416
328,6	0,41
329,1	0,405
329,5	0,4
330	0,394
330,5	0,388
330,9	0,383
331,4	0,379
331,8	0,374
332,3	0,368
332,8	0,362
333,2	0,358
333,7	0,352
334,1	0,347
334,6	0,342
335,1	0,336
335,5	0,332
336	0,327
336,4	0,322
336,9	0,318
337,4	0,312
337,8	0,307
338,3	0,302
338,7	0,296
339,2	0,29
339,7	0,285
340,1	0,279
340,6	0,274
341	0,269
341,5	0,264
342	0,26
342,4	0,255
342,9	0,251
343,3	0,246
343,8	0,242
344,2	0,238
344,7	0,234
345,2	0,23
345,6	0,227
346,1	0,224
346,5	0,22
347	0,216
347,5	0,212
347,9	0,208
348,4	0,203
348,8	0,199
349,3	0,194
349,8	0,191
350,2	0,187
350,7	0,184
351,1	0,181
351,6	0,178
352	0,175
352,5	0,171
353	0,168
353,4	0,165
353,9	0,161
354,3	0,158
354,8	0,155
355,3	0,153
355,7	0,15
356,2	0,147
356,6	0,144
357,1	0,141
357,5	0,139
358	0,136
358,5	0,132
358,9	0,13
359,4	0,127
359,8	0,125
360,3	0,123
360,8	0,121
361,2	0,119
361,7	0,117
362,1	0,114
362,6	0,113
363	0,11
363,5	0,108
364	0,105
364,4	0,103
364,9	0,102
365,3	0,1
365,8	0,098
366,3	0,097
366,7	0,095
367,2	0,093
367,6	0,091
368,1	0,089
368,5	0,088
369	0,086
369,5	0,085
369,9	0,083
370,4	0,081
370,8	0,079
371,3	0,078
371,7	0,077
372,2	0,076
372,7	0,075
373,1	0,074
373,6	0,072
374	0,071
374,5	0,07
374,9	0,068
375,4	0,067
375,9	0,066
376,3	0,065
376,8	0,064
377,2	0,064
377,7	0,063
378,2	0,062
378,6	0,061
379,1	0,06
379,5	0,058
380	0,058
380,4	0,056
380,9	0,055
381,4	0,054
381,8	0,054
382,3	0,053
382,7	0,053
383,2	0,052
383,6	0,051
384,1	0,051
384,6	0,051
385	0,05
385,5	0,049
385,9	0,049
386,4	0,048
386,8	0,047
387,3	0,046
387,7	0,045
388,2	0,044
388,7	0,043
389,1	0,042
389,6	0,042
390	0,041
390,5	0,04
390,9	0,039
391,4	0,038
391,9	0,038
392,3	0,037
392,8	0,036
393,2	0,036
393,7	0,036
394,1	0,035
394,6	0,035
395,1	0,034
395,5	0,034
396	0,034
396,4	0,034
396,9	0,033
397,3	0,032
397,8	0,032
398,2	0,032
398,7	0,031
399,2	0,03
399,6	0,03
400,1	0,03
400,5	0,03
401	0,029
401,4	0,028
401,9	0,028
402,4	0,027
402,8	0,027
403,3	0,026
403,7	0,025
404,2	0,025
404,6	0,025
405,1	0,025
405,5	0,025
406	0,024
406,5	0,024
406,9	0,023
407,4	0,023
407,8	0,022
408,3	0,021
408,7	0,02
409,2	0,02
409,6	0,02
410,1	0,02
410,6	0,02
411	0,02
411,5	0,019
411,9	0,02
412,4	0,019
412,8	0,018
413,3	0,018
413,7	0,018
414,2	0,017
414,7	0,017
415,1	0,016
415,6	0,016
416	0,016
416,5	0,016
416,9	0,015
417,4	0,015
417,8	0,015
418,3	0,015
418,8	0,014
419,2	0,014
419,7	0,014
420,1	0,013
420,6	0,013
421	0,013
421,5	0,012
421,9	0,011
422,4	0,011
422,8	0,011
423,3	0,011
423,8	0,01
424,2	0,01
424,7	0,01
425,1	0,009
425,6	0,009
426	0,009
426,5	0,009
426,9	0,008
427,4	0,008
427,9	0,008
428,3	0,008
428,8	0,008
429,2	0,007
429,7	0,008
430,1	0,008
430,6	0,007
431	0,006
431,5	0,006
431,9	0,005
432,4	0,005
432,8	0,005
433,3	0,005
433,8	0,004
434,2	0,005
434,7	0,004
435,1	0,005
435,6	0,005
436	0,004
436,5	0,005
436,9	0,005
437,4	0,004
437,8	0,005
438,3	0,005
438,8	0,004
439,2	0,004
439,7	0,003
440,1	0,003
440,6	0,002
441	0,002
441,5	0,002
441,9	0,002
442,4	0,002
442,8	0,002
443,3	0,002
443,7	0,003
444,2	0,003
444,7	0,002
445,1	0,003
445,6	0,003
446	0,003
446,5	0,003
446,9	0,002
447,4	0,002
447,8	0,002
448,3	0,002
448,7	0,002
449,2	0,003
449,6	0,003
450,1	0,002
450,6	0,002
451	0,002
451,5	0,002
451,9	0,001
452,4	0,001
452,8	0
453,3	0
453,7	0,001
454,2	0,001
454,6	0,001
455,1	0,001
455,5	0,001
456	0,001
456,4	0,002
456,9	0,001
457,3	0,001
457,8	0,001
458,3	0
458,7	-0,001
459,2	-0,001
459,6	-0,001
460,1	-0,002
460,5	-0,002
461	-0,002
461,4	-0,001
461,9	-0,001
462,3	-0,001
462,8	-0,001
463,2	-0,001
463,7	-0,001
464,1	-0,001
464,6	-0
465	0
465,5	0,001
466	0,001
466,4	0,002
466,9	0,001
467,3	0,001
467,8	0,001
468,2	0
468,7	-0
469,1	0
469,6	-0
470	-0
470,5	-0
470,9	-0
471,4	-0,001
471,8	-0,001
472,3	-0,002
472,7	-0,001
473,2	-0,001
473,6	-0,001
474,1	-0,001
474,5	-0,001
475	-0,001
475,4	-0,001
475,9	-0,001
476,4	-0
476,8	-0,001
477,3	-0,001
477,7	-0,001
478,2	-0,001
478,6	-0,001
479,1	-0,001
479,5	-0,001
480	-0
480,4	0
480,9	0
481,3	0
481,8	-0
482,2	-0
482,7	-0
483,1	-0
483,6	-0,001
484	-0,001
484,5	-0,001
484,9	-0,001
485,4	-0
485,8	0
486,3	0
486,7	0
487,2	0
487,6	0
488,1	0
488,5	0
489	-0
489,4	-0,001
489,9	-0,001
490,4	-0
490,8	0
491,3	-0
491,7	0
492,2	0,001
492,6	0,001
493,1	0,001
493,5	0,001
494	0,001
494,4	0,001
494,9	0,001
495,3	0
495,8	0
496,2	0,001
496,7	0
497,1	0,001
497,6	0,001
498	0,001
498,5	0,001
498,9	0,001
499,4	0
499,8	-0
500,3	-0,001
500,7	-0
501,2	-0
501,6	-0,001
502,1	-0,001
502,5	-0
503	-0,001
503,4	-0
503,9	-0,001
504,3	-0
504,8	-0
505,2	-0
505,7	-0
506,1	0,001
506,6	0
507	0
507,5	-0,001
507,9	-0,001
508,4	-0,001
508,8	-0,001
509,3	-0,001
509,7	-0,001
510,2	-0,001
510,6	-0,001
511,1	-0
511,5	-0,001
512	-0,001
512,4	-0,001
512,9	0
513,3	-0
513,8	0
514,2	0,001
514,7	0,001
515,1	0,002
515,6	0,001
516	0
516,5	0,001
516,9	0
517,4	-0,001
517,8	-0,001
518,3	-0,001
518,7	-0,001
519,2	-0
519,6	-0,001
520,1	-0
520,5	-0
521	0
521,4	-0
521,9	-0
522,3	0
522,8	0,001
523,2	-0
523,7	-0
524,1	0
524,6	0
525	-0
525,5	-0
525,9	-0
526,4	-0
526,8	0
527,3	-0
527,7	-0
528,2	-0,001
528,6	-0
529,1	-0
529,5	0
530	-0
530,4	0
530,9	0
531,3	0,001
531,8	0,001
532,2	0
532,6	-0
533,1	0
533,5	-0
534	-0
534,4	-0,001
534,9	-0,001
535,3	-0,001
535,8	-0,001
536,2	-0,001
536,7	-0,002
537,1	-0,002
537,6	-0,002
538	-0,001
538,5	-0,001
538,9	-0,001
539,4	-0,001
539,8	-0,001
540,3	-0
540,7	0
541,2	0,001
541,6	0,001
542,1	0,001
542,5	0,001
543	0,001
543,4	0
543,9	0
544,3	-0,001
544,8	-0,001
545,2	-0,001
545,7	-0
546,1	-0
546,5	-0,001
547	-0
547,4	-0
547,9	-0
548,3	-0
548,8	-0
549,2	-0,001
549,7	-0
550,1	-0
550,6	-0
551	0
551,5	0
551,9	0
552,4	0
552,8	0
553,3	-0
553,7	-0
554,2	-0,001
554,6	-0,001
555,1	-0,001
555,5	-0
555,9	-0,001
556,4	-0,001
556,8	-0
557,3	-0,001
557,7	-0,001
558,2	-0,001
558,6	-0,001
559,1	-0,001
559,5	-0
560	-0
560,4	-0,001
560,9	-0,001
561,3	-0,001
561,8	-0,001
562,2	-0,001
562,7	-0,001
563,1	-0,001
563,6	-0
564	-0
564,4	-0
564,9	-0,001
565,3	-0
565,8	-0,001
566,2	-0,001
566,7	-0,001
567,1	-0,001
567,6	-0
568	0
568,5	-0
568,9	-0,001
569,4	-0
569,8	-0
570,3	-0
570,7	-0,001
571,1	-0
571,6	0
572	0,001
572,5	0,001
572,9	0,001
573,4	0
573,8	0
574,3	-0
574,7	-0,001
575,2	-0,001
575,6	-0,001
576,1	-0,001
576,5	-0,001
576,9	-0,001
577,4	-0,001
577,8	-0,001
578,3	-0,001
578,7	-0,001
579,2	-0,001
579,6	-0
580,1	-0
580,5	-0
581	-0
581,4	-0
581,9	0
582,3	0
582,7	0
583,2	-0
583,6	-0
584,1	0
584,5	-0
585	-0
585,4	-0
585,9	-0
586,3	-0
586,8	0
587,2	-0
587,6	0
588,1	0
588,5	-0
589	0
589,4	0
589,9	-0
590,3	0
590,8	0
591,2	0
591,7	0
592,1	0
592,5	0
593	0
593,4	-0
593,9	0
594,3	-0
594,8	0
595,2	0
595,7	0
596,1	0,001
596,6	0,001
597	0,001
597,4	0,001
597,9	0
598,3	0
598,8	0
599,2	0
599,7	-0
600,1	-0
600,6	-0,001
601	-0,001
601,4	-0,001
601,9	-0,001
602,3	-0,001
602,8	-0,001
603,2	-0,001
603,7	-0,001
604,1	-0,001
604,6	-0
605	-0
605,4	-0
605,9	-0
606,3	-0
606,8	-0
607,2	-0
607,7	-0
608,1	-0
608,6	-0,001
609	-0,001
609,4	-0,001
609,9	-0,001
610,3	-0,002
610,8	-0,001
611,2	-0,001
611,7	-0,001
612,1	-0,001
612,6	-0,001
613	-0
613,4	-0
613,9	-0
614,3	-0
614,8	-0
615,2	-0
615,7	-0
616,1	-0,001
616,6	-0,001
617	-0,001
617,4	-0,001
617,9	-0,002
618,3	-0,001
618,8	-0,001
619,2	-0,001
619,7	-0,001
620,1	-0,001
620,5	-0,001
621	-0,001
621,4	-0,001
621,9	-0,001
622,3	-0
622,8	-0
623,2	0
623,6	0
624,1	0
624,5	0
625	0
625,4	0
625,9	0
626,3	-0
626,8	-0
627,2	-0
627,6	0
628,1	-0
628,5	-0
629	-0
629,4	0
629,9	-0
630,3	0
630,7	0
631,2	0,001
631,6	0,001
632,1	0
632,5	0
633	0
633,4	0
633,8	0
634,3	0
634,7	0
635,2	0,001
635,6	0
636,1	0,001
636,5	0,001
636,9	0
637,4	0
637,8	0
638,3	-0
638,7	-0
639,2	-0
639,6	-0
640	-0
640,5	-0
640,9	-0
641,4	-0
641,8	-0
642,2	-0
642,7	-0
643,1	-0
643,6	-0
644	-0
644,5	-0
644,9	-0,001
645,3	-0
645,8	-0
646,2	0
646,7	-0
647,1	0
647,6	0,001
648	0,001
648,4	0
648,9	-0
649,3	0
649,8	0
650,2	-0
650,6	-0,001
651,1	-0,001
651,5	-0,001
652	-0
652,4	-0,001
652,9	-0,001
653,3	-0
653,7	0
654,2	0
654,6	0
655,1	0,001
655,5	0
655,9	0
656,4	0
656,8	-0
657,3	-0
657,7	-0
658,2	-0
658,6	-0
659	-0
659,5	-0
659,9	0,001
660,4	0,001
660,8	0
661,2	-0
661,7	-0
662,1	-0,001
662,6	-0,001
663	-0,001
663,4	-0,001
663,9	-0,001
664,3	-0,001
664,8	-0,001
665,2	-0,001
665,6	-0
666,1	-0
666,5	-0,001
667	-0,001
667,4	-0,001
667,9	-0
668,3	-0,001
668,7	-0,001
669,2	-0,001
669,6	-0,001
670,1	-0,001
670,5	-0,001
670,9	-0
671,4	-0
671,8	-0
672,3	-0
672,7	-0
673,1	-0
673,6	-0
674	-0,001
674,5	-0,001
674,9	-0,001
675,3	-0,001
675,8	-0,001
676,2	-0,001
676,7	-0
677,1	-0,001
677,5	-0,001
678	-0
678,4	-0,001
678,9	-0,001
679,3	-0,001
679,7	-0,001
680,2	-0,001
680,6	-0,001
681,1	-0,002
681,5	-0,002
681,9	-0,001
682,4	-0,002
682,8	-0,001
683,3	-0,001
683,7	-0,001
684,1	-0,001
684,6	-0,001
685	-0
685,5	-0
685,9	-0
686,3	-0
686,8	0
687,2	0
687,7	0
688,1	0
688,5	0,001
689	0,001
689,4	0,001
689,9	0
690,3	0,001
690,7	0,001
691,2	0,001
691,6	0
692	0
692,5	0,001
692,9	0,001
693,4	0
693,8	0
694,2	0
694,7	0
695,1	0
695,6	0
696	0
696,4	-0
696,9	0
697,3	0
697,8	-0
698,2	-0
698,6	-0
699,1	-0
699,5	-0
699,9	-0
700,4	-0
700,8	0
701,3	0
701,7	-0
702,1	0
702,6	0
703	0
703,5	0
703,9	0
704,3	0,001
704,8	0
705,2	0
705,6	-0
706,1	-0
706,5	-0,001
707	-0,001
707,4	-0,001
707,8	-0,001
708,3	-0,001
708,7	-0,001
709,2	-0,001
709,6	-0
710	-0
710,5	-0
710,9	-0,001
711,3	-0,001
711,8	-0,001
712,2	-0,001
712,7	-0,001
713,1	-0,001
713,5	-0,001
714	-0,001
714,4	-0,001
714,8	-0,001
715,3	-0
715,7	-0
716,2	-0
716,6	-0
717	-0,001
717,5	-0,001
717,9	-0,001
718,3	-0,001
718,8	-0,001
719,2	-0,002
719,7	-0,001
720,1	-0,001
720,5	-0,001
721	-0,001
721,4	-0,001
721,8	-0,001
722,3	-0,001
722,7	-0,001
723,2	-0,001
723,6	-0,001
724	-0,001
724,5	-0
724,9	-0
725,3	-0
725,8	0
726,2	-0
726,7	0
727,1	-0
727,5	-0,001
728	-0,001
728,4	-0,001
728,8	-0,001
729,3	-0,001
729,7	-0,001
730,1	-0,001
730,6	-0,001
731	-0,001
731,5	-0,001
731,9	-0,001
732,3	-0,001
732,8	-0,001
733,2	-0,001
733,6	-0,001
734,1	-0,001
734,5	-0,001
734,9	-0,001
735,4	-0
735,8	-0
736,3	0
736,7	0
737,1	0
737,6	0,001
738	0,001
738,4	0,001
738,9	0,001
739,3	0
739,7	0
740,2	-0
740,6	-0
741,1	-0,001
741,5	-0,001
741,9	-0,001
742,4	-0,001
742,8	-0,001
743,2	-0
743,7	-0
744,1	-0
744,5	-0
745	-0
745,4	-0,001
745,8	-0
746,3	-0,001
746,7	-0,001
747,2	-0,001
747,6	-0,001
748	-0,001
748,5	-0,001
748,9	-0,001
749,3	-0,001
749,8	-0,001
750,2	-0,001
750,6	-0,001
751,1	-0,001
751,5	-0,001
751,9	-0,001
752,4	-0,001
752,8	-0
753,3	-0
753,7	-0
754,1	-0
754,6	-0
755	-0
755,4	-0
755,9	-0,001
756,3	-0,001
756,7	-0,001
757,2	-0,001
757,6	-0,001
758	-0,001
758,5	-0,001
758,9	-0,001
759,3	-0,001
759,8	-0,001
760,2	-0,001
760,6	-0,001
761,1	-0,001
761,5	-0,001
761,9	-0
762,4	-0,001
762,8	-0
763,3	-0
763,7	-0
764,1	-0
764,6	-0
765	-0
765,4	-0
765,9	-0
766,3	-0
766,7	-0
767,2	-0
767,6	-0
768	0
768,5	0
768,9	0
769,3	0
769,8	0
770,2	0
770,6	0
771,1	-0
771,5	-0
771,9	-0,001
772,4	-0,001
772,8	-0,001
773,2	-0,001
773,7	-0
774,1	-0
774,5	-0
775	-0
775,4	-0
775,8	0
776,3	0
776,7	0
777,1	0
777,6	0
778	0
778,4	0
778,9	0
779,3	0
779,7	-0
780,2	-0
780,6	-0
781	-0,001
781,5	-0
781,9	-0
782,3	-0
782,8	0
783,2	0
783,6	0
784,1	0,001
784,5	0,001
784,9	0,001
785,4	0,001
785,8	0,001
786,2	0,001
786,7	0,001
787,1	0,001
787,5	0,001
788	0,001
788,4	0
788,8	-0
789,3	-0
789,7	-0
790,1	-0,001
790,6	-0
791	-0,001
791,4	-0,001
791,9	-0
792,3	-0
792,7	-0
793,2	-0
793,6	-0
794	-0
794,5	-0
794,9	-0
795,3	-0
795,8	0
796,2	0
796,6	0
797,1	0,001
797,5	0,001
797,9	0,001
798,4	0,001
798,8	0,001
799,2	0,001
799,7	0,001
800,1	0
800,5	-0
801	-0,001
801,4	-0,001
801,8	-0,001
802,2	-0,001
802,7	-0,001
803,1	-0,001
803,5	-0
804	-0
804,4	0
804,8	0
805,3	0,001
805,7	0
806,1	0
806,6	0
807	-0
807,4	-0,001
807,9	-0,001
808,3	-0,001
808,7	-0,001
809,2	-0,001
809,6	-0,002
810	-0,001
810,4	-0,001
810,9	-0,001
811,3	-0,001
811,7	-0,001
812,2	0
812,6	0
813	-0
813,5	-0
813,9	-0
814,3	-0
814,8	-0
815,2	-0,001
815,6	-0,001
816,1	-0,001
816,5	-0,001
816,9	-0,001
817,3	-0,001
817,8	-0,001
818,2	-0,001
818,6	-0,001
819,1	-0
819,5	-0
819,9	-0
820,4	-0
820,8	0
821,2	-0
821,7	-0
822,1	-0,001
822,5	-0,001
822,9	-0,001
823,4	-0,001
823,8	-0,002
824,2	-0,002
824,7	-0,002
825,1	-0,002
825,5	-0,002
826	-0,001
826,4	-0,001
826,8	-0,001
827,3	-0,001
827,7	-0,001
828,1	-0,001
828,5	-0,001
829	-0,001
829,4	-0,001
829,8	-0,001
830,3	-0
830,7	0
831,1	-0
831,6	0
832	0
832,4	0
832,8	0,001
833,3	0
833,7	0
834,1	0
834,6	0
835	0
835,4	0
835,8	0
836,3	0
836,7	0
837,1	0
837,6	-0
838	-0,001
838,4	-0,001
838,9	-0
839,3	-0
839,7	0
840,1	0
840,6	0
841	0
841,4	0
841,9	0
842,3	-0
842,7	-0
843,1	-0
843,6	-0
844	-0,001
844,4	-0,001
844,9	-0,001
845,3	-0,001
845,7	-0,001
846,2	-0,002
846,6	-0,002
847	-0,002
847,4	-0,002
847,9	-0,001
848,3	-0,002
848,7	-0,001
849,2	-0,001
849,6	-0,001
850	-0,001
850,4	-0
850,9	-0
851,3	-0
851,7	-0
852,2	-0
852,6	-0
853	-0
853,4	-0
853,9	-0
854,3	-0
854,7	-0
855,2	-0
855,6	-0
856	0
856,4	0
856,9	-0
857,3	0
857,7	-0
858,2	-0
858,6	-0,001
859	-0,001
859,4	-0,001
859,9	-0,001
860,3	-0,002
860,7	-0,001
861,1	-0,001
861,6	-0,001
862	-0,001
862,4	-0,001
862,9	-0,001
863,3	-0,001
863,7	-0,001
864,1	-0
864,6	0
865	0,001
865,4	0,001
865,9	0,001
866,3	0,001
866,7	0,001
867,1	0,001
867,6	0,001
868	0,001
868,4	0,001
868,8	0,001
869,3	0,001
869,7	0,001
870,1	0,001
870,6	0,001
871	0
871,4	0
871,8	-0
872,3	-0
872,7	-0
873,1	-0
873,5	-0,001
874	-0,001
874,4	-0,001
874,8	-0,001
875,3	-0,001
875,7	-0,001
876,1	-0,001
876,5	-0,001
877	-0,001
877,4	-0,001
877,8	-0,001
878,2	-0,001
878,7	-0,001
879,1	-0,001
879,5	-0,001
879,9	-0,001
880,4	-0,001
880,8	-0,001
881,2	-0,001
881,7	-0,001
882,1	-0
882,5	-0,001
882,9	-0,001
883,4	-0
883,8	-0
884,2	-0
884,6	-0
885,1	-0
885,5	-0
885,9	-0
886,3	-0
886,8	-0
887,2	-0,001
887,6	-0
888	-0,001
888,5	-0
888,9	-0
889,3	-0,001
889,8	-0
890,2	-0
890,6	-0
891	0
891,5	0
891,9	0
892,3	0
892,7	0
893,2	0
893,6	0
894	-0
894,4	0
894,9	0
895,3	0,001
895,7	0,001
896,1	0,001
896,6	0,001
897	0,001
897,4	0,001
897,8	0,001
898,3	0
898,7	0
899,1	-0
899,5	-0
900	-0
900,4	-0
900,8	-0
901,2	-0
901,7	-0
902,1	0,001
902,5	0
902,9	0,001
903,4	0
903,8	0
904,2	0
904,6	0
905,1	0
905,5	0
905,9	0
906,3	-0
906,8	-0,001
907,2	-0,001
907,6	-0,001
908	-0,001
908,5	-0,001
908,9	-0,001
909,3	-0,001
909,7	-0,001
910,2	-0,001
910,6	-0,001
911	-0,001
911,4	-0,001
911,9	-0,001
912,3	-0,001
912,7	-0,001
913,1	-0,001
913,6	-0,001
914	-0,001
914,4	-0,002
914,8	-0,001
915,3	-0,001
915,7	-0,001
916,1	-0,001
916,5	-0,001
916,9	-0,001
917,4	-0,001
917,8	-0
918,2	-0,001
918,6	-0,001
919,1	-0
919,5	0
919,9	0
920,3	0
920,8	0
921,2	0
921,6	0
922	0
922,5	-0
922,9	0
923,3	0
923,7	0
924,2	-0
924,6	-0
925	-0
925,4	0
925,8	-0
926,3	-0
926,7	-0
927,1	-0
927,5	-0
928	-0,001
928,4	-0,001
928,8	-0,001
929,2	-0,001
929,7	-0,002
930,1	-0,001
930,5	-0,001
930,9	-0,001
931,3	-0,001
931,8	-0,001
932,2	-0,001
932,6	-0,001
933	-0,002
933,5	-0,002
933,9	-0,002
934,3	-0,002
934,7	-0,002
935,2	-0,002
935,6	-0,001
936	-0,001
936,4	-0,001
936,8	-0,001
937,3	-0,001
937,7	-0,002
938,1	-0,002
938,5	-0,002
939	-0,002
939,4	-0,002
939,8	-0,002
940,2	-0,002
940,6	-0,003
941,1	-0,003
941,5	-0,003
941,9	-0,003
942,3	-0,003
942,8	-0,003
943,2	-0,003
943,6	-0,002
944	-0,001
944,4	-0,001
944,9	-0
945,3	0
945,7	0,001
946,1	0
946,6	0
947	-0
947,4	-0
947,8	0
948,2	-0,001
948,7	-0
949,1	-0
949,5	-0
949,9	-0
950,3	-0
950,8	-0,001
951,2	-0
951,6	-0
952	-0
952,5	-0
952,9	-0
953,3	0
953,7	-0
954,1	-0
954,6	0
955	0,001
955,4	0,001
955,8	0,002
956,2	0,001
956,7	0,002
957,1	0,003
957,5	0,003
957,9	0,003
958,3	0,002
958,8	0,002
959,2	0,001
959,6	0
960	-0
960,5	-0
960,9	-0,001
961,3	-0,001
961,7	-0,001
962,1	-0
962,6	-0,001
963	-0,001
963,4	-0,002
963,8	-0,002
964,2	-0,003
964,7	-0,003
965,1	-0,003
965,5	-0,002
965,9	-0,002
966,3	-0,002
966,8	-0,001
967,2	-0
967,6	0
968	0,001
968,4	0,001
968,9	0,001
969,3	0,001
969,7	0
970,1	0
970,5	0
971	0
971,4	0
971,8	0
972,2	0,001
972,6	0,001
973,1	-0
973,5	-0
973,9	-0
974,3	-0
974,7	0
975,2	-0
975,6	-0
976	-0
976,4	-0
976,8	-0,001
977,3	-0,001
977,7	-0,001
978,1	-0,002
978,5	-0,001
978,9	-0,001
979,4	-0,001
979,8	-0,001
980,2	-0
980,6	0
981	0
981,5	0,001
981,9	0
982,3	0
982,7	0,001
983,1	0,001
983,6	0,001
984	-0
984,4	-0
984,8	-0
985,2	-0
985,6	-0
986,1	-0,001
986,5	-0
986,9	0
987,3	0
987,7	0,001
988,2	0,001
988,6	0
989	-0,001
989,4	-0,001
989,8	-0,001
990,3	-0,002
990,7	-0,002
991,1	-0,002
991,5	-0,001
991,9	-0,001
992,3	-0,001
992,8	0
993,2	0,001
993,6	0
994	0,001
994,4	0
994,9	0
995,3	0
995,7	-0
996,1	-0
996,5	0
996,9	-0,001
997,4	-0,001
997,8	-0,001
998,2	-0,001
998,6	-0,001
999	-0
999,5	-0,001
999,9	0
1000,3	0,001
1000,7	0,001
1001,1	0,001
1001,5	0,001
1002	0
1002,4	0
1002,8	0
1003,2	-0
1003,6	-0
1004	-0,001
1004,5	-0,001
1004,9	-0,001
1005,3	-0
1005,7	-0
1006,1	0,001
1006,6	0,001
1007	0,001
1007,4	0,002
1007,8	0,002
1008,2	0,002
1008,6	0,002
1009,1	0,001
1009,5	0
1009,9	0
1010,3	-0
1010,7	0
1011,1	-0
1011,6	-0
1012	0
1012,4	0
1012,8	-0
1013,2	0
1013,6	-0,001
1014,1	-0
1014,5	-0,001
1014,9	-0,001
1015,3	-0,001
1015,7	-0,001
1016,1	-0,001
1016,6	-0,001
1017	-0,002
1017,4	-0,002
1017,8	-0,002
1018,2	-0,002
1018,6	-0,002
1019,1	-0,002
1019,5	-0,003
1019,9	-0,002
1020,3	-0,001
1020,7	-0,001
1021,1	-0,001
1021,6	-0,001
1022	-0
1022,4	-0
1022,8	-0,001
1023,2	-0,002
1023,6	-0,002
1024,1	-0,001
1024,5	-0,001
1024,9	-0,001
1025,3	-0
1025,7	0
1026,1	0,001
1026,6	0,001
1027	0,001
1027,4	0
1027,8	-0,001
1028,2	-0
1028,6	-0
1029	-0
1029,5	0
1029,9	0
1030,3	0,001
1030,7	0,001
1031,1	0,001
1031,5	0,001
1032	0,001
1032,4	0
1032,8	0
1033,2	0
1033,6	0,001
1034	0
1034,4	0
1034,9	0
1035,3	0
1035,7	0,001
1036,1	0,001
1036,5	0
1036,9	-0
1037,4	-0,001
1037,8	0
1038,2	0
1038,6	-0,001
1039	-0,001
1039,4	-0
1039,8	-0
1040,3	-0
1040,7	-0
1041,1	-0
1041,5	0
1041,9	-0,001
1042,3	-0,001
1042,7	-0,001
1043,2	-0,001
1043,6	-0,001
1044	-0,002
1044,4	-0,001
1044,8	-0,001
1045,2	-0,001
1045,6	-0,001
1046,1	-0,001
1046,5	-0,001
1046,9	-0
1047,3	-0,001
1047,7	-0,001
1048,1	-0,001
1048,5	-0,001
1049	-0,002
1049,4	-0,001
1049,8	-0,002
1050,2	-0,002
1050,6	-0,003
1051	-0,002
1051,4	-0,002
1051,9	-0,002
1052,3	-0,002
1052,7	-0,001
1053,1	-0,001
1053,5	-0
1053,9	-0
1054,3	-0,001
1054,8	-0
1055,2	-0,001
1055,6	-0,001
1056	-0,002
1056,4	-0,002
1056,8	-0,002
1057,2	-0,001
1057,6	-0,002
1058,1	-0,002
1058,5	-0,003
1058,9	-0,003
1059,3	-0,003
1059,7	-0,003
1060,1	-0,003
1060,5	-0,003
1061	-0,003
1061,4	-0,003
1061,8	-0,002
1062,2	-0,002
1062,6	-0,003
1063	-0,003
1063,4	-0,002
1063,8	-0,002
1064,3	-0,002
1064,7	-0,002
1065,1	-0,002
1065,5	-0,002
1065,9	-0,002
1066,3	-0,002
1066,7	-0,002
1067,1	-0,001
1067,6	-0,001
1068	-0,001
1068,4	-0,001
1068,8	0
1069,2	-0,001
1069,6	-0,001
1070	-0,001
1070,4	-0,001
1070,9	-0,001
1071,3	-0,001
1071,7	-0,002
1072,1	-0,002
1072,5	-0,002
1072,9	-0,002
1073,3	-0,001
1073,7	-0,001
1074,2	-0,002
1074,6	-0,001
1075	-0,001
1075,4	-0
1075,8	0
1076,2	-0,001
1076,6	-0
1077	0
1077,5	-0,001
1077,9	0
1078,3	-0,001
1078,7	-0,001
1079,1	-0,001
1079,5	-0,002
1079,9	-0,002
1080,3	-0,001
1080,7	-0,002
1081,2	-0
1081,6	-0,001
1082	-0,002
1082,4	-0,002
1082,8	-0,004
1083,2	-0,005
1083,6	-0,005
1084	-0,006
1084,5	-0,005
1084,9	-0,003
1085,3	-0,002
1085,7	0,001
1086,1	0,003
1086,5	0,004
1086,9	0,004
1087,3	0,005
1087,7	0,005
1088,2	0,004
1088,6	0,003
1089	0,003
1089,4	0,002
1089,8	0,003
1090,2	-0,001
1090,6	-0,003
1091	-0,001
1091,4	-0,002
1091,9	-0,003
1092,3	-0,002
1092,7	-0,003
1093,1	-0,001
1093,5	-0,001
1093,9	-0,002
1094,3	-0,004
1094,7	-0
1095,1	0,001
1095,5	0,004
1096	0,004
1096,4	0,005
1096,8	0,005
1097,2	0,011
1097,6	0,007
1098	0,002
1098,4	-0
1098,8	-0,002
1099,2	-0,002
1099,6	-0,001
1100,1	-0,01
1100,5	-0,007
1100,9	-0,007
1101,3	-0,007
1101,7	-0,001
1102,1	-0,007
1102,5	-0,004
1102,9	0,005
1103,3	0,004
1103,7	0,001
1104,2	-0
1104,6	0,002
1105	0,004
1105,4	0,005
1105,8	0,007
1106,2	0,009
1106,6	0,02
1107	0,007
1107,4	0,001
1107,8	0,017
1108,3	-0
