Data from Absorbance_00048.txt Node
Date: Fri Aug 11 13:13:58 MSK 2023
User: vat
Spectrometer: MAYP114033
Trigger mode: 0
Integration Time (sec): 8,000000E-3
Scans to average: 10
Electric dark correction enabled: true
Nonlinearity correction enabled: false
Boxcar width: 3
XAxis mode: Wavelengths
Number of Pixels in Spectrum: 2068
>>>>>Begin Spectral Data<<<<<
199,4	-0
199,9	0,144
200,4	0,398
200,8	0,754
201,3	0,874
201,8	0,956
202,2	0,98
202,7	0,999
203,2	1,039
203,6	1,083
204,1	1,101
204,6	1,121
205	1,13
205,5	1,142
206	1,148
206,4	1,165
206,9	1,178
207,4	1,18
207,8	1,192
208,3	1,214
208,8	1,244
209,2	1,266
209,7	1,282
210,2	1,295
210,6	1,319
211,1	1,336
211,5	1,354
212	1,367
212,5	1,381
212,9	1,404
213,4	1,415
213,9	1,423
214,3	1,42
214,8	1,422
215,3	1,425
215,7	1,434
216,2	1,429
216,7	1,455
217,1	1,47
217,6	1,494
218,1	1,507
218,5	1,505
219	1,527
219,5	1,545
219,9	1,557
220,4	1,577
220,9	1,601
221,3	1,615
221,8	1,654
222,3	1,663
222,7	1,68
223,2	1,687
223,6	1,7
224,1	1,704
224,6	1,734
225	1,738
225,5	1,78
226	1,796
226,4	1,81
226,9	1,81
227,4	1,829
227,8	1,831
228,3	1,844
228,8	1,84
229,2	1,844
229,7	1,857
230,2	1,874
230,6	1,887
231,1	1,89
231,5	1,92
232	1,929
232,5	1,938
232,9	1,955
233,4	1,966
233,9	1,979
234,3	1,972
234,8	1,968
235,3	1,963
235,7	1,962
236,2	1,96
236,7	1,97
237,1	1,969
237,6	1,99
238,1	1,993
238,5	2,01
239	2,03
239,4	2,047
239,9	2,05
240,4	2,053
240,8	2,054
241,3	2,054
241,8	2,074
242,2	2,082
242,7	2,07
243,2	2,079
243,6	2,088
244,1	2,098
244,6	2,094
245	2,093
245,5	2,085
245,9	2,102
246,4	2,115
246,9	2,144
247,3	2,145
247,8	2,163
248,3	2,164
248,7	2,193
249,2	2,187
249,7	2,189
250,1	2,159
250,6	2,155
251	2,137
251,5	2,136
252	2,12
252,4	2,14
252,9	2,136
253,4	2,153
253,8	2,16
254,3	2,183
254,8	2,177
255,2	2,183
255,7	2,166
256,1	2,161
256,6	2,158
257,1	2,158
257,5	2,16
258	2,175
258,5	2,158
258,9	2,157
259,4	2,174
259,9	2,169
260,3	2,185
260,8	2,175
261,2	2,174
261,7	2,214
262,2	2,196
262,6	2,185
263,1	2,184
263,6	2,171
264	2,175
264,5	2,169
264,9	2,152
265,4	2,163
265,9	2,17
266,3	2,182
266,8	2,178
267,3	2,172
267,7	2,179
268,2	2,185
268,7	2,204
269,1	2,177
269,6	2,181
270	2,196
270,5	2,215
271	2,206
271,4	2,193
271,9	2,169
272,4	2,177
272,8	2,16
273,3	2,156
273,7	2,164
274,2	2,171
274,7	2,181
275,1	2,2
275,6	2,216
276,1	2,222
276,5	2,219
277	2,21
277,4	2,206
277,9	2,217
278,4	2,228
278,8	2,219
279,3	2,224
279,8	2,228
280,2	2,212
280,7	2,19
281,1	2,166
281,6	2,145
282,1	2,138
282,5	2,123
283	2,132
283,4	2,134
283,9	2,163
284,4	2,179
284,8	2,186
285,3	2,176
285,8	2,163
286,2	2,103
286,7	2,045
287,1	1,973
287,6	1,899
288,1	1,827
288,5	1,761
289	1,692
289,5	1,636
289,9	1,588
290,4	1,539
290,8	1,493
291,3	1,453
291,8	1,416
292,2	1,385
292,7	1,357
293,1	1,327
293,6	1,304
294,1	1,285
294,5	1,268
295	1,255
295,5	1,243
295,9	1,227
296,4	1,217
296,8	1,204
297,3	1,192
297,8	1,183
298,2	1,17
298,7	1,162
299,1	1,154
299,6	1,143
300,1	1,134
300,5	1,127
301	1,117
301,5	1,108
301,9	1,098
302,4	1,088
302,8	1,081
303,3	1,072
303,8	1,062
304,2	1,054
304,7	1,045
305,1	1,034
305,6	1,026
306,1	1,016
306,5	1,006
307	0,995
307,4	0,986
307,9	0,976
308,4	0,968
308,8	0,957
309,3	0,948
309,8	0,94
310,2	0,93
310,7	0,918
311,1	0,908
311,6	0,898
312,1	0,889
312,5	0,878
313	0,868
313,4	0,859
313,9	0,849
314,4	0,84
314,8	0,827
315,3	0,817
315,7	0,807
316,2	0,796
316,7	0,784
317,1	0,775
317,6	0,764
318	0,754
318,5	0,745
319	0,734
319,4	0,724
319,9	0,716
320,3	0,706
320,8	0,695
321,3	0,686
321,7	0,675
322,2	0,666
322,6	0,657
323,1	0,647
323,6	0,637
324	0,628
324,5	0,618
324,9	0,609
325,4	0,6
325,9	0,59
326,3	0,58
326,8	0,57
327,2	0,56
327,7	0,55
328,2	0,541
328,6	0,53
329,1	0,521
329,5	0,512
330	0,503
330,5	0,493
330,9	0,484
331,4	0,475
331,8	0,467
332,3	0,458
332,8	0,448
333,2	0,439
333,7	0,431
334,1	0,423
334,6	0,414
335,1	0,405
335,5	0,397
336	0,389
336,4	0,38
336,9	0,372
337,4	0,363
337,8	0,355
338,3	0,347
338,7	0,339
339,2	0,331
339,7	0,322
340,1	0,315
340,6	0,307
341	0,301
341,5	0,293
342	0,287
342,4	0,28
342,9	0,275
343,3	0,269
343,8	0,264
344,2	0,258
344,7	0,252
345,2	0,247
345,6	0,243
346,1	0,237
346,5	0,233
347	0,227
347,5	0,222
347,9	0,217
348,4	0,212
348,8	0,206
349,3	0,202
349,8	0,198
350,2	0,193
350,7	0,19
351,1	0,186
351,6	0,182
352	0,179
352,5	0,175
353	0,171
353,4	0,167
353,9	0,163
354,3	0,159
354,8	0,156
355,3	0,153
355,7	0,15
356,2	0,147
356,6	0,145
357,1	0,142
357,5	0,139
358	0,135
358,5	0,132
358,9	0,13
359,4	0,127
359,8	0,124
360,3	0,122
360,8	0,12
361,2	0,118
361,7	0,116
362,1	0,113
362,6	0,111
363	0,108
363,5	0,106
364	0,104
364,4	0,102
364,9	0,1
365,3	0,099
365,8	0,097
366,3	0,095
366,7	0,093
367,2	0,091
367,6	0,089
368,1	0,087
368,5	0,085
369	0,083
369,5	0,081
369,9	0,08
370,4	0,079
370,8	0,077
371,3	0,076
371,7	0,075
372,2	0,074
372,7	0,073
373,1	0,072
373,6	0,07
374	0,068
374,5	0,067
374,9	0,065
375,4	0,064
375,9	0,063
376,3	0,061
376,8	0,06
377,2	0,059
377,7	0,058
378,2	0,058
378,6	0,056
379,1	0,055
379,5	0,053
380	0,052
380,4	0,051
380,9	0,05
381,4	0,049
381,8	0,049
382,3	0,049
382,7	0,048
383,2	0,048
383,6	0,047
384,1	0,047
384,6	0,046
385	0,045
385,5	0,045
385,9	0,044
386,4	0,043
386,8	0,042
387,3	0,042
387,7	0,041
388,2	0,039
388,7	0,039
389,1	0,038
389,6	0,037
390	0,037
390,5	0,036
390,9	0,035
391,4	0,035
391,9	0,034
392,3	0,033
392,8	0,033
393,2	0,032
393,7	0,032
394,1	0,031
394,6	0,031
395,1	0,03
395,5	0,03
396	0,03
396,4	0,029
396,9	0,029
397,3	0,028
397,8	0,027
398,2	0,027
398,7	0,027
399,2	0,026
399,6	0,025
400,1	0,025
400,5	0,025
401	0,024
401,4	0,023
401,9	0,023
402,4	0,022
402,8	0,022
403,3	0,021
403,7	0,021
404,2	0,021
404,6	0,021
405,1	0,021
405,5	0,02
406	0,02
406,5	0,02
406,9	0,019
407,4	0,019
407,8	0,018
408,3	0,018
408,7	0,017
409,2	0,017
409,6	0,016
410,1	0,016
410,6	0,016
411	0,016
411,5	0,016
411,9	0,015
412,4	0,015
412,8	0,015
413,3	0,015
413,7	0,014
414,2	0,014
414,7	0,014
415,1	0,014
415,6	0,014
416	0,013
416,5	0,013
416,9	0,013
417,4	0,013
417,8	0,012
418,3	0,011
418,8	0,011
419,2	0,011
419,7	0,011
420,1	0,01
420,6	0,01
421	0,011
421,5	0,011
421,9	0,01
422,4	0,01
422,8	0,01
423,3	0,01
423,8	0,009
424,2	0,009
424,7	0,009
425,1	0,009
425,6	0,008
426	0,009
426,5	0,008
426,9	0,008
427,4	0,008
427,9	0,008
428,3	0,007
428,8	0,007
429,2	0,007
429,7	0,007
430,1	0,006
430,6	0,007
431	0,006
431,5	0,006
431,9	0,005
432,4	0,006
432,8	0,005
433,3	0,005
433,8	0,005
434,2	0,005
434,7	0,005
435,1	0,005
435,6	0,005
436	0,005
436,5	0,005
436,9	0,004
437,4	0,004
437,8	0,005
438,3	0,005
438,8	0,004
439,2	0,004
439,7	0,003
440,1	0,003
440,6	0,002
441	0,002
441,5	0,002
441,9	0,003
442,4	0,003
442,8	0,003
443,3	0,002
443,7	0,003
444,2	0,003
444,7	0,002
445,1	0,002
445,6	0,001
446	0,002
446,5	0,002
446,9	0,002
447,4	0,002
447,8	0,002
448,3	0,002
448,7	0,003
449,2	0,003
449,6	0,003
450,1	0,002
450,6	0,002
451	0,002
451,5	0,001
451,9	0
452,4	0,001
452,8	0
453,3	-0
453,7	0
454,2	0
454,6	0,001
455,1	0,001
455,5	0,001
456	0,001
456,4	0,001
456,9	0,001
457,3	0,001
457,8	0,001
458,3	0
458,7	-0
459,2	-0
459,6	-0,001
460,1	-0,001
460,5	-0,001
461	-0,001
461,4	-0,001
461,9	-0,001
462,3	-0,001
462,8	-0,001
463,2	-0,001
463,7	-0,001
464,1	-0
464,6	-0,001
465	-0
465,5	-0
466	0
466,4	-0
466,9	-0
467,3	-0
467,8	-0
468,2	-0,001
468,7	-0,001
469,1	-0,001
469,6	-0
470	-0
470,5	-0,001
470,9	-0,001
471,4	-0
471,8	-0,001
472,3	-0,001
472,7	-0,001
473,2	-0,001
473,6	0
474,1	-0
474,5	0
475	0
475,4	-0
475,9	-0
476,4	-0
476,8	-0,001
477,3	-0
477,7	-0,001
478,2	-0,001
478,6	-0
479,1	0
479,5	0,001
480	0,001
480,4	0
480,9	0
481,3	0
481,8	-0
482,2	-0,001
482,7	-0,002
483,1	-0,002
483,6	-0,002
484	-0,002
484,5	-0,003
484,9	-0,002
485,4	-0,002
485,8	-0,001
486,3	-0,001
486,7	-0,001
487,2	-0,001
487,6	-0,001
488,1	-0,001
488,5	-0,001
489	-0,002
489,4	-0,002
489,9	-0,002
490,4	-0,001
490,8	-0,001
491,3	-0,001
491,7	-0,001
492,2	-0,001
492,6	-0
493,1	-0
493,5	-0,001
494	-0
494,4	-0,001
494,9	-0
495,3	-0
495,8	-0
496,2	0
496,7	-0,001
497,1	-0,001
497,6	-0,001
498	-0,001
498,5	-0,001
498,9	-0,001
499,4	-0,001
499,8	-0,001
500,3	-0,002
500,7	-0,002
501,2	-0,002
501,6	-0,002
502,1	-0,002
502,5	-0,001
503	-0,002
503,4	-0,001
503,9	-0,001
504,3	-0,001
504,8	-0,001
505,2	-0,001
505,7	-0,001
506,1	-0,001
506,6	-0,001
507	-0
507,5	-0
507,9	-0,001
508,4	-0,001
508,8	-0,001
509,3	-0,002
509,7	-0,002
510,2	-0,002
510,6	-0,002
511,1	-0,001
511,5	-0,001
512	-0,001
512,4	-0,001
512,9	-0,001
513,3	-0,002
513,8	-0,001
514,2	-0,002
514,7	-0,001
515,1	-0,001
515,6	-0,002
516	-0,002
516,5	-0,001
516,9	-0,001
517,4	-0,002
517,8	-0,002
518,3	-0,002
518,7	-0,002
519,2	-0,002
519,6	-0,002
520,1	-0,002
520,5	-0,002
521	-0,002
521,4	-0,002
521,9	-0,002
522,3	-0,001
522,8	-0,001
523,2	-0,002
523,7	-0,001
524,1	-0
524,6	-0,001
525	-0,001
525,5	-0,001
525,9	-0,002
526,4	-0,001
526,8	-0,002
527,3	-0,002
527,7	-0,002
528,2	-0,002
528,6	-0,002
529,1	-0,002
529,5	-0,002
530	-0,002
530,4	-0,001
530,9	-0,001
531,3	-0,001
531,8	-0,001
532,2	-0,001
532,6	-0,002
533,1	-0,002
533,5	-0,002
534	-0,002
534,4	-0,002
534,9	-0,002
535,3	-0,002
535,8	-0,002
536,2	-0,002
536,7	-0,003
537,1	-0,003
537,6	-0,003
538	-0,003
538,5	-0,002
538,9	-0,002
539,4	-0,002
539,8	-0,001
540,3	-0,001
540,7	-0,001
541,2	-0,001
541,6	-0,001
542,1	-0,001
542,5	-0,001
543	-0,002
543,4	-0,003
543,9	-0,003
544,3	-0,003
544,8	-0,003
545,2	-0,004
545,7	-0,003
546,1	-0,003
546,5	-0,003
547	-0,002
547,4	-0,002
547,9	-0,002
548,3	-0,002
548,8	-0,002
549,2	-0,002
549,7	-0,002
550,1	-0,002
550,6	-0,002
551	-0,002
551,5	-0,001
551,9	-0,001
552,4	-0,001
552,8	-0,001
553,3	-0,001
553,7	-0,001
554,2	-0,002
554,6	-0,002
555,1	-0,003
555,5	-0,002
555,9	-0,003
556,4	-0,003
556,8	-0,003
557,3	-0,003
557,7	-0,003
558,2	-0,003
558,6	-0,003
559,1	-0,004
559,5	-0,004
560	-0,003
560,4	-0,004
560,9	-0,003
561,3	-0,003
561,8	-0,002
562,2	-0,002
562,7	-0,002
563,1	-0,002
563,6	-0,002
564	-0,001
564,4	-0,001
564,9	-0,002
565,3	-0,001
565,8	-0,001
566,2	-0,001
566,7	-0,001
567,1	-0,001
567,6	-0
568	-0
568,5	-0,001
568,9	-0,001
569,4	-0,001
569,8	-0,001
570,3	-0,002
570,7	-0,002
571,1	-0,002
571,6	-0,001
572	-0,001
572,5	-0,001
572,9	-0,001
573,4	-0,002
573,8	-0,002
574,3	-0,003
574,7	-0,003
575,2	-0,003
575,6	-0,003
576,1	-0,003
576,5	-0,003
576,9	-0,003
577,4	-0,003
577,8	-0,003
578,3	-0,002
578,7	-0,002
579,2	-0,002
579,6	-0,002
580,1	-0,002
580,5	-0,002
581	-0,002
581,4	-0,002
581,9	-0,002
582,3	-0,002
582,7	-0,001
583,2	-0,001
583,6	-0,001
584,1	-0,001
584,5	-0,001
585	-0,001
585,4	-0,001
585,9	-0,002
586,3	-0,002
586,8	-0,001
587,2	-0,002
587,6	-0,002
588,1	-0,002
588,5	-0,002
589	-0,002
589,4	-0,002
589,9	-0,003
590,3	-0,002
590,8	-0,002
591,2	-0,002
591,7	-0,002
592,1	-0,001
592,5	-0,002
593	-0,001
593,4	-0,002
593,9	-0,001
594,3	-0,002
594,8	-0,002
595,2	-0,002
595,7	-0,002
596,1	-0,002
596,6	-0,002
597	-0,002
597,4	-0,002
597,9	-0,002
598,3	-0,003
598,8	-0,003
599,2	-0,003
599,7	-0,004
600,1	-0,004
600,6	-0,004
601	-0,004
601,4	-0,004
601,9	-0,003
602,3	-0,003
602,8	-0,003
603,2	-0,003
603,7	-0,003
604,1	-0,003
604,6	-0,003
605	-0,002
605,4	-0,002
605,9	-0,002
606,3	-0,002
606,8	-0,002
607,2	-0,002
607,7	-0,002
608,1	-0,002
608,6	-0,002
609	-0,002
609,4	-0,001
609,9	-0,002
610,3	-0,002
610,8	-0,002
611,2	-0,002
611,7	-0,002
612,1	-0,003
612,6	-0,003
613	-0,003
613,4	-0,003
613,9	-0,002
614,3	-0,003
614,8	-0,003
615,2	-0,002
615,7	-0,002
616,1	-0,002
616,6	-0,002
617	-0,002
617,4	-0,002
617,9	-0,002
618,3	-0,002
618,8	-0,002
619,2	-0,002
619,7	-0,002
620,1	-0,002
620,5	-0,001
621	-0,002
621,4	-0,001
621,9	-0,001
622,3	-0,001
622,8	-0,001
623,2	-0,001
623,6	-0,001
624,1	-0,001
624,5	-0,001
625	-0,001
625,4	-0,001
625,9	-0,001
626,3	-0,001
626,8	-0,001
627,2	-0,002
627,6	-0,001
628,1	-0,001
628,5	-0,002
629	-0,001
629,4	-0,001
629,9	-0,002
630,3	-0,002
630,7	-0,001
631,2	-0,001
631,6	-0,001
632,1	-0,001
632,5	-0,002
633	-0,002
633,4	-0,002
633,8	-0,003
634,3	-0,003
634,7	-0,002
635,2	-0,002
635,6	-0,003
636,1	-0,002
636,5	-0,002
636,9	-0,002
637,4	-0,003
637,8	-0,003
638,3	-0,003
638,7	-0,002
639,2	-0,002
639,6	-0,002
640	-0,002
640,5	-0,002
640,9	-0,002
641,4	-0,002
641,8	-0,002
642,2	-0,002
642,7	-0,002
643,1	-0,002
643,6	-0,002
644	-0,002
644,5	-0,002
644,9	-0,002
645,3	-0,002
645,8	-0,001
646,2	-0,001
646,7	-0,001
647,1	-0,001
647,6	-0,001
648	-0,001
648,4	-0,001
648,9	-0,001
649,3	-0,001
649,8	-0,001
650,2	-0,001
650,6	-0,001
651,1	-0,002
651,5	-0,002
652	-0,002
652,4	-0,002
652,9	-0,003
653,3	-0,003
653,7	-0,002
654,2	-0,002
654,6	-0,003
655,1	-0,003
655,5	-0,002
655,9	-0,001
656,4	-0,001
656,8	-0,001
657,3	-0
657,7	-0
658,2	0
658,6	0
659	0,001
659,5	0,001
659,9	0,001
660,4	-0
660,8	-0,001
661,2	-0,001
661,7	-0,001
662,1	-0,002
662,6	-0,002
663	-0,002
663,4	-0,002
663,9	-0,003
664,3	-0,003
664,8	-0,003
665,2	-0,003
665,6	-0,003
666,1	-0,003
666,5	-0,004
667	-0,003
667,4	-0,003
667,9	-0,003
668,3	-0,003
668,7	-0,003
669,2	-0,002
669,6	-0,002
670,1	-0,002
670,5	-0,002
670,9	-0,002
671,4	-0,002
671,8	-0,002
672,3	-0,002
672,7	-0,003
673,1	-0,003
673,6	-0,003
674	-0,003
674,5	-0,003
674,9	-0,003
675,3	-0,003
675,8	-0,003
676,2	-0,003
676,7	-0,003
677,1	-0,003
677,5	-0,003
678	-0,002
678,4	-0,002
678,9	-0,002
679,3	-0,002
679,7	-0,002
680,2	-0,002
680,6	-0,002
681,1	-0,002
681,5	-0,002
681,9	-0,002
682,4	-0,002
682,8	-0,002
683,3	-0,002
683,7	-0,002
684,1	-0,001
684,6	-0,002
685	-0,002
685,5	-0,002
685,9	-0,003
686,3	-0,003
686,8	-0,002
687,2	-0,003
687,7	-0,003
688,1	-0,003
688,5	-0,002
689	-0,002
689,4	-0,002
689,9	-0,002
690,3	-0,002
690,7	-0,002
691,2	-0,002
691,6	-0,002
692	-0,002
692,5	-0,002
692,9	-0,001
693,4	-0,001
693,8	-0,001
694,2	-0,001
694,7	-0,001
695,1	-0,001
695,6	-0,001
696	-0,001
696,4	-0,001
696,9	-0,001
697,3	-0,001
697,8	-0,001
698,2	-0,002
698,6	-0,002
699,1	-0,002
699,5	-0,002
699,9	-0,002
700,4	-0,002
700,8	-0,002
701,3	-0,002
701,7	-0,002
702,1	-0,001
702,6	-0,001
703	-0,001
703,5	-0,001
703,9	-0,001
704,3	-0,001
704,8	-0,001
705,2	-0,001
705,6	-0,002
706,1	-0,002
706,5	-0,002
707	-0,002
707,4	-0,002
707,8	-0,002
708,3	-0,002
708,7	-0,002
709,2	-0,002
709,6	-0,002
710	-0,002
710,5	-0,002
710,9	-0,002
711,3	-0,003
711,8	-0,003
712,2	-0,003
712,7	-0,003
713,1	-0,003
713,5	-0,003
714	-0,003
714,4	-0,003
714,8	-0,002
715,3	-0,002
715,7	-0,002
716,2	-0,002
716,6	-0,002
717	-0,002
717,5	-0,002
717,9	-0,002
718,3	-0,003
718,8	-0,003
719,2	-0,003
719,7	-0,004
720,1	-0,003
720,5	-0,003
721	-0,003
721,4	-0,003
721,8	-0,003
722,3	-0,002
722,7	-0,002
723,2	-0,002
723,6	-0,002
724	-0,002
724,5	-0,003
724,9	-0,002
725,3	-0,002
725,8	-0,002
726,2	-0,002
726,7	-0,002
727,1	-0,002
727,5	-0,002
728	-0,002
728,4	-0,002
728,8	-0,003
729,3	-0,003
729,7	-0,003
730,1	-0,003
730,6	-0,003
731	-0,003
731,5	-0,003
731,9	-0,002
732,3	-0,002
732,8	-0,002
733,2	-0,002
733,6	-0,002
734,1	-0,002
734,5	-0,002
734,9	-0,002
735,4	-0,002
735,8	-0,002
736,3	-0,002
736,7	-0,002
737,1	-0,002
737,6	-0,001
738	-0,002
738,4	-0,001
738,9	-0,002
739,3	-0,002
739,7	-0,002
740,2	-0,002
740,6	-0,002
741,1	-0,002
741,5	-0,002
741,9	-0,002
742,4	-0,002
742,8	-0,002
743,2	-0,002
743,7	-0,002
744,1	-0,002
744,5	-0,002
745	-0,002
745,4	-0,002
745,8	-0,002
746,3	-0,003
746,7	-0,002
747,2	-0,003
747,6	-0,002
748	-0,002
748,5	-0,002
748,9	-0,002
749,3	-0,002
749,8	-0,002
750,2	-0,002
750,6	-0,002
751,1	-0,002
751,5	-0,001
751,9	-0,001
752,4	-0,001
752,8	-0,001
753,3	-0,001
753,7	-0,001
754,1	-0,001
754,6	-0
755	-0,001
755,4	-0,001
755,9	-0,001
756,3	-0,001
756,7	-0,001
757,2	-0,001
757,6	-0,002
758	-0,002
758,5	-0,002
758,9	-0,002
759,3	-0,001
759,8	-0,001
760,2	-0,001
760,6	-0,001
761,1	-0,001
761,5	-0,001
761,9	-0
762,4	-0
762,8	-0
763,3	-0
763,7	-0
764,1	0
764,6	-0
765	-0
765,4	-0
765,9	-0
766,3	-0
766,7	-0
767,2	-0
767,6	0
768	0,001
768,5	0,001
768,9	0,001
769,3	0,001
769,8	0
770,2	0
770,6	0
771,1	-0
771,5	-0
771,9	-0,001
772,4	-0,001
772,8	-0,001
773,2	-0,001
773,7	-0,001
774,1	-0,001
774,5	-0,001
775	-0,001
775,4	-0,001
775,8	-0,001
776,3	-0,001
776,7	-0,001
777,1	-0,001
777,6	-0,001
778	-0,001
778,4	-0,001
778,9	-0,001
779,3	-0,001
779,7	-0,001
780,2	-0,001
780,6	-0,001
781	-0,001
781,5	-0,001
781,9	-0,001
782,3	-0,001
782,8	-0,001
783,2	-0,001
783,6	-0,002
784,1	-0,001
784,5	-0,001
784,9	-0,001
785,4	-0,001
785,8	-0,001
786,2	-0,002
786,7	-0,002
787,1	-0,002
787,5	-0,002
788	-0,002
788,4	-0,002
788,8	-0,002
789,3	-0,002
789,7	-0,002
790,1	-0,002
790,6	-0,002
791	-0,002
791,4	-0,002
791,9	-0,002
792,3	-0,002
792,7	-0,002
793,2	-0,002
793,6	-0,002
794	-0,002
794,5	-0,001
794,9	-0,001
795,3	-0,001
795,8	-0,001
796,2	-0,001
796,6	-0,001
797,1	-0,001
797,5	-0,001
797,9	-0,001
798,4	-0,001
798,8	-0,001
799,2	-0,001
799,7	-0,001
800,1	-0,001
800,5	-0,001
801	-0,002
801,4	-0,002
801,8	-0,002
802,2	-0,002
802,7	-0,002
803,1	-0,001
803,5	-0,001
804	-0,001
804,4	-0,001
804,8	-0,001
805,3	-0,001
805,7	-0,001
806,1	-0,002
806,6	-0,002
807	-0,002
807,4	-0,002
807,9	-0,002
808,3	-0,002
808,7	-0,002
809,2	-0,002
809,6	-0,002
810	-0,002
810,4	-0,002
810,9	-0,002
811,3	-0,002
811,7	-0,002
812,2	-0,002
812,6	-0,002
813	-0,002
813,5	-0,002
813,9	-0,002
814,3	-0,002
814,8	-0,002
815,2	-0,003
815,6	-0,003
816,1	-0,003
816,5	-0,004
816,9	-0,004
817,3	-0,004
817,8	-0,003
818,2	-0,003
818,6	-0,003
819,1	-0,003
819,5	-0,002
819,9	-0,002
820,4	-0,002
820,8	-0,002
821,2	-0,002
821,7	-0,002
822,1	-0,003
822,5	-0,003
822,9	-0,003
823,4	-0,003
823,8	-0,003
824,2	-0,004
824,7	-0,003
825,1	-0,003
825,5	-0,003
826	-0,003
826,4	-0,003
826,8	-0,002
827,3	-0,002
827,7	-0,002
828,1	-0,002
828,5	-0,001
829	-0,002
829,4	-0,002
829,8	-0,002
830,3	-0,002
830,7	-0,002
831,1	-0,002
831,6	-0,002
832	-0,002
832,4	-0,002
832,8	-0,002
833,3	-0,002
833,7	-0,002
834,1	-0,002
834,6	-0,002
835	-0,002
835,4	-0,002
835,8	-0,002
836,3	-0,002
836,7	-0,002
837,1	-0,003
837,6	-0,003
838	-0,003
838,4	-0,003
838,9	-0,003
839,3	-0,003
839,7	-0,003
840,1	-0,002
840,6	-0,002
841	-0,001
841,4	-0,001
841,9	-0,002
842,3	-0,002
842,7	-0,002
843,1	-0,001
843,6	-0,001
844	-0,001
844,4	-0,001
844,9	-0,001
845,3	-0
845,7	-0
846,2	-0
846,6	0
847	-0
847,4	0
847,9	0
848,3	-0
848,7	0
849,2	0
849,6	-0
850	-0
850,4	-0
850,9	-0,001
851,3	-0,001
851,7	-0,001
852,2	-0,001
852,6	-0,001
853	-0,001
853,4	-0,001
853,9	-0,001
854,3	-0,001
854,7	-0,001
855,2	-0,001
855,6	-0,001
856	-0,001
856,4	-0,001
856,9	-0,001
857,3	-0,001
857,7	-0,001
858,2	-0,002
858,6	-0,002
859	-0,003
859,4	-0,003
859,9	-0,003
860,3	-0,003
860,7	-0,003
861,1	-0,003
861,6	-0,003
862	-0,003
862,4	-0,003
862,9	-0,003
863,3	-0,002
863,7	-0,002
864,1	-0,002
864,6	-0,002
865	-0,002
865,4	-0,002
865,9	-0,002
866,3	-0,002
866,7	-0,002
867,1	-0,002
867,6	-0,002
868	-0,001
868,4	-0,002
868,8	-0,001
869,3	-0,002
869,7	-0,002
870,1	-0,002
870,6	-0,002
871	-0,002
871,4	-0,002
871,8	-0,002
872,3	-0,002
872,7	-0,002
873,1	-0,002
873,5	-0,003
874	-0,003
874,4	-0,003
874,8	-0,002
875,3	-0,003
875,7	-0,003
876,1	-0,003
876,5	-0,002
877	-0,003
877,4	-0,003
877,8	-0,003
878,2	-0,003
878,7	-0,003
879,1	-0,003
879,5	-0,003
879,9	-0,002
880,4	-0,002
880,8	-0,002
881,2	-0,002
881,7	-0,001
882,1	-0,001
882,5	-0,001
882,9	-0,002
883,4	-0,002
883,8	-0,002
884,2	-0,002
884,6	-0,002
885,1	-0,002
885,5	-0,002
885,9	-0,002
886,3	-0,002
886,8	-0,002
887,2	-0,002
887,6	-0,001
888	-0,002
888,5	-0,002
888,9	-0,001
889,3	-0,001
889,8	-0,001
890,2	-0,001
890,6	-0,001
891	-0,001
891,5	-0,001
891,9	-0,001
892,3	-0,001
892,7	-0,001
893,2	-0,002
893,6	-0,001
894	-0,001
894,4	-0,001
894,9	-0,001
895,3	-0,001
895,7	-0,001
896,1	-0,001
896,6	-0,001
897	-0,001
897,4	-0,001
897,8	-0,002
898,3	-0,001
898,7	-0,002
899,1	-0,002
899,5	-0,002
900	-0,002
900,4	-0,002
900,8	-0,002
901,2	-0,002
901,7	-0,002
902,1	-0,002
902,5	-0,003
902,9	-0,003
903,4	-0,003
903,8	-0,003
904,2	-0,003
904,6	-0,003
905,1	-0,003
905,5	-0,003
905,9	-0,003
906,3	-0,003
906,8	-0,003
907,2	-0,003
907,6	-0,004
908	-0,004
908,5	-0,004
908,9	-0,004
909,3	-0,004
909,7	-0,004
910,2	-0,004
910,6	-0,004
911	-0,004
911,4	-0,003
911,9	-0,003
912,3	-0,003
912,7	-0,003
913,1	-0,003
913,6	-0,003
914	-0,003
914,4	-0,003
914,8	-0,003
915,3	-0,003
915,7	-0,004
916,1	-0,004
916,5	-0,003
916,9	-0,003
917,4	-0,003
917,8	-0,002
918,2	-0,002
918,6	-0,002
919,1	-0,001
919,5	-0,001
919,9	-0,001
920,3	-0,001
920,8	-0,001
921,2	-0,001
921,6	-0,001
922	-0,001
922,5	-0,002
922,9	-0,002
923,3	-0,002
923,7	-0,002
924,2	-0,002
924,6	-0,002
925	-0,002
925,4	-0,002
925,8	-0,002
926,3	-0,002
926,7	-0,002
927,1	-0,002
927,5	-0,001
928	-0,001
928,4	-0,002
928,8	-0,002
929,2	-0,002
929,7	-0,002
930,1	-0,002
930,5	-0,002
930,9	-0,002
931,3	-0,002
931,8	-0,002
932,2	-0,002
932,6	-0,002
933	-0,002
933,5	-0,002
933,9	-0,003
934,3	-0,003
934,7	-0,002
935,2	-0,002
935,6	-0,002
936	-0,001
936,4	-0,001
936,8	-0,001
937,3	-0,001
937,7	-0,002
938,1	-0,002
938,5	-0,003
939	-0,003
939,4	-0,004
939,8	-0,004
940,2	-0,003
940,6	-0,004
941,1	-0,004
941,5	-0,003
941,9	-0,003
942,3	-0,003
942,8	-0,004
943,2	-0,004
943,6	-0,003
944	-0,002
944,4	-0,002
944,9	-0,002
945,3	-0,002
945,7	-0,001
946,1	-0,002
946,6	-0,001
947	-0,002
947,4	-0,002
947,8	-0,003
948,2	-0,004
948,7	-0,004
949,1	-0,004
949,5	-0,005
949,9	-0,004
950,3	-0,004
950,8	-0,004
951,2	-0,004
951,6	-0,003
952	-0,003
952,5	-0,003
952,9	-0,003
953,3	-0,003
953,7	-0,003
954,1	-0,003
954,6	-0,003
955	-0,003
955,4	-0,003
955,8	-0,002
956,2	-0,002
956,7	-0,002
957,1	-0,001
957,5	-0,001
957,9	-0,001
958,3	-0,001
958,8	-0,001
959,2	-0,002
959,6	-0,002
960	-0,002
960,5	-0,003
960,9	-0,003
961,3	-0,004
961,7	-0,004
962,1	-0,004
962,6	-0,004
963	-0,004
963,4	-0,004
963,8	-0,004
964,2	-0,004
964,7	-0,004
965,1	-0,004
965,5	-0,004
965,9	-0,004
966,3	-0,003
966,8	-0,002
967,2	-0,002
967,6	-0,002
968	-0,002
968,4	-0,001
968,9	-0,002
969,3	-0,002
969,7	-0,003
970,1	-0,003
970,5	-0,003
971	-0,003
971,4	-0,003
971,8	-0,003
972,2	-0,003
972,6	-0,002
973,1	-0,003
973,5	-0,003
973,9	-0,003
974,3	-0,002
974,7	-0,002
975,2	-0,001
975,6	-0,001
976	-0,001
976,4	-0,001
976,8	-0,002
977,3	-0,002
977,7	-0,003
978,1	-0,003
978,5	-0,002
978,9	-0,002
979,4	-0,002
979,8	-0,002
980,2	-0,001
980,6	-0
981	-0
981,5	0
981,9	0
982,3	-0
982,7	-0
983,1	-0
983,6	-0,001
984	-0,002
984,4	-0,002
984,8	-0,003
985,2	-0,003
985,6	-0,003
986,1	-0,003
986,5	-0,003
986,9	-0,003
987,3	-0,003
987,7	-0,002
988,2	-0,003
988,6	-0,003
989	-0,003
989,4	-0,003
989,8	-0,003
990,3	-0,003
990,7	-0,004
991,1	-0,003
991,5	-0,003
991,9	-0,002
992,3	-0,002
992,8	-0,002
993,2	-0,002
993,6	-0,003
994	-0,003
994,4	-0,003
994,9	-0,003
995,3	-0,003
995,7	-0,003
996,1	-0,004
996,5	-0,004
996,9	-0,003
997,4	-0,003
997,8	-0,003
998,2	-0,002
998,6	-0,002
999	-0,001
999,5	-0,001
999,9	-0
1000,3	0
1000,7	-0
1001,1	-0
1001,5	-0
1002	-0,001
1002,4	-0,001
1002,8	-0,002
1003,2	-0,002
1003,6	-0,002
1004	-0,003
1004,5	-0,003
1004,9	-0,003
1005,3	-0,002
1005,7	-0,003
1006,1	-0,002
1006,6	-0,002
1007	-0,001
1007,4	-0,001
1007,8	-0,001
1008,2	-0,001
1008,6	-0,001
1009,1	-0,002
1009,5	-0,002
1009,9	-0,003
1010,3	-0,003
1010,7	-0,003
1011,1	-0,004
1011,6	-0,004
1012	-0,003
1012,4	-0,004
1012,8	-0,004
1013,2	-0,004
1013,6	-0,003
1014,1	-0,003
1014,5	-0,003
1014,9	-0,003
1015,3	-0,002
1015,7	-0,002
1016,1	-0,002
1016,6	-0,002
1017	-0,002
1017,4	-0,002
1017,8	-0,002
1018,2	-0,002
1018,6	-0,002
1019,1	-0,002
1019,5	-0,002
1019,9	-0,002
1020,3	-0,001
1020,7	-0,001
1021,1	-0,001
1021,6	-0,001
1022	-0
1022,4	-0
1022,8	-0
1023,2	-0,001
1023,6	-0
1024,1	-0
1024,5	0
1024,9	0,001
1025,3	0,001
1025,7	0,002
1026,1	0,002
1026,6	0,002
1027	0,001
1027,4	0,001
1027,8	-0
1028,2	0
1028,6	-0
1029	0
1029,5	0,001
1029,9	0,002
1030,3	0,002
1030,7	0,002
1031,1	0,002
1031,5	0,002
1032	0,001
1032,4	0,001
1032,8	0
1033,2	0
1033,6	0
1034	-0
1034,4	-0
1034,9	-0
1035,3	-0,001
1035,7	-0,001
1036,1	-0,001
1036,5	-0,001
1036,9	-0,002
1037,4	-0,002
1037,8	-0,001
1038,2	-0,001
1038,6	-0,002
1039	-0,002
1039,4	-0,002
1039,8	-0,001
1040,3	-0,001
1040,7	-0,001
1041,1	-0
1041,5	-0,001
1041,9	-0,001
1042,3	-0,001
1042,7	-0,002
1043,2	-0,002
1043,6	-0,003
1044	-0,004
1044,4	-0,003
1044,8	-0,003
1045,2	-0,002
1045,6	-0,002
1046,1	-0,002
1046,5	-0,002
1046,9	-0,001
1047,3	-0,001
1047,7	-0,001
1048,1	-0,002
1048,5	-0,002
1049	-0,002
1049,4	-0,002
1049,8	-0,002
1050,2	-0,002
1050,6	-0,003
1051	-0,004
1051,4	-0,004
1051,9	-0,004
1052,3	-0,004
1052,7	-0,004
1053,1	-0,003
1053,5	-0,003
1053,9	-0,002
1054,3	-0,002
1054,8	-0,002
1055,2	-0,002
1055,6	-0,003
1056	-0,003
1056,4	-0,003
1056,8	-0,003
1057,2	-0,003
1057,6	-0,002
1058,1	-0,002
1058,5	-0,003
1058,9	-0,003
1059,3	-0,002
1059,7	-0,002
1060,1	-0,002
1060,5	-0,003
1061	-0,003
1061,4	-0,003
1061,8	-0,003
1062,2	-0,003
1062,6	-0,003
1063	-0,003
1063,4	-0,003
1063,8	-0,003
1064,3	-0,003
1064,7	-0,003
1065,1	-0,003
1065,5	-0,003
1065,9	-0,003
1066,3	-0,002
1066,7	-0,002
1067,1	-0,002
1067,6	-0,002
1068	-0,002
1068,4	-0,002
1068,8	-0,002
1069,2	-0,003
1069,6	-0,003
1070	-0,003
1070,4	-0,003
1070,9	-0,003
1071,3	-0,002
1071,7	-0,002
1072,1	-0,002
1072,5	-0,002
1072,9	-0,003
1073,3	-0,003
1073,7	-0,002
1074,2	-0,002
1074,6	-0,001
1075	-0,001
1075,4	-0,001
1075,8	0
1076,2	0,001
1076,6	0
1077	0
1077,5	-0,001
1077,9	-0,001
1078,3	-0,002
1078,7	-0,002
1079,1	-0,003
1079,5	-0,004
1079,9	-0,003
1080,3	-0,003
1080,7	-0,003
1081,2	-0,001
1081,6	-0,001
1082	-0,001
1082,4	-0,001
1082,8	-0,003
1083,2	-0,004
1083,6	-0,004
1084	-0,005
1084,5	-0,005
1084,9	-0,005
1085,3	-0,005
1085,7	-0,003
1086,1	-0,002
1086,5	-0,001
1086,9	-0,002
1087,3	-0,002
1087,7	-0
1088,2	-0,001
1088,6	-0,002
1089	-0,004
1089,4	-0,004
1089,8	-0,001
1090,2	-0,003
1090,6	-0,004
1091	-0,003
1091,4	0
1091,9	0,001
1092,3	0,001
1092,7	0,002
1093,1	-0
1093,5	0,001
1093,9	0,001
1094,3	-0,001
1094,7	0,002
1095,1	0,002
1095,5	-0
1096	0,007
1096,4	0,005
1096,8	0,007
1097,2	0,006
1097,6	0,005
1098	0,005
1098,4	0,005
1098,8	0,001
1099,2	0,003
1099,6	0
1100,1	-0,006
1100,5	-0,008
1100,9	-0,009
1101,3	-0,005
1101,7	-0
1102,1	-0,007
1102,5	-0,008
1102,9	0,008
1103,3	0
1103,7	0
1104,2	-0,005
1104,6	-0,014
1105	-0,008
1105,4	-0,001
1105,8	-0,002
1106,2	0,01
1106,6	0,012
1107	0,005
1107,4	0,024
1107,8	0,041
1108,3	-0
