Data from Absorbance_00055.txt Node
Date: Fri Aug 11 13:18:36 MSK 2023
User: vat
Spectrometer: MAYP114033
Trigger mode: 0
Integration Time (sec): 8,000000E-3
Scans to average: 10
Electric dark correction enabled: true
Nonlinearity correction enabled: false
Boxcar width: 3
XAxis mode: Wavelengths
Number of Pixels in Spectrum: 2068
>>>>>Begin Spectral Data<<<<<
199,4	-0
199,9	0,155
200,4	0,413
200,8	0,701
201,3	0,873
201,8	0,897
202,2	0,946
202,7	0,967
203,2	1,01
203,6	1,047
204,1	1,089
204,6	1,091
205	1,122
205,5	1,134
206	1,153
206,4	1,164
206,9	1,173
207,4	1,169
207,8	1,191
208,3	1,209
208,8	1,224
209,2	1,227
209,7	1,242
210,2	1,268
210,6	1,298
211,1	1,315
211,5	1,333
212	1,352
212,5	1,392
212,9	1,419
213,4	1,431
213,9	1,423
214,3	1,425
214,8	1,44
215,3	1,438
215,7	1,438
216,2	1,44
216,7	1,466
217,1	1,486
217,6	1,506
218,1	1,507
218,5	1,524
219	1,537
219,5	1,558
219,9	1,559
220,4	1,581
220,9	1,598
221,3	1,619
221,8	1,65
222,3	1,667
222,7	1,681
223,2	1,699
223,6	1,717
224,1	1,721
224,6	1,743
225	1,756
225,5	1,793
226	1,824
226,4	1,83
226,9	1,846
227,4	1,874
227,8	1,872
228,3	1,89
228,8	1,879
229,2	1,869
229,7	1,892
230,2	1,893
230,6	1,921
231,1	1,936
231,5	1,944
232	1,965
232,5	1,975
232,9	1,972
233,4	1,967
233,9	1,954
234,3	1,954
234,8	1,952
235,3	1,951
235,7	1,947
236,2	1,943
236,7	1,967
237,1	1,971
237,6	1,983
238,1	1,998
238,5	2,002
239	2,029
239,4	2,06
239,9	2,066
240,4	2,074
240,8	2,075
241,3	2,062
241,8	2,091
242,2	2,089
242,7	2,086
243,2	2,088
243,6	2,086
244,1	2,104
244,6	2,114
245	2,093
245,5	2,084
245,9	2,083
246,4	2,088
246,9	2,094
247,3	2,087
247,8	2,075
248,3	2,088
248,7	2,101
249,2	2,109
249,7	2,102
250,1	2,101
250,6	2,09
251	2,109
251,5	2,099
252	2,101
252,4	2,115
252,9	2,127
253,4	2,135
253,8	2,161
254,3	2,166
254,8	2,188
255,2	2,187
255,7	2,164
256,1	2,173
256,6	2,18
257,1	2,171
257,5	2,171
258	2,18
258,5	2,185
258,9	2,197
259,4	2,194
259,9	2,195
260,3	2,222
260,8	2,227
261,2	2,221
261,7	2,218
262,2	2,221
262,6	2,219
263,1	2,214
263,6	2,199
264	2,189
264,5	2,18
264,9	2,192
265,4	2,176
265,9	2,175
266,3	2,17
266,8	2,153
267,3	2,157
267,7	2,134
268,2	2,118
268,7	2,138
269,1	2,127
269,6	2,122
270	2,123
270,5	2,133
271	2,153
271,4	2,154
271,9	2,144
272,4	2,141
272,8	2,151
273,3	2,162
273,7	2,156
274,2	2,151
274,7	2,166
275,1	2,152
275,6	2,174
276,1	2,172
276,5	2,152
277	2,137
277,4	2,132
277,9	2,123
278,4	2,14
278,8	2,122
279,3	2,106
279,8	2,099
280,2	2,093
280,7	2,088
281,1	2,071
281,6	2,056
282,1	2,036
282,5	2,015
283	2,007
283,4	1,981
283,9	1,973
284,4	1,945
284,8	1,916
285,3	1,884
285,8	1,839
286,2	1,777
286,7	1,711
287,1	1,634
287,6	1,566
288,1	1,49
288,5	1,413
289	1,342
289,5	1,27
289,9	1,199
290,4	1,131
290,8	1,066
291,3	1,002
291,8	0,944
292,2	0,89
292,7	0,843
293,1	0,798
293,6	0,757
294,1	0,72
294,5	0,69
295	0,661
295,5	0,636
295,9	0,612
296,4	0,593
296,8	0,575
297,3	0,558
297,8	0,544
298,2	0,531
298,7	0,52
299,1	0,511
299,6	0,502
300,1	0,495
300,5	0,488
301	0,481
301,5	0,476
301,9	0,471
302,4	0,466
302,8	0,461
303,3	0,457
303,8	0,453
304,2	0,449
304,7	0,445
305,1	0,442
305,6	0,437
306,1	0,434
306,5	0,43
307	0,427
307,4	0,424
307,9	0,421
308,4	0,418
308,8	0,415
309,3	0,413
309,8	0,41
310,2	0,408
310,7	0,404
311,1	0,402
311,6	0,399
312,1	0,395
312,5	0,392
313	0,389
313,4	0,386
313,9	0,383
314,4	0,38
314,8	0,378
315,3	0,376
315,7	0,372
316,2	0,369
316,7	0,367
317,1	0,363
317,6	0,36
318	0,357
318,5	0,354
319	0,352
319,4	0,349
319,9	0,346
320,3	0,343
320,8	0,34
321,3	0,337
321,7	0,335
322,2	0,332
322,6	0,329
323,1	0,326
323,6	0,323
324	0,321
324,5	0,318
324,9	0,315
325,4	0,312
325,9	0,309
326,3	0,307
326,8	0,304
327,2	0,302
327,7	0,299
328,2	0,296
328,6	0,294
329,1	0,291
329,5	0,288
330	0,285
330,5	0,282
330,9	0,28
331,4	0,277
331,8	0,274
332,3	0,27
332,8	0,267
333,2	0,265
333,7	0,263
334,1	0,261
334,6	0,258
335,1	0,255
335,5	0,253
336	0,25
336,4	0,248
336,9	0,244
337,4	0,241
337,8	0,238
338,3	0,235
338,7	0,231
339,2	0,228
339,7	0,225
340,1	0,223
340,6	0,22
341	0,218
341,5	0,216
342	0,214
342,4	0,211
342,9	0,209
343,3	0,205
343,8	0,203
344,2	0,199
344,7	0,197
345,2	0,194
345,6	0,192
346,1	0,19
346,5	0,188
347	0,186
347,5	0,183
347,9	0,181
348,4	0,178
348,8	0,175
349,3	0,173
349,8	0,171
350,2	0,168
350,7	0,167
351,1	0,165
351,6	0,163
352	0,161
352,5	0,159
353	0,157
353,4	0,154
353,9	0,151
354,3	0,149
354,8	0,148
355,3	0,146
355,7	0,144
356,2	0,141
356,6	0,14
357,1	0,138
357,5	0,136
358	0,133
358,5	0,131
358,9	0,13
359,4	0,128
359,8	0,126
360,3	0,124
360,8	0,123
361,2	0,122
361,7	0,12
362,1	0,118
362,6	0,117
363	0,115
363,5	0,113
364	0,112
364,4	0,11
364,9	0,109
365,3	0,107
365,8	0,105
366,3	0,105
366,7	0,103
367,2	0,102
367,6	0,101
368,1	0,099
368,5	0,098
369	0,096
369,5	0,095
369,9	0,094
370,4	0,092
370,8	0,091
371,3	0,09
371,7	0,089
372,2	0,088
372,7	0,088
373,1	0,086
373,6	0,085
374	0,085
374,5	0,084
374,9	0,083
375,4	0,082
375,9	0,081
376,3	0,081
376,8	0,08
377,2	0,079
377,7	0,078
378,2	0,077
378,6	0,077
379,1	0,075
379,5	0,074
380	0,074
380,4	0,072
380,9	0,071
381,4	0,07
381,8	0,07
382,3	0,069
382,7	0,069
383,2	0,068
383,6	0,067
384,1	0,067
384,6	0,067
385	0,066
385,5	0,065
385,9	0,065
386,4	0,064
386,8	0,064
387,3	0,064
387,7	0,063
388,2	0,062
388,7	0,061
389,1	0,061
389,6	0,06
390	0,059
390,5	0,058
390,9	0,057
391,4	0,056
391,9	0,056
392,3	0,055
392,8	0,054
393,2	0,055
393,7	0,054
394,1	0,054
394,6	0,054
395,1	0,053
395,5	0,053
396	0,053
396,4	0,053
396,9	0,052
397,3	0,051
397,8	0,051
398,2	0,051
398,7	0,05
399,2	0,049
399,6	0,049
400,1	0,048
400,5	0,048
401	0,048
401,4	0,048
401,9	0,047
402,4	0,047
402,8	0,047
403,3	0,047
403,7	0,046
404,2	0,047
404,6	0,047
405,1	0,047
405,5	0,047
406	0,046
406,5	0,046
406,9	0,045
407,4	0,044
407,8	0,043
408,3	0,042
408,7	0,042
409,2	0,042
409,6	0,042
410,1	0,042
410,6	0,043
411	0,042
411,5	0,042
411,9	0,042
412,4	0,042
412,8	0,042
413,3	0,041
413,7	0,041
414,2	0,041
414,7	0,041
415,1	0,041
415,6	0,041
416	0,041
416,5	0,04
416,9	0,04
417,4	0,04
417,8	0,039
418,3	0,039
418,8	0,039
419,2	0,039
419,7	0,038
420,1	0,038
420,6	0,037
421	0,038
421,5	0,038
421,9	0,037
422,4	0,037
422,8	0,037
423,3	0,037
423,8	0,037
424,2	0,037
424,7	0,036
425,1	0,036
425,6	0,035
426	0,035
426,5	0,035
426,9	0,034
427,4	0,034
427,9	0,034
428,3	0,034
428,8	0,034
429,2	0,034
429,7	0,034
430,1	0,034
430,6	0,034
431	0,033
431,5	0,033
431,9	0,033
432,4	0,033
432,8	0,032
433,3	0,033
433,8	0,033
434,2	0,033
434,7	0,032
435,1	0,032
435,6	0,032
436	0,031
436,5	0,031
436,9	0,031
437,4	0,031
437,8	0,032
438,3	0,032
438,8	0,031
439,2	0,032
439,7	0,032
440,1	0,031
440,6	0,03
441	0,03
441,5	0,03
441,9	0,03
442,4	0,029
442,8	0,029
443,3	0,029
443,7	0,03
444,2	0,03
444,7	0,029
445,1	0,029
445,6	0,029
446	0,029
446,5	0,029
446,9	0,028
447,4	0,028
447,8	0,028
448,3	0,028
448,7	0,029
449,2	0,028
449,6	0,028
450,1	0,028
450,6	0,028
451	0,028
451,5	0,027
451,9	0,027
452,4	0,026
452,8	0,026
453,3	0,025
453,7	0,026
454,2	0,026
454,6	0,026
455,1	0,026
455,5	0,027
456	0,027
456,4	0,027
456,9	0,028
457,3	0,027
457,8	0,027
458,3	0,027
458,7	0,026
459,2	0,026
459,6	0,026
460,1	0,025
460,5	0,025
461	0,025
461,4	0,025
461,9	0,024
462,3	0,024
462,8	0,024
463,2	0,024
463,7	0,024
464,1	0,024
464,6	0,024
465	0,025
465,5	0,025
466	0,026
466,4	0,025
466,9	0,025
467,3	0,025
467,8	0,025
468,2	0,025
468,7	0,024
469,1	0,024
469,6	0,024
470	0,024
470,5	0,024
470,9	0,024
471,4	0,024
471,8	0,024
472,3	0,024
472,7	0,024
473,2	0,024
473,6	0,024
474,1	0,023
474,5	0,023
475	0,023
475,4	0,023
475,9	0,023
476,4	0,023
476,8	0,023
477,3	0,023
477,7	0,024
478,2	0,024
478,6	0,023
479,1	0,023
479,5	0,024
480	0,024
480,4	0,025
480,9	0,024
481,3	0,024
481,8	0,024
482,2	0,023
482,7	0,023
483,1	0,023
483,6	0,022
484	0,023
484,5	0,022
484,9	0,022
485,4	0,022
485,8	0,023
486,3	0,023
486,7	0,023
487,2	0,023
487,6	0,023
488,1	0,023
488,5	0,023
489	0,021
489,4	0,021
489,9	0,022
490,4	0,022
490,8	0,022
491,3	0,021
491,7	0,021
492,2	0,021
492,6	0,021
493,1	0,021
493,5	0,021
494	0,022
494,4	0,022
494,9	0,022
495,3	0,022
495,8	0,022
496,2	0,022
496,7	0,022
497,1	0,022
497,6	0,022
498	0,021
498,5	0,021
498,9	0,021
499,4	0,02
499,8	0,021
500,3	0,02
500,7	0,021
501,2	0,021
501,6	0,021
502,1	0,021
502,5	0,022
503	0,021
503,4	0,022
503,9	0,021
504,3	0,022
504,8	0,022
505,2	0,022
505,7	0,022
506,1	0,022
506,6	0,022
507	0,022
507,5	0,022
507,9	0,021
508,4	0,02
508,8	0,021
509,3	0,021
509,7	0,021
510,2	0,021
510,6	0,02
511,1	0,021
511,5	0,021
512	0,021
512,4	0,021
512,9	0,021
513,3	0,02
513,8	0,021
514,2	0,021
514,7	0,021
515,1	0,021
515,6	0,02
516	0,02
516,5	0,021
516,9	0,02
517,4	0,021
517,8	0,021
518,3	0,02
518,7	0,02
519,2	0,02
519,6	0,021
520,1	0,021
520,5	0,02
521	0,021
521,4	0,021
521,9	0,021
522,3	0,022
522,8	0,021
523,2	0,02
523,7	0,021
524,1	0,021
524,6	0,021
525	0,021
525,5	0,02
525,9	0,02
526,4	0,02
526,8	0,02
527,3	0,02
527,7	0,021
528,2	0,02
528,6	0,021
529,1	0,021
529,5	0,021
530	0,02
530,4	0,021
530,9	0,021
531,3	0,021
531,8	0,021
532,2	0,02
532,6	0,02
533,1	0,02
533,5	0,02
534	0,02
534,4	0,02
534,9	0,019
535,3	0,019
535,8	0,019
536,2	0,019
536,7	0,018
537,1	0,017
537,6	0,017
538	0,017
538,5	0,017
538,9	0,017
539,4	0,017
539,8	0,018
540,3	0,018
540,7	0,018
541,2	0,019
541,6	0,019
542,1	0,019
542,5	0,019
543	0,018
543,4	0,018
543,9	0,017
544,3	0,017
544,8	0,016
545,2	0,015
545,7	0,016
546,1	0,017
546,5	0,017
547	0,018
547,4	0,018
547,9	0,018
548,3	0,018
548,8	0,018
549,2	0,019
549,7	0,019
550,1	0,018
550,6	0,018
551	0,018
551,5	0,019
551,9	0,019
552,4	0,018
552,8	0,019
553,3	0,019
553,7	0,019
554,2	0,019
554,6	0,019
555,1	0,019
555,5	0,019
555,9	0,018
556,4	0,017
556,8	0,018
557,3	0,017
557,7	0,017
558,2	0,017
558,6	0,017
559,1	0,017
559,5	0,017
560	0,017
560,4	0,017
560,9	0,018
561,3	0,017
561,8	0,017
562,2	0,017
562,7	0,018
563,1	0,018
563,6	0,018
564	0,018
564,4	0,018
564,9	0,018
565,3	0,018
565,8	0,018
566,2	0,018
566,7	0,018
567,1	0,018
567,6	0,018
568	0,018
568,5	0,018
568,9	0,018
569,4	0,018
569,8	0,018
570,3	0,018
570,7	0,018
571,1	0,018
571,6	0,018
572	0,018
572,5	0,017
572,9	0,018
573,4	0,017
573,8	0,017
574,3	0,017
574,7	0,016
575,2	0,016
575,6	0,016
576,1	0,016
576,5	0,016
576,9	0,017
577,4	0,017
577,8	0,017
578,3	0,018
578,7	0,018
579,2	0,018
579,6	0,018
580,1	0,018
580,5	0,018
581	0,018
581,4	0,018
581,9	0,017
582,3	0,017
582,7	0,017
583,2	0,017
583,6	0,017
584,1	0,018
584,5	0,017
585	0,017
585,4	0,018
585,9	0,017
586,3	0,017
586,8	0,017
587,2	0,017
587,6	0,017
588,1	0,017
588,5	0,017
589	0,017
589,4	0,016
589,9	0,016
590,3	0,016
590,8	0,016
591,2	0,016
591,7	0,016
592,1	0,017
592,5	0,017
593	0,017
593,4	0,017
593,9	0,017
594,3	0,017
594,8	0,017
595,2	0,017
595,7	0,017
596,1	0,017
596,6	0,017
597	0,017
597,4	0,017
597,9	0,017
598,3	0,017
598,8	0,017
599,2	0,016
599,7	0,016
600,1	0,015
600,6	0,015
601	0,015
601,4	0,015
601,9	0,015
602,3	0,015
602,8	0,015
603,2	0,015
603,7	0,015
604,1	0,015
604,6	0,015
605	0,015
605,4	0,015
605,9	0,015
606,3	0,015
606,8	0,016
607,2	0,016
607,7	0,016
608,1	0,016
608,6	0,016
609	0,016
609,4	0,016
609,9	0,016
610,3	0,015
610,8	0,015
611,2	0,015
611,7	0,016
612,1	0,015
612,6	0,015
613	0,015
613,4	0,015
613,9	0,015
614,3	0,015
614,8	0,015
615,2	0,015
615,7	0,015
616,1	0,015
616,6	0,015
617	0,015
617,4	0,015
617,9	0,015
618,3	0,016
618,8	0,016
619,2	0,016
619,7	0,016
620,1	0,016
620,5	0,016
621	0,015
621,4	0,015
621,9	0,015
622,3	0,015
622,8	0,015
623,2	0,016
623,6	0,016
624,1	0,016
624,5	0,015
625	0,015
625,4	0,015
625,9	0,015
626,3	0,014
626,8	0,015
627,2	0,015
627,6	0,015
628,1	0,015
628,5	0,015
629	0,015
629,4	0,015
629,9	0,015
630,3	0,015
630,7	0,015
631,2	0,015
631,6	0,015
632,1	0,015
632,5	0,015
633	0,015
633,4	0,015
633,8	0,015
634,3	0,015
634,7	0,015
635,2	0,015
635,6	0,015
636,1	0,015
636,5	0,015
636,9	0,015
637,4	0,015
637,8	0,015
638,3	0,014
638,7	0,015
639,2	0,015
639,6	0,015
640	0,015
640,5	0,015
640,9	0,016
641,4	0,016
641,8	0,016
642,2	0,015
642,7	0,015
643,1	0,015
643,6	0,015
644	0,014
644,5	0,015
644,9	0,014
645,3	0,014
645,8	0,015
646,2	0,015
646,7	0,015
647,1	0,016
647,6	0,016
648	0,016
648,4	0,016
648,9	0,015
649,3	0,015
649,8	0,015
650,2	0,014
650,6	0,014
651,1	0,014
651,5	0,014
652	0,014
652,4	0,014
652,9	0,014
653,3	0,014
653,7	0,014
654,2	0,013
654,6	0,013
655,1	0,013
655,5	0,008
655,9	0,005
656,4	0,004
656,8	0,005
657,3	0,005
657,7	0,005
658,2	0,005
658,6	0,007
659	0,01
659,5	0,016
659,9	0,016
660,4	0,016
660,8	0,015
661,2	0,014
661,7	0,014
662,1	0,014
662,6	0,014
663	0,014
663,4	0,013
663,9	0,013
664,3	0,013
664,8	0,013
665,2	0,012
665,6	0,013
666,1	0,012
666,5	0,013
667	0,013
667,4	0,013
667,9	0,013
668,3	0,013
668,7	0,014
669,2	0,014
669,6	0,014
670,1	0,013
670,5	0,013
670,9	0,013
671,4	0,013
671,8	0,012
672,3	0,013
672,7	0,012
673,1	0,012
673,6	0,012
674	0,012
674,5	0,012
674,9	0,013
675,3	0,012
675,8	0,013
676,2	0,012
676,7	0,012
677,1	0,012
677,5	0,012
678	0,012
678,4	0,012
678,9	0,012
679,3	0,012
679,7	0,013
680,2	0,013
680,6	0,013
681,1	0,012
681,5	0,013
681,9	0,013
682,4	0,013
682,8	0,013
683,3	0,013
683,7	0,013
684,1	0,013
684,6	0,013
685	0,013
685,5	0,012
685,9	0,012
686,3	0,012
686,8	0,012
687,2	0,012
687,7	0,012
688,1	0,012
688,5	0,012
689	0,012
689,4	0,012
689,9	0,012
690,3	0,012
690,7	0,012
691,2	0,013
691,6	0,013
692	0,013
692,5	0,013
692,9	0,013
693,4	0,013
693,8	0,013
694,2	0,013
694,7	0,012
695,1	0,013
695,6	0,012
696	0,012
696,4	0,013
696,9	0,013
697,3	0,012
697,8	0,012
698,2	0,012
698,6	0,012
699,1	0,012
699,5	0,012
699,9	0,012
700,4	0,012
700,8	0,012
701,3	0,013
701,7	0,013
702,1	0,013
702,6	0,013
703	0,013
703,5	0,014
703,9	0,014
704,3	0,014
704,8	0,014
705,2	0,013
705,6	0,013
706,1	0,013
706,5	0,013
707	0,012
707,4	0,012
707,8	0,012
708,3	0,012
708,7	0,012
709,2	0,012
709,6	0,012
710	0,012
710,5	0,012
710,9	0,012
711,3	0,012
711,8	0,011
712,2	0,012
712,7	0,012
713,1	0,012
713,5	0,012
714	0,012
714,4	0,012
714,8	0,012
715,3	0,012
715,7	0,012
716,2	0,012
716,6	0,012
717	0,012
717,5	0,012
717,9	0,011
718,3	0,011
718,8	0,01
719,2	0,01
719,7	0,01
720,1	0,011
720,5	0,011
721	0,012
721,4	0,011
721,8	0,012
722,3	0,012
722,7	0,011
723,2	0,011
723,6	0,011
724	0,011
724,5	0,011
724,9	0,011
725,3	0,011
725,8	0,011
726,2	0,011
726,7	0,011
727,1	0,011
727,5	0,011
728	0,011
728,4	0,011
728,8	0,01
729,3	0,01
729,7	0,01
730,1	0,01
730,6	0,01
731	0,01
731,5	0,01
731,9	0,01
732,3	0,011
732,8	0,011
733,2	0,011
733,6	0,011
734,1	0,011
734,5	0,011
734,9	0,011
735,4	0,011
735,8	0,011
736,3	0,011
736,7	0,011
737,1	0,011
737,6	0,011
738	0,011
738,4	0,011
738,9	0,011
739,3	0,011
739,7	0,011
740,2	0,011
740,6	0,011
741,1	0,011
741,5	0,011
741,9	0,011
742,4	0,011
742,8	0,011
743,2	0,011
743,7	0,012
744,1	0,012
744,5	0,012
745	0,012
745,4	0,012
745,8	0,012
746,3	0,011
746,7	0,011
747,2	0,011
747,6	0,011
748	0,011
748,5	0,011
748,9	0,011
749,3	0,011
749,8	0,011
750,2	0,012
750,6	0,012
751,1	0,012
751,5	0,012
751,9	0,012
752,4	0,012
752,8	0,012
753,3	0,012
753,7	0,012
754,1	0,012
754,6	0,012
755	0,012
755,4	0,012
755,9	0,011
756,3	0,011
756,7	0,011
757,2	0,011
757,6	0,011
758	0,011
758,5	0,011
758,9	0,011
759,3	0,011
759,8	0,011
760,2	0,011
760,6	0,011
761,1	0,011
761,5	0,011
761,9	0,012
762,4	0,012
762,8	0,012
763,3	0,012
763,7	0,012
764,1	0,012
764,6	0,012
765	0,012
765,4	0,012
765,9	0,012
766,3	0,012
766,7	0,012
767,2	0,013
767,6	0,013
768	0,013
768,5	0,013
768,9	0,013
769,3	0,013
769,8	0,013
770,2	0,012
770,6	0,012
771,1	0,011
771,5	0,011
771,9	0,01
772,4	0,011
772,8	0,011
773,2	0,011
773,7	0,011
774,1	0,012
774,5	0,012
775	0,012
775,4	0,012
775,8	0,012
776,3	0,012
776,7	0,011
777,1	0,011
777,6	0,011
778	0,011
778,4	0,011
778,9	0,011
779,3	0,011
779,7	0,011
780,2	0,011
780,6	0,011
781	0,011
781,5	0,011
781,9	0,011
782,3	0,011
782,8	0,011
783,2	0,011
783,6	0,011
784,1	0,01
784,5	0,011
784,9	0,011
785,4	0,01
785,8	0,01
786,2	0,01
786,7	0,01
787,1	0,009
787,5	0,009
788	0,009
788,4	0,009
788,8	0,009
789,3	0,009
789,7	0,009
790,1	0,009
790,6	0,009
791	0,009
791,4	0,009
791,9	0,009
792,3	0,009
792,7	0,009
793,2	0,009
793,6	0,009
794	0,009
794,5	0,01
794,9	0,01
795,3	0,01
795,8	0,01
796,2	0,01
796,6	0,01
797,1	0,011
797,5	0,011
797,9	0,011
798,4	0,011
798,8	0,011
799,2	0,011
799,7	0,011
800,1	0,01
800,5	0,01
801	0,01
801,4	0,01
801,8	0,01
802,2	0,01
802,7	0,009
803,1	0,01
803,5	0,01
804	0,01
804,4	0,01
804,8	0,01
805,3	0,01
805,7	0,01
806,1	0,01
806,6	0,009
807	0,009
807,4	0,009
807,9	0,009
808,3	0,009
808,7	0,009
809,2	0,009
809,6	0,009
810	0,009
810,4	0,009
810,9	0,009
811,3	0,009
811,7	0,009
812,2	0,009
812,6	0,009
813	0,009
813,5	0,009
813,9	0,009
814,3	0,009
814,8	0,008
815,2	0,008
815,6	0,008
816,1	0,008
816,5	0,008
816,9	0,008
817,3	0,008
817,8	0,008
818,2	0,008
818,6	0,007
819,1	0,008
819,5	0,008
819,9	0,008
820,4	0,008
820,8	0,008
821,2	0,007
821,7	0,007
822,1	0,007
822,5	0,007
822,9	0,007
823,4	0,007
823,8	0,007
824,2	0,007
824,7	0,007
825,1	0,008
825,5	0,008
826	0,009
826,4	0,009
826,8	0,009
827,3	0,01
827,7	0,009
828,1	0,01
828,5	0,009
829	0,009
829,4	0,009
829,8	0,009
830,3	0,009
830,7	0,009
831,1	0,008
831,6	0,008
832	0,008
832,4	0,009
832,8	0,008
833,3	0,009
833,7	0,008
834,1	0,008
834,6	0,008
835	0,008
835,4	0,008
835,8	0,007
836,3	0,007
836,7	0,007
837,1	0,007
837,6	0,007
838	0,007
838,4	0,007
838,9	0,008
839,3	0,008
839,7	0,009
840,1	0,01
840,6	0,01
841	0,01
841,4	0,01
841,9	0,01
842,3	0,01
842,7	0,009
843,1	0,009
843,6	0,008
844	0,009
844,4	0,009
844,9	0,009
845,3	0,009
845,7	0,009
846,2	0,009
846,6	0,01
847	0,009
847,4	0,01
847,9	0,01
848,3	0,009
848,7	0,01
849,2	0,01
849,6	0,01
850	0,009
850,4	0,01
850,9	0,009
851,3	0,009
851,7	0,009
852,2	0,009
852,6	0,009
853	0,01
853,4	0,01
853,9	0,01
854,3	0,01
854,7	0,01
855,2	0,01
855,6	0,01
856	0,011
856,4	0,01
856,9	0,01
857,3	0,01
857,7	0,009
858,2	0,009
858,6	0,008
859	0,008
859,4	0,007
859,9	0,007
860,3	0,007
860,7	0,007
861,1	0,007
861,6	0,007
862	0,007
862,4	0,007
862,9	0,007
863,3	0,007
863,7	0,008
864,1	0,008
864,6	0,008
865	0,008
865,4	0,008
865,9	0,008
866,3	0,008
866,7	0,008
867,1	0,008
867,6	0,008
868	0,008
868,4	0,008
868,8	0,008
869,3	0,008
869,7	0,008
870,1	0,008
870,6	0,008
871	0,008
871,4	0,008
871,8	0,008
872,3	0,008
872,7	0,007
873,1	0,007
873,5	0,007
874	0,007
874,4	0,007
874,8	0,007
875,3	0,007
875,7	0,007
876,1	0,007
876,5	0,007
877	0,007
877,4	0,007
877,8	0,007
878,2	0,006
878,7	0,007
879,1	0,007
879,5	0,007
879,9	0,007
880,4	0,007
880,8	0,008
881,2	0,008
881,7	0,008
882,1	0,009
882,5	0,009
882,9	0,008
883,4	0,008
883,8	0,008
884,2	0,008
884,6	0,008
885,1	0,007
885,5	0,007
885,9	0,008
886,3	0,008
886,8	0,008
887,2	0,008
887,6	0,008
888	0,008
888,5	0,009
888,9	0,008
889,3	0,008
889,8	0,008
890,2	0,009
890,6	0,009
891	0,009
891,5	0,009
891,9	0,009
892,3	0,009
892,7	0,009
893,2	0,009
893,6	0,009
894	0,009
894,4	0,009
894,9	0,008
895,3	0,009
895,7	0,009
896,1	0,008
896,6	0,008
897	0,008
897,4	0,008
897,8	0,008
898,3	0,008
898,7	0,008
899,1	0,007
899,5	0,007
900	0,007
900,4	0,007
900,8	0,007
901,2	0,007
901,7	0,007
902,1	0,007
902,5	0,006
902,9	0,006
903,4	0,006
903,8	0,006
904,2	0,007
904,6	0,007
905,1	0,007
905,5	0,007
905,9	0,007
906,3	0,007
906,8	0,007
907,2	0,006
907,6	0,006
908	0,006
908,5	0,006
908,9	0,006
909,3	0,005
909,7	0,005
910,2	0,005
910,6	0,005
911	0,005
911,4	0,006
911,9	0,006
912,3	0,005
912,7	0,005
913,1	0,006
913,6	0,006
914	0,006
914,4	0,006
914,8	0,006
915,3	0,006
915,7	0,006
916,1	0,006
916,5	0,006
916,9	0,006
917,4	0,006
917,8	0,007
918,2	0,007
918,6	0,007
919,1	0,008
919,5	0,008
919,9	0,009
920,3	0,009
920,8	0,009
921,2	0,008
921,6	0,008
922	0,008
922,5	0,008
922,9	0,008
923,3	0,007
923,7	0,007
924,2	0,007
924,6	0,007
925	0,007
925,4	0,008
925,8	0,008
926,3	0,007
926,7	0,007
927,1	0,007
927,5	0,008
928	0,008
928,4	0,007
928,8	0,007
929,2	0,007
929,7	0,007
930,1	0,008
930,5	0,007
930,9	0,008
931,3	0,008
931,8	0,008
932,2	0,008
932,6	0,008
933	0,007
933,5	0,007
933,9	0,007
934,3	0,007
934,7	0,008
935,2	0,008
935,6	0,008
936	0,008
936,4	0,008
936,8	0,008
937,3	0,008
937,7	0,007
938,1	0,007
938,5	0,007
939	0,007
939,4	0,007
939,8	0,006
940,2	0,007
940,6	0,006
941,1	0,006
941,5	0,006
941,9	0,005
942,3	0,006
942,8	0,006
943,2	0,006
943,6	0,006
944	0,006
944,4	0,006
944,9	0,007
945,3	0,007
945,7	0,006
946,1	0,006
946,6	0,007
947	0,007
947,4	0,007
947,8	0,007
948,2	0,006
948,7	0,006
949,1	0,005
949,5	0,005
949,9	0,005
950,3	0,005
950,8	0,004
951,2	0,004
951,6	0,004
952	0,005
952,5	0,005
952,9	0,005
953,3	0,005
953,7	0,005
954,1	0,006
954,6	0,006
955	0,006
955,4	0,006
955,8	0,007
956,2	0,007
956,7	0,008
957,1	0,008
957,5	0,008
957,9	0,008
958,3	0,008
958,8	0,008
959,2	0,007
959,6	0,007
960	0,006
960,5	0,006
960,9	0,006
961,3	0,006
961,7	0,006
962,1	0,006
962,6	0,006
963	0,006
963,4	0,006
963,8	0,005
964,2	0,005
964,7	0,005
965,1	0,005
965,5	0,005
965,9	0,005
966,3	0,007
966,8	0,007
967,2	0,008
967,6	0,008
968	0,008
968,4	0,008
968,9	0,008
969,3	0,008
969,7	0,008
970,1	0,008
970,5	0,007
971	0,008
971,4	0,007
971,8	0,007
972,2	0,006
972,6	0,006
973,1	0,006
973,5	0,006
973,9	0,006
974,3	0,006
974,7	0,006
975,2	0,007
975,6	0,006
976	0,007
976,4	0,007
976,8	0,006
977,3	0,006
977,7	0,006
978,1	0,006
978,5	0,006
978,9	0,007
979,4	0,007
979,8	0,007
980,2	0,008
980,6	0,009
981	0,009
981,5	0,009
981,9	0,009
982,3	0,009
982,7	0,009
983,1	0,009
983,6	0,008
984	0,008
984,4	0,007
984,8	0,007
985,2	0,007
985,6	0,006
986,1	0,006
986,5	0,006
986,9	0,006
987,3	0,006
987,7	0,006
988,2	0,006
988,6	0,006
989	0,006
989,4	0,006
989,8	0,006
990,3	0,006
990,7	0,005
991,1	0,005
991,5	0,005
991,9	0,005
992,3	0,005
992,8	0,006
993,2	0,006
993,6	0,006
994	0,006
994,4	0,006
994,9	0,006
995,3	0,006
995,7	0,006
996,1	0,006
996,5	0,007
996,9	0,006
997,4	0,007
997,8	0,007
998,2	0,007
998,6	0,008
999	0,009
999,5	0,009
999,9	0,009
1000,3	0,008
1000,7	0,008
1001,1	0,008
1001,5	0,008
1002	0,007
1002,4	0,006
1002,8	0,006
1003,2	0,006
1003,6	0,006
1004	0,005
1004,5	0,005
1004,9	0,005
1005,3	0,005
1005,7	0,005
1006,1	0,006
1006,6	0,006
1007	0,006
1007,4	0,007
1007,8	0,007
1008,2	0,007
1008,6	0,007
1009,1	0,007
1009,5	0,006
1009,9	0,006
1010,3	0,006
1010,7	0,006
1011,1	0,005
1011,6	0,005
1012	0,005
1012,4	0,004
1012,8	0,004
1013,2	0,005
1013,6	0,005
1014,1	0,005
1014,5	0,005
1014,9	0,005
1015,3	0,006
1015,7	0,006
1016,1	0,006
1016,6	0,006
1017	0,006
1017,4	0,006
1017,8	0,006
1018,2	0,006
1018,6	0,007
1019,1	0,006
1019,5	0,006
1019,9	0,006
1020,3	0,007
1020,7	0,007
1021,1	0,006
1021,6	0,006
1022	0,007
1022,4	0,006
1022,8	0,006
1023,2	0,006
1023,6	0,006
1024,1	0,006
1024,5	0,007
1024,9	0,007
1025,3	0,008
1025,7	0,009
1026,1	0,009
1026,6	0,01
1027	0,01
1027,4	0,01
1027,8	0,01
1028,2	0,01
1028,6	0,01
1029	0,01
1029,5	0,01
1029,9	0,01
1030,3	0,01
1030,7	0,01
1031,1	0,01
1031,5	0,009
1032	0,009
1032,4	0,009
1032,8	0,008
1033,2	0,009
1033,6	0,009
1034	0,008
1034,4	0,008
1034,9	0,008
1035,3	0,008
1035,7	0,007
1036,1	0,007
1036,5	0,007
1036,9	0,006
1037,4	0,006
1037,8	0,007
1038,2	0,007
1038,6	0,006
1039	0,006
1039,4	0,006
1039,8	0,007
1040,3	0,007
1040,7	0,006
1041,1	0,006
1041,5	0,007
1041,9	0,006
1042,3	0,006
1042,7	0,005
1043,2	0,005
1043,6	0,005
1044	0,005
1044,4	0,006
1044,8	0,006
1045,2	0,007
1045,6	0,007
1046,1	0,007
1046,5	0,007
1046,9	0,008
1047,3	0,007
1047,7	0,006
1048,1	0,006
1048,5	0,006
1049	0,005
1049,4	0,006
1049,8	0,004
1050,2	0,005
1050,6	0,005
1051	0,005
1051,4	0,005
1051,9	0,005
1052,3	0,004
1052,7	0,004
1053,1	0,005
1053,5	0,006
1053,9	0,005
1054,3	0,005
1054,8	0,006
1055,2	0,006
1055,6	0,006
1056	0,005
1056,4	0,005
1056,8	0,005
1057,2	0,006
1057,6	0,005
1058,1	0,004
1058,5	0,003
1058,9	0,003
1059,3	0,003
1059,7	0,003
1060,1	0,004
1060,5	0,004
1061	0,004
1061,4	0,004
1061,8	0,005
1062,2	0,004
1062,6	0,003
1063	0,003
1063,4	0,004
1063,8	0,004
1064,3	0,004
1064,7	0,004
1065,1	0,005
1065,5	0,005
1065,9	0,005
1066,3	0,005
1066,7	0,005
1067,1	0,005
1067,6	0,005
1068	0,004
1068,4	0,005
1068,8	0,006
1069,2	0,006
1069,6	0,006
1070	0,006
1070,4	0,006
1070,9	0,007
1071,3	0,007
1071,7	0,008
1072,1	0,007
1072,5	0,006
1072,9	0,006
1073,3	0,006
1073,7	0,005
1074,2	0,005
1074,6	0,005
1075	0,005
1075,4	0,006
1075,8	0,007
1076,2	0,007
1076,6	0,007
1077	0,006
1077,5	0,005
1077,9	0,005
1078,3	0,005
1078,7	0,005
1079,1	0,005
1079,5	0,004
1079,9	0,006
1080,3	0,006
1080,7	0,006
1081,2	0,007
1081,6	0,007
1082	0,007
1082,4	0,007
1082,8	0,005
1083,2	0,004
1083,6	0,003
1084	0,002
1084,5	0,003
1084,9	0,003
1085,3	0,003
1085,7	0,005
1086,1	0,007
1086,5	0,006
1086,9	0,006
1087,3	0,007
1087,7	0,009
1088,2	0,008
1088,6	0,005
1089	0,005
1089,4	0,006
1089,8	0,004
1090,2	-0
1090,6	-0,001
1091	-0,001
1091,4	0,002
1091,9	0,002
1092,3	0
1092,7	0,004
1093,1	0,006
1093,5	0,004
1093,9	0,006
1094,3	0,007
1094,7	0,009
1095,1	0,012
1095,5	0,008
1096	0,011
1096,4	0,012
1096,8	0,011
1097,2	0,006
1097,6	0,004
1098	0,006
1098,4	0,007
1098,8	0,004
1099,2	0,003
1099,6	0,005
1100,1	0,005
1100,5	0,003
1100,9	0
1101,3	0,006
1101,7	0,009
1102,1	0,008
1102,5	0,005
1102,9	0,022
1103,3	0,019
1103,7	0,016
1104,2	0,008
1104,6	0,009
1105	0,012
1105,4	0,017
1105,8	0,003
1106,2	0,013
1106,6	0,016
1107	0,018
1107,4	0,006
1107,8	0,006
1108,3	0,405
