Data from Absorbance_00099.txt Node
Date: Fri Aug 11 14:03:19 MSK 2023
User: vat
Spectrometer: MAYP114033
Trigger mode: 0
Integration Time (sec): 8,000000E-3
Scans to average: 10
Electric dark correction enabled: true
Nonlinearity correction enabled: false
Boxcar width: 3
XAxis mode: Wavelengths
Number of Pixels in Spectrum: 2068
>>>>>Begin Spectral Data<<<<<
199,4	0,402
199,9	0,212
200,4	0,467
200,8	0,54
201,3	0,571
201,8	0,589
202,2	0,602
202,7	0,609
203,2	0,624
203,6	0,634
204,1	0,65
204,6	0,656
205	0,669
205,5	0,68
206	0,69
206,4	0,697
206,9	0,704
207,4	0,705
207,8	0,716
208,3	0,721
208,8	0,724
209,2	0,724
209,7	0,727
210,2	0,725
210,6	0,722
211,1	0,713
211,5	0,702
212	0,694
212,5	0,69
212,9	0,676
213,4	0,657
213,9	0,639
214,3	0,621
214,8	0,607
215,3	0,59
215,7	0,571
216,2	0,556
216,7	0,545
217,1	0,534
217,6	0,522
218,1	0,511
218,5	0,498
219	0,488
219,5	0,479
219,9	0,471
220,4	0,464
220,9	0,459
221,3	0,452
221,8	0,446
222,3	0,439
222,7	0,433
223,2	0,426
223,6	0,419
224,1	0,41
224,6	0,404
225	0,397
225,5	0,391
226	0,383
226,4	0,375
226,9	0,367
227,4	0,36
227,8	0,353
228,3	0,348
228,8	0,343
229,2	0,339
229,7	0,337
230,2	0,335
230,6	0,335
231,1	0,334
231,5	0,335
232	0,338
232,5	0,34
232,9	0,342
233,4	0,348
233,9	0,353
234,3	0,359
234,8	0,366
235,3	0,373
235,7	0,382
236,2	0,391
236,7	0,4
237,1	0,41
237,6	0,42
238,1	0,432
238,5	0,442
239	0,454
239,4	0,466
239,9	0,478
240,4	0,493
240,8	0,507
241,3	0,52
241,8	0,535
242,2	0,55
242,7	0,563
243,2	0,58
243,6	0,596
244,1	0,611
244,6	0,627
245	0,642
245,5	0,656
245,9	0,673
246,4	0,684
246,9	0,695
247,3	0,704
247,8	0,713
248,3	0,721
248,7	0,728
249,2	0,731
249,7	0,736
250,1	0,738
250,6	0,738
251	0,736
251,5	0,731
252	0,725
252,4	0,717
252,9	0,704
253,4	0,689
253,8	0,672
254,3	0,654
254,8	0,634
255,2	0,609
255,7	0,582
256,1	0,554
256,6	0,525
257,1	0,493
257,5	0,46
258	0,427
258,5	0,393
258,9	0,361
259,4	0,329
259,9	0,299
260,3	0,27
260,8	0,243
261,2	0,218
261,7	0,195
262,2	0,173
262,6	0,153
263,1	0,136
263,6	0,121
264	0,108
264,5	0,096
264,9	0,088
265,4	0,081
265,9	0,075
266,3	0,07
266,8	0,065
267,3	0,061
267,7	0,058
268,2	0,055
268,7	0,053
269,1	0,051
269,6	0,048
270	0,047
270,5	0,046
271	0,046
271,4	0,045
271,9	0,045
272,4	0,044
272,8	0,044
273,3	0,044
273,7	0,043
274,2	0,043
274,7	0,043
275,1	0,043
275,6	0,043
276,1	0,043
276,5	0,043
277	0,044
277,4	0,043
277,9	0,044
278,4	0,043
278,8	0,044
279,3	0,044
279,8	0,044
280,2	0,044
280,7	0,045
281,1	0,046
281,6	0,047
282,1	0,048
282,5	0,048
283	0,049
283,4	0,05
283,9	0,051
284,4	0,051
284,8	0,051
285,3	0,051
285,8	0,051
286,2	0,051
286,7	0,052
287,1	0,052
287,6	0,053
288,1	0,054
288,5	0,055
289	0,056
289,5	0,058
289,9	0,059
290,4	0,061
290,8	0,062
291,3	0,062
291,8	0,064
292,2	0,064
292,7	0,065
293,1	0,065
293,6	0,065
294,1	0,067
294,5	0,069
295	0,069
295,5	0,071
295,9	0,071
296,4	0,073
296,8	0,074
297,3	0,075
297,8	0,075
298,2	0,076
298,7	0,077
299,1	0,079
299,6	0,081
300,1	0,082
300,5	0,083
301	0,085
301,5	0,087
301,9	0,088
302,4	0,09
302,8	0,09
303,3	0,092
303,8	0,093
304,2	0,095
304,7	0,096
305,1	0,098
305,6	0,099
306,1	0,1
306,5	0,101
307	0,102
307,4	0,103
307,9	0,104
308,4	0,106
308,8	0,107
309,3	0,109
309,8	0,11
310,2	0,111
310,7	0,112
311,1	0,113
311,6	0,114
312,1	0,114
312,5	0,115
313	0,116
313,4	0,117
313,9	0,118
314,4	0,118
314,8	0,119
315,3	0,121
315,7	0,121
316,2	0,121
316,7	0,121
317,1	0,12
317,6	0,121
318	0,12
318,5	0,12
319	0,12
319,4	0,119
319,9	0,119
320,3	0,119
320,8	0,118
321,3	0,117
321,7	0,116
322,2	0,116
322,6	0,116
323,1	0,115
323,6	0,114
324	0,113
324,5	0,113
324,9	0,113
325,4	0,113
325,9	0,113
326,3	0,113
326,8	0,113
327,2	0,114
327,7	0,114
328,2	0,113
328,6	0,114
329,1	0,114
329,5	0,115
330	0,115
330,5	0,115
330,9	0,116
331,4	0,117
331,8	0,118
332,3	0,118
332,8	0,119
333,2	0,12
333,7	0,122
334,1	0,122
334,6	0,123
335,1	0,123
335,5	0,125
336	0,126
336,4	0,127
336,9	0,128
337,4	0,129
337,8	0,13
338,3	0,131
338,7	0,131
339,2	0,132
339,7	0,133
340,1	0,133
340,6	0,134
341	0,135
341,5	0,136
342	0,136
342,4	0,137
342,9	0,137
343,3	0,138
343,8	0,139
344,2	0,139
344,7	0,139
345,2	0,139
345,6	0,14
346,1	0,141
346,5	0,141
347	0,141
347,5	0,142
347,9	0,142
348,4	0,141
348,8	0,14
349,3	0,139
349,8	0,14
350,2	0,139
350,7	0,139
351,1	0,139
351,6	0,138
352	0,139
352,5	0,138
353	0,137
353,4	0,135
353,9	0,135
354,3	0,134
354,8	0,133
355,3	0,132
355,7	0,13
356,2	0,129
356,6	0,128
357,1	0,126
357,5	0,124
358	0,123
358,5	0,12
358,9	0,119
359,4	0,117
359,8	0,115
360,3	0,114
360,8	0,112
361,2	0,111
361,7	0,109
362,1	0,107
362,6	0,106
363	0,103
363,5	0,102
364	0,1
364,4	0,098
364,9	0,096
365,3	0,093
365,8	0,091
366,3	0,09
366,7	0,087
367,2	0,084
367,6	0,082
368,1	0,079
368,5	0,077
369	0,075
369,5	0,072
369,9	0,07
370,4	0,068
370,8	0,066
371,3	0,064
371,7	0,063
372,2	0,06
372,7	0,059
373,1	0,056
373,6	0,054
374	0,052
374,5	0,05
374,9	0,048
375,4	0,046
375,9	0,043
376,3	0,042
376,8	0,041
377,2	0,039
377,7	0,038
378,2	0,036
378,6	0,035
379,1	0,034
379,5	0,032
380	0,03
380,4	0,029
380,9	0,028
381,4	0,026
381,8	0,026
382,3	0,024
382,7	0,023
383,2	0,023
383,6	0,021
384,1	0,02
384,6	0,019
385	0,018
385,5	0,017
385,9	0,016
386,4	0,015
386,8	0,015
387,3	0,014
387,7	0,013
388,2	0,012
388,7	0,012
389,1	0,011
389,6	0,01
390	0,01
390,5	0,009
390,9	0,009
391,4	0,008
391,9	0,008
392,3	0,007
392,8	0,007
393,2	0,007
393,7	0,007
394,1	0,007
394,6	0,006
395,1	0,005
395,5	0,005
396	0,005
396,4	0,004
396,9	0,004
397,3	0,003
397,8	0,003
398,2	0,004
398,7	0,004
399,2	0,003
399,6	0,003
400,1	0,003
400,5	0,003
401	0,003
401,4	0,002
401,9	0,002
402,4	0,001
402,8	0,001
403,3	0,001
403,7	0,001
404,2	0,001
404,6	0,002
405,1	0,002
405,5	0,002
406	0,001
406,5	0,002
406,9	0,001
407,4	0,001
407,8	0,001
408,3	0
408,7	-0
409,2	0
409,6	-0
410,1	0
410,6	-0
411	-0
411,5	-0
411,9	0
412,4	0,001
412,8	0,001
413,3	0,001
413,7	0,002
414,2	0,001
414,7	0,002
415,1	0,001
415,6	0,001
416	0,001
416,5	0
416,9	0
417,4	0,001
417,8	0,001
418,3	0,001
418,8	0,001
419,2	0,001
419,7	0,001
420,1	0,001
420,6	0
421	0,001
421,5	0
421,9	0
422,4	0
422,8	0
423,3	0,001
423,8	0,001
424,2	0
424,7	0
425,1	-0
425,6	-0
426	-0
426,5	-0
426,9	-0,001
427,4	-0,001
427,9	-0
428,3	-0
428,8	-0
429,2	0
429,7	0
430,1	-0
430,6	-0
431	-0
431,5	0
431,9	0,001
432,4	0,001
432,8	0
433,3	0,001
433,8	0,001
434,2	0,001
434,7	-0
435,1	0
435,6	0
436	0
436,5	0
436,9	0
437,4	0
437,8	0,001
438,3	0,002
438,8	0,001
439,2	0,001
439,7	0,001
440,1	0,001
440,6	-0
441	-0,001
441,5	-0,001
441,9	-0
442,4	-0
442,8	-0
443,3	-0,001
443,7	0
444,2	0
444,7	-0
445,1	-0
445,6	-0,001
446	0
446,5	0
446,9	0
447,4	-0
447,8	0
448,3	0
448,7	0,001
449,2	0,001
449,6	0,001
450,1	0,001
450,6	0,001
451	0,001
451,5	0
451,9	-0
452,4	-0
452,8	-0,001
453,3	-0,001
453,7	-0,001
454,2	-0,001
454,6	-0
455,1	-0
455,5	-0
456	0
456,4	0,001
456,9	0
457,3	0
457,8	-0
458,3	-0,001
458,7	-0,001
459,2	-0,001
459,6	-0,001
460,1	-0,001
460,5	-0,002
461	-0,002
461,4	-0,001
461,9	-0,002
462,3	-0,001
462,8	-0,002
463,2	-0,002
463,7	-0,001
464,1	-0,001
464,6	-0,001
465	-0
465,5	-0
466	-0
466,4	-0
466,9	-0
467,3	-0
467,8	-0,001
468,2	-0,001
468,7	-0,001
469,1	-0,001
469,6	-0,001
470	-0,001
470,5	-0,001
470,9	-0
471,4	-0,001
471,8	-0,001
472,3	-0,001
472,7	-0,001
473,2	-0,001
473,6	-0
474,1	-0,001
474,5	-0
475	-0
475,4	0
475,9	0
476,4	0
476,8	-0
477,3	-0
477,7	-0
478,2	-0,001
478,6	-0,001
479,1	-0,001
479,5	-0,001
480	-0
480,4	0
480,9	0
481,3	0,001
481,8	0
482,2	0
482,7	-0
483,1	-0
483,6	-0,001
484	-0,001
484,5	-0,002
484,9	-0,002
485,4	-0,003
485,8	-0
486,3	-0
486,7	-0,001
487,2	-0,001
487,6	-0,001
488,1	-0
488,5	0,001
489	-0,002
489,4	-0,002
489,9	-0
490,4	0
490,8	0,001
491,3	0
491,7	0
492,2	0
492,6	0,001
493,1	0,001
493,5	0,001
494	0,001
494,4	0,001
494,9	0,002
495,3	0,002
495,8	0,002
496,2	0,002
496,7	0,001
497,1	0,001
497,6	0,001
498	0,001
498,5	0
498,9	-0
499,4	-0,001
499,8	-0,001
500,3	-0,001
500,7	-0,001
501,2	-0,001
501,6	-0
502,1	-0
502,5	-0
503	-0
503,4	0
503,9	-0
504,3	0
504,8	-0
505,2	-0
505,7	0
506,1	0
506,6	0
507	0,001
507,5	0
507,9	0
508,4	0
508,8	-0
509,3	-0
509,7	-0,001
510,2	-0
510,6	-0
511,1	0
511,5	-0
512	-0
512,4	0
512,9	0,001
513,3	-0
513,8	0
514,2	0
514,7	0,001
515,1	0,001
515,6	0,001
516	-0
516,5	0,001
516,9	0,001
517,4	0
517,8	-0
518,3	-0,001
518,7	-0,001
519,2	-0
519,6	-0,001
520,1	-0,001
520,5	-0,001
521	-0,001
521,4	-0,001
521,9	-0,001
522,3	0
522,8	-0
523,2	-0
523,7	-0
524,1	-0
524,6	-0,001
525	-0,001
525,5	-0,001
525,9	-0,002
526,4	-0,001
526,8	-0,001
527,3	-0,001
527,7	-0,001
528,2	-0,001
528,6	-0,001
529,1	-0
529,5	0
530	-0
530,4	0
530,9	0
531,3	0,001
531,8	0,001
532,2	0
532,6	0
533,1	0
533,5	0,001
534	0
534,4	-0
534,9	-0
535,3	-0
535,8	-0
536,2	-0,001
536,7	-0,002
537,1	-0,002
537,6	-0,002
538	-0,002
538,5	-0,002
538,9	-0,001
539,4	-0
539,8	0
540,3	0,001
540,7	0,001
541,2	0
541,6	0,001
542,1	0,001
542,5	0
543	-0
543,4	-0,001
543,9	-0,001
544,3	-0,001
544,8	-0,002
545,2	-0,002
545,7	-0,001
546,1	-0,001
546,5	-0,001
547	-0
547,4	-0
547,9	-0
548,3	-0
548,8	-0
549,2	-0
549,7	0
550,1	-0,001
550,6	-0
551	-0
551,5	0
551,9	0
552,4	0
552,8	0
553,3	0,001
553,7	0
554,2	0
554,6	0
555,1	-0
555,5	0
555,9	-0
556,4	-0
556,8	-0
557,3	-0
557,7	-0,001
558,2	-0,001
558,6	-0,001
559,1	-0,001
559,5	-0,001
560	-0,001
560,4	-0,001
560,9	-0,001
561,3	-0
561,8	0
562,2	0
562,7	0,001
563,1	0,001
563,6	0,001
564	0,001
564,4	0
564,9	-0
565,3	0
565,8	0
566,2	-0
566,7	0
567,1	-0
567,6	0
568	0
568,5	-0
568,9	-0
569,4	0
569,8	0
570,3	-0
570,7	-0
571,1	-0
571,6	-0
572	-0
572,5	-0,001
572,9	-0
573,4	-0
573,8	-0,001
574,3	-0,001
574,7	-0,002
575,2	-0,001
575,6	-0,001
576,1	-0,002
576,5	-0,001
576,9	-0,001
577,4	-0,001
577,8	-0,001
578,3	-0,001
578,7	-0,001
579,2	-0,001
579,6	-0,001
580,1	-0,001
580,5	-0,001
581	-0,001
581,4	-0,001
581,9	-0,001
582,3	-0,001
582,7	-0,001
583,2	-0,001
583,6	-0
584,1	-0
584,5	-0
585	0
585,4	0
585,9	-0
586,3	-0
586,8	0
587,2	-0
587,6	-0
588,1	-0
588,5	-0
589	-0,001
589,4	-0,001
589,9	-0,001
590,3	-0,001
590,8	-0,001
591,2	-0
591,7	-0
592,1	0,001
592,5	0,001
593	0,001
593,4	0
593,9	0
594,3	0
594,8	0,001
595,2	0
595,7	-0
596,1	-0
596,6	0
597	0
597,4	-0
597,9	-0,001
598,3	-0
598,8	-0
599,2	-0,001
599,7	-0,001
600,1	-0,002
600,6	-0,002
601	-0,002
601,4	-0,002
601,9	-0,003
602,3	-0,002
602,8	-0,002
603,2	-0,002
603,7	-0,002
604,1	-0,002
604,6	-0,002
605	-0,001
605,4	-0,001
605,9	-0,001
606,3	-0,001
606,8	-0,001
607,2	-0,001
607,7	-0
608,1	-0
608,6	-0
609	0
609,4	0
609,9	-0
610,3	-0,001
610,8	-0,001
611,2	-0,001
611,7	-0,001
612,1	-0,001
612,6	-0,001
613	-0,001
613,4	-0,001
613,9	-0,001
614,3	-0,001
614,8	-0,001
615,2	-0
615,7	-0
616,1	-0
616,6	-0
617	-0
617,4	-0
617,9	-0,001
618,3	-0
618,8	-0
619,2	-0
619,7	-0
620,1	-0
620,5	-0
621	0
621,4	-0
621,9	-0
622,3	-0
622,8	-0
623,2	0
623,6	0
624,1	0
624,5	0
625	0
625,4	0
625,9	0
626,3	0
626,8	0
627,2	-0
627,6	0
628,1	0
628,5	0
629	0,001
629,4	0,001
629,9	0
630,3	0
630,7	0
631,2	0
631,6	-0
632,1	-0
632,5	-0
633	-0
633,4	0
633,8	-0
634,3	0
634,7	0,001
635,2	0,001
635,6	0,001
636,1	0,001
636,5	0,001
636,9	0,001
637,4	0
637,8	-0
638,3	-0
638,7	-0,001
639,2	-0,001
639,6	-0
640	-0
640,5	-0,001
640,9	-0,001
641,4	-0,001
641,8	-0,001
642,2	-0,001
642,7	-0
643,1	-0
643,6	-0
644	-0
644,5	-0
644,9	-0
645,3	0
645,8	0,001
646,2	0,001
646,7	0,001
647,1	0,002
647,6	0,002
648	0,001
648,4	0,001
648,9	0
649,3	0
649,8	0
650,2	-0
650,6	-0,001
651,1	-0,001
651,5	-0,001
652	-0,001
652,4	-0,002
652,9	-0,002
653,3	-0,002
653,7	-0,002
654,2	-0,002
654,6	-0,003
655,1	-0,003
655,5	-0,002
655,9	-0,001
656,4	-0,001
656,8	0,001
657,3	0,002
657,7	0,003
658,2	0,004
658,6	0,005
659	0,007
659,5	0,011
659,9	0,01
660,4	0,007
660,8	0,005
661,2	0,003
661,7	0,002
662,1	0,001
662,6	0
663	-0
663,4	-0,001
663,9	-0,001
664,3	-0,001
664,8	-0,002
665,2	-0,001
665,6	-0,001
666,1	-0,001
666,5	-0,001
667	-0,001
667,4	-0,001
667,9	-0
668,3	-0,001
668,7	-0,001
669,2	-0,001
669,6	-0,001
670,1	-0,001
670,5	-0,001
670,9	-0,001
671,4	-0,001
671,8	-0,002
672,3	-0,002
672,7	-0,002
673,1	-0,002
673,6	-0,002
674	-0,002
674,5	-0,002
674,9	-0,002
675,3	-0,001
675,8	-0,001
676,2	-0,001
676,7	-0
677,1	-0
677,5	-0,001
678	-0,001
678,4	-0,001
678,9	-0,001
679,3	-0,001
679,7	-0,001
680,2	-0,001
680,6	-0,001
681,1	-0,001
681,5	-0
681,9	-0
682,4	-0
682,8	-0,001
683,3	-0
683,7	-0
684,1	-0
684,6	-0
685	-0,001
685,5	-0,001
685,9	-0,001
686,3	-0,001
686,8	-0
687,2	-0,001
687,7	-0,001
688,1	-0
688,5	-0
689	-0
689,4	-0,001
689,9	-0,001
690,3	-0,001
690,7	-0,001
691,2	-0,001
691,6	-0,001
692	-0,001
692,5	-0
692,9	-0
693,4	-0,001
693,8	-0,001
694,2	-0,001
694,7	-0,001
695,1	-0,001
695,6	-0,001
696	-0,001
696,4	-0,001
696,9	-0
697,3	-0
697,8	-0,001
698,2	-0,001
698,6	-0,001
699,1	-0,001
699,5	-0,002
699,9	-0,002
700,4	-0,001
700,8	-0,001
701,3	-0,001
701,7	-0,001
702,1	-0
702,6	-0
703	-0
703,5	0
703,9	-0
704,3	0
704,8	0
705,2	0
705,6	-0
706,1	-0
706,5	-0
707	-0,001
707,4	-0,001
707,8	-0,001
708,3	-0,001
708,7	-0,001
709,2	-0,001
709,6	-0,001
710	-0
710,5	-0,001
710,9	-0,001
711,3	-0,001
711,8	-0,001
712,2	-0,001
712,7	-0,001
713,1	-0,002
713,5	-0,002
714	-0,002
714,4	-0,002
714,8	-0,001
715,3	-0,001
715,7	-0,001
716,2	-0,001
716,6	-0
717	-0
717,5	-0,001
717,9	-0,001
718,3	-0,001
718,8	-0,001
719,2	-0,001
719,7	-0,001
720,1	-0,001
720,5	-0,001
721	-0
721,4	-0
721,8	-0
722,3	-0
722,7	-0
723,2	-0
723,6	-0
724	-0,001
724,5	-0,001
724,9	-0,001
725,3	-0,001
725,8	-0,001
726,2	-0,001
726,7	-0,001
727,1	-0,001
727,5	-0,001
728	-0,001
728,4	-0,001
728,8	-0,001
729,3	-0,001
729,7	-0,001
730,1	-0,001
730,6	-0,001
731	-0,001
731,5	-0,001
731,9	-0,001
732,3	-0,001
732,8	-0,001
733,2	-0,001
733,6	-0,001
734,1	-0,001
734,5	-0,001
734,9	-0,001
735,4	-0,001
735,8	-0,001
736,3	-0,001
736,7	-0,001
737,1	-0,001
737,6	-0,001
738	-0,001
738,4	-0,001
738,9	-0,001
739,3	-0,001
739,7	-0,001
740,2	-0,001
740,6	-0,002
741,1	-0,002
741,5	-0,002
741,9	-0,002
742,4	-0,001
742,8	-0,001
743,2	-0,001
743,7	-0
744,1	-0
744,5	-0
745	-0,001
745,4	-0,001
745,8	-0,001
746,3	-0,001
746,7	-0,002
747,2	-0,002
747,6	-0,002
748	-0,002
748,5	-0,002
748,9	-0,002
749,3	-0,001
749,8	-0,001
750,2	-0,001
750,6	-0,001
751,1	-0,001
751,5	-0,001
751,9	-0,001
752,4	-0,001
752,8	-0,001
753,3	-0
753,7	0
754,1	-0
754,6	0
755	0
755,4	0
755,9	0
756,3	-0
756,7	-0
757,2	0
757,6	-0
758	-0
758,5	-0
758,9	-0
759,3	-0
759,8	-0
760,2	-0
760,6	0
761,1	0
761,5	0,001
761,9	0,001
762,4	0,001
762,8	0,001
763,3	0,001
763,7	0,001
764,1	0,001
764,6	0,001
765	0
765,4	0
765,9	0
766,3	0,001
766,7	0,001
767,2	0,001
767,6	0,002
768	0,002
768,5	0,002
768,9	0,002
769,3	0,002
769,8	0,002
770,2	0,001
770,6	0,001
771,1	0,001
771,5	0
771,9	0
772,4	0
772,8	0
773,2	-0
773,7	0
774,1	0
774,5	0,001
775	0
775,4	0
775,8	0
776,3	0
776,7	0
777,1	0
777,6	-0
778	-0
778,4	-0
778,9	-0
779,3	-0
779,7	-0
780,2	-0
780,6	0,001
781	0
781,5	0,001
781,9	0,001
782,3	0,001
782,8	0,001
783,2	0,001
783,6	0,001
784,1	0,001
784,5	0,001
784,9	0,001
785,4	0,001
785,8	0,001
786,2	0
786,7	0
787,1	0
787,5	0,001
788	0,001
788,4	0,001
788,8	0,001
789,3	0,001
789,7	0
790,1	0
790,6	0
791	-0
791,4	-0
791,9	0
792,3	0
792,7	0
793,2	0
793,6	0
794	0
794,5	0
794,9	0
795,3	0
795,8	0
796,2	0,001
796,6	0,001
797,1	0,001
797,5	0,001
797,9	0,001
798,4	0,001
798,8	0,001
799,2	0,001
799,7	0,001
800,1	0,001
800,5	0
801	-0
801,4	-0
801,8	-0
802,2	-0
802,7	-0
803,1	0
803,5	0
804	0,001
804,4	0,001
804,8	0
805,3	0,001
805,7	0
806,1	0
806,6	0
807	0
807,4	-0
807,9	0
808,3	0
808,7	0
809,2	0,001
809,6	0
810	0
810,4	0
810,9	-0
811,3	-0
811,7	-0
812,2	-0
812,6	-0
813	-0
813,5	-0,001
813,9	-0,001
814,3	-0,001
814,8	-0,001
815,2	-0,001
815,6	-0,002
816,1	-0,002
816,5	-0,002
816,9	-0,002
817,3	-0,002
817,8	-0,002
818,2	-0,002
818,6	-0,002
819,1	-0,001
819,5	-0,001
819,9	-0,001
820,4	-0,001
820,8	-0,001
821,2	-0,002
821,7	-0,002
822,1	-0,002
822,5	-0,002
822,9	-0,002
823,4	-0,002
823,8	-0,002
824,2	-0,002
824,7	-0,001
825,1	-0,001
825,5	-0,001
826	-0
826,4	-0,001
826,8	-0
827,3	-0
827,7	-0
828,1	0
828,5	0
829	0
829,4	0
829,8	0
830,3	0
830,7	0
831,1	0
831,6	-0
832	-0
832,4	0
832,8	0
833,3	0
833,7	-0
834,1	-0
834,6	-0,001
835	-0,001
835,4	-0,001
835,8	-0,001
836,3	-0,001
836,7	-0,001
837,1	-0,001
837,6	-0,001
838	-0,002
838,4	-0,002
838,9	-0,002
839,3	-0,002
839,7	-0,002
840,1	-0,001
840,6	-0,001
841	-0,001
841,4	-0,001
841,9	-0,001
842,3	-0,001
842,7	-0,001
843,1	-0
843,6	-0,001
844	-0
844,4	-0,001
844,9	-0,001
845,3	-0,001
845,7	-0,001
846,2	-0,001
846,6	-0,001
847	-0,002
847,4	-0,002
847,9	-0,001
848,3	-0,002
848,7	-0,001
849,2	-0,001
849,6	-0,001
850	-0,001
850,4	-0
850,9	-0
851,3	-0
851,7	-0
852,2	0
852,6	0,001
853	0,001
853,4	0,001
853,9	0
854,3	0,001
854,7	0
855,2	0
855,6	0
856	0
856,4	0
856,9	0,001
857,3	0,001
857,7	0,001
858,2	0,001
858,6	0,001
859	0
859,4	0
859,9	-0
860,3	-0,001
860,7	-0,001
861,1	-0,001
861,6	-0,001
862	-0,001
862,4	-0,001
862,9	-0,001
863,3	-0,001
863,7	-0,001
864,1	-0,001
864,6	-0,001
865	-0,001
865,4	-0,001
865,9	-0,001
866,3	-0,001
866,7	-0
867,1	-0,001
867,6	-0
868	0
868,4	0
868,8	0,001
869,3	0
869,7	0
870,1	0
870,6	-0
871	-0,001
871,4	-0,001
871,8	-0,002
872,3	-0,002
872,7	-0,002
873,1	-0,002
873,5	-0,003
874	-0,002
874,4	-0,002
874,8	-0,002
875,3	-0,002
875,7	-0,002
876,1	-0,002
876,5	-0,001
877	-0,001
877,4	-0,001
877,8	-0,001
878,2	-0,002
878,7	-0,002
879,1	-0,002
879,5	-0,002
879,9	-0,002
880,4	-0,001
880,8	-0,001
881,2	-0,001
881,7	-0,001
882,1	-0,001
882,5	-0,001
882,9	-0,001
883,4	-0,001
883,8	-0,001
884,2	-0,001
884,6	-0,001
885,1	-0,001
885,5	-0,001
885,9	-0,001
886,3	-0,001
886,8	-0
887,2	-0,001
887,6	-0
888	-0,001
888,5	-0,001
888,9	-0,001
889,3	-0,001
889,8	-0,001
890,2	-0,001
890,6	-0,001
891	-0,001
891,5	-0
891,9	-0
892,3	-0,001
892,7	-0
893,2	-0,001
893,6	-0
894	-0,001
894,4	-0,001
894,9	-0,001
895,3	-0,001
895,7	-0,002
896,1	-0,002
896,6	-0,002
897	-0,002
897,4	-0,001
897,8	-0,001
898,3	-0,001
898,7	-0,001
899,1	-0,001
899,5	-0,001
900	-0,002
900,4	-0,001
900,8	-0,001
901,2	-0,002
901,7	-0,002
902,1	-0,001
902,5	-0,002
902,9	-0,001
903,4	-0,002
903,8	-0,002
904,2	-0,002
904,6	-0,001
905,1	-0,002
905,5	-0,001
905,9	-0,002
906,3	-0,002
906,8	-0,002
907,2	-0,002
907,6	-0,002
908	-0,003
908,5	-0,003
908,9	-0,003
909,3	-0,003
909,7	-0,003
910,2	-0,003
910,6	-0,003
911	-0,002
911,4	-0,002
911,9	-0,002
912,3	-0,002
912,7	-0,001
913,1	-0,002
913,6	-0,002
914	-0,001
914,4	-0,002
914,8	-0,002
915,3	-0,001
915,7	-0,002
916,1	-0,001
916,5	-0,001
916,9	-0,002
917,4	-0,001
917,8	-0,001
918,2	-0,001
918,6	-0,001
919,1	-0,001
919,5	-0
919,9	-0
920,3	-0
920,8	-0
921,2	-0
921,6	-0,001
922	-0,001
922,5	-0,001
922,9	-0,001
923,3	-0,001
923,7	-0,001
924,2	-0,002
924,6	-0,001
925	-0,001
925,4	-0,001
925,8	-0,001
926,3	-0,001
926,7	-0,001
927,1	-0,001
927,5	-0,001
928	-0,001
928,4	-0,001
928,8	-0,001
929,2	-0,001
929,7	-0,001
930,1	-0,001
930,5	-0,002
930,9	-0,002
931,3	-0,002
931,8	-0,002
932,2	-0,003
932,6	-0,003
933	-0,003
933,5	-0,002
933,9	-0,002
934,3	-0,002
934,7	-0,002
935,2	-0,001
935,6	-0,001
936	-0,001
936,4	-0
936,8	0
937,3	0
937,7	0
938,1	0
938,5	0
939	0,001
939,4	0
939,8	-0
940,2	-0
940,6	-0
941,1	-0,001
941,5	-0,001
941,9	-0,001
942,3	-0,001
942,8	-0,001
943,2	-0,001
943,6	-0,002
944	-0,001
944,4	-0,001
944,9	-0,001
945,3	-0
945,7	-0
946,1	-0
946,6	0
947	-0
947,4	-0,001
947,8	-0,001
948,2	-0,002
948,7	-0,002
949,1	-0,003
949,5	-0,003
949,9	-0,003
950,3	-0,003
950,8	-0,003
951,2	-0,003
951,6	-0,003
952	-0,003
952,5	-0,002
952,9	-0,002
953,3	-0,002
953,7	-0,002
954,1	-0,002
954,6	-0,002
955	-0,002
955,4	-0,002
955,8	-0,001
956,2	-0,001
956,7	-0,001
957,1	-0,001
957,5	-0,001
957,9	-0,001
958,3	-0,002
958,8	-0,002
959,2	-0,002
959,6	-0,003
960	-0,004
960,5	-0,003
960,9	-0,003
961,3	-0,004
961,7	-0,003
962,1	-0,003
962,6	-0,002
963	-0,001
963,4	-0,002
963,8	-0,002
964,2	-0,002
964,7	-0,001
965,1	-0,001
965,5	-0,001
965,9	-0,001
966,3	-0,001
966,8	-0
967,2	-0
967,6	-0,001
968	-0,001
968,4	-0,001
968,9	-0,002
969,3	-0,002
969,7	-0,003
970,1	-0,003
970,5	-0,003
971	-0,003
971,4	-0,003
971,8	-0,003
972,2	-0,003
972,6	-0,002
973,1	-0,002
973,5	-0,002
973,9	-0,002
974,3	-0,002
974,7	-0,001
975,2	-0,001
975,6	-0,001
976	-0,002
976,4	-0,002
976,8	-0,002
977,3	-0,002
977,7	-0,002
978,1	-0,002
978,5	-0,002
978,9	-0,001
979,4	-0,001
979,8	-0,001
980,2	-0,001
980,6	-0,001
981	-0,001
981,5	-0,001
981,9	-0,002
982,3	-0,002
982,7	-0,002
983,1	-0,001
983,6	-0,001
984	-0,002
984,4	-0,002
984,8	-0,002
985,2	-0,002
985,6	-0,002
986,1	-0,002
986,5	-0,002
986,9	-0,001
987,3	-0,001
987,7	-0
988,2	-0,001
988,6	-0
989	-0
989,4	-0,001
989,8	-0,002
990,3	-0,002
990,7	-0,002
991,1	-0,002
991,5	-0,002
991,9	-0,002
992,3	-0,001
992,8	-0
993,2	0
993,6	-0
994	-0
994,4	-0,001
994,9	-0,001
995,3	-0,001
995,7	-0,002
996,1	-0,002
996,5	-0,002
996,9	-0,002
997,4	-0,002
997,8	-0,002
998,2	-0,002
998,6	-0,002
999	-0,001
999,5	-0,001
999,9	-0,001
1000,3	-0,001
1000,7	-0,001
1001,1	-0,001
1001,5	-0,001
1002	-0,003
1002,4	-0,003
1002,8	-0,003
1003,2	-0,003
1003,6	-0,003
1004	-0,004
1004,5	-0,003
1004,9	-0,002
1005,3	-0,002
1005,7	-0,002
1006,1	-0,002
1006,6	-0,002
1007	-0,001
1007,4	-0,001
1007,8	-0
1008,2	-0,001
1008,6	-0,001
1009,1	-0,001
1009,5	-0,002
1009,9	-0,003
1010,3	-0,003
1010,7	-0,003
1011,1	-0,003
1011,6	-0,004
1012	-0,004
1012,4	-0,004
1012,8	-0,004
1013,2	-0,004
1013,6	-0,005
1014,1	-0,004
1014,5	-0,004
1014,9	-0,004
1015,3	-0,003
1015,7	-0,003
1016,1	-0,003
1016,6	-0,003
1017	-0,002
1017,4	-0,003
1017,8	-0,003
1018,2	-0,003
1018,6	-0,002
1019,1	-0,002
1019,5	-0,002
1019,9	-0,002
1020,3	-0,001
1020,7	-0,001
1021,1	-0,001
1021,6	-0,001
1022	-0,001
1022,4	-0,001
1022,8	-0,001
1023,2	-0,002
1023,6	-0,001
1024,1	-0,001
1024,5	-0,001
1024,9	0
1025,3	0
1025,7	0,001
1026,1	0,001
1026,6	0,002
1027	0,001
1027,4	0,001
1027,8	0
1028,2	0
1028,6	0,001
1029	0,001
1029,5	0,001
1029,9	0,001
1030,3	0,001
1030,7	0,002
1031,1	0,002
1031,5	0,001
1032	0,002
1032,4	0,002
1032,8	0,001
1033,2	0,001
1033,6	0,001
1034	0
1034,4	0
1034,9	-0
1035,3	-0,001
1035,7	-0,001
1036,1	-0,001
1036,5	-0,001
1036,9	-0,001
1037,4	-0,001
1037,8	-0,001
1038,2	-0,001
1038,6	-0,001
1039	-0,001
1039,4	-0,001
1039,8	-0,001
1040,3	-0,001
1040,7	-0,001
1041,1	-0,001
1041,5	-0,001
1041,9	-0,001
1042,3	-0,001
1042,7	-0,001
1043,2	-0,002
1043,6	-0,002
1044	-0,002
1044,4	-0,002
1044,8	-0,002
1045,2	-0,002
1045,6	-0,002
1046,1	-0,001
1046,5	-0,001
1046,9	-0
1047,3	-0,001
1047,7	-0,001
1048,1	-0
1048,5	-0
1049	-0,001
1049,4	-0,001
1049,8	-0,002
1050,2	-0,002
1050,6	-0,002
1051	-0,003
1051,4	-0,003
1051,9	-0,003
1052,3	-0,002
1052,7	-0,002
1053,1	-0,002
1053,5	-0,001
1053,9	-0,001
1054,3	-0
1054,8	-0
1055,2	-0,001
1055,6	-0,001
1056	-0,001
1056,4	-0,002
1056,8	-0,002
1057,2	-0,003
1057,6	-0,004
1058,1	-0,004
1058,5	-0,005
1058,9	-0,006
1059,3	-0,005
1059,7	-0,005
1060,1	-0,006
1060,5	-0,005
1061	-0,005
1061,4	-0,005
1061,8	-0,004
1062,2	-0,004
1062,6	-0,004
1063	-0,003
1063,4	-0,003
1063,8	-0,003
1064,3	-0,003
1064,7	-0,002
1065,1	-0,002
1065,5	-0,001
1065,9	-0,001
1066,3	0
1066,7	0,001
1067,1	0
1067,6	-0,001
1068	-0
1068,4	0
1068,8	0
1069,2	-0,001
1069,6	-0
1070	-0
1070,4	-0
1070,9	0
1071,3	0,001
1071,7	0,001
1072,1	0,001
1072,5	0
1072,9	-0
1073,3	-0
1073,7	0
1074,2	-0,002
1074,6	-0
1075	-0
1075,4	-0,001
1075,8	0,001
1076,2	0
1076,6	0,001
1077	0,001
1077,5	-0,001
1077,9	-0,002
1078,3	-0,002
1078,7	-0,003
1079,1	-0,003
1079,5	-0,004
1079,9	-0,003
1080,3	-0,002
1080,7	-0,001
1081,2	-0
1081,6	0
1082	0,001
1082,4	0
1082,8	-0,002
1083,2	-0,001
1083,6	-0,001
1084	-0,001
1084,5	-0,001
1084,9	0
1085,3	0,001
1085,7	0,003
1086,1	0,004
1086,5	0,003
1086,9	0,003
1087,3	0,004
1087,7	0,004
1088,2	0,001
1088,6	-0,001
1089	0
1089,4	0,001
1089,8	-0
1090,2	-0,003
1090,6	-0,002
1091	0
1091,4	0,002
1091,9	-0,001
1092,3	-0
1092,7	0,003
1093,1	0,003
1093,5	0,003
1093,9	0,002
1094,3	0
1094,7	0,004
1095,1	0,002
1095,5	-0,003
1096	-0,004
1096,4	-0,009
1096,8	-0,007
1097,2	-0,005
1097,6	-0,01
1098	-0,01
1098,4	-0,006
1098,8	-0,004
1099,2	0,003
1099,6	-0,001
1100,1	-0,007
1100,5	-0,003
1100,9	-0,005
1101,3	-0,009
1101,7	-0,007
1102,1	-0,016
1102,5	-0,016
1102,9	-0,011
1103,3	-0,024
1103,7	-0,017
1104,2	-0,018
1104,6	-0,021
1105	-0,023
1105,4	-0,011
1105,8	-0,008
1106,2	0,008
1106,6	0,003
1107	-0,007
1107,4	-0,001
1107,8	0,052
1108,3	0,071
