Data from Absorbance_00089.txt Node
Date: Fri Aug 11 13:51:42 MSK 2023
User: vat
Spectrometer: MAYP114033
Trigger mode: 0
Integration Time (sec): 8,000000E-3
Scans to average: 10
Electric dark correction enabled: true
Nonlinearity correction enabled: false
Boxcar width: 3
XAxis mode: Wavelengths
Number of Pixels in Spectrum: 2068
>>>>>Begin Spectral Data<<<<<
199,4	-0,598
199,9	-0
200,4	0,771
200,8	0,838
201,3	0,902
201,8	0,936
202,2	0,958
202,7	0,986
203,2	1,021
203,6	1,037
204,1	1,07
204,6	1,108
205	1,129
205,5	1,14
206	1,145
206,4	1,158
206,9	1,178
207,4	1,188
207,8	1,188
208,3	1,194
208,8	1,217
209,2	1,244
209,7	1,26
210,2	1,28
210,6	1,3
211,1	1,32
211,5	1,325
212	1,34
212,5	1,359
212,9	1,381
213,4	1,406
213,9	1,405
214,3	1,405
214,8	1,419
215,3	1,449
215,7	1,455
216,2	1,456
216,7	1,485
217,1	1,527
217,6	1,558
218,1	1,584
218,5	1,557
219	1,567
219,5	1,58
219,9	1,582
220,4	1,577
220,9	1,59
221,3	1,597
221,8	1,632
222,3	1,638
222,7	1,652
223,2	1,673
223,6	1,703
224,1	1,703
224,6	1,739
225	1,753
225,5	1,783
226	1,817
226,4	1,82
226,9	1,812
227,4	1,845
227,8	1,834
228,3	1,862
228,8	1,873
229,2	1,88
229,7	1,897
230,2	1,914
230,6	1,924
231,1	1,944
231,5	1,939
232	1,936
232,5	1,929
232,9	1,921
233,4	1,936
233,9	1,933
234,3	1,928
234,8	1,922
235,3	1,934
235,7	1,945
236,2	1,961
236,7	1,974
237,1	1,99
237,6	2,007
238,1	2,02
238,5	2,023
239	2,03
239,4	2,047
239,9	2,053
240,4	2,042
240,8	2,045
241,3	2,06
241,8	2,1
242,2	2,111
242,7	2,083
243,2	2,085
243,6	2,105
244,1	2,118
244,6	2,109
245	2,093
245,5	2,087
245,9	2,105
246,4	2,125
246,9	2,125
247,3	2,118
247,8	2,117
248,3	2,118
248,7	2,13
249,2	2,124
249,7	2,109
250,1	2,114
250,6	2,111
251	2,129
251,5	2,126
252	2,122
252,4	2,154
252,9	2,143
253,4	2,137
253,8	2,16
254,3	2,166
254,8	2,175
255,2	2,185
255,7	2,173
256,1	2,183
256,6	2,189
257,1	2,189
257,5	2,18
258	2,182
258,5	2,177
258,9	2,172
259,4	2,175
259,9	2,182
260,3	2,175
260,8	2,184
261,2	2,184
261,7	2,198
262,2	2,191
262,6	2,182
263,1	2,164
263,6	2,174
264	2,155
264,5	2,144
264,9	2,147
265,4	2,131
265,9	2,135
266,3	2,148
266,8	2,131
267,3	2,129
267,7	2,133
268,2	2,107
268,7	2,12
269,1	2,106
269,6	2,104
270	2,092
270,5	2,099
271	2,102
271,4	2,101
271,9	2,085
272,4	2,06
272,8	2,042
273,3	2,055
273,7	2,045
274,2	2,032
274,7	2,026
275,1	2,013
275,6	2,011
276,1	1,991
276,5	1,957
277	1,928
277,4	1,895
277,9	1,861
278,4	1,829
278,8	1,787
279,3	1,731
279,8	1,676
280,2	1,61
280,7	1,542
281,1	1,473
281,6	1,404
282,1	1,336
282,5	1,271
283	1,208
283,4	1,147
283,9	1,091
284,4	1,036
284,8	0,985
285,3	0,937
285,8	0,896
286,2	0,858
286,7	0,826
287,1	0,797
287,6	0,772
288,1	0,75
288,5	0,733
289	0,717
289,5	0,703
289,9	0,689
290,4	0,68
290,8	0,67
291,3	0,663
291,8	0,657
292,2	0,652
292,7	0,647
293,1	0,642
293,6	0,638
294,1	0,635
294,5	0,632
295	0,629
295,5	0,625
295,9	0,623
296,4	0,621
296,8	0,618
297,3	0,615
297,8	0,613
298,2	0,61
298,7	0,609
299,1	0,608
299,6	0,606
300,1	0,604
300,5	0,602
301	0,599
301,5	0,597
301,9	0,594
302,4	0,592
302,8	0,589
303,3	0,588
303,8	0,585
304,2	0,584
304,7	0,582
305,1	0,579
305,6	0,576
306,1	0,572
306,5	0,568
307	0,565
307,4	0,56
307,9	0,557
308,4	0,553
308,8	0,549
309,3	0,547
309,8	0,543
310,2	0,538
310,7	0,535
311,1	0,531
311,6	0,527
312,1	0,523
312,5	0,518
313	0,515
313,4	0,511
313,9	0,508
314,4	0,503
314,8	0,497
315,3	0,495
315,7	0,491
316,2	0,487
316,7	0,482
317,1	0,476
317,6	0,472
318	0,468
318,5	0,461
319	0,455
319,4	0,45
319,9	0,445
320,3	0,441
320,8	0,436
321,3	0,431
321,7	0,426
322,2	0,421
322,6	0,416
323,1	0,41
323,6	0,404
324	0,4
324,5	0,394
324,9	0,389
325,4	0,383
325,9	0,379
326,3	0,374
326,8	0,368
327,2	0,363
327,7	0,357
328,2	0,352
328,6	0,348
329,1	0,342
329,5	0,337
330	0,333
330,5	0,328
330,9	0,323
331,4	0,319
331,8	0,314
332,3	0,31
332,8	0,304
333,2	0,3
333,7	0,296
334,1	0,292
334,6	0,287
335,1	0,284
335,5	0,28
336	0,275
336,4	0,272
336,9	0,267
337,4	0,263
337,8	0,258
338,3	0,254
338,7	0,25
339,2	0,247
339,7	0,242
340,1	0,239
340,6	0,235
341	0,232
341,5	0,228
342	0,224
342,4	0,22
342,9	0,218
343,3	0,213
343,8	0,21
344,2	0,206
344,7	0,203
345,2	0,201
345,6	0,197
346,1	0,195
346,5	0,192
347	0,189
347,5	0,186
347,9	0,183
348,4	0,179
348,8	0,176
349,3	0,174
349,8	0,17
350,2	0,167
350,7	0,165
351,1	0,163
351,6	0,16
352	0,158
352,5	0,154
353	0,152
353,4	0,15
353,9	0,148
354,3	0,145
354,8	0,143
355,3	0,141
355,7	0,139
356,2	0,136
356,6	0,134
357,1	0,132
357,5	0,13
358	0,128
358,5	0,124
358,9	0,123
359,4	0,121
359,8	0,119
360,3	0,117
360,8	0,115
361,2	0,114
361,7	0,112
362,1	0,11
362,6	0,109
363	0,107
363,5	0,105
364	0,104
364,4	0,102
364,9	0,101
365,3	0,099
365,8	0,097
366,3	0,096
366,7	0,094
367,2	0,092
367,6	0,09
368,1	0,088
368,5	0,087
369	0,086
369,5	0,084
369,9	0,083
370,4	0,082
370,8	0,081
371,3	0,08
371,7	0,079
372,2	0,077
372,7	0,077
373,1	0,076
373,6	0,074
374	0,074
374,5	0,072
374,9	0,071
375,4	0,069
375,9	0,068
376,3	0,067
376,8	0,066
377,2	0,066
377,7	0,065
378,2	0,064
378,6	0,064
379,1	0,063
379,5	0,061
380	0,061
380,4	0,06
380,9	0,059
381,4	0,058
381,8	0,057
382,3	0,056
382,7	0,055
383,2	0,054
383,6	0,053
384,1	0,053
384,6	0,053
385	0,052
385,5	0,051
385,9	0,05
386,4	0,049
386,8	0,049
387,3	0,049
387,7	0,047
388,2	0,046
388,7	0,046
389,1	0,046
389,6	0,045
390	0,045
390,5	0,044
390,9	0,044
391,4	0,043
391,9	0,043
392,3	0,042
392,8	0,041
393,2	0,041
393,7	0,041
394,1	0,04
394,6	0,039
395,1	0,039
395,5	0,039
396	0,04
396,4	0,038
396,9	0,038
397,3	0,037
397,8	0,037
398,2	0,036
398,7	0,035
399,2	0,035
399,6	0,035
400,1	0,035
400,5	0,034
401	0,033
401,4	0,032
401,9	0,032
402,4	0,031
402,8	0,031
403,3	0,03
403,7	0,03
404,2	0,031
404,6	0,031
405,1	0,03
405,5	0,03
406	0,03
406,5	0,029
406,9	0,028
407,4	0,028
407,8	0,027
408,3	0,027
408,7	0,026
409,2	0,026
409,6	0,026
410,1	0,026
410,6	0,026
411	0,025
411,5	0,026
411,9	0,025
412,4	0,025
412,8	0,025
413,3	0,025
413,7	0,025
414,2	0,025
414,7	0,024
415,1	0,024
415,6	0,023
416	0,023
416,5	0,022
416,9	0,022
417,4	0,022
417,8	0,021
418,3	0,02
418,8	0,02
419,2	0,02
419,7	0,02
420,1	0,02
420,6	0,019
421	0,02
421,5	0,019
421,9	0,019
422,4	0,018
422,8	0,018
423,3	0,017
423,8	0,016
424,2	0,016
424,7	0,015
425,1	0,015
425,6	0,015
426	0,016
426,5	0,016
426,9	0,015
427,4	0,015
427,9	0,016
428,3	0,015
428,8	0,014
429,2	0,015
429,7	0,014
430,1	0,014
430,6	0,013
431	0,013
431,5	0,013
431,9	0,012
432,4	0,012
432,8	0,012
433,3	0,011
433,8	0,012
434,2	0,012
434,7	0,011
435,1	0,011
435,6	0,011
436	0,011
436,5	0,011
436,9	0,01
437,4	0,009
437,8	0,01
438,3	0,01
438,8	0,009
439,2	0,009
439,7	0,009
440,1	0,008
440,6	0,008
441	0,008
441,5	0,008
441,9	0,008
442,4	0,008
442,8	0,008
443,3	0,008
443,7	0,009
444,2	0,009
444,7	0,008
445,1	0,008
445,6	0,007
446	0,007
446,5	0,007
446,9	0,007
447,4	0,006
447,8	0,006
448,3	0,006
448,7	0,006
449,2	0,006
449,6	0,006
450,1	0,006
450,6	0,006
451	0,006
451,5	0,006
451,9	0,005
452,4	0,005
452,8	0,004
453,3	0,003
453,7	0,004
454,2	0,004
454,6	0,004
455,1	0,004
455,5	0,004
456	0,005
456,4	0,005
456,9	0,005
457,3	0,005
457,8	0,005
458,3	0,004
458,7	0,004
459,2	0,004
459,6	0,004
460,1	0,003
460,5	0,003
461	0,003
461,4	0,003
461,9	0,003
462,3	0,002
462,8	0,002
463,2	0,002
463,7	0,002
464,1	0,003
464,6	0,003
465	0,003
465,5	0,004
466	0,004
466,4	0,004
466,9	0,004
467,3	0,004
467,8	0,003
468,2	0,003
468,7	0,002
469,1	0,002
469,6	0,002
470	0,001
470,5	0,002
470,9	0,002
471,4	0,002
471,8	0,002
472,3	0,001
472,7	0,001
473,2	0,002
473,6	0,002
474,1	0,002
474,5	0,002
475	0,003
475,4	0,003
475,9	0,003
476,4	0,002
476,8	0,002
477,3	0,003
477,7	0,002
478,2	0,002
478,6	0,001
479,1	0,001
479,5	0,002
480	0,002
480,4	0,002
480,9	0,002
481,3	0,002
481,8	0,002
482,2	0,001
482,7	0,001
483,1	0,001
483,6	0,001
484	0
484,5	-0
484,9	-0
485,4	-0,001
485,8	0,002
486,3	0,001
486,7	0,001
487,2	0,001
487,6	0,001
488,1	0,002
488,5	0,002
489	0
489,4	-0
489,9	0,001
490,4	0,001
490,8	0,001
491,3	0
491,7	0
492,2	0,001
492,6	0,001
493,1	0,002
493,5	0,002
494	0,002
494,4	0,003
494,9	0,003
495,3	0,003
495,8	0,003
496,2	0,003
496,7	0,002
497,1	0,002
497,6	0,002
498	0,001
498,5	0,001
498,9	0,001
499,4	0,001
499,8	0
500,3	-0
500,7	0
501,2	0
501,6	0
502,1	-0
502,5	0
503	0
503,4	0,001
503,9	0,001
504,3	0,001
504,8	0,001
505,2	0,002
505,7	0,001
506,1	0,001
506,6	0,001
507	0,001
507,5	0
507,9	-0
508,4	-0
508,8	-0,001
509,3	-0,001
509,7	-0,001
510,2	-0,001
510,6	-0
511,1	0
511,5	0
512	0
512,4	0
512,9	0
513,3	-0
513,8	0
514,2	0
514,7	0
515,1	0,001
515,6	0,001
516	0,001
516,5	0,001
516,9	0,001
517,4	0,001
517,8	0
518,3	0
518,7	-0,001
519,2	-0,001
519,6	-0,001
520,1	-0,001
520,5	-0,001
521	-0
521,4	-0
521,9	0
522,3	0,001
522,8	0,001
523,2	0,001
523,7	0,002
524,1	0,001
524,6	0,001
525	0,001
525,5	0
525,9	0
526,4	0,001
526,8	0,001
527,3	0,001
527,7	0,002
528,2	0,002
528,6	0,002
529,1	0,002
529,5	0,002
530	0,002
530,4	0,002
530,9	0,002
531,3	0,002
531,8	0,001
532,2	0,001
532,6	0
533,1	0,001
533,5	0
534	0
534,4	0
534,9	-0
535,3	-0
535,8	-0
536,2	-0,001
536,7	-0,001
537,1	-0,002
537,6	-0,002
538	-0,001
538,5	-0,001
538,9	-0,001
539,4	-0,001
539,8	-0
540,3	0
540,7	0,001
541,2	0,001
541,6	0,001
542,1	0,001
542,5	0
543	-0,001
543,4	-0,001
543,9	-0,001
544,3	-0,001
544,8	-0,002
545,2	-0,002
545,7	-0,001
546,1	-0,001
546,5	-0,001
547	-0
547,4	-0
547,9	-0
548,3	-0
548,8	-0,001
549,2	-0,001
549,7	-0,001
550,1	-0,001
550,6	-0,001
551	0
551,5	0
551,9	0,001
552,4	0
552,8	0,001
553,3	0,001
553,7	0,001
554,2	-0
554,6	-0
555,1	-0,001
555,5	-0
555,9	-0,001
556,4	-0,001
556,8	-0,001
557,3	-0,001
557,7	-0,001
558,2	-0,001
558,6	-0,001
559,1	-0,001
559,5	-0,001
560	-0,001
560,4	-0,001
560,9	-0,001
561,3	-0,001
561,8	-0
562,2	-0
562,7	-0
563,1	0
563,6	0
564	0,001
564,4	0,001
564,9	0
565,3	0,001
565,8	0,001
566,2	0
566,7	0,001
567,1	0
567,6	0,001
568	0,001
568,5	-0
568,9	-0,001
569,4	0
569,8	-0
570,3	-0
570,7	-0
571,1	0
571,6	0
572	0
572,5	-0
572,9	-0
573,4	-0
573,8	-0,001
574,3	-0,001
574,7	-0,001
575,2	-0,001
575,6	-0
576,1	-0,001
576,5	-0,001
576,9	-0
577,4	0
577,8	-0
578,3	0
578,7	-0
579,2	-0
579,6	0
580,1	0
580,5	-0
581	0
581,4	0
581,9	0
582,3	-0
582,7	-0
583,2	-0
583,6	-0
584,1	-0
584,5	-0
585	0
585,4	0
585,9	-0
586,3	-0
586,8	0
587,2	-0
587,6	-0
588,1	-0
588,5	-0
589	0
589,4	0
589,9	0
590,3	0
590,8	0
591,2	0
591,7	0,001
592,1	0,001
592,5	0,001
593	0
593,4	0
593,9	0
594,3	0
594,8	0,001
595,2	-0
595,7	-0
596,1	-0
596,6	-0
597	-0
597,4	-0
597,9	-0,001
598,3	-0,001
598,8	-0,001
599,2	-0,001
599,7	-0,001
600,1	-0,001
600,6	-0,001
601	-0,001
601,4	-0,002
601,9	-0,002
602,3	-0,001
602,8	-0,001
603,2	-0,001
603,7	-0,002
604,1	-0,001
604,6	-0,001
605	-0,001
605,4	-0,001
605,9	-0,001
606,3	-0,001
606,8	-0
607,2	-0
607,7	-0
608,1	-0
608,6	-0
609	0
609,4	0
609,9	0
610,3	-0
610,8	0
611,2	-0
611,7	0
612,1	-0,001
612,6	-0,001
613	-0
613,4	-0
613,9	-0
614,3	-0
614,8	-0
615,2	0
615,7	0
616,1	0
616,6	-0
617	-0
617,4	-0
617,9	-0
618,3	0
618,8	0
619,2	0
619,7	0
620,1	0
620,5	0,001
621	0,001
621,4	0
621,9	0
622,3	0
622,8	0
623,2	0
623,6	0
624,1	-0
624,5	-0
625	0
625,4	0
625,9	0
626,3	-0
626,8	0
627,2	0,001
627,6	0,001
628,1	0,001
628,5	0,001
629	0,001
629,4	0,001
629,9	0,001
630,3	0,001
630,7	0,001
631,2	0,001
631,6	0,001
632,1	0,001
632,5	0,001
633	0,001
633,4	0,001
633,8	0,001
634,3	0
634,7	0
635,2	0
635,6	0
636,1	0,001
636,5	0
636,9	-0
637,4	-0
637,8	-0
638,3	-0,001
638,7	-0
639,2	-0
639,6	-0
640	-0
640,5	-0
640,9	0
641,4	-0
641,8	-0
642,2	-0
642,7	-0
643,1	-0
643,6	-0
644	-0,001
644,5	-0
644,9	-0,001
645,3	-0
645,8	-0
646,2	-0
646,7	0,001
647,1	0,001
647,6	0,001
648	0,001
648,4	0,001
648,9	0,001
649,3	0,001
649,8	0,001
650,2	0
650,6	-0,001
651,1	-0,001
651,5	-0,001
652	-0,001
652,4	-0,001
652,9	-0,002
653,3	-0,002
653,7	-0,001
654,2	-0,001
654,6	-0,002
655,1	-0,002
655,5	-0,001
655,9	-0,001
656,4	-0
656,8	0,001
657,3	0,001
657,7	0,002
658,2	0,003
658,6	0,004
659	0,006
659,5	0,009
659,9	0,009
660,4	0,007
660,8	0,005
661,2	0,003
661,7	0,002
662,1	0,001
662,6	0,001
663	-0
663,4	-0
663,9	-0,001
664,3	-0,001
664,8	-0,001
665,2	-0,001
665,6	-0,001
666,1	-0,001
666,5	-0,001
667	-0
667,4	-0
667,9	-0
668,3	-0
668,7	-0
669,2	-0
669,6	-0
670,1	-0
670,5	-0
670,9	-0
671,4	-0
671,8	-0,001
672,3	-0,001
672,7	-0,001
673,1	-0,001
673,6	-0,001
674	-0,001
674,5	-0,001
674,9	-0,001
675,3	-0,001
675,8	-0,001
676,2	-0,001
676,7	-0
677,1	-0,001
677,5	-0,001
678	-0,001
678,4	-0
678,9	-0,001
679,3	-0
679,7	-0
680,2	-0
680,6	-0
681,1	-0
681,5	-0
681,9	0
682,4	0
682,8	0
683,3	-0
683,7	-0
684,1	0
684,6	-0
685	-0,001
685,5	-0,001
685,9	-0,001
686,3	-0,001
686,8	-0,001
687,2	-0,001
687,7	-0,001
688,1	-0
688,5	-0
689	0
689,4	0
689,9	0
690,3	0
690,7	0
691,2	0
691,6	0
692	0
692,5	-0
692,9	-0
693,4	-0
693,8	-0
694,2	-0
694,7	-0
695,1	0
695,6	0
696	0
696,4	0
696,9	0
697,3	-0
697,8	-0
698,2	-0
698,6	-0
699,1	-0
699,5	-0,001
699,9	-0,001
700,4	-0,001
700,8	-0
701,3	-0
701,7	-0,001
702,1	-0
702,6	0
703	0
703,5	0,001
703,9	0,001
704,3	0,001
704,8	0,001
705,2	0,001
705,6	0,001
706,1	0
706,5	-0
707	-0,001
707,4	-0,001
707,8	-0,001
708,3	-0,001
708,7	-0,001
709,2	-0,001
709,6	-0,001
710	-0
710,5	-0
710,9	-0
711,3	-0
711,8	-0
712,2	-0
712,7	-0
713,1	-0
713,5	-0,001
714	-0,001
714,4	-0,001
714,8	-0,001
715,3	-0,001
715,7	-0,002
716,2	-0,001
716,6	-0,001
717	-0,001
717,5	-0,001
717,9	-0,001
718,3	-0,001
718,8	-0,001
719,2	-0,001
719,7	-0,001
720,1	-0,001
720,5	-0
721	0
721,4	0
721,8	0
722,3	0
722,7	0
723,2	0
723,6	-0
724	-0
724,5	-0,001
724,9	-0
725,3	-0,001
725,8	-0,001
726,2	-0,001
726,7	-0,001
727,1	-0,001
727,5	-0,001
728	-0,001
728,4	-0,001
728,8	-0,001
729,3	-0,001
729,7	-0,001
730,1	-0,001
730,6	-0,001
731	-0,001
731,5	-0,001
731,9	-0,001
732,3	-0,001
732,8	-0,001
733,2	-0,001
733,6	-0,001
734,1	-0,001
734,5	-0,001
734,9	-0
735,4	-0
735,8	-0
736,3	-0,001
736,7	-0
737,1	-0
737,6	-0
738	-0
738,4	-0
738,9	-0
739,3	-0,001
739,7	-0,001
740,2	-0,001
740,6	-0,001
741,1	-0,002
741,5	-0,002
741,9	-0,002
742,4	-0,001
742,8	-0,001
743,2	-0,001
743,7	-0,001
744,1	-0
744,5	-0
745	0
745,4	-0
745,8	-0
746,3	-0
746,7	-0
747,2	-0,001
747,6	-0,001
748	-0,001
748,5	-0,001
748,9	-0,001
749,3	-0,001
749,8	-0,001
750,2	-0
750,6	-0,001
751,1	-0
751,5	-0
751,9	-0
752,4	-0
752,8	0
753,3	0
753,7	0
754,1	-0
754,6	-0
755	-0
755,4	-0
755,9	-0,001
756,3	-0,001
756,7	-0
757,2	-0
757,6	-0
758	-0
758,5	-0
758,9	-0
759,3	0
759,8	0
760,2	0
760,6	0,001
761,1	0,001
761,5	0,001
761,9	0,001
762,4	0,001
762,8	0,001
763,3	0,001
763,7	0,001
764,1	0,001
764,6	0,001
765	0,001
765,4	0,001
765,9	0,001
766,3	0,001
766,7	0,001
767,2	0,002
767,6	0,002
768	0,002
768,5	0,002
768,9	0,002
769,3	0,002
769,8	0,002
770,2	0,002
770,6	0,002
771,1	0,001
771,5	0,001
771,9	0,001
772,4	0,001
772,8	0,001
773,2	0
773,7	0,001
774,1	0,001
774,5	0,001
775	0,001
775,4	0
775,8	0
776,3	0
776,7	0
777,1	-0
777,6	-0
778	0
778,4	0
778,9	0
779,3	0
779,7	0,001
780,2	0,001
780,6	0,001
781	0,001
781,5	0,001
781,9	0,001
782,3	0,001
782,8	0,001
783,2	0,001
783,6	0,001
784,1	0,001
784,5	0,001
784,9	0,001
785,4	0,001
785,8	0,001
786,2	0,001
786,7	0,001
787,1	0,001
787,5	0,001
788	0,001
788,4	0,001
788,8	0,001
789,3	0,001
789,7	0,001
790,1	0,001
790,6	0,001
791	0
791,4	0
791,9	0,001
792,3	0,001
792,7	0,001
793,2	0,001
793,6	0
794	0,001
794,5	0
794,9	0
795,3	0
795,8	0,001
796,2	0,001
796,6	0,001
797,1	0,001
797,5	0,001
797,9	0,002
798,4	0,002
798,8	0,001
799,2	0,001
799,7	0,001
800,1	0,001
800,5	0,001
801	0
801,4	0
801,8	0
802,2	0,001
802,7	0,001
803,1	0,001
803,5	0,001
804	0,002
804,4	0,002
804,8	0,002
805,3	0,001
805,7	0,001
806,1	0,001
806,6	0
807	0
807,4	-0
807,9	-0
808,3	-0
808,7	0
809,2	0
809,6	0
810	0
810,4	0
810,9	-0
811,3	-0
811,7	-0,001
812,2	-0
812,6	-0
813	-0
813,5	-0,001
813,9	-0
814,3	-0
814,8	-0
815,2	-0,001
815,6	-0,001
816,1	-0,001
816,5	-0,001
816,9	-0,001
817,3	-0,001
817,8	-0,001
818,2	-0,002
818,6	-0,002
819,1	-0,001
819,5	-0,001
819,9	-0,001
820,4	-0,001
820,8	-0,001
821,2	-0,001
821,7	-0,001
822,1	-0,001
822,5	-0,001
822,9	-0,001
823,4	-0,001
823,8	-0,001
824,2	-0,001
824,7	-0,001
825,1	-0,001
825,5	-0,001
826	-0
826,4	-0
826,8	0
827,3	0
827,7	0
828,1	0,001
828,5	0,001
829	0,001
829,4	0,001
829,8	0,001
830,3	0,001
830,7	0,002
831,1	0,001
831,6	0,001
832	0,001
832,4	0,001
832,8	0,001
833,3	0
833,7	-0
834,1	-0
834,6	-0
835	-0
835,4	-0
835,8	-0,001
836,3	-0,001
836,7	-0,001
837,1	-0,001
837,6	-0,001
838	-0,001
838,4	-0,001
838,9	-0,001
839,3	-0,001
839,7	-0
840,1	-0
840,6	0
841	0,001
841,4	0,001
841,9	0,001
842,3	0,001
842,7	0
843,1	0
843,6	-0
844	-0
844,4	-0,001
844,9	-0,001
845,3	-0,001
845,7	-0,001
846,2	-0,001
846,6	-0,001
847	-0,001
847,4	-0,001
847,9	-0,001
848,3	-0,001
848,7	-0
849,2	-0
849,6	-0
850	-0
850,4	-0
850,9	-0
851,3	-0
851,7	-0
852,2	-0
852,6	0
853	0,001
853,4	0,001
853,9	0,001
854,3	0,001
854,7	0,002
855,2	0,001
855,6	0,001
856	0,001
856,4	0,001
856,9	0,001
857,3	0,001
857,7	0,001
858,2	0,001
858,6	0,001
859	0,001
859,4	0,001
859,9	0,001
860,3	0
860,7	0
861,1	0
861,6	-0
862	-0
862,4	0
862,9	0
863,3	0
863,7	0
864,1	0
864,6	-0
865	0
865,4	0
865,9	-0
866,3	0
866,7	-0
867,1	0
867,6	0
868	0
868,4	-0
868,8	0
869,3	-0
869,7	0
870,1	-0
870,6	-0
871	-0
871,4	-0,001
871,8	-0,001
872,3	-0,002
872,7	-0,002
873,1	-0,002
873,5	-0,003
874	-0,003
874,4	-0,003
874,8	-0,002
875,3	-0,002
875,7	-0,002
876,1	-0,002
876,5	-0,002
877	-0,002
877,4	-0,002
877,8	-0,002
878,2	-0,002
878,7	-0,002
879,1	-0,002
879,5	-0,001
879,9	-0,001
880,4	-0,001
880,8	-0,001
881,2	-0
881,7	-0
882,1	0
882,5	0
882,9	-0
883,4	-0
883,8	0
884,2	-0
884,6	-0
885,1	-0,001
885,5	-0,001
885,9	-0,001
886,3	-0
886,8	0
887,2	-0
887,6	0
888	-0
888,5	-0
888,9	-0
889,3	-0,001
889,8	-0,001
890,2	-0,001
890,6	-0,001
891	-0,001
891,5	-0
891,9	-0
892,3	0
892,7	0
893,2	-0
893,6	-0
894	-0,001
894,4	-0,001
894,9	-0,001
895,3	-0,001
895,7	-0,001
896,1	-0,001
896,6	-0,001
897	-0
897,4	-0,001
897,8	-0,001
898,3	-0,001
898,7	-0,001
899,1	-0,001
899,5	-0,001
900	-0,001
900,4	-0,001
900,8	-0,001
901,2	-0,001
901,7	-0,001
902,1	-0
902,5	-0
902,9	-0
903,4	-0,001
903,8	-0,001
904,2	-0,001
904,6	-0,001
905,1	-0,001
905,5	-0,002
905,9	-0,002
906,3	-0,002
906,8	-0,002
907,2	-0,002
907,6	-0,003
908	-0,003
908,5	-0,003
908,9	-0,003
909,3	-0,003
909,7	-0,003
910,2	-0,003
910,6	-0,003
911	-0,002
911,4	-0,002
911,9	-0,002
912,3	-0,001
912,7	-0,001
913,1	-0,001
913,6	-0,001
914	-0,001
914,4	-0,001
914,8	-0,001
915,3	-0,001
915,7	-0,001
916,1	-0,001
916,5	-0,001
916,9	-0,001
917,4	-0,001
917,8	-0,001
918,2	-0,001
918,6	-0,001
919,1	-0
919,5	0
919,9	0,001
920,3	0,001
920,8	0,001
921,2	0,001
921,6	0,001
922	0
922,5	-0
922,9	-0
923,3	-0,001
923,7	-0,001
924,2	-0,001
924,6	-0,001
925	-0,001
925,4	-0,001
925,8	-0,001
926,3	-0,001
926,7	-0,001
927,1	-0
927,5	-0
928	0
928,4	-0
928,8	-0,001
929,2	-0
929,7	-0
930,1	-0
930,5	-0,001
930,9	-0,001
931,3	-0,001
931,8	-0,001
932,2	-0,001
932,6	-0,001
933	-0,002
933,5	-0,001
933,9	-0,001
934,3	-0,001
934,7	-0,001
935,2	-0,001
935,6	-0,001
936	-0,001
936,4	-0,001
936,8	-0
937,3	-0
937,7	-0
938,1	-0,001
938,5	-0,001
939	-0
939,4	-0
939,8	-0
940,2	0
940,6	0,001
941,1	0
941,5	0
941,9	0
942,3	-0
942,8	-0
943,2	-0
943,6	-0,001
944	-0
944,4	0
944,9	0
945,3	0,001
945,7	0
946,1	0
946,6	-0
947	-0
947,4	-0,001
947,8	-0,001
948,2	-0,001
948,7	-0,001
949,1	-0,001
949,5	-0,001
949,9	-0,001
950,3	-0,001
950,8	-0,002
951,2	-0,002
951,6	-0,002
952	-0,002
952,5	-0,002
952,9	-0,002
953,3	-0,001
953,7	-0,001
954,1	-0,001
954,6	-0,001
955	-0,001
955,4	-0,001
955,8	0
956,2	-0,001
956,7	-0,001
957,1	-0
957,5	-0,001
957,9	-0
958,3	-0,001
958,8	-0,001
959,2	-0,001
959,6	-0,001
960	-0,001
960,5	-0,001
960,9	-0,002
961,3	-0,002
961,7	-0,002
962,1	-0,002
962,6	-0,002
963	-0,002
963,4	-0,001
963,8	-0,001
964,2	-0,001
964,7	-0,001
965,1	-0,001
965,5	-0
965,9	-0
966,3	0
966,8	0
967,2	0,001
967,6	0,001
968	0,001
968,4	-0
968,9	-0
969,3	-0,001
969,7	-0,001
970,1	-0,001
970,5	-0,001
971	-0,001
971,4	-0,001
971,8	-0,001
972,2	-0,001
972,6	-0
973,1	-0,001
973,5	-0,001
973,9	-0,001
974,3	-0,001
974,7	-0,001
975,2	-0,001
975,6	-0,001
976	-0,001
976,4	-0,001
976,8	-0,002
977,3	-0,002
977,7	-0,002
978,1	-0,001
978,5	-0,002
978,9	-0,001
979,4	-0
979,8	-0
980,2	0
980,6	0,001
981	0
981,5	0,001
981,9	0
982,3	0
982,7	0,001
983,1	0
983,6	0
984	-0,001
984,4	-0,001
984,8	-0,001
985,2	-0,001
985,6	-0,001
986,1	-0,001
986,5	-0,001
986,9	-0
987,3	-0,001
987,7	0
988,2	-0
988,6	-0
989	-0
989,4	-0
989,8	-0,001
990,3	-0,001
990,7	-0,002
991,1	-0,002
991,5	-0,001
991,9	-0,001
992,3	-0,001
992,8	-0,001
993,2	-0,001
993,6	-0,001
994	-0,001
994,4	-0,001
994,9	-0,001
995,3	-0,001
995,7	-0,002
996,1	-0,002
996,5	-0,002
996,9	-0,001
997,4	-0,001
997,8	-0,001
998,2	-0,001
998,6	-0,001
999	0
999,5	0
999,9	0,001
1000,3	0,001
1000,7	0,001
1001,1	0,001
1001,5	-0
1002	-0,002
1002,4	-0,002
1002,8	-0,002
1003,2	-0,003
1003,6	-0,003
1004	-0,004
1004,5	-0,004
1004,9	-0,003
1005,3	-0,002
1005,7	-0,002
1006,1	-0,001
1006,6	-0,001
1007	-0
1007,4	-0
1007,8	-0,001
1008,2	-0,001
1008,6	-0,001
1009,1	-0,002
1009,5	-0,002
1009,9	-0,003
1010,3	-0,003
1010,7	-0,003
1011,1	-0,004
1011,6	-0,004
1012	-0,003
1012,4	-0,004
1012,8	-0,005
1013,2	-0,005
1013,6	-0,005
1014,1	-0,005
1014,5	-0,005
1014,9	-0,005
1015,3	-0,003
1015,7	-0,004
1016,1	-0,003
1016,6	-0,003
1017	-0,003
1017,4	-0,003
1017,8	-0,004
1018,2	-0,004
1018,6	-0,003
1019,1	-0,004
1019,5	-0,004
1019,9	-0,004
1020,3	-0,003
1020,7	-0,003
1021,1	-0,003
1021,6	-0,003
1022	-0,002
1022,4	-0,002
1022,8	-0,002
1023,2	-0,002
1023,6	-0,002
1024,1	-0,002
1024,5	-0,001
1024,9	0
1025,3	0,001
1025,7	0,001
1026,1	0,001
1026,6	0,001
1027	0,001
1027,4	0,001
1027,8	-0
1028,2	0
1028,6	-0
1029	0,001
1029,5	0,001
1029,9	0,001
1030,3	0,001
1030,7	0,001
1031,1	0,001
1031,5	0,001
1032	0,001
1032,4	0,001
1032,8	0
1033,2	0
1033,6	0
1034	-0
1034,4	-0
1034,9	-0,001
1035,3	-0,001
1035,7	-0,001
1036,1	-0,001
1036,5	-0,001
1036,9	-0,001
1037,4	-0,002
1037,8	-0,001
1038,2	-0,001
1038,6	-0,002
1039	-0,001
1039,4	-0,002
1039,8	-0,002
1040,3	-0,003
1040,7	-0,003
1041,1	-0,003
1041,5	-0,002
1041,9	-0,003
1042,3	-0,002
1042,7	-0,003
1043,2	-0,003
1043,6	-0,003
1044	-0,003
1044,4	-0,003
1044,8	-0,003
1045,2	-0,002
1045,6	-0,001
1046,1	-0
1046,5	0,001
1046,9	0,001
1047,3	0,001
1047,7	0,001
1048,1	0
1048,5	-0
1049	-0,001
1049,4	-0,002
1049,8	-0,002
1050,2	-0,001
1050,6	-0,002
1051	-0,002
1051,4	-0,003
1051,9	-0,003
1052,3	-0,002
1052,7	-0,002
1053,1	-0,002
1053,5	-0,002
1053,9	-0,001
1054,3	-0,001
1054,8	-0,001
1055,2	-0,001
1055,6	-0,001
1056	-0,001
1056,4	-0,001
1056,8	-0
1057,2	-0
1057,6	-0,001
1058,1	-0,001
1058,5	-0,002
1058,9	-0,002
1059,3	-0,002
1059,7	-0,002
1060,1	-0,002
1060,5	-0,002
1061	-0,003
1061,4	-0,003
1061,8	-0,003
1062,2	-0,003
1062,6	-0,004
1063	-0,004
1063,4	-0,003
1063,8	-0,003
1064,3	-0,003
1064,7	-0,002
1065,1	-0,002
1065,5	-0,002
1065,9	-0,001
1066,3	-0,002
1066,7	-0,001
1067,1	-0
1067,6	-0,001
1068	0
1068,4	0
1068,8	-0
1069,2	-0
1069,6	-0,001
1070	-0
1070,4	-0
1070,9	-0,001
1071,3	-0
1071,7	-0
1072,1	-0,002
1072,5	-0,002
1072,9	-0,003
1073,3	-0,003
1073,7	-0,002
1074,2	-0,002
1074,6	-0
1075	0
1075,4	0
1075,8	0,001
1076,2	0,001
1076,6	0
1077	0
1077,5	-0,001
1077,9	-0,002
1078,3	-0,001
1078,7	-0,001
1079,1	-0,001
1079,5	-0,003
1079,9	-0,002
1080,3	-0,002
1080,7	-0,002
1081,2	-0,002
1081,6	-0,002
1082	-0,003
1082,4	-0,003
1082,8	-0,005
1083,2	-0,005
1083,6	-0,005
1084	-0,003
1084,5	-0,004
1084,9	-0,003
1085,3	-0,001
1085,7	0,002
1086,1	0,002
1086,5	0,002
1086,9	0,001
1087,3	0,002
1087,7	0,003
1088,2	0
1088,6	-0,002
1089	0,001
1089,4	0,001
1089,8	0,002
1090,2	0,001
1090,6	0,002
1091	0,002
1091,4	0,005
1091,9	0,003
1092,3	0
1092,7	0,003
1093,1	0,002
1093,5	-0,002
1093,9	0,002
1094,3	-0,001
1094,7	-0
1095,1	0,003
1095,5	-0,001
1096	0,001
1096,4	0,002
1096,8	-0,004
1097,2	-0,005
1097,6	-0,006
1098	-0,012
1098,4	-0,01
1098,8	-0,01
1099,2	-0,01
1099,6	0,001
1100,1	-0,006
1100,5	-0,01
1100,9	-0,009
1101,3	-0,006
1101,7	0,002
1102,1	-0,001
1102,5	-0,011
1102,9	0,006
1103,3	0,009
1103,7	0,019
1104,2	0,016
1104,6	0,014
1105	0,015
1105,4	0,025
1105,8	0,022
1106,2	0,021
1106,6	0,015
1107	0,011
1107,4	-0,003
1107,8	0,003
1108,3	-0
