Data from Absorbance_00080.txt Node
Date: Fri Aug 11 13:42:42 MSK 2023
User: vat
Spectrometer: MAYP114033
Trigger mode: 0
Integration Time (sec): 8,000000E-3
Scans to average: 10
Electric dark correction enabled: true
Nonlinearity correction enabled: false
Boxcar width: 3
XAxis mode: Wavelengths
Number of Pixels in Spectrum: 2068
>>>>>Begin Spectral Data<<<<<
199,4	-0
199,9	0,259
200,4	0,475
200,8	0,73
201,3	0,856
201,8	0,933
202,2	0,955
202,7	0,976
203,2	1,003
203,6	1,031
204,1	1,06
204,6	1,073
205	1,087
205,5	1,106
206	1,11
206,4	1,131
206,9	1,147
207,4	1,154
207,8	1,167
208,3	1,182
208,8	1,208
209,2	1,231
209,7	1,236
210,2	1,257
210,6	1,292
211,1	1,308
211,5	1,317
212	1,342
212,5	1,362
212,9	1,397
213,4	1,406
213,9	1,389
214,3	1,388
214,8	1,404
215,3	1,395
215,7	1,406
216,2	1,415
216,7	1,441
217,1	1,479
217,6	1,509
218,1	1,525
218,5	1,53
219	1,545
219,5	1,552
219,9	1,567
220,4	1,578
220,9	1,6
221,3	1,617
221,8	1,649
222,3	1,666
222,7	1,668
223,2	1,671
223,6	1,686
224,1	1,688
224,6	1,707
225	1,735
225,5	1,747
226	1,788
226,4	1,796
226,9	1,789
227,4	1,802
227,8	1,783
228,3	1,785
228,8	1,786
229,2	1,782
229,7	1,788
230,2	1,8
230,6	1,804
231,1	1,804
231,5	1,804
232	1,806
232,5	1,799
232,9	1,795
233,4	1,79
233,9	1,786
234,3	1,787
234,8	1,789
235,3	1,792
235,7	1,798
236,2	1,811
236,7	1,828
237,1	1,829
237,6	1,849
238,1	1,851
238,5	1,864
239	1,88
239,4	1,897
239,9	1,907
240,4	1,92
240,8	1,925
241,3	1,931
241,8	1,951
242,2	1,944
242,7	1,939
243,2	1,948
243,6	1,968
244,1	1,979
244,6	1,996
245	2,002
245,5	2,022
245,9	2,038
246,4	2,044
246,9	2,063
247,3	2,076
247,8	2,055
248,3	2,045
248,7	2,06
249,2	2,068
249,7	2,078
250,1	2,06
250,6	2,062
251	2,087
251,5	2,108
252	2,11
252,4	2,12
252,9	2,121
253,4	2,123
253,8	2,129
254,3	2,132
254,8	2,125
255,2	2,133
255,7	2,116
256,1	2,124
256,6	2,142
257,1	2,154
257,5	2,158
258	2,169
258,5	2,152
258,9	2,17
259,4	2,163
259,9	2,174
260,3	2,17
260,8	2,174
261,2	2,182
261,7	2,195
262,2	2,168
262,6	2,161
263,1	2,141
263,6	2,141
264	2,132
264,5	2,112
264,9	2,102
265,4	2,108
265,9	2,104
266,3	2,112
266,8	2,087
267,3	2,073
267,7	2,076
268,2	2,068
268,7	2,065
269,1	2,049
269,6	2,029
270	2,016
270,5	2,012
271	1,994
271,4	1,975
271,9	1,946
272,4	1,913
272,8	1,874
273,3	1,843
273,7	1,803
274,2	1,755
274,7	1,707
275,1	1,66
275,6	1,617
276,1	1,572
276,5	1,52
277	1,472
277,4	1,427
277,9	1,382
278,4	1,336
278,8	1,285
279,3	1,234
279,8	1,185
280,2	1,136
280,7	1,088
281,1	1,041
281,6	0,999
282,1	0,96
282,5	0,92
283	0,885
283,4	0,852
283,9	0,822
284,4	0,795
284,8	0,77
285,3	0,747
285,8	0,728
286,2	0,709
286,7	0,694
287,1	0,68
287,6	0,668
288,1	0,657
288,5	0,648
289	0,64
289,5	0,635
289,9	0,628
290,4	0,625
290,8	0,621
291,3	0,617
291,8	0,614
292,2	0,611
292,7	0,607
293,1	0,604
293,6	0,601
294,1	0,598
294,5	0,596
295	0,594
295,5	0,591
295,9	0,59
296,4	0,588
296,8	0,585
297,3	0,583
297,8	0,581
298,2	0,577
298,7	0,577
299,1	0,574
299,6	0,572
300,1	0,57
300,5	0,568
301	0,565
301,5	0,564
301,9	0,562
302,4	0,561
302,8	0,558
303,3	0,556
303,8	0,554
304,2	0,551
304,7	0,548
305,1	0,544
305,6	0,54
306,1	0,537
306,5	0,533
307	0,53
307,4	0,527
307,9	0,524
308,4	0,522
308,8	0,519
309,3	0,517
309,8	0,513
310,2	0,509
310,7	0,505
311,1	0,502
311,6	0,497
312,1	0,493
312,5	0,489
313	0,486
313,4	0,482
313,9	0,478
314,4	0,474
314,8	0,47
315,3	0,466
315,7	0,462
316,2	0,457
316,7	0,453
317,1	0,447
317,6	0,443
318	0,438
318,5	0,435
319	0,429
319,4	0,425
319,9	0,421
320,3	0,416
320,8	0,412
321,3	0,406
321,7	0,4
322,2	0,396
322,6	0,392
323,1	0,387
323,6	0,382
324	0,377
324,5	0,373
324,9	0,369
325,4	0,365
325,9	0,36
326,3	0,355
326,8	0,351
327,2	0,346
327,7	0,342
328,2	0,337
328,6	0,333
329,1	0,329
329,5	0,325
330	0,321
330,5	0,317
330,9	0,313
331,4	0,309
331,8	0,304
332,3	0,299
332,8	0,294
333,2	0,29
333,7	0,286
334,1	0,282
334,6	0,278
335,1	0,273
335,5	0,27
336	0,267
336,4	0,264
336,9	0,26
337,4	0,256
337,8	0,251
338,3	0,247
338,7	0,243
339,2	0,238
339,7	0,234
340,1	0,23
340,6	0,226
341	0,224
341,5	0,22
342	0,216
342,4	0,213
342,9	0,21
343,3	0,207
343,8	0,204
344,2	0,201
344,7	0,198
345,2	0,195
345,6	0,193
346,1	0,19
346,5	0,187
347	0,184
347,5	0,181
347,9	0,178
348,4	0,175
348,8	0,171
349,3	0,168
349,8	0,165
350,2	0,163
350,7	0,161
351,1	0,159
351,6	0,156
352	0,155
352,5	0,152
353	0,15
353,4	0,147
353,9	0,145
354,3	0,142
354,8	0,14
355,3	0,138
355,7	0,135
356,2	0,133
356,6	0,131
357,1	0,129
357,5	0,127
358	0,125
358,5	0,122
358,9	0,121
359,4	0,119
359,8	0,118
360,3	0,115
360,8	0,113
361,2	0,112
361,7	0,11
362,1	0,108
362,6	0,106
363	0,104
363,5	0,103
364	0,102
364,4	0,1
364,9	0,098
365,3	0,096
365,8	0,095
366,3	0,094
366,7	0,092
367,2	0,091
367,6	0,089
368,1	0,088
368,5	0,086
369	0,085
369,5	0,084
369,9	0,082
370,4	0,08
370,8	0,079
371,3	0,078
371,7	0,077
372,2	0,075
372,7	0,075
373,1	0,074
373,6	0,072
374	0,071
374,5	0,07
374,9	0,069
375,4	0,069
375,9	0,067
376,3	0,066
376,8	0,066
377,2	0,065
377,7	0,065
378,2	0,063
378,6	0,062
379,1	0,062
379,5	0,06
380	0,06
380,4	0,059
380,9	0,058
381,4	0,057
381,8	0,057
382,3	0,057
382,7	0,056
383,2	0,055
383,6	0,054
384,1	0,053
384,6	0,053
385	0,051
385,5	0,051
385,9	0,05
386,4	0,049
386,8	0,049
387,3	0,049
387,7	0,047
388,2	0,046
388,7	0,046
389,1	0,045
389,6	0,044
390	0,044
390,5	0,043
390,9	0,043
391,4	0,043
391,9	0,042
392,3	0,042
392,8	0,042
393,2	0,041
393,7	0,041
394,1	0,041
394,6	0,04
395,1	0,039
395,5	0,039
396	0,039
396,4	0,038
396,9	0,038
397,3	0,037
397,8	0,037
398,2	0,037
398,7	0,036
399,2	0,035
399,6	0,035
400,1	0,034
400,5	0,035
401	0,034
401,4	0,033
401,9	0,032
402,4	0,032
402,8	0,032
403,3	0,031
403,7	0,031
404,2	0,03
404,6	0,031
405,1	0,031
405,5	0,03
406	0,03
406,5	0,029
406,9	0,029
407,4	0,028
407,8	0,027
408,3	0,026
408,7	0,026
409,2	0,025
409,6	0,025
410,1	0,025
410,6	0,025
411	0,025
411,5	0,025
411,9	0,025
412,4	0,025
412,8	0,025
413,3	0,024
413,7	0,025
414,2	0,025
414,7	0,024
415,1	0,024
415,6	0,023
416	0,023
416,5	0,023
416,9	0,022
417,4	0,022
417,8	0,021
418,3	0,021
418,8	0,021
419,2	0,021
419,7	0,02
420,1	0,02
420,6	0,02
421	0,02
421,5	0,02
421,9	0,019
422,4	0,019
422,8	0,018
423,3	0,018
423,8	0,017
424,2	0,017
424,7	0,016
425,1	0,016
425,6	0,016
426	0,016
426,5	0,016
426,9	0,016
427,4	0,016
427,9	0,016
428,3	0,015
428,8	0,015
429,2	0,014
429,7	0,014
430,1	0,013
430,6	0,013
431	0,012
431,5	0,012
431,9	0,011
432,4	0,011
432,8	0,011
433,3	0,011
433,8	0,011
434,2	0,011
434,7	0,011
435,1	0,011
435,6	0,011
436	0,011
436,5	0,011
436,9	0,011
437,4	0,011
437,8	0,011
438,3	0,011
438,8	0,01
439,2	0,011
439,7	0,01
440,1	0,01
440,6	0,009
441	0,009
441,5	0,009
441,9	0,009
442,4	0,009
442,8	0,009
443,3	0,009
443,7	0,009
444,2	0,008
444,7	0,008
445,1	0,008
445,6	0,007
446	0,007
446,5	0,007
446,9	0,007
447,4	0,007
447,8	0,007
448,3	0,007
448,7	0,007
449,2	0,007
449,6	0,006
450,1	0,006
450,6	0,006
451	0,006
451,5	0,006
451,9	0,005
452,4	0,006
452,8	0,005
453,3	0,005
453,7	0,006
454,2	0,005
454,6	0,005
455,1	0,005
455,5	0,005
456	0,006
456,4	0,006
456,9	0,006
457,3	0,006
457,8	0,006
458,3	0,006
458,7	0,005
459,2	0,004
459,6	0,004
460,1	0,004
460,5	0,003
461	0,004
461,4	0,004
461,9	0,003
462,3	0,004
462,8	0,003
463,2	0,003
463,7	0,003
464,1	0,002
464,6	0,002
465	0,003
465,5	0,003
466	0,003
466,4	0,003
466,9	0,003
467,3	0,003
467,8	0,003
468,2	0,003
468,7	0,003
469,1	0,003
469,6	0,002
470	0,002
470,5	0,002
470,9	0,003
471,4	0,002
471,8	0,002
472,3	0,002
472,7	0,002
473,2	0,002
473,6	0,002
474,1	0,002
474,5	0,002
475	0,002
475,4	0,003
475,9	0,003
476,4	0,002
476,8	0,002
477,3	0,002
477,7	0,002
478,2	0,002
478,6	0,001
479,1	0,001
479,5	0,002
480	0,003
480,4	0,003
480,9	0,003
481,3	0,004
481,8	0,003
482,2	0,002
482,7	0,002
483,1	0,001
483,6	0
484	-0
484,5	-0,001
484,9	-0,001
485,4	-0
485,8	0,001
486,3	0,001
486,7	0,001
487,2	0,001
487,6	0,001
488,1	0,002
488,5	0,002
489	0,001
489,4	0,001
489,9	0,002
490,4	0,002
490,8	0,002
491,3	0,001
491,7	0,001
492,2	0,001
492,6	0,001
493,1	0,001
493,5	0,001
494	0,001
494,4	0,001
494,9	0,001
495,3	0
495,8	0,001
496,2	0,001
496,7	0,001
497,1	0,001
497,6	0
498	0,001
498,5	0,001
498,9	0,001
499,4	0,001
499,8	0
500,3	0
500,7	0,001
501,2	0
501,6	0,001
502,1	0,001
502,5	0,001
503	0,001
503,4	0,001
503,9	0,001
504,3	0,001
504,8	0,001
505,2	0,001
505,7	0,001
506,1	0,001
506,6	0,001
507	0,001
507,5	0
507,9	0
508,4	0,001
508,8	-0
509,3	0
509,7	-0
510,2	-0
510,6	0
511,1	0
511,5	0
512	0
512,4	0
512,9	0,001
513,3	0
513,8	-0
514,2	0
514,7	0
515,1	0,001
515,6	0,001
516	0,001
516,5	0,002
516,9	0,002
517,4	0,001
517,8	0
518,3	0
518,7	0
519,2	-0
519,6	-0
520,1	-0
520,5	-0,001
521	-0
521,4	-0
521,9	-0
522,3	0
522,8	0,001
523,2	0,001
523,7	0,002
524,1	0,002
524,6	0,001
525	0,002
525,5	0,002
525,9	0,001
526,4	0,001
526,8	0,001
527,3	0,001
527,7	0,002
528,2	0,001
528,6	0,001
529,1	0,001
529,5	0,001
530	0,001
530,4	0,001
530,9	0,001
531,3	0,001
531,8	0,001
532,2	0,001
532,6	0,001
533,1	0,001
533,5	0
534	0,001
534,4	0
534,9	-0
535,3	-0
535,8	-0,001
536,2	-0,001
536,7	-0,002
537,1	-0,002
537,6	-0,002
538	-0,002
538,5	-0,001
538,9	-0,001
539,4	-0,001
539,8	-0
540,3	0
540,7	0,001
541,2	0,001
541,6	0,001
542,1	0,001
542,5	0
543	0
543,4	-0
543,9	-0,001
544,3	-0,001
544,8	-0,001
545,2	-0,002
545,7	-0,001
546,1	-0,001
546,5	-0,001
547	-0
547,4	-0
547,9	-0
548,3	0
548,8	0,001
549,2	0,001
549,7	0,001
550,1	0
550,6	0
551	0,001
551,5	0,001
551,9	0,001
552,4	0,001
552,8	0,001
553,3	0,001
553,7	0,001
554,2	0,001
554,6	0
555,1	-0
555,5	0
555,9	-0,001
556,4	-0,001
556,8	-0,001
557,3	-0,001
557,7	-0,001
558,2	-0,001
558,6	-0,001
559,1	-0,001
559,5	-0
560	-0,001
560,4	-0,001
560,9	-0,001
561,3	-0,001
561,8	-0
562,2	0
562,7	0
563,1	0
563,6	0,001
564	0,001
564,4	0,001
564,9	0,001
565,3	0,001
565,8	0,001
566,2	0,001
566,7	0,001
567,1	0
567,6	0
568	0
568,5	-0
568,9	-0
569,4	0
569,8	-0
570,3	-0
570,7	-0
571,1	-0
571,6	0
572	0
572,5	-0
572,9	0
573,4	-0
573,8	-0
574,3	-0,001
574,7	-0,001
575,2	-0,001
575,6	-0,001
576,1	-0,001
576,5	-0,001
576,9	-0,001
577,4	-0
577,8	0
578,3	0
578,7	0
579,2	0
579,6	0
580,1	0,001
580,5	0
581	0,001
581,4	0,001
581,9	0,001
582,3	0,001
582,7	0
583,2	0
583,6	0,001
584,1	0,001
584,5	0
585	0
585,4	0,001
585,9	0
586,3	0
586,8	0,001
587,2	0
587,6	0
588,1	0
588,5	0
589	0
589,4	0
589,9	-0
590,3	-0
590,8	-0
591,2	0
591,7	0,001
592,1	0,001
592,5	0,001
593	0,001
593,4	0
593,9	0
594,3	0
594,8	0
595,2	-0
595,7	-0
596,1	-0
596,6	-0
597	-0
597,4	-0
597,9	-0,001
598,3	-0,001
598,8	-0,001
599,2	-0,001
599,7	-0,001
600,1	-0,001
600,6	-0,001
601	-0,002
601,4	-0,002
601,9	-0,002
602,3	-0,001
602,8	-0,002
603,2	-0,002
603,7	-0,001
604,1	-0,001
604,6	-0,001
605	-0,001
605,4	-0,001
605,9	-0
606,3	-0
606,8	0
607,2	0
607,7	0
608,1	0
608,6	0
609	0
609,4	0
609,9	0
610,3	-0
610,8	-0
611,2	-0
611,7	0
612,1	-0
612,6	-0
613	-0
613,4	0
613,9	0
614,3	-0
614,8	0
615,2	0
615,7	0
616,1	0
616,6	0,001
617	0,001
617,4	0,001
617,9	0,001
618,3	0,001
618,8	0,001
619,2	0
619,7	0,001
620,1	0
620,5	0,001
621	0
621,4	0
621,9	0
622,3	0
622,8	-0
623,2	0
623,6	-0
624,1	0
624,5	0
625	-0
625,4	-0
625,9	-0
626,3	-0
626,8	-0
627,2	-0
627,6	-0
628,1	-0
628,5	-0
629	0
629,4	0
629,9	0
630,3	0,001
630,7	0,001
631,2	0,001
631,6	0,001
632,1	0,001
632,5	0,001
633	0,001
633,4	0,001
633,8	0,001
634,3	0,001
634,7	0,001
635,2	0,001
635,6	0,001
636,1	0,001
636,5	0,001
636,9	0,001
637,4	0
637,8	0,001
638,3	0
638,7	0
639,2	0
639,6	0
640	0
640,5	0
640,9	0
641,4	0
641,8	0
642,2	0
642,7	0
643,1	0
643,6	0,001
644	0,001
644,5	0,001
644,9	0,001
645,3	0,002
645,8	0,002
646,2	0,002
646,7	0,002
647,1	0,002
647,6	0,002
648	0,002
648,4	0,001
648,9	0,001
649,3	0,001
649,8	0,001
650,2	0
650,6	0
651,1	-0
651,5	-0
652	-0
652,4	-0,001
652,9	-0,001
653,3	-0,001
653,7	-0
654,2	-0,001
654,6	-0,001
655,1	-0,001
655,5	-0
655,9	-0
656,4	-0
656,8	0
657,3	0,001
657,7	0,001
658,2	0,002
658,6	0,002
659	0,003
659,5	0,005
659,9	0,006
660,4	0,005
660,8	0,003
661,2	0,002
661,7	0,002
662,1	0,001
662,6	0
663	0
663,4	-0
663,9	-0
664,3	-0,001
664,8	-0,001
665,2	-0,001
665,6	-0
666,1	-0
666,5	-0
667	0
667,4	0
667,9	0,001
668,3	0,001
668,7	0
669,2	0
669,6	0
670,1	-0
670,5	-0
670,9	-0
671,4	-0
671,8	-0,001
672,3	-0,001
672,7	-0
673,1	-0,001
673,6	-0,001
674	-0,001
674,5	-0,001
674,9	-0,001
675,3	-0,001
675,8	-0,001
676,2	-0,001
676,7	-0
677,1	-0,001
677,5	-0,001
678	-0
678,4	-0
678,9	-0
679,3	0
679,7	0
680,2	0
680,6	0
681,1	0
681,5	0
681,9	0
682,4	0
682,8	0
683,3	0
683,7	-0
684,1	-0
684,6	-0,001
685	-0,001
685,5	-0,001
685,9	-0,001
686,3	-0,001
686,8	-0
687,2	-0
687,7	0
688,1	0,001
688,5	0,001
689	0,001
689,4	0,001
689,9	0,001
690,3	0,001
690,7	0,001
691,2	0,001
691,6	0,001
692	0,001
692,5	0,001
692,9	0,001
693,4	0
693,8	0
694,2	-0
694,7	-0
695,1	0
695,6	0
696	0
696,4	0
696,9	0,001
697,3	0,001
697,8	0,001
698,2	0
698,6	0,001
699,1	0,001
699,5	0
699,9	-0
700,4	-0
700,8	-0
701,3	-0
701,7	-0
702,1	-0
702,6	-0
703	0
703,5	0
703,9	0
704,3	0
704,8	0
705,2	0
705,6	0,001
706,1	0,001
706,5	0
707	0
707,4	0
707,8	0
708,3	0
708,7	-0
709,2	-0
709,6	-0
710	-0
710,5	-0
710,9	-0
711,3	-0
711,8	-0
712,2	0
712,7	-0
713,1	-0
713,5	-0
714	-0
714,4	-0
714,8	-0
715,3	-0,001
715,7	-0,001
716,2	-0,001
716,6	-0
717	-0
717,5	-0
717,9	-0
718,3	-0
718,8	0
719,2	-0
719,7	-0
720,1	-0
720,5	-0
721	0
721,4	0
721,8	-0
722,3	-0
722,7	-0
723,2	-0,001
723,6	-0,001
724	-0,001
724,5	-0,001
724,9	-0,001
725,3	-0
725,8	-0
726,2	-0
726,7	0
727,1	-0
727,5	0
728	0
728,4	-0
728,8	-0
729,3	-0,001
729,7	-0,001
730,1	-0,001
730,6	-0,001
731	-0,001
731,5	-0,001
731,9	-0,001
732,3	-0,001
732,8	-0,001
733,2	-0,001
733,6	-0,001
734,1	-0,001
734,5	-0,001
734,9	-0,001
735,4	-0,001
735,8	-0
736,3	-0
736,7	-0
737,1	0
737,6	0
738	0
738,4	0
738,9	0
739,3	-0
739,7	-0
740,2	-0
740,6	-0,001
741,1	-0,001
741,5	-0,001
741,9	-0
742,4	-0
742,8	-0
743,2	-0
743,7	-0
744,1	0
744,5	0
745	0
745,4	0
745,8	0
746,3	0
746,7	-0
747,2	-0
747,6	-0
748	-0
748,5	-0
748,9	-0
749,3	-0
749,8	-0
750,2	-0
750,6	-0
751,1	-0
751,5	0
751,9	0
752,4	0
752,8	0,001
753,3	0,001
753,7	0,001
754,1	0,001
754,6	0,001
755	0,001
755,4	0,001
755,9	0
756,3	0,001
756,7	0
757,2	0
757,6	0
758	0
758,5	0
758,9	0
759,3	0
759,8	0
760,2	0
760,6	0,001
761,1	0
761,5	0,001
761,9	0,001
762,4	0,001
762,8	0,001
763,3	0,001
763,7	0,001
764,1	0,001
764,6	0,001
765	0,001
765,4	0,001
765,9	0,001
766,3	0,001
766,7	0,001
767,2	0,001
767,6	0,001
768	0,002
768,5	0,002
768,9	0,002
769,3	0,002
769,8	0,001
770,2	0,001
770,6	0,001
771,1	0
771,5	-0
771,9	-0
772,4	-0
772,8	0
773,2	0
773,7	0
774,1	0,001
774,5	0,001
775	0,001
775,4	0,001
775,8	0,001
776,3	0,001
776,7	0,001
777,1	0,001
777,6	0,001
778	0,001
778,4	0,001
778,9	0,001
779,3	0,001
779,7	0,001
780,2	0,001
780,6	0,001
781	0,001
781,5	0,001
781,9	0,001
782,3	0
782,8	0
783,2	0
783,6	0
784,1	0
784,5	0
784,9	0
785,4	0,001
785,8	0
786,2	0
786,7	0
787,1	0
787,5	0
788	0
788,4	0
788,8	0
789,3	0
789,7	0
790,1	0
790,6	0
791	-0
791,4	-0
791,9	0
792,3	-0
792,7	-0
793,2	-0
793,6	-0
794	-0
794,5	0
794,9	0
795,3	0
795,8	0,001
796,2	0,001
796,6	0,001
797,1	0,002
797,5	0,002
797,9	0,002
798,4	0,002
798,8	0,001
799,2	0,001
799,7	0,001
800,1	0,001
800,5	0
801	0
801,4	-0,001
801,8	-0,001
802,2	-0,001
802,7	-0,001
803,1	-0,001
803,5	-0
804	-0
804,4	0
804,8	0
805,3	0
805,7	0
806,1	0
806,6	0
807	0
807,4	0
807,9	0,001
808,3	0
808,7	0,001
809,2	0,001
809,6	0
810	0
810,4	0
810,9	-0
811,3	-0
811,7	-0
812,2	0
812,6	0
813	0
813,5	0
813,9	0
814,3	0
814,8	0
815,2	0
815,6	0
816,1	-0
816,5	-0
816,9	-0
817,3	-0
817,8	-0
818,2	-0,001
818,6	-0,001
819,1	-0,001
819,5	-0,001
819,9	-0
820,4	-0,001
820,8	-0,001
821,2	-0,001
821,7	-0,001
822,1	-0,001
822,5	-0,001
822,9	-0,001
823,4	-0,001
823,8	-0,001
824,2	-0
824,7	-0
825,1	-0
825,5	-0
826	0
826,4	0
826,8	0
827,3	0
827,7	-0
828,1	-0
828,5	0
829	-0
829,4	-0
829,8	-0
830,3	0
830,7	0
831,1	0
831,6	-0
832	-0
832,4	0
832,8	0
833,3	0
833,7	-0
834,1	-0
834,6	-0
835	-0
835,4	-0
835,8	-0,001
836,3	-0,001
836,7	-0,001
837,1	-0,001
837,6	-0,001
838	-0,001
838,4	-0,001
838,9	-0,001
839,3	0
839,7	0
840,1	0
840,6	0,001
841	0,001
841,4	0,001
841,9	0,001
842,3	0,001
842,7	0,001
843,1	0,001
843,6	0,001
844	0,001
844,4	0
844,9	0
845,3	0
845,7	0
846,2	-0
846,6	-0
847	-0
847,4	-0
847,9	-0
848,3	-0,001
848,7	-0
849,2	-0,001
849,6	-0,001
850	-0,001
850,4	-0
850,9	-0,001
851,3	-0
851,7	-0
852,2	0
852,6	0,001
853	0,001
853,4	0,001
853,9	0,001
854,3	0,001
854,7	0,001
855,2	0,001
855,6	0,001
856	0,001
856,4	0,001
856,9	0,001
857,3	0,001
857,7	0,001
858,2	0,001
858,6	0,001
859	0
859,4	0
859,9	0
860,3	-0
860,7	-0
861,1	0
861,6	0
862	0
862,4	0
862,9	0
863,3	0
863,7	0
864,1	0
864,6	0
865	0
865,4	0,001
865,9	0
866,3	0,001
866,7	0
867,1	0
867,6	0,001
868	0,001
868,4	0
868,8	0
869,3	-0
869,7	-0
870,1	-0
870,6	-0
871	-0
871,4	-0
871,8	-0,001
872,3	-0
872,7	-0,001
873,1	-0,001
873,5	-0,001
874	-0,001
874,4	-0,002
874,8	-0,002
875,3	-0,002
875,7	-0,002
876,1	-0,002
876,5	-0,002
877	-0,002
877,4	-0,001
877,8	-0,002
878,2	-0,001
878,7	-0,001
879,1	-0,001
879,5	-0,001
879,9	-0,001
880,4	-0,001
880,8	-0
881,2	0
881,7	0
882,1	0
882,5	-0
882,9	-0
883,4	-0,001
883,8	-0,001
884,2	-0,001
884,6	-0,001
885,1	-0,001
885,5	-0,001
885,9	-0,001
886,3	-0,001
886,8	-0
887,2	-0
887,6	0
888	0
888,5	0
888,9	0
889,3	0
889,8	-0
890,2	0
890,6	0
891	0
891,5	0,001
891,9	0,001
892,3	0,001
892,7	0,001
893,2	0
893,6	0
894	-0
894,4	-0
894,9	-0,001
895,3	-0,001
895,7	-0,001
896,1	-0,001
896,6	-0,002
897	-0,001
897,4	-0,002
897,8	-0,002
898,3	-0,002
898,7	-0,002
899,1	-0,002
899,5	-0,002
900	-0,002
900,4	-0,001
900,8	-0,001
901,2	-0,001
901,7	-0,001
902,1	-0,001
902,5	-0,001
902,9	-0,001
903,4	-0,001
903,8	-0,001
904,2	-0
904,6	-0
905,1	-0
905,5	-0
905,9	-0
906,3	-0
906,8	-0,001
907,2	-0,001
907,6	-0,001
908	-0,001
908,5	-0,001
908,9	-0,001
909,3	-0,002
909,7	-0,002
910,2	-0,002
910,6	-0,002
911	-0,002
911,4	-0,002
911,9	-0,002
912,3	-0,002
912,7	-0,002
913,1	-0,002
913,6	-0,002
914	-0,002
914,4	-0,002
914,8	-0,002
915,3	-0,002
915,7	-0,002
916,1	-0,002
916,5	-0,002
916,9	-0,002
917,4	-0,002
917,8	-0,001
918,2	-0,001
918,6	-0,001
919,1	-0
919,5	0,001
919,9	0,001
920,3	0,001
920,8	0,001
921,2	0
921,6	0
922	0
922,5	-0,001
922,9	-0,001
923,3	-0,001
923,7	-0,001
924,2	-0,001
924,6	-0,001
925	-0,001
925,4	-0,001
925,8	-0,001
926,3	-0,001
926,7	-0,001
927,1	-0,001
927,5	-0
928	0
928,4	0
928,8	0
929,2	0
929,7	-0
930,1	0
930,5	-0
930,9	-0
931,3	-0,001
931,8	-0
932,2	-0,001
932,6	-0,001
933	-0,001
933,5	-0,001
933,9	-0,001
934,3	-0,001
934,7	-0,002
935,2	-0,001
935,6	-0,001
936	-0,001
936,4	-0
936,8	-0
937,3	-0
937,7	0
938,1	-0,001
938,5	-0,001
939	-0
939,4	-0
939,8	0
940,2	0,001
940,6	0,001
941,1	0,001
941,5	0,001
941,9	0,001
942,3	0,001
942,8	0
943,2	0
943,6	0
944	0
944,4	-0
944,9	0
945,3	0,001
945,7	0,001
946,1	0,001
946,6	0,001
947	0
947,4	-0
947,8	-0,001
948,2	-0,002
948,7	-0,002
949,1	-0,002
949,5	-0,003
949,9	-0,003
950,3	-0,002
950,8	-0,002
951,2	-0,002
951,6	-0,002
952	-0,002
952,5	-0,002
952,9	-0,001
953,3	-0,001
953,7	-0,001
954,1	-0
954,6	0
955	0
955,4	0
955,8	0,001
956,2	-0
956,7	0
957,1	0
957,5	-0
957,9	0
958,3	-0
958,8	-0
959,2	-0
959,6	-0
960	-0
960,5	-0
960,9	-0,001
961,3	-0,002
961,7	-0,002
962,1	-0,001
962,6	-0,002
963	-0,001
963,4	-0,002
963,8	-0,001
964,2	-0,001
964,7	-0,001
965,1	-0,001
965,5	-0,001
965,9	-0,001
966,3	0
966,8	0,001
967,2	0,001
967,6	0,002
968	0,002
968,4	0,002
968,9	0,001
969,3	0,001
969,7	0
970,1	0
970,5	-0
971	0
971,4	0
971,8	0
972,2	0,001
972,6	0,001
973,1	0
973,5	0
973,9	-0
974,3	0
974,7	0
975,2	0
975,6	0
976	0
976,4	0
976,8	-0
977,3	-0
977,7	-0,001
978,1	-0,001
978,5	-0,001
978,9	-0,001
979,4	-0,001
979,8	-0,001
980,2	-0
980,6	0
981	0
981,5	0,001
981,9	0
982,3	0,001
982,7	0,001
983,1	0,001
983,6	0
984	0
984,4	-0
984,8	0
985,2	0,001
985,6	-0
986,1	-0
986,5	0
986,9	-0
987,3	0
987,7	0
988,2	-0
988,6	-0
989	-0,001
989,4	-0,001
989,8	-0,001
990,3	-0,002
990,7	-0,002
991,1	-0,003
991,5	-0,002
991,9	-0,002
992,3	-0,002
992,8	-0,002
993,2	-0,001
993,6	-0,001
994	-0,001
994,4	-0,001
994,9	-0,001
995,3	-0,001
995,7	-0,001
996,1	-0,002
996,5	-0,001
996,9	-0,002
997,4	-0,001
997,8	-0,001
998,2	-0,001
998,6	-0,001
999	-0,001
999,5	-0,001
999,9	0
1000,3	-0
1000,7	0
1001,1	0
1001,5	-0
1002	-0,001
1002,4	-0,001
1002,8	-0,002
1003,2	-0,003
1003,6	-0,003
1004	-0,003
1004,5	-0,003
1004,9	-0,003
1005,3	-0,002
1005,7	-0,002
1006,1	-0,001
1006,6	-0,001
1007	-0
1007,4	-0
1007,8	-0
1008,2	-0
1008,6	-0
1009,1	-0,001
1009,5	-0,002
1009,9	-0,002
1010,3	-0,002
1010,7	-0,002
1011,1	-0,003
1011,6	-0,003
1012	-0,003
1012,4	-0,004
1012,8	-0,004
1013,2	-0,004
1013,6	-0,004
1014,1	-0,004
1014,5	-0,004
1014,9	-0,004
1015,3	-0,003
1015,7	-0,003
1016,1	-0,003
1016,6	-0,003
1017	-0,003
1017,4	-0,002
1017,8	-0,003
1018,2	-0,003
1018,6	-0,002
1019,1	-0,002
1019,5	-0,003
1019,9	-0,003
1020,3	-0,002
1020,7	-0,001
1021,1	-0,001
1021,6	-0,001
1022	-0
1022,4	-0,001
1022,8	-0
1023,2	-0,001
1023,6	-0,001
1024,1	-0
1024,5	-0
1024,9	0
1025,3	0,001
1025,7	0,002
1026,1	0,002
1026,6	0,003
1027	0,002
1027,4	0,002
1027,8	0,001
1028,2	0,002
1028,6	0,001
1029	0,002
1029,5	0,002
1029,9	0,002
1030,3	0,002
1030,7	0,003
1031,1	0,002
1031,5	0,002
1032	0,002
1032,4	0,001
1032,8	0
1033,2	0
1033,6	0
1034	0
1034,4	0
1034,9	-0
1035,3	-0
1035,7	-0
1036,1	-0
1036,5	-0
1036,9	-0,001
1037,4	-0,001
1037,8	-0,001
1038,2	-0,001
1038,6	-0,002
1039	-0,002
1039,4	-0,003
1039,8	-0,002
1040,3	-0,002
1040,7	-0,003
1041,1	-0,003
1041,5	-0,002
1041,9	-0,002
1042,3	-0,002
1042,7	-0,003
1043,2	-0,003
1043,6	-0,003
1044	-0,002
1044,4	-0,002
1044,8	-0,002
1045,2	-0,002
1045,6	-0,001
1046,1	0
1046,5	0
1046,9	0,001
1047,3	0,001
1047,7	0,001
1048,1	0,001
1048,5	0
1049	-0
1049,4	-0,001
1049,8	-0,001
1050,2	-0,001
1050,6	-0,002
1051	-0,002
1051,4	-0,002
1051,9	-0,003
1052,3	-0,003
1052,7	-0,003
1053,1	-0,003
1053,5	-0,002
1053,9	-0,003
1054,3	-0,003
1054,8	-0,002
1055,2	-0,002
1055,6	-0,002
1056	-0,002
1056,4	-0,002
1056,8	-0,002
1057,2	-0,003
1057,6	-0,004
1058,1	-0,003
1058,5	-0,003
1058,9	-0,003
1059,3	-0,003
1059,7	-0,002
1060,1	-0,002
1060,5	-0,002
1061	-0,003
1061,4	-0,004
1061,8	-0,004
1062,2	-0,004
1062,6	-0,005
1063	-0,005
1063,4	-0,005
1063,8	-0,004
1064,3	-0,003
1064,7	-0,004
1065,1	-0,004
1065,5	-0,004
1065,9	-0,003
1066,3	-0,002
1066,7	-0,003
1067,1	-0,003
1067,6	-0,003
1068	-0,002
1068,4	-0,002
1068,8	-0,002
1069,2	-0,003
1069,6	-0,002
1070	-0,002
1070,4	-0,002
1070,9	-0,003
1071,3	-0,002
1071,7	-0,002
1072,1	-0,001
1072,5	-0,002
1072,9	-0,003
1073,3	-0,002
1073,7	-0,001
1074,2	-0,001
1074,6	-0,001
1075	-0,001
1075,4	-0,001
1075,8	0
1076,2	0
1076,6	0
1077	-0
1077,5	-0,001
1077,9	-0,001
1078,3	-0,001
1078,7	-0,002
1079,1	-0,002
1079,5	-0,003
1079,9	-0,003
1080,3	-0,003
1080,7	-0,002
1081,2	-0,002
1081,6	-0,001
1082	-0,001
1082,4	-0,001
1082,8	-0,001
1083,2	-0,001
1083,6	-0,001
1084	0,001
1084,5	0
1084,9	0,001
1085,3	0,002
1085,7	0,003
1086,1	0,003
1086,5	0,003
1086,9	0,002
1087,3	0,003
1087,7	0,002
1088,2	0,002
1088,6	-0,001
1089	0,001
1089,4	0,001
1089,8	0
1090,2	-0,003
1090,6	-0,002
1091	-0,001
1091,4	0,002
1091,9	0,001
1092,3	0
1092,7	0,004
1093,1	0,008
1093,5	0,006
1093,9	0,007
1094,3	0,006
1094,7	0,008
1095,1	0,008
1095,5	0,001
1096	-0,001
1096,4	0,006
1096,8	0,004
1097,2	0,002
1097,6	-0,003
1098	-0,003
1098,4	0,001
1098,8	-0,005
1099,2	-0,013
1099,6	-0,01
1100,1	-0,008
1100,5	-0,001
1100,9	-0,004
1101,3	0,003
1101,7	0,013
1102,1	0,008
1102,5	0,009
1102,9	0,017
1103,3	0,009
1103,7	0,012
1104,2	0,001
1104,6	0,001
1105	0,007
1105,4	0,013
1105,8	0,017
1106,2	0,027
1106,6	0,032
1107	0,039
1107,4	0,038
1107,8	0,072
1108,3	0,288
