Data from Absorbance_00061.txt Node
Date: Fri Aug 11 13:25:09 MSK 2023
User: vat
Spectrometer: MAYP114033
Trigger mode: 0
Integration Time (sec): 8,000000E-3
Scans to average: 10
Electric dark correction enabled: true
Nonlinearity correction enabled: false
Boxcar width: 3
XAxis mode: Wavelengths
Number of Pixels in Spectrum: 2068
>>>>>Begin Spectral Data<<<<<
199,4	-0
199,9	0,052
200,4	0,382
200,8	0,701
201,3	0,813
201,8	0,892
202,2	0,937
202,7	0,964
203,2	1,009
203,6	1,051
204,1	1,066
204,6	1,089
205	1,098
205,5	1,108
206	1,124
206,4	1,138
206,9	1,142
207,4	1,17
207,8	1,18
208,3	1,202
208,8	1,217
209,2	1,223
209,7	1,238
210,2	1,265
210,6	1,28
211,1	1,307
211,5	1,317
212	1,357
212,5	1,388
212,9	1,416
213,4	1,413
213,9	1,403
214,3	1,402
214,8	1,424
215,3	1,418
215,7	1,428
216,2	1,417
216,7	1,455
217,1	1,493
217,6	1,52
218,1	1,507
218,5	1,51
219	1,527
219,5	1,543
219,9	1,553
220,4	1,562
220,9	1,568
221,3	1,599
221,8	1,626
222,3	1,637
222,7	1,666
223,2	1,68
223,6	1,689
224,1	1,706
224,6	1,717
225	1,73
225,5	1,744
226	1,756
226,4	1,762
226,9	1,779
227,4	1,802
227,8	1,822
228,3	1,837
228,8	1,836
229,2	1,858
229,7	1,86
230,2	1,866
230,6	1,88
231,1	1,873
231,5	1,876
232	1,894
232,5	1,887
232,9	1,902
233,4	1,915
233,9	1,904
234,3	1,916
234,8	1,918
235,3	1,917
235,7	1,935
236,2	1,953
236,7	1,969
237,1	1,99
237,6	2,006
238,1	2,02
238,5	2,041
239	2,042
239,4	2,054
239,9	2,057
240,4	2,053
240,8	2,062
241,3	2,083
241,8	2,11
242,2	2,121
242,7	2,103
243,2	2,093
243,6	2,095
244,1	2,08
244,6	2,069
245	2,043
245,5	2,047
245,9	2,057
246,4	2,083
246,9	2,08
247,3	2,096
247,8	2,088
248,3	2,101
248,7	2,099
249,2	2,088
249,7	2,07
250,1	2,08
250,6	2,073
251	2,088
251,5	2,089
252	2,084
252,4	2,098
252,9	2,119
253,4	2,129
253,8	2,14
254,3	2,134
254,8	2,14
255,2	2,161
255,7	2,153
256,1	2,154
256,6	2,162
257,1	2,17
257,5	2,176
258	2,18
258,5	2,173
258,9	2,171
259,4	2,164
259,9	2,152
260,3	2,162
260,8	2,166
261,2	2,16
261,7	2,168
262,2	2,174
262,6	2,173
263,1	2,173
263,6	2,164
264	2,164
264,5	2,151
264,9	2,16
265,4	2,168
265,9	2,168
266,3	2,167
266,8	2,152
267,3	2,151
267,7	2,16
268,2	2,148
268,7	2,151
269,1	2,148
269,6	2,147
270	2,149
270,5	2,163
271	2,169
271,4	2,159
271,9	2,143
272,4	2,139
272,8	2,144
273,3	2,139
273,7	2,12
274,2	2,121
274,7	2,134
275,1	2,138
275,6	2,145
276,1	2,133
276,5	2,142
277	2,151
277,4	2,143
277,9	2,134
278,4	2,13
278,8	2,118
279,3	2,113
279,8	2,104
280,2	2,094
280,7	2,069
281,1	2,043
281,6	2,027
282,1	2,011
282,5	1,993
283	1,978
283,4	1,944
283,9	1,935
284,4	1,897
284,8	1,84
285,3	1,771
285,8	1,701
286,2	1,621
286,7	1,544
287,1	1,462
287,6	1,386
288,1	1,319
288,5	1,253
289	1,192
289,5	1,136
289,9	1,085
290,4	1,042
290,8	1,002
291,3	0,964
291,8	0,931
292,2	0,903
292,7	0,878
293,1	0,856
293,6	0,834
294,1	0,818
294,5	0,803
295	0,79
295,5	0,776
295,9	0,765
296,4	0,754
296,8	0,746
297,3	0,738
297,8	0,729
298,2	0,722
298,7	0,716
299,1	0,711
299,6	0,707
300,1	0,702
300,5	0,697
301	0,694
301,5	0,689
301,9	0,685
302,4	0,681
302,8	0,675
303,3	0,671
303,8	0,666
304,2	0,663
304,7	0,66
305,1	0,656
305,6	0,651
306,1	0,647
306,5	0,642
307	0,638
307,4	0,632
307,9	0,628
308,4	0,623
308,8	0,619
309,3	0,615
309,8	0,61
310,2	0,606
310,7	0,601
311,1	0,595
311,6	0,591
312,1	0,585
312,5	0,58
313	0,575
313,4	0,57
313,9	0,566
314,4	0,562
314,8	0,557
315,3	0,552
315,7	0,548
316,2	0,542
316,7	0,536
317,1	0,53
317,6	0,524
318	0,518
318,5	0,513
319	0,508
319,4	0,504
319,9	0,499
320,3	0,494
320,8	0,489
321,3	0,484
321,7	0,478
322,2	0,473
322,6	0,467
323,1	0,462
323,6	0,456
324	0,45
324,5	0,444
324,9	0,439
325,4	0,434
325,9	0,43
326,3	0,424
326,8	0,419
327,2	0,414
327,7	0,408
328,2	0,403
328,6	0,398
329,1	0,392
329,5	0,387
330	0,382
330,5	0,377
330,9	0,373
331,4	0,368
331,8	0,363
332,3	0,357
332,8	0,352
333,2	0,347
333,7	0,342
334,1	0,337
334,6	0,332
335,1	0,327
335,5	0,322
336	0,318
336,4	0,313
336,9	0,308
337,4	0,303
337,8	0,298
338,3	0,293
338,7	0,288
339,2	0,283
339,7	0,277
340,1	0,273
340,6	0,268
341	0,263
341,5	0,259
342	0,254
342,4	0,249
342,9	0,245
343,3	0,24
343,8	0,236
344,2	0,231
344,7	0,227
345,2	0,223
345,6	0,221
346,1	0,217
346,5	0,213
347	0,209
347,5	0,206
347,9	0,203
348,4	0,199
348,8	0,194
349,3	0,191
349,8	0,187
350,2	0,184
350,7	0,18
351,1	0,177
351,6	0,173
352	0,171
352,5	0,168
353	0,165
353,4	0,161
353,9	0,158
354,3	0,155
354,8	0,153
355,3	0,15
355,7	0,147
356,2	0,144
356,6	0,141
357,1	0,139
357,5	0,136
358	0,132
358,5	0,129
358,9	0,127
359,4	0,124
359,8	0,122
360,3	0,12
360,8	0,118
361,2	0,117
361,7	0,115
362,1	0,113
362,6	0,111
363	0,108
363,5	0,106
364	0,104
364,4	0,102
364,9	0,101
365,3	0,099
365,8	0,097
366,3	0,095
366,7	0,093
367,2	0,091
367,6	0,089
368,1	0,087
368,5	0,085
369	0,084
369,5	0,083
369,9	0,081
370,4	0,08
370,8	0,079
371,3	0,077
371,7	0,076
372,2	0,075
372,7	0,074
373,1	0,073
373,6	0,071
374	0,07
374,5	0,069
374,9	0,067
375,4	0,066
375,9	0,064
376,3	0,064
376,8	0,062
377,2	0,062
377,7	0,061
378,2	0,059
378,6	0,059
379,1	0,058
379,5	0,056
380	0,056
380,4	0,055
380,9	0,054
381,4	0,053
381,8	0,053
382,3	0,052
382,7	0,052
383,2	0,051
383,6	0,05
384,1	0,05
384,6	0,05
385	0,049
385,5	0,048
385,9	0,047
386,4	0,047
386,8	0,047
387,3	0,045
387,7	0,044
388,2	0,043
388,7	0,042
389,1	0,042
389,6	0,041
390	0,04
390,5	0,04
390,9	0,039
391,4	0,039
391,9	0,038
392,3	0,037
392,8	0,037
393,2	0,036
393,7	0,036
394,1	0,036
394,6	0,035
395,1	0,034
395,5	0,034
396	0,034
396,4	0,034
396,9	0,033
397,3	0,032
397,8	0,032
398,2	0,032
398,7	0,031
399,2	0,031
399,6	0,03
400,1	0,03
400,5	0,029
401	0,029
401,4	0,027
401,9	0,027
402,4	0,026
402,8	0,026
403,3	0,025
403,7	0,025
404,2	0,025
404,6	0,025
405,1	0,025
405,5	0,024
406	0,024
406,5	0,024
406,9	0,023
407,4	0,022
407,8	0,022
408,3	0,021
408,7	0,02
409,2	0,02
409,6	0,019
410,1	0,02
410,6	0,019
411	0,019
411,5	0,018
411,9	0,018
412,4	0,017
412,8	0,016
413,3	0,016
413,7	0,017
414,2	0,016
414,7	0,016
415,1	0,016
415,6	0,016
416	0,016
416,5	0,015
416,9	0,014
417,4	0,015
417,8	0,014
418,3	0,013
418,8	0,014
419,2	0,014
419,7	0,013
420,1	0,013
420,6	0,012
421	0,012
421,5	0,012
421,9	0,012
422,4	0,012
422,8	0,011
423,3	0,011
423,8	0,011
424,2	0,011
424,7	0,011
425,1	0,01
425,6	0,01
426	0,01
426,5	0,01
426,9	0,01
427,4	0,009
427,9	0,009
428,3	0,009
428,8	0,009
429,2	0,009
429,7	0,009
430,1	0,008
430,6	0,008
431	0,007
431,5	0,006
431,9	0,006
432,4	0,005
432,8	0,005
433,3	0,005
433,8	0,006
434,2	0,006
434,7	0,006
435,1	0,006
435,6	0,006
436	0,005
436,5	0,005
436,9	0,005
437,4	0,005
437,8	0,005
438,3	0,005
438,8	0,005
439,2	0,006
439,7	0,005
440,1	0,004
440,6	0,003
441	0,003
441,5	0,002
441,9	0,002
442,4	0,002
442,8	0,003
443,3	0,003
443,7	0,003
444,2	0,003
444,7	0,003
445,1	0,003
445,6	0,002
446	0,002
446,5	0,002
446,9	0,002
447,4	0,002
447,8	0,002
448,3	0,002
448,7	0,002
449,2	0,003
449,6	0,003
450,1	0,003
450,6	0,003
451	0,002
451,5	0,002
451,9	0,001
452,4	0,001
452,8	-0
453,3	-0,001
453,7	-0
454,2	-0
454,6	-0
455,1	0
455,5	0,001
456	0,001
456,4	0,002
456,9	0,001
457,3	0,001
457,8	0,001
458,3	0,001
458,7	0
459,2	0
459,6	-0
460,1	-0,001
460,5	-0,001
461	-0,001
461,4	-0
461,9	-0,001
462,3	-0,001
462,8	-0,001
463,2	-0
463,7	0
464,1	0
464,6	0
465	0,001
465,5	0,001
466	0,001
466,4	0,001
466,9	0
467,3	-0
467,8	-0,001
468,2	-0,001
468,7	-0,001
469,1	-0,001
469,6	-0,001
470	-0,001
470,5	-0,001
470,9	0
471,4	0
471,8	0
472,3	-0,001
472,7	-0,001
473,2	-0
473,6	-0,001
474,1	-0,001
474,5	-0,001
475	-0,001
475,4	-0
475,9	-0
476,4	-0
476,8	-0
477,3	-0
477,7	-0
478,2	-0
478,6	-0,001
479,1	-0,001
479,5	0
480	0,001
480,4	0,001
480,9	0,001
481,3	0,001
481,8	0,001
482,2	-0,001
482,7	-0,001
483,1	-0,001
483,6	-0,002
484	-0,002
484,5	-0,002
484,9	-0,002
485,4	-0,001
485,8	-0
486,3	-0,001
486,7	-0,001
487,2	-0,001
487,6	-0,001
488,1	-0,001
488,5	-0,001
489	-0,002
489,4	-0,002
489,9	-0
490,4	0,001
490,8	0,001
491,3	0
491,7	0
492,2	-0
492,6	0
493,1	-0
493,5	-0,001
494	-0
494,4	-0
494,9	-0
495,3	0
495,8	0
496,2	0
496,7	-0
497,1	0
497,6	0
498	0
498,5	0
498,9	0
499,4	-0
499,8	-0
500,3	-0,001
500,7	-0,001
501,2	-0,001
501,6	-0,001
502,1	-0,001
502,5	-0,001
503	-0,001
503,4	0
503,9	0
504,3	0,001
504,8	0,001
505,2	0,001
505,7	0,001
506,1	0,001
506,6	0
507	0
507,5	-0
507,9	-0
508,4	-0,001
508,8	-0,001
509,3	-0
509,7	-0,001
510,2	-0
510,6	-0
511,1	-0,001
511,5	-0,001
512	-0,001
512,4	-0,001
512,9	-0,001
513,3	-0,001
513,8	-0
514,2	-0
514,7	0
515,1	0,001
515,6	0,001
516	0,001
516,5	0,001
516,9	0
517,4	-0
517,8	-0,001
518,3	-0,001
518,7	-0,001
519,2	-0,001
519,6	-0,001
520,1	-0,001
520,5	-0,001
521	-0,001
521,4	-0,001
521,9	-0
522,3	-0
522,8	0
523,2	-0
523,7	0,001
524,1	0,001
524,6	0,001
525	0,001
525,5	0,001
525,9	0
526,4	0,001
526,8	0
527,3	-0
527,7	0,001
528,2	0
528,6	0
529,1	0,001
529,5	0,001
530	0,001
530,4	0,001
530,9	0,001
531,3	0,001
531,8	0,001
532,2	0,001
532,6	0,001
533,1	0,001
533,5	0,001
534	0
534,4	0
534,9	-0
535,3	-0,001
535,8	-0,001
536,2	-0,001
536,7	-0,002
537,1	-0,002
537,6	-0,002
538	-0,001
538,5	-0,001
538,9	-0,001
539,4	0
539,8	0
540,3	0,001
540,7	0,001
541,2	0,001
541,6	0,001
542,1	0
542,5	-0
543	-0,001
543,4	-0,001
543,9	-0,002
544,3	-0,002
544,8	-0,002
545,2	-0,003
545,7	-0,002
546,1	-0,001
546,5	-0,001
547	-0,001
547,4	-0,001
547,9	-0,001
548,3	-0
548,8	-0,001
549,2	-0,001
549,7	-0,001
550,1	-0,001
550,6	-0,001
551	-0,001
551,5	-0,001
551,9	-0,001
552,4	-0
552,8	0
553,3	0
553,7	0
554,2	0
554,6	-0
555,1	-0
555,5	-0
555,9	-0,001
556,4	-0,001
556,8	-0,001
557,3	-0,001
557,7	-0
558,2	-0
558,6	-0,001
559,1	-0
559,5	0
560	0
560,4	0
560,9	-0
561,3	-0
561,8	0
562,2	0
562,7	0
563,1	0
563,6	0
564	0,001
564,4	0,001
564,9	0,001
565,3	0,001
565,8	0,001
566,2	0,001
566,7	0,001
567,1	0,001
567,6	0,001
568	0,001
568,5	-0
568,9	-0
569,4	0
569,8	-0
570,3	0
570,7	0
571,1	-0
571,6	0
572	0
572,5	0
572,9	0
573,4	-0
573,8	-0
574,3	-0
574,7	-0,001
575,2	-0,001
575,6	-0,001
576,1	-0
576,5	-0
576,9	-0
577,4	-0
577,8	0
578,3	0
578,7	0
579,2	0
579,6	-0
580,1	0
580,5	0
581	0
581,4	0
581,9	0
582,3	-0
582,7	0
583,2	0
583,6	0,001
584,1	0,001
584,5	0
585	0,001
585,4	0,001
585,9	0
586,3	0
586,8	0
587,2	-0
587,6	-0
588,1	-0
588,5	-0
589	-0
589,4	-0
589,9	-0
590,3	-0
590,8	-0,001
591,2	-0
591,7	-0
592,1	0
592,5	0
593	0
593,4	0
593,9	0
594,3	-0
594,8	-0
595,2	-0
595,7	-0
596,1	-0
596,6	-0
597	0
597,4	0
597,9	0
598,3	-0
598,8	-0,001
599,2	-0,001
599,7	-0,001
600,1	-0,001
600,6	-0,001
601	-0,001
601,4	-0,001
601,9	-0,001
602,3	-0,001
602,8	-0,001
603,2	-0,001
603,7	-0,001
604,1	-0,001
604,6	-0,001
605	-0,001
605,4	-0,001
605,9	-0,001
606,3	-0
606,8	-0
607,2	-0,001
607,7	-0,001
608,1	-0
608,6	-0
609	-0
609,4	0
609,9	0
610,3	-0
610,8	-0
611,2	-0
611,7	0
612,1	-0
612,6	-0
613	-0,001
613,4	-0
613,9	-0
614,3	-0
614,8	-0,001
615,2	-0,001
615,7	-0,001
616,1	-0
616,6	-0
617	-0
617,4	-0
617,9	-0
618,3	-0
618,8	-0
619,2	0
619,7	0
620,1	0
620,5	0
621	0
621,4	0
621,9	0
622,3	0
622,8	0
623,2	0
623,6	0
624,1	0
624,5	0
625	0,001
625,4	0
625,9	0
626,3	-0
626,8	0
627,2	0
627,6	0
628,1	0
628,5	0
629	0,001
629,4	0,001
629,9	0,001
630,3	0
630,7	0,001
631,2	0,001
631,6	0,001
632,1	0
632,5	0
633	0
633,4	0
633,8	0
634,3	0
634,7	0
635,2	0,001
635,6	0,001
636,1	0,001
636,5	0
636,9	0
637,4	0
637,8	0
638,3	-0
638,7	0
639,2	-0
639,6	-0
640	-0
640,5	-0
640,9	0
641,4	-0
641,8	0
642,2	0
642,7	0,001
643,1	0,001
643,6	0,001
644	0,001
644,5	0,001
644,9	0
645,3	0,001
645,8	0
646,2	0
646,7	0,001
647,1	0,001
647,6	0,001
648	0,002
648,4	0,001
648,9	0,001
649,3	0,001
649,8	0,001
650,2	0,001
650,6	0
651,1	0
651,5	0
652	0
652,4	0
652,9	-0
653,3	0
653,7	0,001
654,2	0
654,6	-0
655,1	0
655,5	0
655,9	0
656,4	0
656,8	0
657,3	0
657,7	0,001
658,2	0,001
658,6	0,001
659	0,002
659,5	0,003
659,9	0,004
660,4	0,003
660,8	0,002
661,2	0,001
661,7	0,001
662,1	0
662,6	-0
663	-0
663,4	-0
663,9	-0,001
664,3	-0,001
664,8	-0,002
665,2	-0,001
665,6	-0,001
666,1	-0,001
666,5	-0,001
667	-0,001
667,4	-0,001
667,9	-0
668,3	-0
668,7	0
669,2	0,001
669,6	0
670,1	0
670,5	-0
670,9	-0
671,4	-0
671,8	-0
672,3	-0,001
672,7	-0,001
673,1	-0,001
673,6	-0,001
674	-0,001
674,5	-0,001
674,9	-0,001
675,3	-0,001
675,8	-0,001
676,2	-0,001
676,7	-0,001
677,1	-0,001
677,5	-0,001
678	-0,001
678,4	-0,001
678,9	-0,001
679,3	-0,001
679,7	-0,001
680,2	-0,001
680,6	-0,001
681,1	-0,001
681,5	-0
681,9	0
682,4	0
682,8	0
683,3	0
683,7	0
684,1	0
684,6	-0
685	-0,001
685,5	-0,001
685,9	-0,001
686,3	-0,001
686,8	-0,001
687,2	-0,001
687,7	-0,001
688,1	-0
688,5	0
689	0,001
689,4	0,001
689,9	0
690,3	0
690,7	0
691,2	0,001
691,6	0,001
692	0,001
692,5	0,001
692,9	0,001
693,4	0
693,8	0
694,2	0
694,7	0
695,1	-0
695,6	-0
696	-0
696,4	-0
696,9	-0
697,3	-0,001
697,8	-0,001
698,2	-0,001
698,6	-0
699,1	-0
699,5	-0
699,9	-0
700,4	0
700,8	0,001
701,3	0,001
701,7	0,001
702,1	0,001
702,6	0,001
703	0,001
703,5	0,001
703,9	0,001
704,3	0,001
704,8	0,001
705,2	0,001
705,6	0
706,1	0
706,5	0
707	0
707,4	-0
707,8	0
708,3	0
708,7	0
709,2	0
709,6	0
710	0,001
710,5	0,001
710,9	0
711,3	0
711,8	-0
712,2	0
712,7	-0
713,1	-0
713,5	-0
714	-0
714,4	-0
714,8	0
715,3	0
715,7	0
716,2	0
716,6	0
717	0
717,5	-0
717,9	-0,001
718,3	-0,001
718,8	-0,001
719,2	-0,001
719,7	-0,001
720,1	-0,001
720,5	-0
721	0
721,4	0
721,8	0
722,3	0,001
722,7	0
723,2	0
723,6	-0
724	-0,001
724,5	-0,001
724,9	-0,001
725,3	-0,001
725,8	-0,001
726,2	-0,001
726,7	-0
727,1	-0,001
727,5	-0,001
728	-0,001
728,4	-0,001
728,8	-0,001
729,3	-0,001
729,7	-0,001
730,1	-0,001
730,6	-0,001
731	-0,001
731,5	-0,001
731,9	-0
732,3	-0
732,8	-0
733,2	-0
733,6	-0
734,1	-0
734,5	-0
734,9	-0
735,4	0
735,8	0
736,3	0
736,7	0
737,1	0
737,6	0
738	-0
738,4	-0
738,9	-0
739,3	-0,001
739,7	-0,001
740,2	-0,001
740,6	-0,001
741,1	-0,001
741,5	-0,001
741,9	-0,001
742,4	-0
742,8	-0
743,2	-0
743,7	0
744,1	0
744,5	0
745	0
745,4	0
745,8	-0
746,3	-0
746,7	-0
747,2	-0,001
747,6	-0
748	-0
748,5	-0
748,9	-0
749,3	-0
749,8	0
750,2	0
750,6	0
751,1	0,001
751,5	0,001
751,9	0,001
752,4	0,001
752,8	0,001
753,3	0,001
753,7	0,001
754,1	0,001
754,6	0,001
755	0,001
755,4	0,001
755,9	0,001
756,3	0,001
756,7	0,001
757,2	0,001
757,6	0
758	0
758,5	0
758,9	0
759,3	-0
759,8	-0
760,2	-0
760,6	-0
761,1	-0
761,5	0
761,9	0,001
762,4	0,001
762,8	0,001
763,3	0,001
763,7	0,001
764,1	0,001
764,6	0,001
765	0,001
765,4	0,001
765,9	0,001
766,3	0,001
766,7	0,001
767,2	0,002
767,6	0,002
768	0,002
768,5	0,002
768,9	0,002
769,3	0,002
769,8	0,002
770,2	0,002
770,6	0,002
771,1	0,002
771,5	0,001
771,9	0,001
772,4	0,001
772,8	0,001
773,2	0,001
773,7	0,001
774,1	0,001
774,5	0,002
775	0,002
775,4	0,001
775,8	0,001
776,3	0,001
776,7	0,001
777,1	0,001
777,6	0
778	0
778,4	0
778,9	0
779,3	0
779,7	0
780,2	0
780,6	0
781	0
781,5	0
781,9	0
782,3	0
782,8	0
783,2	0
783,6	0,001
784,1	0
784,5	0
784,9	0
785,4	-0
785,8	-0
786,2	-0
786,7	-0,001
787,1	-0,001
787,5	-0,001
788	-0,001
788,4	-0,001
788,8	-0,001
789,3	-0,001
789,7	-0,001
790,1	-0
790,6	-0
791	-0,001
791,4	-0
791,9	-0
792,3	-0,001
792,7	-0,001
793,2	-0,001
793,6	-0,001
794	-0,001
794,5	-0,001
794,9	-0,001
795,3	-0
795,8	0
796,2	0
796,6	0,001
797,1	0,001
797,5	0,001
797,9	0,001
798,4	0,001
798,8	0,001
799,2	0,001
799,7	0,001
800,1	0
800,5	0
801	-0
801,4	-0
801,8	-0
802,2	-0
802,7	-0
803,1	-0
803,5	-0
804	0
804,4	0
804,8	0
805,3	-0
805,7	-0,001
806,1	-0,001
806,6	-0,001
807	-0,001
807,4	-0,001
807,9	-0,001
808,3	-0,001
808,7	-0
809,2	0
809,6	0
810	0
810,4	0
810,9	-0
811,3	-0
811,7	-0
812,2	0
812,6	0
813	0
813,5	-0
813,9	-0
814,3	-0
814,8	-0,001
815,2	-0,001
815,6	-0,002
816,1	-0,002
816,5	-0,002
816,9	-0,001
817,3	-0,002
817,8	-0,002
818,2	-0,001
818,6	-0,001
819,1	-0
819,5	-0
819,9	-0
820,4	-0
820,8	-0
821,2	-0
821,7	-0
822,1	-0,001
822,5	-0,001
822,9	-0,001
823,4	-0,001
823,8	-0,001
824,2	-0,002
824,7	-0,001
825,1	-0,002
825,5	-0,001
826	-0,001
826,4	-0,001
826,8	-0
827,3	-0
827,7	-0
828,1	0
828,5	0
829	0
829,4	0
829,8	0
830,3	0,001
830,7	0,001
831,1	0,001
831,6	0,001
832	0,001
832,4	0,001
832,8	0,001
833,3	0
833,7	0
834,1	-0
834,6	-0,001
835	-0,001
835,4	-0,001
835,8	-0,001
836,3	-0,001
836,7	-0,001
837,1	-0,001
837,6	-0,001
838	-0,001
838,4	-0,001
838,9	-0,001
839,3	0
839,7	0
840,1	0,001
840,6	0,001
841	0,001
841,4	0,001
841,9	0
842,3	-0
842,7	-0
843,1	-0
843,6	-0,001
844	-0
844,4	-0,001
844,9	-0
845,3	-0
845,7	-0
846,2	-0
846,6	-0
847	-0,001
847,4	-0
847,9	-0
848,3	-0
848,7	0
849,2	0
849,6	0
850	0
850,4	0,001
850,9	0
851,3	-0
851,7	0
852,2	0
852,6	0,001
853	0,001
853,4	0,001
853,9	0,002
854,3	0,002
854,7	0,002
855,2	0,002
855,6	0,002
856	0,002
856,4	0,002
856,9	0,002
857,3	0,002
857,7	0,001
858,2	0,001
858,6	0
859	-0
859,4	-0,001
859,9	-0
860,3	-0,001
860,7	-0,001
861,1	-0,001
861,6	-0
862	-0
862,4	-0
862,9	-0
863,3	0
863,7	-0
864,1	-0
864,6	-0
865	-0
865,4	-0
865,9	-0
866,3	-0
866,7	0
867,1	-0
867,6	-0
868	0
868,4	0
868,8	0
869,3	0
869,7	0
870,1	0
870,6	0,001
871	0
871,4	0
871,8	0
872,3	-0
872,7	-0
873,1	-0,001
873,5	-0,001
874	-0,001
874,4	-0,002
874,8	-0,001
875,3	-0,002
875,7	-0,002
876,1	-0,001
876,5	-0,001
877	-0,001
877,4	-0,001
877,8	-0,002
878,2	-0,002
878,7	-0,002
879,1	-0,002
879,5	-0,002
879,9	-0,002
880,4	-0,002
880,8	-0,001
881,2	-0,001
881,7	-0,001
882,1	-0
882,5	-0,001
882,9	-0,001
883,4	-0,001
883,8	-0,001
884,2	-0,001
884,6	-0,001
885,1	-0,001
885,5	-0,001
885,9	-0
886,3	-0
886,8	-0
887,2	-0
887,6	0
888	-0
888,5	0
888,9	-0
889,3	-0
889,8	-0
890,2	0
890,6	-0
891	0
891,5	0,001
891,9	0,001
892,3	0,001
892,7	0,001
893,2	0,001
893,6	0,001
894	0,001
894,4	0,001
894,9	0,001
895,3	0,001
895,7	0,001
896,1	0,001
896,6	0
897	0
897,4	-0
897,8	-0
898,3	-0,001
898,7	-0,001
899,1	-0,001
899,5	-0,001
900	-0,001
900,4	-0,001
900,8	-0,001
901,2	-0,001
901,7	-0,001
902,1	-0
902,5	-0,001
902,9	-0,001
903,4	-0,001
903,8	-0,001
904,2	-0
904,6	0
905,1	0
905,5	0
905,9	0
906,3	0
906,8	-0
907,2	-0
907,6	-0,001
908	-0,001
908,5	-0,001
908,9	-0,002
909,3	-0,002
909,7	-0,002
910,2	-0,002
910,6	-0,002
911	-0,002
911,4	-0,002
911,9	-0,001
912,3	-0,001
912,7	-0,001
913,1	-0,001
913,6	-0,001
914	-0,001
914,4	-0,001
914,8	-0,002
915,3	-0,002
915,7	-0,002
916,1	-0,001
916,5	-0,001
916,9	-0,001
917,4	-0,001
917,8	0
918,2	0
918,6	0,001
919,1	0,001
919,5	0,002
919,9	0,002
920,3	0,002
920,8	0,002
921,2	0,002
921,6	0,002
922	0,002
922,5	0,001
922,9	0,001
923,3	0,001
923,7	0
924,2	0
924,6	0,001
925	0
925,4	0,001
925,8	0,001
926,3	0
926,7	0
927,1	0
927,5	0
928	0
928,4	-0
928,8	-0
929,2	-0
929,7	-0
930,1	0
930,5	0
930,9	0
931,3	0
931,8	0,001
932,2	0
932,6	0
933	-0
933,5	-0
933,9	-0,001
934,3	-0,001
934,7	-0,001
935,2	-0
935,6	0
936	0
936,4	0
936,8	0,001
937,3	0,001
937,7	0,001
938,1	0
938,5	0
939	0
939,4	-0
939,8	-0,001
940,2	-0,001
940,6	-0,001
941,1	-0,001
941,5	-0,001
941,9	-0,001
942,3	-0,001
942,8	-0,001
943,2	-0,001
943,6	-0,001
944	-0,001
944,4	-0,001
944,9	-0,001
945,3	-0,001
945,7	-0
946,1	-0,001
946,6	-0
947	-0
947,4	-0
947,8	-0,001
948,2	-0,001
948,7	-0,002
949,1	-0,002
949,5	-0,002
949,9	-0,002
950,3	-0,002
950,8	-0,002
951,2	-0,002
951,6	-0,002
952	-0,001
952,5	-0,001
952,9	-0,001
953,3	-0
953,7	-0,001
954,1	-0,001
954,6	-0,001
955	-0,001
955,4	-0,001
955,8	-0
956,2	-0,001
956,7	-0,001
957,1	-0
957,5	-0
957,9	0
958,3	-0
958,8	-0
959,2	-0
959,6	-0,001
960	-0,001
960,5	-0,001
960,9	-0,002
961,3	-0,002
961,7	-0,001
962,1	-0,001
962,6	-0,001
963	-0,001
963,4	-0,001
963,8	-0,002
964,2	-0,002
964,7	-0,003
965,1	-0,002
965,5	-0,002
965,9	-0,002
966,3	-0
966,8	0
967,2	0,001
967,6	0,001
968	0,001
968,4	0,001
968,9	0,001
969,3	0
969,7	-0
970,1	-0
970,5	-0
971	-0
971,4	-0,001
971,8	-0,001
972,2	-0,001
972,6	-0
973,1	-0,001
973,5	-0,001
973,9	-0,001
974,3	-0,001
974,7	-0
975,2	0
975,6	-0
976	-0
976,4	-0
976,8	-0,001
977,3	-0
977,7	-0,001
978,1	-0,001
978,5	-0
978,9	0
979,4	0,001
979,8	0,001
980,2	0,001
980,6	0,001
981	0,001
981,5	0,001
981,9	0,001
982,3	0
982,7	0,001
983,1	0
983,6	0
984	-0,001
984,4	-0,001
984,8	-0,001
985,2	0
985,6	-0
986,1	-0
986,5	0
986,9	0
987,3	-0
987,7	0
988,2	-0,001
988,6	-0,001
989	-0,001
989,4	-0,002
989,8	-0,002
990,3	-0,002
990,7	-0,002
991,1	-0,002
991,5	-0,001
991,9	-0,001
992,3	-0,001
992,8	0
993,2	0
993,6	0,001
994	0,001
994,4	-0
994,9	-0
995,3	-0
995,7	-0
996,1	-0,001
996,5	-0,001
996,9	-0,001
997,4	0
997,8	0
998,2	0,001
998,6	0,001
999	0,002
999,5	0,002
999,9	0,003
1000,3	0,002
1000,7	0,002
1001,1	0,002
1001,5	0,002
1002	0,001
1002,4	-0
1002,8	-0,001
1003,2	-0,001
1003,6	-0,001
1004	-0,001
1004,5	-0,001
1004,9	-0,001
1005,3	0
1005,7	-0
1006,1	0
1006,6	0
1007	0
1007,4	0,001
1007,8	0,001
1008,2	0
1008,6	0
1009,1	-0,001
1009,5	-0,001
1009,9	-0,001
1010,3	-0,001
1010,7	-0,002
1011,1	-0,002
1011,6	-0,002
1012	-0,001
1012,4	-0,002
1012,8	-0,001
1013,2	-0,002
1013,6	-0,002
1014,1	-0,002
1014,5	-0,002
1014,9	-0,002
1015,3	-0,001
1015,7	-0,001
1016,1	-0,001
1016,6	-0,001
1017	-0,001
1017,4	-0,001
1017,8	-0,001
1018,2	-0,001
1018,6	0
1019,1	0
1019,5	-0
1019,9	0
1020,3	0,001
1020,7	0
1021,1	-0
1021,6	-0,001
1022	-0
1022,4	-0
1022,8	-0,001
1023,2	-0,001
1023,6	-0,001
1024,1	-0
1024,5	-0
1024,9	0
1025,3	0,001
1025,7	0,002
1026,1	0,002
1026,6	0,003
1027	0,003
1027,4	0,003
1027,8	0,002
1028,2	0,002
1028,6	0,002
1029	0,002
1029,5	0,003
1029,9	0,003
1030,3	0,003
1030,7	0,003
1031,1	0,003
1031,5	0,003
1032	0,003
1032,4	0,003
1032,8	0,002
1033,2	0,002
1033,6	0,003
1034	0,002
1034,4	0,002
1034,9	0,001
1035,3	0,001
1035,7	0,001
1036,1	0,001
1036,5	0
1036,9	-0
1037,4	-0,001
1037,8	0
1038,2	-0
1038,6	-0,001
1039	-0,001
1039,4	-0
1039,8	0
1040,3	-0
1040,7	-0,001
1041,1	-0,001
1041,5	0
1041,9	-0,001
1042,3	-0,001
1042,7	-0,001
1043,2	-0,001
1043,6	-0,001
1044	-0,001
1044,4	-0,001
1044,8	-0,001
1045,2	0
1045,6	0
1046,1	0
1046,5	0,001
1046,9	0,001
1047,3	0,002
1047,7	0,002
1048,1	0,001
1048,5	0,001
1049	0,001
1049,4	0,001
1049,8	0
1050,2	-0
1050,6	-0
1051	-0
1051,4	-0
1051,9	-0
1052,3	-0,001
1052,7	-0,001
1053,1	-0
1053,5	-0
1053,9	-0,001
1054,3	-0
1054,8	-0
1055,2	0
1055,6	0
1056	-0
1056,4	-0,001
1056,8	-0
1057,2	-0,001
1057,6	-0,001
1058,1	-0,002
1058,5	-0,002
1058,9	-0,002
1059,3	-0,002
1059,7	-0,002
1060,1	-0,002
1060,5	-0,002
1061	-0,001
1061,4	-0,002
1061,8	-0,001
1062,2	-0,002
1062,6	-0,003
1063	-0,002
1063,4	-0,003
1063,8	-0,003
1064,3	-0,002
1064,7	-0,003
1065,1	-0,002
1065,5	-0,002
1065,9	-0,003
1066,3	-0,002
1066,7	-0,002
1067,1	-0,003
1067,6	-0,003
1068	-0,003
1068,4	-0,002
1068,8	-0,002
1069,2	-0,003
1069,6	-0,004
1070	-0,004
1070,4	-0,003
1070,9	-0,003
1071,3	-0,002
1071,7	-0,001
1072,1	-0,001
1072,5	-0
1072,9	-0
1073,3	-0,001
1073,7	-0,001
1074,2	-0,002
1074,6	-0,002
1075	-0,002
1075,4	-0,002
1075,8	-0,001
1076,2	-0,001
1076,6	-0
1077	0
1077,5	-0,001
1077,9	-0,001
1078,3	-0,002
1078,7	-0,002
1079,1	-0,001
1079,5	-0,003
1079,9	-0,002
1080,3	-0,001
1080,7	-0
1081,2	0,001
1081,6	0,001
1082	0
1082,4	-0
1082,8	-0,003
1083,2	-0,005
1083,6	-0,004
1084	-0,004
1084,5	-0,003
1084,9	-0,002
1085,3	-0,001
1085,7	0,002
1086,1	0,003
1086,5	0,001
1086,9	0,001
1087,3	0,002
1087,7	0,003
1088,2	0,002
1088,6	0,001
1089	0,001
1089,4	0,004
1089,8	0,002
1090,2	-0,002
1090,6	-0,001
1091	0,001
1091,4	0,004
1091,9	0,001
1092,3	0
1092,7	0,002
1093,1	0,001
1093,5	-0,005
1093,9	-0,006
1094,3	-0,008
1094,7	-0,005
1095,1	-0,005
1095,5	-0,01
1096	-0,009
1096,4	-0,007
1096,8	-0,007
1097,2	-0,009
1097,6	-0,014
1098	-0,015
1098,4	-0,007
1098,8	-0,006
1099,2	-0,005
1099,6	-0,003
1100,1	-0,005
1100,5	0,004
1100,9	-0,001
1101,3	-0,004
1101,7	0,001
1102,1	-0,002
1102,5	0,001
1102,9	0,007
1103,3	-0,005
1103,7	-0,004
1104,2	-0,005
1104,6	-0,012
1105	-0,009
1105,4	-0,01
1105,8	-0,014
1106,2	0,001
1106,6	0,011
1107	0,012
1107,4	0,04
1107,8	0,058
1108,3	-0,125
