Data from Absorbance_00062.txt Node
Date: Fri Aug 11 13:25:58 MSK 2023
User: vat
Spectrometer: MAYP114033
Trigger mode: 0
Integration Time (sec): 8,000000E-3
Scans to average: 10
Electric dark correction enabled: true
Nonlinearity correction enabled: false
Boxcar width: 3
XAxis mode: Wavelengths
Number of Pixels in Spectrum: 2068
>>>>>Begin Spectral Data<<<<<
199,4	-0
199,9	0,056
200,4	0,413
200,8	0,686
201,3	0,838
201,8	0,897
202,2	0,941
202,7	0,969
203,2	1,025
203,6	1,05
204,1	1,083
204,6	1,092
205	1,113
205,5	1,108
206	1,114
206,4	1,128
206,9	1,147
207,4	1,158
207,8	1,175
208,3	1,218
208,8	1,24
209,2	1,248
209,7	1,245
210,2	1,262
210,6	1,287
211,1	1,296
211,5	1,296
212	1,329
212,5	1,358
212,9	1,394
213,4	1,407
213,9	1,388
214,3	1,411
214,8	1,42
215,3	1,414
215,7	1,443
216,2	1,453
216,7	1,483
217,1	1,534
217,6	1,541
218,1	1,55
218,5	1,565
219	1,553
219,5	1,546
219,9	1,548
220,4	1,56
220,9	1,585
221,3	1,587
221,8	1,608
222,3	1,619
222,7	1,639
223,2	1,643
223,6	1,667
224,1	1,674
224,6	1,698
225	1,709
225,5	1,738
226	1,759
226,4	1,781
226,9	1,767
227,4	1,787
227,8	1,794
228,3	1,824
228,8	1,832
229,2	1,844
229,7	1,869
230,2	1,879
230,6	1,893
231,1	1,896
231,5	1,909
232	1,921
232,5	1,933
232,9	1,942
233,4	1,959
233,9	1,954
234,3	1,967
234,8	1,956
235,3	1,965
235,7	1,971
236,2	1,961
236,7	1,974
237,1	1,984
237,6	1,997
238,1	2,009
238,5	2,016
239	2,029
239,4	2,054
239,9	2,067
240,4	2,065
240,8	2,084
241,3	2,1
241,8	2,13
242,2	2,116
242,7	2,094
243,2	2,101
243,6	2,117
244,1	2,092
244,6	2,078
245	2,074
245,5	2,086
245,9	2,106
246,4	2,109
246,9	2,122
247,3	2,138
247,8	2,148
248,3	2,133
248,7	2,154
249,2	2,131
249,7	2,124
250,1	2,104
250,6	2,095
251	2,1
251,5	2,094
252	2,087
252,4	2,117
252,9	2,128
253,4	2,142
253,8	2,155
254,3	2,149
254,8	2,165
255,2	2,166
255,7	2,158
256,1	2,152
256,6	2,161
257,1	2,168
257,5	2,178
258	2,18
258,5	2,18
258,9	2,179
259,4	2,191
259,9	2,173
260,3	2,189
260,8	2,199
261,2	2,205
261,7	2,223
262,2	2,217
262,6	2,212
263,1	2,223
263,6	2,209
264	2,195
264,5	2,197
264,9	2,203
265,4	2,205
265,9	2,203
266,3	2,199
266,8	2,199
267,3	2,193
267,7	2,187
268,2	2,178
268,7	2,181
269,1	2,167
269,6	2,173
270	2,161
270,5	2,19
271	2,191
271,4	2,183
271,9	2,182
272,4	2,18
272,8	2,173
273,3	2,173
273,7	2,14
274,2	2,122
274,7	2,125
275,1	2,114
275,6	2,117
276,1	2,106
276,5	2,116
277	2,121
277,4	2,126
277,9	2,11
278,4	2,119
278,8	2,116
279,3	2,125
279,8	2,121
280,2	2,123
280,7	2,119
281,1	2,101
281,6	2,097
282,1	2,079
282,5	2,07
283	2,058
283,4	2,046
283,9	2,024
284,4	2,005
284,8	1,977
285,3	1,939
285,8	1,885
286,2	1,815
286,7	1,74
287,1	1,673
287,6	1,602
288,1	1,525
288,5	1,451
289	1,378
289,5	1,315
289,9	1,254
290,4	1,195
290,8	1,14
291,3	1,09
291,8	1,045
292,2	1,003
292,7	0,964
293,1	0,929
293,6	0,897
294,1	0,869
294,5	0,845
295	0,821
295,5	0,802
295,9	0,783
296,4	0,769
296,8	0,754
297,3	0,741
297,8	0,729
298,2	0,718
298,7	0,711
299,1	0,703
299,6	0,695
300,1	0,688
300,5	0,683
301	0,676
301,5	0,672
301,9	0,666
302,4	0,662
302,8	0,657
303,3	0,653
303,8	0,648
304,2	0,644
304,7	0,639
305,1	0,635
305,6	0,63
306,1	0,625
306,5	0,62
307	0,616
307,4	0,611
307,9	0,607
308,4	0,603
308,8	0,598
309,3	0,595
309,8	0,591
310,2	0,586
310,7	0,581
311,1	0,577
311,6	0,57
312,1	0,565
312,5	0,559
313	0,554
313,4	0,549
313,9	0,544
314,4	0,539
314,8	0,536
315,3	0,532
315,7	0,528
316,2	0,524
316,7	0,519
317,1	0,514
317,6	0,509
318	0,504
318,5	0,499
319	0,493
319,4	0,487
319,9	0,482
320,3	0,477
320,8	0,472
321,3	0,467
321,7	0,461
322,2	0,456
322,6	0,451
323,1	0,446
323,6	0,441
324	0,436
324,5	0,429
324,9	0,425
325,4	0,421
325,9	0,416
326,3	0,411
326,8	0,405
327,2	0,401
327,7	0,397
328,2	0,392
328,6	0,387
329,1	0,382
329,5	0,377
330	0,372
330,5	0,368
330,9	0,363
331,4	0,359
331,8	0,353
332,3	0,348
332,8	0,343
333,2	0,339
333,7	0,335
334,1	0,33
334,6	0,325
335,1	0,32
335,5	0,315
336	0,311
336,4	0,306
336,9	0,301
337,4	0,296
337,8	0,291
338,3	0,286
338,7	0,282
339,2	0,277
339,7	0,272
340,1	0,268
340,6	0,263
341	0,259
341,5	0,255
342	0,25
342,4	0,246
342,9	0,243
343,3	0,239
343,8	0,235
344,2	0,231
344,7	0,227
345,2	0,224
345,6	0,22
346,1	0,217
346,5	0,213
347	0,209
347,5	0,205
347,9	0,201
348,4	0,198
348,8	0,193
349,3	0,189
349,8	0,186
350,2	0,182
350,7	0,179
351,1	0,176
351,6	0,173
352	0,17
352,5	0,167
353	0,164
353,4	0,161
353,9	0,159
354,3	0,155
354,8	0,152
355,3	0,15
355,7	0,147
356,2	0,144
356,6	0,142
357,1	0,139
357,5	0,136
358	0,133
358,5	0,131
358,9	0,129
359,4	0,125
359,8	0,123
360,3	0,121
360,8	0,119
361,2	0,116
361,7	0,114
362,1	0,112
362,6	0,11
363	0,107
363,5	0,105
364	0,103
364,4	0,101
364,9	0,099
365,3	0,097
365,8	0,095
366,3	0,094
366,7	0,092
367,2	0,091
367,6	0,089
368,1	0,087
368,5	0,086
369	0,084
369,5	0,083
369,9	0,081
370,4	0,08
370,8	0,078
371,3	0,077
371,7	0,076
372,2	0,074
372,7	0,073
373,1	0,071
373,6	0,07
374	0,069
374,5	0,067
374,9	0,065
375,4	0,064
375,9	0,062
376,3	0,062
376,8	0,061
377,2	0,061
377,7	0,059
378,2	0,058
378,6	0,058
379,1	0,057
379,5	0,056
380	0,055
380,4	0,054
380,9	0,053
381,4	0,052
381,8	0,051
382,3	0,05
382,7	0,049
383,2	0,048
383,6	0,047
384,1	0,047
384,6	0,046
385	0,046
385,5	0,045
385,9	0,045
386,4	0,044
386,8	0,043
387,3	0,042
387,7	0,041
388,2	0,04
388,7	0,04
389,1	0,039
389,6	0,038
390	0,037
390,5	0,037
390,9	0,036
391,4	0,036
391,9	0,035
392,3	0,034
392,8	0,033
393,2	0,033
393,7	0,032
394,1	0,032
394,6	0,031
395,1	0,031
395,5	0,031
396	0,031
396,4	0,03
396,9	0,03
397,3	0,03
397,8	0,03
398,2	0,029
398,7	0,029
399,2	0,028
399,6	0,028
400,1	0,028
400,5	0,027
401	0,027
401,4	0,025
401,9	0,025
402,4	0,024
402,8	0,024
403,3	0,023
403,7	0,022
404,2	0,023
404,6	0,023
405,1	0,023
405,5	0,023
406	0,022
406,5	0,022
406,9	0,021
407,4	0,02
407,8	0,019
408,3	0,019
408,7	0,018
409,2	0,018
409,6	0,018
410,1	0,018
410,6	0,018
411	0,018
411,5	0,018
411,9	0,018
412,4	0,017
412,8	0,017
413,3	0,016
413,7	0,016
414,2	0,015
414,7	0,015
415,1	0,015
415,6	0,014
416	0,014
416,5	0,014
416,9	0,014
417,4	0,014
417,8	0,013
418,3	0,013
418,8	0,013
419,2	0,013
419,7	0,013
420,1	0,012
420,6	0,012
421	0,013
421,5	0,013
421,9	0,012
422,4	0,012
422,8	0,012
423,3	0,012
423,8	0,011
424,2	0,011
424,7	0,011
425,1	0,01
425,6	0,01
426	0,01
426,5	0,009
426,9	0,009
427,4	0,008
427,9	0,008
428,3	0,008
428,8	0,008
429,2	0,008
429,7	0,008
430,1	0,007
430,6	0,007
431	0,006
431,5	0,006
431,9	0,006
432,4	0,005
432,8	0,005
433,3	0,006
433,8	0,006
434,2	0,006
434,7	0,006
435,1	0,006
435,6	0,006
436	0,006
436,5	0,005
436,9	0,005
437,4	0,005
437,8	0,005
438,3	0,005
438,8	0,005
439,2	0,005
439,7	0,004
440,1	0,004
440,6	0,002
441	0,003
441,5	0,002
441,9	0,003
442,4	0,002
442,8	0,002
443,3	0,002
443,7	0,003
444,2	0,003
444,7	0,003
445,1	0,003
445,6	0,003
446	0,003
446,5	0,003
446,9	0,003
447,4	0,003
447,8	0,003
448,3	0,004
448,7	0,004
449,2	0,003
449,6	0,004
450,1	0,003
450,6	0,003
451	0,003
451,5	0,002
451,9	0,002
452,4	0,002
452,8	0,001
453,3	0,001
453,7	0,001
454,2	0,001
454,6	0,001
455,1	0,001
455,5	0,001
456	0,002
456,4	0,002
456,9	0,002
457,3	0,002
457,8	0,002
458,3	0,001
458,7	0,001
459,2	0
459,6	-0
460,1	-0
460,5	-0,001
461	-0,001
461,4	-0
461,9	-0,001
462,3	-0,001
462,8	-0,001
463,2	-0,001
463,7	-0,001
464,1	-0,001
464,6	-0,001
465	0
465,5	0,001
466	0,001
466,4	0,001
466,9	0,001
467,3	0,001
467,8	0,001
468,2	0,001
468,7	0
469,1	-0
469,6	0
470	0
470,5	0
470,9	0
471,4	0
471,8	0
472,3	0
472,7	-0
473,2	-0
473,6	0
474,1	-0
474,5	0
475	0,001
475,4	0,001
475,9	0,001
476,4	0,001
476,8	0,001
477,3	0,001
477,7	0
478,2	0
478,6	0
479,1	0
479,5	0,001
480	0,001
480,4	0,001
480,9	0,002
481,3	0,002
481,8	0,002
482,2	0,001
482,7	0,001
483,1	0,001
483,6	0,001
484	0
484,5	-0,001
484,9	-0,001
485,4	-0
485,8	0,001
486,3	0,001
486,7	0
487,2	0
487,6	0
488,1	0
488,5	0
489	-0,001
489,4	-0,001
489,9	0,001
490,4	0,001
490,8	0,001
491,3	0,002
491,7	0,001
492,2	0,001
492,6	0,001
493,1	0,001
493,5	0,001
494	0,001
494,4	0,001
494,9	0,002
495,3	0,002
495,8	0,002
496,2	0,002
496,7	0,002
497,1	0,001
497,6	0,001
498	0
498,5	0
498,9	0
499,4	0
499,8	-0
500,3	-0,001
500,7	-0
501,2	0
501,6	0
502,1	-0
502,5	0
503	0
503,4	0,001
503,9	0,001
504,3	0,001
504,8	0,001
505,2	0,001
505,7	0,001
506,1	0,001
506,6	0,001
507	0,001
507,5	0,001
507,9	0,001
508,4	0
508,8	0
509,3	0,001
509,7	0
510,2	0,001
510,6	0,001
511,1	0,001
511,5	0,001
512	0
512,4	0
512,9	0,001
513,3	0
513,8	0,001
514,2	0
514,7	0,001
515,1	0,001
515,6	0,001
516	-0
516,5	0
516,9	-0
517,4	0
517,8	-0,001
518,3	-0
518,7	-0,001
519,2	-0,001
519,6	-0,001
520,1	-0,001
520,5	-0,001
521	-0
521,4	-0,001
521,9	-0
522,3	0,001
522,8	0,001
523,2	0
523,7	0,001
524,1	0,001
524,6	0,001
525	0,002
525,5	0,002
525,9	0,001
526,4	0,001
526,8	0,001
527,3	0,002
527,7	0,002
528,2	0,001
528,6	0
529,1	0,001
529,5	0,001
530	0,001
530,4	0,001
530,9	0,002
531,3	0,002
531,8	0,002
532,2	0,002
532,6	0,002
533,1	0,002
533,5	0,001
534	0,001
534,4	0
534,9	0
535,3	0
535,8	-0
536,2	-0,001
536,7	-0
537,1	-0,001
537,6	-0
538	0
538,5	0,001
538,9	0,001
539,4	0,001
539,8	0,001
540,3	0,001
540,7	0,001
541,2	0,001
541,6	0,001
542,1	0,001
542,5	0,001
543	0
543,4	0
543,9	-0
544,3	-0,001
544,8	-0,001
545,2	-0,002
545,7	-0,001
546,1	-0,001
546,5	-0
547	-0
547,4	0,001
547,9	0,001
548,3	0,001
548,8	0,001
549,2	0,001
549,7	0,001
550,1	0,001
550,6	0
551	0,001
551,5	0,001
551,9	0,001
552,4	0,001
552,8	0,001
553,3	0,001
553,7	0,001
554,2	0,001
554,6	0,001
555,1	0,001
555,5	0
555,9	-0
556,4	-0
556,8	0
557,3	0
557,7	0
558,2	0,001
558,6	0
559,1	0
559,5	0
560	-0
560,4	-0,001
560,9	-0,001
561,3	-0,001
561,8	-0,001
562,2	-0,001
562,7	-0
563,1	0
563,6	0,001
564	0,001
564,4	0,002
564,9	0,001
565,3	0,001
565,8	0,001
566,2	0,001
566,7	0,001
567,1	0,001
567,6	0,001
568	0,001
568,5	0
568,9	0
569,4	0,001
569,8	0,001
570,3	0,001
570,7	0,001
571,1	0,001
571,6	0,001
572	0,001
572,5	0,001
572,9	0,001
573,4	0,001
573,8	0,001
574,3	0,001
574,7	0
575,2	0
575,6	0
576,1	0
576,5	0,001
576,9	0,001
577,4	0,001
577,8	0,001
578,3	0,001
578,7	0,001
579,2	0,001
579,6	0,001
580,1	0,001
580,5	0,001
581	0,001
581,4	0,001
581,9	0,001
582,3	0,001
582,7	0,001
583,2	0,001
583,6	0,002
584,1	0,002
584,5	0,001
585	0,002
585,4	0,002
585,9	0,002
586,3	0,001
586,8	0,001
587,2	0,001
587,6	0,001
588,1	0,001
588,5	0,001
589	0,001
589,4	0,001
589,9	0,001
590,3	0,001
590,8	0
591,2	0
591,7	0,001
592,1	0,001
592,5	0,001
593	0,001
593,4	0,001
593,9	0,001
594,3	0,001
594,8	0,001
595,2	0,002
595,7	0,002
596,1	0,001
596,6	0,001
597	0,001
597,4	0,001
597,9	0,001
598,3	0,001
598,8	0
599,2	0
599,7	0
600,1	0
600,6	0
601	0
601,4	-0
601,9	-0
602,3	-0
602,8	-0
603,2	-0
603,7	-0
604,1	-0
604,6	-0
605	0
605,4	0
605,9	0
606,3	0
606,8	0,001
607,2	0,001
607,7	0,001
608,1	0,001
608,6	0,001
609	0,002
609,4	0,002
609,9	0,001
610,3	0,001
610,8	0,001
611,2	0,001
611,7	0,001
612,1	0
612,6	0
613	0
613,4	0
613,9	0
614,3	0
614,8	0
615,2	0
615,7	0
616,1	0
616,6	0,001
617	0
617,4	0
617,9	0
618,3	0,001
618,8	0,001
619,2	0
619,7	0,001
620,1	0,001
620,5	0,001
621	0,001
621,4	0,001
621,9	0,001
622,3	0,001
622,8	0,002
623,2	0,002
623,6	0,002
624,1	0,002
624,5	0,002
625	0,001
625,4	0,001
625,9	0,001
626,3	0,001
626,8	0,001
627,2	0,001
627,6	0,001
628,1	0,001
628,5	0,002
629	0,002
629,4	0,002
629,9	0,002
630,3	0,001
630,7	0,001
631,2	0,002
631,6	0,001
632,1	0,001
632,5	0,001
633	0,001
633,4	0,001
633,8	0,001
634,3	0,001
634,7	0,001
635,2	0,001
635,6	0,001
636,1	0,001
636,5	0,001
636,9	0,001
637,4	0,001
637,8	0
638,3	0
638,7	0
639,2	-0
639,6	0
640	0
640,5	0
640,9	0,001
641,4	0,001
641,8	0,001
642,2	0,001
642,7	0,001
643,1	0,001
643,6	0,001
644	0,001
644,5	0,001
644,9	0,001
645,3	0,002
645,8	0,002
646,2	0,001
646,7	0,002
647,1	0,002
647,6	0,002
648	0,002
648,4	0,002
648,9	0,002
649,3	0,002
649,8	0,002
650,2	0,002
650,6	0,001
651,1	0,001
651,5	0,001
652	0,001
652,4	0,001
652,9	0
653,3	0,001
653,7	0,001
654,2	0,001
654,6	0,001
655,1	0,001
655,5	0
655,9	0
656,4	0
656,8	0
657,3	0,001
657,7	0,001
658,2	0,001
658,6	0,002
659	0,003
659,5	0,004
659,9	0,005
660,4	0,004
660,8	0,003
661,2	0,002
661,7	0,002
662,1	0,001
662,6	0,001
663	0,001
663,4	0,001
663,9	0,001
664,3	0
664,8	0
665,2	0
665,6	0
666,1	0,001
666,5	0,001
667	0,001
667,4	0,001
667,9	0,001
668,3	0,001
668,7	0,001
669,2	0,001
669,6	0,001
670,1	0,001
670,5	0,001
670,9	0
671,4	0
671,8	-0
672,3	0
672,7	0
673,1	0
673,6	0
674	0
674,5	0
674,9	0,001
675,3	0
675,8	0
676,2	0
676,7	0
677,1	-0
677,5	-0
678	-0
678,4	0
678,9	0
679,3	0
679,7	0,001
680,2	0,001
680,6	0,001
681,1	0,001
681,5	0,001
681,9	0,001
682,4	0,001
682,8	0,001
683,3	0,001
683,7	0,001
684,1	0,001
684,6	0,001
685	0
685,5	0
685,9	0
686,3	0
686,8	0
687,2	0
687,7	0
688,1	0,001
688,5	0,001
689	0,001
689,4	0,001
689,9	0,001
690,3	0,001
690,7	0,001
691,2	0,001
691,6	0,001
692	0,001
692,5	0,001
692,9	0,002
693,4	0,002
693,8	0,002
694,2	0,002
694,7	0,002
695,1	0,002
695,6	0,002
696	0,001
696,4	0,001
696,9	0,002
697,3	0,001
697,8	0,001
698,2	0,001
698,6	0,001
699,1	0,001
699,5	0
699,9	0
700,4	0
700,8	0,001
701,3	0,001
701,7	0,001
702,1	0,001
702,6	0,001
703	0,001
703,5	0,002
703,9	0,002
704,3	0,002
704,8	0,002
705,2	0,002
705,6	0,002
706,1	0,002
706,5	0,001
707	0,001
707,4	0,001
707,8	0,001
708,3	0,001
708,7	0,001
709,2	0,001
709,6	0,001
710	0,001
710,5	0,001
710,9	0,001
711,3	0,001
711,8	0,001
712,2	0,001
712,7	0,001
713,1	0,001
713,5	0,001
714	0,001
714,4	0
714,8	0
715,3	0
715,7	0
716,2	0
716,6	0
717	0,001
717,5	0,001
717,9	0
718,3	0
718,8	-0
719,2	-0
719,7	0
720,1	0
720,5	0,001
721	0,001
721,4	0,002
721,8	0,002
722,3	0,001
722,7	0,001
723,2	0,001
723,6	0,001
724	0
724,5	0
724,9	0
725,3	0
725,8	0
726,2	0
726,7	0
727,1	0
727,5	0,001
728	0
728,4	0
728,8	-0,001
729,3	-0,001
729,7	-0,001
730,1	-0,001
730,6	-0,001
731	-0
731,5	0
731,9	0,001
732,3	0,001
732,8	0,001
733,2	0,001
733,6	0,001
734,1	0,001
734,5	0,001
734,9	0,001
735,4	0,002
735,8	0,002
736,3	0,002
736,7	0,001
737,1	0,001
737,6	0,001
738	0,001
738,4	0,001
738,9	0,001
739,3	0,001
739,7	0,001
740,2	0,001
740,6	0,001
741,1	0,001
741,5	0
741,9	0
742,4	0,001
742,8	0,001
743,2	0,001
743,7	0,002
744,1	0,002
744,5	0,002
745	0,002
745,4	0,002
745,8	0,002
746,3	0,001
746,7	0,001
747,2	0
747,6	0,001
748	0,001
748,5	0,001
748,9	0,001
749,3	0,001
749,8	0,001
750,2	0,002
750,6	0,002
751,1	0,002
751,5	0,002
751,9	0,002
752,4	0,002
752,8	0,002
753,3	0,003
753,7	0,003
754,1	0,002
754,6	0,002
755	0,002
755,4	0,003
755,9	0,002
756,3	0,002
756,7	0,002
757,2	0,002
757,6	0,002
758	0,002
758,5	0,001
758,9	0,001
759,3	0,001
759,8	0,001
760,2	0,001
760,6	0,001
761,1	0,001
761,5	0,002
761,9	0,002
762,4	0,002
762,8	0,002
763,3	0,002
763,7	0,002
764,1	0,002
764,6	0,002
765	0,002
765,4	0,002
765,9	0,003
766,3	0,003
766,7	0,003
767,2	0,003
767,6	0,003
768	0,004
768,5	0,004
768,9	0,004
769,3	0,004
769,8	0,003
770,2	0,003
770,6	0,003
771,1	0,002
771,5	0,002
771,9	0,002
772,4	0,002
772,8	0,002
773,2	0,002
773,7	0,002
774,1	0,003
774,5	0,003
775	0,003
775,4	0,003
775,8	0,003
776,3	0,003
776,7	0,003
777,1	0,002
777,6	0,002
778	0,002
778,4	0,002
778,9	0,002
779,3	0,002
779,7	0,002
780,2	0,002
780,6	0,002
781	0,002
781,5	0,002
781,9	0,002
782,3	0,002
782,8	0,002
783,2	0,002
783,6	0,002
784,1	0,002
784,5	0,002
784,9	0,002
785,4	0,002
785,8	0,001
786,2	0,001
786,7	0,001
787,1	0
787,5	0
788	0
788,4	0
788,8	0
789,3	0,001
789,7	0,001
790,1	0,001
790,6	0,001
791	0
791,4	0
791,9	0,001
792,3	0
792,7	0,001
793,2	0,001
793,6	0,001
794	0,001
794,5	0,001
794,9	0,001
795,3	0,002
795,8	0,002
796,2	0,002
796,6	0,002
797,1	0,002
797,5	0,002
797,9	0,002
798,4	0,002
798,8	0,002
799,2	0,002
799,7	0,002
800,1	0,001
800,5	0,001
801	0,001
801,4	0,001
801,8	0,001
802,2	0,001
802,7	0
803,1	0,001
803,5	0,001
804	0,001
804,4	0,001
804,8	0,001
805,3	0,001
805,7	0,001
806,1	0
806,6	0,001
807	0,001
807,4	0
807,9	0,001
808,3	0,001
808,7	0,001
809,2	0,002
809,6	0,001
810	0,001
810,4	0,001
810,9	0,001
811,3	0,001
811,7	0,001
812,2	0,001
812,6	0,002
813	0,001
813,5	0,001
813,9	0,001
814,3	0,001
814,8	0,001
815,2	0
815,6	0
816,1	0
816,5	0
816,9	0
817,3	0
817,8	0
818,2	-0
818,6	0
819,1	0
819,5	0
819,9	0
820,4	0
820,8	-0
821,2	-0
821,7	-0
822,1	-0
822,5	-0,001
822,9	-0,001
823,4	-0
823,8	-0
824,2	-0
824,7	-0
825,1	0
825,5	0
826	0,001
826,4	0,001
826,8	0,001
827,3	0,001
827,7	0,001
828,1	0,001
828,5	0,001
829	0,001
829,4	0,001
829,8	0,001
830,3	0,001
830,7	0,002
831,1	0,001
831,6	0,001
832	0,001
832,4	0,001
832,8	0,001
833,3	0,001
833,7	0,001
834,1	0,001
834,6	0
835	0
835,4	0
835,8	-0
836,3	-0
836,7	-0
837,1	-0,001
837,6	-0
838	-0
838,4	-0
838,9	-0
839,3	0
839,7	0,001
840,1	0,001
840,6	0,002
841	0,002
841,4	0,002
841,9	0,002
842,3	0,001
842,7	0,001
843,1	0,001
843,6	0,001
844	0,001
844,4	0,001
844,9	0,001
845,3	0,001
845,7	0,001
846,2	0,001
846,6	0,002
847	0,001
847,4	0,001
847,9	0,002
848,3	0,002
848,7	0,002
849,2	0,002
849,6	0,002
850	0,002
850,4	0,002
850,9	0,002
851,3	0,002
851,7	0,002
852,2	0,002
852,6	0,002
853	0,002
853,4	0,002
853,9	0,003
854,3	0,003
854,7	0,003
855,2	0,003
855,6	0,003
856	0,003
856,4	0,003
856,9	0,003
857,3	0,003
857,7	0,002
858,2	0,002
858,6	0,001
859	0
859,4	0
859,9	-0
860,3	-0
860,7	-0
861,1	0
861,6	0
862	0
862,4	0
862,9	0,001
863,3	0,001
863,7	0
864,1	0
864,6	0
865	0
865,4	0
865,9	0
866,3	0
866,7	0
867,1	0
867,6	0,001
868	0,001
868,4	0,001
868,8	0,001
869,3	0,001
869,7	0,001
870,1	0,001
870,6	0,001
871	0,001
871,4	0,001
871,8	0
872,3	0
872,7	-0
873,1	-0
873,5	-0,001
874	-0,001
874,4	-0,001
874,8	-0,001
875,3	-0,001
875,7	-0,001
876,1	-0,001
876,5	-0
877	-0,001
877,4	-0,001
877,8	-0,001
878,2	-0,001
878,7	-0,001
879,1	-0,001
879,5	-0
879,9	-0
880,4	-0
880,8	-0
881,2	0
881,7	0,001
882,1	0,001
882,5	0,001
882,9	0,001
883,4	0,001
883,8	0,001
884,2	0,001
884,6	0,001
885,1	0,001
885,5	0
885,9	0
886,3	0,001
886,8	0,001
887,2	0,001
887,6	0,001
888	0,001
888,5	0,001
888,9	0,001
889,3	0,001
889,8	0,001
890,2	0,002
890,6	0,002
891	0,002
891,5	0,002
891,9	0,002
892,3	0,002
892,7	0,002
893,2	0,002
893,6	0,002
894	0,002
894,4	0,002
894,9	0,001
895,3	0,002
895,7	0,001
896,1	0,001
896,6	0,001
897	0,001
897,4	0,001
897,8	0
898,3	0
898,7	0
899,1	0
899,5	0
900	-0
900,4	0
900,8	-0
901,2	-0
901,7	-0
902,1	-0,001
902,5	-0,001
902,9	-0,001
903,4	-0,001
903,8	-0,001
904,2	-0,001
904,6	-0
905,1	0
905,5	0
905,9	0
906,3	0,001
906,8	0
907,2	-0
907,6	-0
908	-0,001
908,5	-0,001
908,9	-0,001
909,3	-0,001
909,7	-0,001
910,2	-0,001
910,6	-0,001
911	-0,001
911,4	-0
911,9	-0
912,3	-0
912,7	-0
913,1	0
913,6	-0
914	-0
914,4	-0
914,8	-0
915,3	-0
915,7	-0
916,1	-0
916,5	0
916,9	0
917,4	0
917,8	0,001
918,2	0,001
918,6	0,001
919,1	0,002
919,5	0,002
919,9	0,003
920,3	0,003
920,8	0,003
921,2	0,002
921,6	0,002
922	0,002
922,5	0,001
922,9	0,001
923,3	0,001
923,7	0
924,2	0,001
924,6	0,001
925	0,001
925,4	0,001
925,8	0,001
926,3	0,001
926,7	0,001
927,1	0,001
927,5	0,002
928	0,002
928,4	0,002
928,8	0,002
929,2	0,002
929,7	0,002
930,1	0,002
930,5	0,002
930,9	0,002
931,3	0,001
931,8	0,001
932,2	0,001
932,6	0,001
933	0
933,5	0
933,9	-0
934,3	0
934,7	0,001
935,2	0,001
935,6	0,002
936	0,002
936,4	0,002
936,8	0,002
937,3	0,002
937,7	0,001
938,1	0,001
938,5	0
939	-0
939,4	-0
939,8	-0
940,2	-0
940,6	-0,001
941,1	-0,001
941,5	0
941,9	0
942,3	0
942,8	0
943,2	-0
943,6	-0
944	-0
944,4	-0
944,9	0
945,3	0
945,7	0
946,1	-0
946,6	0
947	0
947,4	-0
947,8	-0,001
948,2	-0,001
948,7	-0,002
949,1	-0,002
949,5	-0,002
949,9	-0,003
950,3	-0,003
950,8	-0,003
951,2	-0,003
951,6	-0,002
952	-0,002
952,5	-0,002
952,9	-0,002
953,3	-0,001
953,7	-0,001
954,1	-0,001
954,6	-0,002
955	-0,001
955,4	-0,001
955,8	-0
956,2	-0
956,7	0
957,1	0,001
957,5	0,001
957,9	0,002
958,3	0,002
958,8	0,001
959,2	0,001
959,6	0,001
960	0,001
960,5	0
960,9	0
961,3	0
961,7	0
962,1	0,001
962,6	0
963	0,001
963,4	0
963,8	0
964,2	-0
964,7	-0
965,1	-0,001
965,5	-0
965,9	-0
966,3	0,001
966,8	0,002
967,2	0,002
967,6	0,002
968	0,003
968,4	0,002
968,9	0,001
969,3	0,001
969,7	0,001
970,1	0,001
970,5	0
971	0,001
971,4	0
971,8	0
972,2	-0
972,6	-0,001
973,1	-0,001
973,5	-0,002
973,9	-0,001
974,3	-0,001
974,7	-0,001
975,2	-0
975,6	-0
976	-0
976,4	0
976,8	0
977,3	0
977,7	0
978,1	0
978,5	0,001
978,9	0,002
979,4	0,001
979,8	0,001
980,2	0,002
980,6	0,002
981	0,002
981,5	0,003
981,9	0,002
982,3	0,002
982,7	0,003
983,1	0,003
983,6	0,003
984	0,002
984,4	0,001
984,8	0,001
985,2	0,001
985,6	0,001
986,1	0
986,5	0
986,9	0
987,3	-0
987,7	0,001
988,2	0
988,6	0
989	-0
989,4	-0
989,8	-0
990,3	0
990,7	-0,001
991,1	-0,001
991,5	-0,001
991,9	-0
992,3	-0
992,8	-0
993,2	-0
993,6	0
994	0,001
994,4	0
994,9	-0
995,3	0
995,7	0
996,1	0
996,5	0
996,9	0
997,4	0,001
997,8	0,001
998,2	0,001
998,6	0,001
999	0,001
999,5	0,001
999,9	0,002
1000,3	0,002
1000,7	0,002
1001,1	0,002
1001,5	0,002
1002	0,001
1002,4	0,001
1002,8	0,001
1003,2	0
1003,6	-0
1004	-0
1004,5	-0,001
1004,9	-0
1005,3	0
1005,7	-0
1006,1	0
1006,6	0
1007	0,001
1007,4	0
1007,8	0
1008,2	-0
1008,6	-0
1009,1	-0,001
1009,5	-0,001
1009,9	-0,001
1010,3	-0,001
1010,7	-0,001
1011,1	-0,001
1011,6	-0,001
1012	-0
1012,4	-0,001
1012,8	-0,001
1013,2	-0,001
1013,6	-0,001
1014,1	-0
1014,5	-0,001
1014,9	-0
1015,3	0
1015,7	-0
1016,1	-0
1016,6	0
1017	-0
1017,4	-0,001
1017,8	-0,001
1018,2	-0,001
1018,6	-0
1019,1	-0,001
1019,5	-0,001
1019,9	-0
1020,3	0,001
1020,7	0,001
1021,1	0,001
1021,6	0,001
1022	0,002
1022,4	0,001
1022,8	0,001
1023,2	0,001
1023,6	0,001
1024,1	0,002
1024,5	0,002
1024,9	0,002
1025,3	0,003
1025,7	0,004
1026,1	0,004
1026,6	0,005
1027	0,005
1027,4	0,004
1027,8	0,004
1028,2	0,004
1028,6	0,004
1029	0,004
1029,5	0,003
1029,9	0,003
1030,3	0,003
1030,7	0,003
1031,1	0,003
1031,5	0,003
1032	0,003
1032,4	0,003
1032,8	0,003
1033,2	0,002
1033,6	0,003
1034	0,003
1034,4	0,002
1034,9	0,002
1035,3	0,002
1035,7	0,002
1036,1	0,002
1036,5	0,002
1036,9	0,002
1037,4	0,002
1037,8	0,003
1038,2	0,002
1038,6	0,001
1039	0,001
1039,4	0,001
1039,8	0,002
1040,3	0,002
1040,7	0,001
1041,1	0,002
1041,5	0,002
1041,9	0,001
1042,3	0,001
1042,7	0
1043,2	0
1043,6	-0
1044	-0
1044,4	-0
1044,8	-0
1045,2	-0
1045,6	0
1046,1	0,001
1046,5	0,001
1046,9	0,001
1047,3	0,001
1047,7	0
1048,1	0,001
1048,5	0
1049	-0,001
1049,4	-0
1049,8	-0
1050,2	-0
1050,6	-0,001
1051	-0,001
1051,4	-0,002
1051,9	-0,002
1052,3	-0,002
1052,7	-0,002
1053,1	-0,002
1053,5	-0,001
1053,9	-0,001
1054,3	-0,001
1054,8	-0
1055,2	-0,001
1055,6	-0
1056	-0
1056,4	-0
1056,8	0
1057,2	0,001
1057,6	0
1058,1	-0
1058,5	-0,001
1058,9	-0,002
1059,3	-0,002
1059,7	-0,002
1060,1	-0,003
1060,5	-0,004
1061	-0,004
1061,4	-0,004
1061,8	-0,003
1062,2	-0,004
1062,6	-0,004
1063	-0,003
1063,4	-0,003
1063,8	-0,002
1064,3	-0,001
1064,7	-0,001
1065,1	0
1065,5	-0
1065,9	-0
1066,3	0
1066,7	0
1067,1	-0
1067,6	-0
1068	-0,001
1068,4	0,001
1068,8	-0
1069,2	-0
1069,6	-0,001
1070	-0
1070,4	-0,001
1070,9	-0,001
1071,3	-0
1071,7	-0,001
1072,1	-0,001
1072,5	-0,001
1072,9	-0,001
1073,3	-0
1073,7	0,001
1074,2	0
1074,6	0,001
1075	0,001
1075,4	0
1075,8	0,001
1076,2	0
1076,6	0
1077	-0
1077,5	-0,001
1077,9	-0,001
1078,3	0
1078,7	0
1079,1	0
1079,5	-0,002
1079,9	-0,001
1080,3	-0
1080,7	-0,001
1081,2	-0,001
1081,6	-0,001
1082	-0,002
1082,4	-0,002
1082,8	-0,003
1083,2	-0,004
1083,6	-0,003
1084	-0,003
1084,5	-0,003
1084,9	-0
1085,3	0,001
1085,7	0,001
1086,1	0,002
1086,5	0,002
1086,9	0,003
1087,3	0,004
1087,7	0,003
1088,2	0,002
1088,6	0,003
1089	0,003
1089,4	0,004
1089,8	0,004
1090,2	0,001
1090,6	0,002
1091	0,005
1091,4	0,007
1091,9	0,004
1092,3	0,001
1092,7	0,003
1093,1	0,004
1093,5	0,002
1093,9	0
1094,3	-0,002
1094,7	0,002
1095,1	0,007
1095,5	0,006
1096	0,005
1096,4	0,004
1096,8	0,003
1097,2	0,003
1097,6	-0,001
1098	-0,003
1098,4	-0,006
1098,8	-0
1099,2	-0,002
1099,6	-0,004
1100,1	-0,005
1100,5	-0,003
1100,9	-0,006
1101,3	0,004
1101,7	0,005
1102,1	0,002
1102,5	0,001
1102,9	-0,002
1103,3	-0,006
1103,7	-0,005
1104,2	-0,019
1104,6	-0,021
1105	-0,014
1105,4	-0,005
1105,8	0,003
1106,2	0,011
1106,6	0,02
1107	0,026
1107,4	0,027
1107,8	0,029
1108,3	-0
