Data from Absorbance_00045.txt Node
Date: Fri Aug 11 13:09:40 MSK 2023
User: vat
Spectrometer: MAYP114033
Trigger mode: 0
Integration Time (sec): 8,000000E-3
Scans to average: 10
Electric dark correction enabled: true
Nonlinearity correction enabled: false
Boxcar width: 3
XAxis mode: Wavelengths
Number of Pixels in Spectrum: 2068
>>>>>Begin Spectral Data<<<<<
199,4	-0,145
199,9	0,271
200,4	0,485
200,8	0,723
201,3	0,87
201,8	0,913
202,2	0,94
202,7	0,965
203,2	1,017
203,6	1,046
204,1	1,082
204,6	1,098
205	1,108
205,5	1,124
206	1,133
206,4	1,15
206,9	1,155
207,4	1,167
207,8	1,176
208,3	1,213
208,8	1,219
209,2	1,23
209,7	1,234
210,2	1,263
210,6	1,276
211,1	1,301
211,5	1,313
212	1,341
212,5	1,377
212,9	1,413
213,4	1,42
213,9	1,405
214,3	1,392
214,8	1,41
215,3	1,418
215,7	1,423
216,2	1,419
216,7	1,446
217,1	1,494
217,6	1,536
218,1	1,543
218,5	1,545
219	1,546
219,5	1,558
219,9	1,575
220,4	1,592
220,9	1,601
221,3	1,611
221,8	1,651
222,3	1,671
222,7	1,676
223,2	1,661
223,6	1,669
224,1	1,677
224,6	1,687
225	1,694
225,5	1,716
226	1,743
226,4	1,77
226,9	1,777
227,4	1,779
227,8	1,794
228,3	1,817
228,8	1,839
229,2	1,856
229,7	1,875
230,2	1,892
230,6	1,931
231,1	1,934
231,5	1,931
232	1,938
232,5	1,929
232,9	1,923
233,4	1,933
233,9	1,922
234,3	1,941
234,8	1,946
235,3	1,944
235,7	1,969
236,2	1,999
236,7	2,015
237,1	2,028
237,6	2,031
238,1	2,037
238,5	2,045
239	2,045
239,4	2,041
239,9	2,052
240,4	2,057
240,8	2,052
241,3	2,056
241,8	2,082
242,2	2,086
242,7	2,077
243,2	2,075
243,6	2,075
244,1	2,081
244,6	2,085
245	2,072
245,5	2,071
245,9	2,1
246,4	2,116
246,9	2,136
247,3	2,14
247,8	2,14
248,3	2,139
248,7	2,161
249,2	2,148
249,7	2,125
250,1	2,116
250,6	2,119
251	2,127
251,5	2,137
252	2,138
252,4	2,161
252,9	2,166
253,4	2,166
253,8	2,177
254,3	2,183
254,8	2,182
255,2	2,178
255,7	2,156
256,1	2,151
256,6	2,161
257,1	2,162
257,5	2,17
258	2,174
258,5	2,17
258,9	2,183
259,4	2,195
259,9	2,202
260,3	2,214
260,8	2,209
261,2	2,226
261,7	2,249
262,2	2,24
262,6	2,257
263,1	2,247
263,6	2,232
264	2,225
264,5	2,201
264,9	2,184
265,4	2,175
265,9	2,16
266,3	2,163
266,8	2,159
267,3	2,15
267,7	2,151
268,2	2,157
268,7	2,155
269,1	2,138
269,6	2,139
270	2,14
270,5	2,154
271	2,159
271,4	2,151
271,9	2,162
272,4	2,186
272,8	2,172
273,3	2,173
273,7	2,164
274,2	2,161
274,7	2,175
275,1	2,175
275,6	2,174
276,1	2,176
276,5	2,173
277	2,184
277,4	2,178
277,9	2,151
278,4	2,154
278,8	2,16
279,3	2,156
279,8	2,155
280,2	2,141
280,7	2,131
281,1	2,129
281,6	2,119
282,1	2,102
282,5	2,092
283	2,088
283,4	2,088
283,9	2,098
284,4	2,101
284,8	2,088
285,3	2,061
285,8	2,051
286,2	2,006
286,7	1,949
287,1	1,892
287,6	1,824
288,1	1,762
288,5	1,7
289	1,624
289,5	1,553
289,9	1,489
290,4	1,42
290,8	1,353
291,3	1,286
291,8	1,223
292,2	1,167
292,7	1,114
293,1	1,063
293,6	1,017
294,1	0,977
294,5	0,942
295	0,91
295,5	0,879
295,9	0,853
296,4	0,83
296,8	0,809
297,3	0,791
297,8	0,773
298,2	0,756
298,7	0,744
299,1	0,733
299,6	0,722
300,1	0,712
300,5	0,702
301	0,694
301,5	0,687
301,9	0,679
302,4	0,672
302,8	0,665
303,3	0,66
303,8	0,654
304,2	0,649
304,7	0,644
305,1	0,638
305,6	0,633
306,1	0,628
306,5	0,623
307	0,617
307,4	0,612
307,9	0,606
308,4	0,602
308,8	0,598
309,3	0,593
309,8	0,588
310,2	0,584
310,7	0,579
311,1	0,574
311,6	0,568
312,1	0,561
312,5	0,556
313	0,552
313,4	0,547
313,9	0,543
314,4	0,538
314,8	0,533
315,3	0,529
315,7	0,524
316,2	0,518
316,7	0,513
317,1	0,508
317,6	0,503
318	0,498
318,5	0,494
319	0,49
319,4	0,485
319,9	0,481
320,3	0,476
320,8	0,471
321,3	0,465
321,7	0,46
322,2	0,454
322,6	0,45
323,1	0,445
323,6	0,441
324	0,435
324,5	0,431
324,9	0,427
325,4	0,423
325,9	0,417
326,3	0,413
326,8	0,408
327,2	0,404
327,7	0,4
328,2	0,394
328,6	0,39
329,1	0,385
329,5	0,38
330	0,375
330,5	0,37
330,9	0,366
331,4	0,362
331,8	0,358
332,3	0,352
332,8	0,347
333,2	0,343
333,7	0,339
334,1	0,335
334,6	0,329
335,1	0,325
335,5	0,321
336	0,316
336,4	0,312
336,9	0,307
337,4	0,302
337,8	0,297
338,3	0,293
338,7	0,289
339,2	0,285
339,7	0,28
340,1	0,276
340,6	0,272
341	0,267
341,5	0,262
342	0,257
342,4	0,252
342,9	0,248
343,3	0,243
343,8	0,239
344,2	0,235
344,7	0,231
345,2	0,227
345,6	0,224
346,1	0,22
346,5	0,216
347	0,212
347,5	0,209
347,9	0,205
348,4	0,202
348,8	0,197
349,3	0,194
349,8	0,191
350,2	0,188
350,7	0,185
351,1	0,182
351,6	0,178
352	0,175
352,5	0,172
353	0,169
353,4	0,165
353,9	0,162
354,3	0,159
354,8	0,156
355,3	0,153
355,7	0,15
356,2	0,147
356,6	0,144
357,1	0,141
357,5	0,138
358	0,135
358,5	0,131
358,9	0,129
359,4	0,127
359,8	0,126
360,3	0,123
360,8	0,121
361,2	0,119
361,7	0,117
362,1	0,114
362,6	0,111
363	0,108
363,5	0,106
364	0,104
364,4	0,102
364,9	0,101
365,3	0,099
365,8	0,096
366,3	0,095
366,7	0,093
367,2	0,09
367,6	0,088
368,1	0,086
368,5	0,084
369	0,083
369,5	0,081
369,9	0,079
370,4	0,078
370,8	0,077
371,3	0,075
371,7	0,075
372,2	0,073
372,7	0,072
373,1	0,071
373,6	0,07
374	0,068
374,5	0,067
374,9	0,065
375,4	0,063
375,9	0,062
376,3	0,062
376,8	0,06
377,2	0,06
377,7	0,059
378,2	0,058
378,6	0,057
379,1	0,056
379,5	0,054
380	0,053
380,4	0,052
380,9	0,051
381,4	0,051
381,8	0,05
382,3	0,049
382,7	0,049
383,2	0,048
383,6	0,047
384,1	0,046
384,6	0,046
385	0,045
385,5	0,044
385,9	0,043
386,4	0,042
386,8	0,041
387,3	0,04
387,7	0,038
388,2	0,037
388,7	0,036
389,1	0,035
389,6	0,035
390	0,034
390,5	0,033
390,9	0,033
391,4	0,032
391,9	0,032
392,3	0,031
392,8	0,031
393,2	0,03
393,7	0,03
394,1	0,03
394,6	0,029
395,1	0,028
395,5	0,028
396	0,028
396,4	0,028
396,9	0,027
397,3	0,026
397,8	0,026
398,2	0,026
398,7	0,026
399,2	0,026
399,6	0,025
400,1	0,025
400,5	0,025
401	0,024
401,4	0,023
401,9	0,023
402,4	0,022
402,8	0,022
403,3	0,022
403,7	0,022
404,2	0,022
404,6	0,022
405,1	0,022
405,5	0,022
406	0,021
406,5	0,02
406,9	0,019
407,4	0,018
407,8	0,018
408,3	0,017
408,7	0,017
409,2	0,017
409,6	0,017
410,1	0,017
410,6	0,017
411	0,017
411,5	0,017
411,9	0,016
412,4	0,016
412,8	0,016
413,3	0,016
413,7	0,015
414,2	0,015
414,7	0,015
415,1	0,015
415,6	0,015
416	0,015
416,5	0,014
416,9	0,014
417,4	0,014
417,8	0,013
418,3	0,013
418,8	0,012
419,2	0,012
419,7	0,012
420,1	0,012
420,6	0,012
421	0,012
421,5	0,012
421,9	0,012
422,4	0,011
422,8	0,011
423,3	0,011
423,8	0,01
424,2	0,01
424,7	0,009
425,1	0,009
425,6	0,009
426	0,009
426,5	0,009
426,9	0,009
427,4	0,009
427,9	0,009
428,3	0,009
428,8	0,009
429,2	0,009
429,7	0,009
430,1	0,008
430,6	0,008
431	0,008
431,5	0,008
431,9	0,007
432,4	0,007
432,8	0,006
433,3	0,006
433,8	0,007
434,2	0,007
434,7	0,006
435,1	0,007
435,6	0,007
436	0,007
436,5	0,006
436,9	0,006
437,4	0,006
437,8	0,006
438,3	0,006
438,8	0,006
439,2	0,006
439,7	0,006
440,1	0,005
440,6	0,004
441	0,004
441,5	0,004
441,9	0,004
442,4	0,004
442,8	0,004
443,3	0,004
443,7	0,004
444,2	0,005
444,7	0,004
445,1	0,004
445,6	0,004
446	0,004
446,5	0,004
446,9	0,004
447,4	0,004
447,8	0,004
448,3	0,004
448,7	0,004
449,2	0,005
449,6	0,005
450,1	0,005
450,6	0,004
451	0,004
451,5	0,004
451,9	0,004
452,4	0,003
452,8	0,003
453,3	0,002
453,7	0,003
454,2	0,003
454,6	0,003
455,1	0,003
455,5	0,003
456	0,004
456,4	0,004
456,9	0,004
457,3	0,004
457,8	0,004
458,3	0,003
458,7	0,003
459,2	0,003
459,6	0,002
460,1	0,002
460,5	0,002
461	0,001
461,4	0,002
461,9	0,001
462,3	0,001
462,8	0
463,2	0,001
463,7	0,001
464,1	0,001
464,6	0,002
465	0,002
465,5	0,003
466	0,003
466,4	0,003
466,9	0,003
467,3	0,003
467,8	0,004
468,2	0,004
468,7	0,004
469,1	0,003
469,6	0,003
470	0,002
470,5	0,002
470,9	0,002
471,4	0,001
471,8	0,001
472,3	0,001
472,7	0,001
473,2	0,002
473,6	0,001
474,1	0,001
474,5	0,002
475	0,001
475,4	0,001
475,9	0,001
476,4	0,002
476,8	0,002
477,3	0,002
477,7	0,002
478,2	0,002
478,6	0,002
479,1	0,002
479,5	0,002
480	0,002
480,4	0,002
480,9	0,002
481,3	0,002
481,8	0,001
482,2	0,001
482,7	0,001
483,1	0,001
483,6	0,001
484	0,001
484,5	0,001
484,9	0,001
485,4	0,002
485,8	0,002
486,3	0,002
486,7	0,002
487,2	0,002
487,6	0,003
488,1	0,003
488,5	0,003
489	0,002
489,4	0,003
489,9	0,003
490,4	0,003
490,8	0,003
491,3	0,003
491,7	0,003
492,2	0,003
492,6	0,003
493,1	0,003
493,5	0,003
494	0,003
494,4	0,003
494,9	0,003
495,3	0,003
495,8	0,003
496,2	0,004
496,7	0,003
497,1	0,003
497,6	0,002
498	0,003
498,5	0,003
498,9	0,003
499,4	0,003
499,8	0,002
500,3	0,002
500,7	0,002
501,2	0,002
501,6	0,001
502,1	0,002
502,5	0,001
503	0,002
503,4	0,002
503,9	0,002
504,3	0,002
504,8	0,003
505,2	0,003
505,7	0,003
506,1	0,004
506,6	0,003
507	0,004
507,5	0,003
507,9	0,002
508,4	0,002
508,8	0,001
509,3	0,001
509,7	0,002
510,2	0,002
510,6	0,003
511,1	0,002
511,5	0,002
512	0,002
512,4	0,002
512,9	0,003
513,3	0,002
513,8	0,003
514,2	0,004
514,7	0,004
515,1	0,004
515,6	0,003
516	0,003
516,5	0,004
516,9	0,004
517,4	0,003
517,8	0,003
518,3	0,003
518,7	0,003
519,2	0,003
519,6	0,003
520,1	0,003
520,5	0,003
521	0,003
521,4	0,003
521,9	0,003
522,3	0,004
522,8	0,003
523,2	0,003
523,7	0,003
524,1	0,003
524,6	0,003
525	0,003
525,5	0,002
525,9	0,002
526,4	0,003
526,8	0,003
527,3	0,002
527,7	0,003
528,2	0,003
528,6	0,003
529,1	0,003
529,5	0,003
530	0,003
530,4	0,003
530,9	0,003
531,3	0,004
531,8	0,004
532,2	0,003
532,6	0,003
533,1	0,004
533,5	0,004
534	0,004
534,4	0,004
534,9	0,003
535,3	0,003
535,8	0,003
536,2	0,003
536,7	0,002
537,1	0,001
537,6	0,001
538	0,002
538,5	0,001
538,9	0,002
539,4	0,002
539,8	0,003
540,3	0,003
540,7	0,004
541,2	0,003
541,6	0,004
542,1	0,003
542,5	0,003
543	0,003
543,4	0,003
543,9	0,003
544,3	0,002
544,8	0,002
545,2	0,002
545,7	0,002
546,1	0,002
546,5	0,003
547	0,003
547,4	0,003
547,9	0,003
548,3	0,004
548,8	0,003
549,2	0,003
549,7	0,003
550,1	0,003
550,6	0,003
551	0,003
551,5	0,003
551,9	0,004
552,4	0,004
552,8	0,004
553,3	0,004
553,7	0,004
554,2	0,004
554,6	0,004
555,1	0,003
555,5	0,003
555,9	0,003
556,4	0,003
556,8	0,003
557,3	0,003
557,7	0,002
558,2	0,002
558,6	0,002
559,1	0,002
559,5	0,002
560	0,002
560,4	0,002
560,9	0,003
561,3	0,003
561,8	0,003
562,2	0,003
562,7	0,003
563,1	0,003
563,6	0,003
564	0,004
564,4	0,004
564,9	0,003
565,3	0,003
565,8	0,003
566,2	0,003
566,7	0,003
567,1	0,003
567,6	0,003
568	0,004
568,5	0,003
568,9	0,003
569,4	0,003
569,8	0,004
570,3	0,003
570,7	0,003
571,1	0,003
571,6	0,003
572	0,003
572,5	0,003
572,9	0,003
573,4	0,003
573,8	0,003
574,3	0,003
574,7	0,003
575,2	0,003
575,6	0,003
576,1	0,003
576,5	0,003
576,9	0,003
577,4	0,003
577,8	0,003
578,3	0,003
578,7	0,003
579,2	0,003
579,6	0,003
580,1	0,003
580,5	0,003
581	0,003
581,4	0,004
581,9	0,003
582,3	0,003
582,7	0,003
583,2	0,003
583,6	0,003
584,1	0,003
584,5	0,003
585	0,003
585,4	0,003
585,9	0,003
586,3	0,003
586,8	0,003
587,2	0,003
587,6	0,003
588,1	0,003
588,5	0,003
589	0,003
589,4	0,003
589,9	0,003
590,3	0,003
590,8	0,003
591,2	0,003
591,7	0,003
592,1	0,004
592,5	0,004
593	0,004
593,4	0,004
593,9	0,004
594,3	0,004
594,8	0,004
595,2	0,004
595,7	0,004
596,1	0,003
596,6	0,004
597	0,003
597,4	0,003
597,9	0,003
598,3	0,003
598,8	0,003
599,2	0,003
599,7	0,003
600,1	0,003
600,6	0,003
601	0,003
601,4	0,003
601,9	0,002
602,3	0,002
602,8	0,002
603,2	0,002
603,7	0,002
604,1	0,003
604,6	0,003
605	0,003
605,4	0,003
605,9	0,003
606,3	0,003
606,8	0,003
607,2	0,003
607,7	0,003
608,1	0,003
608,6	0,003
609	0,003
609,4	0,003
609,9	0,002
610,3	0,003
610,8	0,003
611,2	0,003
611,7	0,003
612,1	0,003
612,6	0,003
613	0,003
613,4	0,003
613,9	0,003
614,3	0,003
614,8	0,003
615,2	0,003
615,7	0,003
616,1	0,003
616,6	0,003
617	0,003
617,4	0,003
617,9	0,002
618,3	0,003
618,8	0,002
619,2	0,002
619,7	0,002
620,1	0,002
620,5	0,003
621	0,002
621,4	0,003
621,9	0,003
622,3	0,003
622,8	0,003
623,2	0,003
623,6	0,003
624,1	0,003
624,5	0,004
625	0,004
625,4	0,003
625,9	0,003
626,3	0,003
626,8	0,003
627,2	0,003
627,6	0,003
628,1	0,003
628,5	0,003
629	0,003
629,4	0,003
629,9	0,003
630,3	0,003
630,7	0,004
631,2	0,004
631,6	0,004
632,1	0,004
632,5	0,003
633	0,003
633,4	0,003
633,8	0,003
634,3	0,003
634,7	0,003
635,2	0,004
635,6	0,004
636,1	0,004
636,5	0,004
636,9	0,004
637,4	0,004
637,8	0,004
638,3	0,003
638,7	0,003
639,2	0,003
639,6	0,003
640	0,003
640,5	0,004
640,9	0,004
641,4	0,004
641,8	0,004
642,2	0,004
642,7	0,004
643,1	0,003
643,6	0,003
644	0,003
644,5	0,003
644,9	0,003
645,3	0,003
645,8	0,004
646,2	0,004
646,7	0,004
647,1	0,005
647,6	0,005
648	0,004
648,4	0,004
648,9	0,004
649,3	0,004
649,8	0,004
650,2	0,003
650,6	0,003
651,1	0,003
651,5	0,003
652	0,003
652,4	0,003
652,9	0,003
653,3	0,003
653,7	0,004
654,2	0,004
654,6	0,003
655,1	0,003
655,5	0,002
655,9	0,001
656,4	0,001
656,8	0,001
657,3	0,001
657,7	0,001
658,2	0,001
658,6	0,002
659	0,002
659,5	0,004
659,9	0,005
660,4	0,004
660,8	0,004
661,2	0,003
661,7	0,003
662,1	0,003
662,6	0,003
663	0,003
663,4	0,003
663,9	0,003
664,3	0,003
664,8	0,003
665,2	0,003
665,6	0,003
666,1	0,003
666,5	0,003
667	0,003
667,4	0,003
667,9	0,004
668,3	0,003
668,7	0,003
669,2	0,003
669,6	0,003
670,1	0,003
670,5	0,003
670,9	0,003
671,4	0,003
671,8	0,003
672,3	0,003
672,7	0,003
673,1	0,003
673,6	0,002
674	0,003
674,5	0,003
674,9	0,003
675,3	0,003
675,8	0,003
676,2	0,003
676,7	0,003
677,1	0,003
677,5	0,003
678	0,003
678,4	0,003
678,9	0,002
679,3	0,002
679,7	0,003
680,2	0,003
680,6	0,002
681,1	0,002
681,5	0,002
681,9	0,002
682,4	0,002
682,8	0,002
683,3	0,002
683,7	0,002
684,1	0,002
684,6	0,002
685	0,002
685,5	0,003
685,9	0,003
686,3	0,002
686,8	0,003
687,2	0,003
687,7	0,003
688,1	0,003
688,5	0,004
689	0,004
689,4	0,004
689,9	0,004
690,3	0,004
690,7	0,004
691,2	0,004
691,6	0,004
692	0,004
692,5	0,004
692,9	0,004
693,4	0,004
693,8	0,004
694,2	0,003
694,7	0,003
695,1	0,003
695,6	0,003
696	0,003
696,4	0,003
696,9	0,003
697,3	0,003
697,8	0,003
698,2	0,002
698,6	0,002
699,1	0,002
699,5	0,002
699,9	0,002
700,4	0,002
700,8	0,003
701,3	0,003
701,7	0,003
702,1	0,003
702,6	0,004
703	0,004
703,5	0,004
703,9	0,004
704,3	0,004
704,8	0,004
705,2	0,003
705,6	0,003
706,1	0,003
706,5	0,002
707	0,002
707,4	0,002
707,8	0,002
708,3	0,002
708,7	0,002
709,2	0,002
709,6	0,003
710	0,003
710,5	0,003
710,9	0,003
711,3	0,003
711,8	0,003
712,2	0,003
712,7	0,003
713,1	0,003
713,5	0,003
714	0,003
714,4	0,002
714,8	0,003
715,3	0,003
715,7	0,003
716,2	0,003
716,6	0,003
717	0,003
717,5	0,003
717,9	0,002
718,3	0,002
718,8	0,002
719,2	0,002
719,7	0,002
720,1	0,002
720,5	0,002
721	0,002
721,4	0,003
721,8	0,003
722,3	0,003
722,7	0,003
723,2	0,003
723,6	0,003
724	0,003
724,5	0,002
724,9	0,003
725,3	0,003
725,8	0,003
726,2	0,003
726,7	0,003
727,1	0,003
727,5	0,003
728	0,003
728,4	0,002
728,8	0,002
729,3	0,002
729,7	0,002
730,1	0,001
730,6	0,002
731	0,002
731,5	0,002
731,9	0,002
732,3	0,002
732,8	0,002
733,2	0,003
733,6	0,003
734,1	0,003
734,5	0,002
734,9	0,003
735,4	0,003
735,8	0,003
736,3	0,003
736,7	0,003
737,1	0,003
737,6	0,003
738	0,003
738,4	0,003
738,9	0,004
739,3	0,004
739,7	0,003
740,2	0,003
740,6	0,003
741,1	0,003
741,5	0,002
741,9	0,002
742,4	0,002
742,8	0,002
743,2	0,002
743,7	0,003
744,1	0,003
744,5	0,003
745	0,003
745,4	0,002
745,8	0,002
746,3	0,002
746,7	0,002
747,2	0,002
747,6	0,002
748	0,002
748,5	0,002
748,9	0,002
749,3	0,002
749,8	0,002
750,2	0,002
750,6	0,002
751,1	0,002
751,5	0,002
751,9	0,002
752,4	0,002
752,8	0,003
753,3	0,003
753,7	0,003
754,1	0,003
754,6	0,003
755	0,003
755,4	0,003
755,9	0,002
756,3	0,002
756,7	0,002
757,2	0,002
757,6	0,002
758	0,002
758,5	0,002
758,9	0,002
759,3	0,002
759,8	0,002
760,2	0,002
760,6	0,003
761,1	0,002
761,5	0,002
761,9	0,002
762,4	0,002
762,8	0,002
763,3	0,002
763,7	0,002
764,1	0,002
764,6	0,003
765	0,002
765,4	0,003
765,9	0,003
766,3	0,003
766,7	0,003
767,2	0,003
767,6	0,003
768	0,004
768,5	0,004
768,9	0,004
769,3	0,003
769,8	0,004
770,2	0,003
770,6	0,003
771,1	0,003
771,5	0,003
771,9	0,003
772,4	0,003
772,8	0,003
773,2	0,003
773,7	0,003
774,1	0,003
774,5	0,003
775	0,003
775,4	0,003
775,8	0,003
776,3	0,004
776,7	0,004
777,1	0,003
777,6	0,003
778	0,004
778,4	0,004
778,9	0,003
779,3	0,003
779,7	0,003
780,2	0,003
780,6	0,003
781	0,003
781,5	0,003
781,9	0,003
782,3	0,003
782,8	0,003
783,2	0,003
783,6	0,004
784,1	0,004
784,5	0,004
784,9	0,004
785,4	0,004
785,8	0,004
786,2	0,004
786,7	0,004
787,1	0,004
787,5	0,003
788	0,003
788,4	0,003
788,8	0,003
789,3	0,003
789,7	0,002
790,1	0,002
790,6	0,002
791	0,002
791,4	0,002
791,9	0,003
792,3	0,003
792,7	0,003
793,2	0,003
793,6	0,003
794	0,003
794,5	0,003
794,9	0,002
795,3	0,002
795,8	0,003
796,2	0,003
796,6	0,003
797,1	0,004
797,5	0,004
797,9	0,004
798,4	0,004
798,8	0,004
799,2	0,003
799,7	0,003
800,1	0,003
800,5	0,003
801	0,002
801,4	0,002
801,8	0,002
802,2	0,002
802,7	0,002
803,1	0,003
803,5	0,003
804	0,003
804,4	0,003
804,8	0,003
805,3	0,003
805,7	0,003
806,1	0,003
806,6	0,003
807	0,002
807,4	0,002
807,9	0,002
808,3	0,002
808,7	0,001
809,2	0,001
809,6	0,001
810	0,001
810,4	0,002
810,9	0,002
811,3	0,002
811,7	0,002
812,2	0,003
812,6	0,003
813	0,003
813,5	0,003
813,9	0,003
814,3	0,003
814,8	0,003
815,2	0,002
815,6	0,003
816,1	0,002
816,5	0,002
816,9	0,002
817,3	0,002
817,8	0,001
818,2	0,001
818,6	0,001
819,1	0,002
819,5	0,002
819,9	0,002
820,4	0,002
820,8	0,002
821,2	0,002
821,7	0,002
822,1	0,002
822,5	0,002
822,9	0,001
823,4	0,002
823,8	0,001
824,2	0,001
824,7	0,001
825,1	0,001
825,5	0,002
826	0,002
826,4	0,002
826,8	0,002
827,3	0,002
827,7	0,002
828,1	0,002
828,5	0,002
829	0,002
829,4	0,002
829,8	0,002
830,3	0,003
830,7	0,003
831,1	0,003
831,6	0,003
832	0,003
832,4	0,004
832,8	0,004
833,3	0,004
833,7	0,004
834,1	0,004
834,6	0,003
835	0,004
835,4	0,004
835,8	0,004
836,3	0,003
836,7	0,003
837,1	0,003
837,6	0,003
838	0,002
838,4	0,002
838,9	0,002
839,3	0,002
839,7	0,003
840,1	0,003
840,6	0,002
841	0,003
841,4	0,003
841,9	0,002
842,3	0,002
842,7	0,002
843,1	0,002
843,6	0,002
844	0,003
844,4	0,002
844,9	0,002
845,3	0,002
845,7	0,002
846,2	0,002
846,6	0,002
847	0,001
847,4	0,002
847,9	0,002
848,3	0,002
848,7	0,002
849,2	0,002
849,6	0,002
850	0,002
850,4	0,003
850,9	0,003
851,3	0,002
851,7	0,002
852,2	0,002
852,6	0,002
853	0,002
853,4	0,002
853,9	0,002
854,3	0,003
854,7	0,003
855,2	0,003
855,6	0,003
856	0,004
856,4	0,004
856,9	0,004
857,3	0,004
857,7	0,003
858,2	0,003
858,6	0,002
859	0,002
859,4	0,001
859,9	0,001
860,3	0,001
860,7	0,001
861,1	0,002
861,6	0,002
862	0,002
862,4	0,002
862,9	0,002
863,3	0,003
863,7	0,003
864,1	0,003
864,6	0,003
865	0,004
865,4	0,004
865,9	0,004
866,3	0,005
866,7	0,005
867,1	0,005
867,6	0,005
868	0,005
868,4	0,004
868,8	0,004
869,3	0,004
869,7	0,004
870,1	0,004
870,6	0,004
871	0,003
871,4	0,003
871,8	0,003
872,3	0,003
872,7	0,003
873,1	0,002
873,5	0,002
874	0,002
874,4	0,002
874,8	0,002
875,3	0,002
875,7	0,003
876,1	0,003
876,5	0,003
877	0,002
877,4	0,003
877,8	0,003
878,2	0,002
878,7	0,002
879,1	0,002
879,5	0,002
879,9	0,002
880,4	0,002
880,8	0,001
881,2	0,002
881,7	0,002
882,1	0,002
882,5	0,002
882,9	0,002
883,4	0,002
883,8	0,002
884,2	0,002
884,6	0,002
885,1	0,002
885,5	0,002
885,9	0,002
886,3	0,003
886,8	0,002
887,2	0,002
887,6	0,003
888	0,003
888,5	0,003
888,9	0,003
889,3	0,003
889,8	0,003
890,2	0,003
890,6	0,003
891	0,003
891,5	0,002
891,9	0,003
892,3	0,002
892,7	0,003
893,2	0,003
893,6	0,003
894	0,003
894,4	0,003
894,9	0,003
895,3	0,003
895,7	0,003
896,1	0,003
896,6	0,003
897	0,003
897,4	0,003
897,8	0,003
898,3	0,003
898,7	0,003
899,1	0,003
899,5	0,003
900	0,003
900,4	0,003
900,8	0,003
901,2	0,003
901,7	0,003
902,1	0,003
902,5	0,003
902,9	0,003
903,4	0,003
903,8	0,003
904,2	0,004
904,6	0,004
905,1	0,004
905,5	0,004
905,9	0,003
906,3	0,004
906,8	0,003
907,2	0,003
907,6	0,003
908	0,002
908,5	0,002
908,9	0,002
909,3	0,002
909,7	0,002
910,2	0,001
910,6	0,001
911	0,001
911,4	0,001
911,9	0,001
912,3	0,001
912,7	0,002
913,1	0,002
913,6	0,002
914	0,002
914,4	0,002
914,8	0,002
915,3	0,001
915,7	0,002
916,1	0,002
916,5	0,002
916,9	0,002
917,4	0,002
917,8	0,002
918,2	0,002
918,6	0,002
919,1	0,003
919,5	0,003
919,9	0,003
920,3	0,003
920,8	0,003
921,2	0,003
921,6	0,003
922	0,003
922,5	0,003
922,9	0,003
923,3	0,003
923,7	0,003
924,2	0,003
924,6	0,003
925	0,002
925,4	0,003
925,8	0,003
926,3	0,002
926,7	0,003
927,1	0,002
927,5	0,002
928	0,002
928,4	0,002
928,8	0,001
929,2	0,001
929,7	0,001
930,1	0,002
930,5	0,001
930,9	0,001
931,3	0,001
931,8	0,002
932,2	0,001
932,6	0,002
933	0,001
933,5	0,001
933,9	0,001
934,3	0,001
934,7	0,001
935,2	0,001
935,6	0,001
936	0,002
936,4	0,002
936,8	0,002
937,3	0,002
937,7	0,001
938,1	0,001
938,5	0,001
939	0,001
939,4	0,001
939,8	0
940,2	0
940,6	0,001
941,1	0,001
941,5	0,001
941,9	0,001
942,3	0
942,8	0,001
943,2	0,001
943,6	-0
944	0
944,4	0,001
944,9	0,002
945,3	0,002
945,7	0,003
946,1	0,002
946,6	0,003
947	0,003
947,4	0,002
947,8	0,002
948,2	0,002
948,7	0,002
949,1	0,002
949,5	0,002
949,9	0,002
950,3	0,002
950,8	0,002
951,2	0,001
951,6	0,001
952	0,002
952,5	0,002
952,9	0,002
953,3	0,002
953,7	0,002
954,1	0,003
954,6	0,003
955	0,003
955,4	0,004
955,8	0,004
956,2	0,004
956,7	0,004
957,1	0,005
957,5	0,005
957,9	0,004
958,3	0,004
958,8	0,003
959,2	0,003
959,6	0,003
960	0,002
960,5	0,002
960,9	0,002
961,3	0,002
961,7	0,002
962,1	0,002
962,6	0,001
963	0,002
963,4	0,001
963,8	0,001
964,2	0,001
964,7	0,001
965,1	0
965,5	0,001
965,9	0
966,3	0,002
966,8	0,002
967,2	0,003
967,6	0,003
968	0,003
968,4	0,003
968,9	0,003
969,3	0,003
969,7	0,002
970,1	0,002
970,5	0,002
971	0,003
971,4	0,002
971,8	0,003
972,2	0,003
972,6	0,003
973,1	0,003
973,5	0,002
973,9	0,002
974,3	0,002
974,7	0,002
975,2	0,002
975,6	0,002
976	0,002
976,4	0,002
976,8	0,002
977,3	0,001
977,7	0,001
978,1	0,001
978,5	0,001
978,9	0,001
979,4	0,001
979,8	0,001
980,2	0,002
980,6	0,002
981	0,003
981,5	0,003
981,9	0,003
982,3	0,003
982,7	0,003
983,1	0,003
983,6	0,003
984	0,002
984,4	0,002
984,8	0,002
985,2	0,003
985,6	0,003
986,1	0,002
986,5	0,003
986,9	0,003
987,3	0,003
987,7	0,004
988,2	0,003
988,6	0,002
989	0,002
989,4	0,002
989,8	0,001
990,3	0,001
990,7	0,001
991,1	0,001
991,5	0,001
991,9	0,002
992,3	0,002
992,8	0,003
993,2	0,003
993,6	0,003
994	0,003
994,4	0,002
994,9	0,002
995,3	0,002
995,7	0,002
996,1	0,002
996,5	0,003
996,9	0,002
997,4	0,002
997,8	0,002
998,2	0,002
998,6	0,002
999	0,002
999,5	0,001
999,9	0,002
1000,3	0,002
1000,7	0,003
1001,1	0,002
1001,5	0,002
1002	0,002
1002,4	0,002
1002,8	0,002
1003,2	0,002
1003,6	0,002
1004	0,002
1004,5	0,002
1004,9	0,002
1005,3	0,003
1005,7	0,003
1006,1	0,003
1006,6	0,003
1007	0,003
1007,4	0,004
1007,8	0,004
1008,2	0,004
1008,6	0,004
1009,1	0,003
1009,5	0,003
1009,9	0,003
1010,3	0,003
1010,7	0,002
1011,1	0,002
1011,6	0,002
1012	0,002
1012,4	0,002
1012,8	0,002
1013,2	0,002
1013,6	0,002
1014,1	0,002
1014,5	0,002
1014,9	0,002
1015,3	0,002
1015,7	0,002
1016,1	0,002
1016,6	0,002
1017	0,002
1017,4	0,001
1017,8	0,001
1018,2	0,001
1018,6	0,001
1019,1	0,001
1019,5	0,001
1019,9	0
1020,3	0,001
1020,7	0,001
1021,1	0,001
1021,6	0,001
1022	0,001
1022,4	0,001
1022,8	0,001
1023,2	0,001
1023,6	0,001
1024,1	0,002
1024,5	0,002
1024,9	0,002
1025,3	0,002
1025,7	0,002
1026,1	0,002
1026,6	0,003
1027	0,003
1027,4	0,003
1027,8	0,002
1028,2	0,003
1028,6	0,003
1029	0,003
1029,5	0,003
1029,9	0,003
1030,3	0,003
1030,7	0,004
1031,1	0,003
1031,5	0,004
1032	0,004
1032,4	0,004
1032,8	0,004
1033,2	0,004
1033,6	0,004
1034	0,004
1034,4	0,003
1034,9	0,003
1035,3	0,002
1035,7	0,003
1036,1	0,003
1036,5	0,002
1036,9	0,001
1037,4	0,001
1037,8	0,002
1038,2	0,002
1038,6	0,001
1039	0,002
1039,4	0,002
1039,8	0,002
1040,3	0,002
1040,7	0,002
1041,1	0,002
1041,5	0,002
1041,9	0,001
1042,3	0
1042,7	0,001
1043,2	0,001
1043,6	0
1044	-0
1044,4	0
1044,8	0,001
1045,2	0,001
1045,6	0,001
1046,1	0,001
1046,5	0,001
1046,9	0,001
1047,3	0,001
1047,7	0,002
1048,1	0,001
1048,5	0,001
1049	0,001
1049,4	0
1049,8	-0
1050,2	-0
1050,6	-0,001
1051	-0,001
1051,4	-0,001
1051,9	-0,001
1052,3	-0,001
1052,7	-0
1053,1	-0,001
1053,5	-0
1053,9	0
1054,3	-0,001
1054,8	0
1055,2	-0
1055,6	-0
1056	-0
1056,4	-0
1056,8	-0
1057,2	0,001
1057,6	0
1058,1	0,001
1058,5	0
1058,9	-0
1059,3	0,001
1059,7	0,001
1060,1	0
1060,5	-0
1061	0
1061,4	0
1061,8	0
1062,2	0
1062,6	-0,001
1063	-0,001
1063,4	-0
1063,8	-0,001
1064,3	-0,001
1064,7	-0,001
1065,1	-0,002
1065,5	-0,002
1065,9	-0,001
1066,3	-0,001
1066,7	-0,001
1067,1	-0,001
1067,6	-0,001
1068	-0
1068,4	0,002
1068,8	0,002
1069,2	0,002
1069,6	0,002
1070	0,003
1070,4	0,003
1070,9	0,003
1071,3	0,002
1071,7	0,002
1072,1	-0
1072,5	-0
1072,9	-0,002
1073,3	-0,001
1073,7	0
1074,2	-0
1074,6	0
1075	0,001
1075,4	0,002
1075,8	0,003
1076,2	0,003
1076,6	0,002
1077	0,002
1077,5	0,001
1077,9	0,001
1078,3	0,001
1078,7	0,001
1079,1	0
1079,5	0
1079,9	0,001
1080,3	0,001
1080,7	-0,001
1081,2	0,001
1081,6	0
1082	0,001
1082,4	0,001
1082,8	-0
1083,2	-0,001
1083,6	0,001
1084	-0,001
1084,5	-0,001
1084,9	-0
1085,3	-0,001
1085,7	0,001
1086,1	0,002
1086,5	0,002
1086,9	0,004
1087,3	0,004
1087,7	0,004
1088,2	0,005
1088,6	0,003
1089	0,004
1089,4	0,004
1089,8	0,003
1090,2	0,002
1090,6	0,003
1091	0,002
1091,4	0,003
1091,9	0,002
1092,3	0,002
1092,7	0,003
1093,1	0
1093,5	-0,001
1093,9	0,001
1094,3	0,001
1094,7	0,002
1095,1	0,003
1095,5	0,003
1096	0,003
1096,4	0,003
1096,8	0,005
1097,2	0,004
1097,6	0,003
1098	-0,002
1098,4	-0,007
1098,8	-0,006
1099,2	-0,007
1099,6	-0,005
1100,1	-0,006
1100,5	-0,005
1100,9	-0,005
1101,3	-0
1101,7	0,01
1102,1	0,003
1102,5	-0,003
1102,9	0,003
1103,3	-0,007
1103,7	-0,006
1104,2	-0,007
1104,6	-0,016
1105	-0,007
1105,4	0,004
1105,8	0,004
1106,2	0,019
1106,6	0,029
1107	0,017
1107,4	0,016
1107,8	0,015
1108,3	-0
