Data from Absorbance_00044.txt Node
Date: Fri Aug 11 13:08:56 MSK 2023
User: vat
Spectrometer: MAYP114033
Trigger mode: 0
Integration Time (sec): 8,000000E-3
Scans to average: 10
Electric dark correction enabled: true
Nonlinearity correction enabled: false
Boxcar width: 3
XAxis mode: Wavelengths
Number of Pixels in Spectrum: 2068
>>>>>Begin Spectral Data<<<<<
199,4	-0
199,9	0,083
200,4	0,426
200,8	0,724
201,3	0,869
201,8	0,922
202,2	0,959
202,7	0,98
203,2	1,017
203,6	1,048
204,1	1,071
204,6	1,088
205	1,107
205,5	1,11
206	1,124
206,4	1,141
206,9	1,166
207,4	1,174
207,8	1,186
208,3	1,215
208,8	1,234
209,2	1,246
209,7	1,27
210,2	1,274
210,6	1,296
211,1	1,322
211,5	1,33
212	1,354
212,5	1,372
212,9	1,391
213,4	1,4
213,9	1,403
214,3	1,387
214,8	1,393
215,3	1,395
215,7	1,411
216,2	1,416
216,7	1,454
217,1	1,476
217,6	1,517
218,1	1,528
218,5	1,546
219	1,55
219,5	1,563
219,9	1,555
220,4	1,564
220,9	1,587
221,3	1,6
221,8	1,61
222,3	1,622
222,7	1,638
223,2	1,662
223,6	1,677
224,1	1,678
224,6	1,703
225	1,743
225,5	1,772
226	1,789
226,4	1,795
226,9	1,812
227,4	1,819
227,8	1,819
228,3	1,825
228,8	1,844
229,2	1,843
229,7	1,847
230,2	1,853
230,6	1,872
231,1	1,876
231,5	1,882
232	1,891
232,5	1,899
232,9	1,909
233,4	1,928
233,9	1,924
234,3	1,924
234,8	1,926
235,3	1,927
235,7	1,939
236,2	1,955
236,7	1,966
237,1	1,981
237,6	2,004
238,1	2,005
238,5	2,019
239	2,038
239,4	2,041
239,9	2,042
240,4	2,045
240,8	2,045
241,3	2,05
241,8	2,063
242,2	2,047
242,7	2,054
243,2	2,059
243,6	2,074
244,1	2,07
244,6	2,085
245	2,07
245,5	2,08
245,9	2,085
246,4	2,092
246,9	2,1
247,3	2,115
247,8	2,091
248,3	2,102
248,7	2,11
249,2	2,117
249,7	2,11
250,1	2,098
250,6	2,092
251	2,116
251,5	2,128
252	2,123
252,4	2,127
252,9	2,139
253,4	2,141
253,8	2,156
254,3	2,158
254,8	2,142
255,2	2,164
255,7	2,149
256,1	2,144
256,6	2,147
257,1	2,163
257,5	2,169
258	2,195
258,5	2,177
258,9	2,178
259,4	2,188
259,9	2,192
260,3	2,186
260,8	2,181
261,2	2,166
261,7	2,185
262,2	2,185
262,6	2,187
263,1	2,173
263,6	2,166
264	2,166
264,5	2,176
264,9	2,181
265,4	2,184
265,9	2,168
266,3	2,175
266,8	2,175
267,3	2,167
267,7	2,154
268,2	2,145
268,7	2,152
269,1	2,147
269,6	2,157
270	2,144
270,5	2,164
271	2,177
271,4	2,17
271,9	2,175
272,4	2,165
272,8	2,154
273,3	2,166
273,7	2,151
274,2	2,14
274,7	2,143
275,1	2,13
275,6	2,157
276,1	2,15
276,5	2,141
277	2,142
277,4	2,149
277,9	2,145
278,4	2,166
278,8	2,16
279,3	2,153
279,8	2,137
280,2	2,123
280,7	2,107
281,1	2,099
281,6	2,071
282,1	2,055
282,5	2,048
283	2,052
283,4	2,033
283,9	2,022
284,4	2,008
284,8	1,985
285,3	1,947
285,8	1,902
286,2	1,835
286,7	1,767
287,1	1,692
287,6	1,616
288,1	1,539
288,5	1,468
289	1,396
289,5	1,333
289,9	1,274
290,4	1,215
290,8	1,161
291,3	1,11
291,8	1,067
292,2	1,026
292,7	0,987
293,1	0,952
293,6	0,922
294,1	0,895
294,5	0,873
295	0,852
295,5	0,833
295,9	0,815
296,4	0,8
296,8	0,785
297,3	0,772
297,8	0,76
298,2	0,748
298,7	0,739
299,1	0,731
299,6	0,724
300,1	0,718
300,5	0,711
301	0,706
301,5	0,701
301,9	0,694
302,4	0,689
302,8	0,684
303,3	0,68
303,8	0,675
304,2	0,67
304,7	0,666
305,1	0,663
305,6	0,658
306,1	0,654
306,5	0,648
307	0,644
307,4	0,639
307,9	0,635
308,4	0,63
308,8	0,625
309,3	0,621
309,8	0,616
310,2	0,613
310,7	0,608
311,1	0,604
311,6	0,599
312,1	0,594
312,5	0,587
313	0,583
313,4	0,577
313,9	0,573
314,4	0,567
314,8	0,561
315,3	0,557
315,7	0,552
316,2	0,547
316,7	0,541
317,1	0,535
317,6	0,53
318	0,525
318,5	0,519
319	0,514
319,4	0,508
319,9	0,504
320,3	0,498
320,8	0,492
321,3	0,487
321,7	0,482
322,2	0,476
322,6	0,471
323,1	0,465
323,6	0,461
324	0,455
324,5	0,45
324,9	0,444
325,4	0,44
325,9	0,435
326,3	0,429
326,8	0,423
327,2	0,419
327,7	0,414
328,2	0,409
328,6	0,403
329,1	0,398
329,5	0,393
330	0,389
330,5	0,383
330,9	0,378
331,4	0,374
331,8	0,369
332,3	0,363
332,8	0,359
333,2	0,354
333,7	0,349
334,1	0,344
334,6	0,339
335,1	0,333
335,5	0,329
336	0,324
336,4	0,319
336,9	0,314
337,4	0,309
337,8	0,304
338,3	0,3
338,7	0,295
339,2	0,29
339,7	0,284
340,1	0,279
340,6	0,275
341	0,271
341,5	0,266
342	0,26
342,4	0,256
342,9	0,253
343,3	0,248
343,8	0,243
344,2	0,238
344,7	0,234
345,2	0,231
345,6	0,228
346,1	0,224
346,5	0,221
347	0,217
347,5	0,214
347,9	0,21
348,4	0,206
348,8	0,202
349,3	0,198
349,8	0,194
350,2	0,19
350,7	0,187
351,1	0,183
351,6	0,179
352	0,176
352,5	0,173
353	0,17
353,4	0,167
353,9	0,164
354,3	0,16
354,8	0,158
355,3	0,155
355,7	0,152
356,2	0,149
356,6	0,146
357,1	0,144
357,5	0,141
358	0,138
358,5	0,134
358,9	0,132
359,4	0,129
359,8	0,128
360,3	0,125
360,8	0,123
361,2	0,121
361,7	0,119
362,1	0,116
362,6	0,115
363	0,111
363,5	0,11
364	0,108
364,4	0,106
364,9	0,105
365,3	0,102
365,8	0,1
366,3	0,099
366,7	0,097
367,2	0,094
367,6	0,092
368,1	0,089
368,5	0,088
369	0,086
369,5	0,084
369,9	0,082
370,4	0,081
370,8	0,08
371,3	0,079
371,7	0,078
372,2	0,077
372,7	0,076
373,1	0,075
373,6	0,073
374	0,072
374,5	0,069
374,9	0,068
375,4	0,067
375,9	0,065
376,3	0,064
376,8	0,063
377,2	0,062
377,7	0,062
378,2	0,061
378,6	0,06
379,1	0,059
379,5	0,057
380	0,056
380,4	0,055
380,9	0,054
381,4	0,053
381,8	0,053
382,3	0,052
382,7	0,052
383,2	0,051
383,6	0,05
384,1	0,05
384,6	0,049
385	0,048
385,5	0,047
385,9	0,046
386,4	0,045
386,8	0,045
387,3	0,044
387,7	0,043
388,2	0,042
388,7	0,042
389,1	0,04
389,6	0,04
390	0,038
390,5	0,038
390,9	0,037
391,4	0,036
391,9	0,036
392,3	0,036
392,8	0,036
393,2	0,036
393,7	0,035
394,1	0,035
394,6	0,035
395,1	0,034
395,5	0,033
396	0,033
396,4	0,032
396,9	0,031
397,3	0,03
397,8	0,03
398,2	0,029
398,7	0,029
399,2	0,028
399,6	0,028
400,1	0,028
400,5	0,028
401	0,027
401,4	0,026
401,9	0,026
402,4	0,026
402,8	0,025
403,3	0,025
403,7	0,024
404,2	0,024
404,6	0,024
405,1	0,024
405,5	0,023
406	0,023
406,5	0,023
406,9	0,023
407,4	0,022
407,8	0,021
408,3	0,021
408,7	0,02
409,2	0,02
409,6	0,019
410,1	0,019
410,6	0,019
411	0,019
411,5	0,018
411,9	0,018
412,4	0,018
412,8	0,018
413,3	0,017
413,7	0,017
414,2	0,017
414,7	0,017
415,1	0,017
415,6	0,017
416	0,016
416,5	0,016
416,9	0,016
417,4	0,016
417,8	0,015
418,3	0,014
418,8	0,014
419,2	0,014
419,7	0,014
420,1	0,014
420,6	0,014
421	0,014
421,5	0,014
421,9	0,013
422,4	0,013
422,8	0,013
423,3	0,012
423,8	0,012
424,2	0,011
424,7	0,011
425,1	0,011
425,6	0,011
426	0,011
426,5	0,01
426,9	0,01
427,4	0,009
427,9	0,009
428,3	0,009
428,8	0,009
429,2	0,008
429,7	0,008
430,1	0,007
430,6	0,007
431	0,007
431,5	0,006
431,9	0,006
432,4	0,005
432,8	0,005
433,3	0,006
433,8	0,006
434,2	0,006
434,7	0,006
435,1	0,006
435,6	0,006
436	0,006
436,5	0,006
436,9	0,006
437,4	0,006
437,8	0,006
438,3	0,006
438,8	0,005
439,2	0,005
439,7	0,004
440,1	0,004
440,6	0,003
441	0,003
441,5	0,003
441,9	0,003
442,4	0,003
442,8	0,003
443,3	0,003
443,7	0,004
444,2	0,003
444,7	0,003
445,1	0,003
445,6	0,003
446	0,002
446,5	0,002
446,9	0,002
447,4	0,002
447,8	0,002
448,3	0,002
448,7	0,003
449,2	0,003
449,6	0,003
450,1	0,003
450,6	0,003
451	0,003
451,5	0,002
451,9	0,002
452,4	0,002
452,8	0,001
453,3	0
453,7	0,001
454,2	0
454,6	0
455,1	0
455,5	0,001
456	0,001
456,4	0,002
456,9	0,002
457,3	0,003
457,8	0,003
458,3	0,002
458,7	0,002
459,2	0,001
459,6	0,001
460,1	0,001
460,5	0
461	0
461,4	0
461,9	0
462,3	0
462,8	-0
463,2	-0,001
463,7	-0
464,1	0
464,6	0
465	0,001
465,5	0,001
466	0,001
466,4	0,001
466,9	0,001
467,3	0,001
467,8	0,001
468,2	0,001
468,7	0,001
469,1	0,001
469,6	0,001
470	0
470,5	0
470,9	0,001
471,4	0
471,8	0
472,3	-0
472,7	-0,001
473,2	-0
473,6	-0,001
474,1	-0,001
474,5	-0,001
475	-0,001
475,4	-0,001
475,9	-0
476,4	0
476,8	-0
477,3	0
477,7	0
478,2	0
478,6	-0
479,1	-0,001
479,5	-0
480	0,001
480,4	0,001
480,9	0,001
481,3	0,001
481,8	0,001
482,2	-0
482,7	-0,001
483,1	-0,001
483,6	-0,001
484	-0,001
484,5	-0,001
484,9	-0,001
485,4	0
485,8	0,001
486,3	0,001
486,7	0,001
487,2	0,001
487,6	0,001
488,1	0,001
488,5	0
489	-0
489,4	-0,001
489,9	-0
490,4	0
490,8	0,001
491,3	0,001
491,7	0,001
492,2	0,001
492,6	0,001
493,1	0,001
493,5	0,002
494	0,001
494,4	0,002
494,9	0,002
495,3	0,002
495,8	0,002
496,2	0,002
496,7	0,001
497,1	0,001
497,6	0
498	0
498,5	0
498,9	-0
499,4	-0
499,8	-0,001
500,3	-0,001
500,7	-0,001
501,2	-0,001
501,6	-0,001
502,1	-0,001
502,5	-0,001
503	-0,001
503,4	-0
503,9	-0
504,3	0
504,8	0,001
505,2	0,001
505,7	0,001
506,1	0,001
506,6	0,001
507	0,002
507,5	0,001
507,9	0,001
508,4	0,001
508,8	0,001
509,3	0,001
509,7	0,001
510,2	0,001
510,6	0,001
511,1	0,001
511,5	0
512	0
512,4	0,001
512,9	0,001
513,3	-0
513,8	0
514,2	0
514,7	0,001
515,1	0,001
515,6	0,001
516	0,001
516,5	0,002
516,9	0,001
517,4	0,001
517,8	0
518,3	0
518,7	-0
519,2	0
519,6	0
520,1	0,001
520,5	0
521	0,001
521,4	0,001
521,9	0,001
522,3	0,001
522,8	0,001
523,2	0
523,7	0,001
524,1	0,001
524,6	0,001
525	0,001
525,5	0,001
525,9	0
526,4	0,001
526,8	0,001
527,3	0,001
527,7	0,001
528,2	0
528,6	-0
529,1	0
529,5	0,001
530	0
530,4	0,001
530,9	0,001
531,3	0,001
531,8	0,001
532,2	0,001
532,6	0,001
533,1	0,001
533,5	0,001
534	0,001
534,4	0,001
534,9	-0
535,3	0
535,8	0
536,2	-0
536,7	-0,001
537,1	-0,001
537,6	-0,001
538	-0,001
538,5	-0,001
538,9	-0
539,4	-0
539,8	0,001
540,3	0,001
540,7	0,001
541,2	0,002
541,6	0,002
542,1	0,002
542,5	0,002
543	0,002
543,4	0,001
543,9	0
544,3	-0,001
544,8	-0,001
545,2	-0,002
545,7	-0,001
546,1	-0,001
546,5	-0,001
547	-0
547,4	0,001
547,9	0,001
548,3	0,001
548,8	0,001
549,2	0,001
549,7	0,001
550,1	0,001
550,6	0
551	0,001
551,5	0,001
551,9	0,001
552,4	0,001
552,8	0,001
553,3	0,001
553,7	0,001
554,2	0
554,6	0,001
555,1	0
555,5	0,001
555,9	0
556,4	0
556,8	0
557,3	0
557,7	0,001
558,2	0,001
558,6	0,001
559,1	0,001
559,5	0
560	0,001
560,4	0,001
560,9	0
561,3	0
561,8	0,001
562,2	0,001
562,7	0,001
563,1	0,001
563,6	0,001
564	0,001
564,4	0
564,9	0
565,3	-0
565,8	-0
566,2	0
566,7	0,001
567,1	0,001
567,6	0,001
568	0,002
568,5	0,001
568,9	0,001
569,4	0,001
569,8	0,001
570,3	0
570,7	0
571,1	0
571,6	0
572	0,001
572,5	0,001
572,9	0,001
573,4	0
573,8	0
574,3	0
574,7	-0
575,2	-0
575,6	-0
576,1	-0
576,5	0
576,9	0
577,4	0
577,8	0,001
578,3	0
578,7	0
579,2	0
579,6	0
580,1	0,001
580,5	0,001
581	0,001
581,4	0,001
581,9	0,001
582,3	0,001
582,7	0,001
583,2	0,001
583,6	0,001
584,1	0,001
584,5	0,001
585	0,001
585,4	0,001
585,9	0
586,3	0
586,8	0,001
587,2	0,001
587,6	0,001
588,1	0,001
588,5	0,001
589	0,001
589,4	0
589,9	0
590,3	0
590,8	0
591,2	0
591,7	0,001
592,1	0,001
592,5	0,001
593	0,002
593,4	0,002
593,9	0,002
594,3	0,002
594,8	0,001
595,2	0,002
595,7	0,002
596,1	0,001
596,6	0,001
597	0,001
597,4	0,001
597,9	0,001
598,3	0,001
598,8	0,001
599,2	0
599,7	0
600,1	0
600,6	0
601	-0
601,4	-0
601,9	-0
602,3	0
602,8	0
603,2	-0
603,7	0
604,1	0
604,6	0
605	0,001
605,4	0,001
605,9	0,001
606,3	0,001
606,8	0,001
607,2	0
607,7	0
608,1	0
608,6	-0
609	-0
609,4	-0
609,9	-0
610,3	-0
610,8	-0
611,2	-0
611,7	0
612,1	-0
612,6	-0
613	-0
613,4	-0
613,9	-0
614,3	0
614,8	-0
615,2	0
615,7	0
616,1	0,001
616,6	0,001
617	0
617,4	0
617,9	0
618,3	0
618,8	0
619,2	0
619,7	0
620,1	0
620,5	0
621	0
621,4	0
621,9	0
622,3	0
622,8	0
623,2	0,001
623,6	0,001
624,1	0,001
624,5	0,001
625	0,001
625,4	0,001
625,9	0
626,3	0
626,8	0
627,2	0
627,6	0,001
628,1	0,001
628,5	0
629	0,001
629,4	0,001
629,9	0,001
630,3	0,001
630,7	0,001
631,2	0,001
631,6	0,001
632,1	0,001
632,5	0,001
633	0,001
633,4	0,001
633,8	0,001
634,3	0,001
634,7	0,001
635,2	0,001
635,6	0,001
636,1	0,002
636,5	0,001
636,9	0,002
637,4	0,001
637,8	0,001
638,3	0,001
638,7	0,001
639,2	0
639,6	0,001
640	0,001
640,5	0,001
640,9	0,001
641,4	0,001
641,8	0,001
642,2	0,001
642,7	0,001
643,1	0
643,6	0
644	0
644,5	0
644,9	-0
645,3	0
645,8	0,001
646,2	0,001
646,7	0,001
647,1	0,001
647,6	0,002
648	0,002
648,4	0,001
648,9	0,001
649,3	0,001
649,8	0,001
650,2	0,001
650,6	0,001
651,1	0,001
651,5	0,001
652	0,001
652,4	0
652,9	0
653,3	0
653,7	0,001
654,2	0,001
654,6	0,001
655,1	0,002
655,5	0,001
655,9	0,001
656,4	0,001
656,8	0
657,3	0
657,7	0
658,2	0
658,6	0
659	0,001
659,5	0,001
659,9	0,002
660,4	0,002
660,8	0,002
661,2	0,001
661,7	0,001
662,1	0,001
662,6	0
663	0
663,4	-0
663,9	-0
664,3	-0
664,8	-0
665,2	0
665,6	0
666,1	0
666,5	0
667	0
667,4	0
667,9	0,001
668,3	0,001
668,7	0
669,2	0,001
669,6	0,001
670,1	0,001
670,5	0,001
670,9	0
671,4	0
671,8	0
672,3	0
672,7	0
673,1	0
673,6	0
674	0
674,5	0,001
674,9	0
675,3	0
675,8	-0
676,2	-0
676,7	0
677,1	-0
677,5	0
678	0
678,4	0,001
678,9	0,001
679,3	0,001
679,7	0,001
680,2	0,001
680,6	0
681,1	-0
681,5	0
681,9	0
682,4	0
682,8	-0
683,3	-0
683,7	-0
684,1	0
684,6	-0
685	-0
685,5	-0
685,9	-0
686,3	0
686,8	0,001
687,2	0,001
687,7	0,001
688,1	0,001
688,5	0,001
689	0,002
689,4	0,002
689,9	0,002
690,3	0,002
690,7	0,002
691,2	0,002
691,6	0,002
692	0,002
692,5	0,002
692,9	0,002
693,4	0,002
693,8	0,001
694,2	0,001
694,7	0,001
695,1	0,001
695,6	0,001
696	0,001
696,4	0,001
696,9	0,001
697,3	0,001
697,8	0,001
698,2	0
698,6	0,001
699,1	0,001
699,5	0,001
699,9	0,001
700,4	0,001
700,8	0,001
701,3	0,001
701,7	0,001
702,1	0,002
702,6	0,002
703	0,002
703,5	0,002
703,9	0,001
704,3	0,001
704,8	0,001
705,2	0,001
705,6	0,001
706,1	0,001
706,5	0,001
707	0,001
707,4	0
707,8	0,001
708,3	0,001
708,7	0,001
709,2	0
709,6	0
710	0,001
710,5	0
710,9	0
711,3	-0
711,8	0
712,2	0
712,7	0
713,1	-0
713,5	0
714	0
714,4	0
714,8	0
715,3	0
715,7	0
716,2	0,001
716,6	0,001
717	0,001
717,5	0
717,9	0
718,3	0
718,8	-0
719,2	-0
719,7	-0,001
720,1	-0
720,5	-0
721	0
721,4	0
721,8	0
722,3	0
722,7	0
723,2	-0
723,6	-0
724	-0
724,5	-0
724,9	0
725,3	0
725,8	0,001
726,2	0,001
726,7	0,001
727,1	0,001
727,5	0,001
728	0,001
728,4	0
728,8	0
729,3	-0
729,7	-0
730,1	-0
730,6	-0
731	-0
731,5	-0
731,9	0
732,3	0
732,8	0
733,2	0
733,6	0
734,1	0
734,5	0
734,9	0,001
735,4	0,001
735,8	0,001
736,3	0,001
736,7	0,001
737,1	0,001
737,6	0,002
738	0,002
738,4	0,002
738,9	0,002
739,3	0,002
739,7	0,001
740,2	0,001
740,6	0,001
741,1	0,001
741,5	0
741,9	0,001
742,4	0,001
742,8	0,001
743,2	0,001
743,7	0,001
744,1	0,001
744,5	0,001
745	0,001
745,4	0
745,8	0
746,3	0
746,7	0
747,2	-0
747,6	0
748	0
748,5	0
748,9	0
749,3	0
749,8	0
750,2	0
750,6	0
751,1	0
751,5	0
751,9	0
752,4	0
752,8	0,001
753,3	0,001
753,7	0,001
754,1	0,001
754,6	0,001
755	0,001
755,4	0,001
755,9	0
756,3	0
756,7	0
757,2	0,001
757,6	0
758	0
758,5	0
758,9	0
759,3	0
759,8	0
760,2	-0
760,6	0
761,1	-0
761,5	-0
761,9	0
762,4	0
762,8	0
763,3	0
763,7	0
764,1	0,001
764,6	0,001
765	0
765,4	0,001
765,9	0,001
766,3	0,001
766,7	0,001
767,2	0,001
767,6	0,001
768	0,001
768,5	0,001
768,9	0,002
769,3	0,002
769,8	0,002
770,2	0,001
770,6	0,001
771,1	0,001
771,5	0,001
771,9	0
772,4	0
772,8	0,001
773,2	0
773,7	0
774,1	0,001
774,5	0,001
775	0,001
775,4	0,001
775,8	0,001
776,3	0,002
776,7	0,002
777,1	0,002
777,6	0,002
778	0,002
778,4	0,002
778,9	0,002
779,3	0,002
779,7	0,002
780,2	0,002
780,6	0,002
781	0,001
781,5	0,001
781,9	0,001
782,3	0,001
782,8	0,001
783,2	0,001
783,6	0,002
784,1	0,002
784,5	0,002
784,9	0,002
785,4	0,002
785,8	0,002
786,2	0,002
786,7	0,001
787,1	0,001
787,5	0,001
788	0,001
788,4	0,001
788,8	0,001
789,3	0,001
789,7	0
790,1	0
790,6	0
791	0
791,4	0,001
791,9	0,001
792,3	0,001
792,7	0,001
793,2	0,001
793,6	0,001
794	0,001
794,5	0,001
794,9	0,001
795,3	0,001
795,8	0,001
796,2	0,001
796,6	0,002
797,1	0,002
797,5	0,002
797,9	0,002
798,4	0,003
798,8	0,002
799,2	0,002
799,7	0,002
800,1	0,001
800,5	0,001
801	0
801,4	0
801,8	0
802,2	0
802,7	0
803,1	0
803,5	0,001
804	0,001
804,4	0,001
804,8	0,002
805,3	0,002
805,7	0,001
806,1	0,001
806,6	0,001
807	0,001
807,4	0
807,9	0
808,3	-0
808,7	0
809,2	0
809,6	0
810	0
810,4	0
810,9	0
811,3	0
811,7	0,001
812,2	0,001
812,6	0,001
813	0,001
813,5	0,001
813,9	0,001
814,3	0,001
814,8	0,001
815,2	0
815,6	0
816,1	0
816,5	0
816,9	0
817,3	0
817,8	0
818,2	0
818,6	0
819,1	0,001
819,5	0,001
819,9	0,001
820,4	0,001
820,8	0,001
821,2	0,001
821,7	0,001
822,1	0,001
822,5	0
822,9	-0
823,4	0
823,8	-0
824,2	-0
824,7	-0
825,1	-0
825,5	-0
826	0
826,4	-0
826,8	0
827,3	-0
827,7	-0
828,1	0
828,5	0
829	0
829,4	0
829,8	0
830,3	0,001
830,7	0,001
831,1	0
831,6	0
832	0
832,4	0,001
832,8	0,001
833,3	0,001
833,7	0,001
834,1	0,001
834,6	0,001
835	0,001
835,4	0,002
835,8	0,002
836,3	0,001
836,7	0,001
837,1	0,001
837,6	0,001
838	0
838,4	-0
838,9	-0
839,3	0
839,7	0,001
840,1	0,001
840,6	0,002
841	0,002
841,4	0,002
841,9	0,002
842,3	0,002
842,7	0,001
843,1	0,001
843,6	0,001
844	0,001
844,4	0,001
844,9	0,001
845,3	0
845,7	0
846,2	0
846,6	0
847	-0
847,4	0
847,9	0,001
848,3	0
848,7	0,001
849,2	0,001
849,6	0,001
850	0,001
850,4	0,001
850,9	0,001
851,3	0,001
851,7	0,001
852,2	0,001
852,6	0,001
853	0,001
853,4	0,001
853,9	0,001
854,3	0,001
854,7	0,001
855,2	0,001
855,6	0,001
856	0,002
856,4	0,001
856,9	0,001
857,3	0,002
857,7	0,001
858,2	0,001
858,6	0,001
859	-0
859,4	-0
859,9	-0
860,3	-0
860,7	-0
861,1	-0
861,6	0
862	0
862,4	0
862,9	0
863,3	0,001
863,7	0,001
864,1	0,001
864,6	0,001
865	0,002
865,4	0,002
865,9	0,002
866,3	0,003
866,7	0,003
867,1	0,003
867,6	0,003
868	0,003
868,4	0,002
868,8	0,002
869,3	0,002
869,7	0,002
870,1	0,002
870,6	0,002
871	0,002
871,4	0,002
871,8	0,002
872,3	0,001
872,7	0,001
873,1	0,001
873,5	0
874	0,001
874,4	0,001
874,8	0,001
875,3	0,001
875,7	0,001
876,1	0,001
876,5	0,001
877	0,001
877,4	0,001
877,8	0,001
878,2	0
878,7	0
879,1	0
879,5	0
879,9	0
880,4	0
880,8	0
881,2	0,001
881,7	0,001
882,1	0,001
882,5	0,001
882,9	0
883,4	0,001
883,8	0,001
884,2	0
884,6	0
885,1	0
885,5	0,001
885,9	0,001
886,3	0,001
886,8	0,001
887,2	0,001
887,6	0,001
888	0,001
888,5	0,001
888,9	0,001
889,3	0,001
889,8	0
890,2	0,001
890,6	0,001
891	0,001
891,5	0,001
891,9	0,001
892,3	0,001
892,7	0,001
893,2	0,002
893,6	0,001
894	0,001
894,4	0,001
894,9	0,001
895,3	0,001
895,7	0,001
896,1	0,001
896,6	0,001
897	0,001
897,4	0,001
897,8	0,001
898,3	0,001
898,7	0,001
899,1	0,001
899,5	0,001
900	0,001
900,4	0,001
900,8	0,001
901,2	0,001
901,7	0,001
902,1	0,001
902,5	0,001
902,9	0,001
903,4	0,001
903,8	0,001
904,2	0,002
904,6	0,002
905,1	0,002
905,5	0,002
905,9	0,001
906,3	0,001
906,8	0,001
907,2	0,001
907,6	0,001
908	0,001
908,5	0,001
908,9	0,001
909,3	0,001
909,7	0,001
910,2	0,001
910,6	0
911	0
911,4	0
911,9	0
912,3	0
912,7	0
913,1	-0
913,6	0
914	-0
914,4	-0
914,8	-0
915,3	-0
915,7	-0
916,1	-0
916,5	-0
916,9	-0
917,4	0
917,8	0
918,2	0
918,6	0
919,1	0
919,5	0,001
919,9	0,001
920,3	0,001
920,8	0,001
921,2	0,001
921,6	0,001
922	0,001
922,5	0,001
922,9	0
923,3	0,001
923,7	0
924,2	0
924,6	0
925	0
925,4	0
925,8	0
926,3	0
926,7	0,001
927,1	0,001
927,5	0,001
928	0,001
928,4	0
928,8	-0
929,2	-0,001
929,7	-0,001
930,1	-0,001
930,5	-0,001
930,9	-0,001
931,3	-0,001
931,8	-0,001
932,2	-0,001
932,6	-0,001
933	-0,002
933,5	-0,001
933,9	-0,002
934,3	-0,001
934,7	-0,001
935,2	-0,001
935,6	-0
936	0
936,4	0
936,8	0
937,3	0
937,7	-0,001
938,1	-0,001
938,5	-0,001
939	-0,001
939,4	-0,001
939,8	-0,001
940,2	-0,001
940,6	-0,001
941,1	-0,001
941,5	-0,001
941,9	-0,001
942,3	-0,001
942,8	-0,001
943,2	-0,001
943,6	-0,001
944	0
944,4	0
944,9	0,001
945,3	0,001
945,7	0,002
946,1	0,001
946,6	0,002
947	0,002
947,4	0,002
947,8	0,002
948,2	0,001
948,7	0,001
949,1	0,001
949,5	0,001
949,9	0,001
950,3	0
950,8	0
951,2	-0
951,6	0,001
952	0,001
952,5	0
952,9	0
953,3	0,001
953,7	0
954,1	0
954,6	0
955	0
955,4	0,001
955,8	0,001
956,2	0,001
956,7	0,002
957,1	0,002
957,5	0,002
957,9	0,003
958,3	0,002
958,8	0,002
959,2	0,002
959,6	0,001
960	0,001
960,5	0,001
960,9	0
961,3	0
961,7	0,001
962,1	0,001
962,6	0
963	0,001
963,4	0
963,8	-0
964,2	-0
964,7	-0,001
965,1	-0,001
965,5	-0
965,9	-0
966,3	0
966,8	0,001
967,2	0,001
967,6	0,001
968	0,002
968,4	0,001
968,9	0,001
969,3	0,001
969,7	0,001
970,1	0,001
970,5	0,001
971	0,001
971,4	0,001
971,8	0
972,2	0,001
972,6	0,001
973,1	0,001
973,5	0,001
973,9	0,001
974,3	0,001
974,7	0,001
975,2	0,001
975,6	0,001
976	0,001
976,4	0
976,8	0
977,3	0
977,7	0,001
978,1	0,001
978,5	0
978,9	0
979,4	0
979,8	0
980,2	0,001
980,6	0,001
981	0,001
981,5	0,002
981,9	0,002
982,3	0,002
982,7	0,002
983,1	0,002
983,6	0,002
984	0,002
984,4	0,001
984,8	0,001
985,2	0,001
985,6	0,001
986,1	0,001
986,5	0,001
986,9	0,001
987,3	0,001
987,7	0,001
988,2	0,001
988,6	0
989	0
989,4	-0
989,8	-0
990,3	-0
990,7	-0,001
991,1	-0,001
991,5	-0,001
991,9	-0
992,3	0
992,8	0,001
993,2	0,001
993,6	0,001
994	0,002
994,4	0,001
994,9	0,002
995,3	0,002
995,7	0,002
996,1	0,002
996,5	0,002
996,9	0,001
997,4	0,002
997,8	0,001
998,2	0,001
998,6	0,001
999	0,001
999,5	0,001
999,9	0,001
1000,3	0,001
1000,7	0,002
1001,1	0,001
1001,5	0,001
1002	0,001
1002,4	-0
1002,8	0
1003,2	0
1003,6	0
1004	0
1004,5	0
1004,9	0,001
1005,3	0,002
1005,7	0,001
1006,1	0,002
1006,6	0,002
1007	0,003
1007,4	0,003
1007,8	0,003
1008,2	0,002
1008,6	0,002
1009,1	0,001
1009,5	0,001
1009,9	0,001
1010,3	0
1010,7	0,001
1011,1	0
1011,6	0
1012	0,001
1012,4	0,001
1012,8	0
1013,2	0,001
1013,6	0
1014,1	0,001
1014,5	0
1014,9	0
1015,3	-0
1015,7	-0,001
1016,1	-0,001
1016,6	-0,001
1017	-0,001
1017,4	-0,002
1017,8	-0,001
1018,2	-0,001
1018,6	-0,001
1019,1	-0,001
1019,5	-0,001
1019,9	-0,001
1020,3	-0
1020,7	-0,001
1021,1	-0,001
1021,6	-0,001
1022	-0,001
1022,4	-0,001
1022,8	-0,001
1023,2	-0,002
1023,6	-0,001
1024,1	-0,001
1024,5	-0
1024,9	0
1025,3	0
1025,7	0,001
1026,1	0,001
1026,6	0,001
1027	0,001
1027,4	0
1027,8	-0
1028,2	0
1028,6	-0
1029	0,001
1029,5	0,001
1029,9	0,001
1030,3	0,001
1030,7	0,002
1031,1	0,002
1031,5	0,002
1032	0,001
1032,4	0,001
1032,8	0,001
1033,2	0
1033,6	0,001
1034	0,001
1034,4	0
1034,9	-0
1035,3	0
1035,7	0
1036,1	0,001
1036,5	-0
1036,9	-0
1037,4	-0
1037,8	0,001
1038,2	0
1038,6	-0
1039	0
1039,4	0,001
1039,8	0,001
1040,3	0,001
1040,7	0,001
1041,1	0,002
1041,5	0,002
1041,9	0,001
1042,3	0,001
1042,7	-0
1043,2	-0,001
1043,6	-0,001
1044	-0,001
1044,4	-0,001
1044,8	-0,001
1045,2	-0,001
1045,6	-0,001
1046,1	0
1046,5	-0
1046,9	-0
1047,3	-0
1047,7	-0
1048,1	-0
1048,5	-0,001
1049	-0,002
1049,4	-0,002
1049,8	-0,003
1050,2	-0,002
1050,6	-0,003
1051	-0,002
1051,4	-0,002
1051,9	-0,003
1052,3	-0,002
1052,7	-0,002
1053,1	-0,002
1053,5	-0,001
1053,9	-0,001
1054,3	-0,001
1054,8	-0,001
1055,2	-0,001
1055,6	-0,001
1056	-0,001
1056,4	-0,002
1056,8	-0,002
1057,2	-0,002
1057,6	-0,002
1058,1	-0,002
1058,5	-0,003
1058,9	-0,003
1059,3	-0,003
1059,7	-0,002
1060,1	-0,002
1060,5	-0,003
1061	-0,002
1061,4	-0,001
1061,8	-0
1062,2	-0
1062,6	-0,001
1063	-0,001
1063,4	-0
1063,8	-0,001
1064,3	-0,001
1064,7	-0,001
1065,1	-0,001
1065,5	-0,001
1065,9	0,001
1066,3	0,001
1066,7	0,001
1067,1	0
1067,6	-0
1068	-0
1068,4	0,001
1068,8	0
1069,2	0
1069,6	-0
1070	0
1070,4	0
1070,9	-0
1071,3	-0,001
1071,7	-0,001
1072,1	-0,002
1072,5	-0,002
1072,9	-0,003
1073,3	-0,002
1073,7	-0,001
1074,2	-0,001
1074,6	0
1075	0
1075,4	0,001
1075,8	0,002
1076,2	0,002
1076,6	0,001
1077	0
1077,5	-0,001
1077,9	-0,001
1078,3	-0,002
1078,7	-0,002
1079,1	-0,002
1079,5	-0,002
1079,9	-0,002
1080,3	-0,002
1080,7	-0,002
1081,2	-0,002
1081,6	-0,003
1082	-0,004
1082,4	-0,004
1082,8	-0,005
1083,2	-0,005
1083,6	-0,005
1084	-0,004
1084,5	-0,003
1084,9	-0,002
1085,3	-0,001
1085,7	0,002
1086,1	0,001
1086,5	0,001
1086,9	0
1087,3	0,001
1087,7	0,001
1088,2	0,001
1088,6	-0,003
1089	-0,001
1089,4	0,001
1089,8	0,001
1090,2	-0,001
1090,6	-0,001
1091	-0,001
1091,4	0
1091,9	-0,002
1092,3	-0,004
1092,7	-0
1093,1	-0,001
1093,5	-0,005
1093,9	-0,005
1094,3	-0,004
1094,7	-0,002
1095,1	0,001
1095,5	-0,002
1096	-0,002
1096,4	0
1096,8	0,004
1097,2	0,005
1097,6	0,003
1098	0,001
1098,4	-0,003
1098,8	-0,002
1099,2	-0
1099,6	-0,001
1100,1	-0
1100,5	0,005
1100,9	0,002
1101,3	0,002
1101,7	0,006
1102,1	-0,003
1102,5	-0,007
1102,9	-0,007
1103,3	-0,014
1103,7	-0,015
1104,2	-0,015
1104,6	-0,012
1105	-0,012
1105,4	-0,002
1105,8	0,001
1106,2	0,008
1106,6	0,025
1107	0,018
1107,4	0,007
1107,8	0,076
1108,3	0,24
