Data from Absorbance_00067.txt Node
Date: Fri Aug 11 13:31:36 MSK 2023
User: vat
Spectrometer: MAYP114033
Trigger mode: 0
Integration Time (sec): 8,000000E-3
Scans to average: 10
Electric dark correction enabled: true
Nonlinearity correction enabled: false
Boxcar width: 3
XAxis mode: Wavelengths
Number of Pixels in Spectrum: 2068
>>>>>Begin Spectral Data<<<<<
199,4	-0,278
199,9	0,597
200,4	0,707
200,8	0,848
201,3	0,941
201,8	0,955
202,2	0,985
202,7	0,984
203,2	1,028
203,6	1,048
204,1	1,068
204,6	1,079
205	1,106
205,5	1,121
206	1,137
206,4	1,133
206,9	1,153
207,4	1,171
207,8	1,182
208,3	1,192
208,8	1,205
209,2	1,226
209,7	1,25
210,2	1,26
210,6	1,294
211,1	1,307
211,5	1,33
212	1,342
212,5	1,349
212,9	1,362
213,4	1,381
213,9	1,375
214,3	1,374
214,8	1,387
215,3	1,394
215,7	1,415
216,2	1,436
216,7	1,451
217,1	1,472
217,6	1,513
218,1	1,53
218,5	1,542
219	1,555
219,5	1,543
219,9	1,551
220,4	1,567
220,9	1,574
221,3	1,587
221,8	1,614
222,3	1,626
222,7	1,659
223,2	1,672
223,6	1,679
224,1	1,698
224,6	1,727
225	1,744
225,5	1,768
226	1,788
226,4	1,805
226,9	1,828
227,4	1,84
227,8	1,829
228,3	1,853
228,8	1,864
229,2	1,862
229,7	1,871
230,2	1,871
230,6	1,896
231,1	1,904
231,5	1,907
232	1,919
232,5	1,934
232,9	1,948
233,4	1,967
233,9	1,954
234,3	1,96
234,8	1,957
235,3	1,983
235,7	1,996
236,2	2,002
236,7	2,013
237,1	2,019
237,6	2,045
238,1	2,047
238,5	2,029
239	2,04
239,4	2,056
239,9	2,065
240,4	2,062
240,8	2,044
241,3	2,04
241,8	2,062
242,2	2,061
242,7	2,056
243,2	2,056
243,6	2,075
244,1	2,091
244,6	2,108
245	2,092
245,5	2,102
245,9	2,111
246,4	2,115
246,9	2,124
247,3	2,122
247,8	2,119
248,3	2,136
248,7	2,137
249,2	2,12
249,7	2,115
250,1	2,105
250,6	2,099
251	2,109
251,5	2,096
252	2,092
252,4	2,117
252,9	2,127
253,4	2,125
253,8	2,142
254,3	2,15
254,8	2,16
255,2	2,164
255,7	2,157
256,1	2,15
256,6	2,17
257,1	2,181
257,5	2,182
258	2,191
258,5	2,171
258,9	2,173
259,4	2,185
259,9	2,178
260,3	2,16
260,8	2,17
261,2	2,175
261,7	2,203
262,2	2,2
262,6	2,192
263,1	2,191
263,6	2,198
264	2,181
264,5	2,173
264,9	2,169
265,4	2,159
265,9	2,152
266,3	2,169
266,8	2,169
267,3	2,169
267,7	2,162
268,2	2,161
268,7	2,186
269,1	2,19
269,6	2,174
270	2,176
270,5	2,189
271	2,203
271,4	2,183
271,9	2,158
272,4	2,151
272,8	2,142
273,3	2,151
273,7	2,144
274,2	2,121
274,7	2,145
275,1	2,168
275,6	2,181
276,1	2,174
276,5	2,149
277	2,131
277,4	2,136
277,9	2,113
278,4	2,103
278,8	2,111
279,3	2,103
279,8	2,105
280,2	2,094
280,7	2,092
281,1	2,086
281,6	2,073
282,1	2,046
282,5	2,022
283	2,009
283,4	1,993
283,9	1,95
284,4	1,896
284,8	1,829
285,3	1,752
285,8	1,683
286,2	1,591
286,7	1,506
287,1	1,423
287,6	1,345
288,1	1,273
288,5	1,205
289	1,143
289,5	1,091
289,9	1,044
290,4	1,006
290,8	0,974
291,3	0,943
291,8	0,92
292,2	0,899
292,7	0,88
293,1	0,863
293,6	0,847
294,1	0,833
294,5	0,822
295	0,811
295,5	0,802
295,9	0,794
296,4	0,788
296,8	0,781
297,3	0,776
297,8	0,771
298,2	0,765
298,7	0,76
299,1	0,757
299,6	0,752
300,1	0,747
300,5	0,743
301	0,738
301,5	0,736
301,9	0,731
302,4	0,726
302,8	0,721
303,3	0,716
303,8	0,711
304,2	0,706
304,7	0,701
305,1	0,697
305,6	0,692
306,1	0,686
306,5	0,681
307	0,675
307,4	0,671
307,9	0,666
308,4	0,66
308,8	0,655
309,3	0,652
309,8	0,647
310,2	0,643
310,7	0,636
311,1	0,631
311,6	0,627
312,1	0,62
312,5	0,614
313	0,608
313,4	0,603
313,9	0,598
314,4	0,592
314,8	0,585
315,3	0,579
315,7	0,574
316,2	0,569
316,7	0,562
317,1	0,556
317,6	0,55
318	0,544
318,5	0,54
319	0,533
319,4	0,528
319,9	0,523
320,3	0,518
320,8	0,511
321,3	0,505
321,7	0,499
322,2	0,493
322,6	0,488
323,1	0,482
323,6	0,475
324	0,47
324,5	0,464
324,9	0,459
325,4	0,454
325,9	0,447
326,3	0,441
326,8	0,435
327,2	0,429
327,7	0,424
328,2	0,418
328,6	0,412
329,1	0,406
329,5	0,401
330	0,396
330,5	0,391
330,9	0,385
331,4	0,38
331,8	0,374
332,3	0,368
332,8	0,361
333,2	0,356
333,7	0,35
334,1	0,344
334,6	0,338
335,1	0,332
335,5	0,327
336	0,322
336,4	0,316
336,9	0,311
337,4	0,306
337,8	0,3
338,3	0,295
338,7	0,29
339,2	0,285
339,7	0,279
340,1	0,275
340,6	0,27
341	0,264
341,5	0,259
342	0,255
342,4	0,25
342,9	0,246
343,3	0,241
343,8	0,236
344,2	0,232
344,7	0,228
345,2	0,224
345,6	0,221
346,1	0,216
346,5	0,213
347	0,209
347,5	0,205
347,9	0,201
348,4	0,196
348,8	0,192
349,3	0,189
349,8	0,185
350,2	0,181
350,7	0,178
351,1	0,175
351,6	0,172
352	0,169
352,5	0,166
353	0,162
353,4	0,159
353,9	0,156
354,3	0,153
354,8	0,15
355,3	0,148
355,7	0,144
356,2	0,142
356,6	0,139
357,1	0,137
357,5	0,134
358	0,131
358,5	0,128
358,9	0,126
359,4	0,124
359,8	0,122
360,3	0,12
360,8	0,118
361,2	0,117
361,7	0,115
362,1	0,113
362,6	0,11
363	0,107
363,5	0,106
364	0,104
364,4	0,103
364,9	0,101
365,3	0,098
365,8	0,097
366,3	0,096
366,7	0,094
367,2	0,092
367,6	0,09
368,1	0,089
368,5	0,088
369	0,087
369,5	0,086
369,9	0,084
370,4	0,083
370,8	0,081
371,3	0,08
371,7	0,079
372,2	0,079
372,7	0,078
373,1	0,077
373,6	0,075
374	0,074
374,5	0,072
374,9	0,071
375,4	0,07
375,9	0,068
376,3	0,068
376,8	0,067
377,2	0,067
377,7	0,066
378,2	0,065
378,6	0,064
379,1	0,063
379,5	0,062
380	0,061
380,4	0,059
380,9	0,058
381,4	0,057
381,8	0,057
382,3	0,056
382,7	0,054
383,2	0,054
383,6	0,053
384,1	0,053
384,6	0,052
385	0,052
385,5	0,052
385,9	0,051
386,4	0,05
386,8	0,05
387,3	0,05
387,7	0,048
388,2	0,046
388,7	0,046
389,1	0,045
389,6	0,044
390	0,044
390,5	0,043
390,9	0,042
391,4	0,042
391,9	0,042
392,3	0,041
392,8	0,04
393,2	0,04
393,7	0,039
394,1	0,04
394,6	0,039
395,1	0,038
395,5	0,038
396	0,038
396,4	0,038
396,9	0,037
397,3	0,036
397,8	0,036
398,2	0,035
398,7	0,035
399,2	0,034
399,6	0,034
400,1	0,033
400,5	0,033
401	0,032
401,4	0,031
401,9	0,031
402,4	0,03
402,8	0,029
403,3	0,029
403,7	0,028
404,2	0,029
404,6	0,029
405,1	0,029
405,5	0,028
406	0,027
406,5	0,027
406,9	0,026
407,4	0,025
407,8	0,024
408,3	0,023
408,7	0,022
409,2	0,022
409,6	0,022
410,1	0,022
410,6	0,021
411	0,021
411,5	0,02
411,9	0,02
412,4	0,02
412,8	0,019
413,3	0,019
413,7	0,019
414,2	0,019
414,7	0,018
415,1	0,018
415,6	0,017
416	0,018
416,5	0,017
416,9	0,017
417,4	0,016
417,8	0,016
418,3	0,015
418,8	0,015
419,2	0,015
419,7	0,015
420,1	0,014
420,6	0,014
421	0,015
421,5	0,014
421,9	0,013
422,4	0,013
422,8	0,013
423,3	0,013
423,8	0,013
424,2	0,012
424,7	0,012
425,1	0,011
425,6	0,011
426	0,01
426,5	0,01
426,9	0,009
427,4	0,008
427,9	0,008
428,3	0,008
428,8	0,008
429,2	0,008
429,7	0,008
430,1	0,007
430,6	0,007
431	0,007
431,5	0,006
431,9	0,006
432,4	0,006
432,8	0,005
433,3	0,006
433,8	0,006
434,2	0,006
434,7	0,006
435,1	0,006
435,6	0,006
436	0,005
436,5	0,005
436,9	0,005
437,4	0,004
437,8	0,005
438,3	0,005
438,8	0,004
439,2	0,004
439,7	0,004
440,1	0,003
440,6	0,002
441	0,002
441,5	0,002
441,9	0,002
442,4	0,001
442,8	0,001
443,3	0,001
443,7	0,002
444,2	0,002
444,7	0,002
445,1	0,002
445,6	0,002
446	0,002
446,5	0,002
446,9	0,002
447,4	0,002
447,8	0,002
448,3	0,002
448,7	0,003
449,2	0,003
449,6	0,002
450,1	0,002
450,6	0,002
451	0,002
451,5	0,001
451,9	0,001
452,4	0,001
452,8	-0
453,3	-0,001
453,7	-0,001
454,2	-0,001
454,6	-0
455,1	-0
455,5	-0
456	0
456,4	0,001
456,9	0,001
457,3	0,001
457,8	0
458,3	-0
458,7	-0,001
459,2	-0,001
459,6	-0,001
460,1	-0,001
460,5	-0,001
461	-0,001
461,4	-0
461,9	-0,001
462,3	-0,001
462,8	-0,001
463,2	-0,001
463,7	-0,001
464,1	-0,001
464,6	-0,001
465	-0
465,5	-0
466	0
466,4	0,001
466,9	0,001
467,3	0,001
467,8	0,001
468,2	0
468,7	-0
469,1	-0
469,6	-0,001
470	-0,001
470,5	-0,001
470,9	-0,001
471,4	-0,001
471,8	-0,001
472,3	-0,002
472,7	-0,002
473,2	-0,001
473,6	-0,001
474,1	-0,001
474,5	-0,001
475	-0,001
475,4	-0
475,9	-0
476,4	-0,001
476,8	-0,001
477,3	-0,001
477,7	-0,001
478,2	-0,002
478,6	-0,002
479,1	-0,002
479,5	-0,001
480	-0,001
480,4	-0,001
480,9	0
481,3	0,001
481,8	0
482,2	-0,001
482,7	-0,001
483,1	-0,002
483,6	-0,002
484	-0,002
484,5	-0,002
484,9	-0,002
485,4	-0,002
485,8	-0
486,3	0
486,7	-0
487,2	-0
487,6	-0
488,1	0
488,5	0,001
489	-0,001
489,4	-0,001
489,9	-0
490,4	0
490,8	0
491,3	0
491,7	-0
492,2	-0
492,6	-0
493,1	-0,001
493,5	-0,001
494	-0,001
494,4	-0,001
494,9	-0,001
495,3	-0,001
495,8	-0
496,2	0
496,7	-0,001
497,1	-0
497,6	-0,001
498	-0,001
498,5	-0,001
498,9	-0,001
499,4	-0,001
499,8	-0,001
500,3	-0,001
500,7	-0,001
501,2	-0,001
501,6	-0,001
502,1	-0,001
502,5	-0,001
503	-0,001
503,4	-0,001
503,9	-0,001
504,3	-0,001
504,8	-0,001
505,2	-0
505,7	-0
506,1	-0
506,6	0
507	0,001
507,5	-0
507,9	0
508,4	-0,001
508,8	-0,001
509,3	-0,002
509,7	-0,002
510,2	-0,002
510,6	-0,001
511,1	-0,001
511,5	-0,001
512	-0
512,4	-0
512,9	-0
513,3	-0
513,8	-0
514,2	-0
514,7	-0
515,1	-0
515,6	-0,001
516	-0,001
516,5	-0
516,9	-0
517,4	-0,001
517,8	-0,001
518,3	-0,001
518,7	-0,001
519,2	-0,001
519,6	-0,002
520,1	-0,001
520,5	-0,001
521	-0,001
521,4	-0
521,9	-0
522,3	0,001
522,8	0,001
523,2	0
523,7	0,001
524,1	0,001
524,6	0,001
525	0,001
525,5	0
525,9	-0
526,4	0
526,8	-0
527,3	-0,001
527,7	-0
528,2	-0,001
528,6	-0
529,1	-0
529,5	-0,001
530	-0,001
530,4	-0
530,9	-0,001
531,3	-0,001
531,8	-0,001
532,2	-0,001
532,6	-0,001
533,1	-0,001
533,5	-0,001
534	-0,001
534,4	-0,001
534,9	-0,001
535,3	-0,001
535,8	-0,001
536,2	-0,002
536,7	-0,003
537,1	-0,003
537,6	-0,003
538	-0,003
538,5	-0,003
538,9	-0,002
539,4	-0,002
539,8	-0,001
540,3	-0,001
540,7	-0
541,2	-0
541,6	0
542,1	-0
542,5	-0
543	-0,001
543,4	-0,001
543,9	-0,002
544,3	-0,002
544,8	-0,002
545,2	-0,003
545,7	-0,002
546,1	-0,002
546,5	-0,002
547	-0,002
547,4	-0,001
547,9	-0,002
548,3	-0,001
548,8	-0,001
549,2	-0,001
549,7	-0
550,1	-0
550,6	-0
551	-0
551,5	-0
551,9	-0
552,4	-0
552,8	-0,001
553,3	-0,001
553,7	-0,001
554,2	-0
554,6	-0
555,1	-0,001
555,5	-0
555,9	-0,001
556,4	-0,001
556,8	-0
557,3	-0,001
557,7	-0,001
558,2	-0,001
558,6	-0,001
559,1	-0,002
559,5	-0,002
560	-0,002
560,4	-0,002
560,9	-0,002
561,3	-0,002
561,8	-0,002
562,2	-0,001
562,7	-0,001
563,1	-0
563,6	0
564	0
564,4	-0
564,9	-0
565,3	0
565,8	0
566,2	-0
566,7	-0
567,1	-0,001
567,6	-0
568	-0
568,5	-0,001
568,9	-0,002
569,4	-0,001
569,8	-0,001
570,3	-0,001
570,7	-0,001
571,1	-0,001
571,6	-0
572	0
572,5	-0
572,9	-0
573,4	-0
573,8	-0,001
574,3	-0,001
574,7	-0,001
575,2	-0,002
575,6	-0,002
576,1	-0,002
576,5	-0,001
576,9	-0,001
577,4	-0,001
577,8	-0,001
578,3	-0,001
578,7	-0,001
579,2	-0,001
579,6	-0,001
580,1	-0,001
580,5	-0,001
581	-0,001
581,4	-0,001
581,9	-0,001
582,3	-0,001
582,7	-0,001
583,2	-0,001
583,6	-0
584,1	0
584,5	-0
585	0
585,4	0
585,9	-0,001
586,3	-0,001
586,8	-0,001
587,2	-0,001
587,6	-0,001
588,1	-0,001
588,5	-0,002
589	-0,001
589,4	-0,001
589,9	-0,001
590,3	-0,001
590,8	-0,002
591,2	-0,002
591,7	-0,001
592,1	-0,001
592,5	-0,001
593	-0,001
593,4	-0,001
593,9	-0
594,3	-0
594,8	-0
595,2	-0
595,7	-0
596,1	-0
596,6	-0
597	-0
597,4	-0
597,9	-0
598,3	-0
598,8	-0
599,2	-0,001
599,7	-0,001
600,1	-0,001
600,6	-0,002
601	-0,002
601,4	-0,002
601,9	-0,002
602,3	-0,002
602,8	-0,001
603,2	-0,002
603,7	-0,002
604,1	-0,002
604,6	-0,002
605	-0,002
605,4	-0,001
605,9	-0,001
606,3	-0,002
606,8	-0,001
607,2	-0,001
607,7	-0,001
608,1	-0,001
608,6	-0,001
609	-0,001
609,4	-0
609,9	-0,001
610,3	-0,001
610,8	-0,001
611,2	-0,001
611,7	-0,001
612,1	-0,001
612,6	-0,002
613	-0,001
613,4	-0,001
613,9	-0,002
614,3	-0,002
614,8	-0,002
615,2	-0,002
615,7	-0,002
616,1	-0,002
616,6	-0,002
617	-0,001
617,4	-0,001
617,9	-0,001
618,3	-0,001
618,8	-0,001
619,2	-0,001
619,7	-0,001
620,1	-0,001
620,5	-0,001
621	-0,001
621,4	-0,001
621,9	-0,001
622,3	-0,001
622,8	-0,001
623,2	-0,001
623,6	-0,001
624,1	-0,001
624,5	-0
625	-0
625,4	-0
625,9	-0
626,3	-0,001
626,8	-0,001
627,2	-0,001
627,6	-0,001
628,1	-0
628,5	-0
629	-0
629,4	-0
629,9	-0,001
630,3	-0,001
630,7	-0
631,2	-0
631,6	-0,001
632,1	-0,001
632,5	-0,001
633	-0
633,4	-0,001
633,8	-0,001
634,3	-0,001
634,7	-0,001
635,2	-0
635,6	-0,001
636,1	-0,001
636,5	-0,001
636,9	-0
637,4	-0,001
637,8	-0,001
638,3	-0,001
638,7	-0,001
639,2	-0
639,6	-0
640	-0
640,5	-0
640,9	-0,001
641,4	-0,001
641,8	-0,001
642,2	-0,001
642,7	-0,001
643,1	-0,001
643,6	-0,001
644	-0
644,5	-0
644,9	-0,001
645,3	-0
645,8	0
646,2	0
646,7	0
647,1	0,001
647,6	0,001
648	0,001
648,4	0
648,9	0
649,3	0
649,8	0,001
650,2	0
650,6	-0
651,1	-0
651,5	-0
652	-0,001
652,4	-0,001
652,9	-0,001
653,3	-0,002
653,7	-0,001
654,2	-0,002
654,6	-0,002
655,1	-0,002
655,5	-0,001
655,9	-0,001
656,4	-0,001
656,8	-0
657,3	0
657,7	0,001
658,2	0,002
658,6	0,002
659	0,003
659,5	0,004
659,9	0,005
660,4	0,003
660,8	0,002
661,2	0,001
661,7	0,001
662,1	-0
662,6	-0
663	-0
663,4	-0,001
663,9	-0,001
664,3	-0,001
664,8	-0,002
665,2	-0,001
665,6	-0,001
666,1	-0,001
666,5	-0,002
667	-0,002
667,4	-0,002
667,9	-0,001
668,3	-0,001
668,7	-0,001
669,2	-0,001
669,6	-0,001
670,1	-0,001
670,5	-0,001
670,9	-0,001
671,4	-0,001
671,8	-0,001
672,3	-0,001
672,7	-0,001
673,1	-0,001
673,6	-0,001
674	-0,002
674,5	-0,002
674,9	-0,002
675,3	-0,002
675,8	-0,002
676,2	-0,002
676,7	-0,002
677,1	-0,002
677,5	-0,002
678	-0,002
678,4	-0,001
678,9	-0,001
679,3	-0,001
679,7	-0,001
680,2	-0,001
680,6	-0,001
681,1	-0,001
681,5	-0,001
681,9	-0,001
682,4	-0,001
682,8	-0
683,3	-0,001
683,7	-0
684,1	-0
684,6	-0,001
685	-0,001
685,5	-0,001
685,9	-0,002
686,3	-0,002
686,8	-0,001
687,2	-0,001
687,7	-0,001
688,1	-0,001
688,5	-0,001
689	-0,001
689,4	-0,001
689,9	-0,001
690,3	-0,001
690,7	-0,001
691,2	-0,001
691,6	-0
692	-0
692,5	-0
692,9	-0
693,4	-0
693,8	-0
694,2	-0
694,7	-0
695,1	0
695,6	-0
696	0
696,4	0
696,9	0
697,3	-0
697,8	-0
698,2	-0,001
698,6	-0,001
699,1	-0,001
699,5	-0,001
699,9	-0,001
700,4	-0,001
700,8	-0,001
701,3	-0
701,7	-0
702,1	0
702,6	0
703	0
703,5	0
703,9	0
704,3	0
704,8	0
705,2	-0
705,6	-0
706,1	-0
706,5	-0,001
707	-0,001
707,4	-0,001
707,8	-0,001
708,3	-0,001
708,7	-0,001
709,2	-0,001
709,6	-0,001
710	-0
710,5	-0,001
710,9	-0,001
711,3	-0,001
711,8	-0,001
712,2	-0,001
712,7	-0,001
713,1	-0,001
713,5	-0,001
714	-0,001
714,4	-0,001
714,8	-0,001
715,3	-0,001
715,7	-0,001
716,2	-0,001
716,6	-0
717	-0,001
717,5	-0,001
717,9	-0,001
718,3	-0,001
718,8	-0,001
719,2	-0,002
719,7	-0,002
720,1	-0,002
720,5	-0,001
721	-0,001
721,4	-0,001
721,8	-0,001
722,3	-0,001
722,7	-0,001
723,2	-0
723,6	-0
724	-0
724,5	-0,001
724,9	-0
725,3	-0,001
725,8	-0,001
726,2	-0,001
726,7	-0,001
727,1	-0,001
727,5	-0,001
728	-0,001
728,4	-0,001
728,8	-0,002
729,3	-0,002
729,7	-0,002
730,1	-0,002
730,6	-0,002
731	-0,002
731,5	-0,001
731,9	-0,001
732,3	-0,001
732,8	-0,001
733,2	-0,001
733,6	-0,001
734,1	-0,001
734,5	-0,001
734,9	-0
735,4	-0
735,8	-0
736,3	-0
736,7	-0
737,1	-0
737,6	0
738	-0
738,4	-0
738,9	-0,001
739,3	-0,001
739,7	-0,001
740,2	-0,001
740,6	-0,001
741,1	-0,002
741,5	-0,002
741,9	-0,001
742,4	-0,001
742,8	-0,001
743,2	-0,001
743,7	-0
744,1	-0
744,5	-0
745	-0
745,4	-0
745,8	-0,001
746,3	-0,001
746,7	-0,001
747,2	-0,001
747,6	-0,001
748	-0,001
748,5	-0,001
748,9	-0
749,3	-0
749,8	-0
750,2	-0
750,6	-0
751,1	-0
751,5	-0
751,9	-0
752,4	-0
752,8	-0
753,3	-0
753,7	-0
754,1	-0
754,6	-0
755	-0
755,4	-0
755,9	-0
756,3	-0
756,7	-0
757,2	-0
757,6	-0
758	-0
758,5	-0
758,9	-0
759,3	-0
759,8	-0
760,2	-0
760,6	0
761,1	-0
761,5	0
761,9	0
762,4	0
762,8	0
763,3	0,001
763,7	0,001
764,1	0,001
764,6	0,001
765	0,001
765,4	0,001
765,9	0,001
766,3	0,001
766,7	0,001
767,2	0,001
767,6	0,001
768	0,002
768,5	0,002
768,9	0,002
769,3	0,002
769,8	0,002
770,2	0,002
770,6	0,002
771,1	0,002
771,5	0,001
771,9	0,001
772,4	0,001
772,8	0,001
773,2	0,001
773,7	0,002
774,1	0,002
774,5	0,002
775	0,002
775,4	0,001
775,8	0,001
776,3	0,001
776,7	0
777,1	0
777,6	0
778	0
778,4	0
778,9	0
779,3	0
779,7	0
780,2	0
780,6	0
781	-0
781,5	0
781,9	0
782,3	-0
782,8	-0
783,2	-0
783,6	-0
784,1	-0
784,5	-0
784,9	-0
785,4	-0
785,8	-0,001
786,2	-0,001
786,7	-0,001
787,1	-0,001
787,5	-0,001
788	-0,001
788,4	-0,001
788,8	-0,001
789,3	-0,001
789,7	-0,001
790,1	-0,001
790,6	-0,001
791	-0,001
791,4	-0,002
791,9	-0,001
792,3	-0,001
792,7	-0,002
793,2	-0,002
793,6	-0,002
794	-0,001
794,5	-0,001
794,9	-0,001
795,3	-0,001
795,8	-0
796,2	0
796,6	0
797,1	0,001
797,5	0,001
797,9	0,001
798,4	0,001
798,8	0,001
799,2	0
799,7	0
800,1	-0
800,5	-0,001
801	-0,001
801,4	-0,001
801,8	-0,001
802,2	-0,001
802,7	-0,001
803,1	-0,001
803,5	-0,001
804	-0,001
804,4	-0
804,8	-0,001
805,3	-0,001
805,7	-0,002
806,1	-0,002
806,6	-0,002
807	-0,002
807,4	-0,002
807,9	-0,001
808,3	-0,001
808,7	-0,001
809,2	-0,001
809,6	-0,001
810	-0,001
810,4	-0,001
810,9	-0,001
811,3	-0,001
811,7	-0,001
812,2	-0,001
812,6	-0,001
813	-0,001
813,5	-0,001
813,9	-0,001
814,3	-0,002
814,8	-0,002
815,2	-0,002
815,6	-0,002
816,1	-0,003
816,5	-0,003
816,9	-0,003
817,3	-0,003
817,8	-0,003
818,2	-0,002
818,6	-0,002
819,1	-0,002
819,5	-0,002
819,9	-0,001
820,4	-0,001
820,8	-0,002
821,2	-0,002
821,7	-0,002
822,1	-0,002
822,5	-0,002
822,9	-0,002
823,4	-0,002
823,8	-0,002
824,2	-0,002
824,7	-0,002
825,1	-0,002
825,5	-0,002
826	-0,001
826,4	-0,001
826,8	-0,001
827,3	-0,001
827,7	-0,001
828,1	-0,001
828,5	-0,001
829	-0,001
829,4	-0,001
829,8	-0,001
830,3	-0
830,7	-0
831,1	-0
831,6	-0
832	-0
832,4	-0
832,8	-0
833,3	-0
833,7	-0,001
834,1	-0,001
834,6	-0,001
835	-0,001
835,4	-0,001
835,8	-0,001
836,3	-0,001
836,7	-0,001
837,1	-0,001
837,6	-0,001
838	-0,001
838,4	-0,002
838,9	-0,001
839,3	-0,001
839,7	-0,001
840,1	-0,001
840,6	-0,001
841	-0,001
841,4	-0
841,9	-0,001
842,3	-0,001
842,7	-0,001
843,1	-0,001
843,6	-0,001
844	-0,001
844,4	-0,002
844,9	-0,001
845,3	-0,001
845,7	-0,001
846,2	-0,001
846,6	-0,001
847	-0,001
847,4	-0,001
847,9	-0
848,3	-0,001
848,7	-0
849,2	-0
849,6	-0
850	-0
850,4	0
850,9	-0
851,3	-0
851,7	-0
852,2	-0
852,6	-0
853	-0
853,4	0
853,9	0
854,3	0,001
854,7	0,001
855,2	0,001
855,6	0,001
856	0,001
856,4	0,001
856,9	0,001
857,3	0,001
857,7	0,001
858,2	0
858,6	-0
859	-0,001
859,4	-0,001
859,9	-0,002
860,3	-0,002
860,7	-0,002
861,1	-0,002
861,6	-0,002
862	-0,002
862,4	-0,001
862,9	-0,001
863,3	-0,001
863,7	-0,002
864,1	-0,001
864,6	-0,001
865	-0,001
865,4	-0,001
865,9	-0,001
866,3	-0,001
866,7	-0,001
867,1	-0,001
867,6	-0
868	-0
868,4	-0
868,8	-0
869,3	-0
869,7	-0
870,1	-0
870,6	-0
871	-0
871,4	-0,001
871,8	-0,001
872,3	-0,001
872,7	-0,001
873,1	-0,002
873,5	-0,002
874	-0,002
874,4	-0,002
874,8	-0,002
875,3	-0,002
875,7	-0,002
876,1	-0,002
876,5	-0,002
877	-0,002
877,4	-0,002
877,8	-0,002
878,2	-0,002
878,7	-0,002
879,1	-0,002
879,5	-0,002
879,9	-0,002
880,4	-0,001
880,8	-0,001
881,2	-0
881,7	-0
882,1	-0
882,5	-0,001
882,9	-0,001
883,4	-0,001
883,8	-0,001
884,2	-0,002
884,6	-0,002
885,1	-0,002
885,5	-0,002
885,9	-0,001
886,3	-0,001
886,8	-0,001
887,2	-0,001
887,6	-0,001
888	-0,001
888,5	-0,001
888,9	-0,001
889,3	-0,001
889,8	-0,001
890,2	-0
890,6	-0
891	0
891,5	0
891,9	0
892,3	0
892,7	0
893,2	0,001
893,6	0
894	0
894,4	0
894,9	-0
895,3	0
895,7	0
896,1	-0
896,6	-0
897	-0
897,4	-0
897,8	-0
898,3	-0,001
898,7	-0,001
899,1	-0,002
899,5	-0,001
900	-0,001
900,4	-0,001
900,8	-0,001
901,2	-0,001
901,7	-0,001
902,1	-0,001
902,5	-0,001
902,9	-0,002
903,4	-0,002
903,8	-0,001
904,2	-0,001
904,6	-0,001
905,1	-0,001
905,5	-0,001
905,9	-0,001
906,3	-0,001
906,8	-0,002
907,2	-0,002
907,6	-0,002
908	-0,002
908,5	-0,003
908,9	-0,003
909,3	-0,003
909,7	-0,003
910,2	-0,003
910,6	-0,003
911	-0,003
911,4	-0,003
911,9	-0,002
912,3	-0,003
912,7	-0,002
913,1	-0,002
913,6	-0,002
914	-0,002
914,4	-0,002
914,8	-0,002
915,3	-0,002
915,7	-0,003
916,1	-0,002
916,5	-0,002
916,9	-0,002
917,4	-0,001
917,8	-0,001
918,2	-0,001
918,6	-0
919,1	0
919,5	0,001
919,9	0,001
920,3	0,001
920,8	0,001
921,2	0,001
921,6	0,001
922	0,001
922,5	0
922,9	0
923,3	-0
923,7	-0
924,2	-0
924,6	-0
925	-0,001
925,4	-0,001
925,8	-0,001
926,3	-0,001
926,7	-0
927,1	-0,001
927,5	-0
928	-0
928,4	-0,001
928,8	-0,001
929,2	-0,001
929,7	-0,002
930,1	-0,001
930,5	-0,001
930,9	-0,001
931,3	-0,001
931,8	-0
932,2	-0,001
932,6	-0
933	-0,001
933,5	-0,001
933,9	-0,001
934,3	-0,001
934,7	-0,001
935,2	-0,001
935,6	-0
936	-0
936,4	-0,001
936,8	-0
937,3	-0,001
937,7	-0,001
938,1	-0,001
938,5	-0,001
939	-0,002
939,4	-0,002
939,8	-0,002
940,2	-0,002
940,6	-0,002
941,1	-0,002
941,5	-0,002
941,9	-0,002
942,3	-0,002
942,8	-0,002
943,2	-0,002
943,6	-0,002
944	-0,002
944,4	-0,002
944,9	-0,001
945,3	-0,002
945,7	-0,002
946,1	-0,002
946,6	-0,002
947	-0,003
947,4	-0,003
947,8	-0,003
948,2	-0,003
948,7	-0,002
949,1	-0,002
949,5	-0,003
949,9	-0,003
950,3	-0,003
950,8	-0,003
951,2	-0,003
951,6	-0,003
952	-0,003
952,5	-0,003
952,9	-0,002
953,3	-0,001
953,7	-0,001
954,1	-0,001
954,6	-0,001
955	-0,001
955,4	-0,001
955,8	-0,001
956,2	-0,001
956,7	-0,001
957,1	-0,001
957,5	-0
957,9	-0
958,3	-0
958,8	-0,001
959,2	-0,001
959,6	-0,001
960	-0,002
960,5	-0,002
960,9	-0,002
961,3	-0,002
961,7	-0,002
962,1	-0,002
962,6	-0,002
963	-0,001
963,4	-0,002
963,8	-0,002
964,2	-0,002
964,7	-0,002
965,1	-0,002
965,5	-0,002
965,9	-0,002
966,3	-0,001
966,8	-0
967,2	0,001
967,6	0,001
968	0,001
968,4	0,001
968,9	0
969,3	-0
969,7	-0,001
970,1	-0,001
970,5	-0,001
971	-0,002
971,4	-0,002
971,8	-0,002
972,2	-0,003
972,6	-0,003
973,1	-0,003
973,5	-0,003
973,9	-0,002
974,3	-0,002
974,7	-0,002
975,2	-0
975,6	-0,001
976	-0
976,4	-0,001
976,8	-0,001
977,3	-0,001
977,7	-0,001
978,1	-0,001
978,5	-0,001
978,9	-0,001
979,4	-0,001
979,8	-0,001
980,2	-0,001
980,6	-0
981	-0
981,5	0
981,9	0
982,3	-0
982,7	0
983,1	0
983,6	-0
984	-0,001
984,4	-0,002
984,8	-0,002
985,2	-0,001
985,6	-0,002
986,1	-0,002
986,5	-0,001
986,9	-0,001
987,3	-0,001
987,7	-0,001
988,2	-0,001
988,6	-0,001
989	-0,001
989,4	-0,001
989,8	-0,002
990,3	-0,002
990,7	-0,002
991,1	-0,002
991,5	-0,002
991,9	-0,002
992,3	-0,002
992,8	-0,001
993,2	-0,001
993,6	-0,001
994	-0,001
994,4	-0,002
994,9	-0,002
995,3	-0,002
995,7	-0,002
996,1	-0,002
996,5	-0,002
996,9	-0,002
997,4	-0,001
997,8	-0,001
998,2	-0,001
998,6	-0
999	0,001
999,5	0,001
999,9	0,001
1000,3	0,001
1000,7	0,002
1001,1	0,002
1001,5	0,001
1002	-0
1002,4	-0
1002,8	-0,001
1003,2	-0,002
1003,6	-0,002
1004	-0,002
1004,5	-0,002
1004,9	-0,001
1005,3	-0,001
1005,7	-0
1006,1	-0
1006,6	-0
1007	-0
1007,4	0
1007,8	0
1008,2	-0,001
1008,6	-0,001
1009,1	-0,001
1009,5	-0,001
1009,9	-0,001
1010,3	-0,001
1010,7	-0,001
1011,1	-0,001
1011,6	-0,002
1012	-0,001
1012,4	-0,002
1012,8	-0,001
1013,2	-0,001
1013,6	-0,001
1014,1	-0,001
1014,5	-0,001
1014,9	-0,001
1015,3	-0,001
1015,7	-0,001
1016,1	-0,001
1016,6	-0,001
1017	-0,001
1017,4	-0,001
1017,8	-0
1018,2	-0,001
1018,6	0
1019,1	-0
1019,5	-0
1019,9	-0
1020,3	-0
1020,7	-0
1021,1	-0
1021,6	-0
1022	0
1022,4	0
1022,8	0
1023,2	-0
1023,6	-0
1024,1	0
1024,5	0,001
1024,9	0,001
1025,3	0,001
1025,7	0,002
1026,1	0,002
1026,6	0,002
1027	0,002
1027,4	0,002
1027,8	0,001
1028,2	0,001
1028,6	0,001
1029	0,001
1029,5	0,002
1029,9	0,002
1030,3	0,002
1030,7	0,002
1031,1	0,002
1031,5	0,002
1032	0,002
1032,4	0,001
1032,8	0,001
1033,2	0
1033,6	0,001
1034	0
1034,4	0
1034,9	-0
1035,3	-0
1035,7	0
1036,1	0,001
1036,5	-0
1036,9	-0
1037,4	-0
1037,8	0
1038,2	0
1038,6	-0,001
1039	-0
1039,4	-0
1039,8	-0,001
1040,3	0
1040,7	-0,001
1041,1	-0,001
1041,5	-0
1041,9	-0,002
1042,3	-0,002
1042,7	-0,002
1043,2	-0,003
1043,6	-0,002
1044	-0,003
1044,4	-0,002
1044,8	-0,001
1045,2	-0,002
1045,6	-0,001
1046,1	-0
1046,5	0
1046,9	0,001
1047,3	0
1047,7	-0
1048,1	-0
1048,5	-0,001
1049	-0,001
1049,4	-0,001
1049,8	-0,002
1050,2	-0,001
1050,6	-0,002
1051	-0,002
1051,4	-0,002
1051,9	-0,002
1052,3	-0,002
1052,7	-0,002
1053,1	-0,002
1053,5	-0,001
1053,9	-0,001
1054,3	-0,001
1054,8	-0
1055,2	-0,001
1055,6	-0
1056	-0
1056,4	0
1056,8	0,001
1057,2	0
1057,6	-0,001
1058,1	-0,001
1058,5	-0,002
1058,9	-0,002
1059,3	-0,002
1059,7	-0,003
1060,1	-0,002
1060,5	-0,003
1061	-0,003
1061,4	-0,003
1061,8	-0,003
1062,2	-0,003
1062,6	-0,004
1063	-0,003
1063,4	-0,002
1063,8	-0,002
1064,3	-0,002
1064,7	-0,002
1065,1	-0,003
1065,5	-0,003
1065,9	-0,004
1066,3	-0,004
1066,7	-0,003
1067,1	-0,004
1067,6	-0,004
1068	-0,004
1068,4	-0,003
1068,8	-0,003
1069,2	-0,004
1069,6	-0,004
1070	-0,004
1070,4	-0,003
1070,9	-0,003
1071,3	-0,002
1071,7	-0,002
1072,1	-0,002
1072,5	-0,003
1072,9	-0,003
1073,3	-0,003
1073,7	-0,002
1074,2	-0,003
1074,6	-0,002
1075	-0,002
1075,4	-0,002
1075,8	-0
1076,2	-0,001
1076,6	-0,001
1077	-0,001
1077,5	-0,003
1077,9	-0,003
1078,3	-0,002
1078,7	-0,003
1079,1	-0,002
1079,5	-0,004
1079,9	-0,005
1080,3	-0,004
1080,7	-0,002
1081,2	-0,002
1081,6	-0,002
1082	-0,001
1082,4	-0,001
1082,8	-0,002
1083,2	-0,002
1083,6	-0,003
1084	-0,002
1084,5	-0,001
1084,9	-0,002
1085,3	-0,001
1085,7	0,002
1086,1	0,003
1086,5	0,002
1086,9	0,001
1087,3	0,003
1087,7	0,004
1088,2	0,002
1088,6	-0,002
1089	-0,001
1089,4	0,001
1089,8	0,002
1090,2	-0,002
1090,6	-0,003
1091	-0,001
1091,4	0,002
1091,9	0
1092,3	-0
1092,7	-0,001
1093,1	-0,001
1093,5	-0,005
1093,9	-0,003
1094,3	-0,005
1094,7	-0,004
1095,1	-0,003
1095,5	-0,002
1096	0,003
1096,4	0,005
1096,8	0,005
1097,2	0,006
1097,6	-0,001
1098	-0,003
1098,4	-0,005
1098,8	-0,007
1099,2	-0,006
1099,6	-0,008
1100,1	-0,01
1100,5	-0
1100,9	-0,001
1101,3	0,001
1101,7	0,01
1102,1	0
1102,5	-0,001
1102,9	0,006
1103,3	-0,002
1103,7	-0
1104,2	-0,005
1104,6	-0,018
1105	-0,01
1105,4	0,002
1105,8	0
1106,2	0,01
1106,6	0,013
1107	0,006
1107,4	0,017
1107,8	0,065
1108,3	-0
