Data from Absorbance_00093.txt Node
Date: Fri Aug 11 13:55:34 MSK 2023
User: vat
Spectrometer: MAYP114033
Trigger mode: 0
Integration Time (sec): 8,000000E-3
Scans to average: 10
Electric dark correction enabled: true
Nonlinearity correction enabled: false
Boxcar width: 3
XAxis mode: Wavelengths
Number of Pixels in Spectrum: 2068
>>>>>Begin Spectral Data<<<<<
199,4	-0,238
199,9	0,154
200,4	0,402
200,8	0,715
201,3	0,847
201,8	0,897
202,2	0,913
202,7	0,944
203,2	1,002
203,6	1,048
204,1	1,065
204,6	1,066
205	1,082
205,5	1,097
206	1,109
206,4	1,122
206,9	1,124
207,4	1,146
207,8	1,159
208,3	1,172
208,8	1,191
209,2	1,21
209,7	1,227
210,2	1,25
210,6	1,252
211,1	1,277
211,5	1,308
212	1,341
212,5	1,36
212,9	1,384
213,4	1,394
213,9	1,394
214,3	1,402
214,8	1,408
215,3	1,413
215,7	1,411
216,2	1,402
216,7	1,437
217,1	1,477
217,6	1,506
218,1	1,506
218,5	1,499
219	1,517
219,5	1,538
219,9	1,539
220,4	1,563
220,9	1,566
221,3	1,588
221,8	1,624
222,3	1,653
222,7	1,674
223,2	1,688
223,6	1,704
224,1	1,711
224,6	1,735
225	1,743
225,5	1,754
226	1,774
226,4	1,77
226,9	1,768
227,4	1,799
227,8	1,797
228,3	1,827
228,8	1,826
229,2	1,824
229,7	1,845
230,2	1,85
230,6	1,849
231,1	1,85
231,5	1,851
232	1,862
232,5	1,874
232,9	1,873
233,4	1,898
233,9	1,906
234,3	1,915
234,8	1,911
235,3	1,933
235,7	1,931
236,2	1,951
236,7	1,949
237,1	1,959
237,6	1,979
238,1	1,986
238,5	1,976
239	2,011
239,4	2,016
239,9	2,03
240,4	2,039
240,8	2,035
241,3	2,048
241,8	2,085
242,2	2,067
242,7	2,067
243,2	2,074
243,6	2,079
244,1	2,088
244,6	2,087
245	2,08
245,5	2,082
245,9	2,1
246,4	2,102
246,9	2,109
247,3	2,113
247,8	2,104
248,3	2,099
248,7	2,121
249,2	2,108
249,7	2,111
250,1	2,107
250,6	2,099
251	2,119
251,5	2,121
252	2,111
252,4	2,124
252,9	2,125
253,4	2,12
253,8	2,13
254,3	2,127
254,8	2,129
255,2	2,146
255,7	2,141
256,1	2,138
256,6	2,16
257,1	2,186
257,5	2,197
258	2,216
258,5	2,192
258,9	2,184
259,4	2,197
259,9	2,18
260,3	2,173
260,8	2,17
261,2	2,163
261,7	2,18
262,2	2,169
262,6	2,164
263,1	2,15
263,6	2,138
264	2,123
264,5	2,118
264,9	2,125
265,4	2,141
265,9	2,148
266,3	2,161
266,8	2,168
267,3	2,193
267,7	2,194
268,2	2,156
268,7	2,153
269,1	2,102
269,6	2,096
270	2,083
270,5	2,067
271	2,056
271,4	2,058
271,9	2,052
272,4	2,067
272,8	2,061
273,3	2,066
273,7	2,053
274,2	2,031
274,7	2,035
275,1	2,005
275,6	1,999
276,1	1,979
276,5	1,945
277	1,925
277,4	1,911
277,9	1,856
278,4	1,83
278,8	1,78
279,3	1,727
279,8	1,668
280,2	1,606
280,7	1,538
281,1	1,473
281,6	1,4
282,1	1,33
282,5	1,263
283	1,198
283,4	1,135
283,9	1,078
284,4	1,023
284,8	0,974
285,3	0,929
285,8	0,888
286,2	0,85
286,7	0,819
287,1	0,789
287,6	0,766
288,1	0,743
288,5	0,724
289	0,708
289,5	0,696
289,9	0,685
290,4	0,675
290,8	0,667
291,3	0,659
291,8	0,654
292,2	0,648
292,7	0,643
293,1	0,638
293,6	0,635
294,1	0,631
294,5	0,629
295	0,625
295,5	0,623
295,9	0,62
296,4	0,618
296,8	0,615
297,3	0,614
297,8	0,611
298,2	0,608
298,7	0,606
299,1	0,605
299,6	0,603
300,1	0,601
300,5	0,598
301	0,597
301,5	0,595
301,9	0,592
302,4	0,589
302,8	0,586
303,3	0,584
303,8	0,582
304,2	0,58
304,7	0,577
305,1	0,574
305,6	0,571
306,1	0,568
306,5	0,564
307	0,56
307,4	0,555
307,9	0,551
308,4	0,548
308,8	0,544
309,3	0,541
309,8	0,537
310,2	0,534
310,7	0,53
311,1	0,526
311,6	0,522
312,1	0,518
312,5	0,513
313	0,509
313,4	0,504
313,9	0,5
314,4	0,497
314,8	0,492
315,3	0,488
315,7	0,484
316,2	0,479
316,7	0,475
317,1	0,47
317,6	0,465
318	0,461
318,5	0,457
319	0,451
319,4	0,446
319,9	0,442
320,3	0,437
320,8	0,431
321,3	0,426
321,7	0,42
322,2	0,415
322,6	0,41
323,1	0,405
323,6	0,399
324	0,395
324,5	0,389
324,9	0,384
325,4	0,379
325,9	0,374
326,3	0,37
326,8	0,364
327,2	0,359
327,7	0,354
328,2	0,349
328,6	0,345
329,1	0,341
329,5	0,335
330	0,331
330,5	0,327
330,9	0,323
331,4	0,319
331,8	0,314
332,3	0,309
332,8	0,305
333,2	0,301
333,7	0,297
334,1	0,292
334,6	0,289
335,1	0,285
335,5	0,281
336	0,277
336,4	0,272
336,9	0,267
337,4	0,263
337,8	0,258
338,3	0,254
338,7	0,251
339,2	0,247
339,7	0,243
340,1	0,24
340,6	0,236
341	0,232
341,5	0,228
342	0,225
342,4	0,221
342,9	0,217
343,3	0,213
343,8	0,21
344,2	0,207
344,7	0,204
345,2	0,201
345,6	0,198
346,1	0,196
346,5	0,193
347	0,191
347,5	0,188
347,9	0,184
348,4	0,181
348,8	0,177
349,3	0,174
349,8	0,172
350,2	0,168
350,7	0,166
351,1	0,164
351,6	0,161
352	0,16
352,5	0,157
353	0,154
353,4	0,152
353,9	0,15
354,3	0,147
354,8	0,145
355,3	0,143
355,7	0,141
356,2	0,138
356,6	0,136
357,1	0,134
357,5	0,132
358	0,13
358,5	0,127
358,9	0,126
359,4	0,125
359,8	0,123
360,3	0,121
360,8	0,119
361,2	0,117
361,7	0,115
362,1	0,113
362,6	0,111
363	0,109
363,5	0,107
364	0,106
364,4	0,105
364,9	0,104
365,3	0,102
365,8	0,1
366,3	0,099
366,7	0,097
367,2	0,095
367,6	0,094
368,1	0,092
368,5	0,09
369	0,089
369,5	0,088
369,9	0,087
370,4	0,086
370,8	0,084
371,3	0,083
371,7	0,082
372,2	0,08
372,7	0,08
373,1	0,078
373,6	0,077
374	0,076
374,5	0,075
374,9	0,073
375,4	0,072
375,9	0,071
376,3	0,071
376,8	0,07
377,2	0,069
377,7	0,068
378,2	0,068
378,6	0,067
379,1	0,066
379,5	0,065
380	0,063
380,4	0,062
380,9	0,061
381,4	0,06
381,8	0,059
382,3	0,058
382,7	0,057
383,2	0,057
383,6	0,056
384,1	0,056
384,6	0,056
385	0,055
385,5	0,055
385,9	0,054
386,4	0,053
386,8	0,053
387,3	0,052
387,7	0,051
388,2	0,049
388,7	0,049
389,1	0,048
389,6	0,048
390	0,047
390,5	0,045
390,9	0,045
391,4	0,044
391,9	0,043
392,3	0,043
392,8	0,043
393,2	0,043
393,7	0,043
394,1	0,042
394,6	0,042
395,1	0,042
395,5	0,041
396	0,041
396,4	0,04
396,9	0,039
397,3	0,039
397,8	0,039
398,2	0,038
398,7	0,038
399,2	0,037
399,6	0,037
400,1	0,037
400,5	0,036
401	0,035
401,4	0,034
401,9	0,034
402,4	0,033
402,8	0,033
403,3	0,033
403,7	0,032
404,2	0,032
404,6	0,033
405,1	0,032
405,5	0,032
406	0,031
406,5	0,03
406,9	0,03
407,4	0,029
407,8	0,028
408,3	0,028
408,7	0,027
409,2	0,027
409,6	0,027
410,1	0,027
410,6	0,027
411	0,027
411,5	0,026
411,9	0,026
412,4	0,025
412,8	0,025
413,3	0,024
413,7	0,024
414,2	0,024
414,7	0,024
415,1	0,023
415,6	0,023
416	0,023
416,5	0,022
416,9	0,022
417,4	0,022
417,8	0,022
418,3	0,022
418,8	0,023
419,2	0,022
419,7	0,022
420,1	0,021
420,6	0,021
421	0,021
421,5	0,02
421,9	0,019
422,4	0,019
422,8	0,018
423,3	0,018
423,8	0,018
424,2	0,018
424,7	0,018
425,1	0,017
425,6	0,016
426	0,017
426,5	0,016
426,9	0,015
427,4	0,015
427,9	0,015
428,3	0,015
428,8	0,015
429,2	0,014
429,7	0,014
430,1	0,014
430,6	0,013
431	0,013
431,5	0,013
431,9	0,013
432,4	0,012
432,8	0,013
433,3	0,013
433,8	0,013
434,2	0,013
434,7	0,013
435,1	0,013
435,6	0,013
436	0,013
436,5	0,012
436,9	0,012
437,4	0,012
437,8	0,012
438,3	0,012
438,8	0,011
439,2	0,011
439,7	0,01
440,1	0,01
440,6	0,009
441	0,008
441,5	0,008
441,9	0,008
442,4	0,008
442,8	0,008
443,3	0,008
443,7	0,009
444,2	0,008
444,7	0,008
445,1	0,008
445,6	0,007
446	0,008
446,5	0,008
446,9	0,008
447,4	0,008
447,8	0,008
448,3	0,008
448,7	0,008
449,2	0,007
449,6	0,007
450,1	0,007
450,6	0,006
451	0,006
451,5	0,006
451,9	0,005
452,4	0,005
452,8	0,004
453,3	0,004
453,7	0,004
454,2	0,004
454,6	0,004
455,1	0,004
455,5	0,005
456	0,005
456,4	0,005
456,9	0,006
457,3	0,006
457,8	0,006
458,3	0,006
458,7	0,005
459,2	0,005
459,6	0,004
460,1	0,004
460,5	0,004
461	0,004
461,4	0,003
461,9	0,003
462,3	0,003
462,8	0,003
463,2	0,002
463,7	0,002
464,1	0,003
464,6	0,003
465	0,003
465,5	0,004
466	0,004
466,4	0,004
466,9	0,004
467,3	0,003
467,8	0,003
468,2	0,003
468,7	0,002
469,1	0,003
469,6	0,003
470	0,002
470,5	0,002
470,9	0,003
471,4	0,002
471,8	0,003
472,3	0,003
472,7	0,002
473,2	0,003
473,6	0,002
474,1	0,001
474,5	0,002
475	0,001
475,4	0,001
475,9	0,001
476,4	0,001
476,8	0,001
477,3	0,002
477,7	0,001
478,2	0,002
478,6	0,002
479,1	0,002
479,5	0,002
480	0,002
480,4	0,003
480,9	0,003
481,3	0,003
481,8	0,003
482,2	0,002
482,7	0,002
483,1	0,002
483,6	0,001
484	0,001
484,5	0
484,9	0
485,4	0
485,8	0,002
486,3	0,002
486,7	0,001
487,2	0,001
487,6	0,001
488,1	0,002
488,5	0,002
489	0
489,4	-0
489,9	0,001
490,4	0,002
490,8	0,002
491,3	0,001
491,7	0,002
492,2	0,002
492,6	0,002
493,1	0,002
493,5	0,002
494	0,002
494,4	0,002
494,9	0,002
495,3	0,002
495,8	0,002
496,2	0,002
496,7	0,002
497,1	0,002
497,6	0,002
498	0,001
498,5	0,001
498,9	0,001
499,4	0
499,8	0
500,3	-0
500,7	0
501,2	-0
501,6	0
502,1	0
502,5	0
503	0
503,4	0,001
503,9	0
504,3	0,001
504,8	0,001
505,2	0,001
505,7	0,001
506,1	0,002
506,6	0,001
507	0,002
507,5	0,001
507,9	0,001
508,4	0
508,8	0
509,3	0
509,7	0
510,2	0,001
510,6	0,001
511,1	0,001
511,5	0,001
512	0
512,4	0
512,9	-0
513,3	-0,001
513,8	-0
514,2	-0
514,7	0
515,1	0,001
515,6	0,001
516	0,001
516,5	0,001
516,9	0,001
517,4	0,001
517,8	-0
518,3	-0
518,7	-0
519,2	-0
519,6	0
520,1	0,001
520,5	0,001
521	0,001
521,4	0,001
521,9	0,001
522,3	0,001
522,8	0,001
523,2	0
523,7	0,001
524,1	0,001
524,6	0
525	0,001
525,5	0
525,9	0
526,4	0,001
526,8	0
527,3	0
527,7	0,001
528,2	0,001
528,6	0,001
529,1	0,001
529,5	0,001
530	0,001
530,4	0,001
530,9	0,001
531,3	0,001
531,8	0,001
532,2	0,001
532,6	0,001
533,1	0,001
533,5	0
534	0,001
534,4	0,001
534,9	0,001
535,3	0
535,8	0
536,2	-0
536,7	-0,001
537,1	-0,001
537,6	-0,001
538	-0,001
538,5	-0,001
538,9	-0,001
539,4	-0
539,8	0,001
540,3	0,001
540,7	0,001
541,2	0,001
541,6	0,001
542,1	0,001
542,5	0,001
543	-0
543,4	-0,001
543,9	-0,001
544,3	-0,001
544,8	-0,001
545,2	-0,001
545,7	-0
546,1	0
546,5	0
547	0
547,4	0,001
547,9	0
548,3	0
548,8	0
549,2	0
549,7	0,001
550,1	0,001
550,6	0
551	0
551,5	0,001
551,9	0,001
552,4	0,001
552,8	0,001
553,3	0,001
553,7	0,001
554,2	0,001
554,6	0,001
555,1	0,001
555,5	0,001
555,9	0
556,4	-0
556,8	-0
557,3	0
557,7	0
558,2	-0
558,6	-0,001
559,1	-0
559,5	-0,001
560	-0,001
560,4	-0,001
560,9	-0,001
561,3	-0,001
561,8	-0,001
562,2	-0,001
562,7	-0
563,1	0
563,6	0
564	0,001
564,4	0,001
564,9	0,001
565,3	0,001
565,8	0,001
566,2	0
566,7	0,001
567,1	0
567,6	0,001
568	0
568,5	-0
568,9	-0
569,4	0
569,8	-0
570,3	-0
570,7	-0
571,1	0
571,6	0
572	0
572,5	0
572,9	0,001
573,4	0
573,8	0
574,3	-0
574,7	-0,001
575,2	-0,001
575,6	-0,001
576,1	-0,001
576,5	-0,001
576,9	-0,001
577,4	-0
577,8	-0
578,3	-0
578,7	-0
579,2	-0,001
579,6	-0
580,1	-0
580,5	-0,001
581	-0
581,4	-0
581,9	-0
582,3	-0
582,7	-0
583,2	-0
583,6	0
584,1	-0
584,5	-0
585	0
585,4	0
585,9	-0
586,3	-0
586,8	0
587,2	0
587,6	0
588,1	-0
588,5	-0
589	-0
589,4	-0
589,9	-0,001
590,3	-0
590,8	-0
591,2	0
591,7	0
592,1	0,001
592,5	0,001
593	0,001
593,4	0
593,9	0
594,3	0
594,8	0,001
595,2	0
595,7	-0
596,1	-0
596,6	-0
597	-0
597,4	-0,001
597,9	-0,001
598,3	-0,001
598,8	-0,002
599,2	-0,002
599,7	-0,002
600,1	-0,002
600,6	-0,002
601	-0,001
601,4	-0,002
601,9	-0,002
602,3	-0,001
602,8	-0,002
603,2	-0,001
603,7	-0,002
604,1	-0,001
604,6	-0,001
605	-0,001
605,4	-0,001
605,9	-0
606,3	-0
606,8	-0
607,2	-0
607,7	-0
608,1	-0
608,6	-0
609	-0
609,4	0
609,9	-0
610,3	-0
610,8	0
611,2	0
611,7	0
612,1	-0,001
612,6	-0,001
613	-0,001
613,4	-0
613,9	-0,001
614,3	-0,001
614,8	-0,001
615,2	-0
615,7	-0
616,1	-0
616,6	-0
617	-0,001
617,4	-0
617,9	-0,001
618,3	-0,001
618,8	-0,001
619,2	-0,001
619,7	-0,001
620,1	-0,001
620,5	-0,001
621	-0,001
621,4	-0,001
621,9	-0
622,3	0
622,8	0
623,2	0
623,6	0
624,1	0,001
624,5	0
625	0
625,4	0
625,9	0
626,3	0
626,8	0
627,2	0
627,6	0
628,1	0
628,5	0
629	0
629,4	0
629,9	0
630,3	0
630,7	0
631,2	0
631,6	0
632,1	0
632,5	0
633	0,001
633,4	0,001
633,8	0
634,3	0,001
634,7	0,001
635,2	0,001
635,6	0,001
636,1	0,001
636,5	0,001
636,9	0,001
637,4	0
637,8	0
638,3	-0
638,7	0
639,2	-0
639,6	0
640	0
640,5	-0
640,9	-0
641,4	-0,001
641,8	-0,001
642,2	-0,001
642,7	-0,001
643,1	-0,001
643,6	-0,001
644	-0,001
644,5	-0
644,9	-0
645,3	0
645,8	0
646,2	0,001
646,7	0,001
647,1	0,002
647,6	0,002
648	0,001
648,4	0,001
648,9	0,001
649,3	0,001
649,8	0
650,2	-0
650,6	-0
651,1	-0,001
651,5	-0,001
652	-0,001
652,4	-0,001
652,9	-0,002
653,3	-0,002
653,7	-0,002
654,2	-0,001
654,6	-0,002
655,1	-0,002
655,5	-0,001
655,9	-0,001
656,4	-0,001
656,8	0
657,3	0,001
657,7	0,002
658,2	0,003
658,6	0,004
659	0,006
659,5	0,008
659,9	0,009
660,4	0,006
660,8	0,004
661,2	0,003
661,7	0,001
662,1	0
662,6	-0
663	-0,001
663,4	-0,001
663,9	-0,001
664,3	-0,001
664,8	-0,001
665,2	-0,001
665,6	-0,001
666,1	-0,001
666,5	-0,001
667	-0,001
667,4	-0,001
667,9	-0,001
668,3	-0,001
668,7	-0,001
669,2	-0,001
669,6	-0,001
670,1	-0,001
670,5	-0,001
670,9	-0,001
671,4	-0,001
671,8	-0,001
672,3	-0,002
672,7	-0,002
673,1	-0,002
673,6	-0,002
674	-0,002
674,5	-0,002
674,9	-0,002
675,3	-0,001
675,8	-0,001
676,2	-0,001
676,7	-0,001
677,1	-0,001
677,5	-0,001
678	-0,001
678,4	-0,001
678,9	-0,001
679,3	-0,001
679,7	-0,001
680,2	-0,001
680,6	-0,001
681,1	-0,001
681,5	-0,001
681,9	-0,001
682,4	-0,001
682,8	-0,001
683,3	-0,001
683,7	-0,001
684,1	-0,001
684,6	-0,001
685	-0,001
685,5	-0,001
685,9	-0,002
686,3	-0,002
686,8	-0,001
687,2	-0,001
687,7	-0,001
688,1	-0,001
688,5	-0
689	-0
689,4	-0
689,9	-0,001
690,3	-0,001
690,7	-0,001
691,2	-0,001
691,6	-0,001
692	-0,001
692,5	-0,001
692,9	-0,001
693,4	-0,001
693,8	-0,001
694,2	-0,001
694,7	-0,001
695,1	-0
695,6	-0
696	-0
696,4	-0
696,9	-0
697,3	-0
697,8	-0,001
698,2	-0,001
698,6	-0,001
699,1	-0,001
699,5	-0,001
699,9	-0,001
700,4	-0,001
700,8	-0,001
701,3	-0,001
701,7	-0,001
702,1	-0,001
702,6	-0
703	-0
703,5	0
703,9	-0
704,3	-0
704,8	-0
705,2	-0
705,6	-0
706,1	-0,001
706,5	-0,001
707	-0,002
707,4	-0,002
707,8	-0,002
708,3	-0,001
708,7	-0,001
709,2	-0,002
709,6	-0,001
710	-0,001
710,5	-0,001
710,9	-0,001
711,3	-0,001
711,8	-0,001
712,2	-0,001
712,7	-0,001
713,1	-0,001
713,5	-0,001
714	-0,002
714,4	-0,001
714,8	-0,001
715,3	-0,001
715,7	-0,002
716,2	-0,001
716,6	-0,001
717	-0,001
717,5	-0,001
717,9	-0,001
718,3	-0,001
718,8	-0,001
719,2	-0,002
719,7	-0,002
720,1	-0,001
720,5	-0,001
721	-0,001
721,4	-0,001
721,8	-0,001
722,3	-0
722,7	-0
723,2	-0
723,6	-0,001
724	-0,001
724,5	-0,001
724,9	-0,001
725,3	-0,001
725,8	-0,001
726,2	-0,001
726,7	-0,001
727,1	-0,001
727,5	-0,001
728	-0,001
728,4	-0,001
728,8	-0,001
729,3	-0,001
729,7	-0,001
730,1	-0,001
730,6	-0,001
731	-0,001
731,5	-0,001
731,9	-0,001
732,3	-0,001
732,8	-0,002
733,2	-0,001
733,6	-0,002
734,1	-0,002
734,5	-0,002
734,9	-0,001
735,4	-0,001
735,8	-0,001
736,3	-0,001
736,7	-0,001
737,1	-0,001
737,6	-0
738	-0,001
738,4	-0
738,9	-0,001
739,3	-0,001
739,7	-0,001
740,2	-0,001
740,6	-0,002
741,1	-0,002
741,5	-0,003
741,9	-0,002
742,4	-0,002
742,8	-0,002
743,2	-0,002
743,7	-0,001
744,1	-0,001
744,5	-0,001
745	-0,001
745,4	-0,001
745,8	-0,001
746,3	-0,001
746,7	-0,002
747,2	-0,002
747,6	-0,002
748	-0,002
748,5	-0,002
748,9	-0,002
749,3	-0,002
749,8	-0,002
750,2	-0,002
750,6	-0,002
751,1	-0,001
751,5	-0,001
751,9	-0,001
752,4	-0,001
752,8	-0,001
753,3	-0,001
753,7	-0,001
754,1	-0,001
754,6	-0,001
755	-0,001
755,4	-0
755,9	-0
756,3	-0
756,7	-0
757,2	-0
757,6	-0,001
758	-0,001
758,5	-0,001
758,9	-0,001
759,3	-0,001
759,8	-0,001
760,2	-0,001
760,6	-0
761,1	-0
761,5	0
761,9	0,001
762,4	0,001
762,8	0,001
763,3	0
763,7	0
764,1	0,001
764,6	0
765	-0
765,4	-0
765,9	-0
766,3	0
766,7	0
767,2	0
767,6	0,001
768	0,002
768,5	0,002
768,9	0,002
769,3	0,002
769,8	0,002
770,2	0,002
770,6	0,002
771,1	0,001
771,5	0
771,9	0
772,4	0
772,8	0
773,2	0
773,7	0
774,1	0
774,5	0,001
775	0
775,4	0
775,8	0
776,3	0
776,7	0
777,1	-0
777,6	-0
778	0
778,4	0
778,9	0
779,3	0
779,7	0
780,2	-0
780,6	-0
781	-0
781,5	-0
781,9	-0
782,3	0
782,8	0
783,2	0,001
783,6	0,001
784,1	0,001
784,5	0,001
784,9	0,001
785,4	0,001
785,8	0,001
786,2	0
786,7	0
787,1	0
787,5	0
788	0,001
788,4	0,001
788,8	0,001
789,3	0,001
789,7	0
790,1	0
790,6	0
791	-0
791,4	-0
791,9	0
792,3	-0
792,7	-0
793,2	-0
793,6	-0
794	-0
794,5	-0,001
794,9	-0,001
795,3	-0,001
795,8	-0,001
796,2	-0
796,6	-0
797,1	0
797,5	0
797,9	0
798,4	0
798,8	0
799,2	0
799,7	0
800,1	-0
800,5	0
801	-0
801,4	-0
801,8	0
802,2	0
802,7	0,001
803,1	0,001
803,5	0,001
804	0,001
804,4	0,001
804,8	0,001
805,3	0,001
805,7	0
806,1	-0
806,6	-0
807	-0
807,4	-0,001
807,9	-0
808,3	-0,001
808,7	-0,001
809,2	-0
809,6	-0,001
810	-0,001
810,4	-0,001
810,9	-0,001
811,3	-0,001
811,7	-0,001
812,2	-0,001
812,6	-0,001
813	-0,001
813,5	-0,001
813,9	-0,001
814,3	-0,001
814,8	-0,001
815,2	-0,002
815,6	-0,002
816,1	-0,002
816,5	-0,002
816,9	-0,002
817,3	-0,002
817,8	-0,002
818,2	-0,002
818,6	-0,002
819,1	-0,002
819,5	-0,002
819,9	-0,002
820,4	-0,002
820,8	-0,002
821,2	-0,002
821,7	-0,002
822,1	-0,002
822,5	-0,002
822,9	-0,002
823,4	-0,002
823,8	-0,002
824,2	-0,002
824,7	-0,002
825,1	-0,002
825,5	-0,001
826	-0,001
826,4	-0,001
826,8	-0,001
827,3	-0,001
827,7	-0,001
828,1	-0
828,5	0
829	0
829,4	0
829,8	0
830,3	0
830,7	0,001
831,1	0,001
831,6	0
832	-0
832,4	0
832,8	-0
833,3	-0
833,7	-0,001
834,1	-0,001
834,6	-0,001
835	-0,001
835,4	-0,001
835,8	-0,001
836,3	-0,001
836,7	-0,001
837,1	-0,001
837,6	-0,001
838	-0,002
838,4	-0,002
838,9	-0,002
839,3	-0,002
839,7	-0,002
840,1	-0,002
840,6	-0,001
841	-0,001
841,4	-0,001
841,9	-0,001
842,3	-0,001
842,7	-0,001
843,1	-0,001
843,6	-0,001
844	-0,002
844,4	-0,002
844,9	-0,001
845,3	-0,001
845,7	-0,001
846,2	-0,002
846,6	-0,002
847	-0,002
847,4	-0,002
847,9	-0,002
848,3	-0,002
848,7	-0,002
849,2	-0,002
849,6	-0,002
850	-0,002
850,4	-0,001
850,9	-0,001
851,3	-0,001
851,7	-0,001
852,2	-0,001
852,6	-0
853	-0
853,4	-0
853,9	-0
854,3	0
854,7	0
855,2	0
855,6	0
856	0
856,4	0
856,9	0
857,3	-0
857,7	-0
858,2	-0
858,6	-0,001
859	-0,001
859,4	-0,001
859,9	-0,001
860,3	-0,002
860,7	-0,001
861,1	-0,001
861,6	-0,001
862	-0,001
862,4	-0,001
862,9	-0,001
863,3	-0,001
863,7	-0,001
864,1	-0,001
864,6	-0,001
865	-0,001
865,4	-0,001
865,9	-0,001
866,3	-0,001
866,7	-0,001
867,1	-0,001
867,6	-0,001
868	-0,001
868,4	-0,001
868,8	-0,001
869,3	-0,001
869,7	-0,001
870,1	-0,001
870,6	-0,001
871	-0,001
871,4	-0,001
871,8	-0,002
872,3	-0,002
872,7	-0,002
873,1	-0,002
873,5	-0,002
874	-0,003
874,4	-0,002
874,8	-0,002
875,3	-0,003
875,7	-0,003
876,1	-0,003
876,5	-0,002
877	-0,003
877,4	-0,002
877,8	-0,003
878,2	-0,002
878,7	-0,002
879,1	-0,002
879,5	-0,002
879,9	-0,002
880,4	-0,002
880,8	-0,002
881,2	-0,001
881,7	-0,001
882,1	-0,001
882,5	-0,001
882,9	-0,001
883,4	-0,001
883,8	-0,001
884,2	-0,002
884,6	-0,002
885,1	-0,001
885,5	-0,002
885,9	-0,001
886,3	-0,001
886,8	-0,001
887,2	-0,001
887,6	-0,001
888	-0,001
888,5	-0,001
888,9	-0,001
889,3	-0,001
889,8	-0,002
890,2	-0,001
890,6	-0,001
891	-0,001
891,5	-0,001
891,9	-0,001
892,3	-0,001
892,7	-0
893,2	-0,001
893,6	-0,001
894	-0,001
894,4	-0
894,9	-0
895,3	-0,001
895,7	-0,001
896,1	-0,001
896,6	-0,001
897	-0,001
897,4	-0,001
897,8	-0,001
898,3	-0,001
898,7	-0,001
899,1	-0,001
899,5	-0,001
900	-0,001
900,4	-0,001
900,8	-0,001
901,2	-0,001
901,7	-0,001
902,1	-0
902,5	-0,001
902,9	-0,001
903,4	-0,001
903,8	-0,001
904,2	-0,001
904,6	-0,002
905,1	-0,002
905,5	-0,002
905,9	-0,002
906,3	-0,003
906,8	-0,003
907,2	-0,003
907,6	-0,003
908	-0,003
908,5	-0,004
908,9	-0,004
909,3	-0,004
909,7	-0,004
910,2	-0,004
910,6	-0,004
911	-0,004
911,4	-0,003
911,9	-0,003
912,3	-0,002
912,7	-0,002
913,1	-0,002
913,6	-0,002
914	-0,002
914,4	-0,002
914,8	-0,002
915,3	-0,002
915,7	-0,002
916,1	-0,002
916,5	-0,002
916,9	-0,002
917,4	-0,002
917,8	-0,002
918,2	-0,002
918,6	-0,002
919,1	-0,001
919,5	-0,001
919,9	-0
920,3	-0
920,8	-0
921,2	-0
921,6	-0
922	-0,001
922,5	-0,001
922,9	-0,002
923,3	-0,002
923,7	-0,002
924,2	-0,002
924,6	-0,002
925	-0,002
925,4	-0,002
925,8	-0,002
926,3	-0,001
926,7	-0,001
927,1	-0,001
927,5	-0,001
928	-0
928,4	-0,001
928,8	-0,001
929,2	-0,001
929,7	-0,001
930,1	-0,001
930,5	-0,001
930,9	-0,001
931,3	-0,001
931,8	-0,001
932,2	-0,001
932,6	-0,002
933	-0,002
933,5	-0,002
933,9	-0,002
934,3	-0,002
934,7	-0,001
935,2	-0,001
935,6	-0,001
936	-0,001
936,4	-0
936,8	-0
937,3	-0
937,7	-0,001
938,1	-0,001
938,5	-0,001
939	-0,001
939,4	-0,001
939,8	-0,001
940,2	-0,001
940,6	-0,001
941,1	-0
941,5	0
941,9	0
942,3	-0
942,8	-0
943,2	0
943,6	0
944	0
944,4	-0
944,9	0
945,3	0
945,7	0
946,1	-0
946,6	-0
947	-0,001
947,4	-0,001
947,8	-0,002
948,2	-0,002
948,7	-0,002
949,1	-0,002
949,5	-0,002
949,9	-0,002
950,3	-0,002
950,8	-0,002
951,2	-0,003
951,6	-0,003
952	-0,003
952,5	-0,003
952,9	-0,003
953,3	-0,003
953,7	-0,003
954,1	-0,003
954,6	-0,002
955	-0,002
955,4	-0,002
955,8	-0,002
956,2	-0,002
956,7	-0,002
957,1	-0,002
957,5	-0,002
957,9	-0,002
958,3	-0,002
958,8	-0,002
959,2	-0,002
959,6	-0,002
960	-0,002
960,5	-0,002
960,9	-0,003
961,3	-0,003
961,7	-0,002
962,1	-0,002
962,6	-0,002
963	-0,002
963,4	-0,002
963,8	-0,002
964,2	-0,002
964,7	-0,002
965,1	-0,002
965,5	-0,002
965,9	-0,002
966,3	-0
966,8	0
967,2	0
967,6	0
968	0
968,4	-0
968,9	-0,001
969,3	-0,002
969,7	-0,003
970,1	-0,003
970,5	-0,003
971	-0,003
971,4	-0,003
971,8	-0,003
972,2	-0,003
972,6	-0,002
973,1	-0,002
973,5	-0,002
973,9	-0,002
974,3	-0,002
974,7	-0,001
975,2	-0,001
975,6	-0,002
976	-0,002
976,4	-0,002
976,8	-0,002
977,3	-0,002
977,7	-0,002
978,1	-0,002
978,5	-0,002
978,9	-0,001
979,4	-0,001
979,8	-0,001
980,2	-0,001
980,6	-0,001
981	-0,001
981,5	-0,001
981,9	-0,001
982,3	-0,002
982,7	-0,001
983,1	-0,001
983,6	-0,002
984	-0,002
984,4	-0,002
984,8	-0,002
985,2	-0,002
985,6	-0,002
986,1	-0,002
986,5	-0,001
986,9	-0,001
987,3	-0,001
987,7	-0,001
988,2	-0,001
988,6	-0,001
989	-0,001
989,4	-0,002
989,8	-0,002
990,3	-0,002
990,7	-0,002
991,1	-0,002
991,5	-0,003
991,9	-0,002
992,3	-0,002
992,8	-0,002
993,2	-0,002
993,6	-0,002
994	-0,002
994,4	-0,002
994,9	-0,002
995,3	-0,002
995,7	-0,002
996,1	-0,003
996,5	-0,002
996,9	-0,003
997,4	-0,003
997,8	-0,002
998,2	-0,001
998,6	-0,001
999	-0,001
999,5	-0,001
999,9	-0
1000,3	-0
1000,7	-0,001
1001,1	-0,001
1001,5	-0,002
1002	-0,003
1002,4	-0,003
1002,8	-0,003
1003,2	-0,003
1003,6	-0,004
1004	-0,004
1004,5	-0,004
1004,9	-0,004
1005,3	-0,003
1005,7	-0,004
1006,1	-0,003
1006,6	-0,002
1007	-0,002
1007,4	-0,001
1007,8	-0,001
1008,2	-0,001
1008,6	-0,001
1009,1	-0,002
1009,5	-0,002
1009,9	-0,003
1010,3	-0,004
1010,7	-0,004
1011,1	-0,004
1011,6	-0,005
1012	-0,004
1012,4	-0,005
1012,8	-0,005
1013,2	-0,005
1013,6	-0,005
1014,1	-0,005
1014,5	-0,005
1014,9	-0,005
1015,3	-0,004
1015,7	-0,004
1016,1	-0,005
1016,6	-0,004
1017	-0,004
1017,4	-0,004
1017,8	-0,004
1018,2	-0,004
1018,6	-0,004
1019,1	-0,004
1019,5	-0,004
1019,9	-0,003
1020,3	-0,002
1020,7	-0,003
1021,1	-0,003
1021,6	-0,003
1022	-0,002
1022,4	-0,003
1022,8	-0,003
1023,2	-0,004
1023,6	-0,004
1024,1	-0,003
1024,5	-0,003
1024,9	-0,002
1025,3	-0,002
1025,7	-0,001
1026,1	-0
1026,6	0
1027	-0
1027,4	-0,001
1027,8	-0,002
1028,2	-0,001
1028,6	-0
1029	-0,001
1029,5	-0
1029,9	0
1030,3	0,001
1030,7	0,002
1031,1	0,002
1031,5	0,001
1032	0,001
1032,4	0,001
1032,8	0
1033,2	-0
1033,6	-0
1034	-0
1034,4	-0,002
1034,9	-0,001
1035,3	-0,001
1035,7	-0,001
1036,1	-0
1036,5	-0,001
1036,9	-0,001
1037,4	-0,001
1037,8	-0,001
1038,2	-0
1038,6	-0,001
1039	-0,001
1039,4	-0,001
1039,8	-0,001
1040,3	-0,001
1040,7	-0,001
1041,1	-0,002
1041,5	-0,001
1041,9	-0,002
1042,3	-0,003
1042,7	-0,003
1043,2	-0,003
1043,6	-0,003
1044	-0,003
1044,4	-0,002
1044,8	-0,002
1045,2	-0,001
1045,6	-0,001
1046,1	-0,001
1046,5	-0,001
1046,9	-0
1047,3	-0
1047,7	-0
1048,1	-0,001
1048,5	-0,001
1049	-0,001
1049,4	-0,001
1049,8	-0,002
1050,2	-0,002
1050,6	-0,002
1051	-0,002
1051,4	-0,002
1051,9	-0,003
1052,3	-0,002
1052,7	-0,003
1053,1	-0,003
1053,5	-0,002
1053,9	-0,002
1054,3	-0,002
1054,8	-0,001
1055,2	-0,002
1055,6	-0,001
1056	-0,002
1056,4	-0,001
1056,8	-0,001
1057,2	-0,001
1057,6	-0,002
1058,1	-0,002
1058,5	-0,002
1058,9	-0,002
1059,3	-0,002
1059,7	-0,002
1060,1	-0,002
1060,5	-0,002
1061	-0,002
1061,4	-0,002
1061,8	-0,001
1062,2	-0,002
1062,6	-0,003
1063	-0,002
1063,4	-0,003
1063,8	-0,003
1064,3	-0,002
1064,7	-0,003
1065,1	-0,002
1065,5	-0,002
1065,9	-0,002
1066,3	-0,001
1066,7	-0,001
1067,1	-0,002
1067,6	-0,002
1068	-0,002
1068,4	-0
1068,8	-0
1069,2	-0,002
1069,6	-0,002
1070	-0,001
1070,4	-0,002
1070,9	-0,002
1071,3	-0,002
1071,7	-0,003
1072,1	-0,002
1072,5	-0,003
1072,9	-0,003
1073,3	-0,003
1073,7	-0,002
1074,2	-0,002
1074,6	-0,001
1075	-0,002
1075,4	-0,001
1075,8	-0
1076,2	-0
1076,6	-0
1077	-0
1077,5	-0,003
1077,9	-0,001
1078,3	-0,002
1078,7	-0,002
1079,1	-0,001
1079,5	-0,002
1079,9	-0,002
1080,3	-0,001
1080,7	-0,003
1081,2	-0,001
1081,6	-0,001
1082	-0,001
1082,4	-0
1082,8	-0,001
1083,2	-0,002
1083,6	-0,001
1084	-0,002
1084,5	-0,002
1084,9	-0,003
1085,3	-0,003
1085,7	-0,002
1086,1	-0,002
1086,5	-0,001
1086,9	-0,001
1087,3	0
1087,7	0,001
1088,2	-0,001
1088,6	-0,004
1089	-0,002
1089,4	-0,003
1089,8	-0,004
1090,2	-0,008
1090,6	-0,008
1091	-0,006
1091,4	-0,002
1091,9	-0,004
1092,3	-0,004
1092,7	-0,003
1093,1	-0,004
1093,5	-0,004
1093,9	-0,006
1094,3	-0,007
1094,7	-0,006
1095,1	-0,003
1095,5	-0,004
1096	-0,002
1096,4	-0,003
1096,8	0,001
1097,2	-0,003
1097,6	-0,004
1098	-0,008
1098,4	-0,012
1098,8	-0,012
1099,2	-0,016
1099,6	-0,02
1100,1	-0,018
1100,5	-0,016
1100,9	-0,015
1101,3	-0,011
1101,7	-0,005
1102,1	-0,004
1102,5	-0,013
1102,9	-0,009
1103,3	-0,019
1103,7	-0,015
1104,2	-0,017
1104,6	-0,024
1105	-0,028
1105,4	-0,015
1105,8	-0,016
1106,2	-0,002
1106,6	-0,011
1107	-0,023
1107,4	-0,022
1107,8	-0,014
1108,3	-0
