Data from Absorbance_00076.txt Node
Date: Fri Aug 11 13:39:39 MSK 2023
User: vat
Spectrometer: MAYP114033
Trigger mode: 0
Integration Time (sec): 8,000000E-3
Scans to average: 10
Electric dark correction enabled: true
Nonlinearity correction enabled: false
Boxcar width: 3
XAxis mode: Wavelengths
Number of Pixels in Spectrum: 2068
>>>>>Begin Spectral Data<<<<<
199,4	-0
199,9	-0,005
200,4	0,255
200,8	0,645
201,3	0,835
201,8	0,903
202,2	0,936
202,7	0,967
203,2	1,027
203,6	1,088
204,1	1,091
204,6	1,09
205	1,105
205,5	1,114
206	1,118
206,4	1,126
206,9	1,142
207,4	1,159
207,8	1,183
208,3	1,21
208,8	1,243
209,2	1,26
209,7	1,282
210,2	1,295
210,6	1,318
211,1	1,336
211,5	1,343
212	1,36
212,5	1,371
212,9	1,391
213,4	1,399
213,9	1,407
214,3	1,386
214,8	1,401
215,3	1,399
215,7	1,413
216,2	1,403
216,7	1,426
217,1	1,447
217,6	1,474
218,1	1,475
218,5	1,485
219	1,506
219,5	1,524
219,9	1,536
220,4	1,561
220,9	1,592
221,3	1,588
221,8	1,618
222,3	1,624
222,7	1,647
223,2	1,656
223,6	1,66
224,1	1,661
224,6	1,706
225	1,702
225,5	1,73
226	1,75
226,4	1,76
226,9	1,774
227,4	1,801
227,8	1,798
228,3	1,829
228,8	1,838
229,2	1,839
229,7	1,848
230,2	1,841
230,6	1,849
231,1	1,848
231,5	1,856
232	1,864
232,5	1,876
232,9	1,879
233,4	1,89
233,9	1,896
234,3	1,896
234,8	1,884
235,3	1,894
235,7	1,902
236,2	1,931
236,7	1,941
237,1	1,95
237,6	1,967
238,1	1,994
238,5	1,996
239	2,005
239,4	1,986
239,9	2,002
240,4	1,997
240,8	2,004
241,3	2,008
241,8	2,035
242,2	2,04
242,7	2,06
243,2	2,064
243,6	2,077
244,1	2,08
244,6	2,08
245	2,067
245,5	2,071
245,9	2,068
246,4	2,072
246,9	2,068
247,3	2,086
247,8	2,08
248,3	2,09
248,7	2,087
249,2	2,101
249,7	2,094
250,1	2,098
250,6	2,089
251	2,097
251,5	2,085
252	2,096
252,4	2,114
252,9	2,131
253,4	2,149
253,8	2,144
254,3	2,143
254,8	2,144
255,2	2,131
255,7	2,109
256,1	2,097
256,6	2,093
257,1	2,118
257,5	2,135
258	2,152
258,5	2,16
258,9	2,166
259,4	2,181
259,9	2,178
260,3	2,164
260,8	2,16
261,2	2,171
261,7	2,174
262,2	2,165
262,6	2,152
263,1	2,155
263,6	2,16
264	2,149
264,5	2,126
264,9	2,116
265,4	2,121
265,9	2,115
266,3	2,117
266,8	2,111
267,3	2,102
267,7	2,095
268,2	2,098
268,7	2,094
269,1	2,085
269,6	2,076
270	2,062
270,5	2,069
271	2,063
271,4	2,043
271,9	2,03
272,4	2,015
272,8	1,997
273,3	1,989
273,7	1,973
274,2	1,955
274,7	1,948
275,1	1,93
275,6	1,917
276,1	1,889
276,5	1,844
277	1,798
277,4	1,76
277,9	1,709
278,4	1,655
278,8	1,594
279,3	1,535
279,8	1,477
280,2	1,415
280,7	1,348
281,1	1,284
281,6	1,223
282,1	1,162
282,5	1,105
283	1,052
283,4	1,002
283,9	0,958
284,4	0,917
284,8	0,878
285,3	0,844
285,8	0,813
286,2	0,786
286,7	0,762
287,1	0,739
287,6	0,721
288,1	0,705
288,5	0,691
289	0,68
289,5	0,67
289,9	0,66
290,4	0,655
290,8	0,648
291,3	0,642
291,8	0,638
292,2	0,633
292,7	0,629
293,1	0,626
293,6	0,621
294,1	0,618
294,5	0,616
295	0,614
295,5	0,612
295,9	0,61
296,4	0,608
296,8	0,607
297,3	0,605
297,8	0,603
298,2	0,599
298,7	0,597
299,1	0,596
299,6	0,595
300,1	0,592
300,5	0,589
301	0,586
301,5	0,585
301,9	0,582
302,4	0,58
302,8	0,577
303,3	0,576
303,8	0,573
304,2	0,572
304,7	0,57
305,1	0,568
305,6	0,564
306,1	0,561
306,5	0,557
307	0,553
307,4	0,549
307,9	0,545
308,4	0,541
308,8	0,538
309,3	0,534
309,8	0,53
310,2	0,527
310,7	0,523
311,1	0,52
311,6	0,516
312,1	0,512
312,5	0,508
313	0,505
313,4	0,501
313,9	0,497
314,4	0,493
314,8	0,489
315,3	0,485
315,7	0,481
316,2	0,477
316,7	0,472
317,1	0,468
317,6	0,462
318	0,459
318,5	0,455
319	0,45
319,4	0,445
319,9	0,44
320,3	0,435
320,8	0,43
321,3	0,423
321,7	0,418
322,2	0,413
322,6	0,408
323,1	0,403
323,6	0,398
324	0,394
324,5	0,389
324,9	0,384
325,4	0,379
325,9	0,375
326,3	0,369
326,8	0,364
327,2	0,36
327,7	0,355
328,2	0,351
328,6	0,346
329,1	0,341
329,5	0,337
330	0,332
330,5	0,326
330,9	0,322
331,4	0,318
331,8	0,313
332,3	0,308
332,8	0,303
333,2	0,299
333,7	0,296
334,1	0,292
334,6	0,287
335,1	0,282
335,5	0,278
336	0,274
336,4	0,27
336,9	0,265
337,4	0,261
337,8	0,256
338,3	0,253
338,7	0,249
339,2	0,245
339,7	0,24
340,1	0,237
340,6	0,233
341	0,23
341,5	0,226
342	0,222
342,4	0,218
342,9	0,216
343,3	0,212
343,8	0,208
344,2	0,205
344,7	0,201
345,2	0,199
345,6	0,196
346,1	0,192
346,5	0,19
347	0,187
347,5	0,184
347,9	0,181
348,4	0,177
348,8	0,173
349,3	0,171
349,8	0,167
350,2	0,164
350,7	0,162
351,1	0,16
351,6	0,158
352	0,156
352,5	0,154
353	0,152
353,4	0,149
353,9	0,146
354,3	0,143
354,8	0,142
355,3	0,14
355,7	0,137
356,2	0,134
356,6	0,132
357,1	0,13
357,5	0,127
358	0,125
358,5	0,122
358,9	0,121
359,4	0,119
359,8	0,117
360,3	0,115
360,8	0,114
361,2	0,112
361,7	0,11
362,1	0,108
362,6	0,106
363	0,104
363,5	0,102
364	0,101
364,4	0,099
364,9	0,098
365,3	0,096
365,8	0,094
366,3	0,093
366,7	0,091
367,2	0,089
367,6	0,088
368,1	0,086
368,5	0,085
369	0,083
369,5	0,082
369,9	0,081
370,4	0,08
370,8	0,079
371,3	0,078
371,7	0,077
372,2	0,076
372,7	0,076
373,1	0,075
373,6	0,074
374	0,073
374,5	0,072
374,9	0,07
375,4	0,068
375,9	0,067
376,3	0,066
376,8	0,064
377,2	0,063
377,7	0,062
378,2	0,062
378,6	0,062
379,1	0,06
379,5	0,059
380	0,058
380,4	0,058
380,9	0,056
381,4	0,055
381,8	0,055
382,3	0,054
382,7	0,054
383,2	0,053
383,6	0,052
384,1	0,051
384,6	0,051
385	0,051
385,5	0,05
385,9	0,049
386,4	0,048
386,8	0,048
387,3	0,047
387,7	0,046
388,2	0,044
388,7	0,044
389,1	0,043
389,6	0,043
390	0,042
390,5	0,041
390,9	0,041
391,4	0,04
391,9	0,04
392,3	0,039
392,8	0,039
393,2	0,039
393,7	0,038
394,1	0,038
394,6	0,038
395,1	0,037
395,5	0,038
396	0,037
396,4	0,037
396,9	0,036
397,3	0,036
397,8	0,035
398,2	0,035
398,7	0,034
399,2	0,034
399,6	0,033
400,1	0,033
400,5	0,032
401	0,031
401,4	0,03
401,9	0,029
402,4	0,029
402,8	0,029
403,3	0,029
403,7	0,029
404,2	0,029
404,6	0,029
405,1	0,029
405,5	0,028
406	0,027
406,5	0,027
406,9	0,027
407,4	0,026
407,8	0,025
408,3	0,024
408,7	0,024
409,2	0,024
409,6	0,023
410,1	0,024
410,6	0,024
411	0,023
411,5	0,023
411,9	0,023
412,4	0,023
412,8	0,023
413,3	0,022
413,7	0,022
414,2	0,022
414,7	0,022
415,1	0,022
415,6	0,021
416	0,021
416,5	0,021
416,9	0,02
417,4	0,02
417,8	0,02
418,3	0,019
418,8	0,02
419,2	0,019
419,7	0,019
420,1	0,018
420,6	0,018
421	0,017
421,5	0,017
421,9	0,017
422,4	0,017
422,8	0,016
423,3	0,016
423,8	0,016
424,2	0,016
424,7	0,015
425,1	0,014
425,6	0,014
426	0,014
426,5	0,014
426,9	0,014
427,4	0,013
427,9	0,014
428,3	0,013
428,8	0,013
429,2	0,013
429,7	0,012
430,1	0,011
430,6	0,011
431	0,01
431,5	0,01
431,9	0,01
432,4	0,009
432,8	0,01
433,3	0,01
433,8	0,01
434,2	0,011
434,7	0,011
435,1	0,01
435,6	0,01
436	0,01
436,5	0,009
436,9	0,009
437,4	0,008
437,8	0,009
438,3	0,009
438,8	0,008
439,2	0,008
439,7	0,008
440,1	0,007
440,6	0,007
441	0,006
441,5	0,006
441,9	0,006
442,4	0,006
442,8	0,006
443,3	0,006
443,7	0,007
444,2	0,007
444,7	0,006
445,1	0,007
445,6	0,006
446	0,006
446,5	0,006
446,9	0,006
447,4	0,005
447,8	0,005
448,3	0,005
448,7	0,006
449,2	0,006
449,6	0,005
450,1	0,005
450,6	0,005
451	0,005
451,5	0,005
451,9	0,004
452,4	0,004
452,8	0,003
453,3	0,003
453,7	0,003
454,2	0,003
454,6	0,003
455,1	0,003
455,5	0,003
456	0,004
456,4	0,004
456,9	0,004
457,3	0,003
457,8	0,003
458,3	0,002
458,7	0,002
459,2	0,002
459,6	0,001
460,1	0,001
460,5	0,001
461	0
461,4	0,001
461,9	0
462,3	-0
462,8	0
463,2	0
463,7	0
464,1	0,001
464,6	0,001
465	0,001
465,5	0,001
466	0,001
466,4	0,002
466,9	0,002
467,3	0,002
467,8	0,001
468,2	0,001
468,7	0,001
469,1	0,002
469,6	0,001
470	0,001
470,5	0,001
470,9	0,001
471,4	0
471,8	0
472,3	0
472,7	0
473,2	0
473,6	0
474,1	0
474,5	0
475	0,001
475,4	0,001
475,9	0,001
476,4	0
476,8	-0
477,3	-0
477,7	0
478,2	-0
478,6	-0
479,1	-0
479,5	0,001
480	0,002
480,4	0,002
480,9	0,002
481,3	0,002
481,8	0,001
482,2	0,001
482,7	0,001
483,1	0
483,6	-0,001
484	-0,001
484,5	-0,002
484,9	-0,002
485,4	-0,002
485,8	-0
486,3	-0,001
486,7	-0,001
487,2	-0,001
487,6	-0,001
488,1	-0,001
488,5	-0
489	-0,002
489,4	-0,002
489,9	-0,001
490,4	0
490,8	-0
491,3	0
491,7	0
492,2	0
492,6	0
493,1	-0
493,5	-0
494	0
494,4	-0
494,9	0
495,3	0
495,8	0,001
496,2	0,001
496,7	-0
497,1	-0
497,6	0
498	-0
498,5	-0
498,9	-0
499,4	-0,001
499,8	-0,001
500,3	-0,001
500,7	-0
501,2	-0,001
501,6	-0,001
502,1	-0,001
502,5	-0,001
503	-0,001
503,4	-0,001
503,9	-0,001
504,3	-0,001
504,8	-0,001
505,2	-0
505,7	-0,001
506,1	-0,001
506,6	-0
507	0
507,5	-0
507,9	-0,001
508,4	-0,001
508,8	-0,001
509,3	-0,001
509,7	-0,001
510,2	-0,001
510,6	-0,001
511,1	-0,001
511,5	-0,001
512	-0,001
512,4	-0,002
512,9	-0,002
513,3	-0,002
513,8	-0,002
514,2	-0,002
514,7	-0,001
515,1	-0
515,6	-0
516	0
516,5	0,001
516,9	0,001
517,4	0
517,8	-0,001
518,3	-0,001
518,7	-0,002
519,2	-0,002
519,6	-0,002
520,1	-0,002
520,5	-0,002
521	-0,002
521,4	-0,002
521,9	-0,001
522,3	-0,001
522,8	-0,001
523,2	-0,002
523,7	-0,001
524,1	-0,001
524,6	-0,002
525	-0,001
525,5	-0,001
525,9	-0,001
526,4	-0,001
526,8	-0,001
527,3	-0,001
527,7	-0
528,2	-0,001
528,6	-0,001
529,1	-0,001
529,5	-0,001
530	-0
530,4	-0
530,9	-0
531,3	0
531,8	-0
532,2	-0
532,6	-0,001
533,1	-0,001
533,5	-0,002
534	-0,002
534,4	-0,002
534,9	-0,002
535,3	-0,002
535,8	-0,002
536,2	-0,002
536,7	-0,003
537,1	-0,003
537,6	-0,003
538	-0,002
538,5	-0,002
538,9	-0,002
539,4	-0,002
539,8	-0,001
540,3	-0,001
540,7	-0
541,2	-0
541,6	-0
542,1	-0
542,5	-0
543	-0,001
543,4	-0,001
543,9	-0,002
544,3	-0,002
544,8	-0,003
545,2	-0,004
545,7	-0,003
546,1	-0,003
546,5	-0,002
547	-0,002
547,4	-0,001
547,9	-0,001
548,3	-0,001
548,8	-0,001
549,2	-0,001
549,7	-0,001
550,1	-0,001
550,6	-0,002
551	-0,001
551,5	-0,001
551,9	-0,001
552,4	-0,001
552,8	-0,001
553,3	-0
553,7	-0
554,2	-0,001
554,6	-0,001
555,1	-0,001
555,5	-0,001
555,9	-0,001
556,4	-0,002
556,8	-0,002
557,3	-0,002
557,7	-0,002
558,2	-0,002
558,6	-0,003
559,1	-0,003
559,5	-0,003
560	-0,003
560,4	-0,003
560,9	-0,003
561,3	-0,002
561,8	-0,001
562,2	-0,001
562,7	-0,001
563,1	-0,001
563,6	-0,001
564	-0,001
564,4	-0,001
564,9	-0,002
565,3	-0,001
565,8	-0,001
566,2	-0,001
566,7	-0,001
567,1	-0,001
567,6	-0,001
568	-0,001
568,5	-0,001
568,9	-0,002
569,4	-0,002
569,8	-0,002
570,3	-0,002
570,7	-0,002
571,1	-0,001
571,6	-0,001
572	-0,001
572,5	-0,001
572,9	-0
573,4	-0,001
573,8	-0,001
574,3	-0,002
574,7	-0,002
575,2	-0,002
575,6	-0,002
576,1	-0,002
576,5	-0,002
576,9	-0,002
577,4	-0,001
577,8	-0,001
578,3	-0,001
578,7	-0,001
579,2	-0,001
579,6	-0,001
580,1	-0,001
580,5	-0,001
581	-0,001
581,4	-0
581,9	-0,001
582,3	-0,001
582,7	-0,001
583,2	-0,001
583,6	-0,001
584,1	-0,001
584,5	-0,001
585	-0,001
585,4	-0,001
585,9	-0,001
586,3	-0,001
586,8	-0,001
587,2	-0,001
587,6	-0,001
588,1	-0,001
588,5	-0,001
589	-0,001
589,4	-0,001
589,9	-0,002
590,3	-0,001
590,8	-0,001
591,2	-0,001
591,7	-0,001
592,1	-0,001
592,5	-0,001
593	-0,001
593,4	-0,001
593,9	-0,001
594,3	-0,001
594,8	-0,001
595,2	-0,001
595,7	-0,001
596,1	-0,001
596,6	-0,001
597	-0,001
597,4	-0,001
597,9	-0,002
598,3	-0,001
598,8	-0,002
599,2	-0,002
599,7	-0,002
600,1	-0,003
600,6	-0,002
601	-0,002
601,4	-0,002
601,9	-0,002
602,3	-0,002
602,8	-0,002
603,2	-0,002
603,7	-0,002
604,1	-0,002
604,6	-0,002
605	-0,002
605,4	-0,002
605,9	-0,002
606,3	-0,002
606,8	-0,001
607,2	-0,001
607,7	-0,002
608,1	-0,001
608,6	-0,001
609	-0,001
609,4	-0,001
609,9	-0,001
610,3	-0,002
610,8	-0,002
611,2	-0,002
611,7	-0,002
612,1	-0,002
612,6	-0,002
613	-0,002
613,4	-0,002
613,9	-0,002
614,3	-0,002
614,8	-0,003
615,2	-0,002
615,7	-0,002
616,1	-0,002
616,6	-0,002
617	-0,002
617,4	-0,001
617,9	-0,001
618,3	-0,001
618,8	-0,001
619,2	-0,001
619,7	-0,001
620,1	-0,001
620,5	-0,001
621	-0,001
621,4	-0,001
621,9	-0,001
622,3	-0,001
622,8	-0
623,2	-0
623,6	-0,001
624,1	-0
624,5	-0,001
625	-0,001
625,4	-0,001
625,9	-0,001
626,3	-0,002
626,8	-0,001
627,2	-0,001
627,6	-0,001
628,1	-0,001
628,5	-0,001
629	-0,001
629,4	-0,001
629,9	-0,001
630,3	-0,001
630,7	-0,001
631,2	-0,001
631,6	-0,001
632,1	-0,001
632,5	-0,001
633	-0,001
633,4	-0,001
633,8	-0,001
634,3	-0,001
634,7	-0,001
635,2	-0,001
635,6	-0,001
636,1	-0,001
636,5	-0,001
636,9	-0,001
637,4	-0,001
637,8	-0,001
638,3	-0,002
638,7	-0,001
639,2	-0,002
639,6	-0,001
640	-0,001
640,5	-0,001
640,9	-0,001
641,4	-0,001
641,8	-0,001
642,2	-0,001
642,7	-0,001
643,1	-0,001
643,6	-0,001
644	-0,001
644,5	-0,001
644,9	-0,001
645,3	-0,001
645,8	-0,001
646,2	-0,001
646,7	-0,001
647,1	-0,001
647,6	-0,001
648	-0,001
648,4	-0,001
648,9	-0,001
649,3	-0,001
649,8	-0,001
650,2	-0,001
650,6	-0,002
651,1	-0,002
651,5	-0,002
652	-0,002
652,4	-0,002
652,9	-0,002
653,3	-0,002
653,7	-0,002
654,2	-0,002
654,6	-0,003
655,1	-0,002
655,5	-0,001
655,9	-0,001
656,4	-0,001
656,8	-0
657,3	0,001
657,7	0,001
658,2	0,002
658,6	0,002
659	0,003
659,5	0,005
659,9	0,006
660,4	0,004
660,8	0,002
661,2	0,001
661,7	0
662,1	-0
662,6	-0,001
663	-0,001
663,4	-0,002
663,9	-0,002
664,3	-0,002
664,8	-0,002
665,2	-0,002
665,6	-0,002
666,1	-0,002
666,5	-0,002
667	-0,002
667,4	-0,002
667,9	-0,001
668,3	-0,001
668,7	-0,001
669,2	-0,001
669,6	-0,001
670,1	-0,001
670,5	-0,001
670,9	-0,001
671,4	-0,001
671,8	-0,002
672,3	-0,002
672,7	-0,002
673,1	-0,002
673,6	-0,002
674	-0,002
674,5	-0,002
674,9	-0,002
675,3	-0,002
675,8	-0,002
676,2	-0,002
676,7	-0,002
677,1	-0,003
677,5	-0,003
678	-0,002
678,4	-0,002
678,9	-0,002
679,3	-0,002
679,7	-0,002
680,2	-0,001
680,6	-0,002
681,1	-0,001
681,5	-0,001
681,9	-0,001
682,4	-0,001
682,8	-0,001
683,3	-0,001
683,7	-0,001
684,1	-0,001
684,6	-0,001
685	-0,002
685,5	-0,002
685,9	-0,002
686,3	-0,002
686,8	-0,002
687,2	-0,002
687,7	-0,002
688,1	-0,002
688,5	-0,002
689	-0,001
689,4	-0,001
689,9	-0,001
690,3	-0,001
690,7	-0,001
691,2	-0,001
691,6	-0
692	-0,001
692,5	-0
692,9	-0
693,4	-0
693,8	-0,001
694,2	-0,001
694,7	-0,001
695,1	-0,001
695,6	-0,001
696	-0,001
696,4	-0,001
696,9	-0,001
697,3	-0,001
697,8	-0,002
698,2	-0,002
698,6	-0,002
699,1	-0,002
699,5	-0,002
699,9	-0,002
700,4	-0,002
700,8	-0,002
701,3	-0,001
701,7	-0,001
702,1	-0,001
702,6	-0,001
703	-0,001
703,5	-0,001
703,9	-0,001
704,3	-0
704,8	-0
705,2	-0,001
705,6	-0,001
706,1	-0,001
706,5	-0,001
707	-0,001
707,4	-0,001
707,8	-0,001
708,3	-0,001
708,7	-0,001
709,2	-0,001
709,6	-0,001
710	-0,001
710,5	-0,001
710,9	-0,001
711,3	-0,001
711,8	-0,001
712,2	-0,001
712,7	-0,001
713,1	-0,001
713,5	-0,001
714	-0,001
714,4	-0,001
714,8	-0,001
715,3	-0,001
715,7	-0,002
716,2	-0,001
716,6	-0,001
717	-0,001
717,5	-0,002
717,9	-0,002
718,3	-0,002
718,8	-0,002
719,2	-0,002
719,7	-0,002
720,1	-0,002
720,5	-0,001
721	-0,001
721,4	-0,001
721,8	-0,001
722,3	-0,001
722,7	-0,001
723,2	-0,001
723,6	-0,002
724	-0,002
724,5	-0,002
724,9	-0,002
725,3	-0,001
725,8	-0,001
726,2	-0,001
726,7	-0,001
727,1	-0,002
727,5	-0,002
728	-0,002
728,4	-0,003
728,8	-0,003
729,3	-0,003
729,7	-0,003
730,1	-0,003
730,6	-0,002
731	-0,002
731,5	-0,002
731,9	-0,001
732,3	-0,001
732,8	-0,001
733,2	-0,001
733,6	-0,001
734,1	-0,001
734,5	-0,001
734,9	-0,001
735,4	-0,001
735,8	-0,001
736,3	-0,001
736,7	-0,001
737,1	-0,001
737,6	-0,001
738	-0,002
738,4	-0,002
738,9	-0,002
739,3	-0,002
739,7	-0,002
740,2	-0,002
740,6	-0,002
741,1	-0,002
741,5	-0,002
741,9	-0,002
742,4	-0,002
742,8	-0,002
743,2	-0,001
743,7	-0,001
744,1	-0,001
744,5	-0,001
745	-0,001
745,4	-0,001
745,8	-0,001
746,3	-0,002
746,7	-0,002
747,2	-0,002
747,6	-0,002
748	-0,002
748,5	-0,002
748,9	-0,001
749,3	-0,001
749,8	-0,001
750,2	-0,001
750,6	-0,001
751,1	-0
751,5	0
751,9	-0
752,4	-0
752,8	-0
753,3	-0
753,7	-0
754,1	-0,001
754,6	-0,001
755	-0,001
755,4	-0,001
755,9	-0,001
756,3	-0,001
756,7	-0,001
757,2	-0,001
757,6	-0,001
758	-0,001
758,5	-0,001
758,9	-0,001
759,3	-0,001
759,8	-0,001
760,2	-0,001
760,6	-0,001
761,1	-0,001
761,5	-0,001
761,9	-0,001
762,4	-0,001
762,8	-0
763,3	-0
763,7	-0
764,1	0
764,6	-0
765	-0
765,4	-0
765,9	-0
766,3	0
766,7	0,001
767,2	0,001
767,6	0,002
768	0,002
768,5	0,002
768,9	0,002
769,3	0,001
769,8	0,001
770,2	0,001
770,6	0
771,1	-0
771,5	-0,001
771,9	-0,001
772,4	-0,001
772,8	-0,001
773,2	-0,001
773,7	-0,001
774,1	0
774,5	0,001
775	0,001
775,4	0,001
775,8	0,001
776,3	0,001
776,7	0,001
777,1	0,001
777,6	0
778	0
778,4	0
778,9	0
779,3	0
779,7	0
780,2	-0
780,6	0
781	-0
781,5	0
781,9	0
782,3	-0
782,8	-0
783,2	-0
783,6	-0
784,1	0
784,5	0
784,9	0
785,4	-0
785,8	-0,001
786,2	-0,001
786,7	-0,001
787,1	-0,002
787,5	-0,002
788	-0,002
788,4	-0,002
788,8	-0,002
789,3	-0,002
789,7	-0,002
790,1	-0,002
790,6	-0,002
791	-0,002
791,4	-0,003
791,9	-0,002
792,3	-0,002
792,7	-0,002
793,2	-0,002
793,6	-0,002
794	-0,002
794,5	-0,001
794,9	-0,001
795,3	-0,001
795,8	-0,001
796,2	-0,001
796,6	-0
797,1	-0
797,5	0
797,9	0
798,4	0
798,8	-0
799,2	-0
799,7	-0
800,1	-0,001
800,5	-0,001
801	-0,002
801,4	-0,002
801,8	-0,002
802,2	-0,002
802,7	-0,002
803,1	-0,001
803,5	-0,002
804	-0,001
804,4	-0
804,8	-0,001
805,3	-0,001
805,7	-0,001
806,1	-0,001
806,6	-0,001
807	-0,001
807,4	-0,001
807,9	-0,001
808,3	-0,001
808,7	-0,001
809,2	-0
809,6	-0,001
810	-0,001
810,4	-0,001
810,9	-0,001
811,3	-0,002
811,7	-0,002
812,2	-0,001
812,6	-0,001
813	-0,001
813,5	-0,001
813,9	-0,001
814,3	-0,001
814,8	-0,001
815,2	-0,002
815,6	-0,002
816,1	-0,002
816,5	-0,002
816,9	-0,002
817,3	-0,002
817,8	-0,002
818,2	-0,002
818,6	-0,002
819,1	-0,002
819,5	-0,002
819,9	-0,002
820,4	-0,002
820,8	-0,002
821,2	-0,002
821,7	-0,002
822,1	-0,003
822,5	-0,003
822,9	-0,004
823,4	-0,004
823,8	-0,004
824,2	-0,004
824,7	-0,004
825,1	-0,003
825,5	-0,003
826	-0,002
826,4	-0,002
826,8	-0,001
827,3	-0,001
827,7	-0,001
828,1	-0,001
828,5	-0
829	-0,001
829,4	-0,001
829,8	-0,001
830,3	-0,001
830,7	-0,001
831,1	-0,001
831,6	-0,001
832	-0,001
832,4	-0,001
832,8	-0,001
833,3	-0,001
833,7	-0,002
834,1	-0,002
834,6	-0,002
835	-0,002
835,4	-0,003
835,8	-0,002
836,3	-0,002
836,7	-0,002
837,1	-0,002
837,6	-0,002
838	-0,002
838,4	-0,002
838,9	-0,002
839,3	-0,002
839,7	-0,002
840,1	-0,001
840,6	-0,001
841	-0
841,4	-0
841,9	-0
842,3	-0
842,7	-0,001
843,1	-0
843,6	-0,001
844	-0,001
844,4	-0,001
844,9	-0,001
845,3	-0,001
845,7	-0,001
846,2	-0,001
846,6	-0,001
847	-0,001
847,4	-0,001
847,9	-0,001
848,3	-0,001
848,7	-0,001
849,2	-0,001
849,6	-0
850	-0,001
850,4	-0,001
850,9	-0,001
851,3	-0,001
851,7	-0,001
852,2	-0
852,6	-0
853	-0
853,4	-0
853,9	-0
854,3	0
854,7	0
855,2	0
855,6	-0
856	0
856,4	-0
856,9	-0
857,3	-0
857,7	-0
858,2	-0,001
858,6	-0,001
859	-0,002
859,4	-0,002
859,9	-0,002
860,3	-0,003
860,7	-0,002
861,1	-0,002
861,6	-0,002
862	-0,002
862,4	-0,001
862,9	-0,002
863,3	-0,001
863,7	-0,002
864,1	-0,001
864,6	-0,001
865	-0,001
865,4	-0,001
865,9	-0,001
866,3	-0,001
866,7	-0,001
867,1	-0,002
867,6	-0,002
868	-0,001
868,4	-0,002
868,8	-0,001
869,3	-0,001
869,7	-0,001
870,1	-0,001
870,6	-0,001
871	-0,002
871,4	-0,002
871,8	-0,002
872,3	-0,002
872,7	-0,002
873,1	-0,002
873,5	-0,003
874	-0,003
874,4	-0,003
874,8	-0,003
875,3	-0,003
875,7	-0,003
876,1	-0,003
876,5	-0,002
877	-0,002
877,4	-0,003
877,8	-0,002
878,2	-0,003
878,7	-0,003
879,1	-0,003
879,5	-0,003
879,9	-0,003
880,4	-0,003
880,8	-0,002
881,2	-0,002
881,7	-0,002
882,1	-0,001
882,5	-0,001
882,9	-0,001
883,4	-0,001
883,8	-0,001
884,2	-0,002
884,6	-0,002
885,1	-0,002
885,5	-0,002
885,9	-0,001
886,3	-0,001
886,8	-0,001
887,2	-0,001
887,6	-0,001
888	-0,001
888,5	-0,001
888,9	-0,001
889,3	-0,001
889,8	-0,001
890,2	-0
890,6	-0,001
891	-0
891,5	-0
891,9	-0
892,3	-0
892,7	-0
893,2	-0,001
893,6	-0,001
894	-0,001
894,4	-0,001
894,9	-0,001
895,3	-0,001
895,7	-0,001
896,1	-0,001
896,6	-0,001
897	-0,001
897,4	-0,001
897,8	-0,002
898,3	-0,002
898,7	-0,002
899,1	-0,002
899,5	-0,002
900	-0,002
900,4	-0,002
900,8	-0,002
901,2	-0,002
901,7	-0,002
902,1	-0,002
902,5	-0,002
902,9	-0,002
903,4	-0,003
903,8	-0,003
904,2	-0,002
904,6	-0,002
905,1	-0,002
905,5	-0,002
905,9	-0,002
906,3	-0,002
906,8	-0,002
907,2	-0,003
907,6	-0,003
908	-0,003
908,5	-0,004
908,9	-0,004
909,3	-0,004
909,7	-0,004
910,2	-0,004
910,6	-0,005
911	-0,004
911,4	-0,004
911,9	-0,004
912,3	-0,003
912,7	-0,003
913,1	-0,003
913,6	-0,003
914	-0,002
914,4	-0,002
914,8	-0,002
915,3	-0,002
915,7	-0,002
916,1	-0,002
916,5	-0,002
916,9	-0,002
917,4	-0,002
917,8	-0,002
918,2	-0,001
918,6	-0,001
919,1	-0
919,5	0
919,9	0,001
920,3	0
920,8	0
921,2	0
921,6	0
922	0
922,5	-0,001
922,9	-0,001
923,3	-0,001
923,7	-0,001
924,2	-0,001
924,6	-0,001
925	-0,001
925,4	-0,001
925,8	-0,001
926,3	-0,001
926,7	-0,001
927,1	-0
927,5	-0
928	-0,001
928,4	-0,001
928,8	-0,001
929,2	-0,001
929,7	-0,001
930,1	-0,001
930,5	-0,001
930,9	-0,001
931,3	-0
931,8	0
932,2	-0
932,6	-0,001
933	-0,001
933,5	-0,001
933,9	-0,002
934,3	-0,002
934,7	-0,002
935,2	-0,001
935,6	-0,001
936	-0,001
936,4	-0,001
936,8	-0
937,3	-0
937,7	-0,001
938,1	-0,001
938,5	-0,002
939	-0,002
939,4	-0,002
939,8	-0,002
940,2	-0,002
940,6	-0,003
941,1	-0,003
941,5	-0,002
941,9	-0,002
942,3	-0,003
942,8	-0,003
943,2	-0,003
943,6	-0,003
944	-0,002
944,4	-0,003
944,9	-0,002
945,3	-0,002
945,7	-0,002
946,1	-0,002
946,6	-0,002
947	-0,002
947,4	-0,002
947,8	-0,002
948,2	-0,003
948,7	-0,003
949,1	-0,003
949,5	-0,004
949,9	-0,004
950,3	-0,004
950,8	-0,004
951,2	-0,004
951,6	-0,005
952	-0,005
952,5	-0,004
952,9	-0,004
953,3	-0,004
953,7	-0,004
954,1	-0,003
954,6	-0,003
955	-0,003
955,4	-0,002
955,8	-0,001
956,2	-0,001
956,7	-0,001
957,1	-0,001
957,5	-0,001
957,9	-0,001
958,3	-0,001
958,8	-0,002
959,2	-0,002
959,6	-0,002
960	-0,003
960,5	-0,003
960,9	-0,003
961,3	-0,003
961,7	-0,003
962,1	-0,002
962,6	-0,003
963	-0,003
963,4	-0,002
963,8	-0,003
964,2	-0,003
964,7	-0,003
965,1	-0,003
965,5	-0,002
965,9	-0,002
966,3	-0,001
966,8	-0,001
967,2	-0
967,6	-0
968	-0
968,4	-0,001
968,9	-0,001
969,3	-0,001
969,7	-0,002
970,1	-0,002
970,5	-0,002
971	-0,002
971,4	-0,002
971,8	-0,002
972,2	-0,003
972,6	-0,002
973,1	-0,002
973,5	-0,003
973,9	-0,003
974,3	-0,002
974,7	-0,002
975,2	-0,002
975,6	-0,002
976	-0,001
976,4	-0,001
976,8	-0,002
977,3	-0,002
977,7	-0,002
978,1	-0,001
978,5	-0,001
978,9	-0,001
979,4	-0,001
979,8	-0,001
980,2	0
980,6	0
981	0
981,5	0
981,9	0
982,3	0
982,7	0,001
983,1	0
983,6	-0
984	-0,001
984,4	-0,002
984,8	-0,002
985,2	-0,002
985,6	-0,003
986,1	-0,003
986,5	-0,002
986,9	-0,002
987,3	-0,002
987,7	-0,001
988,2	-0,001
988,6	-0,001
989	-0,001
989,4	-0,002
989,8	-0,002
990,3	-0,002
990,7	-0,003
991,1	-0,003
991,5	-0,003
991,9	-0,003
992,3	-0,003
992,8	-0,002
993,2	-0,002
993,6	-0,002
994	-0,002
994,4	-0,002
994,9	-0,002
995,3	-0,002
995,7	-0,002
996,1	-0,002
996,5	-0,002
996,9	-0,002
997,4	-0,002
997,8	-0,002
998,2	-0,002
998,6	-0,002
999	-0,001
999,5	-0,001
999,9	-0
1000,3	0
1000,7	0,001
1001,1	0
1001,5	0
1002	-0,001
1002,4	-0,002
1002,8	-0,002
1003,2	-0,003
1003,6	-0,003
1004	-0,003
1004,5	-0,003
1004,9	-0,003
1005,3	-0,002
1005,7	-0,002
1006,1	-0,002
1006,6	-0,001
1007	-0,001
1007,4	-0,001
1007,8	-0,001
1008,2	-0,001
1008,6	-0,001
1009,1	-0,002
1009,5	-0,002
1009,9	-0,003
1010,3	-0,003
1010,7	-0,003
1011,1	-0,003
1011,6	-0,003
1012	-0,003
1012,4	-0,003
1012,8	-0,003
1013,2	-0,003
1013,6	-0,004
1014,1	-0,003
1014,5	-0,003
1014,9	-0,003
1015,3	-0,002
1015,7	-0,002
1016,1	-0,002
1016,6	-0,002
1017	-0,002
1017,4	-0,003
1017,8	-0,003
1018,2	-0,003
1018,6	-0,002
1019,1	-0,002
1019,5	-0,003
1019,9	-0,002
1020,3	-0,001
1020,7	-0,002
1021,1	-0,001
1021,6	-0,001
1022	-0
1022,4	-0
1022,8	-0
1023,2	-0,001
1023,6	-0
1024,1	0
1024,5	0
1024,9	0,001
1025,3	0,002
1025,7	0,003
1026,1	0,003
1026,6	0,004
1027	0,003
1027,4	0,003
1027,8	0,002
1028,2	0,002
1028,6	0,001
1029	0,001
1029,5	0,001
1029,9	0
1030,3	0
1030,7	0,001
1031,1	0,001
1031,5	0
1032	0,001
1032,4	0
1032,8	0
1033,2	0
1033,6	0,001
1034	0,001
1034,4	0,001
1034,9	0
1035,3	0
1035,7	0,001
1036,1	0
1036,5	0
1036,9	-0
1037,4	-0,001
1037,8	-0
1038,2	-0
1038,6	-0,001
1039	0
1039,4	-0,001
1039,8	-0
1040,3	-0
1040,7	-0,001
1041,1	-0,001
1041,5	-0,001
1041,9	-0,002
1042,3	-0,002
1042,7	-0,002
1043,2	-0,003
1043,6	-0,002
1044	-0,003
1044,4	-0,002
1044,8	-0,002
1045,2	-0,002
1045,6	-0,002
1046,1	-0,001
1046,5	-0,001
1046,9	-0,001
1047,3	-0,002
1047,7	-0,002
1048,1	-0,003
1048,5	-0,003
1049	-0,003
1049,4	-0,002
1049,8	-0,003
1050,2	-0,002
1050,6	-0,003
1051	-0,003
1051,4	-0,004
1051,9	-0,004
1052,3	-0,003
1052,7	-0,003
1053,1	-0,003
1053,5	-0,003
1053,9	-0,002
1054,3	-0,002
1054,8	-0,002
1055,2	-0,002
1055,6	-0,002
1056	-0,002
1056,4	-0,002
1056,8	-0,002
1057,2	-0,003
1057,6	-0,003
1058,1	-0,004
1058,5	-0,004
1058,9	-0,005
1059,3	-0,005
1059,7	-0,005
1060,1	-0,005
1060,5	-0,005
1061	-0,004
1061,4	-0,004
1061,8	-0,003
1062,2	-0,003
1062,6	-0,003
1063	-0,003
1063,4	-0,003
1063,8	-0,003
1064,3	-0,003
1064,7	-0,003
1065,1	-0,003
1065,5	-0,004
1065,9	-0,004
1066,3	-0,003
1066,7	-0,003
1067,1	-0,003
1067,6	-0,003
1068	-0,003
1068,4	-0,003
1068,8	-0,002
1069,2	-0,002
1069,6	-0,003
1070	-0,002
1070,4	-0,002
1070,9	-0,002
1071,3	-0
1071,7	-0,001
1072,1	-0,001
1072,5	-0,002
1072,9	-0,003
1073,3	-0,002
1073,7	-0,002
1074,2	-0,003
1074,6	-0,001
1075	-0,002
1075,4	-0,002
1075,8	-0,001
1076,2	-0,001
1076,6	-0,001
1077	-0,001
1077,5	-0,003
1077,9	-0,003
1078,3	-0,004
1078,7	-0,005
1079,1	-0,005
1079,5	-0,006
1079,9	-0,005
1080,3	-0,005
1080,7	-0,005
1081,2	-0,002
1081,6	-0,002
1082	-0,002
1082,4	-0,002
1082,8	-0,004
1083,2	-0,003
1083,6	-0,003
1084	-0,004
1084,5	-0,004
1084,9	-0,004
1085,3	-0,003
1085,7	-0,001
1086,1	-0,001
1086,5	-0,001
1086,9	-0,002
1087,3	-0,001
1087,7	0,001
1088,2	0
1088,6	-0,003
1089	-0,002
1089,4	-0,001
1089,8	-0,001
1090,2	-0,004
1090,6	-0,006
1091	-0,005
1091,4	-0,003
1091,9	-0,004
1092,3	-0,007
1092,7	-0,005
1093,1	-0,005
1093,5	-0,003
1093,9	-0,006
1094,3	-0,005
1094,7	-0,004
1095,1	-0,002
1095,5	-0,006
1096	-0,007
1096,4	-0,011
1096,8	-0,012
1097,2	-0,012
1097,6	-0,013
1098	-0,018
1098,4	-0,019
1098,8	-0,019
1099,2	-0,021
1099,6	-0,016
1100,1	-0,021
1100,5	-0,019
1100,9	-0,018
1101,3	-0,012
1101,7	0
1102,1	0,006
1102,5	0,003
1102,9	0,016
1103,3	0,005
1103,7	0,005
1104,2	-0,01
1104,6	-0,024
1105	-0,022
1105,4	-0,013
1105,8	-0,026
1106,2	-0,012
1106,6	-0,004
1107	0,004
1107,4	0,023
1107,8	0,065
1108,3	-0
