Data from Absorbance_00049.txt Node
Date: Fri Aug 11 13:14:40 MSK 2023
User: vat
Spectrometer: MAYP114033
Trigger mode: 0
Integration Time (sec): 8,000000E-3
Scans to average: 10
Electric dark correction enabled: true
Nonlinearity correction enabled: false
Boxcar width: 3
XAxis mode: Wavelengths
Number of Pixels in Spectrum: 2068
>>>>>Begin Spectral Data<<<<<
199,4	-0
199,9	0,126
200,4	0,404
200,8	0,718
201,3	0,838
201,8	0,909
202,2	0,922
202,7	0,952
203,2	1,007
203,6	1,043
204,1	1,057
204,6	1,096
205	1,131
205,5	1,153
206	1,144
206,4	1,146
206,9	1,172
207,4	1,196
207,8	1,201
208,3	1,22
208,8	1,228
209,2	1,26
209,7	1,278
210,2	1,277
210,6	1,293
211,1	1,296
211,5	1,296
212	1,312
212,5	1,348
212,9	1,371
213,4	1,374
213,9	1,367
214,3	1,373
214,8	1,368
215,3	1,393
215,7	1,385
216,2	1,387
216,7	1,418
217,1	1,461
217,6	1,487
218,1	1,516
218,5	1,519
219	1,548
219,5	1,561
219,9	1,585
220,4	1,594
220,9	1,605
221,3	1,627
221,8	1,647
222,3	1,658
222,7	1,666
223,2	1,657
223,6	1,671
224,1	1,669
224,6	1,682
225	1,699
225,5	1,724
226	1,758
226,4	1,772
226,9	1,771
227,4	1,81
227,8	1,821
228,3	1,841
228,8	1,839
229,2	1,84
229,7	1,879
230,2	1,895
230,6	1,924
231,1	1,92
231,5	1,932
232	1,937
232,5	1,939
232,9	1,926
233,4	1,939
233,9	1,934
234,3	1,949
234,8	1,944
235,3	1,958
235,7	1,975
236,2	1,997
236,7	2,018
237,1	2,01
237,6	2,023
238,1	2,018
238,5	2,017
239	2,03
239,4	2,038
239,9	2,049
240,4	2,058
240,8	2,061
241,3	2,078
241,8	2,107
242,2	2,084
242,7	2,061
243,2	2,049
243,6	2,066
244,1	2,065
244,6	2,072
245	2,057
245,5	2,083
245,9	2,106
246,4	2,113
246,9	2,103
247,3	2,111
247,8	2,096
248,3	2,101
248,7	2,101
249,2	2,102
249,7	2,096
250,1	2,109
250,6	2,107
251	2,126
251,5	2,132
252	2,12
252,4	2,131
252,9	2,14
253,4	2,132
253,8	2,144
254,3	2,137
254,8	2,136
255,2	2,179
255,7	2,177
256,1	2,167
256,6	2,181
257,1	2,178
257,5	2,198
258	2,204
258,5	2,171
258,9	2,168
259,4	2,186
259,9	2,19
260,3	2,213
260,8	2,201
261,2	2,208
261,7	2,23
262,2	2,23
262,6	2,229
263,1	2,219
263,6	2,192
264	2,189
264,5	2,17
264,9	2,173
265,4	2,171
265,9	2,156
266,3	2,16
266,8	2,168
267,3	2,164
267,7	2,172
268,2	2,151
268,7	2,159
269,1	2,144
269,6	2,146
270	2,142
270,5	2,153
271	2,17
271,4	2,169
271,9	2,16
272,4	2,167
272,8	2,167
273,3	2,162
273,7	2,16
274,2	2,149
274,7	2,149
275,1	2,156
275,6	2,17
276,1	2,157
276,5	2,155
277	2,138
277,4	2,125
277,9	2,125
278,4	2,123
278,8	2,129
279,3	2,118
279,8	2,1
280,2	2,099
280,7	2,077
281,1	2,058
281,6	2,038
282,1	2,017
282,5	1,997
283	1,988
283,4	1,957
283,9	1,937
284,4	1,887
284,8	1,83
285,3	1,751
285,8	1,678
286,2	1,593
286,7	1,509
287,1	1,424
287,6	1,346
288,1	1,269
288,5	1,202
289	1,142
289,5	1,09
289,9	1,043
290,4	1,004
290,8	0,968
291,3	0,94
291,8	0,914
292,2	0,893
292,7	0,873
293,1	0,856
293,6	0,841
294,1	0,828
294,5	0,818
295	0,809
295,5	0,799
295,9	0,791
296,4	0,786
296,8	0,779
297,3	0,773
297,8	0,767
298,2	0,762
298,7	0,757
299,1	0,753
299,6	0,749
300,1	0,743
300,5	0,739
301	0,735
301,5	0,73
301,9	0,725
302,4	0,72
302,8	0,715
303,3	0,712
303,8	0,707
304,2	0,703
304,7	0,698
305,1	0,694
305,6	0,689
306,1	0,685
306,5	0,679
307	0,674
307,4	0,669
307,9	0,663
308,4	0,657
308,8	0,652
309,3	0,648
309,8	0,643
310,2	0,639
310,7	0,634
311,1	0,629
311,6	0,624
312,1	0,617
312,5	0,611
313	0,605
313,4	0,599
313,9	0,593
314,4	0,587
314,8	0,581
315,3	0,576
315,7	0,57
316,2	0,565
316,7	0,558
317,1	0,551
317,6	0,546
318	0,54
318,5	0,535
319	0,528
319,4	0,522
319,9	0,517
320,3	0,512
320,8	0,505
321,3	0,498
321,7	0,492
322,2	0,485
322,6	0,479
323,1	0,473
323,6	0,466
324	0,461
324,5	0,455
324,9	0,45
325,4	0,445
325,9	0,439
326,3	0,433
326,8	0,427
327,2	0,421
327,7	0,415
328,2	0,408
328,6	0,403
329,1	0,397
329,5	0,392
330	0,387
330,5	0,382
330,9	0,376
331,4	0,372
331,8	0,366
332,3	0,36
332,8	0,355
333,2	0,349
333,7	0,345
334,1	0,339
334,6	0,333
335,1	0,328
335,5	0,323
336	0,317
336,4	0,312
336,9	0,305
337,4	0,299
337,8	0,293
338,3	0,288
338,7	0,282
339,2	0,277
339,7	0,271
340,1	0,266
340,6	0,261
341	0,256
341,5	0,251
342	0,246
342,4	0,241
342,9	0,237
343,3	0,233
343,8	0,229
344,2	0,225
344,7	0,221
345,2	0,217
345,6	0,214
346,1	0,21
346,5	0,205
347	0,202
347,5	0,198
347,9	0,194
348,4	0,189
348,8	0,186
349,3	0,182
349,8	0,179
350,2	0,175
350,7	0,172
351,1	0,17
351,6	0,167
352	0,163
352,5	0,16
353	0,156
353,4	0,153
353,9	0,15
354,3	0,147
354,8	0,144
355,3	0,142
355,7	0,139
356,2	0,136
356,6	0,134
357,1	0,132
357,5	0,129
358	0,126
358,5	0,123
358,9	0,122
359,4	0,12
359,8	0,118
360,3	0,116
360,8	0,114
361,2	0,113
361,7	0,111
362,1	0,108
362,6	0,106
363	0,104
363,5	0,102
364	0,1
364,4	0,099
364,9	0,098
365,3	0,096
365,8	0,095
366,3	0,093
366,7	0,092
367,2	0,09
367,6	0,088
368,1	0,086
368,5	0,085
369	0,084
369,5	0,083
369,9	0,081
370,4	0,081
370,8	0,079
371,3	0,078
371,7	0,077
372,2	0,076
372,7	0,075
373,1	0,074
373,6	0,073
374	0,072
374,5	0,071
374,9	0,069
375,4	0,068
375,9	0,067
376,3	0,066
376,8	0,065
377,2	0,064
377,7	0,064
378,2	0,063
378,6	0,063
379,1	0,061
379,5	0,06
380	0,059
380,4	0,059
380,9	0,058
381,4	0,057
381,8	0,056
382,3	0,056
382,7	0,054
383,2	0,054
383,6	0,053
384,1	0,052
384,6	0,051
385	0,051
385,5	0,05
385,9	0,05
386,4	0,049
386,8	0,048
387,3	0,048
387,7	0,046
388,2	0,045
388,7	0,044
389,1	0,044
389,6	0,044
390	0,043
390,5	0,042
390,9	0,042
391,4	0,041
391,9	0,041
392,3	0,04
392,8	0,039
393,2	0,039
393,7	0,038
394,1	0,038
394,6	0,037
395,1	0,036
395,5	0,037
396	0,037
396,4	0,036
396,9	0,035
397,3	0,034
397,8	0,034
398,2	0,034
398,7	0,033
399,2	0,033
399,6	0,033
400,1	0,032
400,5	0,032
401	0,031
401,4	0,03
401,9	0,03
402,4	0,03
402,8	0,029
403,3	0,028
403,7	0,028
404,2	0,028
404,6	0,028
405,1	0,027
405,5	0,027
406	0,026
406,5	0,025
406,9	0,025
407,4	0,024
407,8	0,023
408,3	0,023
408,7	0,022
409,2	0,022
409,6	0,022
410,1	0,022
410,6	0,022
411	0,022
411,5	0,021
411,9	0,021
412,4	0,02
412,8	0,02
413,3	0,019
413,7	0,019
414,2	0,019
414,7	0,019
415,1	0,018
415,6	0,018
416	0,018
416,5	0,017
416,9	0,017
417,4	0,016
417,8	0,016
418,3	0,015
418,8	0,015
419,2	0,015
419,7	0,014
420,1	0,014
420,6	0,014
421	0,015
421,5	0,014
421,9	0,013
422,4	0,013
422,8	0,013
423,3	0,012
423,8	0,012
424,2	0,011
424,7	0,011
425,1	0,011
425,6	0,01
426	0,01
426,5	0,01
426,9	0,009
427,4	0,009
427,9	0,008
428,3	0,008
428,8	0,008
429,2	0,008
429,7	0,008
430,1	0,008
430,6	0,008
431	0,008
431,5	0,007
431,9	0,007
432,4	0,006
432,8	0,006
433,3	0,007
433,8	0,007
434,2	0,007
434,7	0,006
435,1	0,006
435,6	0,006
436	0,006
436,5	0,005
436,9	0,005
437,4	0,005
437,8	0,006
438,3	0,006
438,8	0,005
439,2	0,005
439,7	0,005
440,1	0,005
440,6	0,003
441	0,003
441,5	0,002
441,9	0,002
442,4	0,003
442,8	0,002
443,3	0,002
443,7	0,003
444,2	0,003
444,7	0,003
445,1	0,003
445,6	0,002
446	0,003
446,5	0,003
446,9	0,002
447,4	0,002
447,8	0,003
448,3	0,003
448,7	0,003
449,2	0,002
449,6	0,003
450,1	0,002
450,6	0,002
451	0,001
451,5	0,001
451,9	0
452,4	0
452,8	-0,001
453,3	-0,001
453,7	-0,001
454,2	-0,001
454,6	-0
455,1	-0
455,5	0,001
456	0,001
456,4	0,002
456,9	0,002
457,3	0,002
457,8	0,002
458,3	0,001
458,7	0,001
459,2	0,001
459,6	0
460,1	0
460,5	-0
461	-0
461,4	0
461,9	-0,001
462,3	-0
462,8	-0,001
463,2	-0,001
463,7	-0,001
464,1	-0,001
464,6	-0,001
465	-0
465,5	-0
466	0,001
466,4	0,001
466,9	0,001
467,3	0
467,8	0
468,2	0
468,7	-0
469,1	-0,001
469,6	-0,001
470	-0,001
470,5	-0,001
470,9	-0,001
471,4	-0,001
471,8	-0,001
472,3	-0,001
472,7	-0,001
473,2	-0,001
473,6	-0,001
474,1	-0,001
474,5	-0,001
475	-0,001
475,4	-0,001
475,9	-0,001
476,4	-0,001
476,8	-0,001
477,3	-0,001
477,7	-0,001
478,2	-0,001
478,6	-0,001
479,1	-0,001
479,5	-0,001
480	0
480,4	0
480,9	0,001
481,3	0
481,8	0
482,2	-0
482,7	-0
483,1	-0,001
483,6	-0,002
484	-0,002
484,5	-0,002
484,9	-0,001
485,4	-0,001
485,8	-0
486,3	0
486,7	0
487,2	0
487,6	0
488,1	-0
488,5	-0
489	-0,001
489,4	-0,002
489,9	-0,001
490,4	-0,001
490,8	-0,001
491,3	-0,001
491,7	-0
492,2	-0,001
492,6	-0
493,1	-0,001
493,5	-0
494	-0
494,4	-0
494,9	-0
495,3	0
495,8	0,001
496,2	0,001
496,7	0
497,1	0
497,6	-0
498	-0,001
498,5	-0,001
498,9	-0,001
499,4	-0,002
499,8	-0,002
500,3	-0,002
500,7	-0,002
501,2	-0,001
501,6	-0,001
502,1	-0,001
502,5	-0
503	0
503,4	0
503,9	-0
504,3	-0
504,8	0
505,2	0
505,7	0
506,1	0,001
506,6	0,001
507	0,001
507,5	0,001
507,9	0
508,4	0
508,8	-0
509,3	-0
509,7	-0
510,2	-0
510,6	0
511,1	0
511,5	0
512	-0
512,4	-0
512,9	0
513,3	-0
513,8	0
514,2	0,001
514,7	0,001
515,1	0,001
515,6	0,001
516	0,001
516,5	0,001
516,9	0,001
517,4	-0
517,8	-0,001
518,3	-0,001
518,7	-0,001
519,2	-0,002
519,6	-0,001
520,1	-0,001
520,5	-0,001
521	-0,001
521,4	-0,001
521,9	-0,001
522,3	-0
522,8	-0
523,2	-0,001
523,7	-0
524,1	-0
524,6	0
525	-0
525,5	-0
525,9	-0,001
526,4	-0
526,8	-0
527,3	-0
527,7	-0
528,2	-0
528,6	-0,001
529,1	0
529,5	0
530	-0
530,4	-0
530,9	0
531,3	0
531,8	0
532,2	-0
532,6	-0,001
533,1	-0
533,5	-0,001
534	-0,001
534,4	-0,001
534,9	-0,001
535,3	-0,001
535,8	-0,001
536,2	-0,001
536,7	-0,001
537,1	-0,002
537,6	-0,002
538	-0,002
538,5	-0,001
538,9	-0,001
539,4	-0,001
539,8	-0,001
540,3	-0
540,7	0
541,2	0
541,6	0
542,1	0
542,5	-0
543	-0,001
543,4	-0,001
543,9	-0,002
544,3	-0,002
544,8	-0,003
545,2	-0,003
545,7	-0,002
546,1	-0,002
546,5	-0,001
547	-0,001
547,4	-0,001
547,9	-0
548,3	0
548,8	0
549,2	0
549,7	0
550,1	0,001
550,6	0
551	0
551,5	0,001
551,9	0,001
552,4	0,001
552,8	0,001
553,3	0,001
553,7	0,001
554,2	0,001
554,6	0,001
555,1	0
555,5	0
555,9	-0,001
556,4	-0,001
556,8	-0
557,3	-0,001
557,7	-0,001
558,2	-0,001
558,6	-0,002
559,1	-0,001
559,5	-0,001
560	-0,002
560,4	-0,002
560,9	-0,002
561,3	-0,002
561,8	-0,002
562,2	-0,001
562,7	-0,001
563,1	-0
563,6	0
564	0
564,4	0
564,9	0
565,3	0
565,8	0
566,2	0
566,7	0
567,1	0
567,6	0
568	0
568,5	-0,001
568,9	-0,001
569,4	-0,001
569,8	-0,001
570,3	-0
570,7	-0
571,1	-0
571,6	0
572	0
572,5	0
572,9	0
573,4	-0
573,8	-0
574,3	-0,001
574,7	-0,001
575,2	-0,001
575,6	-0,001
576,1	-0,002
576,5	-0,001
576,9	-0,002
577,4	-0,001
577,8	-0,001
578,3	-0,001
578,7	-0,001
579,2	-0,001
579,6	-0,001
580,1	-0
580,5	-0
581	-0
581,4	-0
581,9	-0
582,3	-0
582,7	-0
583,2	-0
583,6	-0,001
584,1	-0
584,5	-0,001
585	-0
585,4	-0
585,9	-0,001
586,3	-0,001
586,8	-0
587,2	-0
587,6	-0
588,1	-0
588,5	-0,001
589	-0
589,4	-0,001
589,9	-0,001
590,3	-0
590,8	-0
591,2	-0
591,7	-0
592,1	0
592,5	0
593	0
593,4	-0
593,9	-0
594,3	-0
594,8	-0
595,2	-0
595,7	-0
596,1	-0,001
596,6	-0
597	-0,001
597,4	-0,001
597,9	-0,001
598,3	-0,001
598,8	-0,001
599,2	-0,001
599,7	-0,002
600,1	-0,002
600,6	-0,002
601	-0,002
601,4	-0,002
601,9	-0,002
602,3	-0,002
602,8	-0,002
603,2	-0,002
603,7	-0,002
604,1	-0,001
604,6	-0,001
605	-0,001
605,4	-0,001
605,9	-0,001
606,3	-0,001
606,8	-0,001
607,2	-0,001
607,7	-0,001
608,1	-0,001
608,6	-0,001
609	-0
609,4	-0
609,9	-0,001
610,3	-0,001
610,8	-0
611,2	-0,001
611,7	-0
612,1	-0,001
612,6	-0,001
613	-0
613,4	-0
613,9	-0
614,3	-0,001
614,8	-0,001
615,2	-0,001
615,7	-0,001
616,1	-0,001
616,6	-0,001
617	-0,001
617,4	-0,001
617,9	-0,001
618,3	-0
618,8	-0,001
619,2	-0
619,7	-0
620,1	-0
620,5	0
621	-0
621,4	-0
621,9	-0
622,3	-0
622,8	-0
623,2	0
623,6	-0
624,1	-0
624,5	-0
625	-0
625,4	-0
625,9	-0
626,3	-0,001
626,8	-0,001
627,2	-0
627,6	-0
628,1	-0
628,5	-0
629	0
629,4	0,001
629,9	0
630,3	0
630,7	0,001
631,2	0,001
631,6	0,001
632,1	0
632,5	-0
633	-0
633,4	-0,001
633,8	-0,001
634,3	-0,001
634,7	-0,001
635,2	-0,001
635,6	-0
636,1	-0
636,5	-0
636,9	-0
637,4	-0,001
637,8	-0,001
638,3	-0,001
638,7	-0
639,2	-0,001
639,6	-0
640	-0
640,5	-0
640,9	-0
641,4	-0
641,8	-0
642,2	-0,001
642,7	-0
643,1	-0
643,6	-0
644	-0,001
644,5	-0,001
644,9	-0
645,3	-0
645,8	-0
646,2	-0
646,7	0
647,1	0,001
647,6	0,001
648	0,001
648,4	0,001
648,9	0,001
649,3	0,001
649,8	0,001
650,2	0,001
650,6	0
651,1	-0
651,5	-0
652	-0,001
652,4	-0,001
652,9	-0,001
653,3	-0,001
653,7	-0,001
654,2	-0,001
654,6	-0,002
655,1	-0,002
655,5	-0,001
655,9	-0,001
656,4	-0,001
656,8	-0
657,3	0
657,7	0
658,2	0,001
658,6	0,001
659	0,002
659,5	0,002
659,9	0,003
660,4	0,002
660,8	0,001
661,2	0
661,7	0
662,1	-0
662,6	-0,001
663	-0,001
663,4	-0,001
663,9	-0,001
664,3	-0,001
664,8	-0,002
665,2	-0,001
665,6	-0,001
666,1	-0,001
666,5	-0,002
667	-0,002
667,4	-0,001
667,9	-0,001
668,3	-0,001
668,7	-0,001
669,2	-0,001
669,6	-0,001
670,1	-0,001
670,5	-0,001
670,9	-0,001
671,4	-0,001
671,8	-0,001
672,3	-0,001
672,7	-0,001
673,1	-0,001
673,6	-0,001
674	-0,001
674,5	-0,001
674,9	-0,001
675,3	-0,001
675,8	-0,001
676,2	-0,002
676,7	-0,002
677,1	-0,002
677,5	-0,002
678	-0,002
678,4	-0,001
678,9	-0,001
679,3	-0,001
679,7	-0,001
680,2	-0
680,6	-0
681,1	-0
681,5	0
681,9	0,001
682,4	0,001
682,8	0,001
683,3	0,001
683,7	0
684,1	0
684,6	0
685	-0
685,5	-0,001
685,9	-0,001
686,3	-0,001
686,8	-0,001
687,2	-0,001
687,7	-0,001
688,1	-0,001
688,5	-0,001
689	-0
689,4	-0
689,9	-0,001
690,3	-0,001
690,7	-0,001
691,2	-0,001
691,6	-0
692	-0
692,5	-0
692,9	-0
693,4	0
693,8	0
694,2	0
694,7	-0
695,1	0
695,6	0
696	0
696,4	-0
696,9	-0
697,3	-0
697,8	-0
698,2	-0,001
698,6	-0
699,1	-0,001
699,5	-0,001
699,9	-0,001
700,4	-0,001
700,8	-0
701,3	-0
701,7	-0
702,1	0
702,6	0,001
703	0,001
703,5	0,001
703,9	0,001
704,3	0,001
704,8	0,001
705,2	0,001
705,6	0,001
706,1	0
706,5	0
707	-0
707,4	-0,001
707,8	-0
708,3	-0
708,7	-0
709,2	-0,001
709,6	-0,001
710	-0
710,5	-0
710,9	-0,001
711,3	-0,001
711,8	-0,001
712,2	-0,001
712,7	-0,001
713,1	-0,001
713,5	-0,001
714	-0,001
714,4	-0,001
714,8	-0,001
715,3	-0
715,7	-0
716,2	-0
716,6	-0
717	-0
717,5	-0
717,9	-0,001
718,3	-0,001
718,8	-0,001
719,2	-0,002
719,7	-0,001
720,1	-0,001
720,5	-0,001
721	-0
721,4	-0
721,8	-0
722,3	-0
722,7	-0
723,2	-0,001
723,6	-0,001
724	-0,001
724,5	-0,001
724,9	-0
725,3	-0
725,8	-0
726,2	0
726,7	0
727,1	0
727,5	0
728	-0
728,4	-0
728,8	-0,001
729,3	-0,001
729,7	-0,001
730,1	-0,002
730,6	-0,002
731	-0,002
731,5	-0,002
731,9	-0,001
732,3	-0,002
732,8	-0,001
733,2	-0,001
733,6	-0,001
734,1	-0,001
734,5	-0,001
734,9	0
735,4	0,001
735,8	0,001
736,3	0,001
736,7	0
737,1	0,001
737,6	0,001
738	0
738,4	-0
738,9	-0
739,3	-0,001
739,7	-0,001
740,2	-0,001
740,6	-0,001
741,1	-0,001
741,5	-0,001
741,9	-0,001
742,4	-0
742,8	-0
743,2	-0
743,7	0
744,1	0
744,5	0
745	0
745,4	-0
745,8	0
746,3	0
746,7	-0
747,2	-0,001
747,6	-0,001
748	-0,001
748,5	-0
748,9	-0,001
749,3	-0,001
749,8	-0
750,2	-0
750,6	-0
751,1	-0
751,5	-0
751,9	0
752,4	0
752,8	0
753,3	0,001
753,7	0,001
754,1	0
754,6	0,001
755	0,001
755,4	0,001
755,9	0
756,3	0
756,7	0
757,2	0,001
757,6	0
758	0
758,5	0
758,9	0
759,3	0
759,8	0,001
760,2	0
760,6	0,001
761,1	0
761,5	0,001
761,9	0,001
762,4	0,001
762,8	0,001
763,3	0,001
763,7	0,001
764,1	0,002
764,6	0,002
765	0,001
765,4	0,001
765,9	0,002
766,3	0,002
766,7	0,002
767,2	0,002
767,6	0,002
768	0,003
768,5	0,002
768,9	0,002
769,3	0,002
769,8	0,002
770,2	0,002
770,6	0,001
771,1	0,001
771,5	0,001
771,9	0,001
772,4	0,001
772,8	0,001
773,2	0,001
773,7	0,001
774,1	0,001
774,5	0,001
775	0,001
775,4	0,001
775,8	0,001
776,3	0,001
776,7	0,001
777,1	0
777,6	0
778	0
778,4	-0
778,9	-0
779,3	0
779,7	0
780,2	0,001
780,6	0,001
781	0,001
781,5	0,001
781,9	0,001
782,3	0,001
782,8	0
783,2	0
783,6	0
784,1	0
784,5	0,001
784,9	0,001
785,4	0
785,8	0
786,2	-0
786,7	-0,001
787,1	-0,001
787,5	-0,001
788	-0,001
788,4	-0,001
788,8	-0,001
789,3	-0,001
789,7	-0
790,1	-0,001
790,6	-0,001
791	-0,001
791,4	-0,001
791,9	-0,001
792,3	-0,001
792,7	-0,001
793,2	-0,001
793,6	-0,001
794	-0,001
794,5	-0,001
794,9	-0,001
795,3	-0
795,8	0
796,2	0
796,6	0
797,1	0,001
797,5	0,001
797,9	0,001
798,4	0,001
798,8	0,001
799,2	0,001
799,7	0,001
800,1	0,001
800,5	0
801	-0
801,4	-0
801,8	-0
802,2	-0
802,7	-0
803,1	-0
803,5	-0
804	0
804,4	0,001
804,8	0
805,3	0
805,7	-0
806,1	-0
806,6	-0,001
807	-0,001
807,4	-0,001
807,9	-0
808,3	-0
808,7	-0
809,2	-0
809,6	-0
810	-0
810,4	-0
810,9	-0
811,3	-0
811,7	-0
812,2	0
812,6	0
813	-0
813,5	-0
813,9	-0,001
814,3	-0,001
814,8	-0,001
815,2	-0,001
815,6	-0,001
816,1	-0,001
816,5	-0,001
816,9	-0,001
817,3	-0,001
817,8	-0,001
818,2	-0,001
818,6	-0
819,1	-0
819,5	-0
819,9	-0
820,4	-0,001
820,8	-0,001
821,2	-0,001
821,7	-0,001
822,1	-0,001
822,5	-0,002
822,9	-0,002
823,4	-0,001
823,8	-0,001
824,2	-0,002
824,7	-0,001
825,1	-0,002
825,5	-0,001
826	-0,001
826,4	-0,001
826,8	-0
827,3	-0
827,7	-0
828,1	0
828,5	0
829	0
829,4	0
829,8	-0
830,3	0
830,7	0
831,1	-0
831,6	-0
832	-0
832,4	0
832,8	0
833,3	0
833,7	-0
834,1	-0
834,6	-0
835	-0
835,4	-0,001
835,8	-0,001
836,3	-0,001
836,7	-0,001
837,1	-0,001
837,6	-0,001
838	-0,001
838,4	-0,001
838,9	-0,001
839,3	-0,001
839,7	-0,001
840,1	-0
840,6	0
841	0
841,4	0
841,9	-0
842,3	-0
842,7	-0,001
843,1	-0,001
843,6	-0,001
844	-0,001
844,4	-0,001
844,9	-0
845,3	0
845,7	0
846,2	-0
846,6	0
847	-0
847,4	0
847,9	0
848,3	-0
848,7	0
849,2	0
849,6	0
850	0
850,4	0,001
850,9	0
851,3	0,001
851,7	0
852,2	0,001
852,6	0,001
853	0,001
853,4	0,001
853,9	0,001
854,3	0,001
854,7	0,002
855,2	0,001
855,6	0,001
856	0,001
856,4	0
856,9	0,001
857,3	0,001
857,7	0
858,2	0
858,6	0
859	-0
859,4	-0
859,9	-0,001
860,3	-0,001
860,7	-0,001
861,1	-0,001
861,6	-0,001
862	-0,001
862,4	-0,001
862,9	-0,001
863,3	-0,001
863,7	-0,001
864,1	-0,001
864,6	-0,001
865	-0,001
865,4	-0,001
865,9	-0,001
866,3	-0
866,7	-0
867,1	-0
867,6	-0
868	0
868,4	0
868,8	-0
869,3	-0
869,7	-0
870,1	0
870,6	0
871	0
871,4	0
871,8	0
872,3	-0
872,7	-0
873,1	-0,001
873,5	-0,001
874	-0,001
874,4	-0,001
874,8	-0,001
875,3	-0,001
875,7	-0,001
876,1	-0,001
876,5	-0,001
877	-0,001
877,4	-0,001
877,8	-0,001
878,2	-0,002
878,7	-0,001
879,1	-0,001
879,5	-0,001
879,9	-0,001
880,4	-0,001
880,8	-0,001
881,2	0
881,7	0
882,1	0
882,5	-0
882,9	-0
883,4	-0
883,8	-0
884,2	-0,001
884,6	-0,001
885,1	-0,001
885,5	-0,001
885,9	-0,001
886,3	-0
886,8	-0
887,2	-0
887,6	0
888	-0
888,5	0
888,9	-0
889,3	-0
889,8	-0,001
890,2	-0
890,6	-0
891	-0
891,5	-0
891,9	0
892,3	0
892,7	0,001
893,2	0
893,6	0,001
894	0,001
894,4	0,001
894,9	0,001
895,3	0,001
895,7	0,001
896,1	0,001
896,6	0,001
897	0,001
897,4	0
897,8	0
898,3	0
898,7	-0
899,1	-0
899,5	-0,001
900	-0,001
900,4	-0,001
900,8	-0,001
901,2	-0,001
901,7	-0,001
902,1	-0,001
902,5	-0,001
902,9	-0,001
903,4	-0,001
903,8	-0,001
904,2	-0
904,6	-0,001
905,1	-0,001
905,5	-0,001
905,9	-0,001
906,3	-0,001
906,8	-0,001
907,2	-0,002
907,6	-0,002
908	-0,002
908,5	-0,002
908,9	-0,003
909,3	-0,003
909,7	-0,002
910,2	-0,002
910,6	-0,002
911	-0,002
911,4	-0,002
911,9	-0,002
912,3	-0,001
912,7	-0,002
913,1	-0,001
913,6	-0,002
914	-0,001
914,4	-0,002
914,8	-0,002
915,3	-0,002
915,7	-0,002
916,1	-0,001
916,5	-0,001
916,9	-0,001
917,4	-0,001
917,8	-0
918,2	-0
918,6	0,001
919,1	0,001
919,5	0,001
919,9	0,002
920,3	0,002
920,8	0,002
921,2	0,002
921,6	0,001
922	0,001
922,5	0
922,9	0
923,3	-0
923,7	-0
924,2	-0
924,6	-0
925	-0,001
925,4	-0,001
925,8	-0,001
926,3	-0
926,7	-0
927,1	-0,001
927,5	-0
928	-0
928,4	-0
928,8	-0,001
929,2	-0
929,7	-0,001
930,1	-0
930,5	-0
930,9	0
931,3	0
931,8	0,001
932,2	0
932,6	0
933	-0
933,5	-0
933,9	-0,001
934,3	-0,001
934,7	-0
935,2	0
935,6	0
936	0
936,4	0
936,8	0,001
937,3	0
937,7	0
938,1	-0
938,5	-0
939	-0,001
939,4	-0,001
939,8	-0,001
940,2	-0,001
940,6	-0,002
941,1	-0,002
941,5	-0,002
941,9	-0,002
942,3	-0,001
942,8	-0,001
943,2	-0,001
943,6	-0,002
944	-0,001
944,4	-0,001
944,9	-0,001
945,3	-0,001
945,7	-0,001
946,1	-0,002
946,6	-0,001
947	-0,002
947,4	-0,002
947,8	-0,002
948,2	-0,002
948,7	-0,002
949,1	-0,002
949,5	-0,002
949,9	-0,002
950,3	-0,001
950,8	-0,001
951,2	-0,002
951,6	-0,001
952	-0,001
952,5	-0,001
952,9	-0,001
953,3	-0,001
953,7	-0,001
954,1	-0,001
954,6	-0,001
955	-0,001
955,4	-0,001
955,8	-0
956,2	-0
956,7	0
957,1	0
957,5	0,001
957,9	0,001
958,3	0,001
958,8	0,001
959,2	0
959,6	-0
960	-0,001
960,5	-0,001
960,9	-0,001
961,3	-0,002
961,7	-0,001
962,1	-0,001
962,6	-0,001
963	-0,001
963,4	-0,001
963,8	-0,001
964,2	-0,002
964,7	-0,002
965,1	-0,002
965,5	-0,002
965,9	-0,002
966,3	-0
966,8	0
967,2	0,001
967,6	0,001
968	0,002
968,4	0,002
968,9	0,002
969,3	0
969,7	0
970,1	0
970,5	-0
971	0
971,4	-0
971,8	-0,001
972,2	-0,001
972,6	-0,001
973,1	-0,002
973,5	-0,002
973,9	-0,001
974,3	-0,001
974,7	-0,001
975,2	-0
975,6	-0
976	0
976,4	0
976,8	-0
977,3	-0,001
977,7	-0,001
978,1	-0
978,5	-0
978,9	0
979,4	0,001
979,8	0,001
980,2	0,001
980,6	0,001
981	0,001
981,5	0,001
981,9	0,001
982,3	0
982,7	0
983,1	0
983,6	0,001
984	0
984,4	-0
984,8	-0
985,2	0,001
985,6	0
986,1	-0
986,5	-0
986,9	-0
987,3	-0
987,7	-0
988,2	-0,001
988,6	-0,001
989	-0,001
989,4	-0,001
989,8	-0,001
990,3	-0,001
990,7	-0,001
991,1	-0,001
991,5	-0,001
991,9	-0,001
992,3	-0,001
992,8	-0,001
993,2	-0,001
993,6	-0,001
994	-0,001
994,4	-0,001
994,9	-0,001
995,3	-0
995,7	-0
996,1	-0
996,5	-0
996,9	-0,001
997,4	-0
997,8	-0
998,2	-0
998,6	-0
999	0,001
999,5	0
999,9	0,001
1000,3	0,001
1000,7	0,002
1001,1	0,001
1001,5	0,002
1002	0
1002,4	0,001
1002,8	-0
1003,2	-0,001
1003,6	-0,001
1004	-0,002
1004,5	-0,002
1004,9	-0,001
1005,3	-0,001
1005,7	-0,001
1006,1	-0,001
1006,6	-0,001
1007	-0
1007,4	-0
1007,8	-0
1008,2	-0
1008,6	-0
1009,1	-0,001
1009,5	-0,001
1009,9	-0,002
1010,3	-0,002
1010,7	-0,001
1011,1	-0,002
1011,6	-0,002
1012	-0,001
1012,4	-0,001
1012,8	-0,001
1013,2	-0,001
1013,6	-0,001
1014,1	-0,001
1014,5	-0,001
1014,9	-0,001
1015,3	-0
1015,7	-0
1016,1	-0
1016,6	-0
1017	-0
1017,4	-0
1017,8	-0,001
1018,2	-0,001
1018,6	-0
1019,1	-0,001
1019,5	-0,001
1019,9	-0,001
1020,3	-0
1020,7	0
1021,1	0
1021,6	0,001
1022	0,001
1022,4	0,001
1022,8	0,001
1023,2	0
1023,6	0
1024,1	0
1024,5	0
1024,9	0,001
1025,3	0,002
1025,7	0,003
1026,1	0,003
1026,6	0,003
1027	0,004
1027,4	0,003
1027,8	0,002
1028,2	0,003
1028,6	0,002
1029	0,002
1029,5	0,002
1029,9	0,002
1030,3	0,002
1030,7	0,002
1031,1	0,002
1031,5	0,002
1032	0,002
1032,4	0,001
1032,8	0,001
1033,2	0,001
1033,6	0,001
1034	0,001
1034,4	-0
1034,9	-0,001
1035,3	-0,001
1035,7	-0
1036,1	0
1036,5	-0
1036,9	-0,001
1037,4	-0,001
1037,8	-0
1038,2	-0
1038,6	-0,001
1039	-0,001
1039,4	-0,001
1039,8	-0,001
1040,3	-0
1040,7	-0,001
1041,1	-0,001
1041,5	-0,001
1041,9	-0,001
1042,3	-0,001
1042,7	-0,001
1043,2	-0,002
1043,6	-0,002
1044	-0,002
1044,4	-0,002
1044,8	-0,002
1045,2	-0,002
1045,6	-0,001
1046,1	-0
1046,5	-0
1046,9	0,001
1047,3	0
1047,7	0,001
1048,1	0
1048,5	-0,001
1049	-0,001
1049,4	-0,001
1049,8	-0,001
1050,2	-0,001
1050,6	-0,001
1051	-0,001
1051,4	-0,001
1051,9	-0,001
1052,3	-0,001
1052,7	-0,002
1053,1	-0,001
1053,5	-0,001
1053,9	-0
1054,3	-0
1054,8	-0
1055,2	-0,001
1055,6	-0
1056	-0,001
1056,4	-0,001
1056,8	-0,002
1057,2	-0,001
1057,6	-0,002
1058,1	-0,001
1058,5	-0,002
1058,9	-0,001
1059,3	-0,001
1059,7	-0
1060,1	-0
1060,5	-0,001
1061	-0,001
1061,4	-0,001
1061,8	-0,001
1062,2	-0,001
1062,6	-0,001
1063	-0,002
1063,4	-0,002
1063,8	-0,002
1064,3	-0,002
1064,7	-0,001
1065,1	-0,001
1065,5	-0,002
1065,9	-0,001
1066,3	-0,001
1066,7	-0
1067,1	-0,001
1067,6	-0,002
1068	-0,002
1068,4	-0,001
1068,8	-0,001
1069,2	-0
1069,6	-0,001
1070	-0,001
1070,4	-0,001
1070,9	-0,001
1071,3	-0,001
1071,7	-0,002
1072,1	-0,002
1072,5	-0,001
1072,9	-0,002
1073,3	-0,001
1073,7	-0,001
1074,2	-0,001
1074,6	0
1075	0
1075,4	0
1075,8	0,002
1076,2	0,002
1076,6	0,002
1077	0,003
1077,5	0,001
1077,9	0,001
1078,3	-0
1078,7	-0
1079,1	-0,002
1079,5	-0,004
1079,9	-0,004
1080,3	-0,004
1080,7	-0,003
1081,2	-0,003
1081,6	-0,003
1082	-0,003
1082,4	-0,002
1082,8	-0,002
1083,2	-0,001
1083,6	-0,001
1084	-0
1084,5	-0,001
1084,9	-0
1085,3	0
1085,7	0,001
1086,1	0,001
1086,5	0,001
1086,9	0,001
1087,3	0,005
1087,7	0,006
1088,2	0,003
1088,6	0,002
1089	0,002
1089,4	0,002
1089,8	0,002
1090,2	-0,002
1090,6	-0,004
1091	0
1091,4	0,002
1091,9	0,001
1092,3	0
1092,7	0,004
1093,1	0,003
1093,5	0,002
1093,9	0,002
1094,3	-0,001
1094,7	0,001
1095,1	0,001
1095,5	-0,005
1096	-0,001
1096,4	-0,004
1096,8	-0,003
1097,2	-0,004
1097,6	-0,005
1098	-0,004
1098,4	0
1098,8	0,001
1099,2	0,002
1099,6	0
1100,1	0,001
1100,5	-0,001
1100,9	-0,002
1101,3	-0,001
1101,7	0,001
1102,1	0,002
1102,5	-0,005
1102,9	0,002
1103,3	-0,002
1103,7	-0,003
1104,2	-0,007
1104,6	-0,013
1105	-0,011
1105,4	-0
1105,8	-0,003
1106,2	0,003
1106,6	0,008
1107	0,003
1107,4	0,002
1107,8	0,002
1108,3	-0
