Data from Absorbance_00013.txt Node
Date: Fri Jul 14 16:52:04 MSK 2023
User: vat
Spectrometer: MAYP114033
Trigger mode: 0
Integration Time (sec): 8,000000E-3
Scans to average: 20
Electric dark correction enabled: true
Nonlinearity correction enabled: false
Boxcar width: 3
XAxis mode: Wavelengths
Number of Pixels in Spectrum: 2068
>>>>>Begin Spectral Data<<<<<
199,4	-0
199,9	-0
200,4	-0
200,8	-0,783
201,3	-0,322
201,8	-0,318
202,2	-0,27
202,7	-0,257
203,2	-0,225
203,6	-0,192
204,1	-0,186
204,6	-0,178
205	-0,165
205,5	-0,171
206	-0,183
206,4	-0,179
206,9	-0,203
207,4	-0,218
207,8	-0,217
208,3	-0,216
208,8	-0,225
209,2	-0,227
209,7	-0,242
210,2	-0,235
210,6	-0,246
211,1	-0,258
211,5	-0,274
212	-0,275
212,5	-0,274
212,9	-0,275
213,4	-0,279
213,9	-0,251
214,3	-0,256
214,8	-0,245
215,3	-0,264
215,7	-0,257
216,2	-0,243
216,7	-0,231
217,1	-0,25
217,6	-0,257
218,1	-0,283
218,5	-0,247
219	-0,235
219,5	-0,253
219,9	-0,272
220,4	-0,24
220,9	-0,241
221,3	-0,223
221,8	-0,234
222,3	-0,227
222,7	-0,206
223,2	-0,192
223,6	-0,209
224,1	-0,198
224,6	-0,216
225	-0,196
225,5	-0,181
226	-0,178
226,4	-0,175
226,9	-0,184
227,4	-0,202
227,8	-0,206
228,3	-0,215
228,8	-0,251
229,2	-0,293
229,7	-0,311
230,2	-0,29
230,6	-0,275
231,1	-0,231
231,5	-0,229
232	-0,208
232,5	-0,198
232,9	-0,189
233,4	-0,21
233,9	-0,216
234,3	-0,23
234,8	-0,228
235,3	-0,218
235,7	-0,195
236,2	-0,21
236,7	-0,192
237,1	-0,188
237,6	-0,195
238,1	-0,189
238,5	-0,191
239	-0,183
239,4	-0,168
239,9	-0,16
240,4	-0,138
240,8	-0,138
241,3	-0,134
241,8	-0,151
242,2	-0,143
242,7	-0,133
243,2	-0,118
243,6	-0,117
244,1	-0,084
244,6	-0,069
245	-0,047
245,5	-0,037
245,9	-0,017
246,4	-0,001
246,9	0,011
247,3	0,03
247,8	0,048
248,3	0,074
248,7	0,097
249,2	0,114
249,7	0,125
250,1	0,151
250,6	0,188
251	0,23
251,5	0,26
252	0,317
252,4	0,375
252,9	0,456
253,4	0,532
253,8	0,594
254,3	0,666
254,8	0,748
255,2	0,816
255,7	0,89
256,1	0,954
256,6	1,026
257,1	1,079
257,5	1,138
258	1,161
258,5	1,213
258,9	1,257
259,4	1,286
259,9	1,293
260,3	1,332
260,8	1,35
261,2	1,394
261,7	1,401
262,2	1,428
262,6	1,458
263,1	1,495
263,6	1,51
264	1,534
264,5	1,549
264,9	1,574
265,4	1,596
265,9	1,611
266,3	1,633
266,8	1,65
267,3	1,661
267,7	1,669
268,2	1,683
268,7	1,699
269,1	1,718
269,6	1,709
270	1,72
270,5	1,727
271	1,749
271,4	1,769
271,9	1,767
272,4	1,76
272,8	1,767
273,3	1,769
273,7	1,779
274,2	1,79
274,7	1,797
275,1	1,8
275,6	1,803
276,1	1,817
276,5	1,821
277	1,818
277,4	1,808
277,9	1,796
278,4	1,789
278,8	1,779
279,3	1,768
279,8	1,741
280,2	1,721
280,7	1,687
281,1	1,645
281,6	1,596
282,1	1,547
282,5	1,491
283	1,438
283,4	1,379
283,9	1,321
284,4	1,264
284,8	1,209
285,3	1,157
285,8	1,111
286,2	1,068
286,7	1,026
287,1	0,992
287,6	0,96
288,1	0,933
288,5	0,91
289	0,889
289,5	0,871
289,9	0,856
290,4	0,843
290,8	0,833
291,3	0,824
291,8	0,814
292,2	0,807
292,7	0,799
293,1	0,794
293,6	0,79
294,1	0,784
294,5	0,781
295	0,778
295,5	0,774
295,9	0,771
296,4	0,769
296,8	0,766
297,3	0,763
297,8	0,76
298,2	0,758
298,7	0,756
299,1	0,754
299,6	0,751
300,1	0,748
300,5	0,745
301	0,742
301,5	0,739
301,9	0,736
302,4	0,731
302,8	0,728
303,3	0,724
303,8	0,72
304,2	0,717
304,7	0,712
305,1	0,709
305,6	0,705
306,1	0,7
306,5	0,696
307	0,692
307,4	0,688
307,9	0,683
308,4	0,679
308,8	0,674
309,3	0,67
309,8	0,666
310,2	0,661
310,7	0,657
311,1	0,651
311,6	0,645
312,1	0,641
312,5	0,635
313	0,63
313,4	0,624
313,9	0,619
314,4	0,613
314,8	0,608
315,3	0,602
315,7	0,596
316,2	0,59
316,7	0,584
317,1	0,577
317,6	0,572
318	0,566
318,5	0,559
319	0,554
319,4	0,548
319,9	0,543
320,3	0,537
320,8	0,53
321,3	0,524
321,7	0,519
322,2	0,513
322,6	0,506
323,1	0,5
323,6	0,494
324	0,488
324,5	0,482
324,9	0,476
325,4	0,471
325,9	0,466
326,3	0,46
326,8	0,454
327,2	0,449
327,7	0,443
328,2	0,437
328,6	0,43
329,1	0,424
329,5	0,418
330	0,412
330,5	0,406
330,9	0,401
331,4	0,395
331,8	0,389
332,3	0,384
332,8	0,379
333,2	0,373
333,7	0,367
334,1	0,362
334,6	0,357
335,1	0,352
335,5	0,347
336	0,341
336,4	0,336
336,9	0,331
337,4	0,326
337,8	0,321
338,3	0,316
338,7	0,311
339,2	0,306
339,7	0,301
340,1	0,296
340,6	0,291
341	0,287
341,5	0,282
342	0,277
342,4	0,273
342,9	0,269
343,3	0,265
343,8	0,261
344,2	0,256
344,7	0,253
345,2	0,248
345,6	0,244
346,1	0,24
346,5	0,236
347	0,232
347,5	0,228
347,9	0,224
348,4	0,22
348,8	0,217
349,3	0,213
349,8	0,21
350,2	0,206
350,7	0,203
351,1	0,199
351,6	0,196
352	0,192
352,5	0,19
353	0,187
353,4	0,184
353,9	0,18
354,3	0,177
354,8	0,174
355,3	0,172
355,7	0,168
356,2	0,165
356,6	0,162
357,1	0,16
357,5	0,158
358	0,155
358,5	0,152
358,9	0,15
359,4	0,147
359,8	0,145
360,3	0,142
360,8	0,139
361,2	0,137
361,7	0,135
362,1	0,133
362,6	0,131
363	0,129
363,5	0,127
364	0,125
364,4	0,124
364,9	0,122
365,3	0,12
365,8	0,118
366,3	0,116
366,7	0,114
367,2	0,112
367,6	0,11
368,1	0,109
368,5	0,108
369	0,106
369,5	0,105
369,9	0,104
370,4	0,102
370,8	0,1
371,3	0,099
371,7	0,097
372,2	0,096
372,7	0,094
373,1	0,092
373,6	0,091
374	0,09
374,5	0,089
374,9	0,087
375,4	0,086
375,9	0,085
376,3	0,084
376,8	0,082
377,2	0,081
377,7	0,08
378,2	0,079
378,6	0,078
379,1	0,077
379,5	0,076
380	0,075
380,4	0,074
380,9	0,073
381,4	0,072
381,8	0,071
382,3	0,07
382,7	0,069
383,2	0,068
383,6	0,067
384,1	0,066
384,6	0,065
385	0,065
385,5	0,064
385,9	0,063
386,4	0,063
386,8	0,062
387,3	0,061
387,7	0,06
388,2	0,059
388,7	0,059
389,1	0,058
389,6	0,057
390	0,056
390,5	0,055
390,9	0,054
391,4	0,053
391,9	0,053
392,3	0,051
392,8	0,051
393,2	0,05
393,7	0,05
394,1	0,049
394,6	0,048
395,1	0,047
395,5	0,047
396	0,046
396,4	0,045
396,9	0,044
397,3	0,043
397,8	0,043
398,2	0,043
398,7	0,042
399,2	0,042
399,6	0,042
400,1	0,042
400,5	0,042
401	0,041
401,4	0,04
401,9	0,04
402,4	0,039
402,8	0,038
403,3	0,037
403,7	0,037
404,2	0,037
404,6	0,037
405,1	0,037
405,5	0,036
406	0,036
406,5	0,036
406,9	0,035
407,4	0,035
407,8	0,034
408,3	0,034
408,7	0,033
409,2	0,033
409,6	0,033
410,1	0,032
410,6	0,032
411	0,031
411,5	0,031
411,9	0,031
412,4	0,03
412,8	0,03
413,3	0,029
413,7	0,029
414,2	0,029
414,7	0,029
415,1	0,028
415,6	0,028
416	0,028
416,5	0,028
416,9	0,027
417,4	0,027
417,8	0,027
418,3	0,027
418,8	0,026
419,2	0,026
419,7	0,025
420,1	0,025
420,6	0,025
421	0,023
421,5	0,023
421,9	0,023
422,4	0,022
422,8	0,021
423,3	0,021
423,8	0,021
424,2	0,021
424,7	0,021
425,1	0,02
425,6	0,021
426	0,02
426,5	0,02
426,9	0,02
427,4	0,019
427,9	0,019
428,3	0,019
428,8	0,019
429,2	0,019
429,7	0,019
430,1	0,018
430,6	0,018
431	0,018
431,5	0,017
431,9	0,017
432,4	0,016
432,8	0,015
433,3	0,015
433,8	0,014
434,2	0,015
434,7	0,015
435,1	0,014
435,6	0,014
436	0,015
436,5	0,015
436,9	0,015
437,4	0,014
437,8	0,014
438,3	0,014
438,8	0,014
439,2	0,014
439,7	0,014
440,1	0,014
440,6	0,014
441	0,013
441,5	0,013
441,9	0,013
442,4	0,012
442,8	0,011
443,3	0,012
443,7	0,011
444,2	0,012
444,7	0,011
445,1	0,011
445,6	0,011
446	0,011
446,5	0,011
446,9	0,011
447,4	0,011
447,8	0,011
448,3	0,011
448,7	0,011
449,2	0,011
449,6	0,011
450,1	0,011
450,6	0,01
451	0,011
451,5	0,011
451,9	0,01
452,4	0,01
452,8	0,01
453,3	0,01
453,7	0,01
454,2	0,01
454,6	0,01
455,1	0,009
455,5	0,009
456	0,009
456,4	0,009
456,9	0,009
457,3	0,008
457,8	0,008
458,3	0,008
458,7	0,008
459,2	0,008
459,6	0,008
460,1	0,008
460,5	0,009
461	0,008
461,4	0,008
461,9	0,008
462,3	0,007
462,8	0,007
463,2	0,007
463,7	0,007
464,1	0,007
464,6	0,007
465	0,008
465,5	0,008
466	0,008
466,4	0,008
466,9	0,008
467,3	0,007
467,8	0,007
468,2	0,007
468,7	0,007
469,1	0,007
469,6	0,007
470	0,007
470,5	0,007
470,9	0,008
471,4	0,007
471,8	0,007
472,3	0,006
472,7	0,006
473,2	0,006
473,6	0,007
474,1	0,006
474,5	0,006
475	0,005
475,4	0,005
475,9	0,005
476,4	0,005
476,8	0,005
477,3	0,005
477,7	0,005
478,2	0,006
478,6	0,006
479,1	0,006
479,5	0,006
480	0,006
480,4	0,007
480,9	0,007
481,3	0,006
481,8	0,006
482,2	0,006
482,7	0,006
483,1	0,006
483,6	0,006
484	0,005
484,5	0,004
484,9	0,003
485,4	0,002
485,8	0,002
486,3	0,005
486,7	0,006
487,2	0,006
487,6	0,006
488,1	0,007
488,5	0,008
489	0,009
489,4	0,006
489,9	0,005
490,4	0,006
490,8	0,006
491,3	0,007
491,7	0,007
492,2	0,007
492,6	0,006
493,1	0,006
493,5	0,006
494	0,006
494,4	0,005
494,9	0,005
495,3	0,005
495,8	0,005
496,2	0,004
496,7	0,004
497,1	0,004
497,6	0,004
498	0,004
498,5	0,004
498,9	0,005
499,4	0,005
499,8	0,005
500,3	0,005
500,7	0,005
501,2	0,006
501,6	0,005
502,1	0,005
502,5	0,005
503	0,004
503,4	0,004
503,9	0,004
504,3	0,005
504,8	0,005
505,2	0,004
505,7	0,005
506,1	0,005
506,6	0,005
507	0,005
507,5	0,005
507,9	0,005
508,4	0,005
508,8	0,005
509,3	0,005
509,7	0,005
510,2	0,005
510,6	0,005
511,1	0,005
511,5	0,004
512	0,005
512,4	0,005
512,9	0,005
513,3	0,005
513,8	0,004
514,2	0,004
514,7	0,005
515,1	0,004
515,6	0,004
516	0,004
516,5	0,004
516,9	0,004
517,4	0,005
517,8	0,005
518,3	0,004
518,7	0,004
519,2	0,003
519,6	0,004
520,1	0,004
520,5	0,004
521	0,004
521,4	0,004
521,9	0,005
522,3	0,005
522,8	0,006
523,2	0,006
523,7	0,005
524,1	0,006
524,6	0,005
525	0,004
525,5	0,004
525,9	0,003
526,4	0,002
526,8	0,002
527,3	0,002
527,7	0,002
528,2	0,002
528,6	0,003
529,1	0,003
529,5	0,003
530	0,003
530,4	0,003
530,9	0,004
531,3	0,003
531,8	0,003
532,2	0,003
532,6	0,003
533,1	0,002
533,5	0,002
534	0,003
534,4	0,003
534,9	0,003
535,3	0,004
535,8	0,004
536,2	0,004
536,7	0,004
537,1	0,004
537,6	0,004
538	0,004
538,5	0,004
538,9	0,005
539,4	0,004
539,8	0,005
540,3	0,005
540,7	0,004
541,2	0,004
541,6	0,004
542,1	0,003
542,5	0,003
543	0,004
543,4	0,004
543,9	0,004
544,3	0,004
544,8	0,005
545,2	0,005
545,7	0,005
546,1	0,005
546,5	0,005
547	0,005
547,4	0,005
547,9	0,005
548,3	0,005
548,8	0,006
549,2	0,006
549,7	0,005
550,1	0,006
550,6	0,005
551	0,005
551,5	0,005
551,9	0,005
552,4	0,005
552,8	0,005
553,3	0,004
553,7	0,005
554,2	0,005
554,6	0,005
555,1	0,005
555,5	0,005
555,9	0,005
556,4	0,005
556,8	0,005
557,3	0,005
557,7	0,005
558,2	0,004
558,6	0,004
559,1	0,004
559,5	0,004
560	0,005
560,4	0,005
560,9	0,005
561,3	0,006
561,8	0,005
562,2	0,005
562,7	0,005
563,1	0,005
563,6	0,005
564	0,004
564,4	0,004
564,9	0,004
565,3	0,003
565,8	0,004
566,2	0,004
566,7	0,003
567,1	0,003
567,6	0,003
568	0,003
568,5	0,004
568,9	0,004
569,4	0,004
569,8	0,004
570,3	0,005
570,7	0,005
571,1	0,005
571,6	0,005
572	0,005
572,5	0,005
572,9	0,005
573,4	0,005
573,8	0,005
574,3	0,005
574,7	0,005
575,2	0,004
575,6	0,004
576,1	0,005
576,5	0,005
576,9	0,005
577,4	0,005
577,8	0,005
578,3	0,006
578,7	0,006
579,2	0,006
579,6	0,006
580,1	0,006
580,5	0,006
581	0,005
581,4	0,005
581,9	0,005
582,3	0,005
582,7	0,006
583,2	0,005
583,6	0,006
584,1	0,006
584,5	0,006
585	0,006
585,4	0,006
585,9	0,006
586,3	0,006
586,8	0,006
587,2	0,006
587,6	0,006
588,1	0,006
588,5	0,006
589	0,006
589,4	0,006
589,9	0,006
590,3	0,007
590,8	0,007
591,2	0,007
591,7	0,006
592,1	0,006
592,5	0,005
593	0,005
593,4	0,005
593,9	0,005
594,3	0,005
594,8	0,005
595,2	0,005
595,7	0,005
596,1	0,005
596,6	0,005
597	0,005
597,4	0,006
597,9	0,006
598,3	0,006
598,8	0,006
599,2	0,006
599,7	0,006
600,1	0,005
600,6	0,005
601	0,005
601,4	0,006
601,9	0,005
602,3	0,005
602,8	0,005
603,2	0,005
603,7	0,005
604,1	0,005
604,6	0,005
605	0,005
605,4	0,006
605,9	0,006
606,3	0,006
606,8	0,006
607,2	0,006
607,7	0,006
608,1	0,006
608,6	0,006
609	0,006
609,4	0,006
609,9	0,005
610,3	0,005
610,8	0,005
611,2	0,005
611,7	0,005
612,1	0,005
612,6	0,005
613	0,005
613,4	0,005
613,9	0,006
614,3	0,006
614,8	0,006
615,2	0,006
615,7	0,006
616,1	0,006
616,6	0,006
617	0,006
617,4	0,006
617,9	0,006
618,3	0,006
618,8	0,005
619,2	0,005
619,7	0,005
620,1	0,005
620,5	0,005
621	0,005
621,4	0,004
621,9	0,004
622,3	0,005
622,8	0,005
623,2	0,005
623,6	0,005
624,1	0,005
624,5	0,005
625	0,006
625,4	0,006
625,9	0,006
626,3	0,006
626,8	0,006
627,2	0,006
627,6	0,006
628,1	0,005
628,5	0,005
629	0,005
629,4	0,005
629,9	0,005
630,3	0,005
630,7	0,006
631,2	0,006
631,6	0,006
632,1	0,006
632,5	0,005
633	0,005
633,4	0,005
633,8	0,005
634,3	0,005
634,7	0,005
635,2	0,004
635,6	0,004
636,1	0,004
636,5	0,004
636,9	0,004
637,4	0,004
637,8	0,005
638,3	0,005
638,7	0,005
639,2	0,005
639,6	0,005
640	0,005
640,5	0,005
640,9	0,005
641,4	0,005
641,8	0,005
642,2	0,005
642,7	0,005
643,1	0,005
643,6	0,005
644	0,005
644,5	0,005
644,9	0,004
645,3	0,005
645,8	0,004
646,2	0,004
646,7	0,004
647,1	0,004
647,6	0,004
648	0,004
648,4	0,003
648,9	0,003
649,3	0,003
649,8	0,004
650,2	0,004
650,6	0,004
651,1	0,004
651,5	0,004
652	0,004
652,4	0,004
652,9	0,004
653,3	0,003
653,7	0,003
654,2	0,003
654,6	0,002
655,1	-0,004
655,5	-0,01
655,9	-0,003
656,4	-0,002
656,8	-0,002
657,3	0,001
657,7	0,002
658,2	0,003
658,6	0,007
659	0,007
659,5	0,011
659,9	0,02
660,4	0,015
660,8	0,012
661,2	0,01
661,7	0,008
662,1	0,007
662,6	0,006
663	0,005
663,4	0,005
663,9	0,005
664,3	0,005
664,8	0,005
665,2	0,004
665,6	0,004
666,1	0,004
666,5	0,004
667	0,004
667,4	0,004
667,9	0,004
668,3	0,004
668,7	0,004
669,2	0,005
669,6	0,004
670,1	0,004
670,5	0,004
670,9	0,005
671,4	0,005
671,8	0,005
672,3	0,004
672,7	0,005
673,1	0,005
673,6	0,004
674	0,004
674,5	0,004
674,9	0,004
675,3	0,004
675,8	0,004
676,2	0,004
676,7	0,004
677,1	0,004
677,5	0,004
678	0,005
678,4	0,004
678,9	0,004
679,3	0,004
679,7	0,005
680,2	0,004
680,6	0,004
681,1	0,005
681,5	0,005
681,9	0,005
682,4	0,005
682,8	0,005
683,3	0,005
683,7	0,005
684,1	0,005
684,6	0,005
685	0,005
685,5	0,005
685,9	0,005
686,3	0,005
686,8	0,005
687,2	0,005
687,7	0,005
688,1	0,004
688,5	0,004
689	0,005
689,4	0,005
689,9	0,005
690,3	0,005
690,7	0,005
691,2	0,005
691,6	0,005
692	0,005
692,5	0,005
692,9	0,005
693,4	0,005
693,8	0,005
694,2	0,005
694,7	0,005
695,1	0,005
695,6	0,005
696	0,005
696,4	0,005
696,9	0,005
697,3	0,005
697,8	0,005
698,2	0,005
698,6	0,005
699,1	0,004
699,5	0,004
699,9	0,004
700,4	0,004
700,8	0,004
701,3	0,004
701,7	0,004
702,1	0,004
702,6	0,004
703	0,004
703,5	0,004
703,9	0,004
704,3	0,004
704,8	0,004
705,2	0,005
705,6	0,005
706,1	0,005
706,5	0,005
707	0,005
707,4	0,005
707,8	0,004
708,3	0,005
708,7	0,005
709,2	0,004
709,6	0,005
710	0,005
710,5	0,005
710,9	0,005
711,3	0,005
711,8	0,005
712,2	0,005
712,7	0,005
713,1	0,005
713,5	0,004
714	0,004
714,4	0,004
714,8	0,003
715,3	0,003
715,7	0,003
716,2	0,004
716,6	0,004
717	0,004
717,5	0,004
717,9	0,004
718,3	0,004
718,8	0,004
719,2	0,004
719,7	0,004
720,1	0,004
720,5	0,004
721	0,004
721,4	0,004
721,8	0,004
722,3	0,004
722,7	0,004
723,2	0,004
723,6	0,005
724	0,004
724,5	0,005
724,9	0,005
725,3	0,005
725,8	0,005
726,2	0,005
726,7	0,005
727,1	0,005
727,5	0,005
728	0,005
728,4	0,004
728,8	0,005
729,3	0,005
729,7	0,004
730,1	0,005
730,6	0,005
731	0,005
731,5	0,005
731,9	0,005
732,3	0,005
732,8	0,005
733,2	0,005
733,6	0,005
734,1	0,005
734,5	0,006
734,9	0,005
735,4	0,005
735,8	0,005
736,3	0,005
736,7	0,005
737,1	0,004
737,6	0,004
738	0,004
738,4	0,004
738,9	0,005
739,3	0,004
739,7	0,005
740,2	0,005
740,6	0,005
741,1	0,005
741,5	0,005
741,9	0,005
742,4	0,006
742,8	0,005
743,2	0,005
743,7	0,005
744,1	0,005
744,5	0,005
745	0,005
745,4	0,005
745,8	0,005
746,3	0,005
746,7	0,005
747,2	0,005
747,6	0,004
748	0,004
748,5	0,004
748,9	0,004
749,3	0,004
749,8	0,004
750,2	0,004
750,6	0,004
751,1	0,005
751,5	0,005
751,9	0,005
752,4	0,005
752,8	0,005
753,3	0,005
753,7	0,005
754,1	0,005
754,6	0,005
755	0,005
755,4	0,005
755,9	0,005
756,3	0,005
756,7	0,005
757,2	0,005
757,6	0,005
758	0,005
758,5	0,005
758,9	0,005
759,3	0,006
759,8	0,006
760,2	0,006
760,6	0,006
761,1	0,005
761,5	0,005
761,9	0,005
762,4	0,005
762,8	0,005
763,3	0,005
763,7	0,005
764,1	0,005
764,6	0,004
765	0,004
765,4	0,004
765,9	0,004
766,3	0,004
766,7	0,004
767,2	0,005
767,6	0,005
768	0,005
768,5	0,004
768,9	0,004
769,3	0,004
769,8	0,004
770,2	0,004
770,6	0,005
771,1	0,005
771,5	0,005
771,9	0,005
772,4	0,005
772,8	0,005
773,2	0,005
773,7	0,005
774,1	0,005
774,5	0,005
775	0,005
775,4	0,006
775,8	0,006
776,3	0,006
776,7	0,006
777,1	0,005
777,6	0,005
778	0,005
778,4	0,005
778,9	0,005
779,3	0,004
779,7	0,004
780,2	0,004
780,6	0,004
781	0,004
781,5	0,004
781,9	0,005
782,3	0,005
782,8	0,005
783,2	0,005
783,6	0,005
784,1	0,004
784,5	0,004
784,9	0,005
785,4	0,005
785,8	0,005
786,2	0,005
786,7	0,005
787,1	0,005
787,5	0,006
788	0,005
788,4	0,005
788,8	0,005
789,3	0,005
789,7	0,005
790,1	0,005
790,6	0,005
791	0,005
791,4	0,005
791,9	0,005
792,3	0,005
792,7	0,005
793,2	0,005
793,6	0,005
794	0,005
794,5	0,005
794,9	0,005
795,3	0,006
795,8	0,006
796,2	0,006
796,6	0,006
797,1	0,006
797,5	0,007
797,9	0,006
798,4	0,006
798,8	0,006
799,2	0,005
799,7	0,005
800,1	0,005
800,5	0,005
801	0,005
801,4	0,005
801,8	0,006
802,2	0,006
802,7	0,006
803,1	0,006
803,5	0,006
804	0,006
804,4	0,006
804,8	0,005
805,3	0,005
805,7	0,005
806,1	0,005
806,6	0,005
807	0,005
807,4	0,005
807,9	0,005
808,3	0,005
808,7	0,004
809,2	0,004
809,6	0,005
810	0,005
810,4	0,005
810,9	0,005
811,3	0,005
811,7	0,005
812,2	0,005
812,6	0,005
813	0,005
813,5	0,004
813,9	0,004
814,3	0,004
814,8	0,004
815,2	0,004
815,6	0,004
816,1	0,004
816,5	0,004
816,9	0,004
817,3	0,004
817,8	0,004
818,2	0,004
818,6	0,004
819,1	0,004
819,5	0,004
819,9	0,004
820,4	0,004
820,8	0,004
821,2	0,004
821,7	0,004
822,1	0,004
822,5	0,004
822,9	0,004
823,4	0,004
823,8	0,004
824,2	0,004
824,7	0,004
825,1	0,004
825,5	0,004
826	0,004
826,4	0,004
826,8	0,004
827,3	0,004
827,7	0,004
828,1	0,004
828,5	0,004
829	0,004
829,4	0,004
829,8	0,004
830,3	0,004
830,7	0,004
831,1	0,004
831,6	0,004
832	0,004
832,4	0,004
832,8	0,004
833,3	0,004
833,7	0,004
834,1	0,004
834,6	0,004
835	0,004
835,4	0,004
835,8	0,005
836,3	0,005
836,7	0,005
837,1	0,005
837,6	0,005
838	0,005
838,4	0,005
838,9	0,005
839,3	0,005
839,7	0,005
840,1	0,005
840,6	0,005
841	0,005
841,4	0,004
841,9	0,004
842,3	0,004
842,7	0,004
843,1	0,004
843,6	0,004
844	0,004
844,4	0,005
844,9	0,005
845,3	0,005
845,7	0,005
846,2	0,005
846,6	0,005
847	0,005
847,4	0,005
847,9	0,005
848,3	0,005
848,7	0,005
849,2	0,005
849,6	0,005
850	0,005
850,4	0,005
850,9	0,004
851,3	0,004
851,7	0,004
852,2	0,005
852,6	0,005
853	0,004
853,4	0,004
853,9	0,004
854,3	0,005
854,7	0,004
855,2	0,004
855,6	0,004
856	0,005
856,4	0,005
856,9	0,005
857,3	0,004
857,7	0,005
858,2	0,005
858,6	0,005
859	0,005
859,4	0,005
859,9	0,005
860,3	0,005
860,7	0,005
861,1	0,005
861,6	0,005
862	0,005
862,4	0,004
862,9	0,004
863,3	0,004
863,7	0,004
864,1	0,004
864,6	0,004
865	0,003
865,4	0,004
865,9	0,003
866,3	0,003
866,7	0,003
867,1	0,003
867,6	0,003
868	0,003
868,4	0,003
868,8	0,004
869,3	0,004
869,7	0,004
870,1	0,004
870,6	0,004
871	0,004
871,4	0,004
871,8	0,004
872,3	0,004
872,7	0,004
873,1	0,004
873,5	0,004
874	0,004
874,4	0,004
874,8	0,004
875,3	0,004
875,7	0,003
876,1	0,003
876,5	0,003
877	0,003
877,4	0,003
877,8	0,003
878,2	0,003
878,7	0,003
879,1	0,003
879,5	0,003
879,9	0,003
880,4	0,003
880,8	0,003
881,2	0,003
881,7	0,003
882,1	0,003
882,5	0,004
882,9	0,004
883,4	0,004
883,8	0,004
884,2	0,004
884,6	0,004
885,1	0,004
885,5	0,003
885,9	0,003
886,3	0,003
886,8	0,002
887,2	0,002
887,6	0,002
888	0,002
888,5	0,002
888,9	0,002
889,3	0,002
889,8	0,002
890,2	0,002
890,6	0,002
891	0,002
891,5	0,003
891,9	0,003
892,3	0,003
892,7	0,003
893,2	0,004
893,6	0,004
894	0,005
894,4	0,005
894,9	0,005
895,3	0,005
895,7	0,005
896,1	0,005
896,6	0,004
897	0,004
897,4	0,004
897,8	0,004
898,3	0,004
898,7	0,004
899,1	0,004
899,5	0,004
900	0,004
900,4	0,004
900,8	0,004
901,2	0,004
901,7	0,005
902,1	0,004
902,5	0,004
902,9	0,004
903,4	0,004
903,8	0,004
904,2	0,004
904,6	0,004
905,1	0,004
905,5	0,004
905,9	0,003
906,3	0,003
906,8	0,003
907,2	0,003
907,6	0,003
908	0,003
908,5	0,003
908,9	0,003
909,3	0,003
909,7	0,003
910,2	0,003
910,6	0,003
911	0,004
911,4	0,003
911,9	0,003
912,3	0,003
912,7	0,003
913,1	0,003
913,6	0,003
914	0,003
914,4	0,003
914,8	0,002
915,3	0,003
915,7	0,003
916,1	0,003
916,5	0,004
916,9	0,004
917,4	0,004
917,8	0,004
918,2	0,004
918,6	0,004
919,1	0,004
919,5	0,003
919,9	0,003
920,3	0,003
920,8	0,003
921,2	0,003
921,6	0,003
922	0,003
922,5	0,003
922,9	0,003
923,3	0,003
923,7	0,003
924,2	0,004
924,6	0,004
925	0,003
925,4	0,003
925,8	0,003
926,3	0,003
926,7	0,004
927,1	0,004
927,5	0,004
928	0,004
928,4	0,004
928,8	0,004
929,2	0,004
929,7	0,004
930,1	0,004
930,5	0,004
930,9	0,004
931,3	0,004
931,8	0,004
932,2	0,005
932,6	0,004
933	0,004
933,5	0,005
933,9	0,005
934,3	0,005
934,7	0,005
935,2	0,005
935,6	0,005
936	0,006
936,4	0,006
936,8	0,006
937,3	0,006
937,7	0,005
938,1	0,005
938,5	0,005
939	0,005
939,4	0,004
939,8	0,004
940,2	0,004
940,6	0,004
941,1	0,004
941,5	0,004
941,9	0,004
942,3	0,003
942,8	0,003
943,2	0,003
943,6	0,004
944	0,004
944,4	0,003
944,9	0,004
945,3	0,004
945,7	0,004
946,1	0,003
946,6	0,003
947	0,003
947,4	0,004
947,8	0,004
948,2	0,004
948,7	0,004
949,1	0,004
949,5	0,004
949,9	0,004
950,3	0,004
950,8	0,003
951,2	0,002
951,6	0,002
952	0,001
952,5	0,002
952,9	0,001
953,3	0,002
953,7	0,002
954,1	0,002
954,6	0,003
955	0,002
955,4	0,002
955,8	0,002
956,2	0,002
956,7	0,002
957,1	0,002
957,5	0,002
957,9	0,002
958,3	0,002
958,8	0,002
959,2	0,002
959,6	0,001
960	0,001
960,5	0,001
960,9	0,002
961,3	0,002
961,7	0,002
962,1	0,002
962,6	0,002
963	0,002
963,4	0,002
963,8	0,002
964,2	0,002
964,7	0,003
965,1	0,003
965,5	0,003
965,9	0,003
966,3	0,003
966,8	0,003
967,2	0,004
967,6	0,004
968	0,004
968,4	0,004
968,9	0,003
969,3	0,003
969,7	0,003
970,1	0,003
970,5	0,003
971	0,003
971,4	0,003
971,8	0,002
972,2	0,002
972,6	0,002
973,1	0,002
973,5	0,001
973,9	0,002
974,3	0,002
974,7	0,002
975,2	0,002
975,6	0,003
976	0,003
976,4	0,003
976,8	0,003
977,3	0,003
977,7	0,002
978,1	0,002
978,5	0,002
978,9	0,002
979,4	0,001
979,8	0,001
980,2	0,001
980,6	0,001
981	0,001
981,5	0,001
981,9	0,001
982,3	0,001
982,7	0,001
983,1	0,001
983,6	0,001
984	0,002
984,4	0,002
984,8	0,003
985,2	0,003
985,6	0,003
986,1	0,002
986,5	0,002
986,9	0,002
987,3	0,002
987,7	0,002
988,2	0,002
988,6	0,002
989	0,003
989,4	0,003
989,8	0,003
990,3	0,002
990,7	0,003
991,1	0,003
991,5	0,003
991,9	0,003
992,3	0,003
992,8	0,002
993,2	0,003
993,6	0,002
994	0,002
994,4	0,002
994,9	0,002
995,3	0,002
995,7	0,002
996,1	0,002
996,5	0,002
996,9	0,002
997,4	0,001
997,8	0
998,2	0
998,6	0,001
999	0,001
999,5	0,001
999,9	0,001
1000,3	0,001
1000,7	0,002
1001,1	0,002
1001,5	0,002
1002	0,002
1002,4	0,003
1002,8	0,003
1003,2	0,003
1003,6	0,004
1004	0,003
1004,5	0,004
1004,9	0,003
1005,3	0,003
1005,7	0,003
1006,1	0,003
1006,6	0,002
1007	0,002
1007,4	0,002
1007,8	0,002
1008,2	0,003
1008,6	0,003
1009,1	0,003
1009,5	0,003
1009,9	0,003
1010,3	0,003
1010,7	0,003
1011,1	0,002
1011,6	0,002
1012	0,001
1012,4	0,001
1012,8	0,001
1013,2	0,002
1013,6	0,002
1014,1	0,002
1014,5	0,002
1014,9	0,002
1015,3	0,003
1015,7	0,002
1016,1	0,002
1016,6	0,002
1017	0,002
1017,4	0,001
1017,8	0,001
1018,2	0
1018,6	0
1019,1	0
1019,5	0,001
1019,9	0
1020,3	0
1020,7	0,001
1021,1	0
1021,6	0
1022	0
1022,4	-0
1022,8	-0
1023,2	0
1023,6	0
1024,1	0
1024,5	0
1024,9	0
1025,3	0
1025,7	0
1026,1	0
1026,6	-0
1027	-0
1027,4	-0,001
1027,8	-0,001
1028,2	-0,001
1028,6	-0,001
1029	-0,001
1029,5	-0,001
1029,9	-0,002
1030,3	-0,002
1030,7	-0,001
1031,1	-0,001
1031,5	-0,001
1032	-0,002
1032,4	-0,002
1032,8	-0,002
1033,2	-0,002
1033,6	-0,002
1034	-0,002
1034,4	-0,002
1034,9	-0,002
1035,3	-0,001
1035,7	-0,001
1036,1	-0,001
1036,5	-0,001
1036,9	-0,001
1037,4	-0,001
1037,8	-0,001
1038,2	-0,001
1038,6	-0,001
1039	-0,001
1039,4	-0,001
1039,8	-0,001
1040,3	-0
1040,7	-0
1041,1	-0
1041,5	-0
1041,9	-0
1042,3	-0,001
1042,7	-0,001
1043,2	-0,001
1043,6	-0,001
1044	-0,002
1044,4	-0,001
1044,8	-0,001
1045,2	-0,001
1045,6	-0,001
1046,1	-0,001
1046,5	-0,001
1046,9	-0,001
1047,3	-0,002
1047,7	-0,002
1048,1	-0,002
1048,5	-0,003
1049	-0,003
1049,4	-0,003
1049,8	-0,003
1050,2	-0,003
1050,6	-0,003
1051	-0,003
1051,4	-0,003
1051,9	-0,002
1052,3	-0,002
1052,7	-0,003
1053,1	-0,002
1053,5	-0,003
1053,9	-0,003
1054,3	-0,003
1054,8	-0,003
1055,2	-0,004
1055,6	-0,004
1056	-0,005
1056,4	-0,005
1056,8	-0,005
1057,2	-0,005
1057,6	-0,005
1058,1	-0,005
1058,5	-0,005
1058,9	-0,004
1059,3	-0,004
1059,7	-0,004
1060,1	-0,004
1060,5	-0,004
1061	-0,004
1061,4	-0,004
1061,8	-0,005
1062,2	-0,005
1062,6	-0,006
1063	-0,005
1063,4	-0,006
1063,8	-0,005
1064,3	-0,005
1064,7	-0,005
1065,1	-0,004
1065,5	-0,005
1065,9	-0,005
1066,3	-0,004
1066,7	-0,004
1067,1	-0,005
1067,6	-0,006
1068	-0,006
1068,4	-0,006
1068,8	-0,006
1069,2	-0,007
1069,6	-0,008
1070	-0,008
1070,4	-0,007
1070,9	-0,007
1071,3	-0,008
1071,7	-0,008
1072,1	-0,007
1072,5	-0,006
1072,9	-0,006
1073,3	-0,006
1073,7	-0,007
1074,2	-0,006
1074,6	-0,006
1075	-0,006
1075,4	-0,007
1075,8	-0,007
1076,2	-0,007
1076,6	-0,006
1077	-0,007
1077,5	-0,007
1077,9	-0,007
1078,3	-0,006
1078,7	-0,007
1079,1	-0,008
1079,5	-0,007
1079,9	-0,007
1080,3	-0,007
1080,7	-0,007
1081,2	-0,007
1081,6	-0,008
1082	-0,008
1082,4	-0,01
1082,8	-0,011
1083,2	-0,013
1083,6	-0,015
1084	-0,014
1084,5	-0,014
1084,9	-0,013
1085,3	-0,013
1085,7	-0,012
1086,1	-0,011
1086,5	-0,012
1086,9	-0,014
1087,3	-0,014
1087,7	-0,017
1088,2	-0,017
1088,6	-0,019
1089	-0,022
1089,4	-0,023
1089,8	-0,023
1090,2	-0,023
1090,6	-0,025
1091	-0,026
1091,4	-0,028
1091,9	-0,028
1092,3	-0,028
1092,7	-0,03
1093,1	-0,033
1093,5	-0,038
1093,9	-0,039
1094,3	-0,044
1094,7	-0,045
1095,1	-0,051
1095,5	-0,051
1096	-0,053
1096,4	-0,053
1096,8	-0,058
1097,2	-0,056
1097,6	-0,064
1098	-0,058
1098,4	-0,068
1098,8	-0,074
1099,2	-0,076
1099,6	-0,074
1100,1	-0,077
1100,5	-0,075
1100,9	-0,088
1101,3	-0,092
1101,7	-0,09
1102,1	-0,084
1102,5	-0,086
1102,9	-0,083
1103,3	-0,088
1103,7	-0,09
1104,2	-0,095
1104,6	-0,103
1105	-0,124
1105,4	-0,134
1105,8	-0,154
1106,2	-0,158
1106,6	-0,165
1107	-0,144
1107,4	-0,158
1107,8	-0,084
1108,3	-0
