Data from Absorbance_00002.txt Node
Date: Fri Jul 14 16:28:07 MSK 2023
User: vat
Spectrometer: MAYP114033
Trigger mode: 0
Integration Time (sec): 8,000000E-3
Scans to average: 20
Electric dark correction enabled: true
Nonlinearity correction enabled: false
Boxcar width: 3
XAxis mode: Wavelengths
Number of Pixels in Spectrum: 2068
>>>>>Begin Spectral Data<<<<<
199,4	0,702
199,9	-0
200,4	-0,65
200,8	-0,381
201,3	-0,2
201,8	-0,182
202,2	-0,163
202,7	-0,163
203,2	-0,133
203,6	-0,1
204,1	-0,101
204,6	-0,091
205	-0,086
205,5	-0,094
206	-0,101
206,4	-0,087
206,9	-0,113
207,4	-0,103
207,8	-0,101
208,3	-0,094
208,8	-0,085
209,2	-0,084
209,7	-0,117
210,2	-0,118
210,6	-0,146
211,1	-0,149
211,5	-0,171
212	-0,182
212,5	-0,164
212,9	-0,166
213,4	-0,145
213,9	-0,126
214,3	-0,126
214,8	-0,108
215,3	-0,108
215,7	-0,129
216,2	-0,101
216,7	-0,109
217,1	-0,125
217,6	-0,144
218,1	-0,163
218,5	-0,155
219	-0,134
219,5	-0,157
219,9	-0,164
220,4	-0,138
220,9	-0,13
221,3	-0,117
221,8	-0,122
222,3	-0,119
222,7	-0,111
223,2	-0,094
223,6	-0,107
224,1	-0,101
224,6	-0,123
225	-0,118
225,5	-0,114
226	-0,101
226,4	-0,104
226,9	-0,102
227,4	-0,113
227,8	-0,111
228,3	-0,102
228,8	-0,117
229,2	-0,131
229,7	-0,148
230,2	-0,142
230,6	-0,134
231,1	-0,104
231,5	-0,111
232	-0,106
232,5	-0,106
232,9	-0,08
233,4	-0,084
233,9	-0,081
234,3	-0,09
234,8	-0,089
235,3	-0,091
235,7	-0,078
236,2	-0,097
236,7	-0,103
237,1	-0,107
237,6	-0,11
238,1	-0,108
238,5	-0,094
239	-0,095
239,4	-0,085
239,9	-0,059
240,4	-0,033
240,8	-0,03
241,3	-0,031
241,8	-0,041
242,2	-0,022
242,7	-0,014
243,2	-0,012
243,6	-0,02
244,1	0,008
244,6	0,025
245	0,031
245,5	0,022
245,9	0,044
246,4	0,05
246,9	0,059
247,3	0,073
247,8	0,089
248,3	0,118
248,7	0,157
249,2	0,162
249,7	0,181
250,1	0,221
250,6	0,238
251	0,268
251,5	0,292
252	0,346
252,4	0,423
252,9	0,495
253,4	0,558
253,8	0,631
254,3	0,708
254,8	0,791
255,2	0,853
255,7	0,9
256,1	0,957
256,6	1,022
257,1	1,073
257,5	1,131
258	1,172
258,5	1,211
258,9	1,265
259,4	1,315
259,9	1,346
260,3	1,383
260,8	1,404
261,2	1,452
261,7	1,475
262,2	1,5
262,6	1,502
263,1	1,52
263,6	1,544
264	1,566
264,5	1,566
264,9	1,575
265,4	1,586
265,9	1,623
266,3	1,64
266,8	1,633
267,3	1,636
267,7	1,663
268,2	1,682
268,7	1,688
269,1	1,69
269,6	1,699
270	1,728
270,5	1,758
271	1,764
271,4	1,785
271,9	1,8
272,4	1,803
272,8	1,803
273,3	1,801
273,7	1,797
274,2	1,798
274,7	1,789
275,1	1,799
275,6	1,816
276,1	1,823
276,5	1,841
277	1,839
277,4	1,845
277,9	1,85
278,4	1,837
278,8	1,823
279,3	1,813
279,8	1,806
280,2	1,784
280,7	1,749
281,1	1,71
281,6	1,665
282,1	1,619
282,5	1,569
283	1,507
283,4	1,45
283,9	1,394
284,4	1,342
284,8	1,293
285,3	1,243
285,8	1,194
286,2	1,15
286,7	1,11
287,1	1,078
287,6	1,046
288,1	1,017
288,5	0,993
289	0,972
289,5	0,956
289,9	0,94
290,4	0,924
290,8	0,913
291,3	0,903
291,8	0,894
292,2	0,886
292,7	0,879
293,1	0,874
293,6	0,87
294,1	0,863
294,5	0,859
295	0,855
295,5	0,851
295,9	0,846
296,4	0,843
296,8	0,838
297,3	0,836
297,8	0,832
298,2	0,828
298,7	0,826
299,1	0,823
299,6	0,821
300,1	0,819
300,5	0,816
301	0,812
301,5	0,808
301,9	0,804
302,4	0,801
302,8	0,796
303,3	0,793
303,8	0,788
304,2	0,785
304,7	0,781
305,1	0,777
305,6	0,771
306,1	0,767
306,5	0,761
307	0,756
307,4	0,751
307,9	0,747
308,4	0,742
308,8	0,735
309,3	0,729
309,8	0,724
310,2	0,717
310,7	0,711
311,1	0,704
311,6	0,697
312,1	0,692
312,5	0,686
313	0,68
313,4	0,674
313,9	0,669
314,4	0,663
314,8	0,657
315,3	0,651
315,7	0,645
316,2	0,639
316,7	0,634
317,1	0,627
317,6	0,621
318	0,614
318,5	0,608
319	0,601
319,4	0,594
319,9	0,587
320,3	0,579
320,8	0,572
321,3	0,565
321,7	0,556
322,2	0,548
322,6	0,54
323,1	0,532
323,6	0,524
324	0,516
324,5	0,507
324,9	0,5
325,4	0,493
325,9	0,486
326,3	0,478
326,8	0,471
327,2	0,463
327,7	0,457
328,2	0,45
328,6	0,443
329,1	0,436
329,5	0,431
330	0,424
330,5	0,418
330,9	0,412
331,4	0,407
331,8	0,401
332,3	0,395
332,8	0,389
333,2	0,384
333,7	0,379
334,1	0,372
334,6	0,367
335,1	0,361
335,5	0,356
336	0,351
336,4	0,346
336,9	0,34
337,4	0,336
337,8	0,332
338,3	0,327
338,7	0,323
339,2	0,317
339,7	0,312
340,1	0,308
340,6	0,302
341	0,297
341,5	0,293
342	0,288
342,4	0,284
342,9	0,28
343,3	0,275
343,8	0,271
344,2	0,267
344,7	0,263
345,2	0,259
345,6	0,255
346,1	0,251
346,5	0,248
347	0,245
347,5	0,241
347,9	0,238
348,4	0,235
348,8	0,231
349,3	0,228
349,8	0,224
350,2	0,22
350,7	0,217
351,1	0,213
351,6	0,21
352	0,206
352,5	0,203
353	0,201
353,4	0,198
353,9	0,195
354,3	0,192
354,8	0,189
355,3	0,186
355,7	0,183
356,2	0,181
356,6	0,178
357,1	0,176
357,5	0,173
358	0,17
358,5	0,168
358,9	0,166
359,4	0,164
359,8	0,161
360,3	0,159
360,8	0,157
361,2	0,155
361,7	0,152
362,1	0,15
362,6	0,148
363	0,146
363,5	0,143
364	0,141
364,4	0,139
364,9	0,137
365,3	0,135
365,8	0,133
366,3	0,131
366,7	0,129
367,2	0,128
367,6	0,126
368,1	0,125
368,5	0,123
369	0,121
369,5	0,12
369,9	0,119
370,4	0,117
370,8	0,115
371,3	0,114
371,7	0,112
372,2	0,111
372,7	0,109
373,1	0,107
373,6	0,106
374	0,105
374,5	0,103
374,9	0,102
375,4	0,101
375,9	0,1
376,3	0,099
376,8	0,098
377,2	0,096
377,7	0,094
378,2	0,093
378,6	0,092
379,1	0,091
379,5	0,09
380	0,089
380,4	0,088
380,9	0,087
381,4	0,085
381,8	0,084
382,3	0,082
382,7	0,081
383,2	0,08
383,6	0,079
384,1	0,079
384,6	0,078
385	0,077
385,5	0,077
385,9	0,076
386,4	0,076
386,8	0,075
387,3	0,074
387,7	0,073
388,2	0,073
388,7	0,071
389,1	0,071
389,6	0,07
390	0,069
390,5	0,067
390,9	0,067
391,4	0,066
391,9	0,065
392,3	0,064
392,8	0,063
393,2	0,062
393,7	0,062
394,1	0,061
394,6	0,06
395,1	0,059
395,5	0,059
396	0,059
396,4	0,058
396,9	0,057
397,3	0,056
397,8	0,055
398,2	0,055
398,7	0,054
399,2	0,053
399,6	0,053
400,1	0,053
400,5	0,052
401	0,051
401,4	0,051
401,9	0,051
402,4	0,05
402,8	0,05
403,3	0,05
403,7	0,049
404,2	0,05
404,6	0,049
405,1	0,049
405,5	0,048
406	0,047
406,5	0,047
406,9	0,046
407,4	0,045
407,8	0,045
408,3	0,044
408,7	0,044
409,2	0,043
409,6	0,043
410,1	0,043
410,6	0,043
411	0,043
411,5	0,043
411,9	0,042
412,4	0,042
412,8	0,041
413,3	0,041
413,7	0,04
414,2	0,039
414,7	0,039
415,1	0,038
415,6	0,038
416	0,038
416,5	0,037
416,9	0,037
417,4	0,037
417,8	0,037
418,3	0,036
418,8	0,036
419,2	0,036
419,7	0,035
420,1	0,035
420,6	0,034
421	0,033
421,5	0,032
421,9	0,032
422,4	0,032
422,8	0,032
423,3	0,032
423,8	0,031
424,2	0,032
424,7	0,031
425,1	0,031
425,6	0,031
426	0,03
426,5	0,03
426,9	0,03
427,4	0,029
427,9	0,029
428,3	0,029
428,8	0,028
429,2	0,028
429,7	0,027
430,1	0,027
430,6	0,027
431	0,026
431,5	0,026
431,9	0,026
432,4	0,025
432,8	0,025
433,3	0,024
433,8	0,023
434,2	0,023
434,7	0,022
435,1	0,022
435,6	0,022
436	0,022
436,5	0,023
436,9	0,023
437,4	0,022
437,8	0,022
438,3	0,022
438,8	0,021
439,2	0,021
439,7	0,021
440,1	0,021
440,6	0,021
441	0,02
441,5	0,019
441,9	0,02
442,4	0,019
442,8	0,019
443,3	0,019
443,7	0,018
444,2	0,018
444,7	0,018
445,1	0,018
445,6	0,018
446	0,018
446,5	0,018
446,9	0,018
447,4	0,018
447,8	0,018
448,3	0,018
448,7	0,017
449,2	0,017
449,6	0,017
450,1	0,016
450,6	0,016
451	0,016
451,5	0,016
451,9	0,016
452,4	0,016
452,8	0,016
453,3	0,016
453,7	0,016
454,2	0,015
454,6	0,015
455,1	0,014
455,5	0,014
456	0,014
456,4	0,014
456,9	0,013
457,3	0,013
457,8	0,013
458,3	0,013
458,7	0,013
459,2	0,013
459,6	0,013
460,1	0,013
460,5	0,013
461	0,013
461,4	0,013
461,9	0,013
462,3	0,013
462,8	0,013
463,2	0,012
463,7	0,012
464,1	0,012
464,6	0,012
465	0,012
465,5	0,012
466	0,012
466,4	0,012
466,9	0,012
467,3	0,012
467,8	0,012
468,2	0,012
468,7	0,012
469,1	0,012
469,6	0,011
470	0,012
470,5	0,012
470,9	0,012
471,4	0,011
471,8	0,011
472,3	0,011
472,7	0,011
473,2	0,01
473,6	0,01
474,1	0,009
474,5	0,009
475	0,008
475,4	0,008
475,9	0,008
476,4	0,008
476,8	0,008
477,3	0,008
477,7	0,008
478,2	0,009
478,6	0,009
479,1	0,009
479,5	0,008
480	0,009
480,4	0,009
480,9	0,009
481,3	0,008
481,8	0,008
482,2	0,008
482,7	0,009
483,1	0,008
483,6	0,008
484	0,007
484,5	0,007
484,9	0,006
485,4	0,005
485,8	0,004
486,3	0,007
486,7	0,008
487,2	0,008
487,6	0,008
488,1	0,009
488,5	0,01
489	0,011
489,4	0,01
489,9	0,008
490,4	0,008
490,8	0,008
491,3	0,008
491,7	0,008
492,2	0,008
492,6	0,007
493,1	0,007
493,5	0,007
494	0,007
494,4	0,007
494,9	0,006
495,3	0,006
495,8	0,006
496,2	0,005
496,7	0,006
497,1	0,005
497,6	0,005
498	0,005
498,5	0,005
498,9	0,005
499,4	0,006
499,8	0,006
500,3	0,006
500,7	0,007
501,2	0,007
501,6	0,007
502,1	0,006
502,5	0,007
503	0,006
503,4	0,007
503,9	0,006
504,3	0,007
504,8	0,007
505,2	0,007
505,7	0,006
506,1	0,006
506,6	0,006
507	0,006
507,5	0,006
507,9	0,006
508,4	0,006
508,8	0,006
509,3	0,006
509,7	0,006
510,2	0,005
510,6	0,005
511,1	0,005
511,5	0,005
512	0,005
512,4	0,005
512,9	0,005
513,3	0,005
513,8	0,005
514,2	0,004
514,7	0,004
515,1	0,004
515,6	0,004
516	0,004
516,5	0,004
516,9	0,004
517,4	0,004
517,8	0,004
518,3	0,005
518,7	0,005
519,2	0,005
519,6	0,005
520,1	0,005
520,5	0,005
521	0,005
521,4	0,005
521,9	0,005
522,3	0,005
522,8	0,005
523,2	0,004
523,7	0,004
524,1	0,004
524,6	0,004
525	0,004
525,5	0,003
525,9	0,003
526,4	0,003
526,8	0,003
527,3	0,003
527,7	0,003
528,2	0,002
528,6	0,002
529,1	0,002
529,5	0,003
530	0,002
530,4	0,003
530,9	0,004
531,3	0,004
531,8	0,004
532,2	0,003
532,6	0,003
533,1	0,003
533,5	0,002
534	0,002
534,4	0,003
534,9	0,003
535,3	0,003
535,8	0,003
536,2	0,004
536,7	0,004
537,1	0,003
537,6	0,003
538	0,003
538,5	0,004
538,9	0,004
539,4	0,003
539,8	0,003
540,3	0,003
540,7	0,003
541,2	0,003
541,6	0,003
542,1	0,003
542,5	0,003
543	0,003
543,4	0,003
543,9	0,003
544,3	0,003
544,8	0,003
545,2	0,003
545,7	0,004
546,1	0,003
546,5	0,003
547	0,003
547,4	0,003
547,9	0,003
548,3	0,003
548,8	0,003
549,2	0,004
549,7	0,004
550,1	0,003
550,6	0,003
551	0,004
551,5	0,003
551,9	0,003
552,4	0,003
552,8	0,003
553,3	0,003
553,7	0,003
554,2	0,002
554,6	0,003
555,1	0,003
555,5	0,003
555,9	0,003
556,4	0,003
556,8	0,003
557,3	0,003
557,7	0,004
558,2	0,003
558,6	0,003
559,1	0,003
559,5	0,003
560	0,003
560,4	0,003
560,9	0,003
561,3	0,004
561,8	0,003
562,2	0,004
562,7	0,003
563,1	0,003
563,6	0,003
564	0,003
564,4	0,003
564,9	0,003
565,3	0,002
565,8	0,002
566,2	0,002
566,7	0,002
567,1	0,002
567,6	0,001
568	0,001
568,5	0,001
568,9	0,001
569,4	0,001
569,8	0,001
570,3	0,002
570,7	0,002
571,1	0,002
571,6	0,002
572	0,003
572,5	0,003
572,9	0,003
573,4	0,003
573,8	0,003
574,3	0,002
574,7	0,002
575,2	0,002
575,6	0,002
576,1	0,002
576,5	0,002
576,9	0,002
577,4	0,002
577,8	0,002
578,3	0,002
578,7	0,003
579,2	0,002
579,6	0,002
580,1	0,003
580,5	0,003
581	0,002
581,4	0,002
581,9	0,002
582,3	0,002
582,7	0,002
583,2	0,003
583,6	0,003
584,1	0,003
584,5	0,003
585	0,003
585,4	0,003
585,9	0,003
586,3	0,003
586,8	0,003
587,2	0,003
587,6	0,003
588,1	0,003
588,5	0,003
589	0,003
589,4	0,003
589,9	0,003
590,3	0,003
590,8	0,003
591,2	0,003
591,7	0,003
592,1	0,002
592,5	0,002
593	0,001
593,4	0,002
593,9	0,002
594,3	0,001
594,8	0,001
595,2	0,001
595,7	0,002
596,1	0,002
596,6	0,002
597	0,002
597,4	0,002
597,9	0,002
598,3	0,002
598,8	0,003
599,2	0,002
599,7	0,002
600,1	0,002
600,6	0,002
601	0,003
601,4	0,003
601,9	0,003
602,3	0,002
602,8	0,002
603,2	0,002
603,7	0,002
604,1	0,002
604,6	0,002
605	0,002
605,4	0,002
605,9	0,003
606,3	0,003
606,8	0,003
607,2	0,003
607,7	0,002
608,1	0,002
608,6	0,003
609	0,002
609,4	0,002
609,9	0,002
610,3	0,002
610,8	0,002
611,2	0,002
611,7	0,002
612,1	0,002
612,6	0,002
613	0,002
613,4	0,003
613,9	0,003
614,3	0,003
614,8	0,003
615,2	0,003
615,7	0,003
616,1	0,003
616,6	0,003
617	0,002
617,4	0,002
617,9	0,002
618,3	0,002
618,8	0,002
619,2	0,002
619,7	0,001
620,1	0,001
620,5	0,001
621	0,001
621,4	0,001
621,9	0,001
622,3	0,001
622,8	0,001
623,2	0,001
623,6	0,002
624,1	0,002
624,5	0,002
625	0,003
625,4	0,003
625,9	0,003
626,3	0,003
626,8	0,003
627,2	0,003
627,6	0,003
628,1	0,002
628,5	0,002
629	0,002
629,4	0,002
629,9	0,002
630,3	0,002
630,7	0,001
631,2	0,002
631,6	0,002
632,1	0,002
632,5	0,002
633	0,002
633,4	0,002
633,8	0,003
634,3	0,002
634,7	0,002
635,2	0,002
635,6	0,001
636,1	0,001
636,5	0,001
636,9	0,001
637,4	0,001
637,8	0,001
638,3	0,002
638,7	0,002
639,2	0,002
639,6	0,002
640	0,002
640,5	0,002
640,9	0,002
641,4	0,002
641,8	0,002
642,2	0,002
642,7	0,002
643,1	0,002
643,6	0,002
644	0,002
644,5	0,002
644,9	0,001
645,3	0,002
645,8	0,001
646,2	0,001
646,7	0,001
647,1	0,001
647,6	0,001
648	0,001
648,4	0,001
648,9	0,001
649,3	0
649,8	0
650,2	0,001
650,6	0,001
651,1	0,001
651,5	0,001
652	0,002
652,4	0,001
652,9	0,001
653,3	0,001
653,7	0,001
654,2	0
654,6	-0
655,1	-0,005
655,5	-0,01
655,9	-0,006
656,4	-0,004
656,8	-0,003
657,3	-0,002
657,7	-0,001
658,2	0
658,6	0,003
659	0,004
659,5	0,006
659,9	0,011
660,4	0,007
660,8	0,005
661,2	0,005
661,7	0,004
662,1	0,003
662,6	0,002
663	0,002
663,4	0,002
663,9	0,002
664,3	0,002
664,8	0,002
665,2	0,002
665,6	0,002
666,1	0,002
666,5	0,001
667	0,001
667,4	0,001
667,9	0,001
668,3	0,001
668,7	0,001
669,2	0,002
669,6	0,002
670,1	0,002
670,5	0,002
670,9	0,002
671,4	0,002
671,8	0,001
672,3	0,001
672,7	0,001
673,1	0,001
673,6	0,001
674	0,001
674,5	0,001
674,9	0,001
675,3	0,001
675,8	0,001
676,2	0,001
676,7	0,002
677,1	0,002
677,5	0,002
678	0,002
678,4	0,002
678,9	0,002
679,3	0,001
679,7	0,001
680,2	0,001
680,6	0,001
681,1	0,001
681,5	0,001
681,9	0,001
682,4	0,002
682,8	0,002
683,3	0,002
683,7	0,002
684,1	0,002
684,6	0,002
685	0,002
685,5	0,002
685,9	0,002
686,3	0,002
686,8	0,002
687,2	0,002
687,7	0,002
688,1	0,002
688,5	0,001
689	0,001
689,4	0,002
689,9	0,002
690,3	0,002
690,7	0,002
691,2	0,002
691,6	0,002
692	0,003
692,5	0,002
692,9	0,002
693,4	0,002
693,8	0,002
694,2	0,002
694,7	0,002
695,1	0,001
695,6	0,002
696	0,002
696,4	0,002
696,9	0,002
697,3	0,002
697,8	0,002
698,2	0,002
698,6	0,002
699,1	0,001
699,5	0,002
699,9	0,002
700,4	0,001
700,8	0,001
701,3	0,001
701,7	0,001
702,1	0,001
702,6	0,001
703	0,001
703,5	0,001
703,9	0,001
704,3	0,001
704,8	0,001
705,2	0,001
705,6	0,001
706,1	0,001
706,5	0,001
707	0,001
707,4	0,001
707,8	0,001
708,3	0,001
708,7	0,001
709,2	0,001
709,6	0,002
710	0,002
710,5	0,002
710,9	0,002
711,3	0,002
711,8	0,002
712,2	0,002
712,7	0,002
713,1	0,001
713,5	0,001
714	0,001
714,4	0,001
714,8	0,001
715,3	0,001
715,7	0
716,2	0,001
716,6	0,001
717	0,001
717,5	0,001
717,9	0,001
718,3	0,001
718,8	0,001
719,2	0,001
719,7	0,001
720,1	0,001
720,5	0,001
721	0,002
721,4	0,002
721,8	0,002
722,3	0,002
722,7	0,002
723,2	0,002
723,6	0,002
724	0,001
724,5	0,001
724,9	0,001
725,3	0,001
725,8	0,001
726,2	0,002
726,7	0,002
727,1	0,002
727,5	0,002
728	0,001
728,4	0,001
728,8	0,002
729,3	0,001
729,7	0,001
730,1	0,001
730,6	0,001
731	0,001
731,5	0,001
731,9	0,001
732,3	0,002
732,8	0,002
733,2	0,002
733,6	0,002
734,1	0,002
734,5	0,002
734,9	0,002
735,4	0,002
735,8	0,002
736,3	0,002
736,7	0,001
737,1	0,001
737,6	0,001
738	0,001
738,4	0,001
738,9	0,001
739,3	0,001
739,7	0,001
740,2	0,001
740,6	0,001
741,1	0,002
741,5	0,002
741,9	0,002
742,4	0,002
742,8	0,002
743,2	0,002
743,7	0,002
744,1	0,002
744,5	0,002
745	0,002
745,4	0,001
745,8	0,001
746,3	0,001
746,7	0,001
747,2	0,001
747,6	0,001
748	0,001
748,5	0,001
748,9	0,001
749,3	0,001
749,8	0,001
750,2	0,001
750,6	0,001
751,1	0,001
751,5	0,001
751,9	0,002
752,4	0,002
752,8	0,001
753,3	0,001
753,7	0,002
754,1	0,002
754,6	0,002
755	0,002
755,4	0,002
755,9	0,002
756,3	0,001
756,7	0,001
757,2	0,001
757,6	0,001
758	0,001
758,5	0,001
758,9	0,002
759,3	0,002
759,8	0,002
760,2	0,002
760,6	0,002
761,1	0,002
761,5	0,001
761,9	0,002
762,4	0,001
762,8	0,001
763,3	0,001
763,7	0,001
764,1	0,001
764,6	0,001
765	0,001
765,4	0,001
765,9	0,001
766,3	0,001
766,7	0,001
767,2	0,001
767,6	0,001
768	0,001
768,5	0,001
768,9	0,001
769,3	0,001
769,8	0,001
770,2	0,001
770,6	0,002
771,1	0,001
771,5	0,001
771,9	0,001
772,4	0,001
772,8	0,001
773,2	0,001
773,7	0,001
774,1	0,001
774,5	0,002
775	0,002
775,4	0,002
775,8	0,002
776,3	0,002
776,7	0,002
777,1	0,002
777,6	0,002
778	0,002
778,4	0,002
778,9	0,001
779,3	0,001
779,7	0,001
780,2	0,001
780,6	0,001
781	0
781,5	0,001
781,9	0,001
782,3	0,001
782,8	0,001
783,2	0,001
783,6	0,001
784,1	0,001
784,5	0,001
784,9	0,001
785,4	0,001
785,8	0,001
786,2	0,001
786,7	0,002
787,1	0,002
787,5	0,002
788	0,002
788,4	0,002
788,8	0,002
789,3	0,002
789,7	0,002
790,1	0,002
790,6	0,002
791	0,002
791,4	0,002
791,9	0,002
792,3	0,001
792,7	0,001
793,2	0,001
793,6	0,001
794	0,001
794,5	0
794,9	0,001
795,3	0,001
795,8	0,002
796,2	0,002
796,6	0,002
797,1	0,002
797,5	0,002
797,9	0,003
798,4	0,003
798,8	0,002
799,2	0,002
799,7	0,002
800,1	0,002
800,5	0,002
801	0,002
801,4	0,002
801,8	0,002
802,2	0,002
802,7	0,002
803,1	0,002
803,5	0,002
804	0,002
804,4	0,002
804,8	0,002
805,3	0,002
805,7	0,002
806,1	0,002
806,6	0,002
807	0,002
807,4	0,002
807,9	0,001
808,3	0,001
808,7	0,001
809,2	0,001
809,6	0,001
810	0,001
810,4	0,001
810,9	0,001
811,3	0,001
811,7	0,001
812,2	0,001
812,6	0,001
813	0,001
813,5	0,001
813,9	0,001
814,3	0,001
814,8	0,001
815,2	0,001
815,6	0,001
816,1	0
816,5	0
816,9	0,001
817,3	0,001
817,8	0
818,2	0,001
818,6	0,001
819,1	0,001
819,5	0,001
819,9	0,001
820,4	0,001
820,8	0,001
821,2	0,001
821,7	0,001
822,1	0,001
822,5	0,001
822,9	0,001
823,4	0,001
823,8	0,001
824,2	0,001
824,7	0,001
825,1	0,001
825,5	0,001
826	0,001
826,4	0,001
826,8	0,001
827,3	0,001
827,7	0,001
828,1	0,001
828,5	0,001
829	0
829,4	0
829,8	-0
830,3	0
830,7	0
831,1	0
831,6	0,001
832	0,001
832,4	0,001
832,8	0,001
833,3	0,001
833,7	0,001
834,1	0,001
834,6	0,002
835	0,002
835,4	0,002
835,8	0,002
836,3	0,002
836,7	0,001
837,1	0,001
837,6	0,001
838	0,001
838,4	0
838,9	0
839,3	0
839,7	0,001
840,1	0,001
840,6	0,001
841	0,001
841,4	0,001
841,9	0,001
842,3	0,001
842,7	0,001
843,1	0,001
843,6	0,001
844	0,001
844,4	0,001
844,9	0,001
845,3	0,002
845,7	0,002
846,2	0,002
846,6	0,002
847	0,002
847,4	0,002
847,9	0,002
848,3	0,003
848,7	0,003
849,2	0,002
849,6	0,002
850	0,002
850,4	0,002
850,9	0,002
851,3	0,002
851,7	0,001
852,2	0,001
852,6	0,002
853	0,002
853,4	0,001
853,9	0,001
854,3	0,002
854,7	0,002
855,2	0,001
855,6	0,001
856	0,001
856,4	0,001
856,9	0,001
857,3	0,001
857,7	0,001
858,2	0,001
858,6	0,001
859	0,001
859,4	0,001
859,9	0,001
860,3	0,001
860,7	0,001
861,1	0,001
861,6	0,001
862	0,001
862,4	0,001
862,9	0
863,3	0
863,7	0
864,1	0
864,6	0
865	0
865,4	0
865,9	0
866,3	0
866,7	0,001
867,1	0
867,6	0
868	0
868,4	0
868,8	0
869,3	0
869,7	0,001
870,1	0,001
870,6	0,001
871	0,001
871,4	0
871,8	0
872,3	0
872,7	-0
873,1	-0
873,5	-0
874	-0
874,4	-0
874,8	-0
875,3	-0
875,7	-0
876,1	-0
876,5	0
877	0
877,4	0
877,8	0
878,2	0
878,7	0,001
879,1	0,001
879,5	0
879,9	0
880,4	0,001
880,8	0
881,2	0,001
881,7	0
882,1	0
882,5	0
882,9	0,001
883,4	0
883,8	0
884,2	0,001
884,6	0,001
885,1	0,001
885,5	0
885,9	0
886,3	0
886,8	0
887,2	0
887,6	-0
888	-0
888,5	-0
888,9	-0
889,3	-0
889,8	-0,001
890,2	-0,001
890,6	-0,001
891	-0,001
891,5	-0
891,9	-0
892,3	-0
892,7	0
893,2	0,001
893,6	0,001
894	0,001
894,4	0,001
894,9	0,001
895,3	0,002
895,7	0,001
896,1	0,001
896,6	0,001
897	0,001
897,4	0,001
897,8	0,001
898,3	0,001
898,7	0,001
899,1	0,002
899,5	0,002
900	0,002
900,4	0,002
900,8	0,002
901,2	0,001
901,7	0,001
902,1	0
902,5	0
902,9	0
903,4	-0
903,8	-0
904,2	0
904,6	-0
905,1	0
905,5	0
905,9	0
906,3	0
906,8	0
907,2	-0
907,6	-0
908	-0
908,5	-0
908,9	-0
909,3	-0
909,7	-0,001
910,2	-0
910,6	-0
911	0
911,4	0
911,9	-0
912,3	-0
912,7	0
913,1	0
913,6	-0
914	-0
914,4	-0
914,8	-0
915,3	-0
915,7	0
916,1	0
916,5	0,001
916,9	0,001
917,4	0,001
917,8	0,001
918,2	0,001
918,6	0,001
919,1	0
919,5	0
919,9	0,001
920,3	0,001
920,8	0
921,2	0
921,6	0
922	0
922,5	0
922,9	0
923,3	0
923,7	0
924,2	0
924,6	0,001
925	0
925,4	-0
925,8	-0
926,3	-0
926,7	-0
927,1	-0
927,5	-0,001
928	-0
928,4	-0
928,8	-0
929,2	-0
929,7	-0
930,1	0
930,5	-0
930,9	-0
931,3	-0
931,8	-0
932,2	-0
932,6	-0,001
933	-0,001
933,5	-0,001
933,9	-0
934,3	-0
934,7	-0
935,2	0
935,6	0
936	0,001
936,4	0,001
936,8	0,001
937,3	0,001
937,7	0
938,1	0,001
938,5	0
939	-0
939,4	-0,001
939,8	-0,001
940,2	-0,001
940,6	-0,001
941,1	-0,001
941,5	-0,001
941,9	-0,001
942,3	-0
942,8	-0
943,2	-0
943,6	-0
944	-0,001
944,4	-0,001
944,9	-0,001
945,3	-0,001
945,7	-0,002
946,1	-0,002
946,6	-0,002
947	-0,002
947,4	-0,002
947,8	-0,002
948,2	-0,001
948,7	-0,001
949,1	-0,001
949,5	-0
949,9	0
950,3	0
950,8	-0
951,2	-0,001
951,6	-0
952	-0,001
952,5	-0,001
952,9	-0,001
953,3	-0,001
953,7	-0
954,1	-0
954,6	-0,001
955	-0,001
955,4	-0,001
955,8	-0,001
956,2	-0,002
956,7	-0,002
957,1	-0,003
957,5	-0,003
957,9	-0,003
958,3	-0,003
958,8	-0,003
959,2	-0,003
959,6	-0,003
960	-0,002
960,5	-0,002
960,9	-0,002
961,3	-0,002
961,7	-0,002
962,1	-0,002
962,6	-0,002
963	-0,002
963,4	-0,002
963,8	-0,002
964,2	-0,002
964,7	-0,002
965,1	-0,002
965,5	-0,002
965,9	-0,002
966,3	-0,002
966,8	-0,003
967,2	-0,002
967,6	-0,002
968	-0,002
968,4	-0,002
968,9	-0,002
969,3	-0,003
969,7	-0,002
970,1	-0,003
970,5	-0,003
971	-0,003
971,4	-0,003
971,8	-0,003
972,2	-0,003
972,6	-0,004
973,1	-0,004
973,5	-0,004
973,9	-0,004
974,3	-0,004
974,7	-0,003
975,2	-0,003
975,6	-0,002
976	-0,002
976,4	-0,002
976,8	-0,002
977,3	-0,002
977,7	-0,003
978,1	-0,003
978,5	-0,004
978,9	-0,004
979,4	-0,004
979,8	-0,004
980,2	-0,004
980,6	-0,003
981	-0,004
981,5	-0,003
981,9	-0,003
982,3	-0,003
982,7	-0,003
983,1	-0,002
983,6	-0,002
984	-0,002
984,4	-0,002
984,8	-0,002
985,2	-0,002
985,6	-0,002
986,1	-0,003
986,5	-0,003
986,9	-0,003
987,3	-0,003
987,7	-0,003
988,2	-0,003
988,6	-0,003
989	-0,002
989,4	-0,002
989,8	-0,002
990,3	-0,002
990,7	-0,001
991,1	-0,002
991,5	-0,001
991,9	-0,001
992,3	-0,001
992,8	-0,002
993,2	-0,001
993,6	-0,002
994	-0,002
994,4	-0,002
994,9	-0,002
995,3	-0,001
995,7	-0,001
996,1	-0,001
996,5	-0,002
996,9	-0,002
997,4	-0,002
997,8	-0,003
998,2	-0,003
998,6	-0,002
999	-0,002
999,5	-0,002
999,9	-0,002
1000,3	-0,002
1000,7	-0,002
1001,1	-0,002
1001,5	-0,002
1002	-0,002
1002,4	-0,001
1002,8	-0,002
1003,2	-0,001
1003,6	-0,001
1004	-0
1004,5	-0,001
1004,9	-0,001
1005,3	-0,001
1005,7	-0,001
1006,1	-0,002
1006,6	-0,002
1007	-0,003
1007,4	-0,002
1007,8	-0,002
1008,2	-0,001
1008,6	-0,001
1009,1	-0,001
1009,5	-0,001
1009,9	-0,001
1010,3	-0,001
1010,7	-0,001
1011,1	-0,001
1011,6	-0,001
1012	-0,001
1012,4	-0,002
1012,8	-0,001
1013,2	-0,001
1013,6	-0,001
1014,1	-0,001
1014,5	-0,001
1014,9	-0,001
1015,3	-0,001
1015,7	-0,002
1016,1	-0,002
1016,6	-0,002
1017	-0,003
1017,4	-0,003
1017,8	-0,003
1018,2	-0,004
1018,6	-0,004
1019,1	-0,004
1019,5	-0,004
1019,9	-0,004
1020,3	-0,004
1020,7	-0,003
1021,1	-0,003
1021,6	-0,003
1022	-0,003
1022,4	-0,003
1022,8	-0,003
1023,2	-0,003
1023,6	-0,003
1024,1	-0,003
1024,5	-0,003
1024,9	-0,002
1025,3	-0,002
1025,7	-0,003
1026,1	-0,002
1026,6	-0,003
1027	-0,003
1027,4	-0,002
1027,8	-0,003
1028,2	-0,003
1028,6	-0,003
1029	-0,003
1029,5	-0,003
1029,9	-0,004
1030,3	-0,004
1030,7	-0,004
1031,1	-0,004
1031,5	-0,004
1032	-0,004
1032,4	-0,004
1032,8	-0,003
1033,2	-0,004
1033,6	-0,004
1034	-0,004
1034,4	-0,004
1034,9	-0,004
1035,3	-0,004
1035,7	-0,004
1036,1	-0,004
1036,5	-0,003
1036,9	-0,003
1037,4	-0,004
1037,8	-0,004
1038,2	-0,003
1038,6	-0,003
1039	-0,003
1039,4	-0,004
1039,8	-0,003
1040,3	-0,003
1040,7	-0,003
1041,1	-0,004
1041,5	-0,005
1041,9	-0,004
1042,3	-0,005
1042,7	-0,005
1043,2	-0,005
1043,6	-0,005
1044	-0,004
1044,4	-0,004
1044,8	-0,003
1045,2	-0,003
1045,6	-0,004
1046,1	-0,004
1046,5	-0,004
1046,9	-0,004
1047,3	-0,005
1047,7	-0,005
1048,1	-0,005
1048,5	-0,005
1049	-0,005
1049,4	-0,005
1049,8	-0,005
1050,2	-0,004
1050,6	-0,004
1051	-0,003
1051,4	-0,004
1051,9	-0,004
1052,3	-0,004
1052,7	-0,005
1053,1	-0,005
1053,5	-0,005
1053,9	-0,006
1054,3	-0,005
1054,8	-0,005
1055,2	-0,005
1055,6	-0,005
1056	-0,005
1056,4	-0,005
1056,8	-0,005
1057,2	-0,005
1057,6	-0,006
1058,1	-0,006
1058,5	-0,006
1058,9	-0,005
1059,3	-0,005
1059,7	-0,005
1060,1	-0,005
1060,5	-0,004
1061	-0,004
1061,4	-0,004
1061,8	-0,005
1062,2	-0,005
1062,6	-0,005
1063	-0,005
1063,4	-0,005
1063,8	-0,005
1064,3	-0,005
1064,7	-0,004
1065,1	-0,004
1065,5	-0,005
1065,9	-0,005
1066,3	-0,004
1066,7	-0,004
1067,1	-0,004
1067,6	-0,004
1068	-0,005
1068,4	-0,004
1068,8	-0,005
1069,2	-0,005
1069,6	-0,006
1070	-0,006
1070,4	-0,006
1070,9	-0,006
1071,3	-0,006
1071,7	-0,007
1072,1	-0,007
1072,5	-0,007
1072,9	-0,007
1073,3	-0,006
1073,7	-0,006
1074,2	-0,006
1074,6	-0,005
1075	-0,004
1075,4	-0,004
1075,8	-0,004
1076,2	-0,005
1076,6	-0,004
1077	-0,005
1077,5	-0,006
1077,9	-0,007
1078,3	-0,007
1078,7	-0,008
1079,1	-0,009
1079,5	-0,009
1079,9	-0,01
1080,3	-0,01
1080,7	-0,009
1081,2	-0,009
1081,6	-0,008
1082	-0,007
1082,4	-0,009
1082,8	-0,008
1083,2	-0,009
1083,6	-0,01
1084	-0,01
1084,5	-0,01
1084,9	-0,01
1085,3	-0,009
1085,7	-0,01
1086,1	-0,008
1086,5	-0,007
1086,9	-0,007
1087,3	-0,008
1087,7	-0,009
1088,2	-0,011
1088,6	-0,01
1089	-0,014
1089,4	-0,015
1089,8	-0,017
1090,2	-0,017
1090,6	-0,019
1091	-0,02
1091,4	-0,022
1091,9	-0,021
1092,3	-0,023
1092,7	-0,022
1093,1	-0,023
1093,5	-0,025
1093,9	-0,026
1094,3	-0,029
1094,7	-0,031
1095,1	-0,035
1095,5	-0,038
1096	-0,039
1096,4	-0,042
1096,8	-0,045
1097,2	-0,045
1097,6	-0,048
1098	-0,044
1098,4	-0,052
1098,8	-0,056
1099,2	-0,058
1099,6	-0,055
1100,1	-0,052
1100,5	-0,053
1100,9	-0,064
1101,3	-0,059
1101,7	-0,051
1102,1	-0,046
1102,5	-0,048
1102,9	-0,051
1103,3	-0,051
1103,7	-0,05
1104,2	-0,058
1104,6	-0,077
1105	-0,084
1105,4	-0,091
1105,8	-0,103
1106,2	-0,108
1106,6	-0,114
1107	-0,115
1107,4	-0,116
1107,8	-0,127
1108,3	-0,147
