Data from Absorbance_00006.txt Node
Date: Fri Jul 14 16:34:51 MSK 2023
User: vat
Spectrometer: MAYP114033
Trigger mode: 0
Integration Time (sec): 8,000000E-3
Scans to average: 20
Electric dark correction enabled: true
Nonlinearity correction enabled: false
Boxcar width: 3
XAxis mode: Wavelengths
Number of Pixels in Spectrum: 2068
>>>>>Begin Spectral Data<<<<<
199,4	-0
199,9	-0
200,4	-0
200,8	-0,725
201,3	-0,296
201,8	-0,28
202,2	-0,224
202,7	-0,222
203,2	-0,173
203,6	-0,143
204,1	-0,133
204,6	-0,122
205	-0,122
205,5	-0,131
206	-0,132
206,4	-0,143
206,9	-0,169
207,4	-0,167
207,8	-0,162
208,3	-0,149
208,8	-0,157
209,2	-0,161
209,7	-0,176
210,2	-0,157
210,6	-0,175
211,1	-0,194
211,5	-0,215
212	-0,228
212,5	-0,227
212,9	-0,222
213,4	-0,238
213,9	-0,213
214,3	-0,211
214,8	-0,206
215,3	-0,209
215,7	-0,214
216,2	-0,206
216,7	-0,191
217,1	-0,21
217,6	-0,223
218,1	-0,233
218,5	-0,211
219	-0,192
219,5	-0,196
219,9	-0,192
220,4	-0,175
220,9	-0,168
221,3	-0,162
221,8	-0,155
222,3	-0,147
222,7	-0,128
223,2	-0,133
223,6	-0,134
224,1	-0,119
224,6	-0,119
225	-0,127
225,5	-0,108
226	-0,114
226,4	-0,105
226,9	-0,098
227,4	-0,127
227,8	-0,137
228,3	-0,132
228,8	-0,174
229,2	-0,204
229,7	-0,228
230,2	-0,231
230,6	-0,222
231,1	-0,197
231,5	-0,2
232	-0,184
232,5	-0,189
232,9	-0,168
233,4	-0,182
233,9	-0,176
234,3	-0,176
234,8	-0,167
235,3	-0,147
235,7	-0,115
236,2	-0,129
236,7	-0,108
237,1	-0,094
237,6	-0,089
238,1	-0,084
238,5	-0,102
239	-0,095
239,4	-0,089
239,9	-0,093
240,4	-0,082
240,8	-0,09
241,3	-0,104
241,8	-0,111
242,2	-0,108
242,7	-0,081
243,2	-0,081
243,6	-0,086
244,1	-0,06
244,6	-0,034
245	-0,016
245,5	-0,013
245,9	0,001
246,4	0,028
246,9	0,044
247,3	0,073
247,8	0,103
248,3	0,127
248,7	0,155
249,2	0,158
249,7	0,178
250,1	0,215
250,6	0,241
251	0,275
251,5	0,318
252	0,373
252,4	0,446
252,9	0,514
253,4	0,593
253,8	0,659
254,3	0,739
254,8	0,811
255,2	0,88
255,7	0,947
256,1	1,014
256,6	1,071
257,1	1,133
257,5	1,191
258	1,229
258,5	1,271
258,9	1,313
259,4	1,356
259,9	1,37
260,3	1,402
260,8	1,403
261,2	1,433
261,7	1,472
262,2	1,495
262,6	1,517
263,1	1,562
263,6	1,583
264	1,609
264,5	1,622
264,9	1,63
265,4	1,649
265,9	1,675
266,3	1,669
266,8	1,688
267,3	1,714
267,7	1,726
268,2	1,745
268,7	1,758
269,1	1,764
269,6	1,77
270	1,784
270,5	1,78
271	1,798
271,4	1,798
271,9	1,805
272,4	1,803
272,8	1,828
273,3	1,821
273,7	1,833
274,2	1,824
274,7	1,82
275,1	1,807
275,6	1,804
276,1	1,807
276,5	1,807
277	1,804
277,4	1,801
277,9	1,816
278,4	1,828
278,8	1,819
279,3	1,793
279,8	1,767
280,2	1,737
280,7	1,7
281,1	1,642
281,6	1,584
282,1	1,531
282,5	1,472
283	1,408
283,4	1,342
283,9	1,283
284,4	1,22
284,8	1,165
285,3	1,108
285,8	1,058
286,2	1,012
286,7	0,971
287,1	0,934
287,6	0,902
288,1	0,87
288,5	0,845
289	0,823
289,5	0,805
289,9	0,788
290,4	0,773
290,8	0,762
291,3	0,754
291,8	0,744
292,2	0,738
292,7	0,73
293,1	0,725
293,6	0,72
294,1	0,714
294,5	0,71
295	0,705
295,5	0,701
295,9	0,697
296,4	0,693
296,8	0,691
297,3	0,688
297,8	0,685
298,2	0,683
298,7	0,681
299,1	0,678
299,6	0,676
300,1	0,674
300,5	0,672
301	0,668
301,5	0,666
301,9	0,664
302,4	0,66
302,8	0,658
303,3	0,653
303,8	0,65
304,2	0,647
304,7	0,643
305,1	0,64
305,6	0,637
306,1	0,634
306,5	0,631
307	0,628
307,4	0,624
307,9	0,62
308,4	0,614
308,8	0,61
309,3	0,606
309,8	0,601
310,2	0,596
310,7	0,592
311,1	0,587
311,6	0,583
312,1	0,578
312,5	0,573
313	0,568
313,4	0,563
313,9	0,558
314,4	0,553
314,8	0,548
315,3	0,543
315,7	0,537
316,2	0,533
316,7	0,527
317,1	0,522
317,6	0,517
318	0,511
318,5	0,505
319	0,5
319,4	0,494
319,9	0,489
320,3	0,484
320,8	0,478
321,3	0,473
321,7	0,468
322,2	0,462
322,6	0,457
323,1	0,451
323,6	0,445
324	0,439
324,5	0,434
324,9	0,428
325,4	0,423
325,9	0,418
326,3	0,413
326,8	0,408
327,2	0,403
327,7	0,397
328,2	0,392
328,6	0,387
329,1	0,38
329,5	0,375
330	0,37
330,5	0,365
330,9	0,36
331,4	0,355
331,8	0,35
332,3	0,346
332,8	0,342
333,2	0,337
333,7	0,332
334,1	0,327
334,6	0,322
335,1	0,317
335,5	0,312
336	0,307
336,4	0,303
336,9	0,297
337,4	0,293
337,8	0,29
338,3	0,285
338,7	0,279
339,2	0,275
339,7	0,271
340,1	0,267
340,6	0,262
341	0,258
341,5	0,254
342	0,251
342,4	0,247
342,9	0,244
343,3	0,239
343,8	0,236
344,2	0,232
344,7	0,229
345,2	0,225
345,6	0,221
346,1	0,218
346,5	0,214
347	0,211
347,5	0,207
347,9	0,204
348,4	0,201
348,8	0,198
349,3	0,194
349,8	0,191
350,2	0,188
350,7	0,185
351,1	0,182
351,6	0,179
352	0,176
352,5	0,174
353	0,171
353,4	0,168
353,9	0,166
354,3	0,163
354,8	0,16
355,3	0,157
355,7	0,154
356,2	0,151
356,6	0,149
357,1	0,147
357,5	0,145
358	0,143
358,5	0,14
358,9	0,138
359,4	0,137
359,8	0,135
360,3	0,133
360,8	0,131
361,2	0,129
361,7	0,127
362,1	0,125
362,6	0,123
363	0,12
363,5	0,118
364	0,116
364,4	0,115
364,9	0,113
365,3	0,111
365,8	0,109
366,3	0,107
366,7	0,106
367,2	0,104
367,6	0,103
368,1	0,101
368,5	0,099
369	0,098
369,5	0,097
369,9	0,096
370,4	0,095
370,8	0,094
371,3	0,092
371,7	0,091
372,2	0,089
372,7	0,088
373,1	0,086
373,6	0,085
374	0,084
374,5	0,082
374,9	0,081
375,4	0,08
375,9	0,079
376,3	0,078
376,8	0,077
377,2	0,076
377,7	0,074
378,2	0,073
378,6	0,073
379,1	0,072
379,5	0,07
380	0,07
380,4	0,069
380,9	0,069
381,4	0,067
381,8	0,067
382,3	0,065
382,7	0,065
383,2	0,063
383,6	0,062
384,1	0,062
384,6	0,061
385	0,061
385,5	0,06
385,9	0,06
386,4	0,059
386,8	0,058
387,3	0,058
387,7	0,057
388,2	0,056
388,7	0,054
389,1	0,054
389,6	0,053
390	0,052
390,5	0,051
390,9	0,05
391,4	0,05
391,9	0,049
392,3	0,048
392,8	0,047
393,2	0,047
393,7	0,046
394,1	0,046
394,6	0,045
395,1	0,044
395,5	0,044
396	0,044
396,4	0,043
396,9	0,043
397,3	0,042
397,8	0,041
398,2	0,041
398,7	0,04
399,2	0,039
399,6	0,039
400,1	0,038
400,5	0,038
401	0,037
401,4	0,037
401,9	0,036
402,4	0,036
402,8	0,036
403,3	0,036
403,7	0,035
404,2	0,035
404,6	0,035
405,1	0,035
405,5	0,034
406	0,034
406,5	0,034
406,9	0,034
407,4	0,033
407,8	0,033
408,3	0,032
408,7	0,032
409,2	0,031
409,6	0,03
410,1	0,03
410,6	0,03
411	0,029
411,5	0,029
411,9	0,029
412,4	0,028
412,8	0,028
413,3	0,028
413,7	0,027
414,2	0,027
414,7	0,026
415,1	0,026
415,6	0,026
416	0,026
416,5	0,025
416,9	0,024
417,4	0,024
417,8	0,024
418,3	0,024
418,8	0,024
419,2	0,023
419,7	0,023
420,1	0,023
420,6	0,022
421	0,021
421,5	0,021
421,9	0,021
422,4	0,02
422,8	0,021
423,3	0,02
423,8	0,02
424,2	0,02
424,7	0,02
425,1	0,02
425,6	0,02
426	0,019
426,5	0,018
426,9	0,018
427,4	0,018
427,9	0,017
428,3	0,017
428,8	0,016
429,2	0,016
429,7	0,016
430,1	0,015
430,6	0,015
431	0,015
431,5	0,014
431,9	0,014
432,4	0,014
432,8	0,013
433,3	0,013
433,8	0,013
434,2	0,013
434,7	0,013
435,1	0,013
435,6	0,013
436	0,013
436,5	0,013
436,9	0,013
437,4	0,012
437,8	0,012
438,3	0,012
438,8	0,012
439,2	0,012
439,7	0,012
440,1	0,011
440,6	0,011
441	0,011
441,5	0,01
441,9	0,01
442,4	0,009
442,8	0,009
443,3	0,009
443,7	0,009
444,2	0,009
444,7	0,009
445,1	0,009
445,6	0,009
446	0,009
446,5	0,009
446,9	0,009
447,4	0,01
447,8	0,01
448,3	0,01
448,7	0,01
449,2	0,01
449,6	0,01
450,1	0,01
450,6	0,009
451	0,009
451,5	0,009
451,9	0,009
452,4	0,008
452,8	0,008
453,3	0,007
453,7	0,007
454,2	0,007
454,6	0,007
455,1	0,007
455,5	0,007
456	0,008
456,4	0,007
456,9	0,007
457,3	0,007
457,8	0,007
458,3	0,007
458,7	0,006
459,2	0,006
459,6	0,006
460,1	0,006
460,5	0,006
461	0,006
461,4	0,006
461,9	0,006
462,3	0,005
462,8	0,005
463,2	0,005
463,7	0,005
464,1	0,005
464,6	0,005
465	0,005
465,5	0,005
466	0,005
466,4	0,005
466,9	0,005
467,3	0,005
467,8	0,005
468,2	0,005
468,7	0,005
469,1	0,005
469,6	0,005
470	0,005
470,5	0,006
470,9	0,006
471,4	0,006
471,8	0,005
472,3	0,005
472,7	0,005
473,2	0,004
473,6	0,004
474,1	0,004
474,5	0,004
475	0,003
475,4	0,003
475,9	0,003
476,4	0,004
476,8	0,003
477,3	0,003
477,7	0,003
478,2	0,004
478,6	0,004
479,1	0,004
479,5	0,004
480	0,004
480,4	0,005
480,9	0,005
481,3	0,004
481,8	0,004
482,2	0,004
482,7	0,004
483,1	0,004
483,6	0,004
484	0,003
484,5	0,002
484,9	0,002
485,4	0,001
485,8	0
486,3	0,003
486,7	0,003
487,2	0,004
487,6	0,004
488,1	0,005
488,5	0,006
489	0,007
489,4	0,005
489,9	0,004
490,4	0,004
490,8	0,004
491,3	0,004
491,7	0,004
492,2	0,004
492,6	0,004
493,1	0,004
493,5	0,003
494	0,003
494,4	0,002
494,9	0,002
495,3	0,002
495,8	0,002
496,2	0,002
496,7	0,002
497,1	0,002
497,6	0,002
498	0,002
498,5	0,001
498,9	0,002
499,4	0,002
499,8	0,003
500,3	0,003
500,7	0,003
501,2	0,004
501,6	0,004
502,1	0,003
502,5	0,003
503	0,003
503,4	0,003
503,9	0,003
504,3	0,003
504,8	0,003
505,2	0,003
505,7	0,004
506,1	0,003
506,6	0,003
507	0,003
507,5	0,003
507,9	0,003
508,4	0,003
508,8	0,003
509,3	0,003
509,7	0,003
510,2	0,003
510,6	0,003
511,1	0,003
511,5	0,003
512	0,003
512,4	0,003
512,9	0,003
513,3	0,002
513,8	0,002
514,2	0,002
514,7	0,002
515,1	0,001
515,6	0,002
516	0,002
516,5	0,002
516,9	0,002
517,4	0,002
517,8	0,003
518,3	0,003
518,7	0,003
519,2	0,003
519,6	0,003
520,1	0,003
520,5	0,003
521	0,003
521,4	0,004
521,9	0,004
522,3	0,004
522,8	0,004
523,2	0,004
523,7	0,004
524,1	0,004
524,6	0,003
525	0,003
525,5	0,003
525,9	0,002
526,4	0,002
526,8	0,002
527,3	0,002
527,7	0,002
528,2	0,002
528,6	0,002
529,1	0,002
529,5	0,002
530	0,002
530,4	0,002
530,9	0,002
531,3	0,002
531,8	0,002
532,2	0,002
532,6	0,002
533,1	0,002
533,5	0,002
534	0,002
534,4	0,003
534,9	0,003
535,3	0,003
535,8	0,004
536,2	0,005
536,7	0,004
537,1	0,004
537,6	0,004
538	0,003
538,5	0,004
538,9	0,004
539,4	0,003
539,8	0,003
540,3	0,003
540,7	0,003
541,2	0,003
541,6	0,002
542,1	0,002
542,5	0,003
543	0,003
543,4	0,004
543,9	0,003
544,3	0,004
544,8	0,004
545,2	0,004
545,7	0,004
546,1	0,003
546,5	0,003
547	0,003
547,4	0,003
547,9	0,003
548,3	0,003
548,8	0,003
549,2	0,004
549,7	0,003
550,1	0,004
550,6	0,004
551	0,004
551,5	0,004
551,9	0,004
552,4	0,003
552,8	0,004
553,3	0,003
553,7	0,003
554,2	0,002
554,6	0,003
555,1	0,003
555,5	0,003
555,9	0,003
556,4	0,003
556,8	0,003
557,3	0,003
557,7	0,003
558,2	0,002
558,6	0,002
559,1	0,002
559,5	0,002
560	0,003
560,4	0,003
560,9	0,004
561,3	0,004
561,8	0,004
562,2	0,004
562,7	0,004
563,1	0,004
563,6	0,003
564	0,002
564,4	0,002
564,9	0,002
565,3	0,002
565,8	0,003
566,2	0,003
566,7	0,002
567,1	0,002
567,6	0,002
568	0,002
568,5	0,002
568,9	0,002
569,4	0,001
569,8	0,002
570,3	0,002
570,7	0,002
571,1	0,002
571,6	0,002
572	0,003
572,5	0,003
572,9	0,002
573,4	0,002
573,8	0,002
574,3	0,002
574,7	0,002
575,2	0,002
575,6	0,002
576,1	0,003
576,5	0,003
576,9	0,003
577,4	0,002
577,8	0,002
578,3	0,003
578,7	0,003
579,2	0,003
579,6	0,003
580,1	0,003
580,5	0,003
581	0,002
581,4	0,002
581,9	0,002
582,3	0,002
582,7	0,002
583,2	0,002
583,6	0,003
584,1	0,003
584,5	0,003
585	0,003
585,4	0,003
585,9	0,003
586,3	0,003
586,8	0,003
587,2	0,003
587,6	0,003
588,1	0,003
588,5	0,003
589	0,003
589,4	0,003
589,9	0,003
590,3	0,003
590,8	0,003
591,2	0,002
591,7	0,002
592,1	0,002
592,5	0,001
593	0,001
593,4	0,001
593,9	0,001
594,3	0,001
594,8	0,001
595,2	0,001
595,7	0,001
596,1	0,002
596,6	0,002
597	0,002
597,4	0,002
597,9	0,002
598,3	0,002
598,8	0,002
599,2	0,002
599,7	0,002
600,1	0,002
600,6	0,002
601	0,002
601,4	0,002
601,9	0,002
602,3	0,001
602,8	0,001
603,2	0,001
603,7	0,001
604,1	0,001
604,6	0,001
605	0,001
605,4	0,001
605,9	0,002
606,3	0,002
606,8	0,002
607,2	0,001
607,7	0,001
608,1	0,001
608,6	0,002
609	0,001
609,4	0,001
609,9	0,001
610,3	0,001
610,8	0,001
611,2	0,001
611,7	0,001
612,1	0,001
612,6	0,001
613	0,001
613,4	0,001
613,9	0,001
614,3	0,002
614,8	0,001
615,2	0,001
615,7	0,002
616,1	0,002
616,6	0,002
617	0,002
617,4	0,001
617,9	0,001
618,3	0,001
618,8	0,001
619,2	0
619,7	0
620,1	-0
620,5	-0
621	-0
621,4	-0,001
621,9	-0,001
622,3	-0,001
622,8	-0
623,2	-0,001
623,6	-0,001
624,1	-0
624,5	-0
625	-0
625,4	0
625,9	0
626,3	0,001
626,8	0
627,2	0
627,6	0
628,1	-0
628,5	-0
629	-0,001
629,4	-0,001
629,9	-0
630,3	0
630,7	0
631,2	0
631,6	0,001
632,1	0,001
632,5	0,001
633	0,001
633,4	0
633,8	0
634,3	0
634,7	-0
635,2	0
635,6	-0
636,1	-0
636,5	-0
636,9	-0,001
637,4	-0,001
637,8	-0,001
638,3	-0,001
638,7	-0
639,2	-0
639,6	-0
640	-0
640,5	-0
640,9	-0
641,4	-0
641,8	-0
642,2	-0
642,7	-0
643,1	-0
643,6	-0
644	-0,001
644,5	-0,001
644,9	-0,001
645,3	-0,001
645,8	-0,002
646,2	-0,002
646,7	-0,002
647,1	-0,002
647,6	-0,002
648	-0,002
648,4	-0,002
648,9	-0,002
649,3	-0,002
649,8	-0,002
650,2	-0,002
650,6	-0,002
651,1	-0,002
651,5	-0,002
652	-0,002
652,4	-0,002
652,9	-0,002
653,3	-0,003
653,7	-0,004
654,2	-0,004
654,6	-0,005
655,1	-0,009
655,5	-0,014
655,9	-0,009
656,4	-0,006
656,8	-0,004
657,3	-0,002
657,7	-0,001
658,2	-0
658,6	0,003
659	0,004
659,5	0,006
659,9	0,011
660,4	0,006
660,8	0,004
661,2	0,003
661,7	0,002
662,1	0
662,6	-0
663	-0
663,4	-0,001
663,9	-0,001
664,3	-0,001
664,8	-0,001
665,2	-0,001
665,6	-0,001
666,1	-0,001
666,5	-0,001
667	-0,001
667,4	-0,001
667,9	-0,001
668,3	-0,001
668,7	-0,001
669,2	-0,001
669,6	-0,001
670,1	-0,001
670,5	-0,001
670,9	-0,001
671,4	-0,001
671,8	-0,001
672,3	-0,002
672,7	-0,001
673,1	-0,002
673,6	-0,002
674	-0,002
674,5	-0,002
674,9	-0,002
675,3	-0,002
675,8	-0,002
676,2	-0,002
676,7	-0,002
677,1	-0,002
677,5	-0,002
678	-0,002
678,4	-0,002
678,9	-0,002
679,3	-0,002
679,7	-0,002
680,2	-0,002
680,6	-0,002
681,1	-0,002
681,5	-0,002
681,9	-0,002
682,4	-0,002
682,8	-0,002
683,3	-0,001
683,7	-0,001
684,1	-0,001
684,6	-0,001
685	-0,001
685,5	-0,001
685,9	-0,001
686,3	-0,001
686,8	-0,001
687,2	-0,001
687,7	-0,001
688,1	-0,001
688,5	-0,001
689	-0,001
689,4	-0,001
689,9	-0,001
690,3	-0,001
690,7	-0,001
691,2	-0,001
691,6	-0,001
692	-0,001
692,5	-0,001
692,9	-0,001
693,4	-0,001
693,8	-0,001
694,2	-0,001
694,7	-0,002
695,1	-0,002
695,6	-0,002
696	-0,001
696,4	-0,002
696,9	-0,002
697,3	-0,002
697,8	-0,002
698,2	-0,001
698,6	-0,002
699,1	-0,001
699,5	-0,001
699,9	-0,001
700,4	-0,001
700,8	-0,001
701,3	-0,002
701,7	-0,002
702,1	-0,002
702,6	-0,002
703	-0,002
703,5	-0,002
703,9	-0,002
704,3	-0,002
704,8	-0,001
705,2	-0,001
705,6	-0,001
706,1	-0,001
706,5	-0,001
707	-0,001
707,4	-0,001
707,8	-0,001
708,3	-0,001
708,7	-0,001
709,2	-0,001
709,6	-0,001
710	-0,001
710,5	-0,001
710,9	-0,001
711,3	-0,001
711,8	-0,001
712,2	-0,001
712,7	-0,002
713,1	-0,002
713,5	-0,002
714	-0,003
714,4	-0,003
714,8	-0,003
715,3	-0,003
715,7	-0,003
716,2	-0,003
716,6	-0,002
717	-0,002
717,5	-0,002
717,9	-0,002
718,3	-0,002
718,8	-0,002
719,2	-0,002
719,7	-0,002
720,1	-0,002
720,5	-0,002
721	-0,001
721,4	-0,001
721,8	-0,001
722,3	-0,001
722,7	-0,001
723,2	-0,001
723,6	-0
724	-0,001
724,5	-0,001
724,9	-0,001
725,3	-0,001
725,8	-0,001
726,2	-0,001
726,7	-0,001
727,1	-0,001
727,5	-0,001
728	-0,001
728,4	-0,001
728,8	-0,001
729,3	-0,002
729,7	-0,002
730,1	-0,002
730,6	-0,001
731	-0,001
731,5	-0,001
731,9	-0,001
732,3	-0,001
732,8	-0
733,2	-0,001
733,6	-0,001
734,1	-0,001
734,5	-0,001
734,9	-0,001
735,4	-0,001
735,8	-0,001
736,3	-0,001
736,7	-0,002
737,1	-0,002
737,6	-0,002
738	-0,002
738,4	-0,002
738,9	-0,002
739,3	-0,002
739,7	-0,002
740,2	-0,002
740,6	-0,002
741,1	-0,001
741,5	-0,001
741,9	-0,001
742,4	-0,001
742,8	-0,001
743,2	-0,001
743,7	-0,001
744,1	-0,001
744,5	-0,001
745	-0,001
745,4	-0,001
745,8	-0,001
746,3	-0,001
746,7	-0,001
747,2	-0,001
747,6	-0,001
748	-0,002
748,5	-0,001
748,9	-0,002
749,3	-0,001
749,8	-0,001
750,2	-0,002
750,6	-0,001
751,1	-0,001
751,5	-0,001
751,9	-0,001
752,4	-0,001
752,8	-0,001
753,3	-0,001
753,7	-0,001
754,1	-0,001
754,6	-0,001
755	-0,001
755,4	-0,001
755,9	-0,001
756,3	-0,001
756,7	-0,001
757,2	-0,001
757,6	-0,001
758	-0,001
758,5	-0,001
758,9	-0,001
759,3	-0,001
759,8	-0,001
760,2	-0,001
760,6	-0,001
761,1	-0,001
761,5	-0,001
761,9	-0,001
762,4	-0,001
762,8	-0,002
763,3	-0,002
763,7	-0,002
764,1	-0,002
764,6	-0,002
765	-0,002
765,4	-0,002
765,9	-0,002
766,3	-0,002
766,7	-0,002
767,2	-0,002
767,6	-0,002
768	-0,002
768,5	-0,002
768,9	-0,002
769,3	-0,002
769,8	-0,001
770,2	-0,001
770,6	-0,001
771,1	-0,001
771,5	-0,001
771,9	-0,001
772,4	-0,001
772,8	-0,001
773,2	-0,001
773,7	-0,002
774,1	-0,001
774,5	-0,001
775	-0,001
775,4	-0,001
775,8	-0,001
776,3	-0,001
776,7	-0,001
777,1	-0,001
777,6	-0,002
778	-0,002
778,4	-0,002
778,9	-0,002
779,3	-0,002
779,7	-0,002
780,2	-0,002
780,6	-0,001
781	-0,001
781,5	-0,001
781,9	-0,001
782,3	-0,001
782,8	-0,001
783,2	-0,001
783,6	-0,001
784,1	-0,001
784,5	-0,001
784,9	-0,001
785,4	-0,002
785,8	-0,002
786,2	-0,002
786,7	-0,002
787,1	-0,002
787,5	-0,002
788	-0,002
788,4	-0,002
788,8	-0,001
789,3	-0,001
789,7	-0,001
790,1	-0,001
790,6	-0,001
791	-0,001
791,4	-0,001
791,9	-0,001
792,3	-0,001
792,7	-0,001
793,2	-0,001
793,6	-0,001
794	-0,001
794,5	-0
794,9	-0
795,3	0
795,8	0,001
796,2	0,001
796,6	0,001
797,1	0,001
797,5	0,001
797,9	0,001
798,4	0
798,8	0
799,2	-0
799,7	-0
800,1	-0
800,5	0
801	0
801,4	-0
801,8	-0
802,2	-0
802,7	-0
803,1	-0
803,5	-0,001
804	-0,001
804,4	-0,001
804,8	-0,001
805,3	-0,001
805,7	-0,001
806,1	-0,001
806,6	-0,001
807	-0,001
807,4	-0
807,9	-0
808,3	-0
808,7	-0,001
809,2	-0,001
809,6	-0
810	-0
810,4	-0,001
810,9	-0,001
811,3	-0,001
811,7	-0,001
812,2	-0,001
812,6	-0,002
813	-0,002
813,5	-0,002
813,9	-0,002
814,3	-0,002
814,8	-0,002
815,2	-0,002
815,6	-0,002
816,1	-0,002
816,5	-0,002
816,9	-0,002
817,3	-0,002
817,8	-0,002
818,2	-0,002
818,6	-0,001
819,1	-0,001
819,5	-0,001
819,9	-0,001
820,4	-0,001
820,8	-0,001
821,2	-0,001
821,7	-0,001
822,1	-0,002
822,5	-0,002
822,9	-0,002
823,4	-0,002
823,8	-0,002
824,2	-0,002
824,7	-0,003
825,1	-0,002
825,5	-0,003
826	-0,003
826,4	-0,002
826,8	-0,002
827,3	-0,002
827,7	-0,002
828,1	-0,002
828,5	-0,003
829	-0,003
829,4	-0,003
829,8	-0,003
830,3	-0,003
830,7	-0,003
831,1	-0,002
831,6	-0,002
832	-0,002
832,4	-0,002
832,8	-0,002
833,3	-0,001
833,7	-0,001
834,1	-0,002
834,6	-0,001
835	-0,001
835,4	-0,001
835,8	-0,002
836,3	-0,002
836,7	-0,002
837,1	-0,002
837,6	-0,002
838	-0,002
838,4	-0,002
838,9	-0,002
839,3	-0,002
839,7	-0,001
840,1	-0,001
840,6	-0,001
841	-0,001
841,4	-0,001
841,9	-0,001
842,3	-0,001
842,7	-0,001
843,1	-0,001
843,6	-0,001
844	-0,001
844,4	-0,001
844,9	-0,001
845,3	-0,001
845,7	-0,001
846,2	-0,001
846,6	-0,001
847	-0,001
847,4	-0,001
847,9	-0,001
848,3	-0,001
848,7	-0,001
849,2	-0,001
849,6	-0,002
850	-0,002
850,4	-0,002
850,9	-0,002
851,3	-0,002
851,7	-0,002
852,2	-0,002
852,6	-0,002
853	-0,002
853,4	-0,002
853,9	-0,002
854,3	-0,002
854,7	-0,001
855,2	-0,001
855,6	-0,001
856	-0,001
856,4	-0,001
856,9	-0,001
857,3	-0,001
857,7	-0,001
858,2	-0,001
858,6	-0,002
859	-0,002
859,4	-0,002
859,9	-0,002
860,3	-0,002
860,7	-0,002
861,1	-0,002
861,6	-0,002
862	-0,002
862,4	-0,003
862,9	-0,003
863,3	-0,003
863,7	-0,002
864,1	-0,002
864,6	-0,002
865	-0,003
865,4	-0,003
865,9	-0,003
866,3	-0,003
866,7	-0,003
867,1	-0,003
867,6	-0,003
868	-0,003
868,4	-0,003
868,8	-0,003
869,3	-0,003
869,7	-0,003
870,1	-0,003
870,6	-0,003
871	-0,003
871,4	-0,003
871,8	-0,003
872,3	-0,003
872,7	-0,003
873,1	-0,003
873,5	-0,003
874	-0,003
874,4	-0,003
874,8	-0,004
875,3	-0,004
875,7	-0,004
876,1	-0,004
876,5	-0,004
877	-0,004
877,4	-0,004
877,8	-0,004
878,2	-0,003
878,7	-0,003
879,1	-0,003
879,5	-0,003
879,9	-0,003
880,4	-0,003
880,8	-0,003
881,2	-0,003
881,7	-0,003
882,1	-0,003
882,5	-0,002
882,9	-0,002
883,4	-0,002
883,8	-0,002
884,2	-0,002
884,6	-0,002
885,1	-0,003
885,5	-0,003
885,9	-0,003
886,3	-0,003
886,8	-0,003
887,2	-0,003
887,6	-0,003
888	-0,004
888,5	-0,004
888,9	-0,004
889,3	-0,003
889,8	-0,004
890,2	-0,004
890,6	-0,004
891	-0,004
891,5	-0,003
891,9	-0,003
892,3	-0,003
892,7	-0,003
893,2	-0,003
893,6	-0,002
894	-0,002
894,4	-0,002
894,9	-0,002
895,3	-0,001
895,7	-0,002
896,1	-0,002
896,6	-0,002
897	-0,002
897,4	-0,002
897,8	-0,003
898,3	-0,003
898,7	-0,003
899,1	-0,002
899,5	-0,002
900	-0,002
900,4	-0,002
900,8	-0,002
901,2	-0,003
901,7	-0,002
902,1	-0,003
902,5	-0,003
902,9	-0,003
903,4	-0,003
903,8	-0,003
904,2	-0,003
904,6	-0,003
905,1	-0,003
905,5	-0,003
905,9	-0,003
906,3	-0,003
906,8	-0,003
907,2	-0,003
907,6	-0,003
908	-0,003
908,5	-0,003
908,9	-0,003
909,3	-0,003
909,7	-0,003
910,2	-0,003
910,6	-0,003
911	-0,003
911,4	-0,003
911,9	-0,004
912,3	-0,004
912,7	-0,004
913,1	-0,004
913,6	-0,004
914	-0,004
914,4	-0,004
914,8	-0,004
915,3	-0,004
915,7	-0,003
916,1	-0,003
916,5	-0,003
916,9	-0,003
917,4	-0,003
917,8	-0,003
918,2	-0,003
918,6	-0,003
919,1	-0,003
919,5	-0,003
919,9	-0,003
920,3	-0,004
920,8	-0,004
921,2	-0,004
921,6	-0,004
922	-0,004
922,5	-0,004
922,9	-0,004
923,3	-0,004
923,7	-0,003
924,2	-0,003
924,6	-0,003
925	-0,003
925,4	-0,003
925,8	-0,004
926,3	-0,004
926,7	-0,004
927,1	-0,004
927,5	-0,004
928	-0,004
928,4	-0,004
928,8	-0,004
929,2	-0,004
929,7	-0,004
930,1	-0,004
930,5	-0,004
930,9	-0,004
931,3	-0,004
931,8	-0,004
932,2	-0,004
932,6	-0,004
933	-0,004
933,5	-0,003
933,9	-0,003
934,3	-0,003
934,7	-0,003
935,2	-0,002
935,6	-0,002
936	-0,002
936,4	-0,002
936,8	-0,002
937,3	-0,002
937,7	-0,003
938,1	-0,003
938,5	-0,003
939	-0,003
939,4	-0,004
939,8	-0,004
940,2	-0,004
940,6	-0,004
941,1	-0,004
941,5	-0,004
941,9	-0,004
942,3	-0,004
942,8	-0,004
943,2	-0,005
943,6	-0,004
944	-0,005
944,4	-0,005
944,9	-0,005
945,3	-0,005
945,7	-0,005
946,1	-0,006
946,6	-0,006
947	-0,006
947,4	-0,006
947,8	-0,006
948,2	-0,005
948,7	-0,005
949,1	-0,004
949,5	-0,004
949,9	-0,004
950,3	-0,004
950,8	-0,004
951,2	-0,005
951,6	-0,005
952	-0,006
952,5	-0,005
952,9	-0,006
953,3	-0,006
953,7	-0,006
954,1	-0,006
954,6	-0,006
955	-0,006
955,4	-0,006
955,8	-0,006
956,2	-0,006
956,7	-0,006
957,1	-0,006
957,5	-0,006
957,9	-0,006
958,3	-0,006
958,8	-0,006
959,2	-0,006
959,6	-0,006
960	-0,006
960,5	-0,005
960,9	-0,005
961,3	-0,006
961,7	-0,005
962,1	-0,005
962,6	-0,005
963	-0,005
963,4	-0,005
963,8	-0,005
964,2	-0,006
964,7	-0,006
965,1	-0,005
965,5	-0,006
965,9	-0,006
966,3	-0,006
966,8	-0,006
967,2	-0,005
967,6	-0,006
968	-0,006
968,4	-0,007
968,9	-0,007
969,3	-0,007
969,7	-0,007
970,1	-0,007
970,5	-0,007
971	-0,007
971,4	-0,007
971,8	-0,007
972,2	-0,007
972,6	-0,007
973,1	-0,007
973,5	-0,007
973,9	-0,007
974,3	-0,006
974,7	-0,006
975,2	-0,006
975,6	-0,005
976	-0,006
976,4	-0,006
976,8	-0,006
977,3	-0,006
977,7	-0,007
978,1	-0,007
978,5	-0,007
978,9	-0,007
979,4	-0,007
979,8	-0,007
980,2	-0,007
980,6	-0,007
981	-0,007
981,5	-0,006
981,9	-0,006
982,3	-0,006
982,7	-0,006
983,1	-0,005
983,6	-0,005
984	-0,005
984,4	-0,005
984,8	-0,005
985,2	-0,005
985,6	-0,006
986,1	-0,006
986,5	-0,006
986,9	-0,006
987,3	-0,006
987,7	-0,007
988,2	-0,006
988,6	-0,006
989	-0,006
989,4	-0,006
989,8	-0,006
990,3	-0,006
990,7	-0,005
991,1	-0,005
991,5	-0,005
991,9	-0,005
992,3	-0,005
992,8	-0,005
993,2	-0,005
993,6	-0,006
994	-0,005
994,4	-0,005
994,9	-0,005
995,3	-0,005
995,7	-0,005
996,1	-0,005
996,5	-0,005
996,9	-0,006
997,4	-0,007
997,8	-0,007
998,2	-0,007
998,6	-0,007
999	-0,007
999,5	-0,007
999,9	-0,006
1000,3	-0,006
1000,7	-0,005
1001,1	-0,005
1001,5	-0,005
1002	-0,005
1002,4	-0,004
1002,8	-0,004
1003,2	-0,004
1003,6	-0,004
1004	-0,004
1004,5	-0,004
1004,9	-0,004
1005,3	-0,004
1005,7	-0,004
1006,1	-0,004
1006,6	-0,005
1007	-0,005
1007,4	-0,004
1007,8	-0,004
1008,2	-0,003
1008,6	-0,003
1009,1	-0,003
1009,5	-0,003
1009,9	-0,003
1010,3	-0,003
1010,7	-0,003
1011,1	-0,003
1011,6	-0,003
1012	-0,003
1012,4	-0,003
1012,8	-0,003
1013,2	-0,003
1013,6	-0,003
1014,1	-0,003
1014,5	-0,004
1014,9	-0,004
1015,3	-0,004
1015,7	-0,004
1016,1	-0,004
1016,6	-0,005
1017	-0,005
1017,4	-0,005
1017,8	-0,006
1018,2	-0,006
1018,6	-0,006
1019,1	-0,006
1019,5	-0,006
1019,9	-0,006
1020,3	-0,006
1020,7	-0,005
1021,1	-0,005
1021,6	-0,005
1022	-0,006
1022,4	-0,006
1022,8	-0,006
1023,2	-0,006
1023,6	-0,007
1024,1	-0,006
1024,5	-0,006
1024,9	-0,006
1025,3	-0,006
1025,7	-0,006
1026,1	-0,006
1026,6	-0,006
1027	-0,007
1027,4	-0,007
1027,8	-0,007
1028,2	-0,007
1028,6	-0,006
1029	-0,007
1029,5	-0,006
1029,9	-0,007
1030,3	-0,006
1030,7	-0,006
1031,1	-0,006
1031,5	-0,006
1032	-0,006
1032,4	-0,006
1032,8	-0,006
1033,2	-0,007
1033,6	-0,007
1034	-0,007
1034,4	-0,007
1034,9	-0,007
1035,3	-0,007
1035,7	-0,007
1036,1	-0,007
1036,5	-0,007
1036,9	-0,007
1037,4	-0,007
1037,8	-0,007
1038,2	-0,007
1038,6	-0,007
1039	-0,007
1039,4	-0,007
1039,8	-0,007
1040,3	-0,007
1040,7	-0,007
1041,1	-0,007
1041,5	-0,007
1041,9	-0,007
1042,3	-0,007
1042,7	-0,007
1043,2	-0,007
1043,6	-0,007
1044	-0,007
1044,4	-0,007
1044,8	-0,007
1045,2	-0,007
1045,6	-0,007
1046,1	-0,007
1046,5	-0,007
1046,9	-0,007
1047,3	-0,008
1047,7	-0,008
1048,1	-0,008
1048,5	-0,009
1049	-0,009
1049,4	-0,009
1049,8	-0,009
1050,2	-0,008
1050,6	-0,008
1051	-0,008
1051,4	-0,008
1051,9	-0,008
1052,3	-0,009
1052,7	-0,01
1053,1	-0,01
1053,5	-0,009
1053,9	-0,01
1054,3	-0,01
1054,8	-0,01
1055,2	-0,01
1055,6	-0,009
1056	-0,01
1056,4	-0,01
1056,8	-0,01
1057,2	-0,011
1057,6	-0,011
1058,1	-0,011
1058,5	-0,01
1058,9	-0,009
1059,3	-0,01
1059,7	-0,009
1060,1	-0,008
1060,5	-0,007
1061	-0,007
1061,4	-0,007
1061,8	-0,008
1062,2	-0,009
1062,6	-0,009
1063	-0,009
1063,4	-0,01
1063,8	-0,009
1064,3	-0,01
1064,7	-0,009
1065,1	-0,008
1065,5	-0,008
1065,9	-0,009
1066,3	-0,009
1066,7	-0,009
1067,1	-0,009
1067,6	-0,01
1068	-0,011
1068,4	-0,011
1068,8	-0,011
1069,2	-0,012
1069,6	-0,012
1070	-0,012
1070,4	-0,011
1070,9	-0,01
1071,3	-0,01
1071,7	-0,01
1072,1	-0,009
1072,5	-0,01
1072,9	-0,01
1073,3	-0,009
1073,7	-0,01
1074,2	-0,01
1074,6	-0,009
1075	-0,009
1075,4	-0,009
1075,8	-0,008
1076,2	-0,009
1076,6	-0,009
1077	-0,01
1077,5	-0,011
1077,9	-0,011
1078,3	-0,011
1078,7	-0,013
1079,1	-0,014
1079,5	-0,013
1079,9	-0,014
1080,3	-0,013
1080,7	-0,014
1081,2	-0,015
1081,6	-0,015
1082	-0,015
1082,4	-0,017
1082,8	-0,016
1083,2	-0,018
1083,6	-0,017
1084	-0,016
1084,5	-0,017
1084,9	-0,015
1085,3	-0,014
1085,7	-0,013
1086,1	-0,013
1086,5	-0,013
1086,9	-0,015
1087,3	-0,014
1087,7	-0,016
1088,2	-0,018
1088,6	-0,02
1089	-0,021
1089,4	-0,023
1089,8	-0,024
1090,2	-0,026
1090,6	-0,029
1091	-0,028
1091,4	-0,031
1091,9	-0,03
1092,3	-0,031
1092,7	-0,029
1093,1	-0,03
1093,5	-0,03
1093,9	-0,034
1094,3	-0,034
1094,7	-0,033
1095,1	-0,033
1095,5	-0,036
1096	-0,037
1096,4	-0,041
1096,8	-0,041
1097,2	-0,043
1097,6	-0,05
1098	-0,053
1098,4	-0,06
1098,8	-0,063
1099,2	-0,061
1099,6	-0,061
1100,1	-0,067
1100,5	-0,062
1100,9	-0,07
1101,3	-0,069
1101,7	-0,069
1102,1	-0,065
1102,5	-0,068
1102,9	-0,058
1103,3	-0,061
1103,7	-0,063
1104,2	-0,067
1104,6	-0,081
1105	-0,093
1105,4	-0,097
1105,8	-0,12
1106,2	-0,133
1106,6	-0,128
1107	-0,128
1107,4	-0,12
1107,8	-0,081
1108,3	-0
