Data from Absorbance_00009.txt Node
Date: Fri Jul 14 16:40:42 MSK 2023
User: vat
Spectrometer: MAYP114033
Trigger mode: 0
Integration Time (sec): 8,000000E-3
Scans to average: 20
Electric dark correction enabled: true
Nonlinearity correction enabled: false
Boxcar width: 3
XAxis mode: Wavelengths
Number of Pixels in Spectrum: 2068
>>>>>Begin Spectral Data<<<<<
199,4	-0
199,9	-0
200,4	-0
200,8	-0,649
201,3	-0,249
201,8	-0,247
202,2	-0,244
202,7	-0,25
203,2	-0,209
203,6	-0,188
204,1	-0,192
204,6	-0,171
205	-0,159
205,5	-0,156
206	-0,158
206,4	-0,158
206,9	-0,155
207,4	-0,154
207,8	-0,167
208,3	-0,161
208,8	-0,168
209,2	-0,171
209,7	-0,185
210,2	-0,184
210,6	-0,197
211,1	-0,207
211,5	-0,228
212	-0,24
212,5	-0,224
212,9	-0,224
213,4	-0,235
213,9	-0,205
214,3	-0,204
214,8	-0,204
215,3	-0,208
215,7	-0,207
216,2	-0,19
216,7	-0,183
217,1	-0,211
217,6	-0,218
218,1	-0,222
218,5	-0,191
219	-0,186
219,5	-0,194
219,9	-0,197
220,4	-0,173
220,9	-0,171
221,3	-0,158
221,8	-0,156
222,3	-0,147
222,7	-0,142
223,2	-0,133
223,6	-0,135
224,1	-0,121
224,6	-0,133
225	-0,134
225,5	-0,121
226	-0,113
226,4	-0,105
226,9	-0,126
227,4	-0,147
227,8	-0,155
228,3	-0,155
228,8	-0,18
229,2	-0,213
229,7	-0,228
230,2	-0,204
230,6	-0,189
231,1	-0,16
231,5	-0,173
232	-0,166
232,5	-0,166
232,9	-0,155
233,4	-0,16
233,9	-0,155
234,3	-0,173
234,8	-0,161
235,3	-0,142
235,7	-0,117
236,2	-0,131
236,7	-0,13
237,1	-0,137
237,6	-0,117
238,1	-0,122
238,5	-0,137
239	-0,133
239,4	-0,124
239,9	-0,119
240,4	-0,086
240,8	-0,093
241,3	-0,076
241,8	-0,088
242,2	-0,08
242,7	-0,057
243,2	-0,03
243,6	-0,043
244,1	-0,016
244,6	-0,012
245	0,008
245,5	0,014
245,9	0,022
246,4	0,022
246,9	0,041
247,3	0,063
247,8	0,093
248,3	0,108
248,7	0,136
249,2	0,153
249,7	0,173
250,1	0,218
250,6	0,238
251	0,28
251,5	0,33
252	0,388
252,4	0,46
252,9	0,536
253,4	0,597
253,8	0,672
254,3	0,754
254,8	0,822
255,2	0,886
255,7	0,962
256,1	1,022
256,6	1,083
257,1	1,146
257,5	1,196
258	1,232
258,5	1,284
258,9	1,313
259,4	1,348
259,9	1,37
260,3	1,403
260,8	1,406
261,2	1,439
261,7	1,462
262,2	1,484
262,6	1,501
263,1	1,524
263,6	1,539
264	1,573
264,5	1,579
264,9	1,586
265,4	1,607
265,9	1,642
266,3	1,644
266,8	1,661
267,3	1,682
267,7	1,707
268,2	1,72
268,7	1,725
269,1	1,725
269,6	1,751
270	1,756
270,5	1,754
271	1,779
271,4	1,797
271,9	1,805
272,4	1,796
272,8	1,803
273,3	1,804
273,7	1,815
274,2	1,812
274,7	1,814
275,1	1,804
275,6	1,825
276,1	1,816
276,5	1,824
277	1,832
277,4	1,827
277,9	1,823
278,4	1,833
278,8	1,813
279,3	1,805
279,8	1,79
280,2	1,763
280,7	1,723
281,1	1,683
281,6	1,634
282,1	1,583
282,5	1,528
283	1,469
283,4	1,411
283,9	1,353
284,4	1,294
284,8	1,24
285,3	1,186
285,8	1,136
286,2	1,092
286,7	1,048
287,1	1,013
287,6	0,983
288,1	0,954
288,5	0,932
289	0,912
289,5	0,896
289,9	0,882
290,4	0,868
290,8	0,856
291,3	0,847
291,8	0,838
292,2	0,831
292,7	0,823
293,1	0,816
293,6	0,812
294,1	0,806
294,5	0,802
295	0,799
295,5	0,794
295,9	0,79
296,4	0,788
296,8	0,785
297,3	0,782
297,8	0,78
298,2	0,778
298,7	0,776
299,1	0,773
299,6	0,77
300,1	0,768
300,5	0,765
301	0,762
301,5	0,759
301,9	0,757
302,4	0,753
302,8	0,75
303,3	0,746
303,8	0,742
304,2	0,738
304,7	0,733
305,1	0,728
305,6	0,725
306,1	0,72
306,5	0,715
307	0,712
307,4	0,707
307,9	0,703
308,4	0,698
308,8	0,692
309,3	0,687
309,8	0,682
310,2	0,677
310,7	0,672
311,1	0,666
311,6	0,661
312,1	0,657
312,5	0,651
313	0,646
313,4	0,641
313,9	0,635
314,4	0,629
314,8	0,624
315,3	0,617
315,7	0,611
316,2	0,605
316,7	0,599
317,1	0,592
317,6	0,586
318	0,579
318,5	0,573
319	0,568
319,4	0,561
319,9	0,555
320,3	0,548
320,8	0,542
321,3	0,536
321,7	0,53
322,2	0,523
322,6	0,517
323,1	0,51
323,6	0,504
324	0,498
324,5	0,491
324,9	0,484
325,4	0,478
325,9	0,472
326,3	0,467
326,8	0,46
327,2	0,454
327,7	0,448
328,2	0,442
328,6	0,435
329,1	0,429
329,5	0,423
330	0,416
330,5	0,411
330,9	0,405
331,4	0,4
331,8	0,395
332,3	0,389
332,8	0,384
333,2	0,378
333,7	0,372
334,1	0,366
334,6	0,361
335,1	0,355
335,5	0,35
336	0,345
336,4	0,34
336,9	0,335
337,4	0,33
337,8	0,325
338,3	0,32
338,7	0,314
339,2	0,309
339,7	0,304
340,1	0,299
340,6	0,293
341	0,288
341,5	0,284
342	0,28
342,4	0,276
342,9	0,271
343,3	0,267
343,8	0,262
344,2	0,258
344,7	0,254
345,2	0,25
345,6	0,247
346,1	0,243
346,5	0,239
347	0,235
347,5	0,231
347,9	0,227
348,4	0,223
348,8	0,219
349,3	0,216
349,8	0,212
350,2	0,208
350,7	0,205
351,1	0,201
351,6	0,198
352	0,195
352,5	0,192
353	0,189
353,4	0,186
353,9	0,183
354,3	0,179
354,8	0,176
355,3	0,174
355,7	0,17
356,2	0,167
356,6	0,164
357,1	0,162
357,5	0,16
358	0,157
358,5	0,154
358,9	0,153
359,4	0,151
359,8	0,148
360,3	0,146
360,8	0,143
361,2	0,141
361,7	0,139
362,1	0,137
362,6	0,134
363	0,132
363,5	0,13
364	0,127
364,4	0,126
364,9	0,124
365,3	0,122
365,8	0,12
366,3	0,118
366,7	0,116
367,2	0,115
367,6	0,113
368,1	0,111
368,5	0,11
369	0,108
369,5	0,106
369,9	0,106
370,4	0,104
370,8	0,102
371,3	0,1
371,7	0,098
372,2	0,097
372,7	0,095
373,1	0,093
373,6	0,093
374	0,092
374,5	0,09
374,9	0,089
375,4	0,087
375,9	0,086
376,3	0,085
376,8	0,083
377,2	0,082
377,7	0,08
378,2	0,079
378,6	0,078
379,1	0,077
379,5	0,076
380	0,075
380,4	0,074
380,9	0,074
381,4	0,072
381,8	0,072
382,3	0,071
382,7	0,07
383,2	0,068
383,6	0,067
384,1	0,066
384,6	0,066
385	0,064
385,5	0,064
385,9	0,063
386,4	0,062
386,8	0,061
387,3	0,061
387,7	0,06
388,2	0,059
388,7	0,058
389,1	0,058
389,6	0,057
390	0,056
390,5	0,055
390,9	0,053
391,4	0,053
391,9	0,052
392,3	0,051
392,8	0,05
393,2	0,05
393,7	0,05
394,1	0,049
394,6	0,048
395,1	0,048
395,5	0,046
396	0,046
396,4	0,045
396,9	0,044
397,3	0,043
397,8	0,042
398,2	0,042
398,7	0,042
399,2	0,041
399,6	0,041
400,1	0,041
400,5	0,041
401	0,04
401,4	0,04
401,9	0,04
402,4	0,039
402,8	0,039
403,3	0,038
403,7	0,038
404,2	0,038
404,6	0,037
405,1	0,036
405,5	0,036
406	0,035
406,5	0,035
406,9	0,035
407,4	0,034
407,8	0,034
408,3	0,034
408,7	0,033
409,2	0,033
409,6	0,032
410,1	0,032
410,6	0,031
411	0,03
411,5	0,03
411,9	0,03
412,4	0,029
412,8	0,028
413,3	0,028
413,7	0,027
414,2	0,027
414,7	0,026
415,1	0,026
415,6	0,026
416	0,026
416,5	0,025
416,9	0,025
417,4	0,025
417,8	0,025
418,3	0,025
418,8	0,024
419,2	0,023
419,7	0,023
420,1	0,022
420,6	0,021
421	0,02
421,5	0,02
421,9	0,02
422,4	0,02
422,8	0,02
423,3	0,021
423,8	0,02
424,2	0,021
424,7	0,02
425,1	0,02
425,6	0,02
426	0,019
426,5	0,019
426,9	0,019
427,4	0,017
427,9	0,017
428,3	0,017
428,8	0,016
429,2	0,016
429,7	0,016
430,1	0,016
430,6	0,016
431	0,016
431,5	0,015
431,9	0,015
432,4	0,015
432,8	0,014
433,3	0,014
433,8	0,014
434,2	0,013
434,7	0,013
435,1	0,012
435,6	0,012
436	0,012
436,5	0,012
436,9	0,012
437,4	0,012
437,8	0,012
438,3	0,011
438,8	0,011
439,2	0,012
439,7	0,012
440,1	0,011
440,6	0,011
441	0,011
441,5	0,01
441,9	0,011
442,4	0,01
442,8	0,009
443,3	0,009
443,7	0,009
444,2	0,009
444,7	0,009
445,1	0,008
445,6	0,009
446	0,009
446,5	0,008
446,9	0,009
447,4	0,009
447,8	0,009
448,3	0,009
448,7	0,009
449,2	0,009
449,6	0,009
450,1	0,009
450,6	0,009
451	0,009
451,5	0,009
451,9	0,008
452,4	0,008
452,8	0,008
453,3	0,007
453,7	0,007
454,2	0,006
454,6	0,006
455,1	0,006
455,5	0,006
456	0,006
456,4	0,006
456,9	0,006
457,3	0,006
457,8	0,005
458,3	0,005
458,7	0,005
459,2	0,005
459,6	0,005
460,1	0,005
460,5	0,005
461	0,006
461,4	0,006
461,9	0,006
462,3	0,006
462,8	0,005
463,2	0,005
463,7	0,004
464,1	0,004
464,6	0,004
465	0,004
465,5	0,004
466	0,004
466,4	0,005
466,9	0,005
467,3	0,005
467,8	0,005
468,2	0,005
468,7	0,005
469,1	0,005
469,6	0,005
470	0,005
470,5	0,006
470,9	0,006
471,4	0,006
471,8	0,006
472,3	0,005
472,7	0,004
473,2	0,004
473,6	0,004
474,1	0,003
474,5	0,003
475	0,002
475,4	0,002
475,9	0,003
476,4	0,002
476,8	0,003
477,3	0,002
477,7	0,002
478,2	0,003
478,6	0,004
479,1	0,004
479,5	0,004
480	0,003
480,4	0,003
480,9	0,003
481,3	0,003
481,8	0,003
482,2	0,003
482,7	0,003
483,1	0,003
483,6	0,003
484	0,003
484,5	0,002
484,9	0,001
485,4	0
485,8	-0,001
486,3	0,002
486,7	0,003
487,2	0,003
487,6	0,004
488,1	0,005
488,5	0,005
489	0,007
489,4	0,004
489,9	0,003
490,4	0,003
490,8	0,003
491,3	0,003
491,7	0,003
492,2	0,003
492,6	0,002
493,1	0,003
493,5	0,002
494	0,002
494,4	0,002
494,9	0,002
495,3	0,002
495,8	0,002
496,2	0,002
496,7	0,002
497,1	0,002
497,6	0,002
498	0,002
498,5	0,002
498,9	0,002
499,4	0,002
499,8	0,003
500,3	0,002
500,7	0,003
501,2	0,003
501,6	0,003
502,1	0,003
502,5	0,003
503	0,003
503,4	0,003
503,9	0,002
504,3	0,002
504,8	0,002
505,2	0,002
505,7	0,002
506,1	0,002
506,6	0,003
507	0,003
507,5	0,003
507,9	0,003
508,4	0,003
508,8	0,003
509,3	0,003
509,7	0,002
510,2	0,002
510,6	0,002
511,1	0,002
511,5	0,002
512	0,002
512,4	0,002
512,9	0,003
513,3	0,002
513,8	0,002
514,2	0,002
514,7	0,002
515,1	0,002
515,6	0,002
516	0,002
516,5	0,003
516,9	0,003
517,4	0,003
517,8	0,004
518,3	0,003
518,7	0,002
519,2	0,002
519,6	0,002
520,1	0,002
520,5	0,002
521	0,001
521,4	0,002
521,9	0,003
522,3	0,003
522,8	0,003
523,2	0,003
523,7	0,003
524,1	0,003
524,6	0,003
525	0,002
525,5	0,002
525,9	0,001
526,4	0,001
526,8	0,001
527,3	0,001
527,7	0
528,2	0
528,6	0
529,1	0
529,5	0
530	0,001
530,4	0,001
530,9	0,001
531,3	0,002
531,8	0,002
532,2	0,002
532,6	0,002
533,1	0,002
533,5	0,001
534	0,002
534,4	0,002
534,9	0,002
535,3	0,002
535,8	0,002
536,2	0,003
536,7	0,003
537,1	0,002
537,6	0,002
538	0,002
538,5	0,002
538,9	0,002
539,4	0,002
539,8	0,002
540,3	0,002
540,7	0,002
541,2	0,002
541,6	0,002
542,1	0,002
542,5	0,002
543	0,002
543,4	0,002
543,9	0,002
544,3	0,002
544,8	0,002
545,2	0,002
545,7	0,002
546,1	0,002
546,5	0,002
547	0,002
547,4	0,001
547,9	0,001
548,3	0,002
548,8	0,002
549,2	0,003
549,7	0,003
550,1	0,003
550,6	0,003
551	0,003
551,5	0,003
551,9	0,003
552,4	0,003
552,8	0,003
553,3	0,003
553,7	0,002
554,2	0,002
554,6	0,002
555,1	0,003
555,5	0,003
555,9	0,003
556,4	0,003
556,8	0,003
557,3	0,003
557,7	0,002
558,2	0,002
558,6	0,002
559,1	0,001
559,5	0,002
560	0,002
560,4	0,002
560,9	0,003
561,3	0,003
561,8	0,004
562,2	0,004
562,7	0,003
563,1	0,002
563,6	0,002
564	0,002
564,4	0,002
564,9	0,002
565,3	0,002
565,8	0,002
566,2	0,002
566,7	0,002
567,1	0,002
567,6	0,002
568	0,002
568,5	0,001
568,9	0,001
569,4	0,001
569,8	0,002
570,3	0,002
570,7	0,002
571,1	0,002
571,6	0,002
572	0,003
572,5	0,003
572,9	0,002
573,4	0,002
573,8	0,002
574,3	0,002
574,7	0,002
575,2	0,001
575,6	0,002
576,1	0,002
576,5	0,002
576,9	0,002
577,4	0,002
577,8	0,002
578,3	0,002
578,7	0,002
579,2	0,002
579,6	0,002
580,1	0,002
580,5	0,002
581	0,002
581,4	0,002
581,9	0,002
582,3	0,002
582,7	0,002
583,2	0,002
583,6	0,003
584,1	0,003
584,5	0,003
585	0,003
585,4	0,003
585,9	0,003
586,3	0,003
586,8	0,003
587,2	0,003
587,6	0,003
588,1	0,003
588,5	0,003
589	0,003
589,4	0,003
589,9	0,003
590,3	0,003
590,8	0,003
591,2	0,003
591,7	0,003
592,1	0,003
592,5	0,002
593	0,002
593,4	0,002
593,9	0,001
594,3	0,001
594,8	0,001
595,2	0,001
595,7	0,002
596,1	0,002
596,6	0,002
597	0,002
597,4	0,003
597,9	0,003
598,3	0,003
598,8	0,003
599,2	0,003
599,7	0,003
600,1	0,003
600,6	0,002
601	0,003
601,4	0,003
601,9	0,003
602,3	0,002
602,8	0,002
603,2	0,002
603,7	0,003
604,1	0,003
604,6	0,003
605	0,003
605,4	0,003
605,9	0,003
606,3	0,003
606,8	0,003
607,2	0,003
607,7	0,003
608,1	0,003
608,6	0,003
609	0,003
609,4	0,003
609,9	0,003
610,3	0,003
610,8	0,003
611,2	0,003
611,7	0,003
612,1	0,003
612,6	0,003
613	0,003
613,4	0,003
613,9	0,004
614,3	0,003
614,8	0,003
615,2	0,003
615,7	0,004
616,1	0,004
616,6	0,004
617	0,003
617,4	0,003
617,9	0,003
618,3	0,003
618,8	0,003
619,2	0,002
619,7	0,002
620,1	0,002
620,5	0,002
621	0,002
621,4	0,002
621,9	0,002
622,3	0,002
622,8	0,002
623,2	0,003
623,6	0,003
624,1	0,003
624,5	0,003
625	0,003
625,4	0,003
625,9	0,003
626,3	0,003
626,8	0,003
627,2	0,003
627,6	0,003
628,1	0,003
628,5	0,003
629	0,003
629,4	0,003
629,9	0,003
630,3	0,003
630,7	0,003
631,2	0,003
631,6	0,003
632,1	0,003
632,5	0,003
633	0,003
633,4	0,003
633,8	0,003
634,3	0,003
634,7	0,003
635,2	0,003
635,6	0,002
636,1	0,002
636,5	0,002
636,9	0,002
637,4	0,003
637,8	0,003
638,3	0,003
638,7	0,003
639,2	0,003
639,6	0,003
640	0,003
640,5	0,002
640,9	0,002
641,4	0,002
641,8	0,003
642,2	0,003
642,7	0,003
643,1	0,003
643,6	0,003
644	0,003
644,5	0,003
644,9	0,002
645,3	0,003
645,8	0,003
646,2	0,003
646,7	0,003
647,1	0,002
647,6	0,002
648	0,002
648,4	0,001
648,9	0,001
649,3	0,001
649,8	0,001
650,2	0,001
650,6	0,002
651,1	0,002
651,5	0,002
652	0,002
652,4	0,002
652,9	0,002
653,3	0,002
653,7	0,001
654,2	0,001
654,6	0
655,1	-0,005
655,5	-0,011
655,9	-0,006
656,4	-0,005
656,8	-0,004
657,3	-0,001
657,7	-0
658,2	0,001
658,6	0,004
659	0,006
659,5	0,008
659,9	0,015
660,4	0,011
660,8	0,008
661,2	0,007
661,7	0,006
662,1	0,005
662,6	0,004
663	0,004
663,4	0,003
663,9	0,003
664,3	0,003
664,8	0,003
665,2	0,003
665,6	0,003
666,1	0,003
666,5	0,003
667	0,003
667,4	0,003
667,9	0,003
668,3	0,003
668,7	0,003
669,2	0,003
669,6	0,003
670,1	0,003
670,5	0,002
670,9	0,003
671,4	0,003
671,8	0,002
672,3	0,002
672,7	0,003
673,1	0,002
673,6	0,002
674	0,002
674,5	0,002
674,9	0,002
675,3	0,002
675,8	0,002
676,2	0,002
676,7	0,003
677,1	0,003
677,5	0,003
678	0,002
678,4	0,002
678,9	0,002
679,3	0,002
679,7	0,002
680,2	0,002
680,6	0,002
681,1	0,002
681,5	0,002
681,9	0,002
682,4	0,003
682,8	0,003
683,3	0,003
683,7	0,003
684,1	0,003
684,6	0,003
685	0,003
685,5	0,003
685,9	0,002
686,3	0,002
686,8	0,003
687,2	0,003
687,7	0,003
688,1	0,003
688,5	0,003
689	0,003
689,4	0,003
689,9	0,003
690,3	0,003
690,7	0,003
691,2	0,003
691,6	0,003
692	0,003
692,5	0,003
692,9	0,003
693,4	0,003
693,8	0,003
694,2	0,003
694,7	0,003
695,1	0,003
695,6	0,003
696	0,003
696,4	0,003
696,9	0,003
697,3	0,002
697,8	0,003
698,2	0,003
698,6	0,003
699,1	0,002
699,5	0,003
699,9	0,003
700,4	0,003
700,8	0,002
701,3	0,002
701,7	0,002
702,1	0,002
702,6	0,002
703	0,002
703,5	0,002
703,9	0,002
704,3	0,002
704,8	0,002
705,2	0,002
705,6	0,002
706,1	0,002
706,5	0,002
707	0,002
707,4	0,002
707,8	0,002
708,3	0,002
708,7	0,002
709,2	0,002
709,6	0,003
710	0,003
710,5	0,003
710,9	0,003
711,3	0,003
711,8	0,003
712,2	0,003
712,7	0,003
713,1	0,002
713,5	0,002
714	0,002
714,4	0,002
714,8	0,002
715,3	0,002
715,7	0,002
716,2	0,002
716,6	0,002
717	0,002
717,5	0,002
717,9	0,002
718,3	0,002
718,8	0,002
719,2	0,002
719,7	0,002
720,1	0,002
720,5	0,002
721	0,003
721,4	0,003
721,8	0,003
722,3	0,003
722,7	0,003
723,2	0,003
723,6	0,003
724	0,003
724,5	0,003
724,9	0,003
725,3	0,003
725,8	0,003
726,2	0,003
726,7	0,003
727,1	0,003
727,5	0,003
728	0,003
728,4	0,003
728,8	0,003
729,3	0,003
729,7	0,003
730,1	0,003
730,6	0,003
731	0,003
731,5	0,002
731,9	0,003
732,3	0,003
732,8	0,003
733,2	0,003
733,6	0,003
734,1	0,003
734,5	0,003
734,9	0,003
735,4	0,003
735,8	0,003
736,3	0,003
736,7	0,002
737,1	0,002
737,6	0,002
738	0,002
738,4	0,002
738,9	0,002
739,3	0,002
739,7	0,002
740,2	0,002
740,6	0,002
741,1	0,003
741,5	0,003
741,9	0,003
742,4	0,003
742,8	0,003
743,2	0,003
743,7	0,004
744,1	0,003
744,5	0,003
745	0,003
745,4	0,003
745,8	0,003
746,3	0,003
746,7	0,003
747,2	0,003
747,6	0,002
748	0,002
748,5	0,002
748,9	0,002
749,3	0,002
749,8	0,002
750,2	0,002
750,6	0,002
751,1	0,003
751,5	0,003
751,9	0,003
752,4	0,003
752,8	0,003
753,3	0,003
753,7	0,003
754,1	0,003
754,6	0,003
755	0,003
755,4	0,003
755,9	0,003
756,3	0,003
756,7	0,003
757,2	0,003
757,6	0,003
758	0,003
758,5	0,003
758,9	0,003
759,3	0,004
759,8	0,004
760,2	0,004
760,6	0,004
761,1	0,003
761,5	0,003
761,9	0,003
762,4	0,003
762,8	0,003
763,3	0,003
763,7	0,002
764,1	0,003
764,6	0,003
765	0,002
765,4	0,002
765,9	0,002
766,3	0,002
766,7	0,002
767,2	0,002
767,6	0,002
768	0,002
768,5	0,002
768,9	0,002
769,3	0,002
769,8	0,002
770,2	0,002
770,6	0,003
771,1	0,003
771,5	0,003
771,9	0,003
772,4	0,003
772,8	0,003
773,2	0,003
773,7	0,003
774,1	0,003
774,5	0,003
775	0,003
775,4	0,003
775,8	0,003
776,3	0,003
776,7	0,003
777,1	0,003
777,6	0,003
778	0,003
778,4	0,003
778,9	0,003
779,3	0,003
779,7	0,003
780,2	0,003
780,6	0,003
781	0,003
781,5	0,003
781,9	0,002
782,3	0,002
782,8	0,002
783,2	0,002
783,6	0,002
784,1	0,002
784,5	0,002
784,9	0,003
785,4	0,003
785,8	0,003
786,2	0,003
786,7	0,003
787,1	0,003
787,5	0,003
788	0,003
788,4	0,002
788,8	0,002
789,3	0,002
789,7	0,002
790,1	0,002
790,6	0,002
791	0,002
791,4	0,002
791,9	0,002
792,3	0,002
792,7	0,003
793,2	0,003
793,6	0,003
794	0,003
794,5	0,003
794,9	0,003
795,3	0,003
795,8	0,003
796,2	0,003
796,6	0,003
797,1	0,004
797,5	0,004
797,9	0,004
798,4	0,004
798,8	0,003
799,2	0,003
799,7	0,003
800,1	0,003
800,5	0,003
801	0,003
801,4	0,003
801,8	0,003
802,2	0,003
802,7	0,003
803,1	0,003
803,5	0,003
804	0,003
804,4	0,003
804,8	0,003
805,3	0,003
805,7	0,003
806,1	0,003
806,6	0,003
807	0,003
807,4	0,003
807,9	0,003
808,3	0,003
808,7	0,003
809,2	0,003
809,6	0,003
810	0,003
810,4	0,003
810,9	0,003
811,3	0,002
811,7	0,003
812,2	0,002
812,6	0,002
813	0,002
813,5	0,002
813,9	0,002
814,3	0,002
814,8	0,002
815,2	0,002
815,6	0,002
816,1	0,002
816,5	0,002
816,9	0,002
817,3	0,003
817,8	0,003
818,2	0,003
818,6	0,003
819,1	0,003
819,5	0,004
819,9	0,003
820,4	0,003
820,8	0,003
821,2	0,003
821,7	0,002
822,1	0,002
822,5	0,002
822,9	0,002
823,4	0,002
823,8	0,003
824,2	0,003
824,7	0,003
825,1	0,003
825,5	0,003
826	0,002
826,4	0,003
826,8	0,002
827,3	0,003
827,7	0,002
828,1	0,002
828,5	0,002
829	0,002
829,4	0,002
829,8	0,002
830,3	0,002
830,7	0,002
831,1	0,002
831,6	0,003
832	0,003
832,4	0,003
832,8	0,003
833,3	0,002
833,7	0,003
834,1	0,002
834,6	0,003
835	0,003
835,4	0,002
835,8	0,003
836,3	0,003
836,7	0,002
837,1	0,003
837,6	0,003
838	0,002
838,4	0,003
838,9	0,003
839,3	0,003
839,7	0,003
840,1	0,003
840,6	0,003
841	0,003
841,4	0,003
841,9	0,003
842,3	0,003
842,7	0,003
843,1	0,003
843,6	0,004
844	0,003
844,4	0,004
844,9	0,004
845,3	0,004
845,7	0,003
846,2	0,003
846,6	0,003
847	0,004
847,4	0,003
847,9	0,003
848,3	0,003
848,7	0,003
849,2	0,003
849,6	0,003
850	0,003
850,4	0,003
850,9	0,003
851,3	0,003
851,7	0,003
852,2	0,003
852,6	0,003
853	0,003
853,4	0,003
853,9	0,003
854,3	0,003
854,7	0,003
855,2	0,003
855,6	0,003
856	0,003
856,4	0,003
856,9	0,003
857,3	0,002
857,7	0,002
858,2	0,002
858,6	0,002
859	0,002
859,4	0,003
859,9	0,003
860,3	0,003
860,7	0,003
861,1	0,003
861,6	0,003
862	0,003
862,4	0,002
862,9	0,002
863,3	0,002
863,7	0,001
864,1	0,002
864,6	0,002
865	0,002
865,4	0,002
865,9	0,002
866,3	0,002
866,7	0,002
867,1	0,002
867,6	0,001
868	0,001
868,4	0,001
868,8	0,001
869,3	0,001
869,7	0,002
870,1	0,002
870,6	0,002
871	0,002
871,4	0,002
871,8	0,001
872,3	0,001
872,7	0,001
873,1	0,001
873,5	0,002
874	0,002
874,4	0,002
874,8	0,002
875,3	0,002
875,7	0,002
876,1	0,002
876,5	0,002
877	0,002
877,4	0,002
877,8	0,002
878,2	0,002
878,7	0,002
879,1	0,002
879,5	0,002
879,9	0,001
880,4	0,001
880,8	0,001
881,2	0,002
881,7	0,002
882,1	0,002
882,5	0,003
882,9	0,003
883,4	0,003
883,8	0,003
884,2	0,003
884,6	0,003
885,1	0,003
885,5	0,002
885,9	0,002
886,3	0,002
886,8	0,002
887,2	0,002
887,6	0,002
888	0,002
888,5	0,002
888,9	0,001
889,3	0,001
889,8	0,001
890,2	0,001
890,6	0,001
891	0,001
891,5	0,001
891,9	0,001
892,3	0,001
892,7	0,002
893,2	0,002
893,6	0,002
894	0,003
894,4	0,003
894,9	0,003
895,3	0,004
895,7	0,003
896,1	0,003
896,6	0,003
897	0,002
897,4	0,002
897,8	0,002
898,3	0,002
898,7	0,002
899,1	0,003
899,5	0,003
900	0,003
900,4	0,003
900,8	0,003
901,2	0,003
901,7	0,003
902,1	0,002
902,5	0,002
902,9	0,002
903,4	0,002
903,8	0,002
904,2	0,002
904,6	0,002
905,1	0,002
905,5	0,002
905,9	0,002
906,3	0,002
906,8	0,002
907,2	0,001
907,6	0,002
908	0,001
908,5	0,001
908,9	0,001
909,3	0,001
909,7	0,001
910,2	0,001
910,6	0,001
911	0,001
911,4	0,001
911,9	0,001
912,3	0
912,7	0,001
913,1	0
913,6	0
914	0
914,4	0,001
914,8	0,001
915,3	0,001
915,7	0,001
916,1	0,002
916,5	0,002
916,9	0,002
917,4	0,002
917,8	0,002
918,2	0,002
918,6	0,002
919,1	0,002
919,5	0,002
919,9	0,002
920,3	0,002
920,8	0,002
921,2	0,002
921,6	0,002
922	0,002
922,5	0,001
922,9	0,002
923,3	0,001
923,7	0,001
924,2	0,001
924,6	0,001
925	0,001
925,4	0,001
925,8	0,001
926,3	0,001
926,7	0,001
927,1	0,001
927,5	0,001
928	0,001
928,4	0,001
928,8	0,001
929,2	0,001
929,7	0,001
930,1	0,001
930,5	0,001
930,9	0,001
931,3	0,001
931,8	0,001
932,2	0,001
932,6	0,001
933	0,001
933,5	0,001
933,9	0,001
934,3	0,002
934,7	0,002
935,2	0,002
935,6	0,002
936	0,002
936,4	0,002
936,8	0,002
937,3	0,002
937,7	0,002
938,1	0,002
938,5	0,002
939	0,002
939,4	0,002
939,8	0,002
940,2	0,002
940,6	0,002
941,1	0,001
941,5	0,001
941,9	0
942,3	0
942,8	0
943,2	0
943,6	0,001
944	0
944,4	0
944,9	0
945,3	0
945,7	0
946,1	0
946,6	0
947	0
947,4	0
947,8	0,001
948,2	0,001
948,7	0,001
949,1	0,001
949,5	0,001
949,9	0,001
950,3	0,001
950,8	0,001
951,2	0,001
951,6	0,001
952	0,001
952,5	0,001
952,9	0,001
953,3	0,001
953,7	0
954,1	0
954,6	0
955	0
955,4	-0
955,8	-0
956,2	-0
956,7	-0,001
957,1	-0,001
957,5	-0,001
957,9	-0,001
958,3	-0,001
958,8	-0,001
959,2	-0,001
959,6	-0,001
960	-0,001
960,5	-0,001
960,9	-0,001
961,3	-0,001
961,7	-0
962,1	-0,001
962,6	-0
963	-0
963,4	-0
963,8	-0
964,2	-0,001
964,7	-0
965,1	0
965,5	0
965,9	-0
966,3	-0
966,8	-0
967,2	0
967,6	0
968	-0,001
968,4	-0,001
968,9	-0,001
969,3	-0,001
969,7	-0,001
970,1	-0,001
970,5	-0,002
971	-0,002
971,4	-0,002
971,8	-0,003
972,2	-0,003
972,6	-0,003
973,1	-0,003
973,5	-0,003
973,9	-0,003
974,3	-0,003
974,7	-0,002
975,2	-0,002
975,6	-0,002
976	-0,001
976,4	-0,001
976,8	-0,001
977,3	-0
977,7	-0,001
978,1	-0,001
978,5	-0,001
978,9	-0,001
979,4	-0,001
979,8	-0,002
980,2	-0,002
980,6	-0,002
981	-0,002
981,5	-0,002
981,9	-0,002
982,3	-0,001
982,7	-0,001
983,1	-0,001
983,6	-0,001
984	-0,001
984,4	-0,001
984,8	-0,001
985,2	-0,001
985,6	-0,001
986,1	-0,001
986,5	-0,001
986,9	-0
987,3	-0,001
987,7	-0,001
988,2	-0
988,6	-0
989	0
989,4	0
989,8	-0
990,3	-0
990,7	0
991,1	-0
991,5	0
991,9	-0
992,3	-0
992,8	-0
993,2	0
993,6	-0
994	-0
994,4	0
994,9	-0
995,3	-0
995,7	-0
996,1	-0
996,5	-0
996,9	-0,001
997,4	-0,002
997,8	-0,002
998,2	-0,001
998,6	-0,001
999	-0,001
999,5	-0,001
999,9	-0,001
1000,3	-0,001
1000,7	-0
1001,1	-0
1001,5	-0
1002	-0
1002,4	-0
1002,8	-0
1003,2	-0
1003,6	-0
1004	-0
1004,5	-0,001
1004,9	-0,001
1005,3	-0,001
1005,7	-0,001
1006,1	-0,001
1006,6	-0,001
1007	-0,001
1007,4	-0,001
1007,8	-0
1008,2	-0
1008,6	-0
1009,1	-0
1009,5	0
1009,9	0,001
1010,3	0,001
1010,7	0
1011,1	0
1011,6	0,001
1012	0,001
1012,4	-0
1012,8	-0
1013,2	-0
1013,6	0
1014,1	0
1014,5	-0
1014,9	-0
1015,3	0
1015,7	0
1016,1	0
1016,6	0
1017	-0
1017,4	-0,001
1017,8	-0,001
1018,2	-0,001
1018,6	-0,002
1019,1	-0,002
1019,5	-0,002
1019,9	-0,002
1020,3	-0,002
1020,7	-0,002
1021,1	-0,002
1021,6	-0,002
1022	-0,002
1022,4	-0,003
1022,8	-0,003
1023,2	-0,003
1023,6	-0,003
1024,1	-0,002
1024,5	-0,002
1024,9	-0,002
1025,3	-0,002
1025,7	-0,002
1026,1	-0,002
1026,6	-0,002
1027	-0,002
1027,4	-0,002
1027,8	-0,002
1028,2	-0,002
1028,6	-0,002
1029	-0,002
1029,5	-0,002
1029,9	-0,002
1030,3	-0,002
1030,7	-0,003
1031,1	-0,003
1031,5	-0,003
1032	-0,002
1032,4	-0,003
1032,8	-0,003
1033,2	-0,003
1033,6	-0,004
1034	-0,004
1034,4	-0,004
1034,9	-0,004
1035,3	-0,004
1035,7	-0,004
1036,1	-0,003
1036,5	-0,003
1036,9	-0,003
1037,4	-0,003
1037,8	-0,003
1038,2	-0,003
1038,6	-0,002
1039	-0,003
1039,4	-0,003
1039,8	-0,003
1040,3	-0,003
1040,7	-0,003
1041,1	-0,003
1041,5	-0,004
1041,9	-0,003
1042,3	-0,003
1042,7	-0,004
1043,2	-0,003
1043,6	-0,003
1044	-0,003
1044,4	-0,002
1044,8	-0,002
1045,2	-0,003
1045,6	-0,003
1046,1	-0,003
1046,5	-0,003
1046,9	-0,002
1047,3	-0,003
1047,7	-0,003
1048,1	-0,003
1048,5	-0,004
1049	-0,004
1049,4	-0,004
1049,8	-0,004
1050,2	-0,004
1050,6	-0,005
1051	-0,004
1051,4	-0,004
1051,9	-0,005
1052,3	-0,004
1052,7	-0,005
1053,1	-0,005
1053,5	-0,005
1053,9	-0,005
1054,3	-0,005
1054,8	-0,005
1055,2	-0,005
1055,6	-0,005
1056	-0,006
1056,4	-0,006
1056,8	-0,006
1057,2	-0,006
1057,6	-0,007
1058,1	-0,007
1058,5	-0,007
1058,9	-0,006
1059,3	-0,006
1059,7	-0,006
1060,1	-0,006
1060,5	-0,005
1061	-0,004
1061,4	-0,004
1061,8	-0,005
1062,2	-0,005
1062,6	-0,004
1063	-0,004
1063,4	-0,004
1063,8	-0,004
1064,3	-0,004
1064,7	-0,004
1065,1	-0,003
1065,5	-0,004
1065,9	-0,005
1066,3	-0,005
1066,7	-0,005
1067,1	-0,005
1067,6	-0,006
1068	-0,007
1068,4	-0,007
1068,8	-0,007
1069,2	-0,007
1069,6	-0,008
1070	-0,008
1070,4	-0,007
1070,9	-0,007
1071,3	-0,007
1071,7	-0,007
1072,1	-0,007
1072,5	-0,007
1072,9	-0,007
1073,3	-0,007
1073,7	-0,007
1074,2	-0,007
1074,6	-0,005
1075	-0,005
1075,4	-0,005
1075,8	-0,005
1076,2	-0,006
1076,6	-0,005
1077	-0,006
1077,5	-0,007
1077,9	-0,008
1078,3	-0,009
1078,7	-0,009
1079,1	-0,01
1079,5	-0,01
1079,9	-0,01
1080,3	-0,009
1080,7	-0,009
1081,2	-0,009
1081,6	-0,008
1082	-0,008
1082,4	-0,01
1082,8	-0,009
1083,2	-0,01
1083,6	-0,01
1084	-0,01
1084,5	-0,012
1084,9	-0,012
1085,3	-0,011
1085,7	-0,012
1086,1	-0,011
1086,5	-0,012
1086,9	-0,012
1087,3	-0,013
1087,7	-0,014
1088,2	-0,016
1088,6	-0,016
1089	-0,018
1089,4	-0,018
1089,8	-0,022
1090,2	-0,02
1090,6	-0,023
1091	-0,022
1091,4	-0,024
1091,9	-0,024
1092,3	-0,025
1092,7	-0,022
1093,1	-0,025
1093,5	-0,026
1093,9	-0,029
1094,3	-0,03
1094,7	-0,029
1095,1	-0,031
1095,5	-0,035
1096	-0,036
1096,4	-0,042
1096,8	-0,046
1097,2	-0,045
1097,6	-0,051
1098	-0,051
1098,4	-0,059
1098,8	-0,065
1099,2	-0,059
1099,6	-0,057
1100,1	-0,065
1100,5	-0,065
1100,9	-0,068
1101,3	-0,067
1101,7	-0,06
1102,1	-0,06
1102,5	-0,069
1102,9	-0,068
1103,3	-0,075
1103,7	-0,082
1104,2	-0,087
1104,6	-0,097
1105	-0,112
1105,4	-0,115
1105,8	-0,126
1106,2	-0,13
1106,6	-0,145
1107	-0,143
1107,4	-0,162
1107,8	-0,144
1108,3	-0,196
