Data from Subt2_16.txt Node
Date: Thu Aug 24 16:46:38 MSK 2023
User: vat
Spectrometer: MAYP114033
Trigger mode: 0
Integration Time (sec): 1,000000E0
Scans to average: 5
Electric dark correction enabled: true
Nonlinearity correction enabled: false
Boxcar width: 3
XAxis mode: Wavelengths
Number of Pixels in Spectrum: 2068
>>>>>Begin Spectral Data<<<<<
199,4	0,217
199,9	2,007
200,4	9,467
200,8	7,224
201,3	9,224
201,8	17,624
202,2	14,967
202,7	14,738
203,2	13,795
203,6	11,281
204,1	12,938
204,6	11,567
205	7,167
205,5	12,224
206	13,424
206,4	16,738
206,9	15,395
207,4	16,31
207,8	13,224
208,3	9,71
208,8	8,767
209,2	10,052
209,7	11,824
210,2	14,167
210,6	17,11
211,1	23,71
211,5	23,567
212	22,167
212,5	24,938
212,9	20,052
213,4	19,738
213,9	16,281
214,3	12,681
214,8	10,881
215,3	13,281
215,7	8,681
216,2	11,452
216,7	9,938
217,1	8,938
217,6	11,338
218,1	10,252
218,5	10,281
219	11,538
219,5	6,595
219,9	7,652
220,4	7,995
220,9	5,967
221,3	12,081
221,8	8,395
222,3	9,91
222,7	14,51
223,2	9,052
223,6	10,595
224,1	10,681
224,6	11,938
225	14,738
225,5	15,795
226	15,51
226,4	14,767
226,9	15,91
227,4	16,51
227,8	16,424
228,3	18,024
228,8	17,167
229,2	19,195
229,7	23,767
230,2	20,767
230,6	19,967
231,1	14,595
231,5	10,281
232	4,738
232,5	4,652
232,9	6,081
233,4	6,167
233,9	6,91
234,3	11,824
234,8	13,624
235,3	16,081
235,7	17,081
236,2	22,624
236,7	20,967
237,1	23,338
237,6	15,138
238,1	14,081
238,5	18,31
239	15,795
239,4	5,938
239,9	6,538
240,4	3,538
240,8	13,624
241,3	16,567
241,8	19,567
242,2	16,567
242,7	19,367
243,2	21,195
243,6	23,167
244,1	18,852
244,6	18,824
245	12,71
245,5	16,11
245,9	16,281
246,4	18,424
246,9	18,995
247,3	19,281
247,8	18,481
248,3	20,938
248,7	18,481
249,2	20,595
249,7	17,738
250,1	12,91
250,6	8,424
251	11,395
251,5	7,481
252	9,11
252,4	3,424
252,9	6,824
253,4	7,452
253,8	17,71
254,3	15,967
254,8	14,767
255,2	11,281
255,7	12,767
256,1	11,452
256,6	14,224
257,1	7,995
257,5	7,31
258	13,281
258,5	14,51
258,9	17,824
259,4	15,395
259,9	15,595
260,3	11,452
260,8	14,081
261,2	17,252
261,7	17,995
262,2	14,681
262,6	15,852
263,1	11,51
263,6	18,481
264	18,538
264,5	13,367
264,9	17,567
265,4	24,567
265,9	24,367
266,3	26,281
266,8	24,052
267,3	22,795
267,7	24,424
268,2	21,51
268,7	12,538
269,1	13,738
269,6	15,167
270	12,852
270,5	10,31
271	11,081
271,4	10,624
271,9	13,395
272,4	8,91
272,8	12,938
273,3	11,252
273,7	8,252
274,2	3,824
274,7	8,567
275,1	4,624
275,6	11,852
276,1	4,824
276,5	13,91
277	12,167
277,4	12,567
277,9	9,967
278,4	16,824
278,8	12,624
279,3	19,824
279,8	15,452
280,2	20,738
280,7	22,31
281,1	19,024
281,6	13,938
282,1	16,052
282,5	12,995
283	8,567
283,4	6,795
283,9	4,395
284,4	7,71
284,8	15,71
285,3	16,052
285,8	17,51
286,2	18,824
286,7	21,738
287,1	27,481
287,6	21,367
288,1	14,567
288,5	12,338
289	13,11
289,5	12,167
289,9	11,967
290,4	2,052
290,8	7,367
291,3	10,881
291,8	9,138
292,2	7,538
292,7	8,024
293,1	6,252
293,6	14,681
294,1	15,852
294,5	12,367
295	15,367
295,5	9,538
295,9	13,91
296,4	13,31
296,8	13,567
297,3	16,395
297,8	13,538
298,2	12,195
298,7	17,281
299,1	15,681
299,6	19,567
300,1	15,081
300,5	14,795
301	21,51
301,5	20,424
301,9	17,624
302,4	8,824
302,8	6,852
303,3	10,138
303,8	4,538
304,2	3,538
304,7	3,824
305,1	6,71
305,6	16,052
306,1	15,052
306,5	14,538
307	19,452
307,4	15,738
307,9	21,538
308,4	22,51
308,8	23,081
309,3	27,138
309,8	24,852
310,2	19,424
310,7	21,224
311,1	22,024
311,6	24,338
312,1	23,252
312,5	19,767
313	21,738
313,4	20,167
313,9	19,567
314,4	8,481
314,8	3,51
315,3	1,252
315,7	2,567
316,2	-1,948
316,7	5,538
317,1	4,167
317,6	10,767
318	14,395
318,5	14,738
319	17,681
319,4	18,567
319,9	17,167
320,3	19,652
320,8	19,11
321,3	17,881
321,7	23,624
322,2	20,624
322,6	26,224
323,1	25,824
323,6	23,167
324	22,881
324,5	20,51
324,9	15,567
325,4	13,138
325,9	12,195
326,3	10,624
326,8	12,852
327,2	15,767
327,7	17,252
328,2	20,252
328,6	17,567
329,1	21,824
329,5	23,938
330	27,452
330,5	29,167
330,9	23,31
331,4	26,224
331,8	29,395
332,3	25,195
332,8	21,795
333,2	17,281
333,7	11,281
334,1	16,995
334,6	6,338
335,1	8,538
335,5	4,995
336	8,881
336,4	9,11
336,9	16,31
337,4	21,195
337,8	21,452
338,3	21,052
338,7	19,681
339,2	13,881
339,7	17,452
340,1	11,367
340,6	11,052
341	21,195
341,5	23,195
342	30,252
342,4	27,795
342,9	25,824
343,3	27,995
343,8	25,652
344,2	25,424
344,7	21,481
345,2	21,624
345,6	26,052
346,1	25,481
346,5	31,31
347	28,224
347,5	28,167
347,9	28,167
348,4	24,367
348,8	28,424
349,3	27,71
349,8	16,395
350,2	19,738
350,7	18,795
351,1	20,967
351,6	30,71
352	29,652
352,5	37,11
353	45,91
353,4	51,595
353,9	57,538
354,3	61,624
354,8	61,652
355,3	71,024
355,7	81,395
356,2	98,081
356,6	109,367
357,1	118,481
357,5	136,738
358	159,452
358,5	181,367
358,9	206,91
359,4	231,51
359,8	261,881
360,3	304,395
360,8	359,11
361,2	410,024
361,7	472,224
362,1	538,481
362,6	605,424
363	678,481
363,5	755,595
364	827,652
364,4	904,338
364,9	986,224
365,3	1062,081
365,8	1140,681
366,3	1213,481
366,7	1284,081
367,2	1340,51
367,6	1390,138
368,1	1425,195
368,5	1447,767
369	1459,995
369,5	1468,452
369,9	1459,052
370,4	1443,567
370,8	1412,824
371,3	1372,51
371,7	1328,852
372,2	1279,138
372,7	1220,081
373,1	1154,852
373,6	1082,995
374	1020,624
374,5	958,481
374,9	901,652
375,4	837,138
375,9	775,252
376,3	711,71
376,8	660,367
377,2	609,824
377,7	559,224
378,2	503,395
378,6	464,538
379,1	427,538
379,5	396,652
380	363,967
380,4	326,11
380,9	299,51
381,4	280,167
381,8	259,767
382,3	233,967
382,7	220,595
383,2	208,938
383,6	201,624
384,1	182,881
384,6	175,881
385	165,738
385,5	163,967
385,9	149,195
386,4	140,795
386,8	137,31
387,3	135,224
387,7	118,881
388,2	113,081
388,7	106,224
389,1	106,995
389,6	99,938
390	88,424
390,5	77,681
390,9	77,024
391,4	70,738
391,9	64,538
392,3	60,31
392,8	54,938
393,2	56,167
393,7	55,11
394,1	53,395
394,6	48,11
395,1	50,395
395,5	42,224
396	44,938
396,4	43,052
396,9	45,138
397,3	41,452
397,8	44,424
398,2	40,138
398,7	46,367
399,2	46,995
399,6	45,31
400,1	43,395
400,5	44,281
401	41,024
401,4	40,595
401,9	37,938
402,4	36,767
402,8	34,338
403,3	36,081
403,7	38,595
404,2	37,452
404,6	38,595
405,1	34,367
405,5	33,738
406	37,052
406,5	36,567
406,9	34,281
407,4	40,91
407,8	42,11
408,3	49,252
408,7	44,852
409,2	43,652
409,6	43,424
410,1	50,881
410,6	50,367
411	52,424
411,5	51,195
411,9	58,138
412,4	62,195
412,8	63,31
413,3	60,252
413,7	60,538
414,2	59,024
414,7	61,395
415,1	63,995
415,6	64,024
416	73,938
416,5	81,252
416,9	88,081
417,4	90,881
417,8	99,424
418,3	97,71
418,8	102,252
419,2	103,338
419,7	105,652
420,1	107,652
420,6	111,281
421	109,081
421,5	114,681
421,9	119,11
422,4	112,681
422,8	107,681
423,3	102,938
423,8	99,91
424,2	103,224
424,7	108,567
425,1	102,852
425,6	110,538
426	114,024
426,5	116,767
426,9	118,91
427,4	113,91
427,9	114,11
428,3	119,367
428,8	119,71
429,2	122,167
429,7	131,138
430,1	135,824
430,6	144,167
431	144,824
431,5	149,052
431,9	153,738
432,4	158,567
432,8	161,224
433,3	171,281
433,8	172,824
434,2	183,281
434,7	189,852
435,1	196,652
435,6	197,51
436	202,252
436,5	201,224
436,9	210,224
437,4	215,11
437,8	229,51
438,3	239,424
438,8	253,652
439,2	262,938
439,7	280,681
440,1	288,281
440,6	296,281
441	302,938
441,5	317,367
441,9	332,795
442,4	351,938
442,8	369,881
443,3	393,052
443,7	414,738
444,2	438,081
444,7	458,11
445,1	480,281
445,6	499,51
446	514,795
446,5	534,538
446,9	554,167
447,4	577,024
447,8	594,024
448,3	614,824
448,7	634,281
449,2	660,081
449,6	688,395
450,1	718,51
450,6	744,538
451	774,31
451,5	805,852
451,9	835,995
452,4	873,138
452,8	906,881
453,3	938,024
453,7	965,967
454,2	1000,167
454,6	1035,595
455,1	1076,167
455,5	1106,71
456	1139,881
456,4	1180,967
456,9	1222,367
457,3	1262,624
457,8	1304,338
458,3	1337,138
458,7	1377,281
459,2	1420,252
459,6	1457,167
460,1	1501,852
460,5	1547,252
461	1588,967
461,4	1636,567
461,9	1685,795
462,3	1737,91
462,8	1792,367
463,2	1840,652
463,7	1889,252
464,1	1943,881
464,6	1996,624
465	2052,195
465,5	2094,081
466	2142,995
466,4	2189,652
466,9	2246,595
467,3	2296,338
467,8	2350,51
468,2	2402,281
468,7	2464,91
469,1	2517,795
469,6	2579,11
470	2634,852
470,5	2691,052
470,9	2751,138
471,4	2803,795
471,8	2852,881
472,3	2912,167
472,7	2966,481
473,2	3017,852
473,6	3076,71
474,1	3121,51
474,5	3177,881
475	3241,767
475,4	3293,738
475,9	3352,31
476,4	3408,024
476,8	3457,767
477,3	3516,395
477,7	3575,052
478,2	3625,31
478,6	3676,338
479,1	3726,224
479,5	3772,138
480	3816,91
480,4	3869,424
480,9	3911,967
481,3	3951,224
481,8	3997,281
482,2	4041,852
482,7	4089,138
483,1	4140,652
483,6	4185,881
484	4229,31
484,5	4271,167
484,9	4310,338
485,4	4351,31
485,8	4389,195
486,3	4424,767
486,7	4456,424
487,2	4493,452
487,6	4537,281
488,1	4575,91
488,5	4609,652
489	4646,624
489,4	4678,167
489,9	4715,881
490,4	4749,11
490,8	4774,624
491,3	4798,91
491,7	4827,881
492,2	4858,852
492,6	4881,224
493,1	4900,595
493,5	4915,081
494	4935,367
494,4	4956,167
494,9	4979,624
495,3	4990,424
495,8	5018,567
496,2	5034,167
496,7	5061,224
497,1	5087,71
497,6	5104,338
498	5117,367
498,5	5134,338
498,9	5135,91
499,4	5155,424
499,8	5167,252
500,3	5173,824
500,7	5197,595
501,2	5203,452
501,6	5220,481
502,1	5240,681
502,5	5249,71
503	5258,252
503,4	5270,681
503,9	5273,852
504,3	5284,281
504,8	5294,024
505,2	5308,938
505,7	5319,51
506,1	5327,024
506,6	5325,224
507	5331,11
507,5	5336,481
507,9	5344,395
508,4	5342,71
508,8	5347,624
509,3	5351,367
509,7	5361,567
510,2	5368,738
510,6	5379,367
511,1	5381,481
511,5	5383,852
512	5392,052
512,4	5402,824
512,9	5411,824
513,3	5411,595
513,8	5416,281
514,2	5416,281
514,7	5420,91
515,1	5416,11
515,6	5413,281
516	5409,595
516,5	5412,767
516,9	5409,452
517,4	5416,967
517,8	5421,595
518,3	5427,424
518,7	5428,624
519,2	5433,652
519,6	5444,738
520,1	5456,538
520,5	5462,224
521	5466,224
521,4	5470,795
521,9	5485,224
522,3	5490,767
522,8	5492,224
523,2	5490,167
523,7	5487,024
524,1	5487,624
524,6	5489,795
525	5488,567
525,5	5494,71
525,9	5498,252
526,4	5504,195
526,8	5508,995
527,3	5515,452
527,7	5530,767
528,2	5536,51
528,6	5543,367
529,1	5554,367
529,5	5564,081
530	5569,738
530,4	5572,881
530,9	5566,681
531,3	5571,052
531,8	5584,167
532,2	5587,452
532,6	5592,31
533,1	5601,681
533,5	5613,624
534	5622,31
534,4	5623,91
534,9	5612,824
535,3	5615,71
535,8	5620,081
536,2	5622,252
536,7	5625,91
537,1	5636,424
537,6	5644,624
538	5662,852
538,5	5677,91
538,9	5679,51
539,4	5692,424
539,8	5703,71
540,3	5713,938
540,7	5730,538
541,2	5734,681
541,6	5734,024
542,1	5747,052
542,5	5754,367
543	5765,195
543,4	5768,995
543,9	5767,652
544,3	5773,795
544,8	5785,881
545,2	5790,538
545,7	5793,852
546,1	5797,252
546,5	5808,767
547	5820,195
547,4	5833,252
547,9	5840,681
548,3	5845,995
548,8	5856,538
549,2	5859,052
549,7	5866,395
550,1	5877,567
550,6	5893,481
551	5900,224
551,5	5912,71
551,9	5924,595
552,4	5938,138
552,8	5939,967
553,3	5947,024
553,7	5945,024
554,2	5955,395
554,6	5961,024
555,1	5968,367
555,5	5972,424
555,9	5987,338
556,4	5996,481
556,8	6007,11
557,3	6004,195
557,7	6021,567
558,2	6030,31
558,6	6036,195
559,1	6040,71
559,5	6037,595
560	6046,881
560,4	6058,081
560,9	6057,71
561,3	6058,881
561,8	6060,51
562,2	6065,367
562,7	6078,138
563,1	6080,681
563,6	6076,138
564	6082,852
564,4	6078,881
564,9	6090,995
565,3	6091,852
565,8	6091,281
566,2	6089,938
566,7	6104,767
567,1	6111,71
567,6	6121,652
568	6122,452
568,5	6121,681
568,9	6117,567
569,4	6112,367
569,8	6109,452
570,3	6105,11
570,7	6107,824
571,1	6101,424
571,6	6102,024
572	6104,738
572,5	6103,881
572,9	6105,738
573,4	6104,91
573,8	6101,252
574,3	6109,024
574,7	6110,138
575,2	6113,881
575,6	6117,681
576,1	6118,395
576,5	6108,624
576,9	6103,167
577,4	6091,081
577,8	6080,167
578,3	6069,595
578,7	6058,024
579,2	6047,024
579,6	6037,738
580,1	6026,852
580,5	6020,11
581	6014,91
581,4	6014,138
581,9	6011,395
582,3	6003,595
582,7	6001,795
583,2	5991,081
583,6	5985,138
584,1	5967,567
584,5	5951,195
585	5941,967
585,4	5921,367
585,9	5917,595
586,3	5901,795
586,8	5886,481
587,2	5882,681
587,6	5870,852
588,1	5859,481
588,5	5856,881
589	5833,938
589,4	5834,538
589,9	5825,224
590,3	5814,795
590,8	5805,824
591,2	5799,081
591,7	5788,052
592,1	5782,024
592,5	5773,252
593	5765,881
593,4	5756,795
593,9	5747,081
594,3	5733,081
594,8	5722,481
595,2	5718,424
595,7	5706,31
596,1	5697,138
596,6	5689,881
597	5682,31
597,4	5670,738
597,9	5665,881
598,3	5647,995
598,8	5635,595
599,2	5625,367
599,7	5612,538
600,1	5598,681
600,6	5581,452
601	5568,281
601,4	5559,481
601,9	5548,91
602,3	5533,138
602,8	5523,681
603,2	5519,481
603,7	5517,852
604,1	5500,252
604,6	5480,881
605	5459,252
605,4	5452,567
605,9	5431,681
606,3	5406,081
606,8	5387,138
607,2	5367,338
607,7	5357,138
608,1	5355,367
608,6	5335,852
609	5318,338
609,4	5304,395
609,9	5284,738
610,3	5276,395
610,8	5254,195
611,2	5225,595
611,7	5201,795
612,1	5189,081
612,6	5161,31
613	5136,538
613,4	5118,138
613,9	5098,452
614,3	5076,91
614,8	5059,938
615,2	5042,452
615,7	5029,252
616,1	5014,481
616,6	4990,767
617	4975,595
617,4	4961,481
617,9	4943,681
618,3	4917,938
618,8	4899,424
619,2	4890,967
619,7	4868,338
620,1	4851,11
620,5	4838,252
621	4821,081
621,4	4807,338
621,9	4783,51
622,3	4756,852
622,8	4739,852
623,2	4709,138
623,6	4680,395
624,1	4657,881
624,5	4634,91
625	4619,938
625,4	4600,424
625,9	4585,167
626,3	4578,31
626,8	4562,595
627,2	4539,024
627,6	4519,767
628,1	4494,252
628,5	4473,395
629	4441,195
629,4	4410,138
629,9	4380,367
630,3	4352,024
630,7	4327,767
631,2	4312,281
631,6	4275,31
632,1	4259,91
632,5	4231,881
633	4218,167
633,4	4202,51
633,8	4178,481
634,3	4152,052
634,7	4138,452
635,2	4115,824
635,6	4105,481
636,1	4081,51
636,5	4061,481
636,9	4042,767
637,4	4024,252
637,8	3999,195
638,3	3971,452
638,7	3945,367
639,2	3920,138
639,6	3901,395
640	3874,652
640,5	3858,338
640,9	3843,852
641,4	3830,195
641,8	3813,852
642,2	3803,138
642,7	3773,395
643,1	3759,624
643,6	3730,11
644	3709,024
644,5	3693,024
644,9	3672,224
645,3	3646,538
645,8	3633,052
646,2	3614,567
646,7	3593,738
647,1	3576,652
647,6	3551,795
648	3533,395
648,4	3518,138
648,9	3507,624
649,3	3489,395
649,8	3481,995
650,2	3463,767
650,6	3452,91
651,1	3439,652
651,5	3427,252
652	3403,138
652,4	3388,395
652,9	3368,424
653,3	3352,252
653,7	3334,138
654,2	3312,538
654,6	3284,424
655,1	3277,967
655,5	3261,11
655,9	3243,424
656,4	3220,367
656,8	3207,395
657,3	3178,052
657,7	3162,852
658,2	3136,367
658,6	3115,052
659	3096,881
659,5	3075,424
659,9	3046,252
660,4	3033,367
660,8	3010,51
661,2	2988,367
661,7	2968,852
662,1	2951,195
662,6	2939,538
663	2928,595
663,4	2915,252
663,9	2901,995
664,3	2887,795
664,8	2874,281
665,2	2854,195
665,6	2837,252
666,1	2811,881
666,5	2790,224
667	2769,91
667,4	2750,71
667,9	2726,938
668,3	2706,138
668,7	2687,195
669,2	2674,71
669,6	2664,51
670,1	2656,252
670,5	2633,31
670,9	2618,281
671,4	2600,452
671,8	2582,595
672,3	2567,51
672,7	2549,681
673,1	2525,224
673,6	2514,452
674	2497,967
674,5	2482,338
674,9	2470,795
675,3	2454,081
675,8	2438,252
676,2	2429,252
676,7	2412,081
677,1	2395,767
677,5	2384,338
678	2368,824
678,4	2350,224
678,9	2331,71
679,3	2307,224
679,7	2296,281
680,2	2285,852
680,6	2266,081
681,1	2254,424
681,5	2236,424
681,9	2215,138
682,4	2205,052
682,8	2187,252
683,3	2173,252
683,7	2164,567
684,1	2148,852
684,6	2139,595
685	2136,824
685,5	2126,167
685,9	2111,824
686,3	2091,938
686,8	2079,11
687,2	2062,338
687,7	2045,738
688,1	2023,024
688,5	2008,052
689	1996,881
689,4	1981,481
689,9	1964,481
690,3	1945,052
690,7	1934,195
691,2	1931,567
691,6	1923,395
692	1908,081
692,5	1899,367
692,9	1890,567
693,4	1884,081
693,8	1879,367
694,2	1858,281
694,7	1844,395
695,1	1829,052
695,6	1818,252
696	1803,224
696,4	1793,481
696,9	1773,452
697,3	1762,452
697,8	1744,024
698,2	1738,967
698,6	1728,138
699,1	1720,052
699,5	1703,567
699,9	1695,338
700,4	1687,71
700,8	1677,081
701,3	1660,91
701,7	1652,167
702,1	1641,738
702,6	1637,881
703	1629,11
703,5	1615,852
703,9	1611,481
704,3	1601,795
704,8	1586,31
705,2	1569,767
705,6	1561,595
706,1	1542,767
706,5	1538,881
707	1521,338
707,4	1512,195
707,8	1502,252
708,3	1492,024
708,7	1479,938
709,2	1472,595
709,6	1456,281
710	1448,51
710,5	1443,452
710,9	1436,91
711,3	1426,195
711,8	1410,224
712,2	1404,624
712,7	1396,138
713,1	1393,624
713,5	1380,395
714	1367,881
714,4	1361,167
714,8	1352,91
715,3	1341,252
715,7	1334,452
716,2	1321,481
716,6	1309,881
717	1298,967
717,5	1289,852
717,9	1284,338
718,3	1273,51
718,8	1260,281
719,2	1251,71
719,7	1243,424
720,1	1238,481
720,5	1233,71
721	1224,31
721,4	1211,252
721,8	1202,338
722,3	1187,967
722,7	1176,424
723,2	1164,481
723,6	1150,71
724	1137,91
724,5	1134,538
724,9	1129,71
725,3	1121,681
725,8	1116,852
726,2	1105,338
726,7	1101,938
727,1	1095,71
727,5	1087,224
728	1074,738
728,4	1073,024
728,8	1064,481
729,3	1062,767
729,7	1058,967
730,1	1054,452
730,6	1046,31
731	1040,852
731,5	1032,71
731,9	1027,967
732,3	1015,338
732,8	1005,024
733,2	996,967
733,6	991,138
734,1	989,424
734,5	984,881
734,9	980,31
735,4	980,738
735,8	978,681
736,3	968,738
736,7	962,681
737,1	952,938
737,6	943,31
738	935,681
738,4	927,767
738,9	915,538
739,3	912,538
739,7	914,281
740,2	911,31
740,6	904,71
741,1	894,967
741,5	895,767
741,9	891,567
742,4	887,824
742,8	877,852
743,2	867,738
743,7	863,767
744,1	862,538
744,5	854,481
745	845,138
745,4	839,452
745,8	829,538
746,3	826,138
746,7	815,595
747,2	804,252
747,6	793,852
748	793,252
748,5	784,052
748,9	785,624
749,3	782,195
749,8	785,281
750,2	788,71
750,6	781,738
751,1	775,481
751,5	774,195
751,9	764,967
752,4	760,595
752,8	747,224
753,3	740,595
753,7	738,681
754,1	730,738
754,6	721,967
755	718,338
755,4	708,595
755,9	709,481
756,3	700,367
756,7	699,052
757,2	697,91
757,6	698,338
758	691,31
758,5	689,338
758,9	679,852
759,3	674,995
759,8	667,481
760,2	662,624
760,6	653,938
761,1	656,852
761,5	654,281
761,9	650,281
762,4	647,938
762,8	639,967
763,3	632,652
763,7	631,395
764,1	621,852
764,6	622,567
765	623,338
765,4	623,91
765,9	625,395
766,3	627,11
766,7	624,138
767,2	619,795
767,6	609,995
768	602,452
768,5	598,71
768,9	593,195
769,3	586,424
769,8	582,138
770,2	582,852
770,6	581,995
771,1	579,252
771,5	574,424
771,9	572,995
772,4	570,652
772,8	567,167
773,2	560,795
773,7	556,91
774,1	556,11
774,5	549,824
775	546,395
775,4	543,881
775,8	539,224
776,3	531,91
776,7	525,738
777,1	522,795
777,6	522,481
778	517,167
778,4	512,138
778,9	512,595
779,3	507,252
779,7	506,852
780,2	503,824
780,6	496,795
781	490,738
781,5	487,738
781,9	476,938
782,3	479,91
782,8	475,681
783,2	470,052
783,6	465,738
784,1	465,824
784,5	457,51
784,9	461,224
785,4	452,024
785,8	443,452
786,2	441,595
786,7	441,967
787,1	435,024
787,5	434,51
788	426,681
788,4	428,881
788,8	424,195
789,3	421,938
789,7	412,824
790,1	411,367
790,6	409,195
791	404,51
791,4	395,138
791,9	397,052
792,3	393,852
792,7	395,081
793,2	393,681
793,6	390,167
794	393,338
794,5	398,624
794,9	395,481
795,3	387,138
795,8	387,338
796,2	385,652
796,6	392,138
797,1	388,281
797,5	379,395
797,9	380,367
798,4	380,224
798,8	374,852
799,2	367,881
799,7	357,281
800,1	351,738
800,5	353,71
801	350,252
801,4	349,767
801,8	349,824
802,2	349,395
802,7	347,281
803,1	342,995
803,5	339,824
804	336,938
804,4	334,367
804,8	329,595
805,3	327,681
805,7	325,395
806,1	321,081
806,6	318,052
807	318,624
807,4	312,824
807,9	313,481
808,3	309,738
808,7	309,024
809,2	309,995
809,6	305,91
810	296,081
810,4	300,195
810,9	294,395
811,3	297,252
811,7	292,881
812,2	292,31
812,6	290,281
813	291,624
813,5	283,71
813,9	282,824
814,3	275,795
814,8	270,795
815,2	272,824
815,6	276,424
816,1	275,11
816,5	271,081
816,9	264,967
817,3	265,938
817,8	263,852
818,2	256,195
818,6	250,11
819,1	242,91
819,5	243,824
819,9	243,081
820,4	236,281
820,8	234,738
821,2	230,024
821,7	229,31
822,1	230,424
822,5	227,452
822,9	227,024
823,4	226,738
823,8	226,252
824,2	229,681
824,7	229,252
825,1	225,252
825,5	219,052
826	212,681
826,4	218,081
826,8	215,452
827,3	213,052
827,7	209,338
828,1	211,624
828,5	214,338
829	213,424
829,4	205,881
829,8	207,281
830,3	203,852
830,7	200,767
831,1	197,538
831,6	196,11
832	192,795
832,4	187,11
832,8	181,052
833,3	175,767
833,7	175,91
834,1	174,738
834,6	174,795
835	178,538
835,4	186,395
835,8	187,167
836,3	191,252
836,7	184,881
837,1	184,195
837,6	180,738
838	180,31
838,4	166,824
838,9	162,595
839,3	161,052
839,7	166,081
840,1	164,281
840,6	160,11
841	154,11
841,4	157,338
841,9	160,195
842,3	159,224
842,7	157,538
843,1	150,424
843,6	154,024
844	157,367
844,4	158,452
844,9	159,538
845,3	160,767
845,7	153,31
846,2	160,681
846,6	155,967
847	156,795
847,4	157,538
847,9	154,852
848,3	152,024
848,7	154,424
849,2	156,395
849,6	158,795
850	152,167
850,4	151,881
850,9	147,424
851,3	141,995
851,7	143,052
852,2	138,538
852,6	141,567
853	144,081
853,4	143,338
853,9	144,967
854,3	146,91
854,7	141,252
855,2	136,281
855,6	128,852
856	124,167
856,4	119,995
856,9	122,138
857,3	122,481
857,7	125,081
858,2	125,081
858,6	125,91
859	130,281
859,4	132,224
859,9	129,367
860,3	129,252
860,7	125,338
861,1	121,11
861,6	123,652
862	120,167
862,4	117,967
862,9	117,195
863,3	116,71
863,7	118,052
864,1	125,11
864,6	121,338
865	119,824
865,4	113,052
865,9	107,395
866,3	104,252
866,7	100,624
867,1	96,395
867,6	91,138
868	87,452
868,4	89,881
868,8	89,995
869,3	86,424
869,7	87,424
870,1	86,424
870,6	86,652
871	189,852
871,4	187,652
871,8	185,795
872,3	186,681
872,7	182,167
873,1	179,081
873,5	187,024
874	81,395
874,4	85,567
874,8	91,595
875,3	90,11
875,7	94,624
876,1	95,538
876,5	87,481
877	91,281
877,4	89,51
877,8	77,824
878,2	79,395
878,7	78,567
879,1	77,795
879,5	79,881
879,9	79,138
880,4	75,081
880,8	81,081
881,2	75,767
881,7	71,224
882,1	72,681
882,5	66,738
882,9	64,195
883,4	65,195
883,8	66,824
884,2	68,91
884,6	67,024
885,1	67,967
885,5	72,081
885,9	76,795
886,3	76,795
886,8	74,681
887,2	76,31
887,6	79,024
888	75,195
888,5	79,252
888,9	73,51
889,3	74,395
889,8	73,224
890,2	71,795
890,6	74,281
891	74,052
891,5	72,938
891,9	72,767
892,3	73,567
892,7	69,681
893,2	66,338
893,6	64,11
894	60,024
894,4	55,224
894,9	55,138
895,3	53,652
895,7	51,452
896,1	51,224
896,6	52,052
897	54,824
897,4	55,852
897,8	53,167
898,3	51,281
898,7	56,91
899,1	59,452
899,5	53,852
900	55,224
900,4	58,738
900,8	64,738
901,2	66,195
901,7	58,852
902,1	55,252
902,5	58,11
902,9	57,338
903,4	54,795
903,8	52,224
904,2	49,11
904,6	54,11
905,1	54,824
905,5	54,367
905,9	51,395
906,3	47,595
906,8	49,795
907,2	47,967
907,6	45,881
908	48,738
908,5	48,967
908,9	49,767
909,3	50,91
909,7	51,681
910,2	48,024
910,6	50,11
911	49,452
911,4	52,452
911,9	52,281
912,3	48,681
912,7	45,824
913,1	53,138
913,6	50,795
914	44,652
914,4	45,795
914,8	43,881
915,3	43,395
915,7	40,281
916,1	35,31
916,5	38,195
916,9	38,852
917,4	31,624
917,8	30,938
918,2	27,795
918,6	33,367
919,1	35,31
919,5	37,024
919,9	36,767
920,3	38,195
920,8	37,624
921,2	43,738
921,6	38,338
922	38,31
922,5	32,538
922,9	35,138
923,3	30,967
923,7	37,881
924,2	35,138
924,6	36,852
925	33,91
925,4	40,252
925,8	38,481
926,3	42,452
926,7	34,11
927,1	36,195
927,5	36,795
928	39,138
928,4	32,71
928,8	30,224
929,2	31,567
929,7	34,938
930,1	31,767
930,5	27,138
930,9	32,824
931,3	31,138
931,8	41,567
932,2	37,824
932,6	37,024
933	40,595
933,5	45,91
933,9	40,938
934,3	45,338
934,7	38,51
935,2	41,195
935,6	44,852
936	42,481
936,4	38,338
936,8	35,624
937,3	36,367
937,7	31,252
938,1	29,367
938,5	22,767
939	23,852
939,4	19,852
939,8	16,967
940,2	16,452
940,6	26,252
941,1	20,995
941,5	18,795
941,9	17,224
942,3	18,567
942,8	17,967
943,2	10,995
943,6	6,567
944	10,024
944,4	14,338
944,9	12,281
945,3	11,738
945,7	19,652
946,1	25,767
946,6	26,652
947	33,252
947,4	38,938
947,8	40,51
948,2	40,195
948,7	29,681
949,1	29,395
949,5	26,138
949,9	24,538
950,3	17,281
950,8	20,281
951,2	27,738
951,6	31,338
952	35,681
952,5	35,252
952,9	27,738
953,3	30,281
953,7	24,024
954,1	19,024
954,6	19,567
955	12,424
955,4	19,967
955,8	23,881
956,2	20,424
956,7	22,424
957,1	23,195
957,5	19,567
957,9	23,767
958,3	12,795
958,8	14,881
959,2	12,767
959,6	14,367
960	14,91
960,5	22,395
960,9	17,538
961,3	18,795
961,7	17,052
962,1	23,881
962,6	18,395
963	14,424
963,4	8,681
963,8	10,281
964,2	15,595
964,7	16,052
965,1	15,195
965,5	19,338
965,9	20,052
966,3	27,938
966,8	27,595
967,2	24,824
967,6	26,167
968	20,481
968,4	18,11
968,9	20,624
969,3	21,71
969,7	18,595
970,1	22,052
970,5	17,31
971	30,681
971,4	32,738
971,8	29,681
972,2	25,852
972,6	28,081
973,1	25,652
973,5	23,395
973,9	10,081
974,3	7,938
974,7	13,395
975,2	7,652
975,6	4,595
976	8,081
976,4	12,052
976,8	17,338
977,3	23,91
977,7	25,795
978,1	32,567
978,5	36,081
978,9	30,252
979,4	27,281
979,8	24,424
980,2	22,995
980,6	16,652
981	19,567
981,5	20,167
981,9	21,367
982,3	24,967
982,7	31,052
983,1	23,767
983,6	22,567
984	22,938
984,4	19,852
984,8	19,652
985,2	20,652
985,6	18,024
986,1	19,281
986,5	22,481
986,9	21,681
987,3	22,567
987,7	27,71
988,2	25,681
988,6	21,852
989	25,138
989,4	24,852
989,8	24,995
990,3	27,767
990,7	23,424
991,1	20,91
991,5	23,167
991,9	20,595
992,3	17,395
992,8	11,481
993,2	12,31
993,6	8,224
994	5,852
994,4	0,252
994,9	5,681
995,3	2,567
995,7	0,852
996,1	-7,833
996,5	-4,376
996,9	1,424
997,4	-0,919
997,8	-1,948
998,2	2,395
998,6	5,31
999	14,281
999,5	11,367
999,9	12,452
1000,3	18,081
1000,7	8,224
1001,1	8,024
1001,5	7,995
1002	-0,548
1002,4	6,081
1002,8	3,424
1003,2	10,652
1003,6	19,938
1004	17,338
1004,5	12,224
1004,9	17,11
1005,3	13,852
1005,7	17,567
1006,1	12,995
1006,6	8,967
1007	15,452
1007,4	19,252
1007,8	20,424
1008,2	19,938
1008,6	13,824
1009,1	11,367
1009,5	9,195
1009,9	4,652
1010,3	7,652
1010,7	5,624
1011,1	3,595
1011,6	6,652
1012	8,538
1012,4	12,538
1012,8	15,824
1013,2	13,567
1013,6	17,538
1014,1	21,481
1014,5	18,424
1014,9	17,51
1015,3	17,538
1015,7	17,252
1016,1	24,024
1016,6	16,795
1017	15,481
1017,4	20,767
1017,8	21,224
1018,2	19,024
1018,6	23,138
1019,1	12,195
1019,5	19,767
1019,9	18,367
1020,3	18,881
1020,7	14,51
1021,1	17,824
1021,6	15,081
1022	19,224
1022,4	12,224
1022,8	14,71
1023,2	9,738
1023,6	11,995
1024,1	11,767
1024,5	14,224
1024,9	12,395
1025,3	15,252
1025,7	13,967
1026,1	17,652
1026,6	20,252
1027	15,367
1027,4	12,11
1027,8	19,081
1028,2	23,024
1028,6	21,167
1029	18,424
1029,5	18,338
1029,9	22,967
1030,3	20,31
1030,7	9,281
1031,1	5,281
1031,5	2,795
1032	8,367
1032,4	2,738
1032,8	2,224
1033,2	2,71
1033,6	4,795
1034	2,738
1034,4	0,795
1034,9	0,138
1035,3	-0,719
1035,7	1,395
1036,1	5,11
1036,5	9,681
1036,9	8,338
1037,4	14,595
1037,8	10,881
1038,2	20,51
1038,6	22,881
1039	18,681
1039,4	20,995
1039,8	28,367
1040,3	26,11
1040,7	29,824
1041,1	26,195
1041,5	17,71
1041,9	17,424
1042,3	18,967
1042,7	16,424
1043,2	20,738
1043,6	20,481
1044	19,538
1044,4	25,138
1044,8	23,681
1045,2	21,395
1045,6	24,652
1046,1	23,281
1046,5	20,024
1046,9	27,452
1047,3	26,281
1047,7	35,624
1048,1	31,795
1048,5	28,338
1049	21,824
1049,4	22,024
1049,8	19,338
1050,2	18,081
1050,6	15,681
1051	17,367
1051,4	20,795
1051,9	29,795
1052,3	34,224
1052,7	35,738
1053,1	39,824
1053,5	39,967
1053,9	41,252
1054,3	40,338
1054,8	40,538
1055,2	36,452
1055,6	34,31
1056	29,595
1056,4	24,624
1056,8	28,367
1057,2	27,052
1057,6	29,052
1058,1	28,852
1058,5	22,424
1058,9	23,395
1059,3	20,71
1059,7	12,252
1060,1	16,195
1060,5	15,652
1061	18,081
1061,4	19,595
1061,8	25,31
1062,2	32,538
1062,6	37,338
1063	33,281
1063,4	30,738
1063,8	28,367
1064,3	34,195
1064,7	25,452
1065,1	22,024
1065,5	19,967
1065,9	14,024
1066,3	12,481
1066,7	14,11
1067,1	10,395
1067,6	15,967
1068	14,481
1068,4	17,481
1068,8	25,824
1069,2	23,767
1069,6	17,795
1070	20,71
1070,4	22,167
1070,9	26,938
1071,3	25,138
1071,7	18,281
1072,1	19,11
1072,5	23,281
1072,9	18,881
1073,3	19,795
1073,7	19,367
1074,2	15,852
1074,6	21,652
1075	26,91
1075,4	28,11
1075,8	33,481
1076,2	24,71
1076,6	17,681
1077	20,652
1077,5	21,31
1077,9	17,452
1078,3	17,824
1078,7	13,195
1079,1	22,338
1079,5	25,938
1079,9	25,338
1080,3	25,938
1080,7	28,738
1081,2	32,51
1081,6	25,652
1082	21,881
1082,4	25,052
1082,8	27,567
1083,2	28,367
1083,6	26,652
1084	23,652
1084,5	29,395
1084,9	31,995
1085,3	28,51
1085,7	22,424
1086,1	16,195
1086,5	17,281
1086,9	16,167
1087,3	16,024
1087,7	13,367
1088,2	17,024
1088,6	22,395
1089	23,424
1089,4	22,395
1089,8	21,081
1090,2	25,767
1090,6	26,681
1091	30,224
1091,4	29,081
1091,9	33,938
1092,3	33,538
1092,7	36,852
1093,1	36,367
1093,5	31,595
1093,9	23,938
1094,3	24,481
1094,7	19,795
1095,1	17,881
1095,5	11,852
1096	5,938
1096,4	13,767
1096,8	14,481
1097,2	13,538
1097,6	15,595
1098	15,281
1098,4	23,395
1098,8	28,795
1099,2	25,11
1099,6	21,081
1100,1	20,738
1100,5	21,081
1100,9	20,395
1101,3	14,167
1101,7	11,881
1102,1	10,595
1102,5	16,767
1102,9	20,024
1103,3	17,224
1103,7	19,795
1104,2	18,767
1104,6	16,652
1105	16,224
1105,4	13,51
1105,8	8,367
1106,2	7,767
1106,6	4,338
1107	3,767
1107,4	3,567
1107,8	2,207
1108,3	0,367
