Data from Subt2_17.txt Node
Date: Thu Aug 24 16:48:03 MSK 2023
User: vat
Spectrometer: MAYP114033
Trigger mode: 0
Integration Time (sec): 1,000000E0
Scans to average: 5
Electric dark correction enabled: true
Nonlinearity correction enabled: false
Boxcar width: 3
XAxis mode: Wavelengths
Number of Pixels in Spectrum: 2068
>>>>>Begin Spectral Data<<<<<
199,4	-0,167
199,9	-4,427
200,4	5,2
200,8	4,162
201,3	5,248
201,8	10,905
202,2	8,276
202,7	8,99
203,2	13,076
203,6	7,162
204,1	10,933
204,6	8,962
205	8,848
205,5	12,19
206	12,962
206,4	17,905
206,9	17,562
207,4	13,819
207,8	13,79
208,3	9,733
208,8	6,848
209,2	10,59
209,7	7,676
210,2	13,648
210,6	15,648
211,1	17,048
211,5	13,705
212	14,848
212,5	16,276
212,9	19,705
213,4	14,105
213,9	12,505
214,3	14,619
214,8	17,248
215,3	24,79
215,7	16,848
216,2	16,705
216,7	18,333
217,1	18,219
217,6	14,848
218,1	9,105
218,5	5,933
219	16,019
219,5	7,905
219,9	6,305
220,4	10,362
220,9	14,219
221,3	23,705
221,8	22,705
222,3	14,562
222,7	17,962
223,2	17,448
223,6	13,705
224,1	11,619
224,6	8,905
225	9,533
225,5	10,162
226	11,448
226,4	11,705
226,9	13,048
227,4	10,419
227,8	13,848
228,3	17,362
228,8	20,076
229,2	27,19
229,7	31,933
230,2	33,305
230,6	35,819
231,1	34,905
231,5	29,133
232	24,162
232,5	15,076
232,9	14,219
233,4	13,419
233,9	14,448
234,3	11,076
234,8	9,19
235,3	17,105
235,7	16,305
236,2	17,39
236,7	18,476
237,1	19,676
237,6	19,79
238,1	30,019
238,5	25,419
239	26,248
239,4	26,305
239,9	22,333
240,4	22,448
240,8	28,505
241,3	21,448
241,8	22,876
242,2	23,162
242,7	19,333
243,2	21,905
243,6	23,248
244,1	22,076
244,6	15,762
245	15,59
245,5	15,876
245,9	14,705
246,4	16,848
246,9	12,076
247,3	10,39
247,8	13,962
248,3	14,19
248,7	15,39
249,2	14,276
249,7	9,962
250,1	10,99
250,6	6,876
251	13,476
251,5	9,59
252	7,048
252,4	7,076
252,9	9,505
253,4	9,933
253,8	16,562
254,3	10,619
254,8	12,762
255,2	14,648
255,7	16,133
256,1	18,276
256,6	13,276
257,1	10,219
257,5	8,276
258	10,705
258,5	9,99
258,9	12,076
259,4	13,448
259,9	19,448
260,3	20,019
260,8	24,505
261,2	26,476
261,7	25,533
262,2	26,848
262,6	24,876
263,1	24,333
263,6	26,562
264	27,619
264,5	19,99
264,9	25,39
265,4	28,733
265,9	27,59
266,3	29,048
266,8	19,248
267,3	20,733
267,7	24,39
268,2	22,733
268,7	12,933
269,1	16,762
269,6	17,762
270	16,705
270,5	10,076
271	15,562
271,4	13,19
271,9	16,162
272,4	11,933
272,8	13,962
273,3	18,533
273,7	21,448
274,2	16,648
274,7	20,648
275,1	18,505
275,6	21,448
276,1	18,648
276,5	24,19
277	22,962
277,4	21,933
277,9	21,276
278,4	25,876
278,8	27,848
279,3	29,905
279,8	25,019
280,2	25,419
280,7	28,133
281,1	28,162
281,6	22,705
282,1	22,305
282,5	18,905
283	12,648
283,4	12,99
283,9	11,276
284,4	10,19
284,8	15,79
285,3	12,362
285,8	12,819
286,2	21,505
286,7	24,048
287,1	24,533
287,6	17,019
288,1	12,133
288,5	12,819
289	14,305
289,5	11,819
289,9	12,419
290,4	10,705
290,8	13,019
291,3	14,876
291,8	12,019
292,2	10,476
292,7	10,019
293,1	14,619
293,6	13,248
294,1	13,876
294,5	13,562
295	13,448
295,5	10,99
295,9	11,133
296,4	0,648
296,8	5,019
297,3	11,505
297,8	12,676
298,2	9,219
298,7	10,448
299,1	14,848
299,6	19,105
300,1	15,59
300,5	16,333
301	17,648
301,5	20,476
301,9	19,219
302,4	10,676
302,8	14,533
303,3	17,39
303,8	13,562
304,2	14,419
304,7	12,676
305,1	16,219
305,6	20,333
306,1	17,848
306,5	17,848
307	22,933
307,4	19,562
307,9	22,876
308,4	21,219
308,8	22,219
309,3	19,705
309,8	19,076
310,2	9,219
310,7	10,676
311,1	12,105
311,6	15,219
312,1	17,019
312,5	16,79
313	11,448
313,4	17,219
313,9	14,876
314,4	7,962
314,8	5,562
315,3	6,848
315,7	6,19
316,2	6,905
316,7	6,019
317,1	5,876
317,6	10,676
318	11,133
318,5	4,733
319	11,39
319,4	12,476
319,9	15,133
320,3	17,962
320,8	18,533
321,3	18,448
321,7	28,448
322,2	19,819
322,6	23,39
323,1	21,648
323,6	19,105
324	23,962
324,5	21,39
324,9	19,105
325,4	22,619
325,9	19,248
326,3	20,105
326,8	18,733
327,2	17,79
327,7	23,076
328,2	17,019
328,6	15,162
329,1	22,305
329,5	22,248
330	26,248
330,5	27,476
330,9	19,133
331,4	22,305
331,8	20,076
332,3	13,133
332,8	10,476
333,2	11,105
333,7	6,448
334,1	8,819
334,6	5,19
335,1	5,676
335,5	6,99
336	9,905
336,4	13,19
336,9	17,59
337,4	26,762
337,8	24,762
338,3	27,133
338,7	32,39
339,2	28,048
339,7	26,59
340,1	20,362
340,6	13,762
341	18,648
341,5	23,333
342	21,019
342,4	23,048
342,9	20,99
343,3	20,819
343,8	20,305
344,2	21,333
344,7	19,933
345,2	19,933
345,6	19,533
346,1	17,105
346,5	25,048
347	27,648
347,5	28,39
347,9	28,39
348,4	23,562
348,8	23,819
349,3	24,333
349,8	18,705
350,2	17,733
350,7	19,39
351,1	17,476
351,6	21,048
352	25,248
352,5	28,19
353	34,762
353,4	40,848
353,9	42,733
354,3	47,133
354,8	55,276
355,3	64,619
355,7	72,019
356,2	80,562
356,6	84,362
357,1	94,505
357,5	109,362
358	129,276
358,5	143,248
358,9	167,79
359,4	186,419
359,8	214,162
360,3	244,048
360,8	280,876
361,2	311,476
361,7	360,648
362,1	407,79
362,6	461,648
363	520,733
363,5	586,562
364	646,419
364,4	714,962
364,9	777,562
365,3	840,733
365,8	903,59
366,3	957,476
366,7	1010,133
367,2	1053,933
367,6	1095,276
368,1	1119,333
368,5	1140,39
369	1149,333
369,5	1157,848
369,9	1151,276
370,4	1143,419
370,8	1116,019
371,3	1095,133
371,7	1061,305
372,2	1022,648
372,7	978,876
373,1	929,105
373,6	873,076
374	822,962
374,5	766,562
374,9	716,848
375,4	669,276
375,9	619,876
376,3	571,905
376,8	534,476
377,2	493,476
377,7	455,762
378,2	420,133
378,6	383,819
379,1	352,448
379,5	322,133
380	295,762
380,4	269,705
380,9	248,933
381,4	229,019
381,8	221,99
382,3	201,048
382,7	192,762
383,2	182,562
383,6	176,933
384,1	167,448
384,6	158,876
385	140,562
385,5	144,762
385,9	131,905
386,4	125,39
386,8	121,248
387,3	112,933
387,7	106,133
388,2	106,562
388,7	97,076
389,1	98,133
389,6	88,848
390	80,362
390,5	74,333
390,9	68,219
391,4	63,476
391,9	57,619
392,3	56,562
392,8	56,619
393,2	57,648
393,7	54,076
394,1	55,333
394,6	47,648
395,1	52,076
395,5	50,105
396	52,905
396,4	49,562
396,9	55,248
397,3	53,848
397,8	57,162
398,2	54,619
398,7	49,962
399,2	49,419
399,6	49,676
400,1	49,19
400,5	47,562
401	48,476
401,4	43,19
401,9	46,59
402,4	41,39
402,8	40,105
403,3	39,162
403,7	35,505
404,2	36,933
404,6	37,476
405,1	35,362
405,5	33,276
406	31,305
406,5	28,962
406,9	34,076
407,4	36,648
407,8	41,248
408,3	46,076
408,7	46,933
409,2	49,505
409,6	50,648
410,1	53,362
410,6	49,362
411	52,99
411,5	50,933
411,9	54,219
412,4	58,562
412,8	57,99
413,3	60,59
413,7	66,562
414,2	65,762
414,7	71,99
415,1	77,505
415,6	79,19
416	93,505
416,5	94,105
416,9	97,733
417,4	100,448
417,8	101,79
418,3	104,99
418,8	110,048
419,2	107,362
419,7	112,276
420,1	114,133
420,6	114,733
421	115,533
421,5	114,533
421,9	109,99
422,4	111,219
422,8	116,076
423,3	114,39
423,8	117,019
424,2	122,562
424,7	127,248
425,1	134,219
425,6	141,133
426	137,133
426,5	136,105
426,9	139,562
427,4	139,362
427,9	140,59
428,3	147,562
428,8	144,933
429,2	151,19
429,7	165,533
430,1	172,533
430,6	177,762
431	181,99
431,5	188,533
431,9	191,248
432,4	202,219
432,8	210,962
433,3	215,362
433,8	223,562
434,2	235,505
434,7	238,705
435,1	252,876
435,6	254,162
436	250,762
436,5	259,733
436,9	268,933
437,4	286,848
437,8	303,59
438,3	317,676
438,8	335,476
439,2	353,219
439,7	369,276
440,1	382,59
440,6	384,39
441	395,305
441,5	406,562
441,9	419,962
442,4	445,619
442,8	474,162
443,3	501,362
443,7	529,962
444,2	557,59
444,7	586,619
445,1	617,962
445,6	647,99
446	667,019
446,5	687,476
446,9	716,733
447,4	744,276
447,8	773,219
448,3	799,419
448,7	820,762
449,2	851,476
449,6	889,276
450,1	927,133
450,6	960,533
451	998,562
451,5	1038,676
451,9	1086,39
452,4	1131,219
452,8	1176,619
453,3	1211,848
453,7	1258,648
454,2	1299,448
454,6	1348,533
455,1	1390,105
455,5	1438,619
456	1479,962
456,4	1535,333
456,9	1584,905
457,3	1638,133
457,8	1688,59
458,3	1741,533
458,7	1797,162
459,2	1859,476
459,6	1915,39
460,1	1974,276
460,5	2035,505
461	2096,79
461,4	2157,848
461,9	2223,733
462,3	2284,105
462,8	2348,162
463,2	2409,248
463,7	2477,448
464,1	2547,39
464,6	2617,333
465	2681,419
465,5	2751,876
466	2822,933
466,4	2887,676
466,9	2957,762
467,3	3024,276
467,8	3094,019
468,2	3165,819
468,7	3236,648
469,1	3307,448
469,6	3386,19
470	3457,076
470,5	3532,162
470,9	3604,248
471,4	3676,076
471,8	3752,648
472,3	3820,448
472,7	3894,505
473,2	3964,762
473,6	4042,305
474,1	4117,39
474,5	4184,705
475	4260,59
475,4	4341,105
475,9	4415,39
476,4	4493,133
476,8	4556,019
477,3	4627,248
477,7	4702,248
478,2	4770,762
478,6	4840,076
479,1	4909,219
479,5	4975,39
480	5041,59
480,4	5109,905
480,9	5181,333
481,3	5240,933
481,8	5307,59
482,2	5368,705
482,7	5431,219
483,1	5500,733
483,6	5557,562
484	5607,248
484,5	5669,476
484,9	5712,648
485,4	5764,019
485,8	5811,648
486,3	5856,933
486,7	5913,019
487,2	5970,305
487,6	6010,105
488,1	6061,162
488,5	6106,705
489	6151,648
489,4	6194,276
489,9	6229,39
490,4	6265,048
490,8	6308,105
491,3	6343,219
491,7	6387,219
492,2	6425,048
492,6	6453,79
493,1	6488,562
493,5	6519,79
494	6543,39
494,4	6572,848
494,9	6595,105
495,3	6616,276
495,8	6650,705
496,2	6674,79
496,7	6701,076
497,1	6733,048
497,6	6755,476
498	6778,648
498,5	6806,219
498,9	6819,762
499,4	6838,019
499,8	6859,505
500,3	6876,276
500,7	6897,819
501,2	6911,533
501,6	6924,99
502,1	6946,505
502,5	6965,562
503	6978,048
503,4	6991,99
503,9	7010,248
504,3	7030,276
504,8	7043,162
505,2	7057,219
505,7	7067,105
506,1	7075,905
506,6	7092,619
507	7097,419
507,5	7099,305
507,9	7116,248
508,4	7124,848
508,8	7128,533
509,3	7136,076
509,7	7129,048
510,2	7134,019
510,6	7144,448
511,1	7146,219
511,5	7150,476
512	7157,248
512,4	7158,419
512,9	7166,39
513,3	7169,59
513,8	7187,733
514,2	7192,99
514,7	7193,676
515,1	7203,648
515,6	7217,133
516	7232,562
516,5	7240,162
516,9	7231,505
517,4	7236,076
517,8	7239,076
518,3	7241,99
518,7	7233,448
519,2	7235,99
519,6	7246,448
520,1	7258,219
520,5	7269,676
521	7279,848
521,4	7281,048
521,9	7295,819
522,3	7298,105
522,8	7299,648
523,2	7298,362
523,7	7294,533
524,1	7292,962
524,6	7302,733
525	7308,819
525,5	7314,876
525,9	7325,162
526,4	7334,876
526,8	7337,362
527,3	7352,505
527,7	7363,048
528,2	7376,248
528,6	7386,19
529,1	7389,476
529,5	7391,076
530	7409,448
530,4	7416,133
530,9	7418,876
531,3	7419,105
531,8	7432,276
532,2	7450,248
532,6	7462,619
533,1	7464,905
533,5	7473,076
534	7481,276
534,4	7488,648
534,9	7490,162
535,3	7495,533
535,8	7507,048
536,2	7515,819
536,7	7530,848
537,1	7543,105
537,6	7558,676
538	7568,333
538,5	7580,562
538,9	7584,819
539,4	7605,162
539,8	7610,705
540,3	7619,59
540,7	7630,162
541,2	7648,019
541,6	7652,619
542,1	7667,419
542,5	7671,476
543	7683,99
543,4	7706,219
543,9	7719,419
544,3	7718,962
544,8	7734,505
545,2	7744,562
545,7	7757,219
546,1	7768,705
546,5	7771,39
547	7773,648
547,4	7793,476
547,9	7803,305
548,3	7820,59
548,8	7836,562
549,2	7850,705
549,7	7862,476
550,1	7882,133
550,6	7897,933
551	7913,619
551,5	7918,105
551,9	7920,076
552,4	7928,048
552,8	7933,305
553,3	7944,105
553,7	7955,648
554,2	7958,39
554,6	7980,248
555,1	7996,905
555,5	8006,819
555,9	8016,876
556,4	8029,762
556,8	8033,505
557,3	8036,162
557,7	8046,305
558,2	8058,19
558,6	8064,819
559,1	8076,505
559,5	8077,362
560	8091,448
560,4	8100,419
560,9	8095,905
561,3	8096,819
561,8	8101,362
562,2	8115,448
562,7	8122,848
563,1	8116,533
563,6	8125,19
564	8132,819
564,4	8132,105
564,9	8139,99
565,3	8138,19
565,8	8145,79
566,2	8157,676
566,7	8168,248
567,1	8181,448
567,6	8190,962
568	8189,019
568,5	8200,019
568,9	8202,39
569,4	8191,305
569,8	8192,79
570,3	8178,648
570,7	8174,219
571,1	8179,019
571,6	8161,705
572	8148,076
572,5	8159,19
572,9	8153,076
573,4	8151,133
573,8	8149,105
574,3	8148,276
574,7	8153,362
575,2	8153,505
575,6	8147,048
576,1	8143,362
576,5	8140,819
576,9	8131,019
577,4	8112,362
577,8	8102,105
578,3	8103,248
578,7	8091,276
579,2	8079,619
579,6	8074,305
580,1	8078,876
580,5	8080,933
581	8068,39
581,4	8054,705
581,9	8047,876
582,3	8035,505
582,7	8025,876
583,2	8001,39
583,6	7991,248
584,1	7980,248
584,5	7957,819
585	7939,333
585,4	7927,076
585,9	7910,362
586,3	7899,648
586,8	7886,219
587,2	7873,733
587,6	7866,248
588,1	7859,933
588,5	7850,962
589	7834,505
589,4	7814,905
589,9	7792,676
590,3	7784,476
590,8	7774,019
591,2	7762,648
591,7	7744,819
592,1	7726,448
592,5	7723,362
593	7720,99
593,4	7707,905
593,9	7696,59
594,3	7679,562
594,8	7672,733
595,2	7672,733
595,7	7657,705
596,1	7645,819
596,6	7626,733
597	7617,962
597,4	7598,562
597,9	7583,905
598,3	7559,619
598,8	7547,533
599,2	7526,562
599,7	7509,476
600,1	7487,733
600,6	7478,962
601	7459,59
601,4	7455,648
601,9	7434,105
602,3	7412,448
602,8	7404,962
603,2	7384,79
603,7	7366,448
604,1	7355,933
604,6	7325,933
605	7308,048
605,4	7292,79
605,9	7265,362
606,3	7244,876
606,8	7217,162
607,2	7183,219
607,7	7166,248
608,1	7151,448
608,6	7129,219
609	7103,733
609,4	7088,676
609,9	7068,905
610,3	7047,533
610,8	7018,305
611,2	6982,733
611,7	6951,99
612,1	6941,19
612,6	6903,705
613	6878,219
613,4	6847,705
613,9	6824,133
614,3	6809,019
614,8	6787,39
615,2	6753,39
615,7	6730,79
616,1	6699,105
616,6	6685,762
617	6662,19
617,4	6620,276
617,9	6605,305
618,3	6572,676
618,8	6546,305
619,2	6529,305
619,7	6492,19
620,1	6479,419
620,5	6465,305
621	6427,562
621,4	6404,619
621,9	6378,99
622,3	6349,648
622,8	6327,733
623,2	6282,105
623,6	6264,676
624,1	6234,333
624,5	6208,133
625	6184,676
625,4	6155,733
625,9	6128,933
626,3	6103,762
626,8	6064,019
627,2	6037,59
627,6	6012,333
628,1	5971,333
628,5	5947,076
629	5911,419
629,4	5881,419
629,9	5852,105
630,3	5824,705
630,7	5792,533
631,2	5775,248
631,6	5737,133
632,1	5713,362
632,5	5694,448
633	5661,962
633,4	5633,59
633,8	5608,876
634,3	5575,219
634,7	5549,505
635,2	5518,333
635,6	5486,619
636,1	5455,419
636,5	5418,533
636,9	5387,362
637,4	5357,362
637,8	5323,333
638,3	5297,819
638,7	5265,219
639,2	5243,876
639,6	5223,419
640	5188,19
640,5	5167,933
640,9	5144,676
641,4	5119,505
641,8	5090,219
642,2	5074,848
642,7	5043,648
643,1	5030,419
643,6	5004,276
644	4976,676
644,5	4955,476
644,9	4937,99
645,3	4902,819
645,8	4877,705
646,2	4842,962
646,7	4815,476
647,1	4797,59
647,6	4766,248
648	4738,048
648,4	4706,076
648,9	4684,876
649,3	4666,219
649,8	4645,648
650,2	4626,533
650,6	4599,105
651,1	4571,048
651,5	4555,619
652	4536,962
652,4	4501,533
652,9	4467,79
653,3	4433,076
653,7	4413,448
654,2	4387,848
654,6	4358,905
655,1	4338,876
655,5	4329,076
655,9	4307,819
656,4	4290,819
656,8	4274,276
657,3	4252,019
657,7	4227,105
658,2	4193,076
658,6	4162,962
659	4138,39
659,5	4107,876
659,9	4078,276
660,4	4053,419
660,8	4024,933
661,2	4001,59
661,7	3968,876
662,1	3948,076
662,6	3921,705
663	3893,733
663,4	3866,705
663,9	3852,39
664,3	3826,305
664,8	3802,648
665,2	3775,59
665,6	3757,219
666,1	3732,476
666,5	3714,19
667	3682,733
667,4	3658,448
667,9	3639,276
668,3	3616,19
668,7	3589,448
669,2	3563,762
669,6	3544,448
670,1	3525,419
670,5	3503,476
670,9	3484,59
671,4	3460,448
671,8	3440,676
672,3	3424,819
672,7	3401,076
673,1	3379,505
673,6	3356,905
674	3331,876
674,5	3313,59
674,9	3290,105
675,3	3270,048
675,8	3247,019
676,2	3223,619
676,7	3206,733
677,1	3189,619
677,5	3175,676
678	3158,733
678,4	3137,505
678,9	3120,819
679,3	3101,19
679,7	3087,505
680,2	3066,305
680,6	3037,99
681,1	3017,333
681,5	2993,333
681,9	2964,848
682,4	2949,762
682,8	2923,676
683,3	2909,505
683,7	2892,676
684,1	2876,705
684,6	2859,733
685	2842,905
685,5	2819,048
685,9	2801,676
686,3	2779,333
686,8	2756,648
687,2	2735,019
687,7	2715,533
688,1	2698,819
688,5	2681,819
689	2660,362
689,4	2637,448
689,9	2623,933
690,3	2603,905
690,7	2583,133
691,2	2564,876
691,6	2550,533
692	2533,533
692,5	2519,962
692,9	2509,419
693,4	2493,819
693,8	2477,305
694,2	2456,962
694,7	2445,333
695,1	2428,533
695,6	2411,619
696	2386,848
696,4	2372,533
696,9	2364,362
697,3	2345,39
697,8	2321,59
698,2	2312,562
698,6	2303,676
699,1	2293,162
699,5	2279,39
699,9	2265,79
700,4	2260,648
700,8	2250,562
701,3	2234,219
701,7	2214,648
702,1	2197,648
702,6	2188,562
703	2172,076
703,5	2156,019
703,9	2141,848
704,3	2128,619
704,8	2116,019
705,2	2103,276
705,6	2083,733
706,1	2063,276
706,5	2046,219
707	2028,705
707,4	2011,305
707,8	1994,562
708,3	1979,933
708,7	1964,99
709,2	1956,448
709,6	1948,39
710	1934,39
710,5	1925,19
710,9	1913,419
711,3	1898,19
711,8	1886,219
712,2	1872,933
712,7	1862,219
713,1	1855,362
713,5	1844,19
714	1829,248
714,4	1818,019
714,8	1801,619
715,3	1789,876
715,7	1773,133
716,2	1760,019
716,6	1742,19
717	1733,819
717,5	1723,562
717,9	1715,133
718,3	1698,562
718,8	1682,962
719,2	1677,905
719,7	1669,562
720,1	1653,448
720,5	1638,676
721	1622,248
721,4	1612,19
721,8	1605,762
722,3	1582,362
722,7	1564,733
723,2	1554,076
723,6	1541,962
724	1534,019
724,5	1523,619
724,9	1504,962
725,3	1495,362
725,8	1486,219
726,2	1472,619
726,7	1462,676
727,1	1447,933
727,5	1439,619
728	1434,505
728,4	1425,248
728,8	1409,59
729,3	1402,162
729,7	1396,305
730,1	1392,533
730,6	1380,933
731	1372,39
731,5	1365,59
731,9	1360,476
732,3	1348,619
732,8	1340,419
733,2	1328,333
733,6	1318,133
734,1	1314,562
734,5	1306,305
734,9	1297,648
735,4	1300,19
735,8	1288,19
736,3	1282,933
736,7	1273,505
737,1	1262,819
737,6	1252,905
738	1249,076
738,4	1234,762
738,9	1227,905
739,3	1220,048
739,7	1221,162
740,2	1214,933
740,6	1208,705
741,1	1198,676
741,5	1194,533
741,9	1184,762
742,4	1178,59
742,8	1169,819
743,2	1162,562
743,7	1157,762
744,1	1155,39
744,5	1145,99
745	1142,276
745,4	1132,105
745,8	1119,305
746,3	1107,705
746,7	1095,819
747,2	1085,019
747,6	1079,962
748	1072,619
748,5	1062,39
748,9	1060,39
749,3	1054,848
749,8	1048,419
750,2	1046,476
750,6	1033,962
751,1	1025,619
751,5	1022,305
751,9	1015,533
752,4	1011,19
752,8	1003,448
753,3	988,619
753,7	987,248
754,1	981,362
754,6	971,59
755	965,019
755,4	954,848
755,9	952,333
756,3	948,362
756,7	942,962
757,2	930,933
757,6	927,562
758	921,562
758,5	916,248
758,9	906,476
759,3	901,276
759,8	887,562
760,2	887,79
760,6	880,476
761,1	876,133
761,5	871,79
761,9	864,876
762,4	858,648
762,8	855,819
763,3	848,39
763,7	847,333
764,1	833,362
764,6	834,762
765	828,619
765,4	822,219
765,9	816,762
766,3	815,905
766,7	812,533
767,2	811,933
767,6	800,562
768	793,705
768,5	792,819
768,9	793,19
769,3	782,39
769,8	772,59
770,2	771,105
770,6	761,419
771,1	756,733
771,5	751,533
771,9	744,962
772,4	741,905
772,8	737,819
773,2	723,648
773,7	717,648
774,1	714,276
774,5	705,019
775	701,219
775,4	698,962
775,8	699,99
776,3	696,076
776,7	694,962
777,1	694,276
777,6	689,79
778	682,79
778,4	672,933
778,9	662,248
779,3	660,105
779,7	656,333
780,2	644,933
780,6	644,076
781	642,676
781,5	640,705
781,9	633,848
782,3	631,048
782,8	622,705
783,2	628,333
783,6	615,962
784,1	609,962
784,5	598,762
784,9	598,133
785,4	590,99
785,8	590,962
786,2	582,533
786,7	587,99
787,1	581,733
787,5	583,848
788	574,79
788,4	568,933
788,8	558,076
789,3	552,648
789,7	544,162
790,1	539,99
790,6	532,705
791	532,019
791,4	530,19
791,9	530,248
792,3	525,876
792,7	524,933
793,2	517,419
793,6	519,248
794	513,019
794,5	515,933
794,9	514,848
795,3	514,733
795,8	507,99
796,2	508,876
796,6	506,79
797,1	506,533
797,5	494,848
797,9	489,99
798,4	488,076
798,8	486,905
799,2	479,733
799,7	476,19
800,1	469,819
800,5	467,162
801	463,362
801,4	456,39
801,8	451,276
802,2	452,562
802,7	446,676
803,1	443,248
803,5	443,39
804	439,105
804,4	438,705
804,8	432,048
805,3	427,99
805,7	426,162
806,1	422,762
806,6	415,99
807	412,619
807,4	404,448
807,9	407,562
808,3	406,248
808,7	401,133
809,2	398,39
809,6	394,99
810	390,505
810,4	393,876
810,9	385,162
811,3	377,276
811,7	372,762
812,2	366,533
812,6	364,848
813	367,276
813,5	355,79
813,9	355,705
814,3	352,105
814,8	348,733
815,2	353,048
815,6	352,019
816,1	347,619
816,5	347,505
816,9	340,219
817,3	339,219
817,8	339,19
818,2	336,019
818,6	334,99
819,1	330,133
819,5	329,59
819,9	328,362
820,4	326,162
820,8	320,105
821,2	313,876
821,7	309,848
822,1	308,162
822,5	308,133
822,9	305,648
823,4	307,219
823,8	305,648
824,2	303,819
824,7	303,905
825,1	300,705
825,5	288,99
826	290,39
826,4	287,819
826,8	287,676
827,3	285,162
827,7	276,733
828,1	275,333
828,5	274,819
829	275,762
829,4	269,448
829,8	270,019
830,3	265,133
830,7	267,705
831,1	265,19
831,6	263,305
832	253,905
832,4	251,19
832,8	245,876
833,3	242,305
833,7	243,105
834,1	242,333
834,6	241,333
835	241,819
835,4	244,448
835,8	243,733
836,3	247,276
836,7	236,076
837,1	233,59
837,6	232,533
838	230,019
838,4	219,533
838,9	217,39
839,3	215,248
839,7	218,362
840,1	217,19
840,6	214,39
841	214,676
841,4	216,448
841,9	215,905
842,3	216,419
842,7	216,676
843,1	210,99
843,6	208,648
844	208,362
844,4	210,533
844,9	210,19
845,3	209,676
845,7	208,99
846,2	207,905
846,6	209,505
847	206,533
847,4	205,448
847,9	201,819
848,3	199,733
848,7	197,819
849,2	205,876
849,6	206,819
850	207,848
850,4	204,905
850,9	203,505
851,3	200,39
851,7	198,648
852,2	192,333
852,6	190,876
853	182,876
853,4	179,619
853,9	175,219
854,3	177,276
854,7	172,019
855,2	170,905
855,6	169,105
856	166,076
856,4	163,533
856,9	167,248
857,3	163,162
857,7	162,162
858,2	161,705
858,6	158,905
859	160,933
859,4	163,19
859,9	161,676
860,3	159,99
860,7	158,676
861,1	152,219
861,6	153,905
862	158,533
862,4	158,162
862,9	160,962
863,3	162,048
863,7	162,59
864,1	161,819
864,6	160,99
865	154,19
865,4	152,562
865,9	144,848
866,3	140,362
866,7	138,248
867,1	135,99
867,6	129,619
868	131,019
868,4	128,676
868,8	127,933
869,3	126,219
869,7	127,676
870,1	130,419
870,6	132,476
871	125,876
871,4	125,105
871,8	126,162
872,3	124,448
872,7	117,476
873,1	112,848
873,5	115,733
874	115,362
874,4	113,99
874,8	112,219
875,3	110,562
875,7	118,476
876,1	119,962
876,5	113,39
877	114,105
877,4	113,276
877,8	103,562
878,2	107,876
878,7	104,048
879,1	104,79
879,5	105,048
879,9	105,99
880,4	100,819
880,8	107,419
881,2	100,076
881,7	92,333
882,1	97,048
882,5	91,848
882,9	90,048
883,4	94,99
883,8	95,448
884,2	94,39
884,6	95,848
885,1	88,048
885,5	94,39
885,9	100,705
886,3	98,248
886,8	93,705
887,2	94,99
887,6	96,219
888	94,248
888,5	94,705
888,9	81,848
889,3	82,99
889,8	85,276
890,2	87,962
890,6	91,076
891	87,276
891,5	83,562
891,9	89,562
892,3	87,933
892,7	86,276
893,2	83,505
893,6	79,019
894	80,79
894,4	80,39
894,9	81,762
895,3	79,876
895,7	75,762
896,1	73,876
896,6	74,19
897	78,305
897,4	79,362
897,8	78,79
898,3	83,305
898,7	86,505
899,1	88,505
899,5	86,933
900	81,619
900,4	77,562
900,8	81,19
901,2	79,162
901,7	70,733
902,1	65,505
902,5	64,419
902,9	63,419
903,4	65,876
903,8	61,162
904,2	59,962
904,6	67,476
905,1	70,962
905,5	72,076
905,9	76,705
906,3	78,905
906,8	78,248
907,2	69,676
907,6	71,79
908	73,448
908,5	75,219
908,9	74,562
909,3	69,905
909,7	70,59
910,2	77,619
910,6	73,248
911	72,105
911,4	72,362
911,9	67,819
912,3	62,648
912,7	62,933
913,1	62,019
913,6	58,533
914	54,219
914,4	52,619
914,8	53,333
915,3	54,905
915,7	48,305
916,1	41,276
916,5	48,276
916,9	49,505
917,4	45,333
917,8	42,79
918,2	38,59
918,6	42,305
919,1	47,048
919,5	48,876
919,9	49,048
920,3	48,019
920,8	50,962
921,2	59,448
921,6	53,762
922	53,333
922,5	45,99
922,9	43,99
923,3	43,076
923,7	44,99
924,2	36,876
924,6	39,676
925	38,505
925,4	37,162
925,8	37,019
926,3	38,248
926,7	33,305
927,1	42,362
927,5	42,59
928	41,562
928,4	38,333
928,8	33,076
929,2	35,505
929,7	35,99
930,1	23,19
930,5	20,505
930,9	29,362
931,3	31,448
931,8	44,448
932,2	37,448
932,6	36,419
933	42,619
933,5	42,848
933,9	32,305
934,3	33,79
934,7	28,333
935,2	30,248
935,6	30,99
936	30,162
936,4	29,905
936,8	30,648
937,3	34,59
937,7	30,533
938,1	30,933
938,5	28,905
939	28,676
939,4	28,362
939,8	25,562
940,2	21,933
940,6	26,419
941,1	26,505
941,5	27,59
941,9	28,133
942,3	30,019
942,8	34,162
943,2	32,676
943,6	30,39
944	31,99
944,4	27,619
944,9	29,876
945,3	23,133
945,7	19,905
946,1	22,248
946,6	19,305
947	23,99
947,4	30,876
947,8	28,905
948,2	35,505
948,7	35,962
949,1	35,448
949,5	32,39
949,9	27,476
950,3	21,076
950,8	25,076
951,2	28,39
951,6	27,619
952	33,619
952,5	38,333
952,9	35,133
953,3	40,533
953,7	34,305
954,1	32,39
954,6	40,448
955	33,505
955,4	37,705
955,8	38,276
956,2	35,562
956,7	39,505
957,1	38,59
957,5	31,905
957,9	32,676
958,3	24,848
958,8	27,533
959,2	25,99
959,6	22,076
960	19,219
960,5	23,562
960,9	24,848
961,3	22,248
961,7	21,905
962,1	24,99
962,6	20,848
963	18,276
963,4	12,276
963,8	5,105
964,2	11,676
964,7	13,705
965,1	13,048
965,5	15,533
965,9	14,876
966,3	18,79
966,8	24,676
967,2	23,362
967,6	23,819
968	21,619
968,4	26,819
968,9	28,276
969,3	27,248
969,7	24,333
970,1	26,562
970,5	17,219
971	21,676
971,4	17,19
971,8	18,876
972,2	19,819
972,6	19,533
973,1	16,305
973,5	17,105
973,9	13,619
974,3	10,962
974,7	16,248
975,2	12,99
975,6	10,619
976	16,505
976,4	21,505
976,8	23,076
977,3	24,59
977,7	18,876
978,1	19,105
978,5	19,99
978,9	17,19
979,4	15,076
979,8	15,162
980,2	19,648
980,6	27,248
981	24,419
981,5	27,305
981,9	22,276
982,3	21,476
982,7	24,59
983,1	20,762
983,6	10,705
984	17,419
984,4	13,905
984,8	16,933
985,2	22,162
985,6	21,048
986,1	17,819
986,5	20,19
986,9	16,876
987,3	18,19
987,7	20,59
988,2	22,133
988,6	16,133
989	20,133
989,4	22,105
989,8	26,105
990,3	26,105
990,7	26,876
991,1	23,505
991,5	29,419
991,9	32,076
992,3	23,99
992,8	22,248
993,2	22,848
993,6	16,676
994	12,505
994,4	4,362
994,9	1,905
995,3	3,448
995,7	0,276
996,1	3,019
996,5	5,276
996,9	9,39
997,4	16,019
997,8	17,076
998,2	19,562
998,6	21,762
999	18,562
999,5	13,219
999,9	12,905
1000,3	13,362
1000,7	9,076
1001,1	6,848
1001,5	2,819
1002	1,733
1002,4	7,333
1002,8	10,476
1003,2	7,476
1003,6	14,19
1004	15,105
1004,5	15,076
1004,9	13,39
1005,3	15,619
1005,7	12,305
1006,1	17,505
1006,6	15,076
1007	20,59
1007,4	24,419
1007,8	23,79
1008,2	16,562
1008,6	16,676
1009,1	8,419
1009,5	3,733
1009,9	-0,524
1010,3	-0,01
1010,7	5,562
1011,1	6,048
1011,6	5,676
1012	11,762
1012,4	12,39
1012,8	14,419
1013,2	20,19
1013,6	21,733
1014,1	27,962
1014,5	25,362
1014,9	21,162
1015,3	21,448
1015,7	19,248
1016,1	12,505
1016,6	11,162
1017	11,248
1017,4	12,819
1017,8	13,076
1018,2	14,333
1018,6	18,448
1019,1	21,39
1019,5	20,819
1019,9	16,248
1020,3	20,048
1020,7	20,419
1021,1	22,362
1021,6	25,19
1022	21,59
1022,4	18,19
1022,8	25,505
1023,2	21,448
1023,6	21,648
1024,1	24,676
1024,5	22,248
1024,9	21,819
1025,3	25,619
1025,7	23,248
1026,1	27,362
1026,6	32,333
1027	28,048
1027,4	27,705
1027,8	34,619
1028,2	36,533
1028,6	34,762
1029	29,905
1029,5	27,162
1029,9	28,59
1030,3	25,562
1030,7	10,533
1031,1	5,419
1031,5	3,333
1032	9,533
1032,4	8,362
1032,8	8,048
1033,2	7,848
1033,6	15,419
1034	11,333
1034,4	10,648
1034,9	7,248
1035,3	4,476
1035,7	3,448
1036,1	6,333
1036,5	11,79
1036,9	19,762
1037,4	20,448
1037,8	16,933
1038,2	23,848
1038,6	25,619
1039	26,905
1039,4	24,305
1039,8	28,562
1040,3	31,333
1040,7	34,562
1041,1	24,819
1041,5	20,19
1041,9	17,19
1042,3	20,105
1042,7	13,59
1043,2	15,562
1043,6	15,362
1044	21,905
1044,4	26,505
1044,8	27,305
1045,2	27,762
1045,6	28,99
1046,1	25,476
1046,5	27,59
1046,9	33,019
1047,3	30,962
1047,7	34,419
1048,1	28,048
1048,5	32,076
1049	31,505
1049,4	30,705
1049,8	30,933
1050,2	32,39
1050,6	35,333
1051	42,676
1051,4	38,819
1051,9	45,876
1052,3	45,59
1052,7	44,019
1053,1	44,705
1053,5	40,905
1053,9	36,79
1054,3	36,562
1054,8	31,505
1055,2	27,819
1055,6	24,276
1056	23,562
1056,4	21,019
1056,8	20,276
1057,2	15,762
1057,6	18,505
1058,1	19,162
1058,5	14,162
1058,9	14,019
1059,3	11,076
1059,7	9,39
1060,1	14,762
1060,5	13,19
1061	15,448
1061,4	19,019
1061,8	21,562
1062,2	27,962
1062,6	33,562
1063	32,162
1063,4	32,276
1063,8	28,876
1064,3	32,533
1064,7	27,162
1065,1	22,933
1065,5	19,219
1065,9	19,276
1066,3	15,79
1066,7	20,276
1067,1	18,933
1067,6	21,133
1068	15,962
1068,4	16,248
1068,8	20,705
1069,2	24,19
1069,6	20,99
1070	21,39
1070,4	24,762
1070,9	30,705
1071,3	29,905
1071,7	25,305
1072,1	24,333
1072,5	27,333
1072,9	23,105
1073,3	21,59
1073,7	23,876
1074,2	21,676
1074,6	21,505
1075	21,619
1075,4	19,248
1075,8	26,076
1076,2	21,105
1076,6	18,848
1077	24,562
1077,5	25,905
1077,9	24,876
1078,3	24,505
1078,7	16,819
1079,1	19,39
1079,5	18,333
1079,9	17,219
1080,3	17,619
1080,7	18,448
1081,2	17,676
1081,6	19,562
1082	16,819
1082,4	19,19
1082,8	17,933
1083,2	18,705
1083,6	17,505
1084	21,19
1084,5	25,876
1084,9	28,99
1085,3	26,505
1085,7	20,59
1086,1	15,048
1086,5	15,619
1086,9	13,705
1087,3	6,933
1087,7	6,362
1088,2	11,048
1088,6	14,762
1089	15,676
1089,4	16,819
1089,8	17,99
1090,2	20,876
1090,6	24,848
1091	25,133
1091,4	27,048
1091,9	30,39
1092,3	31,505
1092,7	39,362
1093,1	43,819
1093,5	38,476
1093,9	37,905
1094,3	38,619
1094,7	38,448
1095,1	33,933
1095,5	25,476
1096	18,533
1096,4	24,248
1096,8	20,562
1097,2	20,619
1097,6	20,905
1098	23,533
1098,4	19,676
1098,8	22,619
1099,2	19,705
1099,6	15,533
1100,1	10,048
1100,5	11,276
1100,9	10,362
1101,3	15,933
1101,7	14,505
1102,1	12,705
1102,5	18,333
1102,9	25,876
1103,3	25,362
1103,7	27,505
1104,2	25,648
1104,6	27,219
1105	27,476
1105,4	21,276
1105,8	14,133
1106,2	10,133
1106,6	5,419
1107	2,305
1107,4	-1,433
1107,8	-3,467
1108,3	0,183
