Data from Subt2_05.txt Node
Date: Thu Aug 24 16:30:43 MSK 2023
User: vat
Spectrometer: MAYP114033
Trigger mode: 0
Integration Time (sec): 1,000000E0
Scans to average: 5
Electric dark correction enabled: true
Nonlinearity correction enabled: false
Boxcar width: 3
XAxis mode: Wavelengths
Number of Pixels in Spectrum: 2068
>>>>>Begin Spectral Data<<<<<
199,4	1,767
199,9	-0,733
200,4	6,367
200,8	4,495
201,3	4,581
201,8	7,152
202,2	3,867
202,7	6,438
203,2	8,61
203,6	5,867
204,1	8,238
204,6	7,667
205	8,152
205,5	10,895
206	10,895
206,4	7,524
206,9	6,61
207,4	5,752
207,8	4,524
208,3	-0,133
208,8	-0,705
209,2	1,438
209,7	3,695
210,2	4,924
210,6	5,124
211,1	5,838
211,5	4,695
212	1,952
212,5	-0,133
212,9	-0,019
213,4	-4,076
213,9	-5,819
214,3	-4,705
214,8	-2,133
215,3	5,838
215,7	4,438
216,2	6,638
216,7	11,067
217,1	13,695
217,6	7,381
218,1	8,295
218,5	8,495
219	8,667
219,5	7,952
219,9	7,638
220,4	8,01
220,9	17,181
221,3	24,038
221,8	17,095
222,3	16,524
222,7	17,952
223,2	15,01
223,6	14,781
224,1	17,495
224,6	10,495
225	13,867
225,5	11,838
226	9,267
226,4	5,638
226,9	8,381
227,4	1,41
227,8	3,124
228,3	3,724
228,8	8,867
229,2	10,924
229,7	16,381
230,2	15,81
230,6	21,124
231,1	19,295
231,5	21,81
232	15,752
232,5	13,467
232,9	14,295
233,4	15,495
233,9	9,21
234,3	11,724
234,8	5,124
235,3	8,324
235,7	11,724
236,2	14,381
236,7	5,867
237,1	9,381
237,6	7,552
238,1	13,752
238,5	12,838
239	11,524
239,4	6,724
239,9	7,724
240,4	8,238
240,8	8,752
241,3	4,924
241,8	13,81
242,2	9,667
242,7	10,81
243,2	10,895
243,6	11,352
244,1	7,095
244,6	6,924
245	0,924
245,5	7,724
245,9	6,667
246,4	7,552
246,9	6,41
247,3	6,952
247,8	8,067
248,3	3,552
248,7	2,752
249,2	6,467
249,7	19,695
250,1	34,895
250,6	38,981
251	42,952
251,5	50,21
252	52,838
252,4	49,067
252,9	40,038
253,4	21,267
253,8	26,895
254,3	22,524
254,8	16,61
255,2	8,952
255,7	11,467
256,1	10,581
256,6	11,238
257,1	0,981
257,5	-0,905
258	5,581
258,5	6,952
258,9	5,067
259,4	1,695
259,9	7,41
260,3	7,295
260,8	10,752
261,2	5,581
261,7	7,21
262,2	9,924
262,6	11,267
263,1	12,895
263,6	17,524
264	21,01
264,5	20,181
264,9	22,095
265,4	22,067
265,9	23,01
266,3	18,581
266,8	15,981
267,3	13,352
267,7	11,124
268,2	7,152
268,7	-1,419
269,1	-2,676
269,6	-2,19
270	-5,133
270,5	-6,248
271	1,238
271,4	-0,676
271,9	4,438
272,4	6,238
272,8	9,695
273,3	15,638
273,7	14,638
274,2	8,552
274,7	17,21
275,1	13,752
275,6	13,581
276,1	10,667
276,5	11,095
277	10,324
277,4	9,581
277,9	5,381
278,4	11,095
278,8	9,41
279,3	9,981
279,8	3,181
280,2	4,524
280,7	11,238
281,1	8,067
281,6	2,981
282,1	0,838
282,5	0,695
283	1,695
283,4	-0,419
283,9	-1,905
284,4	-1,076
284,8	5,21
285,3	10,152
285,8	10,695
286,2	16,867
286,7	16,324
287,1	9,867
287,6	9,238
288,1	1,01
288,5	3,752
289	3,695
289,5	-0,79
289,9	0,981
290,4	-1,162
290,8	-4,99
291,3	-1,476
291,8	-5,905
292,2	-7,59
292,7	-5,448
293,1	1,067
293,6	12,381
294,1	16,124
294,5	12,724
295	15,752
295,5	10,581
295,9	12,81
296,4	4,41
296,8	0,981
297,3	8,724
297,8	13,41
298,2	9,924
298,7	10,981
299,1	9,952
299,6	17,038
300,1	9,781
300,5	8,752
301	9,21
301,5	12,838
301,9	18,924
302,4	10,61
302,8	7,867
303,3	15,152
303,8	12,152
304,2	16,124
304,7	9,095
305,1	8,781
305,6	15,352
306,1	12,667
306,5	9,124
307	9,295
307,4	3,41
307,9	9,638
308,4	6,01
308,8	7,61
309,3	9,467
309,8	14,095
310,2	13,238
310,7	11,381
311,1	13,667
311,6	17,981
312,1	16,752
312,5	13,381
313	9,352
313,4	4,638
313,9	4,295
314,4	-2,905
314,8	-5,276
315,3	1,495
315,7	3,724
316,2	1,467
316,7	10,552
317,1	14,495
317,6	17,41
318	18,981
318,5	10,638
319	11,352
319,4	15,81
319,9	16,181
320,3	14,495
320,8	19,267
321,3	18,581
321,7	24,41
322,2	23,295
322,6	23,952
323,1	21,381
323,6	20,267
324	14,038
324,5	13,41
324,9	11,238
325,4	9,924
325,9	7,695
326,3	10,924
326,8	14,124
327,2	18,638
327,7	20,895
328,2	18,152
328,6	14,152
329,1	21,352
329,5	17,781
330	19,838
330,5	20,038
330,9	14,41
331,4	12,838
331,8	14,581
332,3	7,61
332,8	7,467
333,2	5,61
333,7	4,181
334,1	7,438
334,6	3,838
335,1	6,095
335,5	4,067
336	5,124
336,4	3,238
336,9	3,095
337,4	9,01
337,8	14,838
338,3	20,01
338,7	25,724
339,2	20,61
339,7	19,552
340,1	15,352
340,6	13,038
341	17,667
341,5	17,181
342	13,41
342,4	13,495
342,9	15,638
343,3	18,81
343,8	15,067
344,2	11,638
344,7	12,295
345,2	16,124
345,6	14,467
346,1	12,324
346,5	17,61
347	14,838
347,5	16,867
347,9	11,524
348,4	8,924
348,8	10,638
349,3	14,095
349,8	10,724
350,2	10,924
350,7	13,952
351,1	16,324
351,6	21,695
352	24,124
352,5	25,581
353	30,295
353,4	41,381
353,9	43,41
354,3	51,867
354,8	58,638
355,3	74,724
355,7	89,524
356,2	105,695
356,6	116,267
357,1	134,038
357,5	153,438
358	172,867
358,5	192,952
358,9	223,038
359,4	248,638
359,8	282,752
360,3	326,667
360,8	376,724
361,2	423,581
361,7	484,352
362,1	549,238
362,6	615,61
363	691,01
363,5	761,152
364	828,267
364,4	908,01
364,9	987,467
365,3	1055,552
365,8	1128,867
366,3	1195,01
366,7	1264,381
367,2	1322,067
367,6	1368,124
368,1	1398,724
368,5	1423,01
369	1437,295
369,5	1440,41
369,9	1420,467
370,4	1399,238
370,8	1368,752
371,3	1330,61
371,7	1278,267
372,2	1223,752
372,7	1162,152
373,1	1098,038
373,6	1035,895
374	966,838
374,5	898,124
374,9	843,067
375,4	779,552
375,9	719,924
376,3	664,524
376,8	603,895
377,2	560,867
377,7	517,952
378,2	468,867
378,6	432,095
379,1	400,695
379,5	368,324
380	343,895
380,4	310,152
380,9	277,067
381,4	257,838
381,8	245,752
382,3	218,467
382,7	205,695
383,2	194,01
383,6	187,21
384,1	179,352
384,6	171,61
385	150,581
385,5	150,638
385,9	137,152
386,4	126,181
386,8	120,581
387,3	112,495
387,7	100,61
388,2	97,924
388,7	81,752
389,1	79,61
389,6	74,267
390	68,381
390,5	61,952
390,9	57,267
391,4	54,152
391,9	56,924
392,3	54,467
392,8	51,781
393,2	46,924
393,7	44,981
394,1	46,838
394,6	40,952
395,1	44,295
395,5	41,81
396	48,781
396,4	47,181
396,9	50,524
397,3	45,124
397,8	51,01
398,2	46,238
398,7	46,124
399,2	43,524
399,6	42,524
400,1	42,124
400,5	44,495
401	42,295
401,4	39,095
401,9	38,467
402,4	36,01
402,8	36,695
403,3	36,038
403,7	40,61
404,2	39,667
404,6	43,981
405,1	44,61
405,5	41,695
406	45,581
406,5	47,438
406,9	47,667
407,4	51,124
407,8	54,038
408,3	58,01
408,7	57,095
409,2	60,781
409,6	62,924
410,1	67,295
410,6	65,495
411	70,695
411,5	74,838
411,9	87,952
412,4	91,095
412,8	96,181
413,3	99,81
413,7	110,267
414,2	115,524
414,7	125,552
415,1	134,21
415,6	139,324
416	153,924
416,5	166,552
416,9	176,61
417,4	183,467
417,8	190,067
418,3	196,524
418,8	206,438
419,2	212,638
419,7	222,895
420,1	226,752
420,6	242,467
421	253,41
421,5	259,067
421,9	266,21
422,4	279,838
422,8	294,267
423,3	309,61
423,8	314,238
424,2	330,467
424,7	350,467
425,1	370,81
425,6	378,295
426	386,838
426,5	402,095
426,9	424,295
427,4	438,295
427,9	454,438
428,3	476,495
428,8	503,038
429,2	529,867
429,7	558,01
430,1	584,41
430,6	615,01
431	645,638
431,5	674,524
431,9	704,695
432,4	738,352
432,8	770,895
433,3	808,267
433,8	846,581
434,2	888,324
434,7	935,41
435,1	975,41
435,6	1012,867
436	1061,01
436,5	1103,267
436,9	1151,724
437,4	1209,01
437,8	1265,21
438,3	1325,952
438,8	1386,238
439,2	1450,952
439,7	1522,638
440,1	1585,81
440,6	1644,924
441	1706,895
441,5	1777,581
441,9	1852,667
442,4	1930,752
442,8	2015,21
443,3	2101,152
443,7	2198,181
444,2	2292,381
444,7	2395,124
445,1	2495,552
445,6	2593,41
446	2687,981
446,5	2787,124
446,9	2886,21
447,4	2992,61
447,8	3088,524
448,3	3196,781
448,7	3301,324
449,2	3412,267
449,6	3535,038
450,1	3655,895
450,6	3774,581
451	3904,495
451,5	4032,867
451,9	4172,095
452,4	4312,467
452,8	4444,781
453,3	4577,81
453,7	4720,524
454,2	4864,867
454,6	5012,952
455,1	5153,752
455,5	5294,324
456	5434,952
456,4	5589,467
456,9	5743,552
457,3	5897,41
457,8	6039,467
458,3	6201,267
458,7	6360,867
459,2	6534,581
459,6	6692,924
460,1	6847,838
460,5	7000,238
461	7176,867
461,4	7333,324
461,9	7497,752
462,3	7657,181
462,8	7821,895
463,2	7990,638
463,7	8165,238
464,1	8331,81
464,6	8503,352
465	8672,781
465,5	8835,238
466	9002,724
466,4	9164,924
466,9	9327,81
467,3	9486,638
467,8	9645,095
468,2	9804,295
468,7	9969,095
469,1	10126,667
469,6	10291,324
470	10448,352
470,5	10599,552
470,9	10754,838
471,4	10899,267
471,8	11048,495
472,3	11188,952
472,7	11324,524
473,2	11462,895
473,6	11600,695
474,1	11725,267
474,5	11863,467
475	11992,124
475,4	12119,838
475,9	12245,152
476,4	12364,981
476,8	12477,524
477,3	12596,352
477,7	12710,41
478,2	12811,295
478,6	12917,238
479,1	13019,695
479,5	13128,21
480	13217,61
480,4	13305,724
480,9	13379,981
481,3	13450,724
481,8	13530,61
482,2	13594,038
482,7	13651,01
483,1	13723,152
483,6	13790,552
484	13853,981
484,5	13928,924
484,9	13971,295
485,4	14019,781
485,8	14058,81
486,3	14099,21
486,7	14127,724
487,2	14152,152
487,6	14166,238
488,1	14179,352
488,5	14200,81
489	14207,267
489,4	14203,667
489,9	14200,495
490,4	14204,638
490,8	14199,724
491,3	14187,438
491,7	14164,695
492,2	14146,924
492,6	14130,181
493,1	14097,038
493,5	14048,067
494	14002,095
494,4	13969,352
494,9	13920,01
495,3	13876,038
495,8	13817,41
496,2	13776,724
496,7	13730,41
497,1	13685,267
497,6	13630,695
498	13571,552
498,5	13505,695
498,9	13450,752
499,4	13378,638
499,8	13320,238
500,3	13253,81
500,7	13190,695
501,2	13136,781
501,6	13074,638
502,1	13005,067
502,5	12942,41
503	12872,181
503,4	12795,752
503,9	12709,095
504,3	12618,238
504,8	12527,81
505,2	12453,667
505,7	12359,524
506,1	12266,61
506,6	12167,524
507	12081,61
507,5	11986,095
507,9	11902,095
508,4	11803,867
508,8	11718,924
509,3	11626,295
509,7	11539,181
510,2	11437,067
510,6	11348,867
511,1	11260,781
511,5	11157,61
512	11053,381
512,4	10951,61
512,9	10850,952
513,3	10749,152
513,8	10657,638
514,2	10547,638
514,7	10440,724
515,1	10333,695
515,6	10224,01
516	10111,924
516,5	10007,524
516,9	9892,895
517,4	9799,124
517,8	9699,81
518,3	9601,267
518,7	9495,724
519,2	9408,952
519,6	9314,01
520,1	9221,781
520,5	9108,238
521	9007,552
521,4	8908,295
521,9	8820,895
522,3	8712,667
522,8	8614,581
523,2	8515,581
523,7	8425,438
524,1	8327,895
524,6	8240,924
525	8150,924
525,5	8074,981
525,9	7997,438
526,4	7905,667
526,8	7816,524
527,3	7733,124
527,7	7647,095
528,2	7559,124
528,6	7464,124
529,1	7370,581
529,5	7283,438
530	7197,781
530,4	7118,524
530,9	7040,01
531,3	6961,41
531,8	6882,61
532,2	6807,724
532,6	6739,181
533,1	6656,467
533,5	6579,867
534	6497,838
534,4	6426,067
534,9	6362,21
535,3	6292,552
535,8	6214,41
536,2	6154,667
536,7	6086,038
537,1	6025,067
537,6	5952,895
538	5882,21
538,5	5819,667
538,9	5750,295
539,4	5687,095
539,8	5624,152
540,3	5562,181
540,7	5508,067
541,2	5448,524
541,6	5385,152
542,1	5334,41
542,5	5279,21
543	5223,724
543,4	5160,952
543,9	5101,495
544,3	5043,095
544,8	4992,638
545,2	4944,41
545,7	4884,095
546,1	4832,581
546,5	4786,324
547	4746,067
547,4	4697,867
547,9	4650,267
548,3	4599,267
548,8	4558,867
549,2	4511,067
549,7	4460,581
550,1	4406,295
550,6	4370,895
551	4321,695
551,5	4281,381
551,9	4246,352
552,4	4208,895
552,8	4169,838
553,3	4132,724
553,7	4085,867
554,2	4050,038
554,6	4011,781
555,1	3966,667
555,5	3925,552
555,9	3897,438
556,4	3858,924
556,8	3823,181
557,3	3779,895
557,7	3747,724
558,2	3722,01
558,6	3686,495
559,1	3645,667
559,5	3611,81
560	3586,838
560,4	3560,952
560,9	3524,067
561,3	3488,467
561,8	3460,295
562,2	3433,324
562,7	3402,352
563,1	3372,181
563,6	3342,124
564	3321,924
564,4	3290,581
564,9	3260,552
565,3	3232,895
565,8	3209,238
566,2	3180,124
566,7	3155,552
567,1	3131,01
567,6	3108,352
568	3090,895
568,5	3063,467
568,9	3035,495
569,4	3008,867
569,8	2986,952
570,3	2952,81
570,7	2922,695
571,1	2900,095
571,6	2877,781
572	2855,695
572,5	2831,41
572,9	2804,552
573,4	2785,981
573,8	2771,152
574,3	2749,695
574,7	2733,895
575,2	2713,724
575,6	2692,924
576,1	2673,152
576,5	2651,895
576,9	2629,695
577,4	2602,781
577,8	2572,724
578,3	2553,552
578,7	2530,838
579,2	2509,467
579,6	2488,552
580,1	2468,352
580,5	2447,038
581	2435,067
581,4	2417,61
581,9	2411,095
582,3	2392,581
582,7	2371,438
583,2	2349,838
583,6	2334,152
584,1	2318,667
584,5	2298,267
585	2276,038
585,4	2259,838
585,9	2249,724
586,3	2238,381
586,8	2228,352
587,2	2208,924
587,6	2188,81
588,1	2173,067
588,5	2163,495
589	2141,867
589,4	2122,095
589,9	2103,981
590,3	2093,895
590,8	2090,181
591,2	2071,752
591,7	2056,667
592,1	2043,467
592,5	2032,781
593	2019,81
593,4	2005,238
593,9	1983,152
594,3	1976,181
594,8	1959,895
595,2	1950,638
595,7	1939,324
596,1	1926,438
596,6	1912,895
597	1905,352
597,4	1894,067
597,9	1881,952
598,3	1870,638
598,8	1862,781
599,2	1850,552
599,7	1838,81
600,1	1826,038
600,6	1811,067
601	1800,438
601,4	1794,095
601,9	1777,61
602,3	1772,267
602,8	1762,724
603,2	1758,181
603,7	1746,124
604,1	1741,638
604,6	1728,695
605	1723,952
605,4	1708,41
605,9	1695,695
606,3	1682,438
606,8	1669,838
607,2	1655,81
607,7	1647,238
608,1	1634,352
608,6	1628,181
609	1619,352
609,4	1606,238
609,9	1598,638
610,3	1585,438
610,8	1571,695
611,2	1555,695
611,7	1542,695
612,1	1535,495
612,6	1521,01
613	1512,381
613,4	1504,552
613,9	1489,067
614,3	1476,724
614,8	1469,581
615,2	1460,095
615,7	1455,381
616,1	1451,581
616,6	1447,41
617	1444,295
617,4	1443,21
617,9	1435,095
618,3	1419,467
618,8	1408,21
619,2	1395,352
619,7	1384,524
620,1	1379,381
620,5	1369,695
621	1360,238
621,4	1350,638
621,9	1347,438
622,3	1339,581
622,8	1326,638
623,2	1310,324
623,6	1298,838
624,1	1284,61
624,5	1283,067
625	1275,867
625,4	1260,952
625,9	1260,838
626,3	1260,381
626,8	1255,581
627,2	1253,581
627,6	1242,552
628,1	1229,124
628,5	1224,41
629	1205,552
629,4	1194,21
629,9	1183,038
630,3	1173,21
630,7	1167,924
631,2	1159,352
631,6	1145,467
632,1	1143,438
632,5	1133,924
633	1127,552
633,4	1118,781
633,8	1108,81
634,3	1102,067
634,7	1101,095
635,2	1088,181
635,6	1081,467
636,1	1071,895
636,5	1066,467
636,9	1059,352
637,4	1048,838
637,8	1034,352
638,3	1026,695
638,7	1018,724
639,2	1011,124
639,6	1003,41
640	991,752
640,5	993,638
640,9	995,21
641,4	995,638
641,8	992,638
642,2	1000,41
642,7	994,61
643,1	995,438
643,6	987,867
644	979,524
644,5	976,295
644,9	972,81
645,3	961,01
645,8	953,867
646,2	946,524
646,7	938,095
647,1	938,41
647,6	927,981
648	915,152
648,4	906,524
648,9	902,095
649,3	891,41
649,8	886,41
650,2	878,581
650,6	872,41
651,1	866,295
651,5	861,695
652	849,181
652,4	845,381
652,9	835,295
653,3	820,924
653,7	812,067
654,2	808,638
654,6	796,61
655,1	800,552
655,5	801,21
655,9	799,467
656,4	801,295
656,8	802,352
657,3	797,752
657,7	794,181
658,2	787,81
658,6	779,152
659	772,067
659,5	760,038
659,9	755,981
660,4	748,267
660,8	739,381
661,2	729,352
661,7	715,895
662,1	719,21
662,6	717,324
663	707,695
663,4	704,81
663,9	710,895
664,3	707,438
664,8	708,781
665,2	700,381
665,6	696,667
666,1	690,038
666,5	684,181
667	666,095
667,4	662,61
667,9	653,552
668,3	648,981
668,7	645,181
669,2	644,438
669,6	646,152
670,1	649,21
670,5	642,41
670,9	643,838
671,4	636,438
671,8	632,838
672,3	628,181
672,7	620,067
673,1	615,581
673,6	608,952
674	602,667
674,5	600,552
674,9	592,981
675,3	587,895
675,8	582,752
676,2	578,152
676,7	581,152
677,1	572,295
677,5	565,238
678	563,038
678,4	554,867
678,9	555,952
679,3	548,124
679,7	548,581
680,2	554,352
680,6	549,324
681,1	543,895
681,5	544,21
681,9	529,524
682,4	533,01
682,8	518,467
683,3	516,01
683,7	513,752
684,1	511,524
684,6	500,924
685	502,41
685,5	493,524
685,9	495,495
686,3	486,295
686,8	479,981
687,2	481,41
687,7	480,495
688,1	474,552
688,5	473,838
689	468,61
689,4	466,952
689,9	465,581
690,3	454,838
690,7	449,524
691,2	447,181
691,6	445,552
692	438,467
692,5	438,181
692,9	440,838
693,4	439,352
693,8	438,752
694,2	431,952
694,7	429,324
695,1	430,752
695,6	423,638
696	414,924
696,4	409,695
696,9	406,152
697,3	401,038
697,8	393,981
698,2	398,01
698,6	396,381
699,1	398,924
699,5	400,238
699,9	406,467
700,4	414,038
700,8	409,524
701,3	397,295
701,7	390,952
702,1	388,695
702,6	387,667
703	377,667
703,5	371,981
703,9	372,695
704,3	370,438
704,8	372,952
705,2	366,867
705,6	368,438
706,1	365,724
706,5	363,467
707	357,524
707,4	352,295
707,8	346,181
708,3	339,095
708,7	330,181
709,2	332,352
709,6	327,81
710	329,581
710,5	334,21
710,9	332,267
711,3	330,381
711,8	328,752
712,2	323,238
712,7	324,495
713,1	318,238
713,5	314,152
714	312,81
714,4	311,867
714,8	308,524
715,3	303,867
715,7	303,467
716,2	305,581
716,6	302,095
717	300,438
717,5	305,181
717,9	302,267
718,3	299,01
718,8	289,581
719,2	290,438
719,7	286,838
720,1	284,124
720,5	277,61
721	274,267
721,4	278,495
721,8	278,01
722,3	266,381
722,7	266,01
723,2	267,495
723,6	260,724
724	262,667
724,5	259,295
724,9	262,295
725,3	269,124
725,8	263,581
726,2	256,381
726,7	257,352
727,1	251,981
727,5	251,124
728	245,838
728,4	239,724
728,8	240,21
729,3	239,867
729,7	243,695
730,1	242,781
730,6	240,667
731	239,495
731,5	238,981
731,9	236,238
732,3	230,924
732,8	226,924
733,2	225,038
733,6	219,524
734,1	216,467
734,5	217,524
734,9	220,095
735,4	223,781
735,8	222,524
736,3	220,81
736,7	219,524
737,1	219,124
737,6	215,895
738	211,724
738,4	205,352
738,9	200,867
739,3	196,81
739,7	200,41
740,2	201,752
740,6	202,495
741,1	200,067
741,5	202,324
741,9	200,038
742,4	201,267
742,8	198,552
743,2	195,552
743,7	192,438
744,1	195,867
744,5	193,352
745	193,21
745,4	192,01
745,8	184,41
746,3	180,867
746,7	175,724
747,2	167,924
747,6	166,695
748	168,495
748,5	161,324
748,9	168,724
749,3	168,181
749,8	171,724
750,2	178,21
750,6	173,524
751,1	174,467
751,5	182,495
751,9	175,667
752,4	172,267
752,8	164,267
753,3	158,381
753,7	159,581
754,1	152,724
754,6	149,781
755	152,524
755,4	157,295
755,9	162,638
756,3	162,867
756,7	167,124
757,2	163,524
757,6	162,981
758	161,238
758,5	157,838
758,9	155,238
759,3	150,867
759,8	143,495
760,2	148,695
760,6	147,952
761,1	146,752
761,5	146,495
761,9	143,781
762,4	146,095
762,8	148,867
763,3	143,181
763,7	144,752
764,1	139,981
764,6	145,324
765	146,381
765,4	145,467
765,9	146,181
766,3	150,724
766,7	152,067
767,2	152,267
767,6	147,038
768	148,638
768,5	148,667
768,9	149,41
769,3	147,238
769,8	146,267
770,2	150,838
770,6	143,552
771,1	139,524
771,5	138,124
771,9	138,295
772,4	135,352
772,8	126,467
773,2	122,038
773,7	125,038
774,1	124,038
774,5	114,324
775	110,867
775,4	110,895
775,8	110,695
776,3	105,752
776,7	109,267
777,1	110,41
777,6	119,324
778	118,981
778,4	117,952
778,9	122,667
779,3	126,438
779,7	125,695
780,2	121,552
780,6	123,838
781	120,324
781,5	121,152
781,9	116,01
782,3	115,152
782,8	113,838
783,2	117,095
783,6	104,552
784,1	103,895
784,5	98,181
784,9	97,724
785,4	94,095
785,8	92,267
786,2	92,524
786,7	102,152
787,1	97,981
787,5	102,295
788	104,124
788,4	106,324
788,8	102,21
789,3	97,41
789,7	90,81
790,1	91,067
790,6	88,21
791	84,981
791,4	81,638
791,9	76,61
792,3	78,124
792,7	78,581
793,2	77,667
793,6	76,324
794	78,21
794,5	78,552
794,9	86,952
795,3	86,724
795,8	93,895
796,2	100,695
796,6	106,838
797,1	107,61
797,5	106,924
797,9	99,238
798,4	99,752
798,8	93,438
799,2	89,724
799,7	84,781
800,1	84,667
800,5	87,895
801	89,381
801,4	91,267
801,8	95,695
802,2	97,724
802,7	94,381
803,1	89,152
803,5	85,695
804	89,095
804,4	84,124
804,8	79,638
805,3	77,381
805,7	81,524
806,1	78,552
806,6	78,381
807	76,724
807,4	75,467
807,9	75,952
808,3	70,295
808,7	71,895
809,2	77,152
809,6	74,581
810	72,781
810,4	80,781
810,9	78,381
811,3	85,038
811,7	77,438
812,2	73,924
812,6	72,752
813	73,21
813,5	61,238
813,9	61,352
814,3	55,638
814,8	59,152
815,2	62,095
815,6	67,895
816,1	68,124
816,5	67,095
816,9	64,21
817,3	63,238
817,8	61,295
818,2	64,01
818,6	59,981
819,1	55,467
819,5	60,467
819,9	61,924
820,4	60,838
820,8	60,724
821,2	50,61
821,7	51,267
822,1	60,724
822,5	57,524
822,9	56,038
823,4	60,552
823,8	60,552
824,2	66,724
824,7	68,867
825,1	58,838
825,5	56,81
826	56,152
826,4	58,895
826,8	59,61
827,3	59,81
827,7	59,667
828,1	61,924
828,5	61,495
829	59,867
829,4	59,81
829,8	60,238
830,3	58,124
830,7	55,152
831,1	51,324
831,6	54,124
832	55,781
832,4	50,21
832,8	44,952
833,3	39,467
833,7	43,695
834,1	49,238
834,6	47,581
835	44,495
835,4	48,495
835,8	53,21
836,3	56,095
836,7	49,752
837,1	43,867
837,6	46,524
838	48,438
838,4	38,41
838,9	33,467
839,3	35,124
839,7	40,752
840,1	46,524
840,6	43,324
841	46,124
841,4	49,352
841,9	50,981
842,3	53,724
842,7	50,724
843,1	49,638
843,6	49,924
844	48,152
844,4	48,638
844,9	48,695
845,3	45,21
845,7	40,638
846,2	38,01
846,6	37,41
847	39,152
847,4	39,667
847,9	43,124
848,3	47,267
848,7	55,838
849,2	59,095
849,6	59,181
850	52,781
850,4	51,552
850,9	42,838
851,3	38,838
851,7	31,438
852,2	25,752
852,6	31,381
853	36,067
853,4	38,152
853,9	42,895
854,3	43,524
854,7	41,467
855,2	42,952
855,6	38,638
856	33,924
856,4	30,81
856,9	27,381
857,3	30,867
857,7	29,724
858,2	33,81
858,6	34,324
859	38,038
859,4	37,01
859,9	42,381
860,3	36,781
860,7	40,181
861,1	34,095
861,6	36,152
862	36,952
862,4	42,581
862,9	42,495
863,3	44,638
863,7	43,152
864,1	44,267
864,6	43,667
865	39,667
865,4	32,41
865,9	27,495
866,3	24,724
866,7	20,867
867,1	22,781
867,6	15,752
868	13,181
868,4	18,524
868,8	19,438
869,3	15,41
869,7	21,638
870,1	21,924
870,6	25,152
871	56,381
871,4	52,467
871,8	52,81
872,3	56,152
872,7	50,924
873,1	50,638
873,5	53,552
874	27,124
874,4	28,981
874,8	30,924
875,3	30,61
875,7	34,381
876,1	35,552
876,5	35,924
877	30,095
877,4	27,238
877,8	22,038
878,2	22,524
878,7	21,21
879,1	22,01
879,5	17,524
879,9	20,924
880,4	15,038
880,8	16,81
881,2	14,924
881,7	12,524
882,1	7,41
882,5	5,01
882,9	4,495
883,4	14,238
883,8	18,61
884,2	18,067
884,6	17,152
885,1	17,524
885,5	23,438
885,9	29,295
886,3	29,067
886,8	24,752
887,2	29,181
887,6	34,724
888	36,381
888,5	38,295
888,9	30,552
889,3	28,295
889,8	32,61
890,2	31,695
890,6	28,124
891	23,981
891,5	17,352
891,9	21,095
892,3	23,667
892,7	18,095
893,2	18,61
893,6	17,867
894	18,01
894,4	17,981
894,9	15,724
895,3	18,695
895,7	20,81
896,1	16,695
896,6	21,552
897	25,81
897,4	28,324
897,8	30,838
898,3	24,61
898,7	29,438
899,1	26,952
899,5	20,267
900	20,181
900,4	19,41
900,8	19,952
901,2	21,838
901,7	11,352
902,1	11,067
902,5	11,238
902,9	8,81
903,4	6,867
903,8	4,952
904,2	6,295
904,6	12,381
905,1	17,467
905,5	21,267
905,9	21,667
906,3	26,267
906,8	24,41
907,2	17,295
907,6	16,638
908	16,895
908,5	18,124
908,9	17,238
909,3	13,524
909,7	13,952
910,2	15,41
910,6	17,667
911	16,838
911,4	15,038
911,9	14,181
912,3	9,867
912,7	11,752
913,1	18,41
913,6	15,695
914	15,41
914,4	11,524
914,8	12,095
915,3	14,895
915,7	14,352
916,1	9,438
916,5	12,152
916,9	11,581
917,4	12,695
917,8	12,181
918,2	13,981
918,6	16,838
919,1	18,467
919,5	21,495
919,9	25,61
920,3	26,838
920,8	29,067
921,2	31,467
921,6	30,495
922	31,581
922,5	23,924
922,9	20,81
923,3	20,781
923,7	20,752
924,2	15,695
924,6	17,295
925	14,924
925,4	15,61
925,8	14,438
926,3	15,867
926,7	13,61
927,1	16,61
927,5	10,438
928	7,181
928,4	0,81
928,8	-2,933
929,2	-1,362
929,7	-1,219
930,1	-5,619
930,5	-3,162
930,9	9,152
931,3	15,352
931,8	21,267
932,2	16,324
932,6	18,01
933	23,752
933,5	23,81
933,9	17,381
934,3	19,095
934,7	19,381
935,2	22,724
935,6	22,724
936	17,267
936,4	15,724
936,8	15,095
937,3	17,81
937,7	15,152
938,1	11,124
938,5	5,581
939	9,324
939,4	9,752
939,8	0,781
940,2	1,552
940,6	1,838
941,1	2,867
941,5	2,81
941,9	5,01
942,3	13,724
942,8	16,324
943,2	14,381
943,6	14,581
944	14,581
944,4	20,552
944,9	18,867
945,3	10,352
945,7	15,124
946,1	14,21
946,6	13,838
947	13,467
947,4	16,667
947,8	17,038
948,2	18,667
948,7	13,952
949,1	12,267
949,5	11,21
949,9	12,181
950,3	3,067
950,8	6,324
951,2	8,924
951,6	8,01
952	11,067
952,5	12,467
952,9	6,238
953,3	12,724
953,7	4,781
954,1	0,21
954,6	4,295
955	1,81
955,4	3,952
955,8	7,581
956,2	5,581
956,7	6,981
957,1	6,952
957,5	4,152
957,9	5,724
958,3	0,895
958,8	4,61
959,2	4,467
959,6	9,095
960	11,295
960,5	16,381
960,9	11,41
961,3	12,581
961,7	12,352
962,1	12,867
962,6	8,067
963	3,381
963,4	-3,59
963,8	-2,962
964,2	-1,019
964,7	0,21
965,1	2,638
965,5	2,638
965,9	5,181
966,3	15,238
966,8	20,61
967,2	20,038
967,6	24,867
968	19,895
968,4	19,924
968,9	21,638
969,3	19,41
969,7	13,01
970,1	17,438
970,5	7,695
971	19,295
971,4	22,381
971,8	21,952
972,2	20,467
972,6	22,324
973,1	14,752
973,5	20,924
973,9	12,752
974,3	5,352
974,7	3,752
975,2	2,467
975,6	-0,219
976	5,067
976,4	1,067
976,8	1,667
977,3	3,552
977,7	8,295
978,1	8,667
978,5	13,095
978,9	17,438
979,4	20,667
979,8	18,238
980,2	21,81
980,6	18,867
981	20,238
981,5	17,038
981,9	11,81
982,3	7,152
982,7	9,81
983,1	10,438
983,6	5,524
984	5,324
984,4	3,181
984,8	-1,333
985,2	5,467
985,6	0,067
986,1	-3,448
986,5	3,752
986,9	8,181
987,3	15,781
987,7	20,01
988,2	21,41
988,6	20,152
989	22,667
989,4	20,467
989,8	21,295
990,3	18,124
990,7	19,324
991,1	12,867
991,5	18,752
991,9	21,352
992,3	14,81
992,8	7,695
993,2	8,981
993,6	9,324
994	11,524
994,4	6,667
994,9	4,095
995,3	5,81
995,7	8,21
996,1	3,267
996,5	-2,79
996,9	-9,305
997,4	-8,048
997,8	-6,848
998,2	-6,79
998,6	-4,362
999	0,638
999,5	0,152
999,9	6,438
1000,3	6,352
1000,7	-0,905
1001,1	-3,133
1001,5	-6,648
1002	-15,59
1002,4	-11,476
1002,8	-10,79
1003,2	-6,419
1003,6	0,124
1004	3,924
1004,5	0,638
1004,9	9,01
1005,3	7,41
1005,7	9,295
1006,1	10,152
1006,6	8,124
1007	9,724
1007,4	13,895
1007,8	13,267
1008,2	16,038
1008,6	11,495
1009,1	3,895
1009,5	5,61
1009,9	2,552
1010,3	2,381
1010,7	5,238
1011,1	-4,59
1011,6	-2,933
1012	1,467
1012,4	1,667
1012,8	2,867
1013,2	4,21
1013,6	3,695
1014,1	9,552
1014,5	9,838
1014,9	7,552
1015,3	4,895
1015,7	5,81
1016,1	2,067
1016,6	-3,733
1017	-3,676
1017,4	-4,648
1017,8	0,838
1018,2	4,01
1018,6	11,695
1019,1	15,238
1019,5	22,295
1019,9	22,324
1020,3	23,981
1020,7	19,352
1021,1	21,981
1021,6	22,438
1022	25,238
1022,4	14,295
1022,8	17,667
1023,2	15,667
1023,6	13,724
1024,1	11,667
1024,5	7,867
1024,9	2,467
1025,3	10,352
1025,7	14,038
1026,1	15,152
1026,6	19,581
1027	14,495
1027,4	12,41
1027,8	14,552
1028,2	18,152
1028,6	12,838
1029	13,295
1029,5	9,981
1029,9	10,067
1030,3	7,638
1030,7	-2,019
1031,1	0,01
1031,5	-1,19
1032	2,124
1032,4	-3,733
1032,8	1,552
1033,2	0,581
1033,6	8,781
1034	1,038
1034,4	-2,048
1034,9	-5,848
1035,3	0,095
1035,7	4,552
1036,1	15,781
1036,5	15,952
1036,9	18,095
1037,4	22,41
1037,8	25,295
1038,2	31,067
1038,6	29,067
1039	21,295
1039,4	28,181
1039,8	27,81
1040,3	29,038
1040,7	27,981
1041,1	24,295
1041,5	15,838
1041,9	15,01
1042,3	14,095
1042,7	15,81
1043,2	17,438
1043,6	20,324
1044	22,124
1044,4	26,867
1044,8	23,895
1045,2	20,21
1045,6	14,238
1046,1	7,981
1046,5	1,438
1046,9	5,552
1047,3	5,781
1047,7	11,781
1048,1	6,952
1048,5	11,495
1049	13,038
1049,4	14,981
1049,8	10,895
1050,2	11,038
1050,6	13,895
1051	15,552
1051,4	18,01
1051,9	24,21
1052,3	25,41
1052,7	28,381
1053,1	30,952
1053,5	25,867
1053,9	28,895
1054,3	26,324
1054,8	18,324
1055,2	14,381
1055,6	14,581
1056	10,81
1056,4	15,581
1056,8	11,695
1057,2	11,695
1057,6	21,638
1058,1	27,324
1058,5	16,981
1058,9	16,695
1059,3	6,324
1059,7	9,267
1060,1	13,038
1060,5	9,21
1061	3,524
1061,4	6,095
1061,8	7,981
1062,2	14,095
1062,6	17,267
1063	13,695
1063,4	16,552
1063,8	17,638
1064,3	27,438
1064,7	26,21
1065,1	22,267
1065,5	18,895
1065,9	14,01
1066,3	2,838
1066,7	5,695
1067,1	0,324
1067,6	3,41
1068	7,924
1068,4	13,81
1068,8	17,838
1069,2	26,324
1069,6	22,81
1070	21,21
1070,4	25,21
1070,9	29,695
1071,3	23,381
1071,7	20,524
1072,1	16,638
1072,5	19,81
1072,9	18,895
1073,3	18,01
1073,7	12,124
1074,2	12,267
1074,6	11,61
1075	17,267
1075,4	15,038
1075,8	17,01
1076,2	9,981
1076,6	9,295
1077	5,752
1077,5	11,01
1077,9	5,667
1078,3	8,667
1078,7	8,124
1079,1	11,01
1079,5	9,81
1079,9	10,295
1080,3	10,981
1080,7	11,752
1081,2	10,21
1081,6	5,095
1082	2,181
1082,4	4,524
1082,8	6,124
1083,2	9,21
1083,6	7,752
1084	12,895
1084,5	18,295
1084,9	18,781
1085,3	18,238
1085,7	19,667
1086,1	12,924
1086,5	15,238
1086,9	11,067
1087,3	7,952
1087,7	11,81
1088,2	11,838
1088,6	11,781
1089	9,667
1089,4	11,038
1089,8	13,124
1090,2	16,267
1090,6	14,124
1091	15,067
1091,4	15,724
1091,9	23,41
1092,3	23,21
1092,7	25,838
1093,1	28,181
1093,5	24,438
1093,9	25,81
1094,3	27,952
1094,7	23,267
1095,1	17,667
1095,5	15,581
1096	10,724
1096,4	19,524
1096,8	17,752
1097,2	13,152
1097,6	14,638
1098	17,924
1098,4	19,81
1098,8	24,438
1099,2	18,352
1099,6	12,067
1100,1	11,552
1100,5	14,152
1100,9	15,181
1101,3	8,752
1101,7	5,267
1102,1	4,867
1102,5	9,067
1102,9	10,267
1103,3	7,467
1103,7	9,724
1104,2	7,01
1104,6	8,21
1105	12,152
1105,4	10,067
1105,8	8,695
1106,2	7,067
1106,6	3,038
1107	4,695
1107,4	2,867
1107,8	-2,973
1108,3	-0,533
