Data from Subt2_24.txt Node
Date: Thu Aug 24 17:41:12 MSK 2023
User: vat
Spectrometer: MAYP114033
Trigger mode: 0
Integration Time (sec): 1,000000E0
Scans to average: 5
Electric dark correction enabled: true
Nonlinearity correction enabled: false
Boxcar width: 3
XAxis mode: Wavelengths
Number of Pixels in Spectrum: 2068
>>>>>Begin Spectral Data<<<<<
199,4	-0,317
199,9	-2,087
200,4	-2,133
200,8	-6,767
201,3	-12,11
201,8	-9,51
202,2	-9,595
202,7	-10,71
203,2	-11,11
203,6	-16,31
204,1	-10,852
204,6	-10,967
205	-11,795
205,5	-12,795
206	-11,652
206,4	-10,852
206,9	-5,795
207,4	-11,167
207,8	-5,995
208,3	-8,338
208,8	-8,852
209,2	-11,424
209,7	-14,995
210,2	-17,795
210,6	-16,767
211,1	-18,767
211,5	-22,681
212	-19,424
212,5	-14,824
212,9	-10,567
213,4	-6,081
213,9	-5,11
214,3	-5,481
214,8	-1,767
215,3	-2,252
215,7	-4,567
216,2	-7,452
216,7	-10,681
217,1	-13,767
217,6	-12,481
218,1	-11,567
218,5	-15,71
219	-15,738
219,5	-13,31
219,9	-12,91
220,4	-13,595
220,9	-14,595
221,3	-19,767
221,8	-16,767
222,3	-16,424
222,7	-12,995
223,2	-12,51
223,6	-8,995
224,1	-4,51
224,6	1,662
225	-1,395
225,5	-1,395
226	-2,852
226,4	-3,195
226,9	0,69
227,4	0,862
227,8	3,433
228,3	8,348
228,8	6,805
229,2	-2,481
229,7	-3,052
230,2	-6,995
230,6	-8,881
231,1	-16,824
231,5	-19,938
232	-21,71
232,5	-11,881
232,9	-10,767
233,4	-9,452
233,9	-11,881
234,3	-9,281
234,8	-12,824
235,3	-8,167
235,7	-5,11
236,2	-3,338
236,7	1,148
237,1	-1,367
237,6	-4,967
238,1	-7,767
238,5	-10,338
239	-19,624
239,4	-23,252
239,9	-24,395
240,4	-21,424
240,8	-22,624
241,3	-14,91
241,8	-18,224
242,2	-15,967
242,7	-16,967
243,2	-19,424
243,6	-25,138
244,1	-23,167
244,6	-26,595
245	-19,538
245,5	-25,995
245,9	-19,31
246,4	-15,081
246,9	-8,452
247,3	-3,452
247,8	-3,795
248,3	-7,138
248,7	0,519
249,2	-3,138
249,7	-7,624
250,1	-3,938
250,6	-4,481
251	-7,395
251,5	-8,252
252	-10,395
252,4	-7,995
252,9	-13,338
253,4	-20,738
253,8	-25,567
254,3	-24,824
254,8	-29,081
255,2	-29,967
255,7	-33,995
256,1	-29,338
256,6	-25,11
257,1	-21,452
257,5	-13,51
258	-13,738
258,5	-16,567
258,9	-18,995
259,4	-18,167
259,9	-17,195
260,3	-20,024
260,8	-25,881
261,2	-15,567
261,7	-7,967
262,2	-5,367
262,6	-9,338
263,1	-8,424
263,6	-6,195
264	-3,481
264,5	-11,138
264,9	-10,681
265,4	-15,538
265,9	-16,681
266,3	-18,452
266,8	-20,11
267,3	-18,938
267,7	-21,767
268,2	-30,31
268,7	-23,395
269,1	-15,595
269,6	-15,938
270	-14,252
270,5	-16,995
271	-9,652
271,4	-1,824
271,9	-7,195
272,4	-15,681
272,8	-20,738
273,3	-25,281
273,7	-22,824
274,2	-24,252
274,7	-21,995
275,1	-19,51
275,6	-11,824
276,1	-7,31
276,5	1,348
277	-0,424
277,4	-1,51
277,9	-3,338
278,4	-2,681
278,8	-5,567
279,3	-6,424
279,8	-8,967
280,2	-8,538
280,7	-7,081
281,1	-10,795
281,6	-13,681
282,1	-13,938
282,5	-15,624
283	-15,938
283,4	-20,224
283,9	-22,51
284,4	-20,081
284,8	-16,452
285,3	-13,795
285,8	-13,967
286,2	-18,024
286,7	-11,881
287,1	-10,881
287,6	-13,767
288,1	-11,795
288,5	-9,71
289	-7,11
289,5	-4,195
289,9	-5,995
290,4	-5,681
290,8	-6,995
291,3	-3,167
291,8	-11,938
292,2	-13,395
292,7	-14,367
293,1	-11,995
293,6	-14,652
294,1	-5,681
294,5	-13,652
295	-9,224
295,5	-7,281
295,9	-16,681
296,4	-15,51
296,8	-10,738
297,3	-16,195
297,8	-15,51
298,2	-19,452
298,7	-21,424
299,1	-5,424
299,6	-3,167
300,1	-5,281
300,5	-6,481
301	-1,967
301,5	3,462
301,9	4,633
302,4	-2,081
302,8	-9,024
303,3	-14,167
303,8	-12,681
304,2	-15,024
304,7	-16,624
305,1	-16,224
305,6	-13,452
306,1	-12,767
306,5	-9,681
307	-7,138
307,4	-9,881
307,9	-10,824
308,4	-5,995
308,8	-4,367
309,3	-1,11
309,8	-3,167
310,2	-3,567
310,7	-0,367
311,1	-3,624
311,6	-8,795
312,1	-6,167
312,5	-9,452
313	-8,567
313,4	-13,252
313,9	-17,51
314,4	-8,51
314,8	-6,452
315,3	-14,795
315,7	-12,452
316,2	-12,738
316,7	-10,995
317,1	-13,652
317,6	-21,595
318	-18,567
318,5	-13,881
319	-17,224
319,4	-17,167
319,9	-12,367
320,3	-9,881
320,8	-6,738
321,3	-10,31
321,7	-16,252
322,2	-12,538
322,6	-9,024
323,1	-13,538
323,6	-12,567
324	-13,31
324,5	-9,738
324,9	-5,11
325,4	-4,167
325,9	-2,681
326,3	-4,424
326,8	-3,424
327,2	-1,052
327,7	-6,081
328,2	-10,538
328,6	-13,338
329,1	-14,795
329,5	-11,424
330	-3,738
330,5	-1,767
330,9	3,49
331,4	4,633
331,8	2,605
332,3	6,833
332,8	3,69
333,2	-1,538
333,7	-1,881
334,1	-6,938
334,6	-4,452
335,1	-1,967
335,5	-8,71
336	-8,167
336,4	-5,91
336,9	-8,138
337,4	-10,652
337,8	-9,595
338,3	-14,052
338,7	-8,338
339,2	-9,652
339,7	-12,681
340,1	-11,967
340,6	-14,11
341	-17,024
341,5	-14,938
342	-20,795
342,4	-13,624
342,9	-13,795
343,3	-17,338
343,8	-11,538
344,2	-9,938
344,7	-8,995
345,2	-10,052
345,6	-16,424
346,1	-14,281
346,5	-10,995
347	-15,31
347,5	-13,795
347,9	-12,31
348,4	-9,91
348,8	-8,024
349,3	-6,252
349,8	-6,624
350,2	-4,795
350,7	-8,424
351,1	-7,995
351,6	-4,567
352	1,176
352,5	0,919
353	10,862
353,4	23,833
353,9	35,49
354,3	50,176
354,8	64,89
355,3	83,576
355,7	106,633
356,2	126,69
356,6	151,348
357,1	189,005
357,5	218,862
358	258,776
358,5	299,805
358,9	350,805
359,4	412,148
359,8	477,376
360,3	547,405
360,8	635,862
361,2	729,233
361,7	833,433
362,1	945,119
362,6	1059,405
363	1192,433
363,5	1330,776
364	1478,719
364,4	1630,29
364,9	1780,49
365,3	1928,805
365,8	2079,719
366,3	2219,605
366,7	2350,376
367,2	2454,633
367,6	2549,462
368,1	2616,148
368,5	2668,29
369	2699,69
369,5	2701,062
369,9	2676,748
370,4	2640,948
370,8	2575,633
371,3	2510,576
371,7	2419,119
372,2	2313,29
372,7	2201,576
373,1	2089,776
373,6	1970,833
374	1852,776
374,5	1725,662
374,9	1610,948
375,4	1496,005
375,9	1388,176
376,3	1276,662
376,8	1174,719
377,2	1079,319
377,7	990,548
378,2	906,119
378,6	826,233
379,1	757,976
379,5	697,919
380	634,376
380,4	583,405
380,9	540,633
381,4	496,09
381,8	464,262
382,3	428,805
382,7	395,09
383,2	373,433
383,6	342,948
384,1	315,29
384,6	294,405
385	273,748
385,5	249,919
385,9	232,805
386,4	213,633
386,8	202,033
387,3	187,919
387,7	179,205
388,2	165,119
388,7	154,662
389,1	148,205
389,6	140,005
390	133,433
390,5	127,005
390,9	117,633
391,4	109,976
391,9	100,49
392,3	89,862
392,8	85,148
393,2	74,348
393,7	70,49
394,1	63,062
394,6	59,062
395,1	54,776
395,5	48,148
396	44,062
396,4	46,205
396,9	41,576
397,3	34,576
397,8	29,062
398,2	31,605
398,7	36,005
399,2	31,976
399,6	25,062
400,1	26,862
400,5	28,976
401	30,176
401,4	29,948
401,9	31,348
402,4	31,148
402,8	32,69
403,3	27,262
403,7	27,89
404,2	29,49
404,6	27,605
405,1	21,919
405,5	17,69
406	14,633
406,5	13,862
406,9	17,09
407,4	16,462
407,8	18,005
408,3	24,633
408,7	33,719
409,2	44,09
409,6	46,605
410,1	41,29
410,6	44,376
411	45,405
411,5	45,548
411,9	40,176
412,4	33,948
412,8	32,89
413,3	37,69
413,7	37,148
414,2	37,548
414,7	40,348
415,1	48,29
415,6	50,69
416	54,633
416,5	56,205
416,9	59,405
417,4	62,89
417,8	59,69
418,3	59,833
418,8	67,548
419,2	75,062
419,7	74,748
420,1	72,633
420,6	77,833
421	79,519
421,5	83,805
421,9	85,462
422,4	86,805
422,8	97,005
423,3	99,89
423,8	93,919
424,2	94,748
424,7	91,833
425,1	86,348
425,6	85,262
426	86,376
426,5	86,09
426,9	90,205
427,4	88,462
427,9	91,205
428,3	91,548
428,8	91,005
429,2	88,719
429,7	86,548
430,1	87,662
430,6	94,405
431	98,462
431,5	102,205
431,9	109,976
432,4	108,462
432,8	117,062
433,3	122,89
433,8	124,633
434,2	120,69
434,7	125,233
435,1	122,205
435,6	124,948
436	130,89
436,5	135,948
436,9	138,319
437,4	146,005
437,8	153,29
438,3	162,89
438,8	173,69
439,2	178,319
439,7	177,69
440,1	184,948
440,6	197,433
441	204,376
441,5	211,176
441,9	221,405
442,4	234,548
442,8	248,262
443,3	259,748
443,7	266,519
444,2	276,033
444,7	284,976
445,1	296,319
445,6	305,348
446	320,605
446,5	327,548
446,9	341,233
447,4	357,09
447,8	376,005
448,3	391,205
448,7	407,49
449,2	418,976
449,6	445,233
450,1	462,919
450,6	481,633
451	498,49
451,5	516,719
451,9	541,262
452,4	567,576
452,8	585,233
453,3	611,433
453,7	632,919
454,2	662,605
454,6	682,462
455,1	696,462
455,5	715,948
456	740,176
456,4	761,605
456,9	790,405
457,3	811,548
457,8	841,662
458,3	876,348
458,7	909,233
459,2	940,976
459,6	969,062
460,1	992,776
460,5	1019,89
461	1050,919
461,4	1080,862
461,9	1110,29
462,3	1145,576
462,8	1181,148
463,2	1223,148
463,7	1258,748
464,1	1296,49
464,6	1327,89
465	1361,29
465,5	1391,519
466	1423,519
466,4	1455,462
466,9	1499,948
467,3	1533,119
467,8	1576,09
468,2	1612,033
468,7	1658,005
469,1	1704,319
469,6	1743,09
470	1772,262
470,5	1814,633
470,9	1849,919
471,4	1895,033
471,8	1930,919
472,3	1968,919
472,7	2008,49
473,2	2053,233
473,6	2091,919
474,1	2132,833
474,5	2169,176
475	2204,89
475,4	2236,033
475,9	2268,862
476,4	2300,462
476,8	2333,548
477,3	2367,29
477,7	2405,719
478,2	2446,662
478,6	2488,433
479,1	2526,376
479,5	2564,176
480	2595,776
480,4	2629,605
480,9	2663,519
481,3	2694,462
481,8	2726,519
482,2	2759,719
482,7	2791,748
483,1	2823,69
483,6	2855,405
484	2881,176
484,5	2905,948
484,9	2930,148
485,4	2953,633
485,8	2982,49
486,3	3021,862
486,7	3046,805
487,2	3067,89
487,6	3089,319
488,1	3118,176
488,5	3145,719
489	3159,205
489,4	3172,548
489,9	3187,89
490,4	3212,519
490,8	3235,376
491,3	3252,005
491,7	3263,09
492,2	3286,09
492,6	3297,233
493,1	3316,69
493,5	3326,233
494	3342,548
494,4	3347,405
494,9	3357,662
495,3	3361,976
495,8	3375,233
496,2	3386,205
496,7	3397,348
497,1	3396,719
497,6	3410,862
498	3417,119
498,5	3426,919
498,9	3434,605
499,4	3436,29
499,8	3437,205
500,3	3449,49
500,7	3457,548
501,2	3470,548
501,6	3473,976
502,1	3476,576
502,5	3489,633
503	3499,119
503,4	3503,29
503,9	3503,833
504,3	3509,633
504,8	3514,605
505,2	3520,062
505,7	3523,119
506,1	3527,176
506,6	3529,29
507	3531,919
507,5	3528,776
507,9	3532,062
508,4	3532,576
508,8	3525,119
509,3	3523,69
509,7	3530,29
510,2	3531,862
510,6	3533,49
511,1	3529,69
511,5	3528,09
512	3537,89
512,4	3546,233
512,9	3539,748
513,3	3535,662
513,8	3534,976
514,2	3539,119
514,7	3541,005
515,1	3532,005
515,6	3527,005
516	3523,776
516,5	3523,405
516,9	3523,033
517,4	3523,233
517,8	3513,09
518,3	3516,805
518,7	3516,605
519,2	3515,805
519,6	3517,005
520,1	3516,576
520,5	3518,662
521	3521,319
521,4	3514,748
521,9	3510,262
522,3	3508,433
522,8	3505,862
523,2	3502,462
523,7	3496,262
524,1	3498,49
524,6	3503,319
525	3509,205
525,5	3517,976
525,9	3513,662
526,4	3519,976
526,8	3521,148
527,3	3511,205
527,7	3504,462
528,2	3498,319
528,6	3490,976
529,1	3496,633
529,5	3491,862
530	3490,919
530,4	3503,348
530,9	3511,433
531,3	3515,805
531,8	3523,176
532,2	3524,519
532,6	3528,176
533,1	3528,862
533,5	3526,948
534	3532,633
534,4	3538,633
534,9	3538,376
535,3	3538,69
535,8	3541,29
536,2	3550,062
536,7	3555,29
537,1	3555,09
537,6	3555,09
538	3556,405
538,5	3560,605
538,9	3561,633
539,4	3559,176
539,8	3563,348
540,3	3570,462
540,7	3566,176
541,2	3563,119
541,6	3566,69
542,1	3574,662
542,5	3577,09
543	3577,033
543,4	3574,776
543,9	3585,948
544,3	3594,176
544,8	3595,319
545,2	3593,719
545,7	3601,633
546,1	3601,205
546,5	3605,233
547	3606,805
547,4	3612,119
547,9	3616,233
548,3	3619,405
548,8	3618,862
549,2	3632,433
549,7	3633,176
550,1	3635,062
550,6	3639,633
551	3650,662
551,5	3657,976
551,9	3661,948
552,4	3665,148
552,8	3672,805
553,3	3674,462
553,7	3678,176
554,2	3680,262
554,6	3687,519
555,1	3700,176
555,5	3703,233
555,9	3705,776
556,4	3716,519
556,8	3719,376
557,3	3715,348
557,7	3716,119
558,2	3723,576
558,6	3730,405
559,1	3733,719
559,5	3726,405
560	3733,576
560,4	3738,89
560,9	3743,29
561,3	3739,605
561,8	3737,29
562,2	3740,233
562,7	3753,662
563,1	3760,948
563,6	3763,662
564	3764,576
564,4	3761,49
564,9	3757,919
565,3	3760,348
565,8	3752,519
566,2	3742,605
566,7	3743,919
567,1	3744,833
567,6	3745,719
568	3748,576
568,5	3749,376
568,9	3756,033
569,4	3765,062
569,8	3765,69
570,3	3767,233
570,7	3768,348
571,1	3776,005
571,6	3782,005
572	3785,462
572,5	3783,319
572,9	3787,719
573,4	3776,376
573,8	3776,633
574,3	3773,262
574,7	3754,005
575,2	3745,033
575,6	3747,319
576,1	3745,005
576,5	3744,89
576,9	3741,919
577,4	3737,805
577,8	3742,748
578,3	3747,833
578,7	3733,233
579,2	3728,348
579,6	3729,633
580,1	3733,319
580,5	3732,005
581	3729,69
581,4	3720,033
581,9	3719,776
582,3	3710,262
582,7	3714,29
583,2	3696,862
583,6	3686,719
584,1	3683,376
584,5	3681,833
585	3678,89
585,4	3679,776
585,9	3658,719
586,3	3653,776
586,8	3645,976
587,2	3640,833
587,6	3621,062
588,1	3608,89
588,5	3604,348
589	3595,633
589,4	3591,748
589,9	3587,405
590,3	3579,319
590,8	3581,548
591,2	3578,09
591,7	3565,348
592,1	3564,719
592,5	3554,576
593	3546,205
593,4	3531,862
593,9	3530,633
594,3	3521,719
594,8	3519,519
595,2	3522,319
595,7	3524,433
596,1	3525,919
596,6	3526,548
597	3517,805
597,4	3514,805
597,9	3502,262
598,3	3496,348
598,8	3487,976
599,2	3476,69
599,7	3474,919
600,1	3471,748
600,6	3458,033
601	3455,205
601,4	3445,433
601,9	3442,405
602,3	3438,919
602,8	3433,89
603,2	3425,348
603,7	3421,519
604,1	3416,776
604,6	3412,062
605	3411,148
605,4	3404,805
605,9	3387,405
606,3	3376,576
606,8	3370,319
607,2	3359,748
607,7	3350,405
608,1	3328,605
608,6	3313,69
609	3307,748
609,4	3297,776
609,9	3284,719
610,3	3274,176
610,8	3260,833
611,2	3253,148
611,7	3245,148
612,1	3231,205
612,6	3226,719
613	3219,462
613,4	3206,89
613,9	3201,433
614,3	3192,519
614,8	3178,862
615,2	3166,09
615,7	3149,69
616,1	3136,348
616,6	3125,376
617	3108,605
617,4	3092,89
617,9	3088,09
618,3	3078,576
618,8	3068,433
619,2	3056,49
619,7	3050,119
620,1	3041,119
620,5	3036,69
621	3024,033
621,4	3012,062
621,9	2993,89
622,3	2984,69
622,8	2968,519
623,2	2953,919
623,6	2935,89
624,1	2921,148
624,5	2905,719
625	2895,462
625,4	2884,405
625,9	2871,633
626,3	2856,462
626,8	2848,49
627,2	2832,548
627,6	2819,433
628,1	2809,919
628,5	2798,205
629	2783,976
629,4	2778,748
629,9	2762,805
630,3	2755,719
630,7	2754,005
631,2	2741,49
631,6	2733,319
632,1	2721,919
632,5	2700,348
633	2684,405
633,4	2667,29
633,8	2650,29
634,3	2635,062
634,7	2608,176
635,2	2598,119
635,6	2585,119
636,1	2577,319
636,5	2564,233
636,9	2548,776
637,4	2536,176
637,8	2526,976
638,3	2514,748
638,7	2505,205
639,2	2492,033
639,6	2483,576
640	2470,176
640,5	2457,662
640,9	2451,576
641,4	2440,89
641,8	2433,348
642,2	2419,69
642,7	2410,576
643,1	2403,005
643,6	2390,948
644	2377,033
644,5	2361,176
644,9	2341,29
645,3	2324,862
645,8	2303,119
646,2	2284,919
646,7	2278,948
647,1	2264,148
647,6	2252,033
648	2245,405
648,4	2236,319
648,9	2230,748
649,3	2224,605
649,8	2214,833
650,2	2210,519
650,6	2204,376
651,1	2195,576
651,5	2187,176
652	2181,719
652,4	2171,662
652,9	2158,976
653,3	2146,548
653,7	2131,062
654,2	2120,319
654,6	2104,233
655,1	2084,919
655,5	2077,919
655,9	2059,09
656,4	2049,633
656,8	2039,29
657,3	2024,719
657,7	2023,233
658,2	2012,233
658,6	1996,69
659	1991,719
659,5	1975,605
659,9	1966,176
660,4	1955,805
660,8	1939,49
661,2	1928,205
661,7	1912,29
662,1	1899,033
662,6	1887,919
663	1871,233
663,4	1861,062
663,9	1846,776
664,3	1840,376
664,8	1833,576
665,2	1824,062
665,6	1815,376
666,1	1811,09
666,5	1800,148
667	1792,49
667,4	1780,205
667,9	1772,69
668,3	1762,348
668,7	1749,548
669,2	1739,148
669,6	1727,176
670,1	1715,976
670,5	1702,148
670,9	1686,233
671,4	1666,519
671,8	1655,462
672,3	1641,89
672,7	1629,119
673,1	1618,262
673,6	1609,833
674	1607,919
674,5	1610,319
674,9	1605,919
675,3	1597,662
675,8	1588,09
676,2	1578,205
676,7	1570,633
677,1	1554,433
677,5	1533,576
678	1517,09
678,4	1503,262
678,9	1492,776
679,3	1487,233
679,7	1476,805
680,2	1466,376
680,6	1468,262
681,1	1463,748
681,5	1456,548
681,9	1445,376
682,4	1437,29
682,8	1431,205
683,3	1422,69
683,7	1411,719
684,1	1403,519
684,6	1392,69
685	1385,262
685,5	1375,89
685,9	1363,033
686,3	1360,119
686,8	1348,548
687,2	1335,919
687,7	1335,205
688,1	1332,205
688,5	1320,633
689	1310,576
689,4	1299,862
689,9	1299,176
690,3	1290,605
690,7	1276,519
691,2	1270,719
691,6	1257,205
692	1253,433
692,5	1248,919
692,9	1231,919
693,4	1220,776
693,8	1210,29
694,2	1197,176
694,7	1202,148
695,1	1193,662
695,6	1182,376
696	1174,576
696,4	1172,919
696,9	1174,69
697,3	1172,662
697,8	1162,69
698,2	1157,69
698,6	1149,319
699,1	1146,519
699,5	1136,033
699,9	1127,976
700,4	1119,433
700,8	1109,948
701,3	1100,833
701,7	1096,433
702,1	1088,319
702,6	1087,519
703	1078,833
703,5	1073,89
703,9	1062,262
704,3	1052,233
704,8	1044,605
705,2	1029,948
705,6	1022,433
706,1	1011,205
706,5	997,805
707	993,976
707,4	995,233
707,8	985,29
708,3	985,49
708,7	975,462
709,2	969,29
709,6	968,176
710	966,862
710,5	953,833
710,9	951,119
711,3	950,376
711,8	949,633
712,2	944,948
712,7	940,862
713,1	931,462
713,5	924,662
714	916,519
714,4	906,862
714,8	897,148
715,3	893,09
715,7	883,719
716,2	877,719
716,6	874,548
717	868,919
717,5	858,576
717,9	852,576
718,3	850,519
718,8	837,948
719,2	832,033
719,7	830,833
720,1	831,576
720,5	825,662
721	818,519
721,4	805,262
721,8	806,919
722,3	796,69
722,7	781,919
723,2	769,148
723,6	765,605
724	761,005
724,5	755,405
724,9	741,862
725,3	741,033
725,8	739,862
726,2	737,976
726,7	738,776
727,1	730,433
727,5	729,262
728	725,205
728,4	719,776
728,8	714,29
729,3	707,862
729,7	690,519
730,1	686,405
730,6	677,233
731	677,176
731,5	676,69
731,9	670,805
732,3	664,748
732,8	666,605
733,2	668,89
733,6	667,262
734,1	663,948
734,5	651,948
734,9	648,176
735,4	646,033
735,8	647,576
736,3	641,205
736,7	639,976
737,1	637,605
737,6	634,462
738	639,09
738,4	633,376
738,9	626,376
739,3	621,519
739,7	618,433
740,2	611,49
740,6	611,348
741,1	597,262
741,5	600,233
741,9	595,348
742,4	584,948
742,8	584,005
743,2	583,433
743,7	579,005
744,1	575,433
744,5	560,433
745	554,462
745,4	556,576
745,8	551,233
746,3	551,833
746,7	548,233
747,2	545,833
747,6	544,662
748	546,205
748,5	544,148
748,9	536,033
749,3	533,462
749,8	532,462
750,2	531,205
750,6	535,462
751,1	529,719
751,5	528,205
751,9	520,748
752,4	507,29
752,8	506,776
753,3	505,49
753,7	500,719
754,1	497,233
754,6	489,833
755	494,09
755,4	496,519
755,9	483,348
756,3	478,376
756,7	472,89
757,2	467,89
757,6	465,719
758	463,376
758,5	455,176
758,9	459,862
759,3	458,005
759,8	455,262
760,2	450,005
760,6	446,148
761,1	435,062
761,5	432,805
761,9	423,433
762,4	421,976
762,8	415,776
763,3	415,119
763,7	409,976
764,1	412,119
764,6	408,862
765	409,662
765,4	405,805
765,9	411,49
766,3	413,548
766,7	413,69
767,2	407,29
767,6	411,033
768	409,576
768,5	408,176
768,9	398,148
769,3	394,49
769,8	396,119
770,2	394,519
770,6	392,262
771,1	386,405
771,5	382,376
771,9	383,69
772,4	380,033
772,8	374,233
773,2	371,319
773,7	365,005
774,1	366,576
774,5	358,405
775	357,433
775,4	355,119
775,8	353,89
776,3	351,948
776,7	344,919
777,1	342,376
777,6	343,833
778	338,005
778,4	335,262
778,9	337,348
779,3	340,433
779,7	344,805
780,2	336,49
780,6	333,176
781	333,29
781,5	335,148
781,9	329,319
782,3	325,033
782,8	320,148
783,2	318,89
783,6	316,119
784,1	312,348
784,5	305,862
784,9	298,548
785,4	292,548
785,8	293,548
786,2	295,319
786,7	297,948
787,1	294,405
787,5	295,09
788	292,633
788,4	295,633
788,8	289,462
789,3	287,633
789,7	285,605
790,1	284,49
790,6	282,662
791	281,462
791,4	277,09
791,9	274,69
792,3	267,148
792,7	266,633
793,2	259,833
793,6	253,033
794	253,605
794,5	255,148
794,9	255,233
795,3	259,805
795,8	247,233
796,2	247,119
796,6	251,205
797,1	252,833
797,5	250,233
797,9	244,49
798,4	240,862
798,8	242,29
799,2	243,176
799,7	237,262
800,1	234,376
800,5	224,062
801	226,376
801,4	221,833
801,8	217,262
802,2	214,348
802,7	216,662
803,1	211,205
803,5	219,062
804	210,89
804,4	207,776
804,8	209,405
805,3	203,49
805,7	201,519
806,1	199,376
806,6	192,862
807	198,919
807,4	200,433
807,9	200,262
808,3	202,005
808,7	200,49
809,2	198,462
809,6	195,719
810	195,548
810,4	199,005
810,9	198,776
811,3	201,748
811,7	196,633
812,2	191,576
812,6	192,29
813	190,09
813,5	188,89
813,9	183,062
814,3	183,205
814,8	186,033
815,2	186,262
815,6	178,49
816,1	174,033
816,5	164,89
816,9	168,29
817,3	156,833
817,8	151,462
818,2	153,433
818,6	154,119
819,1	156,519
819,5	160,033
819,9	154,233
820,4	161,719
820,8	157,89
821,2	159,49
821,7	165,519
822,1	161,29
822,5	158,919
822,9	161,805
823,4	159,176
823,8	160,948
824,2	155,862
824,7	153,319
825,1	155,262
825,5	148,519
826	137,719
826,4	127,576
826,8	125,919
827,3	128,805
827,7	132,376
828,1	129,176
828,5	131,205
829	139,919
829,4	150,262
829,8	146,833
830,3	139,176
830,7	129,576
831,1	122,69
831,6	118,948
832	113,576
832,4	108,805
832,8	100,576
833,3	109,862
833,7	108,805
834,1	109,376
834,6	113,262
835	113,519
835,4	113,348
835,8	116,776
836,3	109,433
836,7	105,948
837,1	106,548
837,6	102,519
838	101,862
838,4	96,405
838,9	101,548
839,3	103,233
839,7	106,09
840,1	105,748
840,6	105,405
841	100,176
841,4	101,49
841,9	97,033
842,3	89,176
842,7	88,89
843,1	90,633
843,6	90,262
844	98,09
844,4	96,148
844,9	98,062
845,3	100,033
845,7	94,319
846,2	88,976
846,6	91,005
847	85,062
847,4	86,89
847,9	83,69
848,3	78,29
848,7	78,433
849,2	78,633
849,6	78,033
850	76,833
850,4	77,262
850,9	76,633
851,3	82,376
851,7	80,519
852,2	82,119
852,6	74,605
853	73,062
853,4	66,69
853,9	67,833
854,3	65,176
854,7	67,29
855,2	67,005
855,6	68,09
856	70,062
856,4	73,862
856,9	72,919
857,3	74,576
857,7	76,148
858,2	68,919
858,6	65,948
859	59,462
859,4	58,519
859,9	58,005
860,3	52,348
860,7	47,176
861,1	48,69
861,6	55,119
862	62,09
862,4	60,862
862,9	58,376
863,3	57,233
863,7	59,919
864,1	54,176
864,6	52,09
865	49,776
865,4	48,576
865,9	48,519
866,3	53,948
866,7	55,319
867,1	60,805
867,6	60,776
868	61,633
868,4	61,119
868,8	62,49
869,3	63,319
869,7	58,29
870,1	57,948
870,6	57,548
871	67,748
871,4	61,205
871,8	56,948
872,3	52,89
872,7	54,662
873,1	48,862
873,5	48,548
874	38,89
874,4	45,119
874,8	43,805
875,3	39,205
875,7	43,805
876,1	52,719
876,5	51,462
877	48,662
877,4	48,89
877,8	53,576
878,2	54,833
878,7	49,976
879,1	45,005
879,5	42,862
879,9	39,748
880,4	36,148
880,8	29,462
881,2	33,719
881,7	30,662
882,1	30,89
882,5	31,49
882,9	30,948
883,4	30,462
883,8	34,862
884,2	28,062
884,6	32,319
885,1	29,69
885,5	32,262
885,9	29,09
886,3	30,233
886,8	27,348
887,2	29,833
887,6	27,89
888	30,776
888,5	25,005
888,9	35,005
889,3	34,605
889,8	38,462
890,2	41,633
890,6	37,119
891	33,89
891,5	34,433
891,9	32,633
892,3	30,862
892,7	26,205
893,2	24,576
893,6	30,148
894	34,262
894,4	30,462
894,9	24,462
895,3	23,633
895,7	23,633
896,1	21,005
896,6	18,262
897	18,262
897,4	23,748
897,8	25,605
898,3	27,376
898,7	25,776
899,1	23,462
899,5	20,233
900	16,262
900,4	13,862
900,8	15,319
901,2	11,49
901,7	7,662
902,1	12,09
902,5	13,633
902,9	15,662
903,4	11,976
903,8	9,748
904,2	7,662
904,6	11,662
905,1	6,719
905,5	11,605
905,9	11,09
906,3	15,948
906,8	14,862
907,2	17,09
907,6	16,062
908	19,09
908,5	14,062
908,9	16,976
909,3	18,176
909,7	17,262
910,2	18,69
910,6	20,09
911	18,69
911,4	18,548
911,9	16,29
912,3	6,719
912,7	4,319
913,1	5,89
913,6	2,805
914	3,205
914,4	-0,767
914,8	-5,567
915,3	-3,338
915,7	-1,881
916,1	-7,024
916,5	-9,081
916,9	-8,795
917,4	-4,052
917,8	3,833
918,2	8,262
918,6	9,805
919,1	14,062
919,5	19,519
919,9	21,062
920,3	19,319
920,8	17,09
921,2	15,376
921,6	17,548
922	12,948
922,5	10,433
922,9	12,005
923,3	13,205
923,7	8,062
924,2	6,319
924,6	5,548
925	6,005
925,4	11,776
925,8	7,719
926,3	1,062
926,7	4,462
927,1	6,033
927,5	2,348
928	3,548
928,4	-2,681
928,8	2,548
929,2	11,662
929,7	8,833
930,1	5,719
930,5	3,605
930,9	3,433
931,3	1,033
931,8	-6,71
932,2	-12,167
932,6	-11,395
933	-8,281
933,5	-2,938
933,9	-1,424
934,3	6,119
934,7	8,29
935,2	4,976
935,6	1,49
936	0,662
936,4	2,605
936,8	2,748
937,3	-7,795
937,7	-10,91
938,1	-5,081
938,5	-6,595
939	-3,767
939,4	-5,91
939,8	-5,452
940,2	-3,795
940,6	-3,424
941,1	-5,31
941,5	-6,881
941,9	-13,252
942,3	-19,31
942,8	-21,538
943,2	-20,052
943,6	-16,224
944	-13,795
944,4	-4,938
944,9	-0,281
945,3	-0,081
945,7	1,976
946,1	6,433
946,6	4,348
947	-2,71
947,4	-7,91
947,8	-7,452
948,2	-5,367
948,7	-6,31
949,1	-12,938
949,5	-18,738
949,9	-18,395
950,3	-19,138
950,8	-21,881
951,2	-22,081
951,6	-25,481
952	-22,138
952,5	-18,395
952,9	-15,452
953,3	-14,081
953,7	-11,338
954,1	-13,481
954,6	-8,738
955	-12,367
955,4	-9,31
955,8	-4,624
956,2	-3,395
956,7	-4,51
957,1	-8,281
957,5	-8,852
957,9	-5,052
958,3	-4,71
958,8	-10,481
959,2	-7,481
959,6	-11,938
960	-6,538
960,5	-5,538
960,9	-6,567
961,3	-10,795
961,7	-6,567
962,1	-17,338
962,6	-13,024
963	-13,224
963,4	-20,338
963,8	-19,395
964,2	-12,91
964,7	-9,281
965,1	-0,338
965,5	-3,224
965,9	-3,881
966,3	1,662
966,8	2,662
967,2	4,033
967,6	0,662
968	-2,567
968,4	4,148
968,9	2,633
969,3	1,033
969,7	1,148
970,1	-1,624
970,5	-6,995
971	0,433
971,4	-7,538
971,8	-4,195
972,2	-2,652
972,6	2,576
973,1	-6,538
973,5	-4,081
973,9	-14,51
974,3	-11,652
974,7	-6,91
975,2	-8,452
975,6	-11,852
976	-5,224
976,4	-4,024
976,8	2,005
977,3	3,29
977,7	7,805
978,1	6,89
978,5	3,49
978,9	0,976
979,4	2,205
979,8	2,233
980,2	5,09
980,6	-2,681
981	-3,367
981,5	-6,31
981,9	-4,538
982,3	-7,338
982,7	-9,852
983,1	-11,538
983,6	-10,767
984	-9,424
984,4	-3,595
984,8	-3,91
985,2	-3,338
985,6	0,119
986,1	3,176
986,5	5,519
986,9	4,776
987,3	5,776
987,7	2,576
988,2	1,405
988,6	-2,31
989	-7,224
989,4	-11,395
989,8	-11,738
990,3	-14,452
990,7	-12,024
991,1	-14,367
991,5	-15,11
991,9	-19,71
992,3	-19,31
992,8	-15,367
993,2	-16,138
993,6	-12,738
994	-12,938
994,4	-12,624
994,9	-6,081
995,3	-11,538
995,7	-16,738
996,1	-14,167
996,5	-15,024
996,9	-19,481
997,4	-22,51
997,8	-26,024
998,2	-23,767
998,6	-25,252
999	-34,452
999,5	-39,567
999,9	-29,224
1000,3	-24,224
1000,7	-25,224
1001,1	-24,91
1001,5	-23,395
1002	-15,852
1002,4	-14,31
1002,8	-11,767
1003,2	-11,138
1003,6	-8,31
1004	-6,424
1004,5	-1,624
1004,9	1,633
1005,3	-2,281
1005,7	-10,024
1006,1	-12,224
1006,6	-12,652
1007	-17,195
1007,4	-18,195
1007,8	-22,452
1008,2	-15,881
1008,6	-10,652
1009,1	-14,51
1009,5	-12,767
1009,9	-9,967
1010,3	-5,795
1010,7	-3,452
1011,1	-4,91
1011,6	-6,481
1012	-1,138
1012,4	0,176
1012,8	4,033
1013,2	-0,195
1013,6	-2,938
1014,1	2,348
1014,5	4,919
1014,9	1,376
1015,3	-2,51
1015,7	-8,138
1016,1	-7,738
1016,6	-6,138
1017	-13,91
1017,4	-18,681
1017,8	-16,567
1018,2	-16,595
1018,6	-11,338
1019,1	-16,91
1019,5	-19,452
1019,9	-15,738
1020,3	-9,51
1020,7	-9,081
1021,1	-9,652
1021,6	-14,281
1022	-7,338
1022,4	-4,138
1022,8	-4,11
1023,2	-15,567
1023,6	-12,281
1024,1	-11,338
1024,5	-10,795
1024,9	-10,681
1025,3	-13,767
1025,7	-16,71
1026,1	-10,081
1026,6	-13,71
1027	-9,538
1027,4	-13,995
1027,8	-20,452
1028,2	-20,595
1028,6	-17,938
1029	-18,452
1029,5	-18,795
1029,9	-20,91
1030,3	-11,167
1030,7	-7,195
1031,1	-6,938
1031,5	-13,51
1032	-11,91
1032,4	-9,767
1032,8	-15,995
1033,2	-18,738
1033,6	-18,824
1034	-15,367
1034,4	-9,51
1034,9	-11,224
1035,3	-15,652
1035,7	-15,195
1036,1	-17,938
1036,5	-15,91
1036,9	-19,452
1037,4	-26,71
1037,8	-28,852
1038,2	-24,995
1038,6	-20,224
1039	-21,224
1039,4	-30,995
1039,8	-29,138
1040,3	-23,71
1040,7	-21,31
1041,1	-22,595
1041,5	-29,824
1041,9	-26,138
1042,3	-14,395
1042,7	-18,024
1043,2	-10,081
1043,6	-7,967
1044	-9,881
1044,4	-10,738
1044,8	-12,681
1045,2	-20,595
1045,6	-19,11
1046,1	-20,538
1046,5	-24,252
1046,9	-20,595
1047,3	-14,424
1047,7	-10,967
1048,1	-8,31
1048,5	-9,452
1049	-14,31
1049,4	-7,338
1049,8	-10,71
1050,2	-8,795
1050,6	-9,938
1051	-8,138
1051,4	-1,795
1051,9	-4,738
1052,3	-10,852
1052,7	-8,767
1053,1	-10,738
1053,5	-5,967
1053,9	-7,31
1054,3	-8,338
1054,8	-13,481
1055,2	-13,395
1055,6	-14,424
1056	-15,138
1056,4	-25,424
1056,8	-24,452
1057,2	-26,767
1057,6	-17,852
1058,1	-15,481
1058,5	-17,567
1058,9	-15,71
1059,3	-11,081
1059,7	-9,738
1060,1	-9,795
1060,5	-11,395
1061	-10,767
1061,4	-7,652
1061,8	-9,252
1062,2	-9,738
1062,6	-17,538
1063	-17,852
1063,4	-16,195
1063,8	-23,967
1064,3	-15,938
1064,7	-15,138
1065,1	-18,852
1065,5	-10,824
1065,9	-7,224
1066,3	-13,967
1066,7	-9,281
1067,1	-20,252
1067,6	-17,995
1068	-8,71
1068,4	-13,195
1068,8	-16,252
1069,2	-8,767
1069,6	-5,138
1070	-5,252
1070,4	-1,967
1070,9	-3,252
1071,3	2,376
1071,7	2,433
1072,1	0,119
1072,5	-2,795
1072,9	2,062
1073,3	-2,652
1073,7	-5,31
1074,2	-13,852
1074,6	-18,138
1075	-14,424
1075,4	-17,51
1075,8	-23,481
1076,2	-25,11
1076,6	-26,881
1077	-18,052
1077,5	-13,681
1077,9	-16,767
1078,3	-7,938
1078,7	-5,395
1079,1	-4,481
1079,5	-3,824
1079,9	-3,081
1080,3	-3,367
1080,7	-3,938
1081,2	-9,338
1081,6	-6,824
1082	-5,995
1082,4	-9,795
1082,8	-13,852
1083,2	-15,452
1083,6	-12,395
1084	-9,052
1084,5	-1,881
1084,9	-4,224
1085,3	-0,567
1085,7	-1,395
1086,1	-1,252
1086,5	-3,224
1086,9	-4,967
1087,3	-10,538
1087,7	-8,824
1088,2	-7,481
1088,6	-10,167
1089	-5,938
1089,4	-4,481
1089,8	-9,138
1090,2	-10,31
1090,6	-12,224
1091	-10,538
1091,4	-11,138
1091,9	-13,967
1092,3	-16,338
1092,7	-7,367
1093,1	-10,681
1093,5	-7,367
1093,9	-5,567
1094,3	-1,31
1094,7	2,462
1095,1	3,833
1095,5	0,948
1096	1,748
1096,4	1,605
1096,8	-2,71
1097,2	-2,224
1097,6	-6,595
1098	-3,395
1098,4	-9,452
1098,8	-7,395
1099,2	-7,938
1099,6	-9,395
1100,1	-9,51
1100,5	-2,367
1100,9	-4,338
1101,3	-2,081
1101,7	-1,51
1102,1	-1,081
1102,5	1,205
1102,9	4,433
1103,3	1,376
1103,7	1,033
1104,2	2,29
1104,6	0,119
1105	0,976
1105,4	2,262
1105,8	-0,595
1106,2	-2,138
1106,6	-1,481
1107	-0,624
1107,4	1,533
1107,8	1,833
1108,3	0,583
