Data from Subt2_21.txt Node
Date: Thu Aug 24 17:36:02 MSK 2023
User: vat
Spectrometer: MAYP114033
Trigger mode: 0
Integration Time (sec): 1,000000E0
Scans to average: 5
Electric dark correction enabled: true
Nonlinearity correction enabled: false
Boxcar width: 3
XAxis mode: Wavelengths
Number of Pixels in Spectrum: 2068
>>>>>Begin Spectral Data<<<<<
199,4	-0,95
199,9	2,1
200,4	2,467
200,8	-1,9
201,3	-2,157
201,8	2,1
202,2	3,157
202,7	0,671
203,2	-3,471
203,6	-5,557
204,1	-1,7
204,6	-6,186
205	-9,214
205,5	-11,471
206	-9,014
206,4	-12,014
206,9	-9,871
207,4	-11,586
207,8	-3,243
208,3	-5,814
208,8	-4,7
209,2	-10,071
209,7	-7,271
210,2	-11,271
210,6	-13,9
211,1	-16,1
211,5	-16,871
212	-11,7
212,5	-2,186
212,9	-2,329
213,4	1,929
213,9	8,671
214,3	6,129
214,8	9,5
215,3	5,357
215,7	1,129
216,2	4,443
216,7	2,329
217,1	-1,186
217,6	1,3
218,1	-0,471
218,5	0,3
219	1,929
219,5	1,586
219,9	6,529
220,4	8,157
220,9	4,1
221,3	-0,271
221,8	-1,186
222,3	-2,529
222,7	-1,986
223,2	-5,271
223,6	-5,186
224,1	0,5
224,6	10,157
225	8,3
225,5	7,786
226	11,271
226,4	13,614
226,9	14,786
227,4	14,014
227,8	11,214
228,3	13,357
228,8	18,071
229,2	12,757
229,7	11,871
230,2	8,443
230,6	5,129
231,1	0,186
231,5	0,443
232	-3,186
232,5	1,043
232,9	-0,157
233,4	5,443
233,9	8,5
234,3	16,557
234,8	12,071
235,3	17,729
235,7	14,014
236,2	15,243
236,7	12,357
237,1	9,643
237,6	5,586
238,1	6,586
238,5	1,814
239	-5,443
239,4	-7,043
239,9	-3,757
240,4	-5,014
240,8	-9,186
241,3	-9,271
241,8	-9,871
242,2	-6,014
242,7	-6,3
243,2	-9,586
243,6	-9,3
244,1	-10,614
244,6	-14,586
245	-16,271
245,5	-18,271
245,9	-17,9
246,4	-15,157
246,9	-11,443
247,3	-5,386
247,8	-1,986
248,3	0,443
248,7	7,1
249,2	3,871
249,7	-1,529
250,1	-0,1
250,6	2,043
251	3,214
251,5	2,386
252	1,386
252,4	3,929
252,9	4,3
253,4	-0,386
253,8	-6,557
254,3	-7,3
254,8	-10,214
255,2	-8,357
255,7	-9,757
256,1	-10,071
256,6	-7,929
257,1	-4,443
257,5	1,929
258	4,586
258,5	-3,271
258,9	-2,557
259,4	2,843
259,9	3,243
260,3	2,843
260,8	-1,5
261,2	1,757
261,7	11,243
262,2	12,929
262,6	7,757
263,1	8,471
263,6	8,014
264	5,071
264,5	2,386
264,9	3,529
265,4	0,929
265,9	-3,529
266,3	-3,243
266,8	-6,043
267,3	-2,929
267,7	-2,3
268,2	-9,329
268,7	-8,671
269,1	-4,329
269,6	-6,243
270	-4,043
270,5	-2,957
271	-2,357
271,4	-2,243
271,9	-4,9
272,4	-8,871
272,8	-11,471
273,3	-15,357
273,7	-8,757
274,2	-5,3
274,7	-1,7
275,1	-0,3
275,6	7,843
276,1	7,529
276,5	16,271
277	7,557
277,4	3,129
277,9	3,5
278,4	6,643
278,8	5,586
279,3	8,614
279,8	5,471
280,2	8,986
280,7	5,671
281,1	3,643
281,6	4,557
282,1	5,757
282,5	0,071
283	-2,529
283,4	-9,614
283,9	-5,786
284,4	-5,871
284,8	-4,157
285,3	-4,757
285,8	1,643
286,2	-1,1
286,7	8,329
287,1	5,1
287,6	6,014
288,1	-1,157
288,5	-1,614
289	-3,471
289,5	4,214
289,9	0,271
290,4	4,3
290,8	4,329
291,3	8,671
291,8	5,757
292,2	6,386
292,7	-0,3
293,1	0,843
293,6	-6,643
294,1	-5,586
294,5	-7,871
295	-9,243
295,5	-8,9
295,9	-10,471
296,4	-7,357
296,8	-1,471
297,3	-0,386
297,8	-2,843
298,2	3,129
298,7	1,386
299,1	8,3
299,6	9,957
300,1	10,214
300,5	8,071
301	11,757
301,5	15,471
301,9	12,614
302,4	6,729
302,8	-1,214
303,3	-6,929
303,8	-11,186
304,2	-8,557
304,7	-16,271
305,1	-9,929
305,6	-2,7
306,1	-3,7
306,5	-3,729
307	5,586
307,4	4,157
307,9	4,957
308,4	5,243
308,8	2,3
309,3	8,214
309,8	12,157
310,2	5,329
310,7	7,671
311,1	8,729
311,6	9,843
312,1	9,586
312,5	7,357
313	5,929
313,4	8,243
313,9	4,586
314,4	4,586
314,8	-0,1
315,3	2,471
315,7	0,471
316,2	1,929
316,7	-1,643
317,1	-6,471
317,6	-6,786
318	-5,243
318,5	-7,729
319	-4,9
319,4	-6,414
319,9	3,586
320,3	6,5
320,8	6,814
321,3	4,186
321,7	2,786
322,2	2,9
322,6	4,471
323,1	-3,757
323,6	0,7
324	-2,3
324,5	-3,7
324,9	0,043
325,4	-2,129
325,9	-2,014
326,3	-6,129
326,8	-5,871
327,2	-5,757
327,7	-1,329
328,2	-5,557
328,6	-2,329
329,1	-2,671
329,5	4,529
330	4,9
330,5	10,1
330,9	11,757
331,4	5,871
331,8	-0,1
332,3	2,729
332,8	3,329
333,2	3,986
333,7	-0,186
334,1	-2,129
334,6	10,043
335,1	11,043
335,5	5,443
336	-1,443
336,4	-0,671
336,9	0,357
337,4	0,3
337,8	-1,614
338,3	-3,586
338,7	4,671
339,2	8,271
339,7	6,329
340,1	6,243
340,6	2,557
341	-1,014
341,5	3,671
342	-3,643
342,4	-3,329
342,9	-6,786
343,3	-9,557
343,8	-9,871
344,2	-8,729
344,7	-12,3
345,2	-10,129
345,6	-9,786
346,1	-4,414
346,5	1,643
347	3,557
347,5	4,671
347,9	9,643
348,4	10,1
348,8	11,9
349,3	10,1
349,8	2,871
350,2	7,529
350,7	5,871
351,1	2,043
351,6	2,614
352	3,157
352,5	7,1
353	22,129
353,4	26,186
353,9	32,7
354,3	44,357
354,8	55,186
355,3	65,814
355,7	74,214
356,2	83,814
356,6	102,757
357,1	124,414
357,5	148,929
358	179,786
358,5	212,071
358,9	253,9
359,4	295,586
359,8	338,843
360,3	391,843
360,8	448,843
361,2	512,214
361,7	589,1
362,1	662,957
362,6	752,043
363	848,243
363,5	955,043
364	1062,3
364,4	1170,1
364,9	1272,157
365,3	1378,014
365,8	1478,414
366,3	1574,671
366,7	1656,614
367,2	1729,871
367,6	1791,7
368,1	1841,014
368,5	1883,7
369	1901,471
369,5	1909,357
369,9	1896,043
370,4	1869,843
370,8	1830,329
371,3	1777,843
371,7	1712,071
372,2	1635,614
372,7	1554,329
373,1	1470,557
373,6	1381,557
374	1293,614
374,5	1212,9
374,9	1125,471
375,4	1049,471
375,9	972,671
376,3	898,9
376,8	836,7
377,2	771,157
377,7	705,271
378,2	647,014
378,6	594,986
379,1	543,9
379,5	505,529
380	454,7
380,4	422,671
380,9	393,557
381,4	361,957
381,8	337,557
382,3	312,643
382,7	286,843
383,2	274,414
383,6	248,414
384,1	230,157
384,6	221,3
385	201,243
385,5	182,7
385,9	169,9
386,4	153,471
386,8	149,529
387,3	137,214
387,7	127,5
388,2	116,129
388,7	116,129
389,1	107,357
389,6	105,443
390	97,414
390,5	94,157
390,9	86,814
391,4	89,329
391,9	78,3
392,3	74,7
392,8	68,271
393,2	60,386
393,7	56,957
394,1	56,329
394,6	50,271
395,1	50,729
395,5	48,043
396	47,071
396,4	49,957
396,9	45,357
397,3	39,671
397,8	42,3
398,2	39,071
398,7	37,243
399,2	35,843
399,6	31,586
400,1	36,614
400,5	37,414
401	36,329
401,4	39,7
401,9	46,671
402,4	50,386
402,8	54,9
403,3	50,814
403,7	55,414
404,2	54,214
404,6	59,014
405,1	58,1
405,5	55,557
406	56,014
406,5	57,529
406,9	58,5
407,4	65,414
407,8	65,529
408,3	69,957
408,7	79,186
409,2	89,129
409,6	92,871
410,1	96,414
410,6	101,557
411	109,271
411,5	113,157
411,9	113,186
412,4	112,157
412,8	123,214
413,3	131,929
413,7	143,757
414,2	153,043
414,7	168,129
415,1	186,557
415,6	200,7
416	207,471
416,5	225,043
416,9	236,043
417,4	253,814
417,8	262,814
418,3	278,443
418,8	298,786
419,2	324,043
419,7	337,871
420,1	349,329
420,6	364,757
421	385,843
421,5	406,129
421,9	424,929
422,4	450,329
422,8	480,243
423,3	516,1
423,8	544,129
424,2	572,671
424,7	598,643
425,1	632,129
425,6	665,329
426	701,157
426,5	732,671
426,9	775,614
427,4	819,843
427,9	862,586
428,3	908,357
428,8	956,7
429,2	1003,271
429,7	1047,643
430,1	1098,529
430,6	1149,329
431	1211,071
431,5	1272,329
431,9	1332,271
432,4	1398,443
432,8	1480,471
433,3	1553,757
433,8	1631,357
434,2	1714,729
434,7	1799,671
435,1	1892,414
435,6	1986,729
436	2085,871
436,5	2188,357
436,9	2296,929
437,4	2403,1
437,8	2521,643
438,3	2632,243
438,8	2756,414
439,2	2878,757
439,7	3007,414
440,1	3138,129
440,6	3283,186
441	3419,871
441,5	3571,871
441,9	3722,7
442,4	3886,386
442,8	4053,614
443,3	4232,243
443,7	4408,1
444,2	4600,3
444,7	4788,814
445,1	4987,186
445,6	5181,614
446	5391,814
446,5	5596,757
446,9	5816,129
447,4	6025,757
447,8	6256,471
448,3	6488,9
448,7	6721,843
449,2	6957,043
449,6	7203,757
450,1	7445,843
450,6	7707,671
451	7956,671
451,5	8217,529
451,9	8492,986
452,4	8768,157
452,8	9046,386
453,3	9328,786
453,7	9615,043
454,2	9924,243
454,6	10220,214
455,1	10521,129
455,5	10824,357
456	11132,586
456,4	11444,157
456,9	11762,671
457,3	12080,386
457,8	12412,614
458,3	12738,986
458,7	13074,043
459,2	13420,186
459,6	13765,614
460,1	14098,386
460,5	14417,386
461	14747,643
461,4	15087,786
461,9	15425,871
462,3	15755,271
462,8	16094,271
463,2	16444,643
463,7	16790,043
464,1	17137,214
464,6	17475,814
465	17828,129
465,5	18163,671
466	18500,529
466,4	18837,957
466,9	19184,5
467,3	19515,843
467,8	19856,614
468,2	20176,614
468,7	20511,671
469,1	20848,071
469,6	21168,243
470	21485,814
470,5	21802,271
470,9	22099,986
471,4	22401,614
471,8	22695,186
472,3	22982,186
472,7	23266,5
473,2	23556,643
473,6	23837,9
474,1	24111,386
474,5	24389,957
475	24659,414
475,4	24927,7
475,9	25188,843
476,4	25441,9
476,8	25686,529
477,3	25925,729
477,7	26151,843
478,2	26383,757
478,6	26606,757
479,1	26809,186
479,5	26998,929
480	27181,529
480,4	27376,471
480,9	27549,414
481,3	27714,986
481,8	27861,529
482,2	28017,186
482,7	28150,271
483,1	28287,671
483,6	28396,9
484	28502,157
484,5	28586,014
484,9	28665,871
485,4	28741,3
485,8	28815,586
486,3	28888,843
486,7	28951,957
487,2	29011,871
487,6	29070,271
488,1	29107,643
488,5	29137,186
489	29156,129
489,4	29163,214
489,9	29168,414
490,4	29150,643
490,8	29132,614
491,3	29105,729
491,7	29066,757
492,2	29028,014
492,6	28954,357
493,1	28878,357
493,5	28811,271
494	28730,9
494,4	28645,043
494,9	28558,929
495,3	28472,9
495,8	28390,1
496,2	28302,557
496,7	28194,7
497,1	28093,414
497,6	27996,5
498	27888,586
498,5	27775,643
498,9	27641,557
499,4	27508,929
499,8	27378,643
500,3	27244,986
500,7	27104,386
501,2	26953,157
501,6	26798,614
502,1	26656,329
502,5	26518,3
503	26375,414
503,4	26215,786
503,9	26051,7
504,3	25905,5
504,8	25729,014
505,2	25554,414
505,7	25376,757
506,1	25203,443
506,6	25020,871
507	24825,186
507,5	24633,643
507,9	24447,414
508,4	24255,814
508,8	24044,1
509,3	23828,786
509,7	23627,814
510,2	23442,014
510,6	23223,414
511,1	23024,157
511,5	22830,043
512	22635,1
512,4	22439,586
512,9	22237,671
513,3	22026,757
513,8	21831,786
514,2	21611,9
514,7	21396,957
515,1	21190,557
515,6	20988,386
516	20771,9
516,5	20561,386
516,9	20350,671
517,4	20155,471
517,8	19956,929
518,3	19750,014
518,7	19528,986
519,2	19324,529
519,6	19134,414
520,1	18932,614
520,5	18732,5
521	18519,071
521,4	18317,329
521,9	18127,357
522,3	17928,671
522,8	17714,043
523,2	17516,614
523,7	17307,843
524,1	17117,614
524,6	16922,529
525	16737,214
525,5	16549,271
525,9	16373,357
526,4	16186,643
526,8	16025,3
527,3	15858,814
527,7	15686,729
528,2	15501,329
528,6	15332,786
529,1	15158,7
529,5	14986,7
530	14818,243
530,4	14633,186
530,9	14458,1
531,3	14289,7
531,8	14136,586
532,2	13970,5
532,6	13810,5
533,1	13642,1
533,5	13496,129
534	13349,586
534,4	13214,929
534,9	13055,243
535,3	12913,786
535,8	12773,386
536,2	12634,7
536,7	12495,986
537,1	12361,414
537,6	12216,757
538	12085,729
538,5	11951,3
538,9	11807,757
539,4	11680,357
539,8	11542,471
540,3	11412,843
540,7	11285,786
541,2	11153,614
541,6	11033,071
542,1	10916,957
542,5	10794,5
543	10673,471
543,4	10555,814
543,9	10437,1
544,3	10325,729
544,8	10208,243
545,2	10095,043
545,7	9978,414
546,1	9873,157
546,5	9764,414
547	9665,986
547,4	9563,729
547,9	9462,929
548,3	9375,443
548,8	9285,814
549,2	9194,643
549,7	9096,957
550,1	9003,986
550,6	8914,014
551	8826,871
551,5	8732,414
551,9	8643,157
552,4	8554,814
552,8	8474,3
553,3	8383,757
553,7	8294,814
554,2	8207,9
554,6	8130,614
555,1	8054,557
555,5	7992,5
555,9	7909,186
556,4	7835,529
556,8	7769,186
557,3	7700,757
557,7	7625,3
558,2	7555,529
558,6	7476,214
559,1	7422,843
559,5	7354,843
560	7282,643
560,4	7211,843
560,9	7148,786
561,3	7075,671
561,8	7006,043
562,2	6938,957
562,7	6879,5
563,1	6822,443
563,6	6756,986
564	6697,643
564,4	6640,329
564,9	6581,871
565,3	6515,586
565,8	6455,3
566,2	6391,671
566,7	6339,786
567,1	6283,243
567,6	6222,186
568	6164,443
568,5	6110,3
568,9	6061,329
569,4	6011,5
569,8	5959,186
570,3	5912,071
570,7	5869,643
571,1	5823,757
571,6	5784,871
572	5738,357
572,5	5691,614
572,9	5653,586
573,4	5595,9
573,8	5547,586
574,3	5507,071
574,7	5456,357
575,2	5408,529
575,6	5366,243
576,1	5320,843
576,5	5276,814
576,9	5240,9
577,4	5200,1
577,8	5153,843
578,3	5113,014
578,7	5070,1
579,2	5026,871
579,6	4988,871
580,1	4946,9
580,5	4906,757
581	4867,529
581,4	4826,871
581,9	4788,5
582,3	4745,9
582,7	4722,471
583,2	4681,386
583,6	4638,671
584,1	4600,957
584,5	4567,757
585	4531,929
585,4	4497,414
585,9	4445,929
586,3	4410,7
586,8	4376,671
587,2	4353,814
587,6	4316,671
588,1	4273,357
588,5	4246,671
589	4220,157
589,4	4187,357
589,9	4163,414
590,3	4130,586
590,8	4092,671
591,2	4070,9
591,7	4038,243
592,1	4007,557
592,5	3981,3
593	3942,214
593,4	3913,5
593,9	3897,071
594,3	3877,186
594,8	3846,3
595,2	3824,757
595,7	3804,129
596,1	3790,214
596,6	3760,443
597	3737,614
597,4	3705,443
597,9	3685,271
598,3	3659,357
598,8	3631,614
599,2	3603,243
599,7	3593,071
600,1	3567,186
600,6	3539,786
601	3525,9
601,4	3511,214
601,9	3486,786
602,3	3463,986
602,8	3434,986
603,2	3416,957
603,7	3404,929
604,1	3378,986
604,6	3355,957
605	3340,3
605,4	3317,329
605,9	3290,014
606,3	3266,157
606,8	3245,643
607,2	3224,529
607,7	3197,9
608,1	3177,129
608,6	3155,814
609	3140,957
609,4	3113,929
609,9	3092,7
610,3	3068,186
610,8	3056,929
611,2	3030,271
611,7	3011,414
612,1	2990,557
612,6	2978,043
613	2958,071
613,4	2937,843
613,9	2909,957
614,3	2897,157
614,8	2879,871
615,2	2860,529
615,7	2836,814
616,1	2820,3
616,6	2798,986
617	2774,671
617,4	2755,529
617,9	2740,243
618,3	2715,671
618,8	2696,586
619,2	2676,5
619,7	2659,786
620,1	2651,957
620,5	2628,186
621	2607,071
621,4	2587,757
621,9	2566,929
622,3	2544,071
622,8	2532,5
623,2	2514,529
623,6	2505,243
624,1	2486,386
624,5	2475,529
625	2465,443
625,4	2455,871
625,9	2438,557
626,3	2417,043
626,8	2396,186
627,2	2382,871
627,6	2358,986
628,1	2345,214
628,5	2333,957
629	2313,214
629,4	2298,5
629,9	2284,357
630,3	2266,614
630,7	2256,871
631,2	2239,443
631,6	2216,929
632,1	2201,786
632,5	2180,757
633	2157,729
633,4	2139,9
633,8	2126,557
634,3	2109,071
634,7	2095,7
635,2	2085,129
635,6	2075,757
636,1	2067,014
636,5	2056,3
636,9	2040,243
637,4	2025,357
637,8	2000,957
638,3	1987,7
638,7	1970,3
639,2	1956,271
639,6	1939,1
640	1919,214
640,5	1901,271
640,9	1901,986
641,4	1883,986
641,8	1872,357
642,2	1859,957
642,7	1850,043
643,1	1845,414
643,6	1840,443
644	1824,843
644,5	1813,671
644,9	1800,386
645,3	1793,9
645,8	1777,243
646,2	1762,414
646,7	1749,671
647,1	1730,529
647,6	1720,129
648	1714,843
648,4	1694,443
648,9	1684,186
649,3	1670,071
649,8	1659,7
650,2	1655,929
650,6	1646,157
651,1	1630,357
651,5	1624,814
652	1622,186
652,4	1616,357
652,9	1607,7
653,3	1595,157
653,7	1579,586
654,2	1567,157
654,6	1551,871
655,1	1537,271
655,5	1530,729
655,9	1519,214
656,4	1505,471
656,8	1493,557
657,3	1485,786
657,7	1480,186
658,2	1462,471
658,6	1450,214
659	1440,557
659,5	1434,7
659,9	1427,786
660,4	1417,1
660,8	1405,443
661,2	1399,071
661,7	1389,157
662,1	1376,729
662,6	1359,986
663	1346,614
663,4	1341,243
663,9	1326,643
664,3	1320,757
664,8	1304,729
665,2	1290,929
665,6	1281,043
666,1	1273,071
666,5	1257,329
667	1248,671
667,4	1238,386
667,9	1236,186
668,3	1232,843
668,7	1223,786
669,2	1214,814
669,6	1206,871
670,1	1202,071
670,5	1193,271
670,9	1178,157
671,4	1164,5
671,8	1157,5
672,3	1152,443
672,7	1144,329
673,1	1137,614
673,6	1132,1
674	1130,671
674,5	1128,586
674,9	1125,986
675,3	1119,243
675,8	1114,071
676,2	1103,814
676,7	1093,729
677,1	1081,5
677,5	1067,7
678	1056,871
678,4	1047,557
678,9	1038,186
679,3	1029,986
679,7	1024,243
680,2	1014,786
680,6	1013,129
681,1	1005,871
681,5	992,5
681,9	983,557
682,4	975,814
682,8	967,957
683,3	961,5
683,7	948,3
684,1	942,529
684,6	937,071
685	930,386
685,5	924,186
685,9	918,157
686,3	918,414
686,8	916,7
687,2	910,443
687,7	903,786
688,1	898,586
688,5	891,757
689	880,186
689,4	871,386
689,9	860,386
690,3	849,071
690,7	841,214
691,2	833,929
691,6	831,529
692	826,214
692,5	819,729
692,9	816,243
693,4	809,614
693,8	802,471
694,2	799,386
694,7	791,757
695,1	787,271
695,6	779,557
696	771,043
696,4	768,729
696,9	766,129
697,3	760,471
697,8	755,043
698,2	751,643
698,6	745,871
699,1	745,157
699,5	738,643
699,9	741,357
700,4	735,443
700,8	729,843
701,3	719,129
701,7	712,586
702,1	707,7
702,6	707,5
703	699,357
703,5	698,3
703,9	688,471
704,3	684,329
704,8	684,014
705,2	677,814
705,6	670,186
706,1	663,071
706,5	653,586
707	649,014
707,4	651,129
707,8	644,014
708,3	634,157
708,7	626,586
709,2	619,614
709,6	614,871
710	613,586
710,5	603,7
710,9	601,729
711,3	604,071
711,8	602,557
712,2	601,471
712,7	599,9
713,1	596,014
713,5	592,557
714	581,014
714,4	573,586
714,8	568,9
715,3	563,671
715,7	557,986
716,2	553,729
716,6	550,043
717	548,957
717,5	540,871
717,9	537,329
718,3	530,586
718,8	523,671
719,2	513,071
719,7	518,386
720,1	514,671
720,5	514,3
721	506,186
721,4	500,957
721,8	502,7
722,3	500,471
722,7	481,1
723,2	477,129
723,6	471,9
724	468,043
724,5	462,614
724,9	453,329
725,3	448,786
725,8	448,9
726,2	448,5
726,7	450,671
727,1	451,814
727,5	454,843
728	450,843
728,4	450,557
728,8	448,043
729,3	437,9
729,7	422,357
730,1	412,786
730,6	406,9
731	400,071
731,5	402,729
731,9	394,643
732,3	394,214
732,8	398,9
733,2	404,871
733,6	402,643
734,1	406,786
734,5	399,1
734,9	401,186
735,4	402,271
735,8	399,271
736,3	384,586
736,7	386,071
737,1	377,329
737,6	371,586
738	374,157
738,4	370,957
738,9	370,014
739,3	374,757
739,7	367,043
740,2	367,5
740,6	367,329
741,1	363,786
741,5	361,271
741,9	357,1
742,4	351,357
742,8	350,471
743,2	354,043
743,7	355,5
744,1	346,757
744,5	339,671
745	338,186
745,4	334,586
745,8	331,043
746,3	328,986
746,7	327,3
747,2	327,357
747,6	329,357
748	329,757
748,5	332,786
748,9	333,214
749,3	330,357
749,8	322,614
750,2	319,7
750,6	317,614
751,1	312,557
751,5	312,671
751,9	308,9
752,4	300,1
752,8	299,357
753,3	292,814
753,7	296,014
754,1	290,329
754,6	287,5
755	288,643
755,4	286,329
755,9	283,357
756,3	285,7
756,7	279,871
757,2	281,929
757,6	278,814
758	275,957
758,5	276,329
758,9	277,843
759,3	277,586
759,8	273,129
760,2	268,586
760,6	266,643
761,1	262,643
761,5	259,329
761,9	257,043
762,4	265,729
762,8	261,3
763,3	261,986
763,7	256,529
764,1	252,586
764,6	250,443
765	249,186
765,4	235,214
765,9	243,157
766,3	240,814
766,7	244,7
767,2	243,3
767,6	246,157
768	243,214
768,5	248,214
768,9	236,814
769,3	241,3
769,8	239,471
770,2	241,586
770,6	238,186
771,1	241,671
771,5	236,271
771,9	240,443
772,4	232,357
772,8	227,214
773,2	224,214
773,7	223,643
774,1	213,443
774,5	211,529
775	207,529
775,4	206,157
775,8	205,271
776,3	202,1
776,7	200,671
777,1	206,414
777,6	206,871
778	205,786
778,4	206,757
778,9	211,3
779,3	210,671
779,7	211,814
780,2	204,329
780,6	200,9
781	203,729
781,5	200,786
781,9	198,471
782,3	194,643
782,8	193,386
783,2	194,157
783,6	192,386
784,1	188,929
784,5	184,729
784,9	179,214
785,4	174,929
785,8	171,957
786,2	171,7
786,7	173,071
787,1	173,3
787,5	179,786
788	177,929
788,4	185,157
788,8	180,5
789,3	180,3
789,7	175,129
790,1	172,329
790,6	163,443
791	161,214
791,4	156,786
791,9	156,986
792,3	151,186
792,7	158,243
793,2	155,471
793,6	156,386
794	158,614
794,5	162,871
794,9	157,786
795,3	162,243
795,8	152,243
796,2	150,014
796,6	153,443
797,1	149,414
797,5	142,243
797,9	145,129
798,4	142,214
798,8	144,214
799,2	144,129
799,7	141,471
800,1	144,014
800,5	141,243
801	142,386
801,4	141,9
801,8	136,871
802,2	139,329
802,7	140,929
803,1	139,614
803,5	147,929
804	137,414
804,4	134,157
804,8	134,129
805,3	131,786
805,7	128,986
806,1	128,471
806,6	124,786
807	130,557
807,4	131,414
807,9	132,757
808,3	129,671
808,7	130,1
809,2	125,9
809,6	126,414
810	124,557
810,4	124,843
810,9	126,1
811,3	126,186
811,7	119,614
812,2	117,7
812,6	114,7
813	118,014
813,5	119,5
813,9	114,186
814,3	114,671
814,8	117,786
815,2	116,957
815,6	113,871
816,1	113,529
816,5	105,443
816,9	104,5
817,3	100,129
817,8	95,243
818,2	101,5
818,6	98,729
819,1	95,071
819,5	99,3
819,9	99,014
820,4	104,129
820,8	106,386
821,2	102,3
821,7	105,329
822,1	101,9
822,5	97,014
822,9	101,814
823,4	98,614
823,8	95,243
824,2	91,843
824,7	89,443
825,1	93,929
825,5	88,271
826	78,671
826,4	73,986
826,8	74,814
827,3	80,5
827,7	81,929
828,1	79,843
828,5	86,357
829	94,043
829,4	100,929
829,8	101,271
830,3	97,671
830,7	97,729
831,1	99,643
831,6	94,529
832	86,757
832,4	81,9
832,8	83,3
833,3	78,586
833,7	74,986
834,1	66,1
834,6	70,243
835	74,529
835,4	72,014
835,8	64,757
836,3	65,5
836,7	58,843
837,1	61,843
837,6	60,414
838	56,7
838,4	56,243
838,9	58,9
839,3	61,186
839,7	70,557
840,1	72,929
840,6	71,443
841	68,5
841,4	64,157
841,9	61,529
842,3	55,929
842,7	53,986
843,1	51,157
843,6	54,157
844	55,929
844,4	59,786
844,9	61,9
845,3	61,671
845,7	55,129
846,2	53,614
846,6	58,043
847	59,643
847,4	57,214
847,9	51,786
848,3	50,5
848,7	56,157
849,2	62,7
849,6	53,071
850	53,757
850,4	58,129
850,9	65,471
851,3	75,329
851,7	67,1
852,2	63,729
852,6	61,929
853	57,243
853,4	56,129
853,9	51,957
854,3	41,186
854,7	49,414
855,2	49,614
855,6	46,614
856	51,357
856,4	47,471
856,9	47,957
857,3	51,557
857,7	51,014
858,2	46,814
858,6	47,957
859	44,814
859,4	42,929
859,9	41,157
860,3	36,157
860,7	32,643
861,1	34,9
861,6	37,586
862	36,557
862,4	37,786
862,9	41,671
863,3	42,9
863,7	42,1
864,1	39,071
864,6	46,557
865	46,243
865,4	45,929
865,9	45,043
866,3	48,986
866,7	44,729
867,1	46,671
867,6	43,129
868	43,157
868,4	42,014
868,8	42,329
869,3	41,329
869,7	42,414
870,1	39,529
870,6	37,586
871	71,386
871,4	74,043
871,8	70,271
872,3	74,357
872,7	73,271
873,1	68,957
873,5	67,614
874	33,329
874,4	33,614
874,8	36,929
875,3	29,157
875,7	32,386
876,1	35,043
876,5	33,871
877	35,1
877,4	35,129
877,8	33,557
878,2	30,843
878,7	29,386
879,1	30,786
879,5	31,3
879,9	32,271
880,4	28,614
880,8	25,871
881,2	29,7
881,7	26,929
882,1	23,729
882,5	23,471
882,9	26,243
883,4	27,614
883,8	27,843
884,2	28,157
884,6	27,643
885,1	25,186
885,5	26,471
885,9	18,5
886,3	23,329
886,8	26,271
887,2	26,357
887,6	29,929
888	39,129
888,5	35,529
888,9	40,957
889,3	31,186
889,8	24,529
890,2	28,529
890,6	24,329
891	17,557
891,5	21,043
891,9	19,271
892,3	19,5
892,7	22,757
893,2	15,214
893,6	19,271
894	22,786
894,4	15,929
894,9	16,243
895,3	18,471
895,7	17,443
896,1	16,271
896,6	16,814
897	14,043
897,4	14,214
897,8	10,643
898,3	13,9
898,7	13,1
899,1	16,386
899,5	12,471
900	12,529
900,4	13,471
900,8	16,757
901,2	12,814
901,7	10,414
902,1	10,586
902,5	10,786
902,9	11,986
903,4	8,471
903,8	9,929
904,2	8,1
904,6	10,614
905,1	10,671
905,5	18,729
905,9	19,529
906,3	26,843
906,8	22,757
907,2	25,614
907,6	26,671
908	25,414
908,5	13,957
908,9	13,5
909,3	12,843
909,7	12,386
910,2	13,986
910,6	12,729
911	10,729
911,4	18,871
911,9	14,814
912,3	9,1
912,7	9,929
913,1	10,471
913,6	7,871
914	9,357
914,4	0,157
914,8	-0,1
915,3	5,271
915,7	2,357
916,1	-5,786
916,5	-8,071
916,9	-1,214
917,4	2,329
917,8	8,9
918,2	5,929
918,6	6,614
919,1	9,929
919,5	15,386
919,9	12,986
920,3	15,271
920,8	15,843
921,2	15,929
921,6	20,729
922	19,729
922,5	19,5
922,9	16,414
923,3	13,586
923,7	3,9
924,2	3,129
924,6	-0,243
925	1,214
925,4	3,929
925,8	2,043
926,3	4,443
926,7	7,7
927,1	7,786
927,5	8,5
928	7,157
928,4	2,671
928,8	5,9
929,2	5,071
929,7	5,157
930,1	0,7
930,5	2,443
930,9	2,757
931,3	-0,043
931,8	-2,357
932,2	-3,214
932,6	-1,157
933	2,671
933,5	2,986
933,9	3,186
934,3	12,729
934,7	12,9
935,2	11,214
935,6	5,929
936	3,271
936,4	3,529
936,8	5,957
937,3	1,786
937,7	-2,729
938,1	-1,586
938,5	-2,871
939	2,871
939,4	0,614
939,8	1,557
940,2	-2,986
940,6	-2,043
941,1	0,357
941,5	1,329
941,9	-0,3
942,3	-4,7
942,8	-7,043
943,2	-4,414
943,6	-6,214
944	-4,214
944,4	-0,129
944,9	-1,329
945,3	-0,814
945,7	-0,557
946,1	-0,043
946,6	1,586
947	-1,871
947,4	-2,957
947,8	-0,929
948,2	-2,929
948,7	-3,529
949,1	-6,271
949,5	-10,014
949,9	-13,471
950,3	-13,271
950,8	-16,386
951,2	-15,186
951,6	-16,729
952	-16,586
952,5	-9,557
952,9	-9,614
953,3	-6,786
953,7	-7,329
954,1	-5,986
954,6	-9,1
955	-8,614
955,4	-4,3
955,8	-1,329
956,2	-3,071
956,7	-0,643
957,1	-3,529
957,5	2,929
957,9	5,7
958,3	2,671
958,8	0,043
959,2	7,643
959,6	9,157
960	14,043
960,5	14,271
960,9	9,643
961,3	6,129
961,7	13,186
962,1	-0,557
962,6	-1,671
963	-1,671
963,4	-8,271
963,8	-8,3
964,2	-6,043
964,7	-6,986
965,1	1,814
965,5	-3,186
965,9	-5,529
966,3	-0,7
966,8	5,357
967,2	3,157
967,6	4,186
968	-3,243
968,4	0,1
968,9	1,043
969,3	1,586
969,7	-2,7
970,1	-1,129
970,5	-2,186
971	2,614
971,4	3,586
971,8	3,957
972,2	8,7
972,6	14,471
973,1	5,729
973,5	0,329
973,9	-3,414
974,3	-2,786
974,7	2,614
975,2	-5,957
975,6	-11,329
976	-5,7
976,4	-3,929
976,8	1,757
977,3	4,471
977,7	8,3
978,1	11,843
978,5	13,1
978,9	12,071
979,4	16,814
979,8	12,014
980,2	13,071
980,6	4,357
981	2,157
981,5	0,529
981,9	2,757
982,3	0,786
982,7	5,614
983,1	-0,471
983,6	-1,757
984	-1,243
984,4	3,443
984,8	7,157
985,2	2,214
985,6	0,471
986,1	2,357
986,5	3,071
986,9	7,186
987,3	5,529
987,7	2,129
988,2	3,7
988,6	3,043
989	1,671
989,4	0,271
989,8	0,986
990,3	-0,614
990,7	-0,243
991,1	-4,843
991,5	-0,843
991,9	-1,386
992,3	0,843
992,8	-1,243
993,2	-3,814
993,6	-7,471
994	-2,271
994,4	-5,729
994,9	-0,129
995,3	-2,529
995,7	-5,643
996,1	-1,614
996,5	-4,7
996,9	-9,071
997,4	-12,157
997,8	-16,557
998,2	-17,186
998,6	-14,5
999	-22,043
999,5	-18,043
999,9	-14,329
1000,3	-9,586
1000,7	-7,671
1001,1	-3,529
1001,5	-9,614
1002	-0,386
1002,4	-1,557
1002,8	1,386
1003,2	2,043
1003,6	-0,129
1004	-3,3
1004,5	2,9
1004,9	0,157
1005,3	2,671
1005,7	0,614
1006,1	-4,557
1006,6	-3,643
1007	-4,214
1007,4	-3,871
1007,8	-6,957
1008,2	-10,329
1008,6	-9,929
1009,1	-9,786
1009,5	-13,729
1009,9	-11,957
1010,3	-10,471
1010,7	-8,014
1011,1	0,129
1011,6	-1,5
1012	3,957
1012,4	6,443
1012,8	7,3
1013,2	5,5
1013,6	-1,471
1014,1	-0,214
1014,5	6,5
1014,9	6,443
1015,3	14,1
1015,7	11,929
1016,1	10,786
1016,6	19,414
1017	9,129
1017,4	4,557
1017,8	-1,186
1018,2	-7,014
1018,6	0,014
1019,1	-1,5
1019,5	-1,214
1019,9	0,986
1020,3	4,614
1020,7	7,243
1021,1	5,5
1021,6	-1,871
1022	3,443
1022,4	2,757
1022,8	5,271
1023,2	-2,529
1023,6	0,7
1024,1	-1,7
1024,5	-2,586
1024,9	-4,271
1025,3	-7,729
1025,7	-10,471
1026,1	-2,443
1026,6	-4,214
1027	1,729
1027,4	-2,529
1027,8	-4,586
1028,2	-2,7
1028,6	1,3
1029	-5,5
1029,5	-8,843
1029,9	-6,986
1030,3	3,414
1030,7	1,729
1031,1	1,586
1031,5	-7,786
1032	-2,043
1032,4	-1,271
1032,8	-8,414
1033,2	-16,729
1033,6	-16,214
1034	-14,814
1034,4	-5,014
1034,9	-8,443
1035,3	-10,386
1035,7	-10,329
1036,1	-3,586
1036,5	-4,957
1036,9	-6,814
1037,4	-11,557
1037,8	-12,814
1038,2	-7,071
1038,6	-3,871
1039	-7,129
1039,4	-8,843
1039,8	-8,157
1040,3	-6,5
1040,7	-4,329
1041,1	-12,071
1041,5	-14,586
1041,9	-12,043
1042,3	-7,157
1042,7	-9,386
1043,2	-5,643
1043,6	-7,5
1044	-5,414
1044,4	-7,043
1044,8	-11,814
1045,2	-12,814
1045,6	-12,1
1046,1	-13,214
1046,5	-14,1
1046,9	-10,614
1047,3	-11,043
1047,7	-5,786
1048,1	-6,529
1048,5	-5,386
1049	-8,186
1049,4	-6,843
1049,8	-4,157
1050,2	-0,386
1050,6	0,643
1051	-1,614
1051,4	-3,357
1051,9	-2,9
1052,3	-3,129
1052,7	-9,614
1053,1	-7,729
1053,5	-6,557
1053,9	-2,243
1054,3	5,986
1054,8	-0,1
1055,2	3,1
1055,6	7,357
1056	8,671
1056,4	4,271
1056,8	3,7
1057,2	-0,214
1057,6	4,786
1058,1	4,014
1058,5	-2,071
1058,9	-3,471
1059,3	-4,014
1059,7	-4,1
1060,1	-4,671
1060,5	-1,443
1061	-6,843
1061,4	-8,786
1061,8	-6,357
1062,2	-9,757
1062,6	-11,243
1063	-10,243
1063,4	-9,129
1063,8	-9,1
1064,3	-0,443
1064,7	-1,786
1065,1	1,414
1065,5	6,643
1065,9	6,814
1066,3	1,243
1066,7	8,443
1067,1	6,843
1067,6	4,757
1068	4,157
1068,4	-0,986
1068,8	-4,614
1069,2	-1,9
1069,6	-3,243
1070	-5,129
1070,4	-3,7
1070,9	0,214
1071,3	3,414
1071,7	6,1
1072,1	6,443
1072,5	6,186
1072,9	5,1
1073,3	3,214
1073,7	1,929
1074,2	-0,729
1074,6	-6,014
1075	-2,786
1075,4	-5,471
1075,8	-4,586
1076,2	-4,843
1076,6	-7,3
1077	-2,557
1077,5	5,443
1077,9	5,9
1078,3	8,129
1078,7	10,043
1079,1	12,7
1079,5	14,5
1079,9	11,957
1080,3	6,7
1080,7	3,557
1081,2	2,414
1081,6	-0,243
1082	-4,643
1082,4	-8,1
1082,8	-11,614
1083,2	-7,214
1083,6	-6,1
1084	-2,186
1084,5	3,729
1084,9	9,471
1085,3	17,529
1085,7	20,386
1086,1	11,186
1086,5	8,671
1086,9	4,529
1087,3	2,5
1087,7	0,614
1088,2	-1,786
1088,6	-5,186
1089	-2,7
1089,4	0,357
1089,8	1,7
1090,2	1,271
1090,6	-2,843
1091	-3,357
1091,4	-2,986
1091,9	0,929
1092,3	-2,271
1092,7	1,071
1093,1	3,7
1093,5	8,043
1093,9	2,3
1094,3	8,757
1094,7	11,043
1095,1	9,814
1095,5	7,586
1096	7,014
1096,4	6,471
1096,8	10,7
1097,2	2,586
1097,6	0,357
1098	2,7
1098,4	0,357
1098,8	-2,443
1099,2	-5,043
1099,6	-5,471
1100,1	-4,7
1100,5	-1,586
1100,9	-0,614
1101,3	0,586
1101,7	-2,186
1102,1	-2,157
1102,5	-2,329
1102,9	2,643
1103,3	-0,757
1103,7	-0,9
1104,2	-3,843
1104,6	-1,557
1105	-3,1
1105,4	0,643
1105,8	-1,786
1106,2	-2,357
1106,6	-1,814
1107	0,157
1107,4	0,367
1107,8	5,22
1108,3	0,55
