Data from Subt2_12.txt Node
Date: Thu Aug 24 16:41:43 MSK 2023
User: vat
Spectrometer: MAYP114033
Trigger mode: 0
Integration Time (sec): 1,000000E0
Scans to average: 5
Electric dark correction enabled: true
Nonlinearity correction enabled: false
Boxcar width: 3
XAxis mode: Wavelengths
Number of Pixels in Spectrum: 2068
>>>>>Begin Spectral Data<<<<<
199,4	-0,517
199,9	-2,167
200,4	0,2
200,8	-4,51
201,3	-2,995
201,8	1,948
202,2	-1,052
202,7	-2,681
203,2	0,262
203,6	-2,224
204,1	5,862
204,6	5,119
205	-0,224
205,5	2,29
206	4,176
206,4	2,548
206,9	5,033
207,4	0,633
207,8	-1,767
208,3	1,148
208,8	1,49
209,2	4,805
209,7	6,49
210,2	8,033
210,6	12,548
211,1	12,69
211,5	8,776
212	4,748
212,5	2,805
212,9	1,862
213,4	-5,224
213,9	-10,652
214,3	-7,824
214,8	-3,824
215,3	0,976
215,7	-1,71
216,2	0,405
216,7	6,976
217,1	6,662
217,6	8,062
218,1	4,119
218,5	3,833
219	4,119
219,5	-2,252
219,9	-5,795
220,4	-2,281
220,9	-3,881
221,3	1,69
221,8	3,005
222,3	5,519
222,7	12,319
223,2	11,69
223,6	12,262
224,1	11,548
224,6	13,49
225	15,576
225,5	15,148
226	13,833
226,4	15,805
226,9	13,005
227,4	11,576
227,8	7,662
228,3	4,405
228,8	8,376
229,2	7,89
229,7	10,319
230,2	13,748
230,6	18,005
231,1	16,319
231,5	14,433
232	11,433
232,5	9,862
232,9	11,776
233,4	8,862
233,9	8,09
234,3	7,376
234,8	7,633
235,3	6,462
235,7	6,205
236,2	7,519
236,7	5,548
237,1	8,69
237,6	10,348
238,1	13,605
238,5	14,005
239	18,748
239,4	11,948
239,9	14,49
240,4	11,748
240,8	11,833
241,3	12,976
241,8	13,148
242,2	6,29
242,7	8,376
243,2	12,062
243,6	12,862
244,1	14,148
244,6	10,376
245	7,748
245,5	7,605
245,9	6,948
246,4	4,148
246,9	1,919
247,3	0,29
247,8	-0,738
248,3	-2,252
248,7	0,976
249,2	4,862
249,7	4,805
250,1	3,776
250,6	5,462
251	11,405
251,5	18,662
252	18,919
252,4	12,862
252,9	10,833
253,4	11,262
253,8	15,976
254,3	10,148
254,8	2,776
255,2	3,662
255,7	6,919
256,1	14,319
256,6	13,976
257,1	9,862
257,5	11,576
258	16,119
258,5	12,519
258,9	14,605
259,4	9,433
259,9	9,605
260,3	6,919
260,8	17,748
261,2	17,205
261,7	14,405
262,2	13,119
262,6	12,948
263,1	14,119
263,6	14,348
264	3,805
264,5	3,205
264,9	9,576
265,4	13,433
265,9	15,348
266,3	15,89
266,8	14,748
267,3	16,233
267,7	19,262
268,2	19,976
268,7	13,148
269,1	11,748
269,6	11,805
270	10,462
270,5	9,319
271	8,776
271,4	2,662
271,9	1,519
272,4	-0,538
272,8	-2,367
273,3	2,833
273,7	-0,224
274,2	-0,624
274,7	8,833
275,1	8,605
275,6	8,49
276,1	7,976
276,5	10,948
277	11,348
277,4	7,262
277,9	2,348
278,4	8,433
278,8	10,062
279,3	15,69
279,8	7,062
280,2	10,833
280,7	12,262
281,1	15,262
281,6	12,262
282,1	9,49
282,5	7,576
283	6,462
283,4	1,976
283,9	1,09
284,4	2,948
284,8	9,805
285,3	13,976
285,8	12,433
286,2	17,662
286,7	16,49
287,1	20,205
287,6	11,462
288,1	1,033
288,5	0,462
289	6,805
289,5	1,005
289,9	5,062
290,4	-1,995
290,8	1,176
291,3	4,005
291,8	1,29
292,2	-0,995
292,7	4,89
293,1	13,148
293,6	21,49
294,1	16,633
294,5	18,462
295	18,176
295,5	8,148
295,9	9,119
296,4	-1,024
296,8	-2,652
297,3	5,919
297,8	3,89
298,2	5,433
298,7	7,29
299,1	4,033
299,6	6,605
300,1	3,49
300,5	4,348
301	2,976
301,5	6,319
301,9	6,09
302,4	2,719
302,8	7,148
303,3	9,09
303,8	7,29
304,2	13,148
304,7	8,433
305,1	9,29
305,6	10,433
306,1	2,662
306,5	-0,195
307	0,833
307,4	-7,767
307,9	-3,281
308,4	-0,252
308,8	4,062
309,3	8,319
309,8	13,119
310,2	10,633
310,7	16,005
311,1	19,262
311,6	24,119
312,1	25,062
312,5	22,376
313	19,69
313,4	14,433
313,9	12,262
314,4	3,005
314,8	0,205
315,3	4,176
315,7	5,233
316,2	1,176
316,7	9,319
317,1	6,119
317,6	11,176
318	10,976
318,5	7,233
319	10,919
319,4	14,833
319,9	12,976
320,3	19,462
320,8	22,29
321,3	21,662
321,7	23,833
322,2	19,89
322,6	22,033
323,1	19,148
323,6	17,633
324	14,548
324,5	9,976
324,9	4,262
325,4	2,29
325,9	4,205
326,3	6,576
326,8	3,576
327,2	5,976
327,7	9,49
328,2	11,605
328,6	8,776
329,1	10,662
329,5	11,719
330	17,805
330,5	20,633
330,9	14,433
331,4	14,662
331,8	18,205
332,3	16,148
332,8	14,576
333,2	8,376
333,7	0,205
334,1	4,09
334,6	2,319
335,1	5,462
335,5	5,548
336	7,405
336,4	11,605
336,9	16,748
337,4	27,89
337,8	26,033
338,3	26,005
338,7	25,519
339,2	19,776
339,7	18,833
340,1	16,49
340,6	8,033
341	15,262
341,5	17,605
342	21,748
342,4	28,719
342,9	27,69
343,3	27,919
343,8	24,519
344,2	20,805
344,7	18,062
345,2	13,005
345,6	9,662
346,1	9,319
346,5	14,062
347	15,119
347,5	13,69
347,9	12,176
348,4	6,576
348,8	10,69
349,3	13,062
349,8	9,348
350,2	17,005
350,7	16,176
351,1	18,176
351,6	29,433
352	28,976
352,5	33,405
353	33,348
353,4	34,919
353,9	45,376
354,3	53,976
354,8	59,633
355,3	71,833
355,7	86,605
356,2	105,29
356,6	119,09
357,1	134,805
357,5	155,548
358	182,29
358,5	211,919
358,9	242,148
359,4	274,776
359,8	312,605
360,3	362,519
360,8	421,005
361,2	471,148
361,7	536,29
362,1	602,262
362,6	684,433
363	770,29
363,5	850,148
364	925,348
364,4	1021,805
364,9	1110,433
365,3	1195,062
365,8	1272,833
366,3	1347,69
366,7	1420,29
367,2	1481,062
367,6	1528,405
368,1	1564,119
368,5	1591,29
369	1600,519
369,5	1601,576
369,9	1588,662
370,4	1567,919
370,8	1528,89
371,3	1488,405
371,7	1435,062
372,2	1380,262
372,7	1310,919
373,1	1240,148
373,6	1164,09
374	1089,176
374,5	1007,576
374,9	941,89
375,4	868,833
375,9	805,548
376,3	740,033
376,8	682,348
377,2	632,548
377,7	583,89
378,2	530,89
378,6	487,776
379,1	450,119
379,5	409,376
380	378,233
380,4	338,748
380,9	308,148
381,4	282,376
381,8	264,719
382,3	234,662
382,7	223,233
383,2	208,262
383,6	202,548
384,1	187,862
384,6	184,033
385	166,976
385,5	163,948
385,9	148,205
386,4	136,033
386,8	127,062
387,3	122,176
387,7	104,748
388,2	99,262
388,7	93,405
389,1	89,976
389,6	85,148
390	73,833
390,5	64,633
390,9	59,148
391,4	55,033
391,9	47,376
392,3	47,719
392,8	47,833
393,2	50,776
393,7	47,948
394,1	48,89
394,6	42,576
395,1	46,49
395,5	41,405
396	42,462
396,4	39,519
396,9	40,948
397,3	35,776
397,8	37,748
398,2	29,205
398,7	32,376
399,2	28,205
399,6	23,49
400,1	24,319
400,5	30,062
401	27,633
401,4	29,748
401,9	28,862
402,4	23,319
402,8	24,062
403,3	20,519
403,7	19,233
404,2	24,862
404,6	21,376
405,1	19,519
405,5	20,376
406	22,376
406,5	21,833
406,9	19,348
407,4	15,662
407,8	23,376
408,3	28,176
408,7	25,776
409,2	29,119
409,6	28,69
410,1	34,89
410,6	34,89
411	36,262
411,5	38,319
411,9	46,405
412,4	47,576
412,8	51,833
413,3	54,005
413,7	61,176
414,2	59,576
414,7	60,776
415,1	63,062
415,6	65,519
416	72,319
416,5	71,805
416,9	73,776
417,4	77,033
417,8	79,662
418,3	85,176
418,8	85,062
419,2	82,176
419,7	82,062
420,1	81,548
420,6	84,748
421	81,405
421,5	76,605
421,9	76,376
422,4	78,148
422,8	79,862
423,3	81,376
423,8	72,948
424,2	75,833
424,7	79,148
425,1	76,49
425,6	73,719
426	73,09
426,5	67,919
426,9	75,748
427,4	70,119
427,9	64,09
428,3	65,576
428,8	66,148
429,2	64,033
429,7	64,919
430,1	58,805
430,6	64,233
431	63,748
431,5	63,376
431,9	58,69
432,4	61,89
432,8	65,176
433,3	68,319
433,8	67,433
434,2	73,176
434,7	75,89
435,1	80,405
435,6	72,176
436	70,005
436,5	71,29
436,9	67,948
437,4	66,776
437,8	68,719
438,3	72,176
438,8	81,348
439,2	84,662
439,7	85,862
440,1	83,405
440,6	85,49
441	87,833
441,5	87,348
441,9	85,205
442,4	87,605
442,8	97,005
443,3	106,319
443,7	111,519
444,2	116,462
444,7	128,519
445,1	141,805
445,6	148,948
446	147,005
446,5	150,262
446,9	154,776
447,4	161,09
447,8	160,205
448,3	160,033
448,7	160,062
449,2	165,376
449,6	173,519
450,1	180,376
450,6	181,319
451	190,976
451,5	198,89
451,9	209,148
452,4	222,233
452,8	235,433
453,3	241,09
453,7	255,662
454,2	263,09
454,6	271,005
455,1	278,605
455,5	281,805
456	284,548
456,4	298,805
456,9	299,719
457,3	310,262
457,8	317,29
458,3	325,576
458,7	335,405
459,2	349,233
459,6	354,862
460,1	372,262
460,5	377,89
461	395,405
461,4	406,519
461,9	418,49
462,3	429,033
462,8	444,262
463,2	450,548
463,7	469,662
464,1	481,348
464,6	494,348
465	511,976
465,5	519,862
466	533,005
466,4	543,433
466,9	553,462
467,3	559,976
467,8	575,976
468,2	588,233
468,7	603,405
469,1	611,976
469,6	629,576
470	639,433
470,5	655,548
470,9	666,69
471,4	676,09
471,8	688,633
472,3	699,462
472,7	712,462
473,2	728,176
473,6	742,69
474,1	751,948
474,5	766,462
475	784,176
475,4	805,005
475,9	824,062
476,4	838,148
476,8	850,49
477,3	867,69
477,7	881,519
478,2	892,29
478,6	902,862
479,1	910,919
479,5	924,176
480	937,148
480,4	945,148
480,9	955,405
481,3	960,148
481,8	969,433
482,2	978,205
482,7	988,405
483,1	998,376
483,6	1015,948
484	1021,719
484,5	1042,719
484,9	1048,69
485,4	1053,49
485,8	1055,262
486,3	1067,205
486,7	1073,576
487,2	1082,29
487,6	1081,462
488,1	1094,376
488,5	1109,062
489	1123,919
489,4	1128,605
489,9	1135,69
490,4	1150,605
490,8	1163,919
491,3	1168,433
491,7	1176,062
492,2	1185,09
492,6	1190,148
493,1	1191,09
493,5	1195,148
494	1199,148
494,4	1207,319
494,9	1207,462
495,3	1208,09
495,8	1212,348
496,2	1222,462
496,7	1224,748
497,1	1226,948
497,6	1229,148
498	1235,319
498,5	1237,033
498,9	1239,948
499,4	1241,833
499,8	1244,062
500,3	1251,976
500,7	1253,633
501,2	1250,376
501,6	1254,976
502,1	1257,433
502,5	1255,89
503	1256,776
503,4	1258,662
503,9	1267,662
504,3	1275,548
504,8	1279,348
505,2	1287,348
505,7	1293,033
506,1	1293,176
506,6	1291,348
507	1288,49
507,5	1289,29
507,9	1291,89
508,4	1289,862
508,8	1286,29
509,3	1292,462
509,7	1292,376
510,2	1289,062
510,6	1294,69
511,1	1294,405
511,5	1291,005
512	1291,919
512,4	1291,919
512,9	1294,262
513,3	1296,633
513,8	1294,433
514,2	1292,405
514,7	1290,633
515,1	1294,605
515,6	1296,148
516	1292,89
516,5	1289,69
516,9	1289,719
517,4	1288,862
517,8	1292,89
518,3	1291,433
518,7	1283,69
519,2	1292,519
519,6	1295,49
520,1	1296,662
520,5	1306,462
521	1310,119
521,4	1311,319
521,9	1322,576
522,3	1317,033
522,8	1315,948
523,2	1308,948
523,7	1302,205
524,1	1295,919
524,6	1296,519
525	1292,776
525,5	1296,462
525,9	1300,29
526,4	1307,433
526,8	1296,719
527,3	1300,462
527,7	1313,29
528,2	1309,262
528,6	1311,005
529,1	1308,576
529,5	1310,805
530	1321,09
530,4	1322,433
530,9	1309,176
531,3	1315,005
531,8	1316,433
532,2	1321,862
532,6	1324,376
533,1	1328,348
533,5	1331,062
534	1336,662
534,4	1333,662
534,9	1327,833
535,3	1324,148
535,8	1324,062
536,2	1324,862
536,7	1327,005
537,1	1327,29
537,6	1329,262
538	1336,033
538,5	1342,576
538,9	1341,262
539,4	1343,033
539,8	1345,719
540,3	1347,605
540,7	1351,719
541,2	1351,205
541,6	1352,633
542,1	1356,919
542,5	1359,176
543	1358,09
543,4	1356,033
543,9	1361,433
544,3	1357,376
544,8	1359,005
545,2	1354,862
545,7	1355,348
546,1	1352,976
546,5	1364,976
547	1360,919
547,4	1367,576
547,9	1370,919
548,3	1373,262
548,8	1372,033
549,2	1374,662
549,7	1372,176
550,1	1380,805
550,6	1387,062
551	1389,748
551,5	1390,748
551,9	1402,233
552,4	1410,89
552,8	1404,033
553,3	1404,776
553,7	1405,919
554,2	1406,405
554,6	1408,348
555,1	1399,548
555,5	1392,462
555,9	1399,148
556,4	1400,748
556,8	1397,49
557,3	1392,433
557,7	1400,376
558,2	1407,262
558,6	1406,033
559,1	1406,976
559,5	1403,662
560	1408,033
560,4	1415,633
560,9	1415,233
561,3	1416,176
561,8	1424,233
562,2	1427,233
562,7	1425,833
563,1	1428,062
563,6	1426,005
564	1428,148
564,4	1424,776
564,9	1424,405
565,3	1427,148
565,8	1432,005
566,2	1432,49
566,7	1437,148
567,1	1443,062
567,6	1442,49
568	1444,862
568,5	1443,176
568,9	1438,919
569,4	1433,119
569,8	1432,662
570,3	1420,519
570,7	1425,09
571,1	1423,862
571,6	1420,633
572	1422,976
572,5	1426,29
572,9	1421,148
573,4	1423,119
573,8	1420,805
574,3	1421,548
574,7	1429,519
575,2	1430,519
575,6	1427,519
576,1	1435,805
576,5	1434,205
576,9	1429,862
577,4	1421,776
577,8	1412,862
578,3	1410,233
578,7	1405,776
579,2	1398,376
579,6	1397,89
580,1	1404,233
580,5	1405,148
581	1400,348
581,4	1401,633
581,9	1409,062
582,3	1407,29
582,7	1405,119
583,2	1396,148
583,6	1395,69
584,1	1399,462
584,5	1394,09
585	1392,319
585,4	1389,033
585,9	1391,89
586,3	1389,548
586,8	1390,576
587,2	1388,348
587,6	1386,948
588,1	1380,919
588,5	1376,69
589	1370,319
589,4	1365,548
589,9	1362,548
590,3	1362,176
590,8	1359,462
591,2	1355,462
591,7	1359,319
592,1	1358,29
592,5	1365,605
593	1360,805
593,4	1354,433
593,9	1352,948
594,3	1353,748
594,8	1348,805
595,2	1350,548
595,7	1343,89
596,1	1348,262
596,6	1346,233
597	1342,062
597,4	1335,119
597,9	1335,376
598,3	1328,148
598,8	1325,148
599,2	1316,176
599,7	1310,09
600,1	1312,605
600,6	1315,69
601	1309,119
601,4	1310,919
601,9	1311,919
602,3	1316,29
602,8	1320,662
603,2	1317,719
603,7	1311,633
604,1	1308,919
604,6	1303,548
605	1296,119
605,4	1289,833
605,9	1278,405
606,3	1270,033
606,8	1267,548
607,2	1261,89
607,7	1254,919
608,1	1252,348
608,6	1244,205
609	1243,69
609,4	1241,719
609,9	1235,633
610,3	1232,576
610,8	1232,433
611,2	1224,633
611,7	1220,662
612,1	1223,348
612,6	1216,49
613	1208,833
613,4	1198,148
613,9	1183,805
614,3	1184,319
614,8	1181,633
615,2	1169,319
615,7	1164,319
616,1	1160,176
616,6	1162,605
617	1165,919
617,4	1158,205
617,9	1153,948
618,3	1153,062
618,8	1152,033
619,2	1152,348
619,7	1144,433
620,1	1144,319
620,5	1145,033
621	1141,519
621,4	1130,462
621,9	1121,519
622,3	1123,29
622,8	1119,262
623,2	1102,948
623,6	1095,433
624,1	1083,719
624,5	1087,69
625	1091,433
625,4	1078,49
625,9	1074,805
626,3	1077,405
626,8	1073,348
627,2	1076,576
627,6	1061,748
628,1	1042,29
628,5	1037,662
629	1027,833
629,4	1021,748
629,9	1010,005
630,3	1001,548
630,7	1001,976
631,2	1012,062
631,6	1003,433
632,1	1005,148
632,5	1003,49
633	1004,005
633,4	993,148
633,8	992,462
634,3	978,433
634,7	974,376
635,2	967,033
635,6	959,29
636,1	954,576
636,5	952,319
636,9	941,69
637,4	936,89
637,8	928,662
638,3	925,833
638,7	919,462
639,2	911,033
639,6	912,748
640	904,576
640,5	908,519
640,9	908,976
641,4	909,862
641,8	906,976
642,2	912,119
642,7	898,262
643,1	901,633
643,6	891,205
644	887,948
644,5	883,348
644,9	880,148
645,3	869,462
645,8	870,233
646,2	863,433
646,7	858,176
647,1	854,919
647,6	840,148
648	832,033
648,4	830,405
648,9	834,548
649,3	827,748
649,8	822,119
650,2	816,605
650,6	819,119
651,1	818,948
651,5	817,633
652	805,776
652,4	801,833
652,9	794,976
653,3	785,69
653,7	779,49
654,2	772,205
654,6	756,462
655,1	756,548
655,5	760,49
655,9	766,405
656,4	770,805
656,8	770,005
657,3	768,319
657,7	765,348
658,2	757,262
658,6	748,376
659	738,948
659,5	727,662
659,9	725,862
660,4	718,376
660,8	711,662
661,2	712,233
661,7	706,948
662,1	705,29
662,6	701,033
663	688,433
663,4	685,005
663,9	689,462
664,3	681,548
664,8	676,719
665,2	667,119
665,6	660,433
666,1	655,519
666,5	652,548
667	644,205
667,4	636,176
667,9	632,548
668,3	628,348
668,7	629,776
669,2	629,976
669,6	631,833
670,1	631,176
670,5	626,862
670,9	630,633
671,4	628,462
671,8	621,462
672,3	617,148
672,7	604,09
673,1	596,233
673,6	599,605
674	589,919
674,5	589,148
674,9	590,662
675,3	585,662
675,8	587,119
676,2	585,49
676,7	578,69
677,1	571,233
677,5	570,319
678	568,833
678,4	566,633
678,9	563,919
679,3	557,919
679,7	555,605
680,2	555,148
680,6	545,433
681,1	541,833
681,5	536,376
681,9	520,748
682,4	522,69
682,8	516,319
683,3	516,29
683,7	515,833
684,1	510,862
684,6	503,376
685	509,605
685,5	503,462
685,9	499,633
686,3	488,119
686,8	482,005
687,2	476,633
687,7	476,862
688,1	472,805
688,5	466,605
689	468,005
689,4	467,348
689,9	468,462
690,3	465,89
690,7	463,233
691,2	460,176
691,6	459,405
692	452,976
692,5	454,148
692,9	450,462
693,4	447,548
693,8	449,69
694,2	441,29
694,7	443,233
695,1	440,033
695,6	435,776
696	432,433
696,4	428,719
696,9	421,148
697,3	420,405
697,8	414,233
698,2	416,319
698,6	413,033
699,1	413,148
699,5	411,576
699,9	417,29
700,4	420,348
700,8	414,262
701,3	406,376
701,7	401,69
702,1	396,405
702,6	395,09
703	387,662
703,5	381,519
703,9	384,29
704,3	383,576
704,8	386,919
705,2	385,976
705,6	382,09
706,1	375,919
706,5	373,519
707	365,262
707,4	365,262
707,8	358,348
708,3	348,719
708,7	345,633
709,2	345,462
709,6	341,519
710	340,462
710,5	337,376
710,9	334,69
711,3	334,405
711,8	332,319
712,2	333,119
712,7	337,462
713,1	340,376
713,5	335,862
714	339,119
714,4	338,519
714,8	335,748
715,3	331,09
715,7	326,319
716,2	323,319
716,6	322,776
717	321,062
717,5	320,405
717,9	315,148
718,3	313,576
718,8	309,948
719,2	310,433
719,7	308,833
720,1	298,833
720,5	297,033
721	297,776
721,4	293,09
721,8	292,119
722,3	285,919
722,7	278,519
723,2	279,462
723,6	274,205
724	276,776
724,5	274,776
724,9	275,662
725,3	269,633
725,8	270,09
726,2	266,262
726,7	266,719
727,1	260,376
727,5	261,062
728	254,89
728,4	256,49
728,8	251,319
729,3	250,148
729,7	249,205
730,1	248,805
730,6	247,519
731	241,805
731,5	239,576
731,9	244,262
732,3	244,033
732,8	243,548
733,2	239,119
733,6	234,862
734,1	238,748
734,5	241,29
734,9	237,605
735,4	239,405
735,8	237,233
736,3	239,348
736,7	239,405
737,1	237,376
737,6	233,948
738	238,205
738,4	235,348
738,9	232,462
739,3	225,862
739,7	226,433
740,2	225,148
740,6	224,719
741,1	213,919
741,5	211,148
741,9	212,405
742,4	217,319
742,8	213,805
743,2	214,69
743,7	216,062
744,1	222,376
744,5	223,09
745	219,662
745,4	218,548
745,8	215,833
746,3	209,033
746,7	201,233
747,2	192,776
747,6	190,49
748	190,919
748,5	186,548
748,9	191,49
749,3	192,548
749,8	196,662
750,2	205,805
750,6	201,148
751,1	198,405
751,5	198,49
751,9	193,833
752,4	191,376
752,8	182,948
753,3	178,205
753,7	178,576
754,1	175,576
754,6	176,119
755	176,233
755,4	184,405
755,9	194,062
756,3	192,205
756,7	194,348
757,2	189,348
757,6	184,976
758	181,805
758,5	175,148
758,9	169,033
759,3	165,548
759,8	156,948
760,2	162,89
760,6	162,405
761,1	167,69
761,5	164,09
761,9	160,862
762,4	162,49
762,8	166,176
763,3	165,319
763,7	166,319
764,1	157,405
764,6	163,519
765	164,205
765,4	159,376
765,9	164,49
766,3	164,633
766,7	162,69
767,2	163,205
767,6	160,805
768	160,776
768,5	163,49
768,9	154,462
769,3	152,405
769,8	154,033
770,2	155,033
770,6	148,49
771,1	145,519
771,5	142,233
771,9	147,348
772,4	144,776
772,8	137,633
773,2	133,633
773,7	131,262
774,1	129,033
774,5	124,633
775	120,119
775,4	119,633
775,8	124,633
776,3	121,548
776,7	126,005
777,1	128,719
777,6	131,462
778	131,948
778,4	132,919
778,9	131,433
779,3	132,69
779,7	131,89
780,2	131,119
780,6	134,033
781	128,919
781,5	126,576
781,9	122,176
782,3	122,776
782,8	124,119
783,2	123,005
783,6	118,176
784,1	119,319
784,5	117,348
784,9	117,633
785,4	111,948
785,8	102,348
786,2	103,748
786,7	98,348
787,1	93,719
787,5	93,776
788	92,319
788,4	95,833
788,8	94,376
789,3	92,262
789,7	93,233
790,1	100,548
790,6	97,605
791	97,833
791,4	94,862
791,9	98,976
792,3	96,833
792,7	97,148
793,2	88,605
793,6	88,69
794	89,633
794,5	93,033
794,9	91,605
795,3	85,348
795,8	88,433
796,2	93,576
796,6	95,462
797,1	93,033
797,5	90,576
797,9	87,748
798,4	91,919
798,8	97,462
799,2	96,462
799,7	97,062
800,1	94,776
800,5	93,576
801	93,605
801,4	94,005
801,8	89,205
802,2	84,119
802,7	80,233
803,1	81,262
803,5	81,519
804	85,233
804,4	86,376
804,8	82,29
805,3	84,633
805,7	89,519
806,1	83,205
806,6	82,748
807	84,005
807,4	80,548
807,9	79,262
808,3	82,605
808,7	76,805
809,2	82,29
809,6	79,176
810	71,348
810,4	73,348
810,9	74,49
811,3	69,833
811,7	69,233
812,2	67,919
812,6	70,748
813	73,633
813,5	65,776
813,9	66,262
814,3	64,433
814,8	65,69
815,2	67,748
815,6	69,519
816,1	69,919
816,5	73,519
816,9	67,09
817,3	69,805
817,8	63,948
818,2	63,919
818,6	59,69
819,1	59,119
819,5	57,262
819,9	58,69
820,4	56,233
820,8	59,09
821,2	53,262
821,7	51,748
822,1	50,233
822,5	49,89
822,9	51,005
823,4	54,633
823,8	54,976
824,2	57,662
824,7	59,519
825,1	58,176
825,5	57,776
826	61,633
826,4	61,919
826,8	63,776
827,3	67,976
827,7	67,548
828,1	73,29
828,5	72,948
829	68,176
829,4	63,948
829,8	61,062
830,3	51,662
830,7	48,376
831,1	44,433
831,6	46,662
832	46,005
832,4	46,719
832,8	43,462
833,3	44,776
833,7	48,405
834,1	46,748
834,6	46,833
835	48,176
835,4	46,005
835,8	48,176
836,3	51,862
836,7	50,348
837,1	47,976
837,6	45,148
838	44,49
838,4	41,49
838,9	41,462
839,3	40,09
839,7	36,433
840,1	38,376
840,6	34,89
841	32,005
841,4	33,205
841,9	33,348
842,3	38,148
842,7	43,976
843,1	42,862
843,6	45,005
844	46,776
844,4	49,89
844,9	50,833
845,3	43,348
845,7	38,49
846,2	38,776
846,6	37,69
847	40,719
847,4	39,776
847,9	41,176
848,3	44,148
848,7	44,233
849,2	46,119
849,6	48,205
850	40,548
850,4	41,519
850,9	36,405
851,3	33,262
851,7	37,005
852,2	34,376
852,6	38,49
853	40,033
853,4	38,062
853,9	38,919
854,3	42,09
854,7	36,805
855,2	39,29
855,6	37,148
856	34,176
856,4	31,49
856,9	31,205
857,3	34,605
857,7	38,519
858,2	38,405
858,6	39,462
859	45,205
859,4	49,805
859,9	49,833
860,3	43,719
860,7	44,09
861,1	40,119
861,6	41,119
862	46,376
862,4	47,519
862,9	53,719
863,3	50,605
863,7	50,69
864,1	50,89
864,6	49,29
865	42,29
865,4	35,233
865,9	28,405
866,3	30,862
866,7	29,662
867,1	35,405
867,6	30,919
868	27,776
868,4	32,548
868,8	36,148
869,3	32,576
869,7	32,776
870,1	28,919
870,6	26,119
871	104,033
871,4	98,033
871,8	96,519
872,3	96,205
872,7	92,033
873,1	89,405
873,5	100,605
874	21,176
874,4	27,748
874,8	26,376
875,3	29,719
875,7	33,919
876,1	37,005
876,5	27,49
877	28,719
877,4	28,119
877,8	18,89
878,2	21,548
878,7	17,49
879,1	12,576
879,5	16,29
879,9	15,09
880,4	8,462
880,8	16,805
881,2	6,033
881,7	5,948
882,1	11,433
882,5	7,319
882,9	7,433
883,4	14,405
883,8	12,548
884,2	19,748
884,6	17,062
885,1	18,662
885,5	20,719
885,9	24,462
886,3	20,29
886,8	21,348
887,2	25,919
887,6	33,376
888	28,948
888,5	29,776
888,9	27,719
889,3	28,462
889,8	30,576
890,2	30,49
890,6	25,576
891	21,833
891,5	19,348
891,9	23,205
892,3	25,148
892,7	20,062
893,2	16,948
893,6	18,976
894	19,348
894,4	18,033
894,9	14,976
895,3	12,976
895,7	9,205
896,1	7,119
896,6	6,662
897	11,548
897,4	16,548
897,8	19,776
898,3	23,719
898,7	35,405
899,1	31,976
899,5	27,148
900	25,862
900,4	23,976
900,8	23,862
901,2	20,233
901,7	10,462
902,1	11,148
902,5	11,205
902,9	10,862
903,4	10,576
903,8	7,776
904,2	9,119
904,6	15,89
905,1	21,462
905,5	26,833
905,9	27,033
906,3	26,805
906,8	27,233
907,2	23,49
907,6	20,233
908	17,89
908,5	23,09
908,9	25,348
909,3	24,119
909,7	27,548
910,2	28,776
910,6	30,548
911	28,948
911,4	23,29
911,9	22,605
912,3	19,662
912,7	16,576
913,1	14,605
913,6	11,262
914	14,205
914,4	16,462
914,8	11,433
915,3	15,176
915,7	14,948
916,1	13,833
916,5	16,09
916,9	10,776
917,4	9,176
917,8	7,919
918,2	3,29
918,6	5,148
919,1	6,605
919,5	6,948
919,9	12,405
920,3	7,776
920,8	12,576
921,2	22,148
921,6	14,69
922	17,49
922,5	13,262
922,9	9,862
923,3	9,605
923,7	11,319
924,2	6,605
924,6	14,548
925	11,09
925,4	14,519
925,8	16,062
926,3	17,033
926,7	12,805
927,1	16,205
927,5	12,862
928	14,09
928,4	10,862
928,8	6,519
929,2	10,462
929,7	11,548
930,1	3,49
930,5	5,319
930,9	6,319
931,3	6,662
931,8	15,633
932,2	14,748
932,6	18,633
933	24,976
933,5	23,548
933,9	21,376
934,3	23,748
934,7	18,005
935,2	16,005
935,6	8,633
936	3,948
936,4	5,919
936,8	6,548
937,3	10,233
937,7	10,262
938,1	8,233
938,5	8,605
939	9,833
939,4	6,89
939,8	3,176
940,2	-0,024
940,6	5,405
941,1	5,948
941,5	7,69
941,9	14,405
942,3	15,119
942,8	21,062
943,2	19,919
943,6	13,233
944	11,29
944,4	15,319
944,9	6,29
945,3	4,919
945,7	4,862
946,1	9,948
946,6	12,148
947	18,29
947,4	17,748
947,8	23,976
948,2	22,776
948,7	20,205
949,1	19,262
949,5	15,519
949,9	13,29
950,3	7,462
950,8	5,433
951,2	12,605
951,6	13,376
952	19,205
952,5	26,519
952,9	24,005
953,3	26,148
953,7	21,09
954,1	15,348
954,6	12,919
955	4,919
955,4	4,49
955,8	5,09
956,2	10,49
956,7	15,948
957,1	14,919
957,5	9,69
957,9	8,89
958,3	2,462
958,8	4,09
959,2	-0,424
959,6	-5,567
960	-5,138
960,5	4,376
960,9	6,319
961,3	4,69
961,7	4,862
962,1	4,176
962,6	8,748
963	5,519
963,4	1,976
963,8	-1,052
964,2	5,662
964,7	8,69
965,1	9,919
965,5	8,005
965,9	12,348
966,3	15,719
966,8	18,148
967,2	18,176
967,6	19,119
968	19,176
968,4	15,262
968,9	15,776
969,3	12,548
969,7	11,262
970,1	12,748
970,5	5,662
971	11,919
971,4	13,433
971,8	15,576
972,2	18,233
972,6	16,719
973,1	13,49
973,5	13,719
973,9	3,062
974,3	3,29
974,7	4,89
975,2	3,89
975,6	3,548
976	7,376
976,4	6,605
976,8	14,919
977,3	22,319
977,7	19,262
978,1	16,376
978,5	15,376
978,9	14,605
979,4	15,262
979,8	7,262
980,2	2,319
980,6	3,205
981	6,548
981,5	8,548
981,9	4,976
982,3	7,29
982,7	18,376
983,1	16,462
983,6	14,262
984	14,833
984,4	11,148
984,8	7,805
985,2	11,119
985,6	3,919
986,1	4,605
986,5	6,633
986,9	7,805
987,3	12,205
987,7	19,576
988,2	17,319
988,6	12,919
989	11,605
989,4	12,548
989,8	14,49
990,3	16,005
990,7	9,576
991,1	9,09
991,5	13,348
991,9	17,176
992,3	11,119
992,8	6,319
993,2	6,433
993,6	10,205
994	5,09
994,4	1,262
994,9	1,976
995,3	-0,91
995,7	1,662
996,1	-7,567
996,5	-4,938
996,9	-0,595
997,4	-2,338
997,8	-7,052
998,2	-1,595
998,6	-2,138
999	9,119
999,5	-1,51
999,9	2,29
1000,3	4,719
1000,7	1,976
1001,1	1,09
1001,5	1,748
1002	-5,367
1002,4	2,748
1002,8	1,319
1003,2	7,548
1003,6	14,776
1004	13,576
1004,5	9,833
1004,9	13,462
1005,3	13,548
1005,7	11,119
1006,1	17,09
1006,6	15,033
1007	18,719
1007,4	21,69
1007,8	18,519
1008,2	17,233
1008,6	18,033
1009,1	9,519
1009,5	8,519
1009,9	8,119
1010,3	8,976
1010,7	9,405
1011,1	1,748
1011,6	2,376
1012	4,462
1012,4	4,719
1012,8	5,233
1013,2	4,29
1013,6	6,033
1014,1	12,062
1014,5	7,062
1014,9	1,833
1015,3	-0,852
1015,7	-1,567
1016,1	-2,252
1016,6	-3,11
1017	-0,881
1017,4	5,948
1017,8	13,005
1018,2	15,576
1018,6	16,119
1019,1	20,662
1019,5	22,462
1019,9	21,805
1020,3	20,262
1020,7	13,633
1021,1	16,805
1021,6	22,176
1022	18,262
1022,4	12,776
1022,8	17,348
1023,2	16,69
1023,6	15,119
1024,1	12,519
1024,5	5,976
1024,9	8,605
1025,3	13,319
1025,7	9,376
1026,1	8,69
1026,6	14,748
1027	12,576
1027,4	15,748
1027,8	17,776
1028,2	22,033
1028,6	20,49
1029	18,548
1029,5	13,919
1029,9	14,548
1030,3	12,776
1030,7	1,319
1031,1	-2,595
1031,5	-2,71
1032	6,148
1032,4	2,376
1032,8	2,633
1033,2	2,462
1033,6	9,205
1034	8,176
1034,4	3,633
1034,9	-1,167
1035,3	5,119
1035,7	13,233
1036,1	16,005
1036,5	11,576
1036,9	9,719
1037,4	13,319
1037,8	12,148
1038,2	18,205
1038,6	17,976
1039	14,662
1039,4	23,69
1039,8	25,833
1040,3	32,519
1040,7	31,033
1041,1	25,433
1041,5	15,833
1041,9	10,633
1042,3	7,833
1042,7	15,748
1043,2	11,49
1043,6	12,89
1044	13,948
1044,4	12,948
1044,8	17,89
1045,2	17,262
1045,6	13,148
1046,1	10,719
1046,5	5,005
1046,9	6,062
1047,3	14,176
1047,7	19,29
1048,1	15,948
1048,5	13,805
1049	12,433
1049,4	17,176
1049,8	16,833
1050,2	9,148
1050,6	9,776
1051	14,148
1051,4	12,919
1051,9	21,319
1052,3	22,233
1052,7	21,548
1053,1	27,205
1053,5	23,776
1053,9	20,462
1054,3	27,148
1054,8	23,348
1055,2	20,433
1055,6	24,148
1056	21,348
1056,4	24,576
1056,8	24,776
1057,2	19,348
1057,6	18,69
1058,1	19,462
1058,5	8,433
1058,9	6,148
1059,3	0,605
1059,7	3,176
1060,1	4,519
1060,5	2,605
1061	3,205
1061,4	12,319
1061,8	14,948
1062,2	16,69
1062,6	18,605
1063	18,262
1063,4	21,519
1063,8	25,719
1064,3	27,376
1064,7	25,605
1065,1	24,033
1065,5	24,005
1065,9	20,89
1066,3	16,976
1066,7	13,69
1067,1	13,605
1067,6	18,576
1068	16,319
1068,4	17,833
1068,8	20,976
1069,2	26,976
1069,6	23,519
1070	18,548
1070,4	21,119
1070,9	30,205
1071,3	24,89
1071,7	21,176
1072,1	19,405
1072,5	23,862
1072,9	18,633
1073,3	15,748
1073,7	12,662
1074,2	11,662
1074,6	12,49
1075	12,833
1075,4	8,062
1075,8	18,633
1076,2	14,09
1076,6	8,148
1077	8,348
1077,5	15,205
1077,9	10,548
1078,3	11,919
1078,7	7,605
1079,1	11,748
1079,5	14,262
1079,9	18,148
1080,3	10,29
1080,7	16,005
1081,2	19,605
1081,6	16,148
1082	15,033
1082,4	18,29
1082,8	18,005
1083,2	21,576
1083,6	16,376
1084	19,09
1084,5	24,119
1084,9	25,976
1085,3	20,49
1085,7	16,09
1086,1	9,948
1086,5	15,119
1086,9	10,748
1087,3	2,062
1087,7	-0,224
1088,2	-0,31
1088,6	4,862
1089	5,862
1089,4	3,748
1089,8	11,033
1090,2	17,462
1090,6	18,005
1091	25,462
1091,4	21,833
1091,9	26,49
1092,3	25,348
1092,7	24,262
1093,1	23,519
1093,5	22,205
1093,9	20,205
1094,3	15,033
1094,7	14,405
1095,1	12,433
1095,5	8,033
1096	10,433
1096,4	11,69
1096,8	7,262
1097,2	11,548
1097,6	10,719
1098	10,519
1098,4	7,262
1098,8	0,662
1099,2	1,09
1099,6	-0,995
1100,1	-1,995
1100,5	-2,195
1100,9	-3,11
1101,3	0,005
1101,7	5,319
1102,1	5,519
1102,5	9,462
1102,9	13,548
1103,3	16,005
1103,7	19,319
1104,2	15,262
1104,6	14,205
1105	12,09
1105,4	10,433
1105,8	6,433
1106,2	3,233
1106,6	1,748
1107	2,148
1107,4	0,9
1107,8	0,513
1108,3	-0,367
