Data from Subt2_09.txt Node
Date: Thu Aug 24 16:36:08 MSK 2023
User: vat
Spectrometer: MAYP114033
Trigger mode: 0
Integration Time (sec): 1,000000E0
Scans to average: 5
Electric dark correction enabled: true
Nonlinearity correction enabled: false
Boxcar width: 3
XAxis mode: Wavelengths
Number of Pixels in Spectrum: 2068
>>>>>Begin Spectral Data<<<<<
199,4	0,783
199,9	-3,027
200,4	-0,3
200,8	-1,924
201,3	0,448
201,8	3,733
202,2	1,762
202,7	2,99
203,2	2,933
203,6	2,705
204,1	8,619
204,6	7,819
205	12,305
205,5	13,19
206	13,476
206,4	17,848
206,9	20,248
207,4	18,39
207,8	14,219
208,3	8,733
208,8	6,619
209,2	7,39
209,7	8,562
210,2	10,162
210,6	8,648
211,1	9,705
211,5	4,162
212	7,362
212,5	5,876
212,9	6,39
213,4	0,79
213,9	-1,581
214,3	2,162
214,8	5,762
215,3	6,562
215,7	9,105
216,2	9,248
216,7	10,162
217,1	15,219
217,6	14,276
218,1	10,705
218,5	15,133
219	16,59
219,5	10,848
219,9	12,362
220,4	16,076
220,9	19,305
221,3	26,905
221,8	19,419
222,3	17,219
222,7	21,619
223,2	18,905
223,6	13,162
224,1	9,419
224,6	9,048
225	11,676
225,5	11,133
226	12,962
226,4	11,305
226,9	13,79
227,4	9,076
227,8	12,362
228,3	13,448
228,8	17,248
229,2	18,705
229,7	26,905
230,2	24,533
230,6	32,362
231,1	23,476
231,5	24,533
232	16,876
232,5	10,562
232,9	5,99
233,4	7,162
233,9	3,19
234,3	10,876
234,8	6,448
235,3	12,276
235,7	18,733
236,2	21,248
236,7	21,79
237,1	28,276
237,6	23,59
238,1	24,133
238,5	18,562
239	15,705
239,4	12,219
239,9	12,39
240,4	4,505
240,8	7,048
241,3	9,362
241,8	15,448
242,2	10,733
242,7	16,162
243,2	11,733
243,6	13,305
244,1	13,19
244,6	14,676
245	10,362
245,5	15,019
245,9	10,762
246,4	15,219
246,9	19,219
247,3	19,648
247,8	14,59
248,3	18,876
248,7	19,505
249,2	21,219
249,7	19,162
250,1	14,59
250,6	11,133
251	21,562
251,5	20,219
252	19,276
252,4	12,362
252,9	14,848
253,4	14,219
253,8	23,762
254,3	16,648
254,8	13,019
255,2	11,533
255,7	17,676
256,1	19,019
256,6	22,39
257,1	11,876
257,5	9,076
258	17,276
258,5	17,105
258,9	18,819
259,4	15,305
259,9	14,276
260,3	17,362
260,8	27,048
261,2	23,676
261,7	23,933
262,2	24,733
262,6	24,905
263,1	23,362
263,6	21,533
264	16,219
264,5	13,676
264,9	18,933
265,4	19,848
265,9	17,733
266,3	19,505
266,8	17,39
267,3	19,448
267,7	19,676
268,2	14,419
268,7	10,762
269,1	8,79
269,6	9,219
270	8,962
270,5	3,59
271	4,876
271,4	4,876
271,9	1,762
272,4	8,933
272,8	11,562
273,3	15,562
273,7	16,848
274,2	12,59
274,7	17,162
275,1	18,762
275,6	14,39
276,1	10,962
276,5	17,505
277	18,619
277,4	22,648
277,9	17,648
278,4	18,705
278,8	20,276
279,3	21,248
279,8	14,276
280,2	10,219
280,7	8,476
281,1	10,105
281,6	5,276
282,1	3,048
282,5	1,876
283	-6,61
283,4	-2,695
283,9	-4,667
284,4	-6,038
284,8	3,019
285,3	6,362
285,8	11,848
286,2	16,59
286,7	15,619
287,1	15,333
287,6	14,162
288,1	7,019
288,5	9,505
289	10,99
289,5	12,133
289,9	15,19
290,4	20,105
290,8	22,79
291,3	28,076
291,8	24,99
292,2	16,39
292,7	15,876
293,1	16,219
293,6	18,676
294,1	13,99
294,5	10,533
295	11,505
295,5	12,705
295,9	17,333
296,4	11,476
296,8	7,19
297,3	18,362
297,8	17,333
298,2	14,39
298,7	17,533
299,1	17,276
299,6	23,476
300,1	25,019
300,5	20,305
301	22,048
301,5	25,876
301,9	27,362
302,4	20,162
302,8	22,905
303,3	24,876
303,8	24,362
304,2	24,305
304,7	21,933
305,1	19,905
305,6	25,133
306,1	20,105
306,5	20,105
307	24,619
307,4	21,333
307,9	24,619
308,4	21,248
308,8	21,448
309,3	21,59
309,8	18,762
310,2	13,705
310,7	18,219
311,1	18,276
311,6	24,019
312,1	26,99
312,5	25,933
313	25,762
313,4	23,476
313,9	20,619
314,4	17,876
314,8	15,019
315,3	10,248
315,7	5,448
316,2	2,448
316,7	5,305
317,1	7,505
317,6	11,505
318	12,505
318,5	12,39
319	22,505
319,4	22,362
319,9	22,505
320,3	21,562
320,8	19,048
321,3	18,248
321,7	25,562
322,2	22,076
322,6	27,305
323,1	28,562
323,6	27,362
324	27,848
324,5	24,019
324,9	18,79
325,4	22,019
325,9	18,419
326,3	16,676
326,8	20,933
327,2	20,962
327,7	23,419
328,2	24,733
328,6	15,876
329,1	17,876
329,5	18,419
330	15,105
330,5	15,333
330,9	11,133
331,4	11,733
331,8	14,676
332,3	13,076
332,8	15,362
333,2	18,276
333,7	17,048
334,1	22,133
334,6	19,476
335,1	20,362
335,5	19,99
336	18,648
336,4	16,848
336,9	18,276
337,4	21,219
337,8	21,19
338,3	22,019
338,7	23,533
339,2	22,762
339,7	26,648
340,1	25,733
340,6	24,676
341	30,105
341,5	37,676
342	39,362
342,4	40,619
342,9	38,276
343,3	37,533
343,8	40,162
344,2	36,848
344,7	31,362
345,2	29,419
345,6	27,962
346,1	24,762
346,5	26,99
347	24,676
347,5	26,133
347,9	24,39
348,4	23,162
348,8	22,619
349,3	26,619
349,8	20,876
350,2	20,333
350,7	21,733
351,1	25,676
351,6	30,505
352	32,619
352,5	36,248
353	40,048
353,4	44,676
353,9	46,39
354,3	44,19
354,8	46,648
355,3	50,905
355,7	58,59
356,2	75,133
356,6	85,019
357,1	102,219
357,5	123,619
358	146,819
358,5	171,476
358,9	195,876
359,4	218,962
359,8	247,048
360,3	278,676
360,8	319,419
361,2	360,819
361,7	413,933
362,1	465,705
362,6	524,705
363	593,648
363,5	661,533
364	732,762
364,4	813,505
364,9	887,248
365,3	962,448
365,8	1033,162
366,3	1102,733
366,7	1169,648
367,2	1225,476
367,6	1267,248
368,1	1298,19
368,5	1321,619
369	1334,362
369,5	1337,105
369,9	1330,019
370,4	1311,762
370,8	1288,305
371,3	1263,819
371,7	1227,448
372,2	1188,248
372,7	1134,048
373,1	1077,048
373,6	1017,133
374	954,419
374,5	888,876
374,9	831,39
375,4	773,419
375,9	723,105
376,3	668,105
376,8	620,162
377,2	579,162
377,7	535,819
378,2	492,048
378,6	452,419
379,1	412,962
379,5	380,762
380	349,705
380,4	312,048
380,9	287,248
381,4	265,99
381,8	246,362
382,3	224,876
382,7	211,676
383,2	204,876
383,6	194,076
384,1	179,219
384,6	170,362
385	158,476
385,5	153,848
385,9	143,219
386,4	128,333
386,8	126,762
387,3	121,305
387,7	113,448
388,2	110,333
388,7	108,19
389,1	103,619
389,6	101,59
390	94,162
390,5	89,048
390,9	82,648
391,4	81,762
391,9	73,305
392,3	78,019
392,8	72,019
393,2	73,733
393,7	71,762
394,1	74,333
394,6	68,305
395,1	66,762
395,5	57,733
396	65,133
396,4	60,248
396,9	63,362
397,3	56,448
397,8	60,733
398,2	63,733
398,7	65,333
399,2	64,505
399,6	68,762
400,1	68,419
400,5	69,133
401	64,076
401,4	65,048
401,9	68,762
402,4	70,705
402,8	69,105
403,3	71,162
403,7	77,733
404,2	83,076
404,6	83,562
405,1	80,619
405,5	77,848
406	80,648
406,5	81,676
406,9	87,476
407,4	98,819
407,8	110,076
408,3	122,79
408,7	127,333
409,2	137,133
409,6	143,905
410,1	155,019
410,6	159,59
411	170,333
411,5	179,419
411,9	193,819
412,4	203,419
412,8	218,676
413,3	230,562
413,7	243,248
414,2	251,99
414,7	270,019
415,1	291,419
415,6	317,762
416	343,733
416,5	367,676
416,9	390,676
417,4	416,59
417,8	439,162
418,3	465,076
418,8	488,648
419,2	510,59
419,7	539,105
420,1	568,705
420,6	598,933
421	629,133
421,5	657,733
421,9	691,79
422,4	731,048
422,8	770,419
423,3	813,019
423,8	857,219
424,2	912,276
424,7	967,162
425,1	1021,848
425,6	1077,933
426	1132,562
426,5	1193,505
426,9	1262,619
427,4	1320,619
427,9	1389,59
428,3	1464,933
428,8	1545,676
429,2	1631,419
429,7	1723,848
430,1	1812,133
430,6	1913,933
431	2012,219
431,5	2118,533
431,9	2225,876
432,4	2340,562
432,8	2458,848
433,3	2593,276
433,8	2719,762
434,2	2860,162
434,7	2996,619
435,1	3146,105
435,6	3287,248
436	3441,248
436,5	3601,248
436,9	3770,19
437,4	3952,162
437,8	4149,076
438,3	4343,048
438,8	4558,219
439,2	4771,133
439,7	4987,333
440,1	5217,876
440,6	5447,619
441	5674,705
441,5	5922,048
441,9	6177,219
442,4	6443,562
442,8	6729,819
443,3	7019,905
443,7	7316,048
444,2	7632,59
444,7	7954,79
445,1	8281,419
445,6	8621,962
446	8950,105
446,5	9290,848
446,9	9648,905
447,4	10015,362
447,8	10376,619
448,3	10758,705
448,7	11135,476
449,2	11535,305
449,6	11939,59
450,1	12357,133
450,6	12776,619
451	13208,248
451,5	13642,19
451,9	14097,076
452,4	14558,876
452,8	15038,705
453,3	15506,762
453,7	15989,905
454,2	16485,448
454,6	16968,019
455,1	17471,619
455,5	17963,819
456	18460,305
456,4	18974,79
456,9	19497,076
457,3	20030,933
457,8	20588,476
458,3	21120,133
458,7	21686,162
459,2	22260,762
459,6	22817,105
460,1	23378,305
460,5	23924,419
461	24485,962
461,4	25054,648
461,9	25616,79
462,3	26172,905
462,8	26757,676
463,2	27332,733
463,7	27916,562
464,1	28481,933
464,6	29055,619
465	29632,076
465,5	30202,048
466	30760,619
466,4	31311,876
466,9	31873,19
467,3	32431,276
467,8	32986,876
468,2	33538,276
468,7	34097,448
469,1	34629,162
469,6	35172,676
470	35720,305
470,5	36260,248
470,9	36790,648
471,4	37291,39
471,8	37784,476
472,3	38299,248
472,7	38786,076
473,2	39273,819
473,6	39741,99
474,1	40198,733
474,5	40656,848
475	41120,419
475,4	41558,848
475,9	42010,79
476,4	42397,676
476,8	42811,162
477,3	43225,133
477,7	43622,848
478,2	43981,048
478,6	44340,448
479,1	44659,162
479,5	45002,448
480	45318,819
480,4	45601,248
480,9	45870,762
481,3	46130,076
481,8	46397,876
482,2	46657,219
482,7	46892,619
483,1	47103,733
483,6	47320,676
484	47507,533
484,5	47688,419
484,9	47823,848
485,4	47959,019
485,8	48064,362
486,3	48177,362
486,7	48249,019
487,2	48354,448
487,6	48422,962
488,1	48505,619
488,5	48571,362
489	48614,705
489,4	48627,39
489,9	48661,133
490,4	48630,19
490,8	48623,505
491,3	48552,419
491,7	48476,933
492,2	48418,876
492,6	48347,162
493,1	48218,705
493,5	48108,619
494	47974,705
494,4	47859,248
494,9	47725,476
495,3	47584,733
495,8	47429,819
496,2	47275,248
496,7	47112,676
497,1	46945,876
497,6	46762,219
498	46572,019
498,5	46372,076
498,9	46148,505
499,4	45967,533
499,8	45755,848
500,3	45541,79
500,7	45315,305
501,2	45094,162
501,6	44854,762
502,1	44623,562
502,5	44355,533
503	44107,162
503,4	43844,276
503,9	43579,133
504,3	43276,962
504,8	42985,162
505,2	42698,505
505,7	42418,619
506,1	42104,362
506,6	41787,019
507	41473,133
507,5	41152,962
507,9	40843,248
508,4	40528,762
508,8	40190,362
509,3	39862,19
509,7	39516,448
510,2	39196,19
510,6	38883,676
511,1	38548,933
511,5	38189,705
512	37855,59
512,4	37528,562
512,9	37193,162
513,3	36830,562
513,8	36479,733
514,2	36122,648
514,7	35770,962
515,1	35405,219
515,6	35046,933
516	34696,562
516,5	34345,733
516,9	34007,762
517,4	33660,076
517,8	33318,219
518,3	32980,362
518,7	32623,362
519,2	32288,162
519,6	31954,848
520,1	31596,962
520,5	31256,362
521	30932,905
521,4	30603,19
521,9	30283,562
522,3	29949,59
522,8	29623,448
523,2	29299,933
523,7	28984,876
524,1	28651,419
524,6	28329,019
525	28009,99
525,5	27712,79
525,9	27403,59
526,4	27102,533
526,8	26791,933
527,3	26517,533
527,7	26222,533
528,2	25931,99
528,6	25634,962
529,1	25355,562
529,5	25086,19
530	24809,076
530,4	24520,419
530,9	24239,019
531,3	23976,819
531,8	23703,848
532,2	23429,648
532,6	23154,305
533,1	22896,79
533,5	22633,562
534	22389,362
534,4	22129,305
534,9	21885,876
535,3	21635,048
535,8	21390,733
536,2	21156,448
536,7	20922,962
537,1	20680,19
537,6	20447,819
538	20217,419
538,5	20003,476
538,9	19779,419
539,4	19566,219
539,8	19340,848
540,3	19140,79
540,7	18940,248
541,2	18741,419
541,6	18534,733
542,1	18337,19
542,5	18127,505
543	17941,762
543,4	17736,362
543,9	17546,162
544,3	17351,79
544,8	17161,562
545,2	16980,619
545,7	16800,533
546,1	16616,819
546,5	16452,476
547	16278,476
547,4	16109,762
547,9	15955,79
548,3	15793,133
548,8	15633,505
549,2	15491,048
549,7	15341,933
550,1	15193,362
550,6	15047,448
551	14889,933
551,5	14739,79
551,9	14594,59
552,4	14446,219
552,8	14302,476
553,3	14160,762
553,7	14023,448
554,2	13894,076
554,6	13769,962
555,1	13645,648
555,5	13515,162
555,9	13381,505
556,4	13262,848
556,8	13137,79
557,3	13008,39
557,7	12892,162
558,2	12772,905
558,6	12660,162
559,1	12548,248
559,5	12433,019
560	12330,105
560,4	12225,333
560,9	12107,79
561,3	11996,448
561,8	11888,476
562,2	11788,248
562,7	11673,248
563,1	11564,305
563,6	11463,59
564	11370,276
564,4	11271,562
564,9	11163,848
565,3	11073,39
565,8	10989,133
566,2	10904,019
566,7	10819,733
567,1	10730,933
567,6	10650,819
568	10565,219
568,5	10469,79
568,9	10380,333
569,4	10280,619
569,8	10190,39
570,3	10098,848
570,7	10012,276
571,1	9945,99
571,6	9859,819
572	9784,733
572,5	9716,419
572,9	9644,619
573,4	9574,905
573,8	9498,162
574,3	9428,219
574,7	9365,562
575,2	9287,619
575,6	9217,448
576,1	9140,905
576,5	9065,619
576,9	9000,733
577,4	8921,733
577,8	8846,448
578,3	8779,19
578,7	8705,133
579,2	8626,848
579,6	8562,448
580,1	8495,248
580,5	8432,705
581	8377,419
581,4	8308,562
581,9	8244,476
582,3	8194,962
582,7	8127,362
583,2	8056,733
583,6	7987,076
584,1	7921,848
584,5	7866,019
585	7810,819
585,4	7753,419
585,9	7704,905
586,3	7653,59
586,8	7603,248
587,2	7548,105
587,6	7492,733
588,1	7439,79
588,5	7389,19
589	7327,705
589,4	7273,933
589,9	7222,933
590,3	7172,505
590,8	7130,505
591,2	7075,276
591,7	7027,476
592,1	6985,276
592,5	6947,705
593	6908,533
593,4	6866,448
593,9	6817,162
594,3	6783,076
594,8	6737,219
595,2	6704,19
595,7	6656,59
596,1	6614,019
596,6	6575,933
597	6541,705
597,4	6490,99
597,9	6453,39
598,3	6408,219
598,8	6376,705
599,2	6328,133
599,7	6285,876
600,1	6244,362
600,6	6204,79
601	6165,962
601,4	6125,619
601,9	6078,39
602,3	6052,533
602,8	6021,876
603,2	5991,676
603,7	5962,133
604,1	5931,505
604,6	5894,762
605	5860,019
605,4	5824,905
605,9	5780,676
606,3	5742,333
606,8	5700,105
607,2	5650,562
607,7	5615,533
608,1	5579,39
608,6	5536,276
609	5499,39
609,4	5464,19
609,9	5430,133
610,3	5401,362
610,8	5361,219
611,2	5324,705
611,7	5295,962
612,1	5267,276
612,6	5226,019
613	5193,19
613,4	5159,533
613,9	5126,562
614,3	5095,562
614,8	5057,59
615,2	5025,048
615,7	4997,905
616,1	4968,762
616,6	4935,419
617	4906,962
617,4	4875,362
617,9	4851,848
618,3	4817,505
618,8	4781,19
619,2	4752,219
619,7	4721,476
620,1	4694,933
620,5	4671,619
621	4635,648
621,4	4606,762
621,9	4582,59
622,3	4559,276
622,8	4529,248
623,2	4498,962
623,6	4462,248
624,1	4431,305
624,5	4401,476
625	4374,248
625,4	4338,333
625,9	4312,905
626,3	4284,362
626,8	4262,276
627,2	4229,39
627,6	4190,533
628,1	4152,762
628,5	4127,419
629	4093,79
629,4	4061,619
629,9	4030,962
630,3	4007,848
630,7	3987,39
631,2	3964,762
631,6	3931,19
632,1	3908,248
632,5	3879,39
633	3849,476
633,4	3820,59
633,8	3795,333
634,3	3765,59
634,7	3741,219
635,2	3708,133
635,6	3688,39
636,1	3665,419
636,5	3639,39
636,9	3612,933
637,4	3583,619
637,8	3560,562
638,3	3535,676
638,7	3509,619
639,2	3479,362
639,6	3460,962
640	3442,076
640,5	3430,762
640,9	3405,448
641,4	3391,076
641,8	3373,39
642,2	3369,505
642,7	3339,905
643,1	3317,933
643,6	3296,962
644	3280,276
644,5	3261,905
644,9	3239,39
645,3	3204,019
645,8	3189,562
646,2	3159,99
646,7	3134,362
647,1	3111,048
647,6	3087,79
648	3066,733
648,4	3049,419
648,9	3031,39
649,3	3016,476
649,8	3003,305
650,2	2987,59
650,6	2968,076
651,1	2949,076
651,5	2933,619
652	2912,99
652,4	2896,333
652,9	2874,905
653,3	2853,19
653,7	2836,619
654,2	2815,59
654,6	2790,448
655,1	2775,305
655,5	2763,59
655,9	2745,39
656,4	2724,505
656,8	2701,248
657,3	2687,962
657,7	2671,619
658,2	2655,133
658,6	2628,505
659	2602,619
659,5	2586,248
659,9	2570,362
660,4	2544,705
660,8	2526,476
661,2	2505,019
661,7	2487,162
662,1	2479,848
662,6	2456,905
663	2437,019
663,4	2418,762
663,9	2402,419
664,3	2385,419
664,8	2369,133
665,2	2345,933
665,6	2331,762
666,1	2309,876
666,5	2296,533
667	2275,19
667,4	2252,876
667,9	2234,905
668,3	2217,276
668,7	2207,562
669,2	2195,619
669,6	2182,619
670,1	2177,648
670,5	2159,448
670,9	2149,476
671,4	2135,648
671,8	2117,962
672,3	2099,819
672,7	2081,762
673,1	2061,648
673,6	2051,533
674	2030,419
674,5	2020,305
674,9	2008,676
675,3	1998,333
675,8	1988,248
676,2	1969,876
676,7	1955,305
677,1	1946,59
677,5	1930,619
678	1914,305
678,4	1900,448
678,9	1885,562
679,3	1870,019
679,7	1856,19
680,2	1842,19
680,6	1824,762
681,1	1810,476
681,5	1797,248
681,9	1777,99
682,4	1769,219
682,8	1759,248
683,3	1744,676
683,7	1734,848
684,1	1725,105
684,6	1710,533
685	1703,733
685,5	1694,276
685,9	1679,733
686,3	1661,076
686,8	1643,276
687,2	1628,419
687,7	1614,59
688,1	1601,276
688,5	1586,59
689	1577,419
689,4	1576,105
689,9	1570,162
690,3	1557,076
690,7	1545,19
691,2	1534,19
691,6	1524,19
692	1507,476
692,5	1497,476
692,9	1493,905
693,4	1482,562
693,8	1472,876
694,2	1456,448
694,7	1447,219
695,1	1439,133
695,6	1422,933
696	1409,333
696,4	1402,848
696,9	1398,762
697,3	1385,248
697,8	1372,105
698,2	1366,248
698,6	1362,762
699,1	1349,105
699,5	1334,562
699,9	1323,676
700,4	1320,305
700,8	1309,705
701,3	1298,876
701,7	1280,162
702,1	1271,648
702,6	1268,762
703	1261,162
703,5	1255,105
703,9	1247,333
704,3	1235,276
704,8	1229,476
705,2	1215,848
705,6	1205,762
706,1	1193,59
706,5	1181,848
707	1168,19
707,4	1159,99
707,8	1150,905
708,3	1138,933
708,7	1131,419
709,2	1126,162
709,6	1116,819
710	1115,505
710,5	1114,505
710,9	1109,248
711,3	1105,333
711,8	1094,648
712,2	1083,648
712,7	1081,619
713,1	1068,762
713,5	1056,39
714	1045,19
714,4	1039,276
714,8	1030,19
715,3	1021,305
715,7	1007,705
716,2	1003,105
716,6	993,419
717	987,476
717,5	978,962
717,9	970,59
718,3	965,99
718,8	960,933
719,2	952,79
719,7	951,333
720,1	938,705
720,5	934,19
721	927,819
721,4	920,99
721,8	913,476
722,3	905,933
722,7	895,162
723,2	894,762
723,6	886,162
724	878,419
724,5	874,419
724,9	864,505
725,3	857,219
725,8	847,505
726,2	840,905
726,7	833,19
727,1	823,048
727,5	816,619
728	813,733
728,4	813,162
728,8	804,048
729,3	793,733
729,7	789,876
730,1	789,79
730,6	781,362
731	777,99
731,5	770,59
731,9	770,876
732,3	766,276
732,8	759,905
733,2	751,305
733,6	747,733
734,1	739,248
734,5	732,819
734,9	725,648
735,4	727,048
735,8	722,705
736,3	723,905
736,7	717,562
737,1	710,133
737,6	704,733
738	700,762
738,4	694,819
738,9	692,876
739,3	681,762
739,7	683,59
740,2	683,219
740,6	676,905
741,1	665,219
741,5	659,648
741,9	646,048
742,4	645,848
742,8	636,419
743,2	630,076
743,7	631,962
744,1	640,962
744,5	640,733
745	642,933
745,4	635,848
745,8	630,962
746,3	628,333
746,7	619,076
747,2	607,962
747,6	601,733
748	597,562
748,5	594,648
748,9	593,448
749,3	591,648
749,8	591,133
750,2	594,648
750,6	589,333
751,1	589,476
751,5	588,962
751,9	578,562
752,4	569,705
752,8	560,79
753,3	551,876
753,7	542,962
754,1	535,105
754,6	526,59
755	523,162
755,4	523,676
755,9	525,505
756,3	520,219
756,7	522,076
757,2	519,333
757,6	521,733
758	522,848
758,5	516,105
758,9	508,076
759,3	506,705
759,8	501,819
760,2	496,733
760,6	493,162
761,1	489,99
761,5	486,276
761,9	483,676
762,4	479,076
762,8	477,276
763,3	472,476
763,7	466,705
764,1	461,305
764,6	468,59
765	467,133
765,4	465,305
765,9	461,219
766,3	462,99
766,7	459,933
767,2	457,362
767,6	448,162
768	450,99
768,5	449,133
768,9	449,676
769,3	446,076
769,8	443,933
770,2	442,248
770,6	437,819
771,1	431,333
771,5	428,905
771,9	429,676
772,4	424,476
772,8	417,819
773,2	407,876
773,7	408,962
774,1	403,819
774,5	396,448
775	388,476
775,4	391,19
775,8	396,305
776,3	397,619
776,7	391,333
777,1	389,219
777,6	391,962
778	389,39
778,4	383,419
778,9	376,962
779,3	375,505
779,7	373,048
780,2	369,933
780,6	368,19
781	364,105
781,5	362,276
781,9	359,819
782,3	360,762
782,8	361,019
783,2	360,448
783,6	352,219
784,1	351,848
784,5	345,105
784,9	336,905
785,4	331,448
785,8	330,79
786,2	329,362
786,7	332,39
787,1	327,476
787,5	330,19
788	332,676
788,4	329,533
788,8	316,762
789,3	312,162
789,7	307,362
790,1	303,848
790,6	297,848
791	296,533
791,4	295,533
791,9	299,305
792,3	300,505
792,7	296,848
793,2	293,619
793,6	296,99
794	298,533
794,5	297,619
794,9	297,076
795,3	291,248
795,8	295,105
796,2	299,476
796,6	296,362
797,1	293,305
797,5	292,39
797,9	287,733
798,4	290,333
798,8	286,076
799,2	284,162
799,7	281,762
800,1	276,848
800,5	274,762
801	274,876
801,4	271,105
801,8	268,705
802,2	268,79
802,7	266,562
803,1	264,619
803,5	264,219
804	259,133
804,4	262,419
804,8	259,019
805,3	256,676
805,7	255,733
806,1	250,619
806,6	243,333
807	245,362
807,4	236,019
807,9	237,105
808,3	230,59
808,7	230,533
809,2	232,619
809,6	230,848
810	224,99
810,4	228,333
810,9	228,048
811,3	228,533
811,7	222,676
812,2	222,39
812,6	223,848
813	229,819
813,5	224,333
813,9	218,333
814,3	213,162
814,8	209,305
815,2	206,276
815,6	208,448
816,1	200,305
816,5	197,219
816,9	193,276
817,3	191,476
817,8	195,219
818,2	193,962
818,6	188,99
819,1	187,876
819,5	186,848
819,9	183,133
820,4	184,162
820,8	177,962
821,2	171,105
821,7	172,162
822,1	173,333
822,5	173,248
822,9	176,733
823,4	176,99
823,8	179,648
824,2	182,848
824,7	178,362
825,1	178,905
825,5	172,762
826	171,676
826,4	173,448
826,8	175,362
827,3	176,39
827,7	178,933
828,1	183,048
828,5	182,762
829	181,562
829,4	175,705
829,8	173,419
830,3	164,619
830,7	161,705
831,1	152,019
831,6	154,533
832	154,476
832,4	151,19
832,8	140,105
833,3	140,39
833,7	140,905
834,1	140,248
834,6	135,933
835	135,819
835,4	137,933
835,8	142,962
836,3	148,248
836,7	140,848
837,1	141,162
837,6	140,905
838	136,076
838,4	125,276
838,9	122,448
839,3	118,076
839,7	120,905
840,1	120,505
840,6	120,876
841	123,048
841,4	130,448
841,9	133,219
842,3	138,219
842,7	137,476
843,1	134,876
843,6	135,79
844	132,39
844,4	133,533
844,9	134,99
845,3	129,448
845,7	126,476
846,2	126,562
846,6	124,105
847	125,019
847,4	121,39
847,9	119,248
848,3	121,305
848,7	122,705
849,2	124,819
849,6	123,533
850	121,048
850,4	126,476
850,9	119,019
851,3	116,305
851,7	115,648
852,2	110,162
852,6	117,19
853	117,676
853,4	113,79
853,9	119,39
854,3	119,876
854,7	117,476
855,2	124,219
855,6	114,962
856	109,933
856,4	107,419
856,9	99,276
857,3	98,733
857,7	97,219
858,2	94,676
858,6	96,533
859	98,133
859,4	91,762
859,9	93,819
860,3	90,59
860,7	91,505
861,1	85,162
861,6	88,19
862	90,819
862,4	100,219
862,9	106,79
863,3	108,819
863,7	108,19
864,1	108,676
864,6	104,962
865	105,19
865,4	96,819
865,9	94,076
866,3	87,819
866,7	85,39
867,1	84,105
867,6	77,076
868	69,905
868,4	73,419
868,8	68,305
869,3	67,962
869,7	68,876
870,1	70,99
870,6	73,79
871	106,105
871,4	103,105
871,8	105,533
872,3	106,076
872,7	101,448
873,1	95,733
873,5	102,733
874	66,933
874,4	69,248
874,8	67,305
875,3	63,648
875,7	69,99
876,1	73,848
876,5	65,533
877	69,819
877,4	66,048
877,8	62,219
878,2	67,762
878,7	64,248
879,1	65,39
879,5	66,676
879,9	64,59
880,4	63,933
880,8	65,19
881,2	64,333
881,7	62,505
882,1	59,848
882,5	56,848
882,9	61,419
883,4	64,962
883,8	64,562
884,2	62,219
884,6	59,019
885,1	60,876
885,5	66,105
885,9	66,819
886,3	63,39
886,8	63,562
887,2	64,305
887,6	67,648
888	64,419
888,5	60,333
888,9	49,705
889,3	51,419
889,8	53,79
890,2	56,619
890,6	56,39
891	53,448
891,5	50,248
891,9	56,076
892,3	53,048
892,7	47,362
893,2	42,648
893,6	39,619
894	41,105
894,4	43,819
894,9	40,133
895,3	41,705
895,7	40,505
896,1	40,533
896,6	44,248
897	46,39
897,4	49,362
897,8	50,733
898,3	51,19
898,7	57,276
899,1	55,562
899,5	51,105
900	49,99
900,4	48,362
900,8	48,076
901,2	43,648
901,7	37,533
902,1	37,076
902,5	37,99
902,9	37,705
903,4	36,905
903,8	39,533
904,2	45,305
904,6	49,019
905,1	51,905
905,5	46,333
905,9	43,562
906,3	43,419
906,8	43,99
907,2	36,448
907,6	33,848
908	31,048
908,5	38,962
908,9	41,876
909,3	38,876
909,7	37,105
910,2	36,905
910,6	40,019
911	41,905
911,4	38,733
911,9	34,162
912,3	34,533
912,7	37,762
913,1	35,819
913,6	31,59
914	29,162
914,4	31,219
914,8	30,99
915,3	27,848
915,7	27,562
916,1	28,962
916,5	33,219
916,9	33,333
917,4	31,533
917,8	33,162
918,2	35,019
918,6	31,076
919,1	36,019
919,5	34,276
919,9	38,048
920,3	36,733
920,8	34,19
921,2	38,99
921,6	40,133
922	34,59
922,5	33,619
922,9	31,79
923,3	26,733
923,7	36,162
924,2	27,076
924,6	27,105
925	29,333
925,4	30,105
925,8	27,79
926,3	35,59
926,7	24,419
927,1	31,819
927,5	32,276
928	30,248
928,4	25,19
928,8	26,39
929,2	26,419
929,7	28,562
930,1	25,619
930,5	24,905
930,9	31,59
931,3	34,99
931,8	36,133
932,2	33,876
932,6	32,733
933	35,819
933,5	32,19
933,9	25,076
934,3	21,248
934,7	16,305
935,2	15,79
935,6	16,505
936	8,305
936,4	2,619
936,8	2,505
937,3	11,162
937,7	10,133
938,1	7,476
938,5	7,619
939	13,019
939,4	18,019
939,8	18,419
940,2	15,476
940,6	22,219
941,1	22,476
941,5	22,305
941,9	21,762
942,3	23,39
942,8	25,276
943,2	21,19
943,6	20,048
944	18,905
944,4	19,905
944,9	18,562
945,3	16,162
945,7	13,219
946,1	14,705
946,6	11,076
947	18,276
947,4	20,876
947,8	22,933
948,2	23,533
948,7	21,362
949,1	21,505
949,5	18,219
949,9	15,333
950,3	8,419
950,8	5,79
951,2	11,419
951,6	9,619
952	13,59
952,5	22,676
952,9	16,448
953,3	20,305
953,7	18,962
954,1	13,476
954,6	14,419
955	6,648
955,4	2,962
955,8	8,048
956,2	7,59
956,7	10,59
957,1	8,39
957,5	11,305
957,9	12,905
958,3	8,219
958,8	9,219
959,2	8,819
959,6	10,848
960	16,562
960,5	19,619
960,9	18,79
961,3	21,219
961,7	18,305
962,1	21,076
962,6	16,848
963	9,648
963,4	0,448
963,8	-0,467
964,2	1,676
964,7	-2,01
965,1	-0,867
965,5	-3,467
965,9	-1,01
966,3	9,905
966,8	16,962
967,2	13,39
967,6	18,19
968	14,476
968,4	15,19
968,9	15,99
969,3	12,533
969,7	10,762
970,1	13,333
970,5	13,333
971	18,648
971,4	16,448
971,8	16,533
972,2	17,362
972,6	16,848
973,1	15,362
973,5	13,333
973,9	6,219
974,3	6,448
974,7	11,076
975,2	9,619
975,6	6,076
976	15,676
976,4	15,362
976,8	20,362
977,3	29,819
977,7	31,019
978,1	26,79
978,5	21,819
978,9	12,848
979,4	16,305
979,8	8,905
980,2	7,619
980,6	4,59
981	9,619
981,5	17,533
981,9	16,562
982,3	17,248
982,7	28,676
983,1	23,59
983,6	18,105
984	21,619
984,4	18,076
984,8	18,476
985,2	17,505
985,6	9,019
986,1	7,562
986,5	15,39
986,9	11,733
987,3	12,076
987,7	17,133
988,2	15,505
988,6	14,762
989	21,933
989,4	20,705
989,8	25,933
990,3	28,762
990,7	23,79
991,1	19,962
991,5	18,676
991,9	14,105
992,3	8,076
992,8	5,562
993,2	3,248
993,6	3,533
994	9,648
994,4	10,562
994,9	13,619
995,3	13,99
995,7	11,476
996,1	10,762
996,5	14,79
996,9	11,305
997,4	11,676
997,8	7,019
998,2	6,19
998,6	8,248
999	8,59
999,5	-0,695
999,9	0,419
1000,3	4,848
1000,7	-3,124
1001,1	0,248
1001,5	2,762
1002	2,048
1002,4	7,248
1002,8	7,676
1003,2	9,962
1003,6	20,305
1004	19,076
1004,5	14,276
1004,9	9,99
1005,3	13,105
1005,7	18,99
1006,1	15,962
1006,6	13,733
1007	17,705
1007,4	17,619
1007,8	20,448
1008,2	19,219
1008,6	14,705
1009,1	13,39
1009,5	14,848
1009,9	9,276
1010,3	9,533
1010,7	13,39
1011,1	9,048
1011,6	10,562
1012	10,819
1012,4	7,019
1012,8	12,962
1013,2	14,105
1013,6	16,219
1014,1	18,962
1014,5	12,876
1014,9	10,476
1015,3	10,733
1015,7	4,419
1016,1	5,59
1016,6	-0,838
1017	-1,581
1017,4	1,876
1017,8	2,133
1018,2	4,133
1018,6	7,648
1019,1	4,705
1019,5	7,133
1019,9	7,619
1020,3	3,562
1020,7	5,619
1021,1	7,819
1021,6	12,305
1022	18,248
1022,4	14,048
1022,8	21,448
1023,2	23,79
1023,6	20,648
1024,1	20,133
1024,5	14,276
1024,9	6,076
1025,3	11,19
1025,7	5,533
1026,1	6,39
1026,6	11,59
1027	6,448
1027,4	7,505
1027,8	5,305
1028,2	7,248
1028,6	5,448
1029	3,219
1029,5	-1,981
1029,9	4,619
1030,3	3,619
1030,7	3,362
1031,1	1,048
1031,5	-7,124
1032	-4,095
1032,4	-3,81
1032,8	-2,667
1033,2	-1,924
1033,6	2,762
1034	0,905
1034,4	9,019
1034,9	13,619
1035,3	9,848
1035,7	10,848
1036,1	10,333
1036,5	9,762
1036,9	7,848
1037,4	12,248
1037,8	7,105
1038,2	16,79
1038,6	16,533
1039	15,419
1039,4	25,248
1039,8	34,305
1040,3	29,305
1040,7	30,99
1041,1	30,219
1041,5	23,39
1041,9	20,676
1042,3	16,133
1042,7	10,962
1043,2	13,476
1043,6	14,419
1044	14,133
1044,4	18,933
1044,8	21,876
1045,2	22,248
1045,6	24,19
1046,1	22,848
1046,5	20,248
1046,9	18,305
1047,3	16,133
1047,7	19,876
1048,1	12,448
1048,5	12,105
1049	11,162
1049,4	10,019
1049,8	10,819
1050,2	11,933
1050,6	12,676
1051	19,59
1051,4	20,505
1051,9	25,048
1052,3	29,79
1052,7	31,962
1053,1	31,619
1053,5	31,133
1053,9	26,676
1054,3	29,848
1054,8	28,019
1055,2	23,048
1055,6	26,276
1056	23,562
1056,4	23,59
1056,8	23,648
1057,2	17,333
1057,6	16,505
1058,1	16,762
1058,5	6,505
1058,9	9,362
1059,3	7,819
1059,7	9,505
1060,1	12,333
1060,5	12,819
1061	14,048
1061,4	17,99
1061,8	24,733
1062,2	23,248
1062,6	29,305
1063	29,79
1063,4	32,448
1063,8	32,105
1064,3	33,105
1064,7	20,305
1065,1	19,79
1065,5	15,962
1065,9	9,59
1066,3	5,533
1066,7	12,19
1067,1	11,848
1067,6	17,048
1068	18,39
1068,4	18,048
1068,8	24,048
1069,2	24,619
1069,6	16,733
1070	17,048
1070,4	21,933
1070,9	26,676
1071,3	27,019
1071,7	24,533
1072,1	20,905
1072,5	24,562
1072,9	21,419
1073,3	22,276
1073,7	18,048
1074,2	14,648
1074,6	12,619
1075	15,933
1075,4	13,019
1075,8	15,248
1076,2	7,676
1076,6	4,99
1077	10,048
1077,5	13,105
1077,9	12,705
1078,3	11,219
1078,7	11,133
1079,1	17,162
1079,5	19,59
1079,9	15,962
1080,3	16,905
1080,7	16,962
1081,2	23,505
1081,6	19,59
1082	14,305
1082,4	15,019
1082,8	18,648
1083,2	20,162
1083,6	14,362
1084	15,476
1084,5	23,619
1084,9	25,848
1085,3	21,619
1085,7	17,162
1086,1	12,962
1086,5	19,562
1086,9	14,076
1087,3	8,19
1087,7	6,276
1088,2	12,105
1088,6	12,562
1089	12,819
1089,4	13,79
1089,8	14,533
1090,2	15,419
1090,6	18,105
1091	17,619
1091,4	18,648
1091,9	22,162
1092,3	22,19
1092,7	23,705
1093,1	26,648
1093,5	19,848
1093,9	14,99
1094,3	12,048
1094,7	14,448
1095,1	13,619
1095,5	11,162
1096	5,848
1096,4	16,819
1096,8	20,933
1097,2	19,619
1097,6	16,533
1098	11,39
1098,4	11,848
1098,8	18,819
1099,2	16,648
1099,6	10,248
1100,1	16,819
1100,5	16,676
1100,9	21,362
1101,3	23,333
1101,7	20,19
1102,1	13,276
1102,5	17,133
1102,9	18,133
1103,3	15,59
1103,7	16,39
1104,2	15,19
1104,6	14,19
1105	19,333
1105,4	20,905
1105,8	13,733
1106,2	13,105
1106,6	9,705
1107	6,962
1107,4	5,833
1107,8	3,093
1108,3	-0,417
