Data from Subt2_13.txt Node
Date: Thu Aug 24 16:42:58 MSK 2023
User: vat
Spectrometer: MAYP114033
Trigger mode: 0
Integration Time (sec): 1,000000E0
Scans to average: 5
Electric dark correction enabled: true
Nonlinearity correction enabled: false
Boxcar width: 3
XAxis mode: Wavelengths
Number of Pixels in Spectrum: 2068
>>>>>Begin Spectral Data<<<<<
199,4	0,533
199,9	-0,347
200,4	5,3
200,8	3,19
201,3	2,533
201,8	4,219
202,2	2,419
202,7	3,533
203,2	3,076
203,6	-4,638
204,1	0,019
204,6	2,362
205	5,505
205,5	8,162
206	9,419
206,4	13,19
206,9	20,333
207,4	16,905
207,8	13,19
208,3	9,419
208,8	5,419
209,2	4,962
209,7	4,133
210,2	6,305
210,6	6,305
211,1	5,848
211,5	1,648
212	2,99
212,5	2,676
212,9	-1,524
213,4	-6,838
213,9	-3,095
214,3	0,39
214,8	5,676
215,3	8,648
215,7	8,533
216,2	12,219
216,7	14,305
217,1	12,219
217,6	11,019
218,1	8,333
218,5	10,505
219	13,476
219,5	10,276
219,9	6,905
220,4	8,19
220,9	8,619
221,3	11,419
221,8	8,019
222,3	4,905
222,7	10,819
223,2	10,419
223,6	9,962
224,1	11,162
224,6	9,248
225	6,962
225,5	8,419
226	7,019
226,4	7,876
226,9	6,905
227,4	3,762
227,8	7,219
228,3	9,248
228,8	10,819
229,2	14,133
229,7	20,048
230,2	21,333
230,6	30,419
231,1	26,819
231,5	27,105
232	21,562
232,5	20,19
232,9	14,048
233,4	17,105
233,9	10,305
234,3	14,219
234,8	10,305
235,3	17,476
235,7	14,39
236,2	21,105
236,7	14,076
237,1	20,248
237,6	19,333
238,1	28,305
238,5	25,819
239	23,933
239,4	18,048
239,9	18,505
240,4	11,448
240,8	9,476
241,3	4,39
241,8	2,019
242,2	1,876
242,7	1,733
243,2	5,705
243,6	7,848
244,1	5,533
244,6	7,905
245	6,19
245,5	9,505
245,9	11,39
246,4	10,533
246,9	7,648
247,3	10,505
247,8	6,705
248,3	9,79
248,7	9,762
249,2	12,676
249,7	10,419
250,1	10,448
250,6	8,019
251	12,733
251,5	13,219
252	12,105
252,4	7,305
252,9	7,905
253,4	9,19
253,8	16,39
254,3	11,733
254,8	6,076
255,2	3,848
255,7	7,248
256,1	8,676
256,6	9,39
257,1	5,305
257,5	6,848
258	12,59
258,5	19,648
258,9	16,876
259,4	17,762
259,9	15,99
260,3	12,962
260,8	15,562
261,2	15,276
261,7	6,533
262,2	8,39
262,6	4,048
263,1	7,019
263,6	7,39
264	5,933
264,5	4,248
264,9	10,99
265,4	14,19
265,9	14,733
266,3	13,219
266,8	10,276
267,3	11,79
267,7	11,362
268,2	6,705
268,7	0,105
269,1	2,219
269,6	1,962
270	-0,81
270,5	-5,21
271	-0,095
271,4	-0,21
271,9	-1,895
272,4	-4,067
272,8	1,333
273,3	8,533
273,7	11,105
274,2	9,819
274,7	12,905
275,1	13,59
275,6	18,305
276,1	10,248
276,5	11,562
277	10,476
277,4	7,219
277,9	5,59
278,4	9,476
278,8	7,905
279,3	14,276
279,8	9,419
280,2	7,248
280,7	11,933
281,1	13,876
281,6	11,19
282,1	14,505
282,5	11,133
283	11,79
283,4	12,933
283,9	7,19
284,4	6,562
284,8	8,333
285,3	5,248
285,8	7,648
286,2	11,276
286,7	10,733
287,1	11,219
287,6	5,876
288,1	1,362
288,5	2,876
289	4,105
289,5	2,99
289,9	4,248
290,4	1,848
290,8	4,876
291,3	11,562
291,8	6,962
292,2	8,048
292,7	9,105
293,1	14,133
293,6	19,876
294,1	18,933
294,5	16,876
295	14,933
295,5	6,962
295,9	6,133
296,4	-1,324
296,8	-2,981
297,3	2,362
297,8	-1,467
298,2	-0,152
298,7	6,876
299,1	7,676
299,6	11,819
300,1	7,362
300,5	10,048
301	17,848
301,5	18,562
301,9	16,762
302,4	8,562
302,8	7,019
303,3	9,59
303,8	5,819
304,2	3,676
304,7	3,705
305,1	3,219
305,6	7,105
306,1	0,476
306,5	6,133
307	5,219
307,4	-0,438
307,9	-1,124
308,4	2,019
308,8	7,019
309,3	18,905
309,8	17,105
310,2	17,19
310,7	19,99
311,1	28,362
311,6	27,648
312,1	31,19
312,5	26,848
313	25,705
313,4	23,476
313,9	24,733
314,4	18,819
314,8	18,762
315,3	13,248
315,7	12,219
316,2	8,619
316,7	13,076
317,1	12,248
317,6	12,762
318	11,248
318,5	12,133
319	19,133
319,4	20,219
319,9	19,019
320,3	17,99
320,8	20,305
321,3	18,733
321,7	22,99
322,2	15,333
322,6	14,762
323,1	18,933
323,6	22,419
324	19,562
324,5	17,505
324,9	10,276
325,4	13,39
325,9	13,848
326,3	12,905
326,8	13,99
327,2	18,676
327,7	22,933
328,2	27,705
328,6	24,905
329,1	30,619
329,5	27,019
330	28,19
330,5	27,705
330,9	21,219
331,4	18,276
331,8	17,39
332,3	9,076
332,8	9,305
333,2	8,448
333,7	4,619
334,1	10,476
334,6	7,276
335,1	9,705
335,5	11,076
336	13,733
336,4	11,048
336,9	10,962
337,4	15,59
337,8	15,99
338,3	14,619
338,7	20,276
339,2	18,19
339,7	19,79
340,1	19,276
340,6	13,448
341	21,333
341,5	23,448
342	27,162
342,4	25,505
342,9	22,676
343,3	22,162
343,8	24,762
344,2	23,019
344,7	17,105
345,2	13,962
345,6	12,19
346,1	14,476
346,5	21,933
347	17,533
347,5	17,905
347,9	23,419
348,4	15,905
348,8	20,99
349,3	23,848
349,8	22,333
350,2	27,648
350,7	29,448
351,1	31,39
351,6	40,733
352	36,505
352,5	37,19
353	35,962
353,4	38,19
353,9	40,533
354,3	44,905
354,8	49,362
355,3	62,505
355,7	74,905
356,2	90,533
356,6	100,505
357,1	114,59
357,5	132,99
358	151,276
358,5	172,533
358,9	194,676
359,4	216,705
359,8	249,305
360,3	284,505
360,8	326,076
361,2	368,048
361,7	421,562
362,1	472,905
362,6	533,19
363	599,533
363,5	668,419
364	740,333
364,4	818,305
364,9	889,248
365,3	962,933
365,8	1029,648
366,3	1093,219
366,7	1153,276
367,2	1201,219
367,6	1238,962
368,1	1267,476
368,5	1288,876
369	1297,505
369,5	1296,648
369,9	1284,333
370,4	1262,105
370,8	1238,105
371,3	1205,505
371,7	1161,133
372,2	1120,533
372,7	1066,648
373,1	1011,562
373,6	951,476
374	885,676
374,5	823,305
374,9	767,362
375,4	710,362
375,9	655,762
376,3	599,333
376,8	555,99
377,2	516,819
377,7	478,962
378,2	440,733
378,6	401,19
379,1	373,133
379,5	345,076
380	314,819
380,4	283,733
380,9	256,448
381,4	234,562
381,8	222,619
382,3	199,905
382,7	188,133
383,2	177,505
383,6	168,448
384,1	155,39
384,6	146,619
385	133,476
385,5	132,39
385,9	119,048
386,4	110,219
386,8	106,876
387,3	103,648
387,7	93,019
388,2	86,419
388,7	77,019
389,1	77,648
389,6	71,105
390	62,876
390,5	57,848
390,9	55,248
391,4	54,276
391,9	47,648
392,3	42,619
392,8	41,962
393,2	40,248
393,7	35,962
394,1	35,648
394,6	32,162
395,1	37,819
395,5	38,048
396	34,133
396,4	31,448
396,9	34,219
397,3	31,219
397,8	35,562
398,2	33,362
398,7	29,362
399,2	35,419
399,6	36,933
400,1	30,848
400,5	35,133
401	29,905
401,4	27,876
401,9	33,19
402,4	27,762
402,8	22,933
403,3	28,905
403,7	28,733
404,2	26,562
404,6	21,933
405,1	14,99
405,5	17,619
406	22,133
406,5	17,848
406,9	19,048
407,4	23,362
407,8	26,333
408,3	33,933
408,7	31,333
409,2	36,448
409,6	39,162
410,1	41,933
410,6	42,705
411	48,848
411,5	50,99
411,9	57,333
412,4	54,533
412,8	53,819
413,3	53,79
413,7	53,676
414,2	54,99
414,7	53,619
415,1	53,533
415,6	57,59
416	65,876
416,5	68,219
416,9	76,648
417,4	74,962
417,8	79,076
418,3	82,419
418,8	80,962
419,2	81,762
419,7	80,39
420,1	77,648
420,6	83,705
421	84,448
421,5	86,733
421,9	87,276
422,4	86,419
422,8	85,448
423,3	86,562
423,8	76,362
424,2	76,99
424,7	80,105
425,1	84,076
425,6	81,848
426	80,905
426,5	75,305
426,9	82,362
427,4	75,962
427,9	71,905
428,3	72,676
428,8	72,505
429,2	80,019
429,7	85,933
430,1	86,648
430,6	93,505
431	96,248
431,5	93,819
431,9	92,876
432,4	91,419
432,8	88,819
433,3	92,105
433,8	91,076
434,2	92,048
434,7	99,19
435,1	106,362
435,6	101,562
436	106,333
436,5	104,648
436,9	108,019
437,4	110,448
437,8	111,162
438,3	121,962
438,8	130,39
439,2	138,219
439,7	144,362
440,1	144,219
440,6	147,59
441	150,819
441,5	147,362
441,9	157,705
442,4	163,59
442,8	179,59
443,3	194,476
443,7	202,876
444,2	217,819
444,7	230,848
445,1	239,848
445,6	247,79
446	249,733
446,5	255,419
446,9	264,219
447,4	270,19
447,8	274,819
448,3	281,219
448,7	290,362
449,2	305,362
449,6	317,705
450,1	336,619
450,6	345,933
451	357,848
451,5	370,162
451,9	384,933
452,4	396,39
452,8	415,819
453,3	427,933
453,7	445,619
454,2	466,448
454,6	482,133
455,1	496,219
455,5	511,162
456	524,819
456,4	544,476
456,9	558,619
457,3	579,476
457,8	602,019
458,3	614,305
458,7	631,562
459,2	655,133
459,6	666,562
460,1	689,048
460,5	706,048
461	727,105
461,4	754,133
461,9	774,99
462,3	792,305
462,8	822,533
463,2	846,59
463,7	869,762
464,1	895,362
464,6	922,905
465	948,59
465,5	972,419
466	995,705
466,4	1016,762
466,9	1044,99
467,3	1055,562
467,8	1078,333
468,2	1098,933
468,7	1125,248
469,1	1145,305
469,6	1168,476
470	1186,362
470,5	1221,59
470,9	1244,162
471,4	1273,905
471,8	1302,848
472,3	1326,676
472,7	1358,819
473,2	1385,59
473,6	1418,276
474,1	1442,076
474,5	1468,619
475	1490,59
475,4	1520,448
475,9	1539,533
476,4	1563,076
476,8	1578,99
477,3	1606,762
477,7	1634,076
478,2	1657,419
478,6	1675,933
479,1	1705,333
479,5	1733,648
480	1752,962
480,4	1775,19
480,9	1788,933
481,3	1807,105
481,8	1828,933
482,2	1852,99
482,7	1862,648
483,1	1882,619
483,6	1900,876
484	1915,962
484,5	1935,933
484,9	1948,819
485,4	1958,362
485,8	1981,276
486,3	1998,476
486,7	2018,962
487,2	2044,105
487,6	2060,305
488,1	2076,819
488,5	2085,505
489	2104,676
489,4	2123,219
489,9	2134,905
490,4	2149,79
490,8	2167,79
491,3	2182,19
491,7	2201,762
492,2	2211,79
492,6	2219,905
493,1	2225,333
493,5	2230,419
494	2232,362
494,4	2240,933
494,9	2252,476
495,3	2255,562
495,8	2261,419
496,2	2268,562
496,7	2277,648
497,1	2288,848
497,6	2298,105
498	2304,276
498,5	2315,162
498,9	2321,419
499,4	2327,705
499,8	2335,219
500,3	2338,419
500,7	2344,648
501,2	2345,105
501,6	2352,076
502,1	2352,962
502,5	2357,419
503	2359,133
503,4	2363,79
503,9	2368,19
504,3	2374,048
504,8	2373,676
505,2	2385,819
505,7	2397,105
506,1	2399,848
506,6	2405,248
507	2410,962
507,5	2411,105
507,9	2413,79
508,4	2410,733
508,8	2404,505
509,3	2410,105
509,7	2410,762
510,2	2410,305
510,6	2414,105
511,1	2416,876
511,5	2422,39
512	2428,876
512,4	2424,105
512,9	2419,533
513,3	2419,048
513,8	2423,076
514,2	2426,448
514,7	2421,648
515,1	2422,448
515,6	2434,905
516	2431,762
516,5	2430,933
516,9	2428,905
517,4	2426,619
517,8	2430,562
518,3	2432,105
518,7	2419,733
519,2	2436,505
519,6	2441,762
520,1	2440,476
520,5	2443,733
521	2440,762
521,4	2436,019
521,9	2440,505
522,3	2432,362
522,8	2431,19
523,2	2428,905
523,7	2429,819
524,1	2436,733
524,6	2439,362
525	2440,733
525,5	2445,733
525,9	2451,133
526,4	2461,39
526,8	2453,448
527,3	2454,705
527,7	2466,076
528,2	2468,962
528,6	2470,162
529,1	2469,819
529,5	2472,99
530	2486,39
530,4	2488,476
530,9	2483,962
531,3	2491,676
531,8	2499,248
532,2	2502,219
532,6	2498,39
533,1	2492,876
533,5	2497,248
534	2499,162
534,4	2498,39
534,9	2489,305
535,3	2491,362
535,8	2492,933
536,2	2498,733
536,7	2502,648
537,1	2505,619
537,6	2508,848
538	2516,876
538,5	2519,648
538,9	2523,99
539,4	2533,19
539,8	2535,333
540,3	2541,248
540,7	2545,962
541,2	2551,048
541,6	2552,848
542,1	2560,79
542,5	2561,876
543	2565,133
543,4	2564,848
543,9	2565,905
544,3	2569,219
544,8	2572,933
545,2	2574,448
545,7	2573,162
546,1	2577,105
546,5	2580,019
547	2579,562
547,4	2585,133
547,9	2595,905
548,3	2598,133
548,8	2611,019
549,2	2608,248
549,7	2611,419
550,1	2616,562
550,6	2625,448
551	2631,362
551,5	2635,676
551,9	2642,476
552,4	2653,962
552,8	2657,248
553,3	2664,762
553,7	2659,962
554,2	2654,648
554,6	2656,305
555,1	2653,505
555,5	2654,419
555,9	2657,933
556,4	2661,905
556,8	2664,762
557,3	2660,562
557,7	2667,933
558,2	2667,533
558,6	2671,59
559,1	2682,448
559,5	2685,333
560	2692,962
560,4	2694,819
560,9	2693,962
561,3	2701,105
561,8	2701,848
562,2	2700,419
562,7	2698,762
563,1	2696,676
563,6	2700,076
564	2702,905
564,4	2692,333
564,9	2690,505
565,3	2690,733
565,8	2690,562
566,2	2692,162
566,7	2699,962
567,1	2704,19
567,6	2711,676
568	2712,248
568,5	2714,276
568,9	2716,419
569,4	2721,276
569,8	2723,733
570,3	2719,762
570,7	2720,705
571,1	2723,962
571,6	2719,019
572	2720,276
572,5	2718,848
572,9	2719,305
573,4	2719,733
573,8	2719,105
574,3	2722,762
574,7	2730,305
575,2	2724,933
575,6	2723,676
576,1	2718,562
576,5	2723,676
576,9	2720,448
577,4	2710,019
577,8	2702,905
578,3	2704,133
578,7	2701,048
579,2	2698,248
579,6	2687,705
580,1	2692,333
580,5	2695,619
581	2691,99
581,4	2689,962
581,9	2687,705
582,3	2682,762
582,7	2678,962
583,2	2668,19
583,6	2659,419
584,1	2661,99
584,5	2653,419
585	2645,419
585,4	2641,533
585,9	2647,476
586,3	2644,333
586,8	2647,533
587,2	2636,133
587,6	2635,905
588,1	2633,419
588,5	2631,905
589	2620,962
589,4	2613,248
589,9	2600,59
590,3	2601,048
590,8	2596,219
591,2	2587,133
591,7	2579,848
592,1	2575,19
592,5	2578,762
593	2578,505
593,4	2572,619
593,9	2565,905
594,3	2567,962
594,8	2566,848
595,2	2565,248
595,7	2557,162
596,1	2549,19
596,6	2543,019
597	2547,79
597,4	2539,333
597,9	2536,848
598,3	2533,076
598,8	2526,733
599,2	2523,305
599,7	2516,533
600,1	2504,905
600,6	2495,276
601	2491,79
601,4	2476,876
601,9	2471,819
602,3	2464,476
602,8	2462,048
603,2	2460,505
603,7	2459,933
604,1	2448,133
604,6	2439,676
605	2430,705
605,4	2427,305
605,9	2417,276
606,3	2406,533
606,8	2397,048
607,2	2390,19
607,7	2389,505
608,1	2390,99
608,6	2385,876
609	2383,619
609,4	2377,133
609,9	2366,219
610,3	2360,619
610,8	2350,248
611,2	2330,848
611,7	2323,762
612,1	2314,962
612,6	2302,905
613	2302,676
613,4	2289,105
613,9	2280,676
614,3	2278,448
614,8	2264,619
615,2	2254,962
615,7	2246,705
616,1	2233,533
616,6	2226,619
617	2225,276
617,4	2213,333
617,9	2207,105
618,3	2197,533
618,8	2186,876
619,2	2185,933
619,7	2176,99
620,1	2164,848
620,5	2158,133
621	2149,362
621,4	2141,79
621,9	2133,676
622,3	2118,648
622,8	2104,248
623,2	2091,819
623,6	2081,648
624,1	2066,819
624,5	2058,648
625	2054,79
625,4	2042,19
625,9	2041,448
626,3	2034,248
626,8	2031,505
627,2	2028,076
627,6	2018,305
628,1	2004,133
628,5	1999,99
629	1984,248
629,4	1972,876
629,9	1956,448
630,3	1945,076
630,7	1933,39
631,2	1924,962
631,6	1908,362
632,1	1905,362
632,5	1898,476
633	1893,705
633,4	1884,933
633,8	1873,048
634,3	1860,619
634,7	1849,39
635,2	1837,733
635,6	1824,848
636,1	1808,933
636,5	1796,848
636,9	1792,448
637,4	1788,248
637,8	1780,876
638,3	1768,99
638,7	1763,676
639,2	1754,105
639,6	1748,276
640	1733,219
640,5	1726,99
640,9	1721,99
641,4	1715,076
641,8	1706,419
642,2	1708,333
642,7	1702,162
643,1	1697,248
643,6	1687,248
644	1679,419
644,5	1679,933
644,9	1671,962
645,3	1659,59
645,8	1643,619
646,2	1632,133
646,7	1621,019
647,1	1609,362
647,6	1592,848
648	1582,39
648,4	1571,248
648,9	1573,79
649,3	1566,448
649,8	1563,99
650,2	1561,848
650,6	1552,762
651,1	1545,019
651,5	1537,019
652	1518,905
652,4	1509,648
652,9	1497,705
653,3	1481,476
653,7	1474,248
654,2	1466,562
654,6	1454,105
655,1	1457,305
655,5	1456,619
655,9	1447,133
656,4	1447,533
656,8	1442,076
657,3	1432,333
657,7	1423,876
658,2	1411,362
658,6	1396,79
659	1390,333
659,5	1381,79
659,9	1375,076
660,4	1366,705
660,8	1357,619
661,2	1347,79
661,7	1333,59
662,1	1326,419
662,6	1313,476
663	1304,79
663,4	1301,533
663,9	1303,562
664,3	1297,133
664,8	1298,019
665,2	1285,419
665,6	1278,59
666,1	1265,505
666,5	1258,876
667	1248,648
667,4	1237,305
667,9	1228,162
668,3	1221,248
668,7	1215,505
669,2	1206,733
669,6	1199,705
670,1	1193,733
670,5	1186,476
670,9	1184,905
671,4	1177,933
671,8	1167,476
672,3	1164,648
672,7	1151,733
673,1	1141,019
673,6	1136,276
674	1122,762
674,5	1118,676
674,9	1117,162
675,3	1111,276
675,8	1107,648
676,2	1098,562
676,7	1088,962
677,1	1080,419
677,5	1075,905
678	1071,533
678,4	1062,219
678,9	1055,905
679,3	1051,848
679,7	1048,019
680,2	1046,705
680,6	1033,019
681,1	1019,505
681,5	1013,933
681,9	996,305
682,4	986,819
682,8	972,905
683,3	967,79
683,7	966,762
684,1	965,219
684,6	962,533
685	964,819
685,5	961,648
685,9	961,105
686,3	945,99
686,8	933,39
687,2	924,419
687,7	914,762
688,1	904,705
688,5	893,676
689	888,59
689,4	888,733
689,9	885,448
690,3	874,79
690,7	865,305
691,2	871,19
691,6	875,219
692	868,762
692,5	863,19
692,9	859,333
693,4	858,99
693,8	855,762
694,2	835,619
694,7	826,99
695,1	818,19
695,6	812,39
696	810,19
696,4	799,105
696,9	790,333
697,3	785,19
697,8	778,105
698,2	779,219
698,6	772,219
699,1	767,219
699,5	765,619
699,9	766,705
700,4	766,705
700,8	763,105
701,3	757,505
701,7	751,819
702,1	747,162
702,6	740,876
703	734,076
703,5	731,019
703,9	722,962
704,3	715,019
704,8	710,705
705,2	703,276
705,6	706,162
706,1	695,676
706,5	688,533
707	684,419
707,4	681,19
707,8	679,933
708,3	668,59
708,7	663,019
709,2	667,99
709,6	663,876
710	659,162
710,5	658,79
710,9	650,19
711,3	644,39
711,8	634,248
712,2	629,105
712,7	628,305
713,1	627,619
713,5	618,705
714	613,876
714,4	617,276
714,8	609,876
715,3	609,105
715,7	606,448
716,2	601,248
716,6	598,162
717	601,533
717,5	593,105
717,9	594,819
718,3	584,248
718,8	573,248
719,2	571,019
719,7	566,562
720,1	557,105
720,5	557,333
721	553,19
721,4	549,362
721,8	548,39
722,3	538,59
722,7	535,905
723,2	532,276
723,6	521,562
724	517,676
724,5	516,933
724,9	507,39
725,3	506,019
725,8	501,79
726,2	492,505
726,7	497,276
727,1	486,105
727,5	479,648
728	482,962
728,4	480,019
728,8	472,819
729,3	473,276
729,7	468,305
730,1	477,19
730,6	474,019
731	470,333
731,5	464,648
731,9	466,219
732,3	459,676
732,8	458,562
733,2	446,705
733,6	445,676
734,1	441,333
734,5	443,819
734,9	435,505
735,4	442,476
735,8	437,648
736,3	439,648
736,7	434,705
737,1	434,105
737,6	431,219
738	437,39
738,4	429,733
738,9	427,448
739,3	422,505
739,7	423,562
740,2	422,19
740,6	420,39
741,1	409,419
741,5	408,933
741,9	406,733
742,4	408,676
742,8	402,105
743,2	399,562
743,7	397,105
744,1	402,705
744,5	399,533
745	395,248
745,4	390,562
745,8	389,019
746,3	383,333
746,7	377,962
747,2	366,305
747,6	361,733
748	359,59
748,5	349,533
748,9	355,99
749,3	355,076
749,8	350,562
750,2	360,733
750,6	357,39
751,1	356,362
751,5	359,362
751,9	347,333
752,4	342,99
752,8	336,648
753,3	325,619
753,7	325,705
754,1	322,076
754,6	322,962
755	321,419
755,4	321,676
755,9	327,819
756,3	327,048
756,7	326,305
757,2	324,133
757,6	322,705
758	323,448
758,5	319,705
758,9	315,619
759,3	306,99
759,8	302,305
760,2	298,79
760,6	294,733
761,1	295,733
761,5	297,162
761,9	294,362
762,4	300,39
762,8	299,162
763,3	298,19
763,7	296,79
764,1	290,619
764,6	295,79
765	293,99
765,4	292,19
765,9	290,419
766,3	290,419
766,7	285,933
767,2	285,505
767,6	278,048
768	274,476
768,5	272,705
768,9	275,619
769,3	271,819
769,8	274,333
770,2	275,248
770,6	271,562
771,1	271,533
771,5	269,305
771,9	263,505
772,4	262,105
772,8	255,705
773,2	250,619
773,7	247,333
774,1	243,048
774,5	238,076
775	237,99
775,4	242,876
775,8	246,533
776,3	238,59
776,7	238,59
777,1	239,562
777,6	240,619
778	236,905
778,4	229,533
778,9	224,39
779,3	227,905
779,7	225,562
780,2	225,648
780,6	227,905
781	223,848
781,5	221,505
781,9	218,248
782,3	216,619
782,8	216,19
783,2	214,048
783,6	207,333
784,1	209,705
784,5	206,362
784,9	206,848
785,4	203,79
785,8	200,362
786,2	201,219
786,7	204,219
787,1	202,99
787,5	207,99
788	209,962
788,4	207,219
788,8	203,219
789,3	198,562
789,7	189,39
790,1	191,048
790,6	184,048
791	174,848
791,4	171,962
791,9	174,105
792,3	173,248
792,7	174,562
793,2	167,133
793,6	169,133
794	174,99
794,5	179,276
794,9	174,905
795,3	172,619
795,8	176,133
796,2	178,79
796,6	181,505
797,1	178,133
797,5	174,59
797,9	173,59
798,4	173,533
798,8	169,79
799,2	165,962
799,7	162,99
800,1	159,162
800,5	158,333
801	160,562
801,4	157,99
801,8	161,276
802,2	165,39
802,7	158,876
803,1	159,676
803,5	160,933
804	158,848
804,4	159,905
804,8	152,219
805,3	144,105
805,7	146,819
806,1	142,533
806,6	138,048
807	137,79
807,4	134,019
807,9	139,762
808,3	142,962
808,7	143,79
809,2	150,905
809,6	150,048
810	145,676
810,4	149,876
810,9	142,133
811,3	137,848
811,7	129,476
812,2	121,419
812,6	120,105
813	122,676
813,5	114,876
813,9	116,248
814,3	117,248
814,8	119,219
815,2	120,476
815,6	124,676
816,1	122,019
816,5	126,676
816,9	124,848
817,3	125,99
817,8	124,848
818,2	124,019
818,6	117,59
819,1	118,762
819,5	117,448
819,9	114,99
820,4	112,048
820,8	109,248
821,2	107,333
821,7	110,876
822,1	105,476
822,5	101,762
822,9	100,076
823,4	97,876
823,8	102,533
824,2	107,39
824,7	108,933
825,1	110,248
825,5	105,105
826	103,733
826,4	108,676
826,8	106,648
827,3	103,19
827,7	101,076
828,1	103,619
828,5	109,676
829	107,648
829,4	105,505
829,8	106,105
830,3	102,076
830,7	97,39
831,1	93,476
831,6	90,019
832	94,819
832,4	90,419
832,8	86,676
833,3	84,705
833,7	87,705
834,1	88,99
834,6	93,676
835	90,733
835,4	95,162
835,8	95,705
836,3	98,219
836,7	94,619
837,1	89,933
837,6	82,619
838	82,676
838,4	70,362
838,9	67,733
839,3	65,762
839,7	64,448
840,1	65,619
840,6	61,419
841	60,333
841,4	65,819
841,9	64,133
842,3	67,105
842,7	69,276
843,1	68,619
843,6	75,733
844	75,619
844,4	79,59
844,9	82,162
845,3	78,762
845,7	75,133
846,2	78,648
846,6	75,962
847	76,105
847,4	71,562
847,9	72,19
848,3	77,333
848,7	80,648
849,2	82,105
849,6	82,305
850	83,819
850,4	87,19
850,9	84,59
851,3	72,99
851,7	70,505
852,2	63,762
852,6	63,876
853	59,019
853,4	54,705
853,9	56,219
854,3	64,962
854,7	63,19
855,2	66,305
855,6	63,619
856	64,876
856,4	64,762
856,9	63,019
857,3	60,848
857,7	61,733
858,2	60,79
858,6	64,933
859	66,876
859,4	63,648
859,9	62,533
860,3	59,162
860,7	60,305
861,1	58,848
861,6	59,905
862	58,019
862,4	66,876
862,9	72,933
863,3	74,99
863,7	73,105
864,1	75,79
864,6	73,133
865	74,105
865,4	64,819
865,9	57,019
866,3	54,333
866,7	56,448
867,1	54,476
867,6	45,933
868	37,419
868,4	40,619
868,8	41,876
869,3	43,505
869,7	36,048
870,1	37,362
870,6	41,362
871	125,162
871,4	121,876
871,8	122,705
872,3	121,676
872,7	122,248
873,1	117,762
873,5	123,79
874	43,419
874,4	48,933
874,8	47,19
875,3	42,39
875,7	51,79
876,1	51,248
876,5	49,648
877	48,448
877,4	44,305
877,8	38,105
878,2	46,048
878,7	40,219
879,1	42,648
879,5	38,933
879,9	37,819
880,4	36,733
880,8	38,305
881,2	32,962
881,7	28,105
882,1	29,59
882,5	28,905
882,9	29,876
883,4	32,99
883,8	38,562
884,2	40,59
884,6	37,762
885,1	37,333
885,5	41,162
885,9	47,076
886,3	46,076
886,8	44,99
887,2	47,505
887,6	52,648
888	51,819
888,5	54,533
888,9	46,105
889,3	44,619
889,8	47,476
890,2	46,59
890,6	47,705
891	40,019
891,5	36,419
891,9	42,39
892,3	41,705
892,7	34,676
893,2	31,162
893,6	31,105
894	31,762
894,4	30,819
894,9	30,562
895,3	34,39
895,7	34,505
896,1	33,962
896,6	35,076
897	39,505
897,4	32,19
897,8	27,962
898,3	30,076
898,7	32,905
899,1	35,79
899,5	32,362
900	32,99
900,4	38,305
900,8	43,048
901,2	35,705
901,7	27,562
902,1	22,705
902,5	27,219
902,9	26,048
903,4	28,162
903,8	27,076
904,2	29,962
904,6	36,219
905,1	40,476
905,5	35,076
905,9	34,248
906,3	31,305
906,8	29,676
907,2	25,105
907,6	27,448
908	25,333
908,5	25,876
908,9	24,133
909,3	23,276
909,7	24,533
910,2	25,505
910,6	22,476
911	21,933
911,4	23,648
911,9	20,19
912,3	20,305
912,7	20,648
913,1	20,848
913,6	22,905
914	18,048
914,4	17,762
914,8	21,676
915,3	20,019
915,7	17,533
916,1	16,105
916,5	17,962
916,9	23,705
917,4	23,59
917,8	21,819
918,2	23,476
918,6	27,562
919,1	31,333
919,5	28,933
919,9	27,733
920,3	33,305
920,8	32,419
921,2	32,733
921,6	24,762
922	22,048
922,5	19,648
922,9	21,505
923,3	13,876
923,7	24,905
924,2	24,933
924,6	30,676
925	28,733
925,4	28,448
925,8	25,59
926,3	26,762
926,7	16,362
927,1	22,133
927,5	20,99
928	23,448
928,4	20,59
928,8	21,019
929,2	21,19
929,7	19,676
930,1	9,59
930,5	12,733
930,9	14,733
931,3	17,59
931,8	23,362
932,2	24,19
932,6	27,162
933	30,362
933,5	25,762
933,9	21,876
934,3	22,019
934,7	17,39
935,2	15,733
935,6	18,933
936	17,476
936,4	18,162
936,8	18,848
937,3	23,876
937,7	22,648
938,1	22,248
938,5	15,962
939	17,648
939,4	15,219
939,8	13,962
940,2	12,676
940,6	15,933
941,1	15,333
941,5	16,705
941,9	18,533
942,3	23,019
942,8	23,333
943,2	22,848
943,6	20,162
944	18,39
944,4	22,533
944,9	23,19
945,3	20,848
945,7	21,476
946,1	17,448
946,6	13,962
947	18,476
947,4	17,59
947,8	17,019
948,2	17,676
948,7	10,762
949,1	11,505
949,5	9,076
949,9	7,619
950,3	1,905
950,8	1,705
951,2	5,448
951,6	13,533
952	20,248
952,5	22,048
952,9	18,448
953,3	22,419
953,7	19,476
954,1	12,848
954,6	14,305
955	8,876
955,4	15,705
955,8	19,648
956,2	19,448
956,7	18,619
957,1	19,048
957,5	14,419
957,9	12,79
958,3	9,476
958,8	10,248
959,2	9,419
959,6	8,248
960	8,962
960,5	12,99
960,9	15,448
961,3	9,99
961,7	6,39
962,1	9,362
962,6	6,448
963	3,476
963,4	-2,038
963,8	-6,324
964,2	-1,01
964,7	2,99
965,1	6,162
965,5	11,762
965,9	10,648
966,3	15,133
966,8	19,819
967,2	19,333
967,6	18,619
968	15,676
968,4	15,648
968,9	23,819
969,3	25,505
969,7	24,333
970,1	27,362
970,5	20,448
971	19,962
971,4	19,019
971,8	14,848
972,2	13,276
972,6	12,848
973,1	7,305
973,5	10,962
973,9	7,333
974,3	5,962
974,7	10,705
975,2	7,705
975,6	6,848
976	16,819
976,4	17,419
976,8	17,819
977,3	23,162
977,7	20,676
978,1	22,562
978,5	21,533
978,9	12,962
979,4	11,39
979,8	11,105
980,2	8,762
980,6	9,162
981	12,248
981,5	12,59
981,9	15,619
982,3	16,362
982,7	20,848
983,1	18,076
983,6	15,105
984	13,676
984,4	9,219
984,8	3,848
985,2	9,133
985,6	4,276
986,1	3,705
986,5	3,59
986,9	3,419
987,3	9,419
987,7	13,305
988,2	13,019
988,6	10,99
989	12,419
989,4	12,105
989,8	15,562
990,3	17,448
990,7	17,305
991,1	9,933
991,5	13,848
991,9	14,79
992,3	11,819
992,8	9,648
993,2	9,562
993,6	8,99
994	8,59
994,4	6,562
994,9	5,733
995,3	6,533
995,7	2,048
996,1	-2,21
996,5	0,819
996,9	3,819
997,4	1,362
997,8	3,162
998,2	3,648
998,6	6,476
999	6,019
999,5	-1,981
999,9	-3,124
1000,3	1,562
1000,7	-5,924
1001,1	-5,552
1001,5	-7,152
1002	-11,267
1002,4	-4,152
1002,8	0,076
1003,2	5,79
1003,6	14,619
1004	15,848
1004,5	12,448
1004,9	18,676
1005,3	20,19
1005,7	18,648
1006,1	10,133
1006,6	5,905
1007	6,562
1007,4	8,762
1007,8	8,562
1008,2	5,133
1008,6	3,848
1009,1	5,105
1009,5	7,933
1009,9	5,19
1010,3	5,133
1010,7	4,048
1011,1	1,733
1011,6	3,276
1012	6,248
1012,4	0,105
1012,8	4,705
1013,2	13,562
1013,6	17,619
1014,1	21,933
1014,5	18,162
1014,9	17,39
1015,3	20,876
1015,7	16,676
1016,1	13,276
1016,6	10,448
1017	12,562
1017,4	18,333
1017,8	17,705
1018,2	14,876
1018,6	17,705
1019,1	16,79
1019,5	20,562
1019,9	18,419
1020,3	11,705
1020,7	7,248
1021,1	15,105
1021,6	18,362
1022	12,876
1022,4	7,676
1022,8	8,219
1023,2	15,019
1023,6	18,333
1024,1	15,648
1024,5	13,533
1024,9	16,733
1025,3	16,905
1025,7	12,676
1026,1	11,39
1026,6	14,048
1027	11,962
1027,4	11,819
1027,8	16,648
1028,2	18,333
1028,6	16,419
1029	18,448
1029,5	19,105
1029,9	21,448
1030,3	17,019
1030,7	7,39
1031,1	11,962
1031,5	14,276
1032	13,619
1032,4	4,676
1032,8	1,962
1033,2	5,419
1033,6	11,848
1034	2,79
1034,4	1,905
1034,9	-2,381
1035,3	2,105
1035,7	5,362
1036,1	7,505
1036,5	3,076
1036,9	4,362
1037,4	6,419
1037,8	5,99
1038,2	14,333
1038,6	11,733
1039	8,362
1039,4	18,533
1039,8	23,133
1040,3	21,448
1040,7	23,59
1041,1	14,105
1041,5	7,333
1041,9	8,076
1042,3	6,448
1042,7	1,362
1043,2	6,876
1043,6	12,248
1044	15,362
1044,4	21,848
1044,8	24,733
1045,2	19,905
1045,6	22,848
1046,1	18,076
1046,5	14,39
1046,9	16,248
1047,3	16,562
1047,7	18,19
1048,1	13,219
1048,5	9,419
1049	12,733
1049,4	10,505
1049,8	13,619
1050,2	15,99
1050,6	12,39
1051	19,819
1051,4	26,733
1051,9	28,019
1052,3	28,505
1052,7	25,476
1053,1	22,733
1053,5	20,533
1053,9	12,876
1054,3	12,99
1054,8	11,219
1055,2	11,248
1055,6	12,162
1056	12,733
1056,4	12,248
1056,8	14,133
1057,2	8,419
1057,6	10,162
1058,1	8,248
1058,5	3,99
1058,9	9,79
1059,3	8,59
1059,7	13,19
1060,1	16,105
1060,5	15,248
1061	23,248
1061,4	23,79
1061,8	20,59
1062,2	28,39
1062,6	31,819
1063	29,733
1063,4	32,876
1063,8	25,648
1064,3	29,676
1064,7	25,79
1065,1	23,333
1065,5	19,105
1065,9	20,019
1066,3	11,476
1066,7	15,333
1067,1	13,705
1067,6	16,39
1068	8,648
1068,4	6,619
1068,8	10,676
1069,2	19,133
1069,6	13,733
1070	18,248
1070,4	24,019
1070,9	30,733
1071,3	32,276
1071,7	25,619
1072,1	23,762
1072,5	28,59
1072,9	22,162
1073,3	19,505
1073,7	22,905
1074,2	23,79
1074,6	28,105
1075	27,962
1075,4	20,59
1075,8	23,59
1076,2	17,505
1076,6	11,419
1077	12,762
1077,5	14,305
1077,9	9,905
1078,3	13,733
1078,7	10,933
1079,1	16,248
1079,5	18,362
1079,9	15,048
1080,3	10,933
1080,7	11,505
1081,2	16,676
1081,6	12,162
1082	9,59
1082,4	13,59
1082,8	12,505
1083,2	17,648
1083,6	17,162
1084	17,448
1084,5	23,162
1084,9	21,848
1085,3	15,219
1085,7	15,448
1086,1	9,59
1086,5	13,676
1086,9	9,848
1087,3	7,99
1087,7	6,59
1088,2	7,648
1088,6	8,448
1089	9,933
1089,4	7,762
1089,8	14,533
1090,2	15,533
1090,6	21,048
1091	21,562
1091,4	21,905
1091,9	26,476
1092,3	29,305
1092,7	24,276
1093,1	25,248
1093,5	19,39
1093,9	23,333
1094,3	24,648
1094,7	20,19
1095,1	16,648
1095,5	14,048
1096	10,648
1096,4	18,105
1096,8	12,733
1097,2	10,848
1097,6	13,505
1098	9,676
1098,4	11,59
1098,8	14,419
1099,2	11,048
1099,6	10,019
1100,1	14,19
1100,5	12,733
1100,9	14,648
1101,3	14,133
1101,7	12,476
1102,1	9,19
1102,5	12,133
1102,9	10,905
1103,3	10,39
1103,7	14,448
1104,2	11,448
1104,6	10,79
1105	10,933
1105,4	11,733
1105,8	7,048
1106,2	5,762
1106,6	2,276
1107	2,105
1107,4	2,3
1107,8	2,573
1108,3	-0,417
