Data from Subt2_18.txt Node
Date: Thu Aug 24 17:31:48 MSK 2023
User: vat
Spectrometer: MAYP114033
Trigger mode: 0
Integration Time (sec): 1,000000E0
Scans to average: 5
Electric dark correction enabled: true
Nonlinearity correction enabled: false
Boxcar width: 3
XAxis mode: Wavelengths
Number of Pixels in Spectrum: 2068
>>>>>Begin Spectral Data<<<<<
199,4	-0,25
199,9	-1,58
200,4	0,5
200,8	0,414
201,3	-1,243
201,8	2,929
202,2	2,957
202,7	2,729
203,2	3,9
203,6	-0,557
204,1	6,271
204,6	5,386
205	5,871
205,5	4,671
206	5,129
206,4	0,214
206,9	6,071
207,4	-2,586
207,8	0,386
208,3	-1,814
208,8	1,643
209,2	-3,157
209,7	2,929
210,2	-4,5
210,6	2,157
211,1	1,471
211,5	0,414
212	6,929
212,5	13,871
212,9	10,386
213,4	15,9
213,9	10,329
214,3	10,529
214,8	6,071
215,3	-0,1
215,7	-1,357
216,2	-2,5
216,7	-3,1
217,1	-5,271
217,6	-6,3
218,1	0,271
218,5	-1,186
219	-5,671
219,5	3,329
219,9	3,471
220,4	6,443
220,9	7,157
221,3	1,557
221,8	0,357
222,3	3,1
222,7	-0,186
223,2	0,586
223,6	1,643
224,1	2,329
224,6	13,671
225	13,1
225,5	14,814
226	14,414
226,4	15,5
226,9	19,014
227,4	24,814
227,8	22,329
228,3	26,929
228,8	27,671
229,2	23,586
229,7	22,786
230,2	13,614
230,6	4,471
231,1	-1,843
231,5	-2,786
232	-5,986
232,5	1,3
232,9	-1,729
233,4	6,814
233,9	11,129
234,3	12,529
234,8	7,129
235,3	14,957
235,7	6,643
236,2	11,1
236,7	8,529
237,1	7,5
237,6	7,729
238,1	15,071
238,5	7,357
239	9,729
239,4	11,157
239,9	13,843
240,4	13,214
240,8	12,671
241,3	12,014
241,8	14,786
242,2	17,7
242,7	11,643
243,2	11,557
243,6	13,671
244,1	12,071
244,6	7,586
245	4,671
245,5	-0,357
245,9	3,014
246,4	4,5
246,9	7,329
247,3	14,043
247,8	15,271
248,3	18,957
248,7	23,843
249,2	21,671
249,7	18,357
250,1	18,129
250,6	12,786
251	12,786
251,5	8,529
252	4,5
252,4	8,843
252,9	6,986
253,4	-0,386
253,8	-0,271
254,3	-2,443
254,8	1,671
255,2	2,557
255,7	-4,471
256,1	-5,186
256,6	3,443
257,1	8,014
257,5	9,843
258	9,329
258,5	7,671
258,9	13,386
259,4	14,329
259,9	8,529
260,3	3,129
260,8	4,814
261,2	5,243
261,7	14,129
262,2	12,843
262,6	11,157
263,1	11,7
263,6	9,643
264	6,186
264,5	7,3
264,9	3,614
265,4	0,471
265,9	-2,443
266,3	1,357
266,8	1,357
267,3	3,557
267,7	1,471
268,2	-4,614
268,7	-3,386
269,1	5,1
269,6	3,214
270	4,643
270,5	2,929
271	3,186
271,4	10,186
271,9	11,957
272,4	4,071
272,8	0,929
273,3	-2,043
273,7	1,7
274,2	7,843
274,7	2,757
275,1	0,986
275,6	11,986
276,1	17,157
276,5	24,157
277	18,671
277,4	10,814
277,9	16,357
278,4	16,529
278,8	12,329
279,3	11,014
279,8	6,3
280,2	9,386
280,7	4,986
281,1	-2,186
281,6	-2,814
282,1	-1,443
282,5	-5,471
283	-2,214
283,4	-3,957
283,9	1,443
284,4	3,5
284,8	9,214
285,3	11,9
285,8	16,586
286,2	11,757
286,7	11,586
287,1	12,186
287,6	14,329
288,1	9,929
288,5	4,1
289	0,871
289,5	6,386
289,9	6,957
290,4	5,557
290,8	6,329
291,3	5,786
291,8	8,357
292,2	6,357
292,7	2,329
293,1	4,957
293,6	7,557
294,1	11,557
294,5	9,414
295	2,3
295,5	3,957
295,9	4,5
296,4	2,786
296,8	2,957
297,3	2,443
297,8	5,186
298,2	8,471
298,7	9,529
299,1	14,757
299,6	19,957
300,1	17,7
300,5	11,157
301	12,1
301,5	11,786
301,9	8,9
302,4	4,757
302,8	-1,071
303,3	-7,186
303,8	-7,271
304,2	-3,929
304,7	-5,443
305,1	-2,5
305,6	1,443
306,1	5,957
306,5	9,443
307	15,814
307,4	15,757
307,9	17,757
308,4	20,671
308,8	17,614
309,3	17,357
309,8	22,014
310,2	17,414
310,7	19,414
311,1	23,043
311,6	16,214
312,1	16,9
312,5	13,214
313	9,7
313,4	11,843
313,9	1,043
314,4	-2,471
314,8	3,214
315,3	4,071
315,7	-0,243
316,2	-1,357
316,7	-6,614
317,1	-5,129
317,6	-6,757
318	-7,271
318,5	-11,986
319	-7,386
319,4	-4,786
319,9	4,671
320,3	3,9
320,8	7,586
321,3	4,957
321,7	7,186
322,2	8,071
322,6	8,157
323,1	1,871
323,6	4,157
324	1,729
324,5	0,643
324,9	3,414
325,4	1,957
325,9	-0,043
326,3	-0,814
326,8	-1,271
327,2	-3,186
327,7	-1,7
328,2	-8,586
328,6	-4,414
329,1	0,129
329,5	2,671
330	5,386
330,5	8,586
330,9	12,786
331,4	10,186
331,8	6,157
332,3	10,786
332,8	12,1
333,2	12,529
333,7	15,586
334,1	8,729
334,6	11,329
335,1	13,814
335,5	5,729
336	4,871
336,4	9,5
336,9	5,729
337,4	6,957
337,8	12,243
338,3	12,157
338,7	24,129
339,2	23,271
339,7	15,129
340,1	16,271
340,6	16,729
341	10,443
341,5	11,729
342	-3,614
342,4	-5,529
342,9	-2,014
343,3	-4,129
343,8	-0,5
344,2	5,214
344,7	1,986
345,2	5,329
345,6	6,5
346,1	13,471
346,5	13,271
347	12,986
347,5	14,5
347,9	17,271
348,4	16,986
348,8	15,614
349,3	12,157
349,8	14,043
350,2	8,986
350,7	9,586
351,1	7,9
351,6	14,186
352	21,443
352,5	25,243
353	32,671
353,4	42,3
353,9	49,986
354,3	67,386
354,8	80,7
355,3	97,386
355,7	114,757
356,2	137,614
356,6	167,1
357,1	200,157
357,5	229,443
358	269,843
358,5	314,414
358,9	366,986
359,4	427,586
359,8	496,014
360,3	566,271
360,8	646,129
361,2	738,786
361,7	846,157
362,1	960,186
362,6	1077,357
363	1206,186
363,5	1348,557
364	1496,957
364,4	1646,243
364,9	1789,786
365,3	1932,157
365,8	2083,843
366,3	2216,5
366,7	2339,929
367,2	2454,786
367,6	2543,071
368,1	2612,9
368,5	2664,729
369	2684,757
369,5	2691,529
369,9	2672,271
370,4	2629,814
370,8	2576,329
371,3	2503,471
371,7	2419,214
372,2	2316,929
372,7	2209,271
373,1	2097,186
373,6	1979,814
374	1853,3
374,5	1727,271
374,9	1608,071
375,4	1500,957
375,9	1389,671
376,3	1279,329
376,8	1179,014
377,2	1087,129
377,7	1003,071
378,2	921,986
378,6	840,529
379,1	776,1
379,5	714,843
380	648,929
380,4	595,386
380,9	553,529
381,4	504,757
381,8	469,443
382,3	429,214
382,7	399,043
383,2	375,843
383,6	347,414
384,1	323,471
384,6	302,957
385	283,3
385,5	254,643
385,9	238,786
386,4	223,214
386,8	213,271
387,3	196,757
387,7	186,1
388,2	169,614
388,7	168,986
389,1	160,3
389,6	148,871
390	141,729
390,5	138,329
390,9	128,329
391,4	120,814
391,9	109,957
392,3	98,3
392,8	94,957
393,2	89,814
393,7	82,614
394,1	76,614
394,6	73,671
395,1	74,357
395,5	71,157
396	70,9
396,4	67,157
396,9	59,329
397,3	59,014
397,8	57,043
398,2	52,557
398,7	54,871
399,2	49,586
399,6	44,3
400,1	48,5
400,5	46,443
401	44,986
401,4	46,986
401,9	49,843
402,4	54,271
402,8	59,986
403,3	57,586
403,7	59,786
404,2	61,186
404,6	61,729
405,1	55,957
405,5	50,186
406	48,043
406,5	49,7
406,9	50,271
407,4	53,443
407,8	54,9
408,3	60,729
408,7	70,243
409,2	76,614
409,6	79,729
410,1	82,3
410,6	92,671
411	99,529
411,5	107,214
411,9	106,329
412,4	109,271
412,8	114,157
413,3	123,271
413,7	127,414
414,2	136,643
414,7	141,471
415,1	153,671
415,6	162,043
416	171,214
416,5	180,414
416,9	187,5
417,4	200,214
417,8	210,357
418,3	221,957
418,8	236,9
419,2	259,529
419,7	277,414
420,1	287,843
420,6	298,014
421	315,1
421,5	332,014
421,9	349,643
422,4	358,5
422,8	379,986
423,3	403,643
423,8	423,871
424,2	442,9
424,7	459,871
425,1	477,129
425,6	499,186
426	519,5
426,5	538,786
426,9	564,614
427,4	590,871
427,9	621,986
428,3	657,443
428,8	692,471
429,2	723,671
429,7	760,157
430,1	794,871
430,6	831,129
431	870,957
431,5	909,3
431,9	953,671
432,4	996,586
432,8	1051,557
433,3	1099,129
433,8	1151,243
434,2	1201,786
434,7	1255,443
435,1	1309,129
435,6	1371,414
436	1433,471
436,5	1505,643
436,9	1574,1
437,4	1650,414
437,8	1734,386
438,3	1817,329
438,8	1900,329
439,2	1983,214
439,7	2063,986
440,1	2155,357
440,6	2254,157
441	2342,957
441,5	2442,186
441,9	2542,243
442,4	2650,786
442,8	2769,614
443,3	2880,186
443,7	2995,529
444,2	3121,5
444,7	3242,586
445,1	3382,586
445,6	3513,871
446	3648,3
446,5	3788,757
446,9	3934,814
447,4	4082,957
447,8	4242,3
448,3	4393,014
448,7	4554,757
449,2	4713,043
449,6	4885,129
450,1	5049,843
450,6	5219,071
451	5386,129
451,5	5574,9
451,9	5759,071
452,4	5948,5
452,8	6138,671
453,3	6336,7
453,7	6538,729
454,2	6758,157
454,6	6953,1
455,1	7159,157
455,5	7375,929
456	7590,014
456,4	7803,443
456,9	8025,729
457,3	8247,529
457,8	8480,3
458,3	8704,957
458,7	8938,5
459,2	9177,329
459,6	9416,729
460,1	9649,957
460,5	9874,643
461	10104,071
461,4	10351,414
461,9	10594,186
462,3	10835,357
462,8	11076,786
463,2	11327,586
463,7	11574,557
464,1	11821,443
464,6	12067,643
465	12307,386
465,5	12548,329
466	12793,157
466,4	13032,243
466,9	13284,843
467,3	13527,386
467,8	13776,271
468,2	14020,986
468,7	14267,843
469,1	14518,214
469,6	14761,243
470	14988,157
470,5	15232,186
470,9	15466,386
471,4	15692,186
471,8	15910,186
472,3	16132,271
472,7	16348,471
473,2	16573,586
473,6	16783,529
474,1	16974,957
474,5	17190,071
475	17391,357
475,4	17576,786
475,9	17759,357
476,4	17954,271
476,8	18139,186
477,3	18330,443
477,7	18501,5
478,2	18672,757
478,6	18844,871
479,1	19017,643
479,5	19158,357
480	19298,814
480,4	19433,3
480,9	19558,043
481,3	19686,186
481,8	19807,729
482,2	19922,414
482,7	20024,043
483,1	20133,243
483,6	20236,929
484	20311,129
484,5	20397,3
484,9	20479,786
485,4	20544,271
485,8	20614,243
486,3	20668,157
486,7	20708,786
487,2	20768,671
487,6	20808,214
488,1	20836,271
488,5	20867,157
489	20872,386
489,4	20888,7
489,9	20895,129
490,4	20886,929
490,8	20885,586
491,3	20868,071
491,7	20843,586
492,2	20840,843
492,6	20806,586
493,1	20766,9
493,5	20734,929
494	20681,014
494,4	20627,671
494,9	20570,471
495,3	20502,671
495,8	20442,014
496,2	20377,3
496,7	20293,957
497,1	20222,929
497,6	20137,414
498	20062,214
498,5	19984,557
498,9	19893,1
499,4	19789,614
499,8	19709,1
500,3	19608,529
500,7	19509,729
501,2	19396,557
501,6	19286,729
502,1	19175,929
502,5	19083,7
503	18972,1
503,4	18858,729
503,9	18744,214
504,3	18627,929
504,8	18495,043
505,2	18359,129
505,7	18221,157
506,1	18091,929
506,6	17944,157
507	17802,814
507,5	17668,814
507,9	17542,9
508,4	17411,071
508,8	17264,586
509,3	17126,7
509,7	17006,1
510,2	16876,843
510,6	16728,9
511,1	16574,186
511,5	16431,5
512	16294,414
512,4	16143,557
512,9	15985,157
513,3	15831,414
513,8	15686,643
514,2	15531,329
514,7	15371,357
515,1	15224,9
515,6	15078,357
516	14925,7
516,5	14769,443
516,9	14617,443
517,4	14473,986
517,8	14326,243
518,3	14166,957
518,7	13997,7
519,2	13851,586
519,6	13713,386
520,1	13560,9
520,5	13413,929
521	13267,043
521,4	13125,3
521,9	12990,9
522,3	12839,186
522,8	12693,671
523,2	12553,129
523,7	12413,643
524,1	12288,7
524,6	12151,7
525	12014,386
525,5	11882,586
525,9	11744,243
526,4	11618,1
526,8	11494,614
527,3	11363,443
527,7	11243,871
528,2	11115,129
528,6	10995,929
529,1	10880,929
529,5	10761,271
530	10642,814
530,4	10519,871
530,9	10395,329
531,3	10289,243
531,8	10182,586
532,2	10067,414
532,6	9957,786
533,1	9841,786
533,5	9727,557
534	9630,129
534,4	9517,814
534,9	9413,614
535,3	9303,529
535,8	9196,043
536,2	9104,357
536,7	9016,186
537,1	8919,586
537,6	8835,157
538	8743,557
538,5	8664,271
538,9	8572,586
539,4	8481,071
539,8	8387,014
540,3	8295,757
540,7	8197,271
541,2	8096,5
541,6	8005,586
542,1	7920,929
542,5	7837,186
543	7755,071
543,4	7680,9
543,9	7611,271
544,3	7542,186
544,8	7468,757
545,2	7399,243
545,7	7312,071
546,1	7244,557
546,5	7167,014
547	7097,357
547,4	7029,671
547,9	6961,586
548,3	6891,529
548,8	6836,3
549,2	6763,986
549,7	6698,129
550,1	6636,3
550,6	6569,814
551	6504,1
551,5	6446,986
551,9	6390,986
552,4	6345,214
552,8	6286,529
553,3	6212,614
553,7	6159,414
554,2	6106,5
554,6	6057,386
555,1	6003,614
555,5	5945,729
555,9	5901,843
556,4	5865,043
556,8	5814,5
557,3	5759,786
557,7	5710,186
558,2	5664,843
558,6	5619,243
559,1	5566,671
559,5	5514,9
560	5476,414
560,4	5435,529
560,9	5387,329
561,3	5335,414
561,8	5291,614
562,2	5250,957
562,7	5221,9
563,1	5182,614
563,6	5138,186
564	5095,7
564,4	5058,557
564,9	5020,471
565,3	4976,3
565,8	4927,271
566,2	4882,671
566,7	4846,614
567,1	4817,586
567,6	4780,614
568	4737,471
568,5	4703,3
568,9	4670,9
569,4	4635,243
569,8	4606,243
570,3	4576,243
570,7	4543,614
571,1	4523,614
571,6	4499,186
572	4459,129
572,5	4423,9
572,9	4395,757
573,4	4353,043
573,8	4319,757
574,3	4283,3
574,7	4247,986
575,2	4220,471
575,6	4199,671
576,1	4174,386
576,5	4143,9
576,9	4117,071
577,4	4086,671
577,8	4056,243
578,3	4033,043
578,7	3998,557
579,2	3959,843
579,6	3936,329
580,1	3913,786
580,5	3886,929
581	3855,671
581,4	3826,757
581,9	3806,186
582,3	3774,471
582,7	3753,071
583,2	3723,471
583,6	3699,786
584,1	3678,586
584,5	3651,7
585	3632,043
585,4	3617,671
585,9	3589,243
586,3	3570,271
586,8	3541,157
587,2	3520,614
587,6	3496,529
588,1	3465,043
588,5	3446,7
589	3421,186
589,4	3394,7
589,9	3379,471
590,3	3359,071
590,8	3344,957
591,2	3329,386
591,7	3298,729
592,1	3276,471
592,5	3264,529
593	3242,843
593,4	3225,671
593,9	3206,729
594,3	3186,986
594,8	3170,129
595,2	3164,329
595,7	3140,7
596,1	3130,443
596,6	3114,929
597	3101,071
597,4	3081,043
597,9	3071,329
598,3	3050,243
598,8	3035,729
599,2	3012,929
599,7	3000,929
600,1	2981,671
600,6	2959,757
601	2935,471
601,4	2927,386
601,9	2915,957
602,3	2901,443
602,8	2882,3
603,2	2871,757
603,7	2860,671
604,1	2856,729
604,6	2830,014
605	2812,043
605,4	2799,443
605,9	2778,757
606,3	2756,5
606,8	2736,614
607,2	2716,5
607,7	2703,471
608,1	2682,614
608,6	2656,986
609	2643,671
609,4	2625,529
609,9	2617,7
610,3	2602,014
610,8	2587,471
611,2	2573,043
611,7	2562,957
612,1	2545,157
612,6	2539,1
613	2525,157
613,4	2504,5
613,9	2499,9
614,3	2490,471
614,8	2475,243
615,2	2461,471
615,7	2450,9
616,1	2433,843
616,6	2422,843
617	2398,186
617,4	2378,757
617,9	2372,957
618,3	2354,871
618,8	2332,7
619,2	2317,557
619,7	2301,814
620,1	2291,1
620,5	2277,614
621	2255,414
621,4	2246,9
621,9	2231,757
622,3	2220,329
622,8	2206,243
623,2	2189,443
623,6	2175,414
624,1	2165,7
624,5	2151,786
625	2142,386
625,4	2126,871
625,9	2118,329
626,3	2104,5
626,8	2091,729
627,2	2079,614
627,6	2061,414
628,1	2046,986
628,5	2042,729
629	2025,814
629,4	2019,157
629,9	2005,386
630,3	1992,443
630,7	1984,357
631,2	1970,643
631,6	1956,243
632,1	1946,929
632,5	1925,157
633	1908,414
633,4	1900,329
633,8	1889,386
634,3	1879,471
634,7	1857,986
635,2	1846,357
635,6	1842,357
636,1	1836,186
636,5	1817,729
636,9	1798,843
637,4	1782,357
637,8	1770,1
638,3	1762,157
638,7	1748,014
639,2	1734,929
639,6	1724,9
640	1723,671
640,5	1718,271
640,9	1713,043
641,4	1704,671
641,8	1697,643
642,2	1690,586
642,7	1686,071
643,1	1671,129
643,6	1656,729
644	1644,414
644,5	1622,414
644,9	1608,071
645,3	1594,129
645,8	1570,7
646,2	1564,443
646,7	1554,529
647,1	1541,757
647,6	1534,1
648	1523,786
648,4	1511,757
648,9	1511,414
649,3	1499,986
649,8	1489,186
650,2	1485,414
650,6	1482,557
651,1	1471,557
651,5	1468,043
652	1465,071
652,4	1456,329
652,9	1453,843
653,3	1439,443
653,7	1422,357
654,2	1409,043
654,6	1398,1
655,1	1382,757
655,5	1373,471
655,9	1361,671
656,4	1359,986
656,8	1359,157
657,3	1355,014
657,7	1349,386
658,2	1338,414
658,6	1334,129
659	1323,957
659,5	1312,243
659,9	1302,3
660,4	1293,529
660,8	1282,443
661,2	1271,7
661,7	1253,186
662,1	1241,986
662,6	1231,929
663	1219,357
663,4	1210,757
663,9	1201,529
664,3	1193,186
664,8	1185,129
665,2	1176,014
665,6	1167,986
666,1	1160,271
666,5	1152,671
667	1145,186
667,4	1136,129
667,9	1142,843
668,3	1139,614
668,7	1133,414
669,2	1130,9
669,6	1124,586
670,1	1115,871
670,5	1110,614
670,9	1096,557
671,4	1085,157
671,8	1073,386
672,3	1064,157
672,7	1061,043
673,1	1057,043
673,6	1047,443
674	1040,3
674,5	1038,557
674,9	1038,871
675,3	1031,643
675,8	1021,186
676,2	1010,929
676,7	1003,871
677,1	994,329
677,5	985,1
678	971,043
678,4	964,471
678,9	955,614
679,3	949,471
679,7	948,414
680,2	937,757
680,6	926,843
681,1	920,786
681,5	912,243
681,9	902,557
682,4	896,386
682,8	888,014
683,3	884,214
683,7	876,957
684,1	876,043
684,6	868,671
685	863,129
685,5	857,586
685,9	851,671
686,3	845,186
686,8	841,957
687,2	830,9
687,7	827,414
688,1	821,871
688,5	819,643
689	809,043
689,4	807,129
689,9	798,9
690,3	789,814
690,7	784,071
691,2	777,071
691,6	766,814
692	762,043
692,5	755,814
692,9	759,214
693,4	751,671
693,8	740,586
694,2	737,929
694,7	737,214
695,1	733,443
695,6	725,729
696	711,071
696,4	713,614
696,9	711,5
697,3	709,414
697,8	699,414
698,2	699,014
698,6	691,329
699,1	692,3
699,5	684,729
699,9	679,871
700,4	670,757
700,8	668,671
701,3	655,614
701,7	654,386
702,1	653,814
702,6	650,643
703	641,043
703,5	644,729
703,9	634,786
704,3	630,871
704,8	628,357
705,2	614,586
705,6	612,814
706,1	611,871
706,5	598,586
707	599,186
707,4	601,271
707,8	593,357
708,3	584,271
708,7	579,071
709,2	578,329
709,6	576,643
710	568,071
710,5	561,757
710,9	555,643
711,3	559,814
711,8	550,9
712,2	549,586
712,7	544,671
713,1	543,843
713,5	537,7
714	529,643
714,4	522,671
714,8	516,5
715,3	510,671
715,7	506,643
716,2	503,671
716,6	498,014
717	502,5
717,5	495,5
717,9	492,243
718,3	488,871
718,8	484,043
719,2	471,357
719,7	471,271
720,1	466,243
720,5	465,871
721	465,986
721,4	457,786
721,8	454,443
722,3	453,043
722,7	444,386
723,2	434,586
723,6	434,129
724	431,186
724,5	427,814
724,9	425,9
725,3	429,786
725,8	427,671
726,2	428,386
726,7	427,871
727,1	422,3
727,5	423,871
728	423,671
728,4	417,5
728,8	415,414
729,3	410,357
729,7	396,986
730,1	391,214
730,6	385,014
731	375,214
731,5	374,814
731,9	370,214
732,3	367,043
732,8	371,357
733,2	381,529
733,6	385,757
734,1	387,129
734,5	385,529
734,9	386,529
735,4	386,357
735,8	385,157
736,3	376,643
736,7	368,586
737,1	364,071
737,6	359,871
738	365,7
738,4	368,986
738,9	363,757
739,3	361,7
739,7	359,471
740,2	358,729
740,6	355,557
741,1	345,957
741,5	340,014
741,9	339,329
742,4	336,243
742,8	331,5
743,2	329,871
743,7	330,757
744,1	322,929
744,5	316,614
745	315,386
745,4	310,043
745,8	311,386
746,3	314,671
746,7	309,843
747,2	312,843
747,6	317,986
748	318,129
748,5	317,357
748,9	315,757
749,3	315,129
749,8	313,357
750,2	309,529
750,6	307,529
751,1	302,7
751,5	303,586
751,9	298,643
752,4	286,329
752,8	284,186
753,3	284,386
753,7	281,1
754,1	280,1
754,6	275,671
755	276,014
755,4	273,643
755,9	266,729
756,3	267,1
756,7	263,329
757,2	261,9
757,6	263,3
758	261,329
758,5	259,957
758,9	268,329
759,3	263,157
759,8	263,871
760,2	253,5
760,6	251,757
761,1	244,1
761,5	244,529
761,9	238,071
762,4	239,5
762,8	231,243
763,3	232,7
763,7	229,5
764,1	233,186
764,6	233,271
765	230,557
765,4	228,929
765,9	237,529
766,3	239,5
766,7	240,5
767,2	235,443
767,6	234,014
768	231,786
768,5	229,5
768,9	221,614
769,3	221,671
769,8	219,957
770,2	220,871
770,6	215,243
771,1	215,043
771,5	212,1
771,9	212,357
772,4	210,814
772,8	206,814
773,2	199,214
773,7	204,7
774,1	201,529
774,5	198,5
775	197,357
775,4	198,071
775,8	195,929
776,3	197,014
776,7	188,071
777,1	189,443
777,6	189,443
778	189,671
778,4	186,843
778,9	187,129
779,3	193,957
779,7	204,1
780,2	202,443
780,6	202,043
781	202,957
781,5	201,529
781,9	204,671
782,3	199,671
782,8	193,243
783,2	190,5
783,6	191,329
784,1	184,814
784,5	184,414
784,9	176,329
785,4	173,043
785,8	172,729
786,2	173,871
786,7	172,986
787,1	173,471
787,5	170,414
788	170,357
788,4	169,7
788,8	162,357
789,3	159,643
789,7	157,643
790,1	155,386
790,6	154,443
791	150,929
791,4	150,871
791,9	153,271
792,3	152,071
792,7	150,157
793,2	145,157
793,6	144,729
794	145,271
794,5	146,386
794,9	142,186
795,3	143,014
795,8	142,043
796,2	148,557
796,6	151,9
797,1	150,957
797,5	148,329
797,9	150,129
798,4	152,843
798,8	147,7
799,2	144,3
799,7	136,529
800,1	138,9
800,5	132,843
801	134,271
801,4	130,186
801,8	131,414
802,2	127,129
802,7	128,129
803,1	124,329
803,5	131,529
804	122,271
804,4	117,157
804,8	114,7
805,3	118,043
805,7	122,3
806,1	123,386
806,6	118,643
807	130,014
807,4	126,614
807,9	128,786
808,3	128,786
808,7	119,386
809,2	114,729
809,6	115,986
810	109,471
810,4	114,014
810,9	112,014
811,3	110,414
811,7	108,414
812,2	108,3
812,6	103,157
813	101,929
813,5	102,9
813,9	101,843
814,3	102,329
814,8	106,129
815,2	106,271
815,6	107,986
816,1	112,5
816,5	108,243
816,9	105,5
817,3	98,729
817,8	101,671
818,2	104,386
818,6	102,071
819,1	101,557
819,5	101,614
819,9	103,1
820,4	107,329
820,8	103,1
821,2	100,9
821,7	103,443
822,1	98,386
822,5	94,186
822,9	93,071
823,4	94,9
823,8	94,757
824,2	90,1
824,7	90,643
825,1	87,243
825,5	91,443
826	88,9
826,4	82,643
826,8	80,786
827,3	83,529
827,7	84,9
828,1	88,843
828,5	87,814
829	92,129
829,4	92,614
829,8	89,1
830,3	89,157
830,7	87,157
831,1	86,529
831,6	85,243
832	80,214
832,4	79,014
832,8	79,871
833,3	77,929
833,7	76,9
834,1	72,357
834,6	69,3
835	70,843
835,4	72,957
835,8	75,471
836,3	73,757
836,7	72,643
837,1	74,529
837,6	77,443
838	77,414
838,4	75,986
838,9	77,814
839,3	78,471
839,7	77,129
840,1	76,3
840,6	74,471
841	70,643
841,4	65,814
841,9	64,471
842,3	63,129
842,7	60,671
843,1	56,014
843,6	60,186
844	60,157
844,4	60,586
844,9	54,529
845,3	50,5
845,7	48,814
846,2	50,814
846,6	49,3
847	52,814
847,4	51,814
847,9	51,443
848,3	55,929
848,7	56,729
849,2	54,186
849,6	47,329
850	43,386
850,4	44,671
850,9	50,329
851,3	52,729
851,7	51,3
852,2	57,129
852,6	58,386
853	60,643
853,4	62,357
853,9	59,814
854,3	55,957
854,7	59,986
855,2	56,957
855,6	49,871
856	45,986
856,4	48,071
856,9	46,1
857,3	46,729
857,7	43,329
858,2	44,386
858,6	49,871
859	51,214
859,4	43,9
859,9	39,557
860,3	34,814
860,7	31,357
861,1	29,871
861,6	33,243
862	36,271
862,4	38,157
862,9	38,443
863,3	38,043
863,7	40,7
864,1	37,271
864,6	39,129
865	33,414
865,4	34,614
865,9	38,186
866,3	48,329
866,7	44,186
867,1	47,9
867,6	44,443
868	47,757
868,4	44,186
868,8	43,643
869,3	38,386
869,7	41,614
870,1	34,557
870,6	32,386
871	25,957
871,4	28,214
871,8	23,7
872,3	25,986
872,7	25,357
873,1	24,3
873,5	23,843
874	33,786
874,4	36,129
874,8	41,586
875,3	32,843
875,7	34,757
876,1	39,214
876,5	37,529
877	35,214
877,4	32,386
877,8	30,729
878,2	27,729
878,7	23,957
879,1	23,443
879,5	24,729
879,9	23,043
880,4	22,986
880,8	21,1
881,2	26,1
881,7	28,129
882,1	29,9
882,5	28,671
882,9	28,929
883,4	27,7
883,8	30,471
884,2	33,729
884,6	35,129
885,1	30,757
885,5	36,071
885,9	31,529
886,3	35,129
886,8	35,043
887,2	33,1
887,6	27,586
888	32,9
888,5	28,614
888,9	34,157
889,3	32,3
889,8	29,043
890,2	29,1
890,6	28,957
891	26,243
891,5	29,786
891,9	26,357
892,3	22,3
892,7	28,043
893,2	26,3
893,6	30,043
894	32,729
894,4	25,129
894,9	25,129
895,3	26,814
895,7	21,471
896,1	23,671
896,6	21,957
897	19,614
897,4	25,529
897,8	28,414
898,3	28,871
898,7	35,214
899,1	32,243
899,5	25,757
900	22,471
900,4	20,757
900,8	17,671
901,2	14,814
901,7	2,757
902,1	3,386
902,5	8,871
902,9	13,3
903,4	10,557
903,8	11,329
904,2	10,814
904,6	14,729
905,1	12,557
905,5	18,1
905,9	14,7
906,3	15,386
906,8	19,443
907,2	20,614
907,6	18,414
908	20,757
908,5	13,614
908,9	14,071
909,3	14,529
909,7	9,357
910,2	11,043
910,6	11,7
911	13,386
911,4	17,014
911,9	14,243
912,3	14,671
912,7	13,729
913,1	14,786
913,6	16,7
914	12,414
914,4	3,586
914,8	1,586
915,3	-0,786
915,7	0,243
916,1	-2,614
916,5	-5,414
916,9	-1,471
917,4	5,557
917,8	15,757
918,2	14,1
918,6	14,586
919,1	15,214
919,5	19,329
919,9	22,1
920,3	23,443
920,8	20,243
921,2	20,014
921,6	24,957
922	23,643
922,5	20,614
922,9	17,214
923,3	16,786
923,7	13,7
924,2	17,271
924,6	13,157
925	13,157
925,4	20,129
925,8	17,986
926,3	14,671
926,7	17,557
927,1	16,757
927,5	12,986
928	14,9
928,4	10,843
928,8	16,643
929,2	20,929
929,7	19,3
930,1	11,986
930,5	16,129
930,9	18,357
931,3	16,5
931,8	11,986
932,2	8,157
932,6	7,357
933	13,443
933,5	14,757
933,9	12,271
934,3	13,157
934,7	10,929
935,2	8,929
935,6	9,014
936	7,814
936,4	3,814
936,8	4,071
937,3	2,5
937,7	4,643
938,1	9,671
938,5	7,443
939	17,157
939,4	15,929
939,8	20,157
940,2	18,586
940,6	14,043
941,1	8,329
941,5	8,129
941,9	-1,443
942,3	-0,386
942,8	-8,471
943,2	-5,814
943,6	-4,157
944	6,614
944,4	10,786
944,9	11,243
945,3	8,214
945,7	14,729
946,1	18,471
946,6	15,357
947	9,214
947,4	9,129
947,8	13,443
948,2	12,071
948,7	9,7
949,1	2,871
949,5	4,214
949,9	4,386
950,3	1,157
950,8	-2,643
951,2	0,786
951,6	-1,386
952	2,9
952,5	5,414
952,9	5,786
953,3	8,071
953,7	9,786
954,1	9,243
954,6	12,7
955	5,414
955,4	6,329
955,8	9,414
956,2	4,843
956,7	5,129
957,1	3,271
957,5	-2,414
957,9	1,986
958,3	3,3
958,8	-5,929
959,2	-1,443
959,6	-3,871
960	-2,5
960,5	3,329
960,9	-0,671
961,3	-0,614
961,7	10,386
962,1	6,157
962,6	9,186
963	9,871
963,4	1,3
963,8	4,357
964,2	6,071
964,7	1,1
965,1	2,129
965,5	-5,529
965,9	-3,414
966,3	-0,5
966,8	5,3
967,2	1,1
967,6	3,5
968	3,529
968,4	11,9
968,9	7,929
969,3	7,586
969,7	2,929
970,1	3,5
970,5	-1,614
971	0,9
971,4	0,3
971,8	0,443
972,2	5,557
972,6	6,1
973,1	4,814
973,5	5,814
973,9	-0,443
974,3	-2,1
974,7	3,443
975,2	-0,1
975,6	0,729
976	2,443
976,4	3,3
976,8	9,7
977,3	13,243
977,7	17,186
978,1	20,529
978,5	20,043
978,9	17,643
979,4	18,271
979,8	16,1
980,2	12,614
980,6	1,243
981	-5,729
981,5	-5,786
981,9	-4,871
982,3	-5,271
982,7	-2,843
983,1	-1,443
983,6	6,043
984	12,414
984,4	12,757
984,8	12,1
985,2	11,129
985,6	7,671
986,1	8,414
986,5	6,871
986,9	8,386
987,3	10,214
987,7	10,443
988,2	8,614
988,6	12,1
989	16,729
989,4	18,357
989,8	16,043
990,3	13,214
990,7	13,643
991,1	11,671
991,5	11,871
991,9	1,414
992,3	0,986
992,8	6,529
993,2	6,214
993,6	6,786
994	10,957
994,4	12,929
994,9	16,329
995,3	10,043
995,7	-0,243
996,1	0,129
996,5	-5,957
996,9	-9,357
997,4	-17,929
997,8	-19,9
998,2	-17,586
998,6	-13,586
999	-16,9
999,5	-18,129
999,9	-14,043
1000,3	-1,1
1000,7	2,529
1001,1	5,271
1001,5	-0,7
1002	5,671
1002,4	13,186
1002,8	16,043
1003,2	11,214
1003,6	7,586
1004	6,957
1004,5	12,471
1004,9	12,043
1005,3	10,614
1005,7	7,043
1006,1	3,1
1006,6	5,443
1007	4,9
1007,4	4,357
1007,8	1,014
1008,2	5,214
1008,6	4,071
1009,1	3,843
1009,5	-2,3
1009,9	-4,129
1010,3	-4,329
1010,7	-1,9
1011,1	-1,5
1011,6	-1,957
1012	2,957
1012,4	7,957
1012,8	9,986
1013,2	11,929
1013,6	7,729
1014,1	7,1
1014,5	8,186
1014,9	7,5
1015,3	12,814
1015,7	7,557
1016,1	4,586
1016,6	8,3
1017	4,129
1017,4	0,3
1017,8	-4,643
1018,2	-10,157
1018,6	-4,443
1019,1	-0,814
1019,5	-1,729
1019,9	-0,271
1020,3	6,471
1020,7	11,757
1021,1	12,071
1021,6	11,786
1022	14,471
1022,4	15,471
1022,8	13,3
1023,2	7,557
1023,6	8,529
1024,1	12,557
1024,5	9,329
1024,9	2,529
1025,3	2,929
1025,7	6,014
1026,1	12,414
1026,6	9,7
1027	6,7
1027,4	8,643
1027,8	9,243
1028,2	4,757
1028,6	2,814
1029	-3,586
1029,5	-7,814
1029,9	-9,586
1030,3	-8,614
1030,7	-9,271
1031,1	-10,214
1031,5	-13,5
1032	-6,814
1032,4	-6,386
1032,8	-7,271
1033,2	-10,329
1033,6	-8,843
1034	-3,357
1034,4	-1,214
1034,9	-0,5
1035,3	0,7
1035,7	0,7
1036,1	1,214
1036,5	1,043
1036,9	-1,643
1037,4	-0,786
1037,8	-6,843
1038,2	-4,529
1038,6	-3,643
1039	1,757
1039,4	0,214
1039,8	0,814
1040,3	3,043
1040,7	2,214
1041,1	3,414
1041,5	3,3
1041,9	-1,329
1042,3	2,443
1042,7	-0,871
1043,2	1,014
1043,6	-0,729
1044	-6,643
1044,4	-5,443
1044,8	-3,386
1045,2	-4,986
1045,6	-4,529
1046,1	-7,757
1046,5	2,129
1046,9	4,271
1047,3	7,1
1047,7	9,957
1048,1	12,1
1048,5	18,1
1049	15,243
1049,4	11,9
1049,8	16,986
1050,2	13,586
1050,6	11,843
1051	6,814
1051,4	8,357
1051,9	10,071
1052,3	7,671
1052,7	0,129
1053,1	-2,014
1053,5	-1,9
1053,9	6,671
1054,3	0,671
1054,8	0,986
1055,2	2,586
1055,6	9,814
1056	11,071
1056,4	1,871
1056,8	-5,614
1057,2	-4,5
1057,6	-6,414
1058,1	-7,7
1058,5	-15,9
1058,9	-17,957
1059,3	-13,386
1059,7	-11,186
1060,1	-10,071
1060,5	-2,929
1061	-4,5
1061,4	-2,043
1061,8	0,957
1062,2	-0,671
1062,6	-0,5
1063	-1,557
1063,4	-5,071
1063,8	-4,043
1064,3	1,043
1064,7	4,729
1065,1	6,757
1065,5	7,786
1065,9	12,643
1066,3	8,157
1066,7	4,9
1067,1	-1,443
1067,6	-5,1
1068	-1,814
1068,4	-4,871
1068,8	-6,929
1069,2	-6,843
1069,6	2,871
1070	6,7
1070,4	8,7
1070,9	7,843
1071,3	11,614
1071,7	9,929
1072,1	13,671
1072,5	9,757
1072,9	11,157
1073,3	9,7
1073,7	13,271
1074,2	5,729
1074,6	5,729
1075	4,614
1075,4	3,271
1075,8	-1,3
1076,2	-1,357
1076,6	-5,786
1077	2,071
1077,5	1,271
1077,9	2,529
1078,3	3,243
1078,7	5,871
1079,1	4,414
1079,5	3,786
1079,9	8,043
1080,3	10,3
1080,7	7,786
1081,2	2,129
1081,6	1,3
1082	-0,271
1082,4	-1,5
1082,8	-10,957
1083,2	-8,243
1083,6	-5,671
1084	2,471
1084,5	2,271
1084,9	7,557
1085,3	12,671
1085,7	16,129
1086,1	4,671
1086,5	5,843
1086,9	4,186
1087,3	4,1
1087,7	1,757
1088,2	-1,957
1088,6	-8,271
1089	-2,786
1089,4	-0,643
1089,8	-5,871
1090,2	-3,414
1090,6	-6,214
1091	-6,271
1091,4	-2,043
1091,9	2,357
1092,3	-1,414
1092,7	8,871
1093,1	7,443
1093,5	11,5
1093,9	12,843
1094,3	15,586
1094,7	13,243
1095,1	15,786
1095,5	9,843
1096	12,729
1096,4	14,614
1096,8	12,357
1097,2	9,757
1097,6	10,157
1098	5,786
1098,4	4,329
1098,8	1,071
1099,2	-3,929
1099,6	-3,814
1100,1	-3,443
1100,5	-0,1
1100,9	2,7
1101,3	6,471
1101,7	8,243
1102,1	8,243
1102,5	10,214
1102,9	12,7
1103,3	10,243
1103,7	10,1
1104,2	6,9
1104,6	6,614
1105	11,186
1105,4	9,357
1105,8	7,471
1106,2	5,529
1106,6	4,414
1107	3,529
1107,4	2,2
1107,8	-1,06
1108,3	0,4
