Data from Subt2_07.txt Node
Date: Thu Aug 24 16:33:33 MSK 2023
User: vat
Spectrometer: MAYP114033
Trigger mode: 0
Integration Time (sec): 1,000000E0
Scans to average: 5
Electric dark correction enabled: true
Nonlinearity correction enabled: false
Boxcar width: 3
XAxis mode: Wavelengths
Number of Pixels in Spectrum: 2068
>>>>>Begin Spectral Data<<<<<
199,4	0,617
199,9	-3,373
200,4	2,233
200,8	1,352
201,3	4,467
201,8	8,124
202,2	4,467
202,7	5,724
203,2	7,838
203,6	3,752
204,1	10,552
204,6	5,552
205	1,752
205,5	4,781
206	4,81
206,4	7,381
206,9	9,781
207,4	6,352
207,8	7,838
208,3	10,838
208,8	8,695
209,2	12,438
209,7	12,695
210,2	15,124
210,6	18,038
211,1	18,324
211,5	13,981
212	18,038
212,5	14,81
212,9	10,495
213,4	7,867
213,9	0,181
214,3	-2,305
214,8	-1,19
215,3	-0,362
215,7	-1,562
216,2	5,752
216,7	4,61
217,1	4,81
217,6	4,724
218,1	4,152
218,5	9,038
219	14,038
219,5	8,752
219,9	6,01
220,4	9,895
220,9	18,781
221,3	23,21
221,8	14,952
222,3	14,352
222,7	19,352
223,2	16,838
223,6	15,61
224,1	8,81
224,6	8,324
225	10,552
225,5	5,952
226	1,752
226,4	4,267
226,9	8,524
227,4	8,067
227,8	9,038
228,3	7,61
228,8	10,495
229,2	17,467
229,7	21,01
230,2	19,638
230,6	23,21
231,1	20,324
231,5	20,895
232	21,067
232,5	16,724
232,9	18,295
233,4	15,81
233,9	10,895
234,3	15,238
234,8	17,181
235,3	15,724
235,7	12,495
236,2	17,067
236,7	12,981
237,1	19,581
237,6	14,581
238,1	14,752
238,5	15,581
239	16,924
239,4	8,981
239,9	12,038
240,4	7,267
240,8	8,867
241,3	9,638
241,8	8,495
242,2	8,638
242,7	8,067
243,2	9,352
243,6	14,752
244,1	11,324
244,6	9,438
245	10,238
245,5	10,952
245,9	9,81
246,4	9,124
246,9	2,695
247,3	4,638
247,8	1,838
248,3	4,952
248,7	7,924
249,2	14,495
249,7	17,41
250,1	16,781
250,6	17,638
251	22,838
251,5	22,695
252	17,581
252,4	11,952
252,9	6,695
253,4	7,552
253,8	14,81
254,3	12,467
254,8	7,724
255,2	5,952
255,7	3,552
256,1	8,181
256,6	7,752
257,1	-0,505
257,5	0,124
258	3,124
258,5	5,81
258,9	13,495
259,4	11,781
259,9	16,01
260,3	16,152
260,8	19,552
261,2	21,952
261,7	20,552
262,2	17,181
262,6	10,952
263,1	11,895
263,6	14,838
264	10,61
264,5	4,095
264,9	8,01
265,4	13,238
265,9	19,781
266,3	18,438
266,8	17,581
267,3	18,981
267,7	18,067
268,2	13,867
268,7	8,924
269,1	3,752
269,6	3,381
270	-4,533
270,5	-9,219
271	-5,133
271,4	-0,762
271,9	-0,276
272,4	2,067
272,8	8,267
273,3	14,695
273,7	10,781
274,2	14,867
274,7	16,524
275,1	16,267
275,6	20,924
276,1	13,867
276,5	19,524
277	22,01
277,4	14,952
277,9	14,667
278,4	13,095
278,8	11,495
279,3	17,867
279,8	9,295
280,2	13,267
280,7	17,581
281,1	19,581
281,6	14,781
282,1	15,324
282,5	10,21
283	7,895
283,4	8,352
283,9	4,895
284,4	-3,533
284,8	6,552
285,3	4,067
285,8	4,124
286,2	8,61
286,7	8,324
287,1	5,667
287,6	6,238
288,1	2,724
288,5	7,524
289	11,752
289,5	11,524
289,9	11,324
290,4	7,124
290,8	8,981
291,3	6,067
291,8	1,238
292,2	-2,448
292,7	-2,133
293,1	2,41
293,6	13,781
294,1	13,352
294,5	14,238
295	15,267
295,5	8,581
295,9	10,581
296,4	6,924
296,8	3,924
297,3	13,01
297,8	18,238
298,2	13,581
298,7	18,752
299,1	17,895
299,6	19,552
300,1	18,838
300,5	15,81
301	13,295
301,5	18,324
301,9	20,352
302,4	13,61
302,8	14,667
303,3	15,21
303,8	10,724
304,2	11,524
304,7	10,695
305,1	7,467
305,6	16,695
306,1	17,067
306,5	17,724
307	20,495
307,4	14,781
307,9	16,981
308,4	14,781
308,8	11,495
309,3	10,438
309,8	11,752
310,2	9,781
310,7	15,324
311,1	21,267
311,6	26,895
312,1	27,81
312,5	25,381
313	20,095
313,4	20,381
313,9	18,581
314,4	9,61
314,8	7,867
315,3	6,238
315,7	6,324
316,2	6,695
316,7	10,552
317,1	10,667
317,6	16,895
318	20,152
318,5	22,724
319	24,524
319,4	24,095
319,9	21,095
320,3	22,81
320,8	19,267
321,3	17,81
321,7	23,667
322,2	18,41
322,6	23,295
323,1	21,467
323,6	20,781
324	20,095
324,5	18,324
324,9	11,181
325,4	11,581
325,9	10,638
326,3	13,981
326,8	11,81
327,2	13,067
327,7	11,667
328,2	13,61
328,6	10,295
329,1	14,924
329,5	13,952
330	16,038
330,5	22,038
330,9	18,295
331,4	21,124
331,8	25,124
332,3	18,21
332,8	16,638
333,2	12,295
333,7	4,724
334,1	9,895
334,6	5,067
335,1	9,067
335,5	11,324
336	13,724
336,4	20,438
336,9	23,381
337,4	28,038
337,8	23,41
338,3	22,352
338,7	25,381
339,2	16,752
339,7	11,695
340,1	7,095
340,6	5,552
341	16,21
341,5	20,267
342	19,581
342,4	24,724
342,9	25,61
343,3	28,638
343,8	25,667
344,2	22,61
344,7	19,038
345,2	17,781
345,6	20,152
346,1	20,581
346,5	23,152
347	20,095
347,5	19,295
347,9	17,181
348,4	16,981
348,8	16,667
349,3	17,41
349,8	15,267
350,2	22,095
350,7	24,381
351,1	27,238
351,6	31,41
352	35,352
352,5	39,124
353	43,667
353,4	46,41
353,9	48,552
354,3	50,667
354,8	54,838
355,3	64,581
355,7	73,552
356,2	91,267
356,6	97,467
357,1	113,295
357,5	133,924
358	153,495
358,5	173,981
358,9	202,495
359,4	220,41
359,8	260,41
360,3	297,781
360,8	344,752
361,2	394,324
361,7	456,095
362,1	513,152
362,6	582,867
363	645,981
363,5	723,752
364	793,467
364,4	868,01
364,9	940,41
365,3	1013,752
365,8	1082,924
366,3	1154,638
366,7	1216,952
367,2	1265,924
367,6	1313,41
368,1	1342,867
368,5	1369,895
369	1379,867
369,5	1382,924
369,9	1369,152
370,4	1357,781
370,8	1328,981
371,3	1293,724
371,7	1247,152
372,2	1198,667
372,7	1140,295
373,1	1079,667
373,6	1014,952
374	948,867
374,5	885,01
374,9	829,381
375,4	772,867
375,9	719,61
376,3	662,838
376,8	610,324
377,2	566,438
377,7	521,295
378,2	476,438
378,6	435,067
379,1	398,495
379,5	366,295
380	340,41
380,4	305,152
380,9	275,981
381,4	254,267
381,8	240,181
382,3	218,495
382,7	206,752
383,2	197,238
383,6	189,667
384,1	177,295
384,6	166,61
385	153,238
385,5	147,752
385,9	133,952
386,4	119,781
386,8	117,952
387,3	115,181
387,7	104,952
388,2	99,038
388,7	90,867
389,1	86,352
389,6	85,324
390	74,638
390,5	68,238
390,9	63,21
391,4	60,438
391,9	55,352
392,3	57,438
392,8	52,352
393,2	53,581
393,7	53,638
394,1	53,581
394,6	48,581
395,1	54,238
395,5	47,552
396	52,667
396,4	47,295
396,9	47,667
397,3	45,152
397,8	51,352
398,2	47,295
398,7	54,781
399,2	50,095
399,6	51,638
400,1	48,752
400,5	54,324
401	48,981
401,4	51,124
401,9	47,724
402,4	48,695
402,8	48,267
403,3	55,181
403,7	53,781
404,2	58,438
404,6	59,181
405,1	60,867
405,5	58,667
406	60,238
406,5	58,752
406,9	60,324
407,4	67,61
407,8	74,524
408,3	78,467
408,7	84,21
409,2	94,524
409,6	97,324
410,1	106,124
410,6	106,152
411	115,352
411,5	123,495
411,9	137,438
412,4	147,924
412,8	156,981
413,3	169,867
413,7	179,981
414,2	181,838
414,7	190,524
415,1	199,61
415,6	207,81
416	226,238
416,5	236,438
416,9	249,438
417,4	265,095
417,8	284,238
418,3	296,981
418,8	313,867
419,2	328,267
419,7	345,81
420,1	363,238
420,6	387,124
421	404,381
421,5	424,01
421,9	446,467
422,4	470,638
422,8	494,638
423,3	521,581
423,8	541,495
424,2	571,981
424,7	606,752
425,1	636,467
425,6	669,524
426	698,981
426,5	733,867
426,9	776,895
427,4	811,981
427,9	850,352
428,3	894,924
428,8	936,581
429,2	989,552
429,7	1040,41
430,1	1090,667
430,6	1146,038
431	1203,01
431,5	1260,752
431,9	1322,238
432,4	1384,438
432,8	1454,552
433,3	1532,752
433,8	1609,552
434,2	1689,467
434,7	1774,695
435,1	1859,867
435,6	1949,067
436	2038,638
436,5	2129,352
436,9	2229,781
437,4	2339,324
437,8	2449,667
438,3	2562,01
438,8	2679,495
439,2	2806,352
439,7	2930,41
440,1	3060,067
440,6	3191,152
441	3326,095
441,5	3472,181
441,9	3617,495
442,4	3772,495
442,8	3944,781
443,3	4107,124
443,7	4275,524
444,2	4451,752
444,7	4636,295
445,1	4827,467
445,6	5019,924
446	5204,667
446,5	5401,352
446,9	5602,181
447,4	5815,352
447,8	6021,01
448,3	6238,267
448,7	6461,467
449,2	6688,381
449,6	6927,552
450,1	7172,981
450,6	7413,038
451	7667,21
451,5	7927,21
451,9	8186,638
452,4	8451,838
452,8	8723,838
453,3	8989,067
453,7	9270,095
454,2	9558,267
454,6	9837,038
455,1	10118,295
455,5	10403,381
456	10684,038
456,4	10984,381
456,9	11279,467
457,3	11570,152
457,8	11877,267
458,3	12178,01
458,7	12497,21
459,2	12832,924
459,6	13153,295
460,1	13472,41
460,5	13798,924
461	14124,924
461,4	14443,324
461,9	14762,581
462,3	15083,352
462,8	15412,524
463,2	15742,895
463,7	16073,181
464,1	16402,181
464,6	16740,981
465	17075,952
465,5	17397,238
466	17722,467
466,4	18040,495
466,9	18369,724
467,3	18682,867
467,8	19014,352
468,2	19339,267
468,7	19668,267
469,1	19984,038
469,6	20305,295
470	20611,152
470,5	20921,267
470,9	21223,438
471,4	21511,667
471,8	21799,124
472,3	22081,667
472,7	22361,095
473,2	22639,324
473,6	22906,667
474,1	23165,438
474,5	23434,667
475	23693,867
475,4	23949,524
475,9	24194,238
476,4	24425,238
476,8	24663,781
477,3	24895,467
477,7	25115,352
478,2	25320,467
478,6	25533,667
479,1	25733,181
479,5	25934,41
480	26111,41
480,4	26278,61
480,9	26437,01
481,3	26597,324
481,8	26733,638
482,2	26874,867
482,7	26993,524
483,1	27127,952
483,6	27263,552
484	27368,324
484,5	27455,038
484,9	27536,038
485,4	27609,752
485,8	27682,524
486,3	27748,924
486,7	27793,352
487,2	27838,952
487,6	27902,752
488,1	27962,352
488,5	27992,41
489	28014,41
489,4	28023,21
489,9	28021,038
490,4	28023,895
490,8	28005,924
491,3	27968,924
491,7	27940,61
492,2	27917,181
492,6	27864,01
493,1	27809,952
493,5	27754,467
494	27680,581
494,4	27614,724
494,9	27529,152
495,3	27432,981
495,8	27334,124
496,2	27233,181
496,7	27129,695
497,1	27021,981
497,6	26905,295
498	26813,61
498,5	26705,638
498,9	26597,724
499,4	26490,324
499,8	26364,067
500,3	26237,238
500,7	26117,981
501,2	25968,695
501,6	25821,724
502,1	25678,21
502,5	25535,838
503	25383,152
503,4	25238,238
503,9	25067,295
504,3	24902,467
504,8	24744,752
505,2	24583,324
505,7	24400,124
506,1	24227,638
506,6	24025,952
507	23849,581
507,5	23668,524
507,9	23502,381
508,4	23318,267
508,8	23139,524
509,3	22949,895
509,7	22776,752
510,2	22580,867
510,6	22395,124
511,1	22180,067
511,5	21972,152
512	21772,752
512,4	21572,781
512,9	21378,581
513,3	21196,667
513,8	20986,524
514,2	20788,924
514,7	20592,267
515,1	20389,324
515,6	20191,038
516	19976,267
516,5	19759,838
516,9	19569,81
517,4	19377,81
517,8	19181,924
518,3	18976,124
518,7	18772,124
519,2	18594,267
519,6	18410,381
520,1	18216,724
520,5	18012,667
521	17808,381
521,4	17622,638
521,9	17444,038
522,3	17248,01
522,8	17052,067
523,2	16848,867
523,7	16675,838
524,1	16490,638
524,6	16308,724
525	16123,095
525,5	15945,724
525,9	15762,552
526,4	15593,324
526,8	15391,867
527,3	15236,667
527,7	15066,581
528,2	14888,467
528,6	14715,21
529,1	14549,41
529,5	14396,41
530	14240,01
530,4	14067,981
530,9	13903,41
531,3	13757,552
531,8	13606,124
532,2	13462,524
532,6	13309,781
533,1	13159,295
533,5	13014,524
534	12879,981
534,4	12727,781
534,9	12576,552
535,3	12425,724
535,8	12292,41
536,2	12164,952
536,7	12032,381
537,1	11887,267
537,6	11762,495
538	11639,01
538,5	11518,752
538,9	11377,924
539,4	11251,924
539,8	11120,952
540,3	11005,438
540,7	10897,21
541,2	10776,438
541,6	10648,01
542,1	10533,267
542,5	10422,924
543	10324,324
543,4	10219,01
543,9	10092,038
544,3	9986,381
544,8	9894,495
545,2	9789,152
545,7	9687,981
546,1	9582,867
546,5	9471,438
547	9381,781
547,4	9283,981
547,9	9191,438
548,3	9098,724
548,8	8999,838
549,2	8903,01
549,7	8814,324
550,1	8723,981
550,6	8637,095
551	8551,124
551,5	8475,552
551,9	8396,467
552,4	8330,752
552,8	8248,181
553,3	8170,81
553,7	8101,381
554,2	8020,324
554,6	7940,667
555,1	7862,781
555,5	7777,21
555,9	7711,01
556,4	7640,41
556,8	7562,838
557,3	7483,152
557,7	7419,752
558,2	7360,895
558,6	7301,81
559,1	7236,638
559,5	7168,952
560	7105,095
560,4	7051,524
560,9	6991,867
561,3	6923,867
561,8	6855,667
562,2	6799,81
562,7	6740,095
563,1	6687,267
563,6	6631,724
564	6566,324
564,4	6503,61
564,9	6451,61
565,3	6398,41
565,8	6345,581
566,2	6290,61
566,7	6235,61
567,1	6188,581
567,6	6149,324
568	6093,124
568,5	6041,81
568,9	5988,124
569,4	5934,381
569,8	5886,952
570,3	5841,038
570,7	5795,381
571,1	5754,152
571,6	5704,067
572	5661,895
572,5	5622,295
572,9	5576,495
573,4	5531,495
573,8	5487,238
574,3	5445,667
574,7	5405,381
575,2	5374,124
575,6	5331,124
576,1	5290,981
576,5	5254,21
576,9	5205,895
577,4	5160,095
577,8	5121,324
578,3	5076,124
578,7	5039,038
579,2	4997,581
579,6	4953,638
580,1	4919,81
580,5	4885,581
581	4844,695
581,4	4809,152
581,9	4774,695
582,3	4746,038
582,7	4709,838
583,2	4669,267
583,6	4634,495
584,1	4599,867
584,5	4562,095
585	4516,181
585,4	4475,267
585,9	4442,038
586,3	4415,638
586,8	4385,895
587,2	4351,41
587,6	4321,095
588,1	4298,867
588,5	4271,324
589	4238,095
589,4	4204,41
589,9	4171,267
590,3	4151,552
590,8	4126,41
591,2	4095,238
591,7	4073,552
592,1	4049,81
592,5	4030,324
593	4015,467
593,4	3995,81
593,9	3968,781
594,3	3949,838
594,8	3921,81
595,2	3897,924
595,7	3871,381
596,1	3842,981
596,6	3812,295
597	3785,438
597,4	3759,267
597,9	3737,981
598,3	3716,067
598,8	3694,781
599,2	3670,21
599,7	3643,038
600,1	3621,981
600,6	3596,781
601	3577,952
601,4	3561,124
601,9	3541,438
602,3	3522,724
602,8	3508,01
603,2	3493,638
603,7	3479,038
604,1	3455,467
604,6	3428,238
605	3404,667
605,4	3383,924
605,9	3357,981
606,3	3330,124
606,8	3306,724
607,2	3282,41
607,7	3264,467
608,1	3247,152
608,6	3221,581
609	3203,467
609,4	3185,552
609,9	3156,924
610,3	3144,752
610,8	3120,381
611,2	3089,638
611,7	3068,267
612,1	3052,381
612,6	3029,524
613	3016,381
613,4	2984,352
613,9	2965,638
614,3	2950,781
614,8	2934,152
615,2	2917,467
615,7	2904,952
616,1	2886,867
616,6	2877,095
617	2860,41
617,4	2843,01
617,9	2828,438
618,3	2803,581
618,8	2781,381
619,2	2771,895
619,7	2750,924
620,1	2735,638
620,5	2722,724
621	2702,981
621,4	2693,495
621,9	2671,095
622,3	2657,095
622,8	2640,695
623,2	2616,524
623,6	2594,324
624,1	2574,295
624,5	2543,81
625	2532,238
625,4	2509,124
625,9	2489,524
626,3	2482,467
626,8	2470,038
627,2	2450,981
627,6	2446,295
628,1	2419,81
628,5	2406,038
629	2389,581
629,4	2366,038
629,9	2348,352
630,3	2341,695
630,7	2322,81
631,2	2318,895
631,6	2289,924
632,1	2277,067
632,5	2263,352
633	2248,695
633,4	2227,124
633,8	2208,21
634,3	2191,895
634,7	2185,838
635,2	2163,267
635,6	2151,295
636,1	2130,581
636,5	2114,067
636,9	2100,095
637,4	2082,067
637,8	2060,81
638,3	2049,181
638,7	2033,438
639,2	2019,267
639,6	2016,181
640	1998,238
640,5	1990,524
640,9	1975,61
641,4	1970,724
641,8	1963,895
642,2	1961,952
642,7	1937,752
643,1	1934,21
643,6	1920,352
644	1913,838
644,5	1906,352
644,9	1886,21
645,3	1870,238
645,8	1866,295
646,2	1849,181
646,7	1834,01
647,1	1826,552
647,6	1805,352
648	1797,352
648,4	1788,638
648,9	1779,467
649,3	1765,01
649,8	1761,781
650,2	1749,01
650,6	1744,495
651,1	1735,724
651,5	1723,295
652	1706,838
652,4	1699,438
652,9	1678,095
653,3	1662,552
653,7	1646,095
654,2	1636,038
654,6	1617,552
655,1	1613,524
655,5	1610,838
655,9	1609,438
656,4	1602,352
656,8	1593,095
657,3	1580,552
657,7	1572,295
658,2	1554,038
658,6	1535,752
659	1521,895
659,5	1506,895
659,9	1499,81
660,4	1483,924
660,8	1466,381
661,2	1460,01
661,7	1448,467
662,1	1441,238
662,6	1436,095
663	1419,01
663,4	1409,552
663,9	1410,324
664,3	1398,752
664,8	1389,324
665,2	1371,581
665,6	1356,381
666,1	1347,552
666,5	1340,867
667	1330,467
667,4	1321,752
667,9	1318,581
668,3	1312,524
668,7	1308,352
669,2	1298,867
669,6	1296,438
670,1	1281,81
670,5	1268,981
670,9	1260,438
671,4	1246,238
671,8	1234,41
672,3	1230,867
672,7	1212,41
673,1	1203,667
673,6	1196,781
674	1184,124
674,5	1182,352
674,9	1175,067
675,3	1161,895
675,8	1157,552
676,2	1158,238
676,7	1149,295
677,1	1138,067
677,5	1128,495
678	1121,638
678,4	1113,438
678,9	1105,467
679,3	1090,724
679,7	1087,924
680,2	1081,152
680,6	1069,781
681,1	1060,21
681,5	1057,152
681,9	1041,638
682,4	1032,181
682,8	1019,924
683,3	1012,952
683,7	1014,067
684,1	1008,467
684,6	997,61
685	997,695
685,5	996,61
685,9	992,438
686,3	980,41
686,8	967,638
687,2	957,495
687,7	951,952
688,1	945,152
688,5	938,781
689	928,895
689,4	925,638
689,9	916,638
690,3	906,352
690,7	894,81
691,2	887,81
691,6	878,952
692	869,495
692,5	867,067
692,9	863,781
693,4	859,61
693,8	857,552
694,2	845,581
694,7	838,095
695,1	838,781
695,6	828,981
696	818,667
696,4	817,581
696,9	810,01
697,3	799,238
697,8	794,01
698,2	785,924
698,6	781,381
699,1	784,295
699,5	779,838
699,9	774,181
700,4	772,352
700,8	764,552
701,3	760,638
701,7	753,038
702,1	739,638
702,6	738,667
703	736,038
703,5	731,267
703,9	732,81
704,3	727,638
704,8	718,467
705,2	716,038
705,6	710,838
706,1	700,524
706,5	700,81
707	690,952
707,4	688,838
707,8	692,438
708,3	682,581
708,7	673,067
709,2	673,124
709,6	671,581
710	666,067
710,5	659,895
710,9	648,552
711,3	649,352
711,8	643,038
712,2	639,695
712,7	635,152
713,1	635,038
713,5	625,867
714	624,41
714,4	620,238
714,8	610,895
715,3	602,867
715,7	592,267
716,2	589,81
716,6	583,667
717	580,895
717,5	572,324
717,9	572,924
718,3	566,324
718,8	564,324
719,2	561,152
719,7	558,552
720,1	548,61
720,5	547,61
721	542,781
721,4	543,267
721,8	538,01
722,3	523,124
722,7	514,924
723,2	514,41
723,6	505,981
724	502,724
724,5	493,752
724,9	488,61
725,3	487,524
725,8	484,267
726,2	479,067
726,7	482,267
727,1	473,124
727,5	476,581
728	473,867
728,4	473,352
728,8	472,552
729,3	471,467
729,7	468,152
730,1	470,952
730,6	467,495
731	463,181
731,5	461,81
731,9	461,352
732,3	459,867
732,8	457,038
733,2	451,467
733,6	446,152
734,1	446,924
734,5	441,352
734,9	434,952
735,4	436,124
735,8	430,724
736,3	431,21
736,7	424,438
737,1	420,238
737,6	413,181
738	413,638
738,4	409,667
738,9	402,352
739,3	395,638
739,7	403,867
740,2	399,552
740,6	406,152
741,1	398,124
741,5	397,495
741,9	401,01
742,4	405,295
742,8	394,267
743,2	391,867
743,7	386,981
744,1	392,41
744,5	389,667
745	386,724
745,4	378,838
745,8	373,41
746,3	366,924
746,7	359,267
747,2	347,152
747,6	343,181
748	336,467
748,5	331,952
748,9	337,695
749,3	343,781
749,8	347,867
750,2	355,438
750,6	345,324
751,1	344,124
751,5	344,238
751,9	335,438
752,4	325,095
752,8	315,038
753,3	307,724
753,7	308,61
754,1	307,667
754,6	308,21
755	314,81
755,4	317,581
755,9	322,41
756,3	319,352
756,7	322,638
757,2	321,667
757,6	318,095
758	310,124
758,5	308,267
758,9	302,638
759,3	304,467
759,8	294,124
760,2	291,724
760,6	285,495
761,1	290,067
761,5	286,638
761,9	281,01
762,4	278,438
762,8	278,61
763,3	274,495
763,7	278,381
764,1	270,038
764,6	277,038
765	280,524
765,4	281,295
765,9	282,095
766,3	282,895
766,7	282,524
767,2	280,752
767,6	268,81
768	271,781
768,5	266,667
768,9	264,838
769,3	262,895
769,8	260,867
770,2	261,752
770,6	258,552
771,1	250,952
771,5	253,981
771,9	261,124
772,4	261,981
772,8	255,981
773,2	245,124
773,7	249,438
774,1	246,81
774,5	239,067
775	229,352
775,4	228,467
775,8	231,324
776,3	232,638
776,7	230,095
777,1	230,781
777,6	229,381
778	226,581
778,4	223,724
778,9	216,952
779,3	222,667
779,7	221,838
780,2	220,952
780,6	220,952
781	221,524
781,5	223,781
781,9	224,667
782,3	215,352
782,8	213,724
783,2	211,952
783,6	210,695
784,1	210,295
784,5	196,724
784,9	194,695
785,4	200,81
785,8	196,238
786,2	196,352
786,7	198,152
787,1	192,152
787,5	196,781
788	197,21
788,4	194,924
788,8	192,638
789,3	193,324
789,7	186,752
790,1	185,352
790,6	182,381
791	181,381
791,4	170,924
791,9	177,067
792,3	171,038
792,7	167,41
793,2	167,838
793,6	170,267
794	174,01
794,5	179,181
794,9	178,01
795,3	179,61
795,8	187,781
796,2	189,838
796,6	190,838
797,1	182,495
797,5	179,267
797,9	173,667
798,4	170,838
798,8	167,295
799,2	164,81
799,7	163,81
800,1	160,467
800,5	164,895
801	164,552
801,4	161,552
801,8	167,324
802,2	163,695
802,7	162,067
803,1	163,495
803,5	165,781
804	166,924
804,4	171,752
804,8	163,81
805,3	165,952
805,7	165,324
806,1	164,324
806,6	156,638
807	160,667
807,4	153,181
807,9	155,81
808,3	152,667
808,7	151,095
809,2	151,181
809,6	148,895
810	141,038
810,4	148,924
810,9	144,324
811,3	146,695
811,7	141,781
812,2	141,638
812,6	143,552
813	146,21
813,5	136,61
813,9	136,038
814,3	130,867
814,8	132,152
815,2	132,095
815,6	133,695
816,1	128,038
816,5	122,038
816,9	117,324
817,3	116,61
817,8	116,495
818,2	114,924
818,6	111,352
819,1	109,21
819,5	111,781
819,9	111,124
820,4	110,695
820,8	107,524
821,2	104,81
821,7	104,781
822,1	106,981
822,5	107,21
822,9	105,552
823,4	107,895
823,8	108,952
824,2	109,067
824,7	106,01
825,1	100,01
825,5	98,61
826	95,61
826,4	94,552
826,8	93,21
827,3	95,41
827,7	95,067
828,1	102,952
828,5	104,81
829	104,752
829,4	103,81
829,8	102,067
830,3	93,61
830,7	90,552
831,1	82,638
831,6	79,324
832	82,381
832,4	74,838
832,8	70,067
833,3	68,752
833,7	71,895
834,1	74,438
834,6	74,838
835	75,324
835,4	81,181
835,8	84,81
836,3	91,295
836,7	84,895
837,1	83,324
837,6	82,867
838	77,81
838,4	72,438
838,9	71,81
839,3	67,81
839,7	72,21
840,1	71,924
840,6	72,552
841	70,781
841,4	76,067
841,9	76,381
842,3	79,752
842,7	83,21
843,1	83,581
843,6	81,952
844	84,781
844,4	85,924
844,9	92,81
845,3	90,952
845,7	88,752
846,2	88,352
846,6	87,067
847	92,381
847,4	87,267
847,9	82,324
848,3	84,038
848,7	78,895
849,2	82,381
849,6	83,924
850	78,295
850,4	76,81
850,9	70,467
851,3	67,295
851,7	71,01
852,2	64,638
852,6	71,695
853	73,81
853,4	75,01
853,9	79,238
854,3	81,781
854,7	75,267
855,2	79,724
855,6	68,067
856	63,438
856,4	62,581
856,9	60,781
857,3	60,695
857,7	62,695
858,2	62,695
858,6	69,467
859	71,495
859,4	69,524
859,9	66,724
860,3	65,438
860,7	69,781
861,1	62,124
861,6	64,067
862	64,124
862,4	69,152
862,9	77,124
863,3	74,952
863,7	71,352
864,1	74,381
864,6	63,21
865	61,724
865,4	52,867
865,9	44,752
866,3	40,81
866,7	37,952
867,1	37,267
867,6	43,067
868	36,952
868,4	42,095
868,8	40,752
869,3	43,61
869,7	42,695
870,1	43,695
870,6	41,724
871	154,381
871,4	150,095
871,8	154,638
872,3	152,867
872,7	149,267
873,1	142,495
873,5	148,352
874	39,324
874,4	43,61
874,8	41,695
875,3	36,724
875,7	44,01
876,1	48,667
876,5	46,067
877	44,981
877,4	41,038
877,8	32,495
878,2	38,638
878,7	36,552
879,1	41,038
879,5	37,867
879,9	33,238
880,4	34,324
880,8	38,895
881,2	32,952
881,7	32,067
882,1	31,552
882,5	29,381
882,9	33,01
883,4	34,181
883,8	36,124
884,2	39,124
884,6	34,41
885,1	31,267
885,5	34,238
885,9	37,524
886,3	36,581
886,8	35,952
887,2	39,952
887,6	42,352
888	39,181
888,5	42,41
888,9	36,952
889,3	36,067
889,8	36,01
890,2	33,667
890,6	37,124
891	36,838
891,5	32,41
891,9	35,038
892,3	37,352
892,7	30,895
893,2	27,867
893,6	26,695
894	26,352
894,4	24,095
894,9	26,581
895,3	27,61
895,7	29,524
896,1	28,81
896,6	28,067
897	28,81
897,4	31,81
897,8	29,981
898,3	30,924
898,7	36,981
899,1	40,095
899,5	37,895
900	37,01
900,4	32,952
900,8	37,438
901,2	36,61
901,7	28,667
902,1	23,152
902,5	20,524
902,9	23,124
903,4	23,41
903,8	18,324
904,2	17,038
904,6	24,61
905,1	25,01
905,5	28,181
905,9	25,667
906,3	27,295
906,8	29,924
907,2	24,667
907,6	22,295
908	25,924
908,5	26,667
908,9	29,524
909,3	29,181
909,7	25,438
910,2	27,067
910,6	24,61
911	26,238
911,4	26,267
911,9	21,867
912,3	20,067
912,7	22,381
913,1	20,838
913,6	17,952
914	15,124
914,4	15,41
914,8	15,352
915,3	15,924
915,7	12,838
916,1	10,667
916,5	15,238
916,9	14,381
917,4	14,152
917,8	12,981
918,2	10,838
918,6	15,124
919,1	18,095
919,5	23,638
919,9	23,495
920,3	20,238
920,8	21,095
921,2	27,038
921,6	23,752
922	24,61
922,5	12,438
922,9	10,495
923,3	11,267
923,7	17,752
924,2	9,095
924,6	9,81
925	6,238
925,4	14,467
925,8	14,581
926,3	13,495
926,7	4,581
927,1	14,838
927,5	15,41
928	14,295
928,4	9,324
928,8	8,61
929,2	13,752
929,7	12,81
930,1	7,038
930,5	8,152
930,9	13,41
931,3	14,924
931,8	20,952
932,2	17,095
932,6	25,21
933	21,438
933,5	23,81
933,9	16,752
934,3	16,981
934,7	12,581
935,2	15,381
935,6	13,381
936	11,067
936,4	9,152
936,8	13,61
937,3	18,438
937,7	17,267
938,1	15,181
938,5	12,638
939	12,695
939,4	10,695
939,8	9,095
940,2	9,924
940,6	14,552
941,1	11,152
941,5	9,981
941,9	17,752
942,3	15,095
942,8	12,81
943,2	13,267
943,6	12,61
944	13,867
944,4	12,752
944,9	8,324
945,3	4,752
945,7	6,981
946,1	1,895
946,6	-4,533
947	-1,99
947,4	1,81
947,8	5,838
948,2	9,038
948,7	3,695
949,1	2,181
949,5	1,01
949,9	1,324
950,3	-0,962
950,8	-2,99
951,2	0,238
951,6	6,267
952	11,01
952,5	19,495
952,9	13,267
953,3	16,467
953,7	13,467
954,1	12,067
954,6	9,838
955	4,381
955,4	7,124
955,8	11,295
956,2	14,095
956,7	21,352
957,1	22,752
957,5	22,324
957,9	27,01
958,3	21,01
958,8	22,238
959,2	19,867
959,6	12,81
960	12,467
960,5	19,895
960,9	17,552
961,3	13,838
961,7	13,638
962,1	13,867
962,6	13,267
963	9,81
963,4	3,181
963,8	0,324
964,2	2,695
964,7	1,552
965,1	-1,79
965,5	2,524
965,9	4,181
966,3	12,61
966,8	16,095
967,2	17,867
967,6	24,638
968	24,41
968,4	15,381
968,9	14,952
969,3	12,324
969,7	9,952
970,1	11,181
970,5	3,495
971	6,238
971,4	11,695
971,8	12,952
972,2	13,067
972,6	16,352
973,1	13,352
973,5	15,524
973,9	8,695
974,3	8,581
974,7	11,81
975,2	8,695
975,6	3,638
976	8,438
976,4	9,781
976,8	14,524
977,3	18,867
977,7	17,038
978,1	14,981
978,5	16,667
978,9	18,752
979,4	18,381
979,8	16,581
980,2	16,295
980,6	14,238
981	16,724
981,5	15,381
981,9	9,924
982,3	8,324
982,7	15,924
983,1	13,752
983,6	12,21
984	11,924
984,4	7,81
984,8	7,838
985,2	9,638
985,6	2,781
986,1	2,695
986,5	5,295
986,9	10,295
987,3	18,181
987,7	20,724
988,2	18,467
988,6	17,752
989	17,638
989,4	16,581
989,8	12,981
990,3	10,352
990,7	8,495
991,1	7,638
991,5	10,724
991,9	12,924
992,3	8,038
992,8	6,352
993,2	6,581
993,6	4,924
994	5,524
994,4	1,981
994,9	0,752
995,3	5,01
995,7	3,295
996,1	0,581
996,5	1,238
996,9	-0,133
997,4	-0,048
997,8	0,81
998,2	-1,905
998,6	5,581
999	10,381
999,5	6,895
999,9	9,238
1000,3	10,81
1000,7	1,924
1001,1	2,352
1001,5	-2,762
1002	-5,362
1002,4	0,552
1002,8	5,181
1003,2	12,724
1003,6	20,638
1004	22,038
1004,5	19,895
1004,9	19,467
1005,3	17,638
1005,7	14,124
1006,1	6,467
1006,6	4,238
1007	6,724
1007,4	8,095
1007,8	11,067
1008,2	9,295
1008,6	6,438
1009,1	7,781
1009,5	8,781
1009,9	4,981
1010,3	4,495
1010,7	2,438
1011,1	3,895
1011,6	6,724
1012	7,81
1012,4	8,867
1012,8	12,952
1013,2	13,895
1013,6	20,952
1014,1	20,552
1014,5	17,552
1014,9	19,21
1015,3	15,781
1015,7	14,495
1016,1	18,752
1016,6	8,181
1017	12,467
1017,4	14,581
1017,8	12,952
1018,2	18,581
1018,6	21,838
1019,1	18,724
1019,5	26,467
1019,9	23,324
1020,3	21,238
1020,7	17,181
1021,1	16,21
1021,6	14,752
1022	14,467
1022,4	6,238
1022,8	9,495
1023,2	13,724
1023,6	11,581
1024,1	8,495
1024,5	7,695
1024,9	9,038
1025,3	13,667
1025,7	11,067
1026,1	5,638
1026,6	13,667
1027	12,038
1027,4	11,21
1027,8	15,238
1028,2	15,467
1028,6	12,324
1029	13,438
1029,5	11,61
1029,9	14,838
1030,3	13,324
1030,7	-0,762
1031,1	2,581
1031,5	0,981
1032	7,067
1032,4	4,238
1032,8	4,467
1033,2	6,952
1033,6	11,524
1034	5,01
1034,4	8,01
1034,9	4,552
1035,3	1,238
1035,7	2,667
1036,1	2,61
1036,5	1,924
1036,9	4,438
1037,4	2,238
1037,8	-0,676
1038,2	4,238
1038,6	4,781
1039	3,038
1039,4	12,152
1039,8	14,667
1040,3	13,638
1040,7	14,152
1041,1	15,124
1041,5	7,81
1041,9	8,181
1042,3	8,952
1042,7	5,695
1043,2	7,867
1043,6	11,41
1044	11,267
1044,4	14,924
1044,8	14,838
1045,2	10,924
1045,6	13,21
1046,1	16,124
1046,5	15,067
1046,9	17,895
1047,3	20,495
1047,7	23,724
1048,1	19,867
1048,5	19,495
1049	15,752
1049,4	16,895
1049,8	16,21
1050,2	10,067
1050,6	9,381
1051	13,41
1051,4	15,838
1051,9	18,438
1052,3	16,695
1052,7	14,01
1053,1	18,238
1053,5	17,552
1053,9	15,238
1054,3	18,695
1054,8	20,438
1055,2	22,01
1055,6	25,381
1056	25,067
1056,4	23,752
1056,8	22,467
1057,2	13,781
1057,6	17,124
1058,1	15,61
1058,5	10,21
1058,9	5,867
1059,3	2,438
1059,7	0,381
1060,1	4,381
1060,5	1,867
1061	-0,305
1061,4	-1,905
1061,8	7,581
1062,2	7,867
1062,6	15,495
1063	12,324
1063,4	17,181
1063,8	20,238
1064,3	24,41
1064,7	21,695
1065,1	23,638
1065,5	20,81
1065,9	19,038
1066,3	12,552
1066,7	9,895
1067,1	11,152
1067,6	12,438
1068	8,524
1068,4	8,01
1068,8	13,124
1069,2	12,324
1069,6	10,695
1070	8,61
1070,4	10,724
1070,9	18,324
1071,3	16,381
1071,7	15,21
1072,1	10,981
1072,5	14,267
1072,9	12,752
1073,3	10,01
1073,7	7,152
1074,2	11,524
1074,6	9,381
1075	17,295
1075,4	14,838
1075,8	16,381
1076,2	7,581
1076,6	7,838
1077	2,667
1077,5	5,381
1077,9	-1,59
1078,3	1,752
1078,7	-0,733
1079,1	6,524
1079,5	8,81
1079,9	8,381
1080,3	11,952
1080,7	16,495
1081,2	18,524
1081,6	15,61
1082	16,181
1082,4	14,295
1082,8	19,724
1083,2	20,467
1083,6	16,038
1084	16,181
1084,5	23,552
1084,9	22,181
1085,3	20,324
1085,7	16,981
1086,1	7,895
1086,5	13,524
1086,9	8,581
1087,3	5,181
1087,7	7,467
1088,2	11,495
1088,6	16,924
1089	19,21
1089,4	19,124
1089,8	23,324
1090,2	22,752
1090,6	21,895
1091	20,352
1091,4	18,552
1091,9	22,324
1092,3	25,61
1092,7	28,895
1093,1	31,895
1093,5	27,324
1093,9	26,781
1094,3	26,181
1094,7	23,152
1095,1	11,181
1095,5	4,238
1096	2,81
1096,4	7,724
1096,8	9,581
1097,2	6,467
1097,6	8,267
1098	11,752
1098,4	15,124
1098,8	16,638
1099,2	16,752
1099,6	10,21
1100,1	9,495
1100,5	9,724
1100,9	10,638
1101,3	10,324
1101,7	8,552
1102,1	6,581
1102,5	13,638
1102,9	16,124
1103,3	14,467
1103,7	17,324
1104,2	8,467
1104,6	8,581
1105	8,01
1105,4	3,752
1105,8	0,552
1106,2	-0,505
1106,6	-3,162
1107	2,01
1107,4	0,667
1107,8	0,307
1108,3	-0,083
