Data from Subt2_25.txt Node
Date: Thu Aug 24 17:42:42 MSK 2023
User: vat
Spectrometer: MAYP114033
Trigger mode: 0
Integration Time (sec): 1,000000E0
Scans to average: 5
Electric dark correction enabled: true
Nonlinearity correction enabled: false
Boxcar width: 3
XAxis mode: Wavelengths
Number of Pixels in Spectrum: 2068
>>>>>Begin Spectral Data<<<<<
199,4	-1,333
199,9	-1,613
200,4	-1,933
200,8	-8,733
201,3	-10,305
201,8	-8,933
202,2	-10,048
202,7	-11,99
203,2	-11,276
203,6	-13,676
204,1	-7,105
204,6	-10,848
205	-10,162
205,5	-10,419
206	-11,676
206,4	-18,219
206,9	-16,476
207,4	-19,819
207,8	-14,105
208,3	-19,019
208,8	-18,705
209,2	-19,419
209,7	-17,533
210,2	-23,876
210,6	-24,362
211,1	-25,533
211,5	-26,276
212	-23,419
212,5	-19,819
212,9	-16,676
213,4	-8,448
213,9	-6,419
214,3	-7,676
214,8	-10,019
215,3	-15,676
215,7	-18,333
216,2	-16,333
216,7	-23,162
217,1	-24,648
217,6	-23,905
218,1	-21,19
218,5	-19,162
219	-20,133
219,5	-22,99
219,9	-15,362
220,4	-15,248
220,9	-12,648
221,3	-15,476
221,8	-13,162
222,3	-9,848
222,7	-6,762
223,2	-12,276
223,6	-8,076
224,1	-12,933
224,6	-9,105
225	-13,819
225,5	-14,648
226	-15,733
226,4	-10,676
226,9	-13,276
227,4	-12,505
227,8	-9,048
228,3	-5,333
228,8	-6,962
229,2	-11,276
229,7	-12,848
230,2	-13,733
230,6	-9,905
231,1	-19,562
231,5	-21,219
232	-22,905
232,5	-16,305
232,9	-16,076
233,4	-13,59
233,9	-16,676
234,3	-7,762
234,8	-8,333
235,3	-6,705
235,7	-10,305
236,2	-8,648
236,7	-7,705
237,1	-16,048
237,6	-14,505
238,1	-12,762
238,5	-13,19
239	-16,419
239,4	-23,705
239,9	-25,248
240,4	-18,79
240,8	-27,362
241,3	-24,933
241,8	-25,305
242,2	-24,933
242,7	-25,362
243,2	-26,676
243,6	-26,105
244,1	-23,362
244,6	-24,933
245	-22,962
245,5	-20,162
245,9	-14,619
246,4	-13,848
246,9	-12,962
247,3	-9,562
247,8	-14,99
248,3	-13,276
248,7	-12,59
249,2	-16,076
249,7	-16,476
250,1	-8,362
250,6	-9,162
251	-6,248
251,5	-7,59
252	-9,362
252,4	-4,333
252,9	-10,819
253,4	-15,048
253,8	-17,819
254,3	-18,676
254,8	-17,933
255,2	-17,248
255,7	-21,762
256,1	-15,905
256,6	-22,676
257,1	-20,59
257,5	-15,619
258	-18,419
258,5	-22,562
258,9	-24,962
259,4	-21,533
259,9	-15,533
260,3	-18,476
260,8	-20,933
261,2	-14,019
261,7	-9,419
262,2	-5,133
262,6	-10,762
263,1	-8,676
263,6	-7,819
264	-11,933
264,5	-20,619
264,9	-18,276
265,4	-23,305
265,9	-25,162
266,3	-27,419
266,8	-28,819
267,3	-22,933
267,7	-18,648
268,2	-23,762
268,7	-17,19
269,1	-13,219
269,6	-12,305
270	-8,162
270,5	-10,99
271	-11,333
271,4	-7,162
271,9	-9,933
272,4	-13,39
272,8	-18,219
273,3	-19,905
273,7	-15,505
274,2	-15,248
274,7	-19,705
275,1	-21,419
275,6	-14,448
276,1	-10,562
276,5	-9,133
277	-13,619
277,4	-14,419
277,9	-9,819
278,4	-9,762
278,8	-13,59
279,3	-13,505
279,8	-10,076
280,2	-8,933
280,7	-10,562
281,1	-13,619
281,6	-12,876
282,1	-9,848
282,5	-16,905
283	-21,419
283,4	-27,733
283,9	-24,99
284,4	-22,676
284,8	-17,019
285,3	-14,019
285,8	-9,733
286,2	-9,99
286,7	-5,533
287,1	-4,048
287,6	-6,076
288,1	-12,99
288,5	-15,476
289	-14,705
289,5	-10,419
289,9	-10,162
290,4	-11,705
290,8	-11,59
291,3	-6,333
291,8	-10,99
292,2	-12,305
292,7	-16,533
293,1	-16,133
293,6	-20,419
294,1	-15,048
294,5	-20,876
295	-17,905
295,5	-15,219
295,9	-18,619
296,4	-16,505
296,8	-11,762
297,3	-14,705
297,8	-10,419
298,2	-12,219
298,7	-13,333
299,1	-6,105
299,6	-5,048
300,1	-7,476
300,5	-8,048
301	-11,562
301,5	-6,419
301,9	-11,248
302,4	-20,305
302,8	-24,676
303,3	-27,19
303,8	-29,79
304,2	-28,905
304,7	-35,619
305,1	-33,648
305,6	-29,305
306,1	-27,705
306,5	-26,133
307	-19,648
307,4	-18,105
307,9	-17,59
308,4	-17,905
308,8	-13,448
309,3	-9,419
309,8	-10,133
310,2	-11,905
310,7	-9,305
311,1	-7,076
311,6	-2,39
312,1	-3,533
312,5	-5,162
313	-8,562
313,4	-12,619
313,9	-16,848
314,4	-17,276
314,8	-22,048
315,3	-22,39
315,7	-29,105
316,2	-25,419
316,7	-27,762
317,1	-22,933
317,6	-25,133
318	-20,762
318,5	-22,962
319	-19,99
319,4	-18,619
319,9	-8,79
320,3	-14,105
320,8	-9,648
321,3	-10,59
321,7	-11,276
322,2	-6,333
322,6	-7,448
323,1	-11,676
323,6	-11,733
324	-15,105
324,5	-15,048
324,9	-13,59
325,4	-20,162
325,9	-15,276
326,3	-21,876
326,8	-19,676
327,2	-23,219
327,7	-22,362
328,2	-28,162
328,6	-25,362
329,1	-28,505
329,5	-23,79
330	-21,848
330,5	-15,933
330,9	-10,362
331,4	-5,39
331,8	-5,305
332,3	-1,19
332,8	-4,305
333,2	-8,133
333,7	-5,133
334,1	-16,162
334,6	-13,276
335,1	-14,676
335,5	-20,333
336	-21,19
336,4	-14,962
336,9	-19,362
337,4	-14,276
337,8	-13,333
338,3	-14,39
338,7	-8,19
339,2	-5,905
339,7	-10,962
340,1	-13,076
340,6	-16,476
341	-14,19
341,5	-13,076
342	-18,019
342,4	-16,333
342,9	-17,648
343,3	-16,676
343,8	-12,019
344,2	-14,448
344,7	-14,99
345,2	-16,362
345,6	-19,019
346,1	-13,848
346,5	-11,448
347	-16,048
347,5	-17,705
347,9	-12,219
348,4	-11,048
348,8	-8,105
349,3	-4,676
349,8	-8,105
350,2	-7,39
350,7	-5,419
351,1	-7,676
351,6	-4,733
352	-3,219
352,5	-3,476
353	5,41
353,4	13,524
353,9	14,238
354,3	28,924
354,8	41,095
355,3	59,61
355,7	73,352
356,2	90,924
356,6	110,381
357,1	140,81
357,5	160,924
358	193,867
358,5	219,867
358,9	263,81
359,4	305,952
359,8	356,781
360,3	410,467
360,8	474,438
361,2	540,838
361,7	627,924
362,1	708,21
362,6	800,695
363	894,01
363,5	1002,438
364	1110,667
364,4	1222,695
364,9	1333,038
365,3	1448,952
365,8	1555,724
366,3	1671,238
366,7	1763,552
367,2	1848,01
367,6	1916,238
368,1	1961,067
368,5	1996,895
369	2024,01
369,5	2026,781
369,9	2015,01
370,4	1981,21
370,8	1939,352
371,3	1885,181
371,7	1815,724
372,2	1729,695
372,7	1640,981
373,1	1554,695
373,6	1470,867
374	1377,324
374,5	1290,695
374,9	1203,41
375,4	1122,581
375,9	1045,695
376,3	959,81
376,8	884,038
377,2	817,667
377,7	751,867
378,2	685,467
378,6	630,095
379,1	575,067
379,5	530,324
380	478,867
380,4	437,067
380,9	404,952
381,4	373,581
381,8	346,41
382,3	315,067
382,7	290,324
383,2	273,695
383,6	250,81
384,1	227,924
384,6	211,838
385	191,895
385,5	174,667
385,9	163,952
386,4	148,181
386,8	145,152
387,3	134,181
387,7	126,41
388,2	120,295
388,7	113,895
389,1	106,667
389,6	106,038
390	93,21
390,5	89,038
390,9	76,952
391,4	68,81
391,9	63,41
392,3	54,838
392,8	53,61
393,2	51,667
393,7	50,752
394,1	48,952
394,6	49,124
395,1	52,524
395,5	47,495
396	41,781
396,4	42,524
396,9	37,838
397,3	33,01
397,8	31,381
398,2	25,695
398,7	28,638
399,2	29,352
399,6	21,695
400,1	20,781
400,5	29,781
401	26,524
401,4	31,181
401,9	36,552
402,4	30,638
402,8	28,895
403,3	29,495
403,7	25,21
404,2	28,41
404,6	24,295
405,1	16,752
405,5	17,924
406	20,952
406,5	18,838
406,9	21,01
407,4	16,895
407,8	14,038
408,3	18,01
408,7	22,581
409,2	28,781
409,6	30,438
410,1	28,867
410,6	34,095
411	34,638
411,5	39,267
411,9	33,238
412,4	26,981
412,8	27,152
413,3	27,524
413,7	28,324
414,2	29,667
414,7	30,095
415,1	34,81
415,6	40,038
416	37,095
416,5	42,152
416,9	43,352
417,4	57,067
417,8	55,438
418,3	61,352
418,8	65,695
419,2	73,61
419,7	73,895
420,1	76,352
420,6	73,752
421	74,181
421,5	75,924
421,9	70,867
422,4	74,781
422,8	80,952
423,3	86,61
423,8	84,61
424,2	85,952
424,7	88,61
425,1	91,924
425,6	90,095
426	89,552
426,5	84,381
426,9	87,61
427,4	89,495
427,9	89,438
428,3	94,467
428,8	95,124
429,2	95,924
429,7	95,867
430,1	96,067
430,6	98,695
431	99,867
431,5	103,095
431,9	109,095
432,4	109,895
432,8	117,381
433,3	117,152
433,8	120,695
434,2	122,61
434,7	123,01
435,1	124,01
435,6	135,724
436	143,238
436,5	155,495
436,9	159,924
437,4	165,695
437,8	175,895
438,3	182,81
438,8	188,41
439,2	192,01
439,7	191,838
440,1	198,667
440,6	210,467
441	218,038
441,5	227,895
441,9	233,238
442,4	244,924
442,8	259,352
443,3	272,267
443,7	282,781
444,2	294,324
444,7	303,124
445,1	318,952
445,6	329,238
446	345,067
446,5	356,867
446,9	372,438
447,4	383,61
447,8	407,324
448,3	425,924
448,7	439,467
449,2	453,524
449,6	473,81
450,1	482,495
450,6	504,724
451	514,61
451,5	538,152
451,9	563,667
452,4	588,467
452,8	606,667
453,3	642,152
453,7	665,21
454,2	704,495
454,6	722,667
455,1	746,438
455,5	769,067
456	798,067
456,4	820,81
456,9	851,495
457,3	869,41
457,8	900,352
458,3	929,667
458,7	964,152
459,2	994,752
459,6	1028,238
460,1	1059,61
460,5	1088,067
461	1114,495
461,4	1149,352
461,9	1180,638
462,3	1221,295
462,8	1254,41
463,2	1293,152
463,7	1334,238
464,1	1374,724
464,6	1413,21
465	1447,238
465,5	1480,21
466	1514,295
466,4	1548,152
466,9	1592,895
467,3	1632,267
467,8	1669,724
468,2	1713,324
468,7	1752,552
469,1	1799,838
469,6	1836,524
470	1870,21
470,5	1915,181
470,9	1957,581
471,4	1996,181
471,8	2037,61
472,3	2074,038
472,7	2119,524
473,2	2160,467
473,6	2194,552
474,1	2234,867
474,5	2272,352
475	2312,238
475,4	2347,781
475,9	2386,467
476,4	2425,781
476,8	2467,867
477,3	2508,324
477,7	2556,238
478,2	2596,61
478,6	2644,267
479,1	2679,81
479,5	2712,124
480	2742,41
480,4	2773,524
480,9	2802,524
481,3	2836,152
481,8	2867,752
482,2	2900,381
482,7	2941,924
483,1	2983,01
483,6	3010,695
484	3039,838
484,5	3077,438
484,9	3103,895
485,4	3130,467
485,8	3150,352
486,3	3179,095
486,7	3211,61
487,2	3248,781
487,6	3263,067
488,1	3287,952
488,5	3320,124
489	3352,124
489,4	3373,21
489,9	3401,781
490,4	3418,667
490,8	3445,581
491,3	3468,695
491,7	3477,638
492,2	3497,124
492,6	3506,095
493,1	3519,038
493,5	3529,238
494	3542,238
494,4	3553,181
494,9	3578,41
495,3	3586,524
495,8	3606,124
496,2	3618,81
496,7	3629,41
497,1	3633,038
497,6	3646,267
498	3654,867
498,5	3663,124
498,9	3673,838
499,4	3678,61
499,8	3686,667
500,3	3702,838
500,7	3714,038
501,2	3720,267
501,6	3726,81
502,1	3720,581
502,5	3727,295
503	3734,381
503,4	3742,324
503,9	3744,267
504,3	3745,638
504,8	3757,095
505,2	3770,581
505,7	3778,867
506,1	3787,552
506,6	3789,581
507	3794,038
507,5	3803,352
507,9	3806,752
508,4	3811,695
508,8	3810,552
509,3	3815,01
509,7	3821,695
510,2	3821,067
510,6	3819,467
511,1	3815,524
511,5	3812,895
512	3818,01
512,4	3813,352
512,9	3809,667
513,3	3804,552
513,8	3802,667
514,2	3799,467
514,7	3802,181
515,1	3795,638
515,6	3805,295
516	3801,181
516,5	3808,095
516,9	3810,152
517,4	3820,81
517,8	3820,295
518,3	3822,467
518,7	3815,067
519,2	3822,238
519,6	3829,781
520,1	3826,21
520,5	3828,581
521	3825,267
521,4	3825,41
521,9	3824,752
522,3	3818,152
522,8	3812,981
523,2	3818,41
523,7	3813,581
524,1	3818,895
524,6	3822,467
525	3824,524
525,5	3831,124
525,9	3831,895
526,4	3839,01
526,8	3838,981
527,3	3834,81
527,7	3842,267
528,2	3850,981
528,6	3849,438
529,1	3853,781
529,5	3850,752
530	3861,61
530,4	3871,438
530,9	3870,867
531,3	3868,981
531,8	3876,41
532,2	3877,838
532,6	3882,124
533,1	3875,095
533,5	3878,41
534	3884,61
534,4	3885,895
534,9	3891,724
535,3	3898,838
535,8	3898,667
536,2	3903,41
536,7	3906,895
537,1	3910,781
537,6	3919,724
538	3919,781
538,5	3917,867
538,9	3921,467
539,4	3927,781
539,8	3931,752
540,3	3939,752
540,7	3934,867
541,2	3936,581
541,6	3944,524
542,1	3951,895
542,5	3960,267
543	3962,724
543,4	3963,724
543,9	3978,61
544,3	3989,038
544,8	3994,552
545,2	4002,124
545,7	3999,581
546,1	4008,01
546,5	4010,61
547	4016,867
547,4	4015,638
547,9	4013,352
548,3	4018,581
548,8	4029,952
549,2	4034,981
549,7	4032,41
550,1	4031,867
550,6	4041,467
551	4052,638
551,5	4054,438
551,9	4060,152
552,4	4067,381
552,8	4078,781
553,3	4082,095
553,7	4088,295
554,2	4094,61
554,6	4105,524
555,1	4113,781
555,5	4114,067
555,9	4114,352
556,4	4120,438
556,8	4117,752
557,3	4115,438
557,7	4115,181
558,2	4120,838
558,6	4129,467
559,1	4141,667
559,5	4150,724
560	4162,924
560,4	4164,752
560,9	4168,924
561,3	4162,267
561,8	4167,981
562,2	4162,524
562,7	4166,038
563,1	4170,781
563,6	4179,267
564	4171,324
564,4	4176,781
564,9	4176,752
565,3	4184,61
565,8	4186,524
566,2	4185,381
566,7	4189,781
567,1	4199,638
567,6	4193,295
568	4184,61
568,5	4187,638
568,9	4179,524
569,4	4179,924
569,8	4171,867
570,3	4174,01
570,7	4176,838
571,1	4180,695
571,6	4179,181
572	4182,01
572,5	4173,81
572,9	4185,524
573,4	4181,267
573,8	4181,838
574,3	4186,467
574,7	4177,952
575,2	4176,295
575,6	4182,381
576,1	4176,352
576,5	4170,238
576,9	4165,295
577,4	4155,152
577,8	4155,038
578,3	4157,61
578,7	4148,238
579,2	4142,495
579,6	4144,124
580,1	4149,895
580,5	4147,695
581	4145,438
581,4	4131,324
581,9	4127,181
582,3	4117,324
582,7	4116,152
583,2	4099,467
583,6	4096,524
584,1	4088,952
584,5	4084,552
585	4076,238
585,4	4072,381
585,9	4055,924
586,3	4051,152
586,8	4044,038
587,2	4037,038
587,6	4027,581
588,1	4024,895
588,5	4022,381
589	4016,552
589,4	4013,895
589,9	4010,152
590,3	4004,724
590,8	3998,638
591,2	3985,895
591,7	3979,267
592,1	3973,01
592,5	3965,324
593	3952,467
593,4	3944,895
593,9	3938,438
594,3	3936,724
594,8	3926,238
595,2	3924,067
595,7	3920,181
596,1	3915,867
596,6	3912,667
597	3907,981
597,4	3896,752
597,9	3888,524
598,3	3886,038
598,8	3883,495
599,2	3879,095
599,7	3873,124
600,1	3865,81
600,6	3857,752
601	3851,952
601,4	3839,867
601,9	3819,152
602,3	3810,067
602,8	3804,667
603,2	3798,21
603,7	3796,695
604,1	3792,581
604,6	3787,181
605	3787,41
605,4	3777,952
605,9	3759,181
606,3	3750,667
606,8	3736,524
607,2	3720,41
607,7	3700,952
608,1	3693,924
608,6	3678,781
609	3670,924
609,4	3651,981
609,9	3641,438
610,3	3633,381
610,8	3625,781
611,2	3607,638
611,7	3591,667
612,1	3573,381
612,6	3566,495
613	3555,352
613,4	3538,152
613,9	3536,324
614,3	3526,981
614,8	3523,067
615,2	3519,324
615,7	3509,238
616,1	3493,152
616,6	3489,01
617	3466,352
617,4	3455,238
617,9	3440,581
618,3	3420,838
618,8	3410,21
619,2	3400,181
619,7	3376,952
620,1	3367,238
620,5	3344,095
621	3328,438
621,4	3312,467
621,9	3291,295
622,3	3277,495
622,8	3267,867
623,2	3254,324
623,6	3244,667
624,1	3232,667
624,5	3225,524
625	3217,352
625,4	3204,581
625,9	3191,867
626,3	3176,867
626,8	3161,381
627,2	3147,152
627,6	3125,295
628,1	3108,124
628,5	3096,581
629	3072,981
629,4	3060,552
629,9	3048,495
630,3	3030,324
630,7	3021,21
631,2	3009,467
631,6	2997,267
632,1	2989,924
632,5	2964,667
633	2943,495
633,4	2937,267
633,8	2924,295
634,3	2910,381
634,7	2884,352
635,2	2869,124
635,6	2852,41
636,1	2841,381
636,5	2819,952
636,9	2800,152
637,4	2783,838
637,8	2774,781
638,3	2766,124
638,7	2761,495
639,2	2745,352
639,6	2731,41
640	2721,267
640,5	2705,838
640,9	2695,438
641,4	2677,124
641,8	2666,438
642,2	2659,038
642,7	2655,381
643,1	2649,267
643,6	2633,524
644	2626,21
644,5	2616,095
644,9	2593,295
645,3	2574,867
645,8	2550,752
646,2	2529,181
646,7	2522,552
647,1	2499,324
647,6	2483,724
648	2482,01
648,4	2476,038
648,9	2475,324
649,3	2465,038
649,8	2448,095
650,2	2436,124
650,6	2434,438
651,1	2415,267
651,5	2406,952
652	2397,238
652,4	2385,152
652,9	2377,324
653,3	2363,467
653,7	2339,352
654,2	2327,095
654,6	2303,667
655,1	2284,067
655,5	2273,095
655,9	2260,324
656,4	2253,552
656,8	2249,152
657,3	2238,038
657,7	2228,781
658,2	2207,867
658,6	2196,952
659	2181,095
659,5	2169,981
659,9	2155,324
660,4	2137,41
660,8	2126,895
661,2	2113,895
661,7	2093,952
662,1	2079,867
662,6	2065,667
663	2047,21
663,4	2043,238
663,9	2029,495
664,3	2025,152
664,8	2021,495
665,2	2010,41
665,6	1996,438
666,1	1986,324
666,5	1971,438
667	1956,067
667,4	1946,41
667,9	1936,524
668,3	1930,467
668,7	1915,124
669,2	1902,838
669,6	1891,152
670,1	1882,552
670,5	1866,295
670,9	1845,038
671,4	1821,895
671,8	1807,638
672,3	1797,095
672,7	1788,381
673,1	1774,924
673,6	1767,667
674	1762,81
674,5	1758,895
674,9	1754,152
675,3	1741,752
675,8	1727,667
676,2	1713,067
676,7	1697,21
677,1	1681,381
677,5	1664,038
678	1651,895
678,4	1643,552
678,9	1634,21
679,3	1629,638
679,7	1626,295
680,2	1616,238
680,6	1608,924
681,1	1604,924
681,5	1591,781
681,9	1578,981
682,4	1573,467
682,8	1561,238
683,3	1554,752
683,7	1546,295
684,1	1528,752
684,6	1517,438
685	1516,267
685,5	1501,238
685,9	1487,381
686,3	1482,838
686,8	1480,724
687,2	1477,181
687,7	1476,381
688,1	1462,667
688,5	1452,124
689	1439,181
689,4	1423,524
689,9	1412,324
690,3	1395,952
690,7	1380,867
691,2	1371,61
691,6	1364,552
692	1356,295
692,5	1350,067
692,9	1340,867
693,4	1331,495
693,8	1321,324
694,2	1312,667
694,7	1302,41
695,1	1297,695
695,6	1287,724
696	1271,81
696,4	1271,752
696,9	1263,352
697,3	1255,81
697,8	1247,552
698,2	1244,81
698,6	1235,838
699,1	1230,724
699,5	1219,781
699,9	1219,867
700,4	1214,381
700,8	1212,81
701,3	1197,952
701,7	1189,781
702,1	1185,781
702,6	1176,295
703	1161,781
703,5	1154,152
703,9	1138,838
704,3	1137,01
704,8	1130,181
705,2	1114,952
705,6	1106,752
706,1	1099,867
706,5	1082,952
707	1079,695
707,4	1070,924
707,8	1065,295
708,3	1064,667
708,7	1058,324
709,2	1054,181
709,6	1053,381
710	1047,267
710,5	1032,067
710,9	1025,695
711,3	1016,01
711,8	1011,638
712,2	999,81
712,7	993,467
713,1	987,01
713,5	991,352
714	979,267
714,4	969,352
714,8	963,695
715,3	965,724
715,7	958,01
716,2	953,295
716,6	942,238
717	938,61
717,5	930,724
717,9	919,01
718,3	907,495
718,8	899,124
719,2	888,724
719,7	886,324
720,1	882,467
720,5	881,181
721	878,581
721,4	868,581
721,8	860,038
722,3	852,81
722,7	837,867
723,2	824,552
723,6	819,638
724	810,381
724,5	803,924
724,9	799,838
725,3	794,752
725,8	793,01
726,2	794,41
726,7	794,152
727,1	792,867
727,5	790,324
728	788,524
728,4	786,41
728,8	779,838
729,3	772,752
729,7	762,438
730,1	752,61
730,6	745,41
731	735,352
731,5	733,81
731,9	727,381
732,3	721,552
732,8	716,81
733,2	723,638
733,6	724,21
734,1	724,295
734,5	712,152
734,9	712,467
735,4	708,41
735,8	702,095
736,3	688,838
736,7	681,381
737,1	673,61
737,6	669,981
738	672,724
738,4	669,438
738,9	666,924
739,3	667,01
739,7	666,21
740,2	662,267
740,6	657,01
741,1	646,981
741,5	642,952
741,9	641,095
742,4	634,381
742,8	630,21
743,2	632,381
743,7	629,067
744,1	619,181
744,5	614,152
745	604,838
745,4	594,61
745,8	588,181
746,3	582,667
746,7	579,438
747,2	577,81
747,6	576,924
748	580,295
748,5	584,381
748,9	580,438
749,3	584,352
749,8	582,124
750,2	578,21
750,6	577,524
751,1	569,638
751,5	563,838
751,9	558,095
752,4	542,61
752,8	542,924
753,3	540,01
753,7	533,381
754,1	531,21
754,6	524,124
755	528,41
755,4	524,81
755,9	512,495
756,3	509,038
756,7	504,924
757,2	501,067
757,6	501,238
758	498,781
758,5	492,41
758,9	500,21
759,3	496,952
759,8	492,895
760,2	484,695
760,6	477,581
761,1	467,181
761,5	467,438
761,9	454,924
762,4	460,067
762,8	451,552
763,3	450,01
763,7	449,438
764,1	447,552
764,6	445,752
765	447,895
765,4	435,924
765,9	440,381
766,3	444,552
766,7	447,438
767,2	438,21
767,6	434,21
768	424,924
768,5	425,381
768,9	415,724
769,3	414,095
769,8	407,124
770,2	407,838
770,6	407,41
771,1	409,781
771,5	410,352
771,9	410,981
772,4	402,095
772,8	397,01
773,2	396,41
773,7	390,952
774,1	383,381
774,5	373,952
775	369,352
775,4	369,295
775,8	366,181
776,3	358,61
776,7	356,038
777,1	360,61
777,6	361,724
778	361,21
778,4	356,552
778,9	357,467
779,3	360,181
779,7	364,952
780,2	353,181
780,6	350,495
781	351,124
781,5	349,01
781,9	351,724
782,3	346,381
782,8	339,838
783,2	346,01
783,6	341,952
784,1	336,638
784,5	333,038
784,9	325,924
785,4	327,038
785,8	327,895
786,2	323,752
786,7	319,381
787,1	319,952
787,5	323,01
788	312,381
788,4	308,724
788,8	295,838
789,3	293,667
789,7	291,467
790,1	289,381
790,6	280,552
791	282,067
791,4	277,21
791,9	281,01
792,3	274,981
792,7	277,895
793,2	269,152
793,6	269,21
794	267,038
794,5	271,752
794,9	268,981
795,3	268,724
795,8	259,781
796,2	257,41
796,6	254,352
797,1	254,438
797,5	248,552
797,9	244,924
798,4	247,238
798,8	243,695
799,2	245,724
799,7	245,924
800,1	247,095
800,5	241,838
801	242,438
801,4	239,181
801,8	240,724
802,2	238,724
802,7	238,181
803,1	234,981
803,5	235,61
804	222,895
804,4	218,352
804,8	213,552
805,3	210,924
805,7	207,238
806,1	202,667
806,6	202,667
807	213,495
807,4	212,638
807,9	215,981
808,3	216,295
808,7	215,524
809,2	209,552
809,6	206,295
810	200,61
810,4	199,838
810,9	196,895
811,3	197,924
811,7	191,61
812,2	192,01
812,6	189,467
813	187,552
813,5	190,952
813,9	185,781
814,3	180,81
814,8	182,181
815,2	186,981
815,6	181,152
816,1	180,467
816,5	167,038
816,9	172,21
817,3	169,581
817,8	172,61
818,2	166,638
818,6	165,552
819,1	162,581
819,5	163,695
819,9	155,867
820,4	156,267
820,8	147,038
821,2	150,524
821,7	152,638
822,1	152,324
822,5	150,267
822,9	156,21
823,4	152,267
823,8	154,867
824,2	148,981
824,7	150,21
825,1	148,095
825,5	150,067
826	142,01
826,4	136,01
826,8	132,667
827,3	135,41
827,7	138,181
828,1	141,181
828,5	136,81
829	140,524
829,4	150,524
829,8	147,952
830,3	147,295
830,7	142,095
831,1	140,41
831,6	141,295
832	133,295
832,4	128,581
832,8	127,581
833,3	122,238
833,7	119,267
834,1	113,352
834,6	115,724
835	116,124
835,4	112,495
835,8	111,61
836,3	105,724
836,7	101,667
837,1	103,552
837,6	100,21
838	101,295
838,4	95,552
838,9	94,695
839,3	95,724
839,7	98,552
840,1	95,524
840,6	95,267
841	91,381
841,4	92,467
841,9	90,524
842,3	91,267
842,7	90,181
843,1	92,295
843,6	89,124
844	91,752
844,4	93,381
844,9	96,41
845,3	92,495
845,7	89,267
846,2	83,781
846,6	83,981
847	84,21
847,4	77,381
847,9	79,667
848,3	85,41
848,7	88,41
849,2	91,524
849,6	91,552
850	89,267
850,4	96,524
850,9	91,695
851,3	92,61
851,7	83,152
852,2	82,667
852,6	78,095
853	74,095
853,4	69,038
853,9	69,267
854,3	63,838
854,7	68,438
855,2	67,381
855,6	62,152
856	63,038
856,4	64,324
856,9	63,838
857,3	67,781
857,7	69,41
858,2	67,352
858,6	74,124
859	73,238
859,4	69,324
859,9	67,181
860,3	63,01
860,7	59,724
861,1	56,924
861,6	55,867
862	58,752
862,4	62,667
862,9	65,324
863,3	63,838
863,7	65,61
864,1	63,181
864,6	68,238
865	62,952
865,4	64,067
865,9	60,067
866,3	60,124
866,7	58,752
867,1	62,21
867,6	57,781
868	54,952
868,4	49,495
868,8	51,638
869,3	54,438
869,7	51,981
870,1	50,181
870,6	48,095
871	49,41
871,4	54,01
871,8	49,381
872,3	44,467
872,7	44,924
873,1	42,067
873,5	41,067
874	43,495
874,4	39,581
874,8	37,81
875,3	34,781
875,7	39,324
876,1	41,752
876,5	43,524
877	46,495
877,4	46,324
877,8	51,41
878,2	54,124
878,7	49,124
879,1	48,781
879,5	48,267
879,9	49,61
880,4	46,267
880,8	38,752
881,2	41,067
881,7	40,438
882,1	38,352
882,5	36,752
882,9	31,181
883,4	29,152
883,8	36,581
884,2	34,21
884,6	36,324
885,1	35,724
885,5	33,752
885,9	34,038
886,3	40,838
886,8	33,552
887,2	32,324
887,6	30,067
888	33,267
888,5	33,324
888,9	35,295
889,3	35,867
889,8	36,81
890,2	39,61
890,6	35,61
891	29,01
891,5	30,038
891,9	26,981
892,3	19,895
892,7	21,438
893,2	18,781
893,6	23,752
894	30,924
894,4	25,438
894,9	26,467
895,3	28,524
895,7	24,495
896,1	19,352
896,6	13,41
897	9,495
897,4	13,981
897,8	15,124
898,3	17,324
898,7	22,41
899,1	24,495
899,5	26,581
900	23,124
900,4	17,81
900,8	13,781
901,2	7,124
901,7	3,238
902,1	1,238
902,5	5,238
902,9	7,152
903,4	6,324
903,8	3,638
904,2	6,638
904,6	4,324
905,1	3,752
905,5	4,295
905,9	2,924
906,3	8,924
906,8	12,952
907,2	18,267
907,6	19,124
908	19,867
908,5	15,495
908,9	21,267
909,3	19,952
909,7	18,638
910,2	14,067
910,6	18,781
911	17,152
911,4	20,152
911,9	16,152
912,3	10,552
912,7	7,181
913,1	7,552
913,6	0,667
914	2,752
914,4	-7,39
914,8	-9,219
915,3	-9,876
915,7	-7,762
916,1	-12,705
916,5	-12,333
916,9	-10,419
917,4	-6,419
917,8	-1,676
918,2	1,81
918,6	3,41
919,1	6,267
919,5	9,781
919,9	12,41
920,3	14,638
920,8	16,467
921,2	17,724
921,6	17,267
922	13,695
922,5	12,524
922,9	8,238
923,3	7,21
923,7	-0,162
924,2	-1,819
924,6	-2,219
925	1,295
925,4	0,724
925,8	0,467
926,3	2,295
926,7	6,152
927,1	6,267
927,5	5,581
928	5,181
928,4	3,267
928,8	7,324
929,2	9,152
929,7	6,295
930,1	1,124
930,5	3,581
930,9	2,61
931,3	4,21
931,8	-3,762
932,2	-6,505
932,6	-7,59
933	-2,533
933,5	-2,39
933,9	-0,248
934,3	0,695
934,7	4,267
935,2	1,267
935,6	-4,162
936	-3,962
936,4	-4,705
936,8	-11,619
937,3	-17,819
937,7	-19,076
938,1	-16,762
938,5	-16,619
939	-14,59
939,4	-15,819
939,8	-8,905
940,2	-6,848
940,6	-7,648
941,1	-6,276
941,5	1,238
941,9	0,352
942,3	-0,79
942,8	-2,39
943,2	5,667
943,6	1,267
944	0,724
944,4	3,124
944,9	1,124
945,3	-4,476
945,7	-4,333
946,1	-5,59
946,6	-1,99
947	-8,419
947,4	-10,562
947,8	-9,19
948,2	-4,362
948,7	-3,99
949,1	-8,162
949,5	-9,419
949,9	-0,962
950,3	-4,105
950,8	-1,705
951,2	-6,076
951,6	-8,99
952	-7,705
952,5	-2,505
952,9	-7,79
953,3	-9,59
953,7	-13,19
954,1	-10,79
954,6	-6,305
955	-12,476
955,4	-14,448
955,8	-11,276
956,2	-6,333
956,7	-10,79
957,1	-8,79
957,5	-10,876
957,9	-11,133
958,3	-9,819
958,8	-17,819
959,2	-15,79
959,6	-12,105
960	-16,219
960,5	-14,305
960,9	-10,305
961,3	-10,933
961,7	-1,648
962,1	-7,733
962,6	-10,048
963	-8,648
963,4	-13,819
963,8	-12,19
964,2	-10,619
964,7	-15,505
965,1	-11,076
965,5	-11,333
965,9	-7,419
966,3	-6,276
966,8	-5,448
967,2	-11,99
967,6	-6,476
968	-9,933
968,4	-7,876
968,9	-12,076
969,3	-12,105
969,7	-13,333
970,1	-11,276
970,5	-16,533
971	-16,933
971,4	-15,448
971,8	-12,19
972,2	-6,733
972,6	-4,248
973,1	-7,39
973,5	-6,39
973,9	-4,619
974,3	-4,962
974,7	-2,362
975,2	-8,733
975,6	-11,533
976	-4,876
976,4	-1,248
976,8	-0,848
977,3	0,381
977,7	2,581
978,1	2,867
978,5	1,981
978,9	-1,905
979,4	-1,705
979,8	-2,305
980,2	2,267
980,6	-6,476
981	-6,362
981,5	-9,962
981,9	-5,733
982,3	-10,248
982,7	-14,105
983,1	-18,676
983,6	-15,333
984	-15,848
984,4	-8,762
984,8	-8,848
985,2	-10,848
985,6	-5,676
986,1	-3,848
986,5	-3,562
986,9	2,381
987,3	-0,333
987,7	-2,419
988,2	-4,99
988,6	-11,676
989	-13,619
989,4	-11,619
989,8	-18,676
990,3	-17,905
990,7	-18,762
991,1	-15,705
991,5	-5,705
991,9	-13,876
992,3	-18,076
992,8	-19,19
993,2	-20,076
993,6	-22,219
994	-22,762
994,4	-25,705
994,9	-21,419
995,3	-22,59
995,7	-22,305
996,1	-20,819
996,5	-19,705
996,9	-21,19
997,4	-28,933
997,8	-29,905
998,2	-31,19
998,6	-28,59
999	-35,876
999,5	-38,876
999,9	-37,505
1000,3	-31,619
1000,7	-29,619
1001,1	-21,79
1001,5	-26,19
1002	-16,019
1002,4	-10,333
1002,8	-3,419
1003,2	0,352
1003,6	2,467
1004	-3,676
1004,5	2,638
1004,9	1,238
1005,3	0,181
1005,7	-4,619
1006,1	-7,819
1006,6	-7,076
1007	-6,962
1007,4	-9,676
1007,8	-14,448
1008,2	-12,076
1008,6	-11,219
1009,1	-16,162
1009,5	-17,876
1009,9	-13,762
1010,3	-8,819
1010,7	-7,848
1011,1	-11,476
1011,6	-13,076
1012	-4,562
1012,4	-2,505
1012,8	-1,105
1013,2	-1,333
1013,6	-4,562
1014,1	-2,476
1014,5	0,952
1014,9	-1,705
1015,3	2,981
1015,7	-1,848
1016,1	-2,962
1016,6	3,552
1017	-3,362
1017,4	-5,962
1017,8	-12,848
1018,2	-22,162
1018,6	-17,39
1019,1	-23,39
1019,5	-27,733
1019,9	-20,848
1020,3	-19,019
1020,7	-15,905
1021,1	-14,562
1021,6	-17,048
1022	-8,933
1022,4	-8,448
1022,8	-11,362
1023,2	-18,105
1023,6	-13,448
1024,1	-14,162
1024,5	-17,105
1024,9	-18,219
1025,3	-18,019
1025,7	-22,562
1026,1	-14,219
1026,6	-17,619
1027	-10,533
1027,4	-15,848
1027,8	-22,19
1028,2	-26,676
1028,6	-21,476
1029	-26,362
1029,5	-25,362
1029,9	-28,79
1030,3	-22,848
1030,7	-19,476
1031,1	-16,248
1031,5	-20,705
1032	-16,848
1032,4	-13,819
1032,8	-17,19
1033,2	-15,505
1033,6	-14,619
1034	-10,79
1034,4	-2,99
1034,9	-4,533
1035,3	-7,19
1035,7	-9,848
1036,1	-14,219
1036,5	-13,99
1036,9	-18,39
1037,4	-27,133
1037,8	-28,933
1038,2	-32,848
1038,6	-30,933
1039	-29,79
1039,4	-33,105
1039,8	-27,876
1040,3	-19,733
1040,7	-19,619
1041,1	-15,39
1041,5	-15,276
1041,9	-9,333
1042,3	-6,476
1042,7	-11,219
1043,2	-10,819
1043,6	-10,019
1044	-16,248
1044,4	-18,076
1044,8	-20,562
1045,2	-22,19
1045,6	-22,848
1046,1	-22,333
1046,5	-24,533
1046,9	-19,476
1047,3	-15,762
1047,7	-16,133
1048,1	-15,762
1048,5	-12,19
1049	-14,448
1049,4	-15,076
1049,8	-12,762
1050,2	-14,876
1050,6	-18,733
1051	-21,533
1051,4	-22,848
1051,9	-20,276
1052,3	-23,362
1052,7	-34,562
1053,1	-32,476
1053,5	-30,476
1053,9	-23,362
1054,3	-23,219
1054,8	-26,962
1055,2	-17,476
1055,6	-4,476
1056	-4,305
1056,4	-7,419
1056,8	-9,962
1057,2	-5,762
1057,6	-5,048
1058,1	-6,99
1058,5	-17,019
1058,9	-18,733
1059,3	-16,733
1059,7	-16,905
1060,1	-18,305
1060,5	-22,819
1061	-23,276
1061,4	-19,019
1061,8	-17,105
1062,2	-16,962
1062,6	-17,99
1063	-20,448
1063,4	-16,505
1063,8	-20,533
1064,3	-16,762
1064,7	-14,333
1065,1	-15,962
1065,5	-13,962
1065,9	-8,048
1066,3	-11,19
1066,7	-9,876
1067,1	-9,876
1067,6	-12,562
1068	-6,476
1068,4	-10,848
1068,8	-13,99
1069,2	-12,59
1069,6	-6,476
1070	-9,905
1070,4	-8,79
1070,9	-8,333
1071,3	-6,905
1071,7	-8,533
1072,1	-8,648
1072,5	-11,676
1072,9	-8,276
1073,3	-7,476
1073,7	-10,219
1074,2	-10,276
1074,6	-15,619
1075	-10,076
1075,4	-9,933
1075,8	-13,219
1076,2	-15,59
1076,6	-20,876
1077	-18,533
1077,5	-13,362
1077,9	-14,933
1078,3	-12,248
1078,7	-8,848
1079,1	-4,505
1079,5	-1,048
1079,9	-3,933
1080,3	-4,619
1080,7	-3,876
1081,2	-8,819
1081,6	-9,819
1082	-12,362
1082,4	-13,705
1082,8	-12,905
1083,2	-11,048
1083,6	-13,848
1084	-10,276
1084,5	-8,562
1084,9	-6,105
1085,3	-1,276
1085,7	-0,733
1086,1	-2,962
1086,5	-2,562
1086,9	-6,048
1087,3	-6,476
1087,7	-9,419
1088,2	-9,533
1088,6	-15,162
1089	-14,505
1089,4	-11,076
1089,8	-9,676
1090,2	-11,962
1090,6	-14,505
1091	-18,476
1091,4	-11,39
1091,9	-11,105
1092,3	-12,933
1092,7	-7,962
1093,1	-5,59
1093,5	-2,676
1093,9	0,524
1094,3	-2,705
1094,7	2,352
1095,1	-2,562
1095,5	-4,562
1096	-4,933
1096,4	-1,505
1096,8	-5,505
1097,2	-4,419
1097,6	-9,848
1098	-5,248
1098,4	-8,819
1098,8	-12,962
1099,2	-17,276
1099,6	-15,448
1100,1	-15,79
1100,5	-12,419
1100,9	-10,848
1101,3	-10,762
1101,7	-7,905
1102,1	-10,619
1102,5	-9,533
1102,9	-9,19
1103,3	-11,733
1103,7	-11,562
1104,2	-11,619
1104,6	-12,019
1105	-8,99
1105,4	-8,305
1105,8	-5,705
1106,2	-4,619
1106,6	-5,333
1107	-3,505
1107,4	-2,667
1107,8	-1,093
1108,3	0,417
