Data from Subt2_06.txt Node
Date: Thu Aug 24 16:32:03 MSK 2023
User: vat
Spectrometer: MAYP114033
Trigger mode: 0
Integration Time (sec): 1,000000E0
Scans to average: 5
Electric dark correction enabled: true
Nonlinearity correction enabled: false
Boxcar width: 3
XAxis mode: Wavelengths
Number of Pixels in Spectrum: 2068
>>>>>Begin Spectral Data<<<<<
199,4	0,417
199,9	1,167
200,4	5,867
200,8	3,881
201,3	3,167
201,8	7,081
202,2	1,338
202,7	2,024
203,2	-0,148
203,6	-5,69
204,1	-3,633
204,6	-1,49
205	-2,319
205,5	7,51
206	10,567
206,4	14,367
206,9	18,852
207,4	19,338
207,8	18,881
208,3	16,995
208,8	10,195
209,2	13,081
209,7	12,967
210,2	15,967
210,6	15,167
211,1	17,024
211,5	15,595
212	18,11
212,5	13,481
212,9	12,738
213,4	5,138
213,9	6,738
214,3	3,767
214,8	6,481
215,3	11,881
215,7	7,967
216,2	7,024
216,7	14,681
217,1	12,795
217,6	11,538
218,1	4,91
218,5	4,167
219	7,71
219,5	5,995
219,9	-0,433
220,4	3,224
220,9	4,652
221,3	13,424
221,8	8,138
222,3	8,881
222,7	15,052
223,2	14,624
223,6	9,481
224,1	7,767
224,6	9,31
225	11,624
225,5	9,395
226	9,195
226,4	3,91
226,9	7,652
227,4	11,938
227,8	7,081
228,3	8,881
228,8	12,767
229,2	10,138
229,7	18,567
230,2	17,367
230,6	20,024
231,1	18,481
231,5	17,538
232	14,367
232,5	14,11
232,9	15,51
233,4	19,91
233,9	16,567
234,3	20,795
234,8	15,052
235,3	17,195
235,7	17,281
236,2	22,71
236,7	17,138
237,1	19,481
237,6	18,624
238,1	24,681
238,5	24,281
239	22,624
239,4	15,081
239,9	17,51
240,4	15,91
240,8	13,881
241,3	17,481
241,8	19,938
242,2	19,881
242,7	19,91
243,2	16,91
243,6	18,452
244,1	21,195
244,6	13,652
245	15,824
245,5	17,938
245,9	18,852
246,4	20,967
246,9	15,138
247,3	11,424
247,8	12,024
248,3	6,367
248,7	6,738
249,2	8,367
249,7	8,024
250,1	9,452
250,6	9,11
251	12,252
251,5	13,681
252	11,967
252,4	5,481
252,9	3,881
253,4	1,452
253,8	10,252
254,3	9,224
254,8	4,795
255,2	3,281
255,7	7,652
256,1	9,91
256,6	13,538
257,1	6,881
257,5	6,624
258	11,91
258,5	10,995
258,9	10,052
259,4	6,881
259,9	6,424
260,3	2,881
260,8	2,795
261,2	0,624
261,7	-1,005
262,2	2,452
262,6	3,995
263,1	5,967
263,6	7,024
264	7,252
264,5	3,052
264,9	8,91
265,4	8,195
265,9	11,738
266,3	8,31
266,8	7,795
267,3	9,481
267,7	16,852
268,2	17,167
268,7	15,024
269,1	13,767
269,6	16,481
270	20,281
270,5	18,738
271	18,138
271,4	13,224
271,9	17,167
272,4	10,681
272,8	16,167
273,3	15,852
273,7	14,224
274,2	10,938
274,7	20,995
275,1	16,938
275,6	24,081
276,1	20,795
276,5	22,367
277	21,767
277,4	24,024
277,9	17,481
278,4	15,767
278,8	14,167
279,3	11,881
279,8	3,567
280,2	5,452
280,7	5,881
281,1	7,595
281,6	8,567
282,1	9,91
282,5	9,452
283	8,681
283,4	8,681
283,9	2,395
284,4	4,738
284,8	8,081
285,3	6,681
285,8	11,367
286,2	19,024
286,7	15,91
287,1	19,11
287,6	13,881
288,1	8,195
288,5	10,595
289	10,824
289,5	7,967
289,9	10,938
290,4	10,224
290,8	9,91
291,3	9,738
291,8	5,195
292,2	4,224
292,7	2,652
293,1	7,995
293,6	12,081
294,1	13,31
294,5	15,681
295	17,167
295,5	8,995
295,9	12,11
296,4	4,367
296,8	2,71
297,3	4,852
297,8	3,367
298,2	2,538
298,7	8,024
299,1	9,995
299,6	11,652
300,1	11,652
300,5	14,395
301	16,824
301,5	17,938
301,9	18,71
302,4	11,395
302,8	13,91
303,3	13,738
303,8	8,367
304,2	7,967
304,7	7,51
305,1	7,395
305,6	11,252
306,1	9,51
306,5	8,824
307	13,824
307,4	9,11
307,9	10,681
308,4	8,424
308,8	14,71
309,3	17,681
309,8	14,052
310,2	11,11
310,7	15,538
311,1	16,852
311,6	19,51
312,1	16,31
312,5	13,138
313	20,338
313,4	18,51
313,9	12,795
314,4	8,938
314,8	7,338
315,3	6,681
315,7	5,538
316,2	1,652
316,7	6,652
317,1	13,71
317,6	17,338
318	15,967
318,5	12,852
319	17,767
319,4	18,652
319,9	16,224
320,3	15,195
320,8	14,538
321,3	18,281
321,7	18,652
322,2	18,538
322,6	18,338
323,1	17,938
323,6	15,31
324	12,852
324,5	8,167
324,9	6,795
325,4	6,395
325,9	7,538
326,3	8,91
326,8	9,424
327,2	9,795
327,7	16,624
328,2	18,681
328,6	11,367
329,1	15,51
329,5	13,281
330	12,424
330,5	19,567
330,9	11,252
331,4	13,481
331,8	13,481
332,3	6,024
332,8	4,738
333,2	4,938
333,7	1,081
334,1	4,881
334,6	-2,176
335,1	0,338
335,5	4,195
336	6,481
336,4	12,024
336,9	11,681
337,4	16,252
337,8	22,338
338,3	21,738
338,7	22,595
339,2	19,195
339,7	16,424
340,1	14,11
340,6	12,167
341	13,452
341,5	20,281
342	24,167
342,4	24,11
342,9	23,71
343,3	24,624
343,8	22,424
344,2	21,567
344,7	21,167
345,2	17,824
345,6	23,967
346,1	25,71
346,5	33,167
347	30,71
347,5	31,424
347,9	27,852
348,4	20,767
348,8	17,281
349,3	14,681
349,8	6,081
350,2	9,681
350,7	10,824
351,1	15,995
351,6	30,167
352	28,852
352,5	35,538
353	38,567
353,4	42,595
353,9	46,767
354,3	47,081
354,8	46,852
355,3	58,338
355,7	69,11
356,2	86,052
356,6	96,452
357,1	110,024
357,5	130,51
358	154,024
358,5	176,252
358,9	200,452
359,4	221,11
359,8	256,567
360,3	293,538
360,8	335,681
361,2	375,767
361,7	431,138
362,1	487,367
362,6	550,881
363	612,281
363,5	680,167
364	743,338
364,4	818,967
364,9	896,281
365,3	966,538
365,8	1038,624
366,3	1104,995
366,7	1166,424
367,2	1222,481
367,6	1263,738
368,1	1283,567
368,5	1301,567
369	1307,652
369,5	1308,338
369,9	1293,824
370,4	1273,767
370,8	1244,738
371,3	1214,338
371,7	1171,567
372,2	1123,081
372,7	1064,71
373,1	1010,138
373,6	946,938
374	884,252
374,5	818,367
374,9	765,167
375,4	705,395
375,9	655,681
376,3	603,138
376,8	557,71
377,2	514,738
377,7	480,31
378,2	438,11
378,6	410,51
379,1	378,281
379,5	346,195
380	319,91
380,4	290,91
380,9	264,138
381,4	247,795
381,8	229,024
382,3	207,367
382,7	196,138
383,2	186,91
383,6	182,024
384,1	167,395
384,6	156,881
385	145,652
385,5	141,195
385,9	124,91
386,4	112,167
386,8	102,967
387,3	98,252
387,7	86,31
388,2	80,681
388,7	72,081
389,1	76,481
389,6	74,395
390	66,024
390,5	56,538
390,9	54,424
391,4	51,91
391,9	54,138
392,3	52,195
392,8	52,481
393,2	53,995
393,7	57,195
394,1	56,681
394,6	48,852
395,1	47,338
395,5	41,395
396	37,052
396,4	31,852
396,9	38,195
397,3	31,738
397,8	39,967
398,2	38,567
398,7	45,995
399,2	47,624
399,6	51,452
400,1	46,195
400,5	55,624
401	52,652
401,4	48,852
401,9	46,052
402,4	43,824
402,8	40,024
403,3	38,881
403,7	35,424
404,2	31,424
404,6	31,852
405,1	34,338
405,5	35,11
406	38,767
406,5	43,967
406,9	49,538
407,4	58,338
407,8	64,795
408,3	65,31
408,7	70,138
409,2	76,367
409,6	82,252
410,1	87,538
410,6	88,738
411	98,11
411,5	102,138
411,9	109,824
412,4	116,738
412,8	118,167
413,3	124,567
413,7	134,224
414,2	141,224
414,7	151,652
415,1	159,052
415,6	169,024
416	182,31
416,5	196,595
416,9	210,652
417,4	218,567
417,8	238,138
418,3	252,395
418,8	266,31
419,2	280,424
419,7	292,624
420,1	308,852
420,6	328,452
421	336,938
421,5	354,652
421,9	370,967
422,4	386,767
422,8	403,91
423,3	419,024
423,8	431,224
424,2	457,024
424,7	480,824
425,1	505,481
425,6	537,624
426	561,624
426,5	588,11
426,9	623,967
427,4	651,51
427,9	675,652
428,3	709,652
428,8	733,081
429,2	765,31
429,7	802,224
430,1	838,167
430,6	880,881
431	928,852
431,5	974,224
431,9	1030,824
432,4	1086,224
432,8	1142,395
433,3	1201,91
433,8	1258,881
434,2	1318,881
434,7	1379,31
435,1	1440,538
435,6	1502,224
436	1571,595
436,5	1642,424
436,9	1714,767
437,4	1795,938
437,8	1883,652
438,3	1963,91
438,8	2065,138
439,2	2159,967
439,7	2259,081
440,1	2355,795
440,6	2456,081
441	2560,395
441,5	2680,652
441,9	2784,252
442,4	2904,652
442,8	3031,224
443,3	3159,795
443,7	3294,481
444,2	3434,252
444,7	3569,824
445,1	3717,224
445,6	3860,51
446	3997,967
446,5	4155,052
446,9	4310,624
447,4	4461,338
447,8	4620,367
448,3	4788,11
448,7	4952,595
449,2	5134,424
449,6	5309,938
450,1	5489,481
450,6	5675,967
451	5859,681
451,5	6052,338
451,9	6252,995
452,4	6454,995
452,8	6665,595
453,3	6871,081
453,7	7081,995
454,2	7306,824
454,6	7517,538
455,1	7734,11
455,5	7947,538
456	8155,252
456,4	8381,167
456,9	8613,624
457,3	8846,881
457,8	9091,31
458,3	9323,395
458,7	9570,31
459,2	9829,967
459,6	10066,481
460,1	10308,138
460,5	10553,881
461	10791,224
461,4	11043,081
461,9	11285,452
462,3	11526,138
462,8	11790,795
463,2	12038,252
463,7	12289,367
464,1	12545,395
464,6	12799,824
465	13047,367
465,5	13293,081
466	13538,91
466,4	13790,195
466,9	14036,595
467,3	14279,081
467,8	14517,424
468,2	14773,195
468,7	15024,024
469,1	15263,081
469,6	15495,938
470	15725,967
470,5	15963,195
470,9	16202,481
471,4	16426,138
471,8	16648,624
472,3	16859,424
472,7	17080,452
473,2	17300,138
473,6	17510,567
474,1	17704,624
474,5	17901,967
475	18103,11
475,4	18301,195
475,9	18504,31
476,4	18689,767
476,8	18864,624
477,3	19050,881
477,7	19219,51
478,2	19372,195
478,6	19535,595
479,1	19667,252
479,5	19806,652
480	19949,138
480,4	20068,338
480,9	20200,367
481,3	20324,167
481,8	20441,567
482,2	20553,11
482,7	20662,052
483,1	20759,624
483,6	20854,567
484	20917,795
484,5	20987,852
484,9	21051,424
485,4	21109,967
485,8	21150,881
486,3	21201,081
486,7	21253,338
487,2	21304,595
487,6	21351,624
488,1	21373,595
488,5	21405,052
489	21435,052
489,4	21441,71
489,9	21432,424
490,4	21433,995
490,8	21412,052
491,3	21396,967
491,7	21358,852
492,2	21327,367
492,6	21286,452
493,1	21250,338
493,5	21197,024
494	21156,595
494,4	21097,795
494,9	21044,452
495,3	20971,738
495,8	20905,024
496,2	20836,11
496,7	20766,995
497,1	20686,938
497,6	20618,481
498	20544,71
498,5	20456,195
498,9	20372,424
499,4	20282,395
499,8	20187,995
500,3	20082,91
500,7	19989,795
501,2	19868,195
501,6	19772,452
502,1	19656,795
502,5	19539,881
503	19425,795
503,4	19315,195
503,9	19181,424
504,3	19076,795
504,8	18941,624
505,2	18824,91
505,7	18687,51
506,1	18543,138
506,6	18386,995
507	18247,938
507,5	18107,167
507,9	17977,652
508,4	17823,71
508,8	17685,624
509,3	17547,881
509,7	17425,624
510,2	17279,481
510,6	17127,395
511,1	16977,852
511,5	16812,852
512	16671,995
512,4	16521,91
512,9	16355,938
513,3	16200,481
513,8	16048,167
514,2	15889,11
514,7	15740,51
515,1	15582,367
515,6	15426,71
516	15270,224
516,5	15108,652
516,9	14952,852
517,4	14807,281
517,8	14662,224
518,3	14510,081
518,7	14367,138
519,2	14227,624
519,6	14091,338
520,1	13938,51
520,5	13787,567
521	13634,052
521,4	13490,881
521,9	13338,052
522,3	13187,11
522,8	13034,938
523,2	12887,11
523,7	12740,338
524,1	12609,91
524,6	12469,224
525	12337,395
525,5	12201,995
525,9	12055,767
526,4	11929,538
526,8	11795,31
527,3	11665,881
527,7	11533,424
528,2	11401,367
528,6	11275,881
529,1	11167,395
529,5	11047,995
530	10928,71
530,4	10803,138
530,9	10682,624
531,3	10564,195
531,8	10446,967
532,2	10331,595
532,6	10218,367
533,1	10098,052
533,5	9983,395
534	9865,195
534,4	9747,11
534,9	9632,967
535,3	9524,51
535,8	9411,567
536,2	9315,224
536,7	9214,71
537,1	9116,567
537,6	9011,081
538	8920,767
538,5	8820,167
538,9	8717,252
539,4	8615,252
539,8	8518,567
540,3	8427,395
540,7	8342,71
541,2	8235,11
541,6	8148,795
542,1	8069,424
542,5	7986,995
543	7906,252
543,4	7818,11
543,9	7730,138
544,3	7654,024
544,8	7576,481
545,2	7496,881
545,7	7416,967
546,1	7342,338
546,5	7265,395
547	7188,767
547,4	7121,167
547,9	7042,138
548,3	6959,767
548,8	6887,967
549,2	6812,252
549,7	6749,224
550,1	6689,395
550,6	6623,424
551	6559,795
551,5	6502,91
551,9	6444,252
552,4	6389,852
552,8	6323,767
553,3	6265,595
553,7	6210,681
554,2	6146,052
554,6	6094,938
555,1	6034,024
555,5	5972,538
555,9	5926,052
556,4	5873,367
556,8	5813,567
557,3	5759,024
557,7	5707,624
558,2	5660,167
558,6	5607,195
559,1	5552,395
559,5	5492,767
560	5444,938
560,4	5402,252
560,9	5348,338
561,3	5290,967
561,8	5242,338
562,2	5195,624
562,7	5156,138
563,1	5114,51
563,6	5074,281
564	5038,252
564,4	4992,167
564,9	4951,967
565,3	4910,652
565,8	4868,795
566,2	4826,195
566,7	4782,824
567,1	4744,51
567,6	4709,195
568	4669,852
568,5	4634,995
568,9	4595,281
569,4	4560,624
569,8	4527,51
570,3	4479,195
570,7	4445,967
571,1	4414,052
571,6	4377,852
572	4350,367
572,5	4309,738
572,9	4277,967
573,4	4246,767
573,8	4216,681
574,3	4180,91
574,7	4149,852
575,2	4112,395
575,6	4083,652
576,1	4053,367
576,5	4020,052
576,9	3990,652
577,4	3960,224
577,8	3922,052
578,3	3889,281
578,7	3859,11
579,2	3823,11
579,6	3793,167
580,1	3758,138
580,5	3728,538
581	3707,91
581,4	3681,767
581,9	3658,624
582,3	3621,652
582,7	3596,881
583,2	3569,538
583,6	3543,824
584,1	3516,11
584,5	3487,71
585	3459,338
585,4	3439,338
585,9	3419,224
586,3	3398,681
586,8	3374,938
587,2	3345,138
587,6	3321,938
588,1	3305,138
588,5	3286,995
589	3258,11
589,4	3227,138
589,9	3204,224
590,3	3188,624
590,8	3170,481
591,2	3143,795
591,7	3120,681
592,1	3101,052
592,5	3094,738
593	3077,624
593,4	3049,367
593,9	3025,652
594,3	3009,938
594,8	2989,652
595,2	2974,881
595,7	2951,538
596,1	2935,024
596,6	2920,481
597	2915,624
597,4	2892,738
597,9	2874,738
598,3	2856,71
598,8	2841,824
599,2	2824,31
599,7	2809,71
600,1	2786,71
600,6	2770,138
601	2759,795
601,4	2741,167
601,9	2725,767
602,3	2708,967
602,8	2694,938
603,2	2676,195
603,7	2655,795
604,1	2640,424
604,6	2623,51
605	2599,51
605,4	2581,995
605,9	2563,338
606,3	2547,281
606,8	2535,281
607,2	2514,652
607,7	2497,11
608,1	2487,481
608,6	2474,481
609	2456,481
609,4	2442,052
609,9	2428,51
610,3	2416,51
610,8	2405,995
611,2	2388,424
611,7	2362,081
612,1	2350,395
612,6	2330,367
613	2312,681
613,4	2297,824
613,9	2274,967
614,3	2261,138
614,8	2254,138
615,2	2242,167
615,7	2234,024
616,1	2222,081
616,6	2209,252
617	2206,167
617,4	2188,881
617,9	2178,51
618,3	2161,91
618,8	2147,624
619,2	2132,395
619,7	2107,595
620,1	2094,195
620,5	2084,567
621	2067,11
621,4	2055,481
621,9	2040,938
622,3	2037,024
622,8	2028,452
623,2	2004,71
623,6	1995,938
624,1	1979,538
624,5	1967,138
625	1956,31
625,4	1931,452
625,9	1923,167
626,3	1918,367
626,8	1901,252
627,2	1894,052
627,6	1876,567
628,1	1858,081
628,5	1849,252
629	1831,224
629,4	1819,31
629,9	1807,567
630,3	1796,852
630,7	1790,338
631,2	1778,967
631,6	1762,338
632,1	1755,452
632,5	1743,11
633	1728,652
633,4	1716,395
633,8	1699,795
634,3	1686,824
634,7	1678,024
635,2	1666,052
635,6	1654,51
636,1	1645,567
636,5	1626,567
636,9	1615,367
637,4	1605,052
637,8	1592,481
638,3	1575,51
638,7	1559,995
639,2	1544,624
639,6	1535,395
640	1523,424
640,5	1522,224
640,9	1515,538
641,4	1518,081
641,8	1510,11
642,2	1510,195
642,7	1506,338
643,1	1496,795
643,6	1482,452
644	1472,538
644,5	1461,31
644,9	1453,567
645,3	1438,91
645,8	1424,224
646,2	1420,767
646,7	1410,681
647,1	1401,195
647,6	1386,71
648	1379,11
648,4	1369,195
648,9	1369,195
649,3	1352,338
649,8	1345,224
650,2	1337,652
650,6	1329,31
651,1	1318,367
651,5	1308,424
652	1293,881
652,4	1290,824
652,9	1275,11
653,3	1262,624
653,7	1255,795
654,2	1249,995
654,6	1242,795
655,1	1240,795
655,5	1238,138
655,9	1241,424
656,4	1238,567
656,8	1230,224
657,3	1223,538
657,7	1212,51
658,2	1200,252
658,6	1183,91
659	1171,31
659,5	1161,795
659,9	1153,31
660,4	1143,595
660,8	1134,967
661,2	1125,138
661,7	1123,824
662,1	1120,052
662,6	1108,138
663	1103,567
663,4	1096,138
663,9	1099,252
664,3	1092,595
664,8	1078,938
665,2	1064,224
665,6	1053,995
666,1	1041,167
666,5	1028,967
667	1011,424
667,4	1001,167
667,9	994,452
668,3	990,367
668,7	990,167
669,2	983,681
669,6	985,595
670,1	980,71
670,5	975,31
670,9	969,567
671,4	960,767
671,8	952,852
672,3	948,767
672,7	936,395
673,1	929,71
673,6	922,71
674	921,138
674,5	917,367
674,9	911,367
675,3	903,31
675,8	897,91
676,2	889,681
676,7	883,081
677,1	871,995
677,5	862,652
678	857,852
678,4	849,967
678,9	845,595
679,3	839,31
679,7	838,852
680,2	832,195
680,6	824,795
681,1	816,91
681,5	808,567
681,9	793,995
682,4	793,395
682,8	782,91
683,3	779,567
683,7	776,395
684,1	774,567
684,6	770,138
685	768,738
685,5	759,71
685,9	750,538
686,3	738,024
686,8	728,51
687,2	718,881
687,7	711,538
688,1	702,338
688,5	694,281
689	693,824
689,4	693,224
689,9	690,338
690,3	682,052
690,7	681,881
691,2	681,567
691,6	680,252
692	671,967
692,5	667,452
692,9	667,624
693,4	668,367
693,8	658,567
694,2	656,767
694,7	652,31
695,1	650,538
695,6	648,052
696	642,11
696,4	635,395
696,9	636,052
697,3	622,652
697,8	617,481
698,2	617,824
698,6	606,338
699,1	598,167
699,5	591,71
699,9	582,967
700,4	584,967
700,8	577,167
701,3	566,11
701,7	566,138
702,1	563,852
702,6	564,595
703	561,71
703,5	557,395
703,9	558,938
704,3	560,395
704,8	558,424
705,2	556,71
705,6	555,167
706,1	546,652
706,5	545,138
707	537,824
707,4	530,224
707,8	523,252
708,3	513,767
708,7	505,624
709,2	506,595
709,6	498,481
710	497,281
710,5	494,738
710,9	492,995
711,3	490,595
711,8	485,681
712,2	489,024
712,7	492,681
713,1	491,91
713,5	488,195
714	484,538
714,4	483,167
714,8	478,367
715,3	473,567
715,7	467,738
716,2	460,31
716,6	456,195
717	452,395
717,5	451,424
717,9	448,567
718,3	440,881
718,8	431,681
719,2	430,91
719,7	430,624
720,1	423,367
720,5	418,624
721	418,738
721,4	418,767
721,8	418,11
722,3	409,938
722,7	408,081
723,2	408,081
723,6	400,624
724	394,852
724,5	386,91
724,9	381,167
725,3	382,424
725,8	375,681
726,2	369,995
726,7	373,538
727,1	369,224
727,5	374,252
728	371,252
728,4	370,91
728,8	367,481
729,3	369,481
729,7	362,767
730,1	361,138
730,6	354,595
731	354,31
731,5	352,824
731,9	347,338
732,3	342,595
732,8	341,052
733,2	333,395
733,6	328,424
734,1	325,91
734,5	322,224
734,9	318,795
735,4	321,138
735,8	320,195
736,3	325,481
736,7	325,738
737,1	323,024
737,6	318,852
738	321,795
738,4	319,338
738,9	318,852
739,3	315,881
739,7	319,338
740,2	319,452
740,6	319,31
741,1	314,481
741,5	316,195
741,9	309,652
742,4	306,995
742,8	302,767
743,2	300,824
743,7	300,995
744,1	301,167
744,5	294,881
745	296,31
745,4	294,367
745,8	288,224
746,3	288,31
746,7	280,481
747,2	274,024
747,6	271,281
748	265,481
748,5	264,424
748,9	263,538
749,3	259,195
749,8	262,595
750,2	270,081
750,6	263,567
751,1	262,767
751,5	263,91
751,9	260,852
752,4	261,367
752,8	252,681
753,3	245,824
753,7	248,738
754,1	247,91
754,6	241,938
755	242,681
755,4	237,31
755,9	238,624
756,3	236,795
756,7	234,51
757,2	233,824
757,6	233,967
758	228,424
758,5	228,052
758,9	229,338
759,3	224,195
759,8	219,938
760,2	219,195
760,6	218,138
761,1	222,767
761,5	218,938
761,9	208,824
762,4	211,91
762,8	212,567
763,3	209,224
763,7	211,481
764,1	203,595
764,6	212,395
765	219,567
765,4	217,795
765,9	217,395
766,3	217,681
766,7	215,138
767,2	214,481
767,6	210,595
768	205,138
768,5	205,052
768,9	206,252
769,3	205,595
769,8	204,281
770,2	209,195
770,6	203,938
771,1	203,91
771,5	205,367
771,9	203,967
772,4	195,967
772,8	189,11
773,2	181,538
773,7	178,538
774,1	178,31
774,5	171,338
775	169,367
775,4	173,595
775,8	179,852
776,3	179,024
776,7	178,167
777,1	177,881
777,6	180,138
778	174,167
778,4	175,138
778,9	170,538
779,3	170,167
779,7	172,624
780,2	172,567
780,6	174,881
781	173,824
781,5	173,71
781,9	171,795
782,3	173,11
782,8	172,538
783,2	174,081
783,6	168,395
784,1	169,338
784,5	163,224
784,9	158,624
785,4	154,71
785,8	147,795
786,2	141,624
786,7	144,51
787,1	144,081
787,5	147,51
788	147,852
788,4	148,567
788,8	146,71
789,3	142,224
789,7	133,71
790,1	135,052
790,6	129,252
791	128,91
791,4	118,595
791,9	123,852
792,3	127,024
792,7	125,681
793,2	122,452
793,6	119,081
794	118,738
794,5	127,795
794,9	127,367
795,3	127,281
795,8	135,138
796,2	136,424
796,6	144,452
797,1	144,052
797,5	142,024
797,9	137,624
798,4	136,881
798,8	131,538
799,2	130,595
799,7	130,71
800,1	131,424
800,5	129,224
801	129,167
801,4	127,338
801,8	131,452
802,2	127,081
802,7	119,71
803,1	117,71
803,5	120,595
804	122,11
804,4	123,595
804,8	121,052
805,3	119,938
805,7	120,452
806,1	114,967
806,6	109,367
807	107,31
807,4	104,481
807,9	103,538
808,3	110,195
808,7	110,224
809,2	107,167
809,6	107,91
810	103,567
810,4	105,938
810,9	103,538
811,3	99,281
811,7	100,538
812,2	103,595
812,6	103,338
813	105,195
813,5	100,31
813,9	98,652
814,3	94,167
814,8	93,567
815,2	95,624
815,6	97,281
816,1	96,652
816,5	95,481
816,9	93,852
817,3	96,138
817,8	89,938
818,2	93,824
818,6	92,738
819,1	88,71
819,5	89,338
819,9	89,195
820,4	87,995
820,8	89,567
821,2	80,052
821,7	79,824
822,1	86,081
822,5	82,024
822,9	80,624
823,4	81,938
823,8	80,852
824,2	83,881
824,7	82,852
825,1	82,452
825,5	80,995
826	78,11
826,4	80,967
826,8	80,281
827,3	83,424
827,7	81,567
828,1	79,31
828,5	77,367
829	79,138
829,4	78,252
829,8	80,138
830,3	75,395
830,7	75,967
831,1	70,338
831,6	72,995
832	73,31
832,4	65,71
832,8	60,31
833,3	55,71
833,7	56,795
834,1	63,71
834,6	65,481
835	66,481
835,4	69,481
835,8	75,367
836,3	81,167
836,7	80,938
837,1	74,738
837,6	74,081
838	72,51
838,4	69,481
838,9	62,167
839,3	62,252
839,7	58,51
840,1	57,852
840,6	54,881
841	54,681
841,4	52,881
841,9	55,824
842,3	57,452
842,7	59,424
843,1	58,281
843,6	58,824
844	60,652
844,4	63,224
844,9	65,224
845,3	64,538
845,7	60,481
846,2	61,338
846,6	60,367
847	61,624
847,4	59,795
847,9	57,281
848,3	59,481
848,7	58,367
849,2	62,595
849,6	67,024
850	59,681
850,4	60,967
850,9	60,195
851,3	52,738
851,7	56,824
852,2	51,367
852,6	52,081
853	50,195
853,4	53,71
853,9	55,252
854,3	60,481
854,7	52,138
855,2	51,91
855,6	44,11
856	47,052
856,4	43,967
856,9	45,424
857,3	41,052
857,7	48,167
858,2	54,024
858,6	55,224
859	59,024
859,4	60,567
859,9	56,624
860,3	55,395
860,7	53,167
861,1	50,11
861,6	58,11
862	58,767
862,4	60,224
862,9	65,252
863,3	67,938
863,7	68,51
864,1	65,538
864,6	61,852
865	57,595
865,4	47,881
865,9	43,167
866,3	39,738
866,7	40,024
867,1	41,024
867,6	33,195
868	29,538
868,4	34,224
868,8	31,167
869,3	30,052
869,7	30,481
870,1	32,395
870,6	32,652
871	106,624
871,4	101,795
871,8	105,31
872,3	105,624
872,7	100,338
873,1	98,995
873,5	109,767
874	36,91
874,4	38,367
874,8	42,024
875,3	38,31
875,7	43,624
876,1	41,967
876,5	34,567
877	32,995
877,4	29,452
877,8	20,367
878,2	27,652
878,7	27,252
879,1	27,795
879,5	27,452
879,9	28,852
880,4	29,852
880,8	33,338
881,2	30,424
881,7	25,281
882,1	29,31
882,5	27,138
882,9	24,824
883,4	30,052
883,8	28,624
884,2	25,452
884,6	26,395
885,1	20,538
885,5	26,538
885,9	26,824
886,3	22,281
886,8	20,881
887,2	21,538
887,6	22,281
888	24,538
888,5	25,567
888,9	24,424
889,3	27,395
889,8	30,738
890,2	36,138
890,6	33,538
891	25,881
891,5	22,681
891,9	26,824
892,3	27,795
892,7	22,538
893,2	20,624
893,6	20,995
894	23,338
894,4	21,395
894,9	21,052
895,3	20,967
895,7	19,395
896,1	16,281
896,6	16,424
897	22,938
897,4	26,767
897,8	23,824
898,3	27,081
898,7	33,452
899,1	32,51
899,5	33,795
900	27,052
900,4	22,338
900,8	24,452
901,2	17,624
901,7	8,452
902,1	7,424
902,5	7,91
902,9	12,395
903,4	13,481
903,8	15,338
904,2	17,281
904,6	24,195
905,1	28,71
905,5	29,367
905,9	23,024
906,3	23,738
906,8	23,281
907,2	21,252
907,6	24,795
908	22,367
908,5	23,595
908,9	27,71
909,3	24,852
909,7	21,481
910,2	18,281
910,6	15,224
911	14,51
911,4	10,624
911,9	8,424
912,3	9,91
912,7	11,538
913,1	15,51
913,6	13,452
914	10,538
914,4	15,31
914,8	15,681
915,3	13,424
915,7	9,795
916,1	8,052
916,5	8,281
916,9	11,052
917,4	6,024
917,8	8,567
918,2	7,767
918,6	13,338
919,1	14,595
919,5	17,738
919,9	17,881
920,3	17,338
920,8	15,11
921,2	16,71
921,6	11,967
922	10,738
922,5	11,052
922,9	13,31
923,3	15,281
923,7	20,995
924,2	20,681
924,6	25,395
925	24,167
925,4	22,424
925,8	22,138
926,3	22,995
926,7	19,224
927,1	22,024
927,5	20,938
928	21,424
928,4	19,624
928,8	21,538
929,2	26,11
929,7	27,452
930,1	20,567
930,5	18,852
930,9	24,31
931,3	23,795
931,8	24,167
932,2	18,11
932,6	17,595
933	23,338
933,5	26,252
933,9	21,195
934,3	23,31
934,7	16,452
935,2	18,967
935,6	17,681
936	12,138
936,4	8,967
936,8	9,71
937,3	9,71
937,7	8,052
938,1	3,852
938,5	5,281
939	10,367
939,4	7,995
939,8	8,367
940,2	5,967
940,6	10,367
941,1	10,91
941,5	9,852
941,9	7,024
942,3	15,252
942,8	13,91
943,2	16,624
943,6	18,081
944	16,967
944,4	15,081
944,9	20,11
945,3	8,852
945,7	4,852
946,1	6,881
946,6	2,252
947	5,31
947,4	7,424
947,8	10,195
948,2	15,652
948,7	15,424
949,1	13,11
949,5	12,338
949,9	15,338
950,3	10,138
950,8	6,281
951,2	10,795
951,6	13,795
952	18,995
952,5	27,338
952,9	20,881
953,3	27,795
953,7	23,167
954,1	17,31
954,6	21,481
955	16,167
955,4	13,567
955,8	15,481
956,2	12,624
956,7	15,538
957,1	17,51
957,5	13,224
957,9	11,71
958,3	5,51
958,8	4,538
959,2	0,195
959,6	-1,29
960	-3,405
960,5	0,967
960,9	3,024
961,3	1,91
961,7	2,367
962,1	8,195
962,6	7,481
963	2,51
963,4	-2,319
963,8	-4,519
964,2	2,624
964,7	5,081
965,1	7,31
965,5	9,252
965,9	14,767
966,3	21,195
966,8	24,481
967,2	22,395
967,6	23,481
968	17,91
968,4	14,681
968,9	15,281
969,3	11,595
969,7	9,481
970,1	14,538
970,5	7,281
971	13,538
971,4	10,424
971,8	11,281
972,2	11,424
972,6	11,367
973,1	4,138
973,5	2,91
973,9	-4,833
974,3	-1,576
974,7	0,367
975,2	0,595
975,6	-3,776
976	2,367
976,4	5,938
976,8	6,252
977,3	13,052
977,7	13,767
978,1	12,224
978,5	14,024
978,9	10,024
979,4	10,338
979,8	10,738
980,2	9,624
980,6	7,967
981	8,452
981,5	8,367
981,9	7,852
982,3	7,395
982,7	16,424
983,1	14,338
983,6	11,824
984	14,595
984,4	9,795
984,8	8,824
985,2	12,367
985,6	4,681
986,1	-0,805
986,5	-1,376
986,9	1,567
987,3	9,11
987,7	10,595
988,2	14,91
988,6	9,367
989	13,31
989,4	16,481
989,8	14,938
990,3	16,195
990,7	16,881
991,1	9,91
991,5	18,481
991,9	19,395
992,3	15,795
992,8	16,452
993,2	17,395
993,6	18,624
994	16,91
994,4	10,167
994,9	16,681
995,3	15,424
995,7	10,795
996,1	5,167
996,5	3,767
996,9	3,91
997,4	3,338
997,8	-4,49
998,2	-3,862
998,6	-5,433
999	-3,205
999,5	-9,09
999,9	-3,462
1000,3	1,624
1000,7	-5,862
1001,1	-6,805
1001,5	-2,69
1002	-1,633
1002,4	4,595
1002,8	0,31
1003,2	1,567
1003,6	12,681
1004	14,481
1004,5	9,167
1004,9	5,624
1005,3	4,595
1005,7	8,681
1006,1	7,738
1006,6	7,595
1007	13,567
1007,4	14,681
1007,8	13,281
1008,2	10,481
1008,6	7,51
1009,1	6,624
1009,5	2,938
1009,9	-4,833
1010,3	-1,119
1010,7	-2,776
1011,1	-3,976
1011,6	-1,29
1012	0,624
1012,4	-0,49
1012,8	2,624
1013,2	5,367
1013,6	17,195
1014,1	22,738
1014,5	21,967
1014,9	15,995
1015,3	15,595
1015,7	19,452
1016,1	16,338
1016,6	7,138
1017	6,795
1017,4	6,51
1017,8	14,31
1018,2	16,538
1018,6	15,195
1019,1	14,167
1019,5	19,567
1019,9	19,367
1020,3	21,995
1020,7	13,252
1021,1	12,938
1021,6	15,195
1022	17,024
1022,4	12,881
1022,8	13,795
1023,2	10,51
1023,6	13,367
1024,1	14,11
1024,5	8,452
1024,9	5,595
1025,3	8,367
1025,7	7,595
1026,1	5,31
1026,6	9,31
1027	9,681
1027,4	11,995
1027,8	13,367
1028,2	9,281
1028,6	7,338
1029	8,252
1029,5	5,767
1029,9	6,481
1030,3	8,081
1030,7	3,938
1031,1	6,71
1031,5	2,195
1032	6,881
1032,4	5,91
1032,8	6,395
1033,2	3,281
1033,6	-2,176
1034	-8,719
1034,4	-5,348
1034,9	-10,548
1035,3	-9,09
1035,7	-8,605
1036,1	-10,233
1036,5	-2,776
1036,9	2,252
1037,4	1,967
1037,8	3,738
1038,2	6,167
1038,6	7,052
1039	4,852
1039,4	9,938
1039,8	14,138
1040,3	16,595
1040,7	13,881
1041,1	14,452
1041,5	2,681
1041,9	5,595
1042,3	7,91
1042,7	3,167
1043,2	5,995
1043,6	12,91
1044	11,624
1044,4	16,71
1044,8	18,424
1045,2	16,024
1045,6	15,052
1046,1	14,367
1046,5	10,938
1046,9	14,967
1047,3	19,024
1047,7	22,71
1048,1	15,738
1048,5	17,624
1049	10,567
1049,4	11,767
1049,8	15,767
1050,2	12,395
1050,6	8,595
1051	12,452
1051,4	19,452
1051,9	28,31
1052,3	30,081
1052,7	20,052
1053,1	22,281
1053,5	23,081
1053,9	21,11
1054,3	20,852
1054,8	16,938
1055,2	14,967
1055,6	17,081
1056	16,11
1056,4	18,881
1056,8	20,11
1057,2	14,138
1057,6	14,395
1058,1	11,224
1058,5	4,481
1058,9	2,881
1059,3	0,138
1059,7	1,824
1060,1	1,967
1060,5	8,424
1061	10,538
1061,4	16,424
1061,8	22,452
1062,2	23,281
1062,6	25,681
1063	24,938
1063,4	21,452
1063,8	16,824
1064,3	19,224
1064,7	13,481
1065,1	8,795
1065,5	2,31
1065,9	3,567
1066,3	-0,319
1066,7	7,452
1067,1	7,081
1067,6	12,252
1068	14,738
1068,4	21,167
1068,8	23,395
1069,2	25,681
1069,6	22,481
1070	26,338
1070,4	28,71
1070,9	29,881
1071,3	24,424
1071,7	19,11
1072,1	18,338
1072,5	16,195
1072,9	6,367
1073,3	7,738
1073,7	5,224
1074,2	7,367
1074,6	8,624
1075	6,738
1075,4	7,824
1075,8	16,91
1076,2	9,51
1076,6	10,224
1077	13,224
1077,5	17,738
1077,9	18,881
1078,3	13,881
1078,7	7,252
1079,1	14,91
1079,5	15,967
1079,9	9,481
1080,3	6,367
1080,7	1,51
1081,2	8,595
1081,6	5,624
1082	-0,605
1082,4	3,91
1082,8	6,452
1083,2	12,795
1083,6	20,081
1084	21,767
1084,5	29,967
1084,9	29,252
1085,3	19,424
1085,7	19,081
1086,1	12,224
1086,5	9,452
1086,9	5,91
1087,3	1,281
1087,7	-0,348
1088,2	7,167
1088,6	10,51
1089	9,995
1089,4	13,138
1089,8	16,995
1090,2	17,767
1090,6	19,681
1091	18,767
1091,4	17,452
1091,9	18,538
1092,3	18,481
1092,7	21,481
1093,1	25,281
1093,5	25,052
1093,9	24,167
1094,3	25,338
1094,7	26,738
1095,1	18,624
1095,5	13,767
1096	7,538
1096,4	13,71
1096,8	12,738
1097,2	8,852
1097,6	11,967
1098	14,51
1098,4	9,624
1098,8	12,967
1099,2	10,995
1099,6	8,852
1100,1	11,538
1100,5	9,767
1100,9	10,224
1101,3	13,595
1101,7	11,795
1102,1	7,195
1102,5	13,11
1102,9	17,91
1103,3	14,995
1103,7	16,795
1104,2	10,281
1104,6	7,538
1105	11,224
1105,4	9,995
1105,8	3,11
1106,2	3,024
1106,6	1,681
1107	6,052
1107,4	8,967
1107,8	5,367
1108,3	0,317
