Data from Subt2_14.txt Node
Date: Thu Aug 24 16:44:13 MSK 2023
User: vat
Spectrometer: MAYP114033
Trigger mode: 0
Integration Time (sec): 1,000000E0
Scans to average: 5
Electric dark correction enabled: true
Nonlinearity correction enabled: false
Boxcar width: 3
XAxis mode: Wavelengths
Number of Pixels in Spectrum: 2068
>>>>>Begin Spectral Data<<<<<
199,4	-1
199,9	-2,02
200,4	2,367
200,8	1,557
201,3	1,7
201,8	7,529
202,2	6,271
202,7	8,214
203,2	11,043
203,6	9,1
204,1	13,386
204,6	15,986
205	13,471
205,5	14,129
206	12,729
206,4	13,3
206,9	13,786
207,4	10,443
207,8	6,043
208,3	2,614
208,8	0,414
209,2	3,129
209,7	0,529
210,2	4,129
210,6	2,186
211,1	4,586
211,5	7,9
212	8,843
212,5	5,186
212,9	7,386
213,4	0,757
213,9	1,557
214,3	3,443
214,8	2,043
215,3	7,786
215,7	13,386
216,2	11,357
216,7	17,3
217,1	17,871
217,6	16,614
218,1	13,729
218,5	15,157
219	14,071
219,5	11,614
219,9	6,214
220,4	7,357
220,9	11,129
221,3	21,614
221,8	18,529
222,3	15,014
222,7	19,529
223,2	18,243
223,6	16,929
224,1	14,529
224,6	7,5
225	4,786
225,5	1,329
226	1,3
226,4	3,043
226,9	8,5
227,4	7,271
227,8	7,157
228,3	8,671
228,8	17,386
229,2	21,843
229,7	23,643
230,2	21,757
230,6	24,814
231,1	23,7
231,5	23,014
232	19,7
232,5	13,729
232,9	13,329
233,4	15,043
233,9	13,186
234,3	11,043
234,8	7,729
235,3	12,386
235,7	12,871
236,2	18,786
236,7	13,9
237,1	12,7
237,6	16,9
238,1	21,071
238,5	19,614
239	20,7
239,4	16,643
239,9	14,957
240,4	16,786
240,8	14,843
241,3	15,414
241,8	14,557
242,2	16,443
242,7	15,414
243,2	18,5
243,6	17,614
244,1	17,757
244,6	14,014
245	13,729
245,5	14,157
245,9	10,443
246,4	8,957
246,9	7,614
247,3	7,386
247,8	12,929
248,3	12,186
248,7	9,729
249,2	12,7
249,7	10,414
250,1	10,214
250,6	8,186
251	8,214
251,5	6,157
252	5,271
252,4	4,014
252,9	7,471
253,4	6,329
253,8	10,843
254,3	7,557
254,8	3,786
255,2	4,843
255,7	6,671
256,1	11,3
256,6	11,071
257,1	9,471
257,5	11,843
258	18,214
258,5	18,043
258,9	17,471
259,4	13,1
259,9	16,929
260,3	15,186
260,8	16,243
261,2	13,643
261,7	13,329
262,2	16,529
262,6	13,786
263,1	8,1
263,6	10,529
264	7,871
264,5	6,5
264,9	10,7
265,4	7,129
265,9	10,1
266,3	11,929
266,8	11,471
267,3	12,643
267,7	9,471
268,2	3,043
268,7	0,471
269,1	2,014
269,6	1,443
270	0,957
270,5	-3,243
271	4,414
271,4	5,214
271,9	8,471
272,4	6,814
272,8	15,214
273,3	12,443
273,7	13,643
274,2	9,929
274,7	16,9
275,1	14,243
275,6	14,671
276,1	10,586
276,5	18,671
277	21,014
277,4	18,929
277,9	11,957
278,4	15,557
278,8	18,757
279,3	17,643
279,8	11,614
280,2	10,529
280,7	14,9
281,1	17,214
281,6	9,814
282,1	8,129
282,5	5,243
283	0,129
283,4	-5,357
283,9	-6,9
284,4	-5,014
284,8	3,957
285,3	1,986
285,8	5,9
286,2	9,814
286,7	15,786
287,1	17,471
287,6	10,214
288,1	2,186
288,5	3,586
289	8,129
289,5	3,643
289,9	5,157
290,4	-0,443
290,8	3,586
291,3	5,843
291,8	3,386
292,2	-1,614
292,7	0,814
293,1	2,729
293,6	12,814
294,1	9,614
294,5	14,871
295	16,729
295,5	14,386
295,9	20,329
296,4	10,786
296,8	8,986
297,3	18,586
297,8	20,071
298,2	13,329
298,7	13,7
299,1	14,129
299,6	18,357
300,1	12,614
300,5	6,814
301	6,1
301,5	12,643
301,9	11,014
302,4	0,529
302,8	5,843
303,3	8,471
303,8	7,614
304,2	6,243
304,7	4,7
305,1	8,929
305,6	14,471
306,1	8,586
306,5	8,329
307	13,157
307,4	10,871
307,9	10,243
308,4	9,871
308,8	14,014
309,3	16,643
309,8	19,643
310,2	17,329
310,7	20,186
311,1	23,814
311,6	22,929
312,1	22,7
312,5	20,871
313	17,614
313,4	15,329
313,9	11,243
314,4	7,271
314,8	8,557
315,3	5,9
315,7	8,186
316,2	0,386
316,7	5,043
317,1	4,871
317,6	9,814
318	9,9
318,5	7,871
319	7,529
319,4	12,443
319,9	8,557
320,3	9,586
320,8	7,471
321,3	7,529
321,7	17,557
322,2	15,957
322,6	20,586
323,1	19,471
323,6	18,586
324	20,386
324,5	13,3
324,9	4,129
325,4	3,329
325,9	-1,043
326,3	3,729
326,8	4,443
327,2	1,157
327,7	5,843
328,2	9,814
328,6	9,529
329,1	14,614
329,5	13,1
330	15,9
330,5	18,1
330,9	14,157
331,4	12,729
331,8	11,271
332,3	10,157
332,8	9,557
333,2	8,643
333,7	7,1
334,1	13,786
334,6	13,643
335,1	15,214
335,5	12,186
336	9,3
336,4	13,671
336,9	15,071
337,4	20,557
337,8	18,871
338,3	19,729
338,7	25,557
339,2	23,814
339,7	18,871
340,1	21,786
340,6	17,529
341	21,557
341,5	29,386
342	29,929
342,4	34,529
342,9	34,814
343,3	32,5
343,8	30,9
344,2	29,329
344,7	23,957
345,2	20,386
345,6	17,729
346,1	14,957
346,5	16,414
347	17,814
347,5	17,129
347,9	16,3
348,4	9,586
348,8	11,9
349,3	15,814
349,8	14,471
350,2	15,014
350,7	15,957
351,1	17,014
351,6	24,814
352	25,071
352,5	27,471
353	28,814
353,4	35,3
353,9	41,957
354,3	46,271
354,8	49,3
355,3	63,443
355,7	77,243
356,2	96,243
356,6	104,7
357,1	124,157
357,5	146,557
358	175,043
358,5	199,557
358,9	232,329
359,4	259,814
359,8	297,557
360,3	342,271
360,8	401,929
361,2	457,7
361,7	526,5
362,1	587,843
362,6	669,1
363	758,271
363,5	842,557
364	920,1
364,4	1013,271
364,9	1099,643
365,3	1193,843
365,8	1276,386
366,3	1354,357
366,7	1431,129
367,2	1497,586
367,6	1546,586
368,1	1585,043
368,5	1612,5
369	1626,814
369,5	1628,529
369,9	1609,586
370,4	1586,5
370,8	1555,129
371,3	1514,929
371,7	1459,129
372,2	1400,957
372,7	1339,243
373,1	1274,1
373,6	1198,414
374	1120,986
374,5	1044,3
374,9	980,7
375,4	908,614
375,9	834,7
376,3	761,586
376,8	701,586
377,2	647,271
377,7	595,529
378,2	538,014
378,6	490,7
379,1	452,386
379,5	415,843
380	380,557
380,4	347,3
380,9	314,586
381,4	290,214
381,8	275,671
382,3	250,586
382,7	238,643
383,2	227,214
383,6	216,186
384,1	201,329
384,6	189,014
385	168,529
385,5	159,729
385,9	143,843
386,4	127,443
386,8	117,586
387,3	116,386
387,7	106,814
388,2	101,671
388,7	94,7
389,1	93,7
389,6	93,043
390	86,014
390,5	74,329
390,9	69,814
391,4	68,3
391,9	63,871
392,3	58,986
392,8	54,557
393,2	54,814
393,7	50,329
394,1	50,443
394,6	44,043
395,1	44,7
395,5	39,214
396	42,386
396,4	36,729
396,9	36,471
397,3	31,386
397,8	34,614
398,2	27,614
398,7	32,814
399,2	28,586
399,6	31,157
400,1	35,7
400,5	39,243
401	34,443
401,4	36,729
401,9	30,414
402,4	30,443
402,8	27,929
403,3	26,157
403,7	25,843
404,2	29,1
404,6	27,014
405,1	32,643
405,5	28,1
406	26,643
406,5	24,586
406,9	22,3
407,4	24,357
407,8	27,871
408,3	28,929
408,7	30,871
409,2	33,614
409,6	35,3
410,1	37,786
410,6	42,3
411	45,071
411,5	50,986
411,9	59,7
412,4	61,443
412,8	59,614
413,3	62,786
413,7	57,671
414,2	62,586
414,7	60,986
415,1	57,586
415,6	61,843
416	75,957
416,5	82,3
416,9	88,757
417,4	86,929
417,8	89,729
418,3	97,329
418,8	100,5
419,2	97,586
419,7	96,843
420,1	97,7
420,6	103,729
421	103,3
421,5	99,9
421,9	93,3
422,4	93,643
422,8	98,243
423,3	93,9
423,8	88,5
424,2	89,786
424,7	94,986
425,1	99,929
425,6	99,643
426	98,071
426,5	101,614
426,9	107,129
427,4	103,9
427,9	97,729
428,3	100,271
428,8	99,671
429,2	101,9
429,7	106,3
430,1	104,957
430,6	112,957
431	116,529
431,5	118,357
431,9	120,186
432,4	118,814
432,8	120,043
433,3	124,986
433,8	121,471
434,2	128,757
434,7	128,929
435,1	136,814
435,6	134,929
436	139,071
436,5	141,557
436,9	153,929
437,4	159,671
437,8	171,157
438,3	172,129
438,8	180,871
439,2	185,243
439,7	193,729
440,1	192,386
440,6	199,586
441	208,871
441,5	217,871
441,9	230,843
442,4	248,957
442,8	261,014
443,3	276,129
443,7	289,614
444,2	297,586
444,7	315,414
445,1	329,1
445,6	340,7
446	351,129
446,5	362,214
446,9	375,843
447,4	390,014
447,8	402,814
448,3	415,929
448,7	423,271
449,2	436,529
449,6	455,414
450,1	469,871
450,6	492,643
451	512,671
451,5	530,157
451,9	554,7
452,4	578,671
452,8	603,814
453,3	626,1
453,7	644,586
454,2	663,443
454,6	691,357
455,1	719,043
455,5	739,157
456	758,986
456,4	781,614
456,9	812,014
457,3	839,814
457,8	862,414
458,3	877,186
458,7	906,843
459,2	940,386
459,6	971,671
460,1	996,3
460,5	1024,529
461	1053,157
461,4	1087,3
461,9	1124,071
462,3	1150,814
462,8	1179,643
463,2	1213,871
463,7	1253,986
464,1	1296,3
464,6	1329,786
465	1360,9
465,5	1391,557
466	1430,957
466,4	1459,043
466,9	1487,986
467,3	1513,843
467,8	1556,843
468,2	1595,814
468,7	1633,814
469,1	1665,329
469,6	1706,271
470	1742,071
470,5	1783,3
470,9	1813,843
471,4	1841,157
471,8	1880,7
472,3	1915,471
472,7	1947,729
473,2	1987,9
473,6	2023,786
474,1	2055,671
474,5	2094,643
475	2129,271
475,4	2168,271
475,9	2208,214
476,4	2239,871
476,8	2278,671
477,3	2316,357
477,7	2350,443
478,2	2382,1
478,6	2413,986
479,1	2449,071
479,5	2484,843
480	2507,843
480,4	2543,614
480,9	2582,243
481,3	2613,129
481,8	2645,786
482,2	2676,9
482,7	2702,786
483,1	2737,157
483,6	2765,386
484	2788,243
484,5	2821,3
484,9	2844,643
485,4	2866,729
485,8	2889,843
486,3	2918,157
486,7	2939,443
487,2	2956,5
487,6	2978,243
488,1	2999,129
488,5	3019,929
489	3044,3
489,4	3061,3
489,9	3083,129
490,4	3110,814
490,8	3133,186
491,3	3156,357
491,7	3175,414
492,2	3191,957
492,6	3208,243
493,1	3223,043
493,5	3234,129
494	3243,357
494,4	3248,871
494,9	3264,1
495,3	3272,957
495,8	3286,586
496,2	3294,929
496,7	3316,843
497,1	3327,729
497,6	3344,043
498	3356,471
498,5	3368,843
498,9	3374,329
499,4	3386,357
499,8	3389,014
500,3	3398,3
500,7	3408,614
501,2	3406,157
501,6	3411,614
502,1	3423,1
502,5	3432,7
503	3439,786
503,4	3447,329
503,9	3458,814
504,3	3470,614
504,8	3479,843
505,2	3485,3
505,7	3490,129
506,1	3487,043
506,6	3490,586
507	3490,129
507,5	3490,043
507,9	3496,129
508,4	3494,786
508,8	3498,3
509,3	3515,643
509,7	3518,986
510,2	3522,929
510,6	3531,443
511,1	3536,643
511,5	3542,643
512	3544,643
512,4	3534,557
512,9	3534,5
513,3	3530,414
513,8	3534,5
514,2	3536,386
514,7	3534,386
515,1	3531,529
515,6	3534,614
516	3536,414
516,5	3539,186
516,9	3536,557
517,4	3540,9
517,8	3544,729
518,3	3551,871
518,7	3549,814
519,2	3556,557
519,6	3561,329
520,1	3567,014
520,5	3560,643
521	3562,3
521,4	3559,643
521,9	3569,786
522,3	3563,157
522,8	3563,186
523,2	3563,757
523,7	3565,871
524,1	3565,5
524,6	3564,157
525	3561,757
525,5	3580,786
525,9	3583,786
526,4	3583,757
526,8	3582,671
527,3	3589,671
527,7	3607,529
528,2	3615,814
528,6	3606,157
529,1	3619,529
529,5	3632,586
530	3639,5
530,4	3644,757
530,9	3644,214
531,3	3647,386
531,8	3653,443
532,2	3654,786
532,6	3653,529
533,1	3662,786
533,5	3669,186
534	3673,986
534,4	3673,786
534,9	3676,614
535,3	3677,243
535,8	3683,043
536,2	3687,957
536,7	3687,814
537,1	3687,129
537,6	3697,014
538	3704,757
538,5	3714,129
538,9	3712,3
539,4	3719,929
539,8	3729,871
540,3	3735,214
540,7	3738,643
541,2	3741,5
541,6	3740,386
542,1	3742,5
542,5	3741,9
543	3743,043
543,4	3746,071
543,9	3747,414
544,3	3750,471
544,8	3756,471
545,2	3766,814
545,7	3768,243
546,1	3772,157
546,5	3774,9
547	3780,443
547,4	3789,671
547,9	3802,986
548,3	3803,386
548,8	3807,1
549,2	3812,157
549,7	3821,386
550,1	3837,329
550,6	3840,157
551	3839,443
551,5	3852,214
551,9	3863,586
552,4	3875,671
552,8	3875,529
553,3	3872,757
553,7	3878,729
554,2	3875,929
554,6	3882,757
555,1	3887,929
555,5	3884,557
555,9	3898,843
556,4	3901,043
556,8	3905,157
557,3	3906,1
557,7	3913,386
558,2	3920,014
558,6	3921,786
559,1	3921,9
559,5	3926,3
560	3940,443
560,4	3954,014
560,9	3947,843
561,3	3943,357
561,8	3942,129
562,2	3948,814
562,7	3950,071
563,1	3948,271
563,6	3943,157
564	3948,3
564,4	3948,957
564,9	3954,957
565,3	3958,929
565,8	3962,929
566,2	3963,1
566,7	3974,414
567,1	3976,643
567,6	3983,843
568	3989,643
568,5	3988,9
568,9	3981,557
569,4	3972,014
569,8	3970,043
570,3	3966,843
570,7	3965,1
571,1	3958,271
571,6	3952,786
572	3954,1
572,5	3957,814
572,9	3953,329
573,4	3948,329
573,8	3948,786
574,3	3952,614
574,7	3952,5
575,2	3960,986
575,6	3960,786
576,1	3963,471
576,5	3957,386
576,9	3957,329
577,4	3949,757
577,8	3945,614
578,3	3935,5
578,7	3927,3
579,2	3924,186
579,6	3928,614
580,1	3920,471
580,5	3917,1
581	3915,329
581,4	3910,014
581,9	3908,757
582,3	3896,643
582,7	3890,071
583,2	3875,414
583,6	3869,329
584,1	3859,929
584,5	3854,529
585	3847,929
585,4	3841,443
585,9	3844,529
586,3	3844,186
586,8	3840,414
587,2	3835,957
587,6	3826,043
588,1	3829,5
588,5	3827,014
589	3809,043
589,4	3797,471
589,9	3787,071
590,3	3785,129
590,8	3781,614
591,2	3762,729
591,7	3754,957
592,1	3748,443
592,5	3753,129
593	3754,557
593,4	3745,386
593,9	3745,443
594,3	3741,043
594,8	3733,414
595,2	3732,271
595,7	3726,3
596,1	3718,1
596,6	3710,471
597	3702,471
597,4	3696,871
597,9	3690,986
598,3	3678,129
598,8	3670,329
599,2	3668,443
599,7	3658,529
600,1	3650,414
600,6	3646,243
601	3640,814
601,4	3638,871
601,9	3628,786
602,3	3616,5
602,8	3609,243
603,2	3605,3
603,7	3593,586
604,1	3582,986
604,6	3573,586
605	3562,214
605,4	3553,814
605,9	3538,757
606,3	3516,7
606,8	3508,271
607,2	3496,157
607,7	3484,3
608,1	3479,786
608,6	3468,643
609	3461,729
609,4	3456,529
609,9	3442,929
610,3	3433,271
610,8	3415,529
611,2	3391,643
611,7	3377,1
612,1	3373,043
612,6	3362,214
613	3349,471
613,4	3333,1
613,9	3323,786
614,3	3317,586
614,8	3307,014
615,2	3288,129
615,7	3276,243
616,1	3263,729
616,6	3258,814
617	3250,957
617,4	3235,957
617,9	3218,557
618,3	3205,586
618,8	3190,786
619,2	3182,214
619,7	3171,157
620,1	3154,614
620,5	3143,129
621	3128,843
621,4	3114,329
621,9	3100,614
622,3	3087,5
622,8	3067,7
623,2	3052,586
623,6	3041,9
624,1	3030,957
624,5	3020,586
625	3009,129
625,4	2990,757
625,9	2982,214
626,3	2975,614
626,8	2968,529
627,2	2956,157
627,6	2940,843
628,1	2922,071
628,5	2911,214
629	2889,157
629,4	2871,157
629,9	2851,129
630,3	2837,071
630,7	2822,357
631,2	2807,7
631,6	2787,071
632,1	2776,786
632,5	2762,929
633	2751,786
633,4	2739,986
633,8	2730,757
634,3	2715,986
634,7	2703,614
635,2	2690,443
635,6	2677,871
636,1	2659,671
636,5	2644,243
636,9	2626,957
637,4	2615,814
637,8	2601,443
638,3	2591,986
638,7	2573,271
639,2	2561,557
639,6	2546,786
640	2529,014
640,5	2528,643
640,9	2519,1
641,4	2504,957
641,8	2494,557
642,2	2490,871
642,7	2479,214
643,1	2469,5
643,6	2451,386
644	2437,471
644,5	2428,386
644,9	2417,786
645,3	2398,671
645,8	2385,186
646,2	2374,471
646,7	2357,386
647,1	2344,843
647,6	2322,786
648	2311,729
648,4	2302,014
648,9	2299,357
649,3	2288,643
649,8	2282,157
650,2	2276,729
650,6	2267,214
651,1	2253,043
651,5	2237,557
652	2218,871
652,4	2209,043
652,9	2183,5
653,3	2165,043
653,7	2151,586
654,2	2143,329
654,6	2125,671
655,1	2117,414
655,5	2110,643
655,9	2106,9
656,4	2097,614
656,8	2087,243
657,3	2069,9
657,7	2054,814
658,2	2038,586
658,6	2022,786
659	2012,329
659,5	1995,814
659,9	1982,414
660,4	1976,614
660,8	1963,586
661,2	1953,557
661,7	1935,929
662,1	1926,3
662,6	1917,929
663	1907,814
663,4	1896,814
663,9	1894,043
664,3	1880,414
664,8	1872,329
665,2	1856,243
665,6	1846,1
666,1	1831,9
666,5	1811,614
667	1801,614
667,4	1787,329
667,9	1771,586
668,3	1763,929
668,7	1754,957
669,2	1754,5
669,6	1752,443
670,1	1741,9
670,5	1734,1
670,9	1727,043
671,4	1710,3
671,8	1699,243
672,3	1683,986
672,7	1670,729
673,1	1659,329
673,6	1652,214
674	1643,329
674,5	1640,1
674,9	1629,557
675,3	1619,529
675,8	1611,186
676,2	1602,157
676,7	1587,443
677,1	1572,643
677,5	1562,729
678	1556,786
678,4	1541,186
678,9	1530,986
679,3	1517,614
679,7	1510,9
680,2	1499,357
680,6	1484,129
681,1	1469,757
681,5	1462,843
681,9	1447,329
682,4	1437,243
682,8	1423,271
683,3	1418,471
683,7	1413,757
684,1	1406,243
684,6	1397,386
685	1394,243
685,5	1387,357
685,9	1380,186
686,3	1365,357
686,8	1352,043
687,2	1340,9
687,7	1330,729
688,1	1319,529
688,5	1307,129
689	1297,843
689,4	1297,214
689,9	1288,271
690,3	1276,071
690,7	1266,529
691,2	1257,729
691,6	1257,529
692	1252,786
692,5	1243,414
692,9	1240,414
693,4	1232,643
693,8	1228,671
694,2	1219,043
694,7	1208,7
695,1	1200,129
695,6	1190,671
696	1178,043
696,4	1172,157
696,9	1164,5
697,3	1152,071
697,8	1140,986
698,2	1132,014
698,6	1125,329
699,1	1122,414
699,5	1115,9
699,9	1106,471
700,4	1105,586
700,8	1097,414
701,3	1091,671
701,7	1086,386
702,1	1078,557
702,6	1076,329
703	1072,329
703,5	1062,129
703,9	1055,729
704,3	1049,586
704,8	1040,443
705,2	1029,014
705,6	1018,957
706,1	1007,414
706,5	1009,929
707	1000,843
707,4	994,643
707,8	990,357
708,3	983,586
708,7	978,643
709,2	975,443
709,6	965,957
710	962,157
710,5	953,871
710,9	935,9
711,3	927,9
711,8	918,071
712,2	915,671
712,7	908,786
713,1	900,386
713,5	895,214
714	899,786
714,4	898,814
714,8	887,271
715,3	878,614
715,7	872,957
716,2	866,014
716,6	852,671
717	844,529
717,5	839,014
717,9	837,157
718,3	828,586
718,8	816,7
719,2	820,357
719,7	823,5
720,1	816,5
720,5	809,814
721	808,7
721,4	804,671
721,8	798,757
722,3	784,186
722,7	772,3
723,2	769,129
723,6	760,5
724	750,9
724,5	746,014
724,9	738,814
725,3	741,986
725,8	740,957
726,2	727,786
726,7	729,786
727,1	722,529
727,5	717,357
728	714,786
728,4	704,757
728,8	697,586
729,3	695,7
729,7	686,329
730,1	686,129
730,6	680,9
731	679,843
731,5	680,614
731,9	680,157
732,3	674,9
732,8	671,529
733,2	663,671
733,6	662,986
734,1	655,214
734,5	646,586
734,9	638,729
735,4	641,5
735,8	641,157
736,3	636,643
736,7	627,614
737,1	627,043
737,6	625,214
738	622,843
738,4	616,643
738,9	609,357
739,3	608,1
739,7	611,1
740,2	607,843
740,6	597,757
741,1	591,329
741,5	593,386
741,9	588,929
742,4	584,557
742,8	578,557
743,2	570,7
743,7	574,786
744,1	575,729
744,5	567,214
745	561,814
745,4	562,414
745,8	552,5
746,3	544,814
746,7	537,986
747,2	529,1
747,6	528,643
748	526,643
748,5	520,071
748,9	523,757
749,3	523,871
749,8	517,671
750,2	519,271
750,6	511,1
751,1	508,043
751,5	505,786
751,9	498,471
752,4	495,014
752,8	488,786
753,3	484,443
753,7	478,9
754,1	475,043
754,6	471,643
755	470,329
755,4	470,243
755,9	476,671
756,3	471,471
756,7	476,329
757,2	473,414
757,6	471,271
758	466,214
758,5	463,014
758,9	455,814
759,3	452,071
759,8	441,071
760,2	433,9
760,6	424,271
761,1	421,671
761,5	417,043
761,9	408,3
762,4	406,529
762,8	406,986
763,3	407,243
763,7	411,471
764,1	405,557
764,6	407,786
765	412,471
765,4	412,129
765,9	407,843
766,3	406,443
766,7	402,814
767,2	403,671
767,6	402,729
768	402,271
768,5	396,5
768,9	395,871
769,3	390,929
769,8	391,7
770,2	390,071
770,6	384,157
771,1	371,243
771,5	371,157
771,9	373,1
772,4	370,757
772,8	357,329
773,2	352,5
773,7	346,929
774,1	350,329
774,5	341,814
775	334,9
775,4	336,957
775,8	344,043
776,3	340,157
776,7	341,243
777,1	341,9
777,6	344,529
778	340,757
778,4	336,786
778,9	334,557
779,3	333,786
779,7	331,014
780,2	328,843
780,6	332,386
781	331,871
781,5	329,5
781,9	324,929
782,3	324,271
782,8	322,071
783,2	318,157
783,6	310,586
784,1	305,7
784,5	297,443
784,9	293,871
785,4	287,814
785,8	283,9
786,2	278,614
786,7	278,357
787,1	274,729
787,5	279,157
788	280,071
788,4	279,986
788,8	275,529
789,3	274,786
789,7	266,471
790,1	265,586
790,6	257,386
791	254,843
791,4	249,529
791,9	249,329
792,3	251,814
792,7	251,529
793,2	251,071
793,6	256,014
794	256,271
794,5	258,1
794,9	260,729
795,3	258,557
795,8	260,614
796,2	265,614
796,6	263,871
797,1	258,357
797,5	255,843
797,9	248,5
798,4	242,271
798,8	240,014
799,2	234,986
799,7	229,614
800,1	228,129
800,5	228,071
801	229,586
801,4	233,357
801,8	233,043
802,2	229,043
802,7	232,529
803,1	230,3
803,5	230,786
804	229,671
804,4	223,957
804,8	220,414
805,3	218,129
805,7	213,843
806,1	208,643
806,6	203,186
807	203,043
807,4	198,3
807,9	195,786
808,3	196,671
808,7	195,271
809,2	198,357
809,6	198,614
810	193,129
810,4	196,814
810,9	194,357
811,3	193,929
811,7	189,614
812,2	186,529
812,6	184,529
813	183,5
813,5	181,014
813,9	184,071
814,3	177,5
814,8	180,243
815,2	182,871
815,6	185,529
816,1	183,786
816,5	179,157
816,9	175,786
817,3	177,957
817,8	176,043
818,2	174,814
818,6	168,357
819,1	167,129
819,5	167,157
819,9	165,729
820,4	160,1
820,8	157,357
821,2	146,843
821,7	148,671
822,1	151,129
822,5	148,014
822,9	144,557
823,4	148,786
823,8	148,586
824,2	155,986
824,7	152,386
825,1	148,586
825,5	144,7
826	143,271
826,4	144,071
826,8	141,729
827,3	139,214
827,7	138,157
828,1	141,243
828,5	141,414
829	139,9
829,4	130,471
829,8	132,614
830,3	125,043
830,7	128,157
831,1	120,614
831,6	121,586
832	120,529
832,4	122,443
832,8	115,014
833,3	115,157
833,7	109,871
834,1	111,986
834,6	110,729
835	113,1
835,4	113,443
835,8	117,957
836,3	120,729
836,7	117,271
837,1	114,9
837,6	112,5
838	108,843
838,4	101,757
838,9	99,3
839,3	98,3
839,7	99,843
840,1	100,843
840,6	99,643
841	97,843
841,4	102,529
841,9	102,557
842,3	106,957
842,7	108,243
843,1	101,614
843,6	105,757
844	106,414
844,4	106,014
844,9	104,986
845,3	99,957
845,7	95,357
846,2	105,386
846,6	98,843
847	103,929
847,4	103,5
847,9	109,643
848,3	108,529
848,7	113,129
849,2	107,929
849,6	114,643
850	110,586
850,4	106,843
850,9	99,014
851,3	96,986
851,7	96,443
852,2	95,014
852,6	96,271
853	94,814
853,4	97,586
853,9	95,129
854,3	98,643
854,7	85,386
855,2	81,586
855,6	73,814
856	68,214
856,4	65,786
856,9	65,814
857,3	67,243
857,7	75,871
858,2	81,5
858,6	84,1
859	86,157
859,4	91,929
859,9	91,043
860,3	81,843
860,7	82,614
861,1	75,814
861,6	75,357
862	75,329
862,4	72,357
862,9	77,443
863,3	80,529
863,7	81,671
864,1	83,5
864,6	82,786
865	81,843
865,4	75,871
865,9	71,586
866,3	73,614
866,7	66,557
867,1	69,3
867,6	66,157
868	63,129
868,4	66,157
868,8	66,214
869,3	61,414
869,7	64,557
870,1	63,357
870,6	63,329
871	100,843
871,4	97,957
871,8	100,386
872,3	96,157
872,7	97,3
873,1	92,814
873,5	100,786
874	64,129
874,4	63,7
874,8	60,671
875,3	62,243
875,7	61,157
876,1	59,843
876,5	52,1
877	51,5
877,4	49,186
877,8	42,986
878,2	51,757
878,7	50,157
879,1	50,071
879,5	47,557
879,9	47,186
880,4	51,071
880,8	54,471
881,2	44,443
881,7	43,157
882,1	47,414
882,5	48,757
882,9	49,7
883,4	53,329
883,8	52,814
884,2	56,329
884,6	53,243
885,1	50,614
885,5	49,414
885,9	50,1
886,3	41,529
886,8	43,443
887,2	42,414
887,6	44,586
888	47,071
888,5	53,529
888,9	52,243
889,3	58,071
889,8	59,071
890,2	61,843
890,6	64,014
891	54,157
891,5	50,614
891,9	52,157
892,3	47,129
892,7	41,729
893,2	36,614
893,6	34,929
894	42,014
894,4	37,843
894,9	36,5
895,3	37,186
895,7	33,671
896,1	34,986
896,6	33,786
897	35,471
897,4	38,7
897,8	37,1
898,3	39,871
898,7	44,986
899,1	42,329
899,5	41,786
900	35,5
900,4	30,614
900,8	29,9
901,2	27,329
901,7	19,929
902,1	18,1
902,5	19,386
902,9	22,243
903,4	29,9
903,8	30,643
904,2	30,043
904,6	38,643
905,1	44,443
905,5	43,929
905,9	42,1
906,3	38,786
906,8	38,7
907,2	35,843
907,6	38,729
908	36,957
908,5	40,729
908,9	47,243
909,3	46,871
909,7	48,443
910,2	52,614
910,6	48,643
911	48,357
911,4	45,157
911,9	37,271
912,3	35,243
912,7	35,757
913,1	34,729
913,6	31,3
914	31,243
914,4	27,129
914,8	25,786
915,3	23,157
915,7	19,414
916,1	18,129
916,5	16,329
916,9	14,7
917,4	16,129
917,8	19,357
918,2	15,043
918,6	20,043
919,1	20,443
919,5	28,043
919,9	27,443
920,3	29,557
920,8	25,986
921,2	34,414
921,6	26,1
922	27,814
922,5	23,3
922,9	22,871
923,3	17,671
923,7	24,614
924,2	17,671
924,6	25,9
925	26,557
925,4	28,129
925,8	26,929
926,3	30,871
926,7	25,614
927,1	34,871
927,5	32,414
928	28,1
928,4	26,443
928,8	29,957
929,2	33,214
929,7	30,671
930,1	21,7
930,5	20,729
930,9	22,786
931,3	22,329
931,8	25,271
932,2	19,271
932,6	24,5
933	29,786
933,5	28,129
933,9	20,814
934,3	18,043
934,7	13,471
935,2	14,929
935,6	17,757
936	15,1
936,4	12,386
936,8	16,043
937,3	20,557
937,7	17,586
938,1	16,243
938,5	5,071
939	7,614
939,4	11,871
939,8	11,1
940,2	11,1
940,6	17,329
941,1	13,271
941,5	15,729
941,9	12,329
942,3	14,243
942,8	15,5
943,2	16,443
943,6	15,129
944	19,986
944,4	26,129
944,9	27,5
945,3	21,271
945,7	23,129
946,1	20,186
946,6	15,929
947	17,414
947,4	20,986
947,8	23,214
948,2	27,471
948,7	22,643
949,1	21,929
949,5	20,957
949,9	20,757
950,3	12,786
950,8	9,129
951,2	11,071
951,6	13,243
952	19,957
952,5	21,5
952,9	15,729
953,3	18,471
953,7	19,329
954,1	18,043
954,6	16,9
955	13,843
955,4	17,529
955,8	21,643
956,2	18,529
956,7	21,071
957,1	18,3
957,5	19,357
957,9	14,529
958,3	9,843
958,8	6,586
959,2	12,443
959,6	8,7
960	11,557
960,5	15,5
960,9	13,129
961,3	11,986
961,7	15,957
962,1	16,671
962,6	12,729
963	10,071
963,4	1,014
963,8	4,843
964,2	5,929
964,7	6,871
965,1	4,529
965,5	11,271
965,9	7,671
966,3	19,929
966,8	21,929
967,2	21,7
967,6	22,614
968	24,043
968,4	18,843
968,9	23,186
969,3	23,014
969,7	17,414
970,1	22,586
970,5	20,186
971	19,3
971,4	23,271
971,8	22,557
972,2	19,5
972,6	22,957
973,1	20,757
973,5	19,529
973,9	14,729
974,3	12,157
974,7	16,329
975,2	11,871
975,6	9,729
976	11,957
976,4	13,557
976,8	16,471
977,3	19,557
977,7	16,586
978,1	15,043
978,5	15,386
978,9	10,329
979,4	6,243
979,8	1,7
980,2	3,5
980,6	6,5
981	5,214
981,5	7,843
981,9	9,871
982,3	10,643
982,7	18,243
983,1	14,529
983,6	6,843
984	17,271
984,4	13,729
984,8	9,1
985,2	10,614
985,6	5,3
986,1	-0,5
986,5	4,157
986,9	1,3
987,3	5,9
987,7	10,614
988,2	7,871
988,6	6,386
989	13,271
989,4	13,471
989,8	13,929
990,3	12,9
990,7	8,671
991,1	9,357
991,5	13,957
991,9	20,357
992,3	10,1
992,8	6,786
993,2	6,614
993,6	9,3
994	12,329
994,4	8,586
994,9	3,614
995,3	12,871
995,7	14,557
996,1	7,9
996,5	9,643
996,9	9,071
997,4	5,786
997,8	4,3
998,2	0,443
998,6	3,529
999	6,871
999,5	-0,5
999,9	-0,5
1000,3	6,729
1000,7	0,814
1001,1	3,214
1001,5	3,3
1002	-0,214
1002,4	11,386
1002,8	16,043
1003,2	20,443
1003,6	26,9
1004	27,471
1004,5	20,671
1004,9	25,071
1005,3	19,386
1005,7	18,1
1006,1	12,557
1006,6	11,729
1007	12,7
1007,4	12,3
1007,8	13,329
1008,2	14,957
1008,6	9,186
1009,1	6,757
1009,5	2,786
1009,9	-2,357
1010,3	-0,414
1010,7	0,386
1011,1	-2,529
1011,6	4,786
1012	6,814
1012,4	8,843
1012,8	13,757
1013,2	20,243
1013,6	23,414
1014,1	27,671
1014,5	19,7
1014,9	14,643
1015,3	15,329
1015,7	15,1
1016,1	10,129
1016,6	4,357
1017	4,043
1017,4	9,471
1017,8	16,786
1018,2	15,471
1018,6	16,157
1019,1	15,557
1019,5	19,814
1019,9	17,843
1020,3	15,729
1020,7	12,043
1021,1	18,014
1021,6	21,986
1022	25,157
1022,4	20,414
1022,8	25,986
1023,2	28,5
1023,6	26,729
1024,1	25,7
1024,5	21,3
1024,9	19,957
1025,3	20,386
1025,7	17,814
1026,1	15,243
1026,6	19,243
1027	13,586
1027,4	13,329
1027,8	12,529
1028,2	19,471
1028,6	20,471
1029	18,929
1029,5	15,329
1029,9	17,729
1030,3	13,7
1030,7	9,614
1031,1	6,7
1031,5	2,586
1032	8,786
1032,4	5,5
1032,8	6,671
1033,2	8,329
1033,6	13,786
1034	8,814
1034,4	7,071
1034,9	1,129
1035,3	-1,357
1035,7	2,129
1036,1	4,214
1036,5	0,7
1036,9	4,471
1037,4	8,071
1037,8	12,329
1038,2	25,443
1038,6	21,357
1039	21,243
1039,4	26,043
1039,8	24,214
1040,3	24,7
1040,7	25,729
1041,1	21,5
1041,5	17,329
1041,9	16,443
1042,3	21,5
1042,7	23,271
1043,2	23,443
1043,6	23,1
1044	24,757
1044,4	26,929
1044,8	27,814
1045,2	22,986
1045,6	21,929
1046,1	20,071
1046,5	15,386
1046,9	13,757
1047,3	15,929
1047,7	19,386
1048,1	13,7
1048,5	14,986
1049	11,843
1049,4	15,043
1049,8	15,443
1050,2	11,157
1050,6	10,757
1051	15,014
1051,4	14,9
1051,9	17,671
1052,3	18,7
1052,7	22,757
1053,1	29,986
1053,5	31,786
1053,9	24,014
1054,3	22,271
1054,8	23,871
1055,2	21,843
1055,6	21,1
1056	15,929
1056,4	15,243
1056,8	20,5
1057,2	23,071
1057,6	26,671
1058,1	28,329
1058,5	17,557
1058,9	20,557
1059,3	13,614
1059,7	14,871
1060,1	15,043
1060,5	9,529
1061	11,471
1061,4	18,443
1061,8	23,186
1062,2	26,871
1062,6	31,3
1063	28,243
1063,4	31,786
1063,8	26,5
1064,3	29,729
1064,7	24,871
1065,1	27,043
1065,5	17,529
1065,9	14,157
1066,3	12,5
1066,7	13,157
1067,1	9,243
1067,6	5,871
1068	1,929
1068,4	7,1
1068,8	13,443
1069,2	6,043
1069,6	4,043
1070	2,871
1070,4	10,614
1070,9	14,157
1071,3	11,271
1071,7	6,5
1072,1	11,614
1072,5	14,843
1072,9	15,7
1073,3	13,643
1073,7	11,9
1074,2	10,586
1074,6	12,243
1075	16,5
1075,4	17,271
1075,8	18,157
1076,2	12,786
1076,6	11,129
1077	19,186
1077,5	27,1
1077,9	22,1
1078,3	22,471
1078,7	21,5
1079,1	27,186
1079,5	30,1
1079,9	20,186
1080,3	15,271
1080,7	16,557
1081,2	19,929
1081,6	15,557
1082	9,557
1082,4	12,471
1082,8	17,243
1083,2	18,5
1083,6	20,529
1084	19,157
1084,5	23,014
1084,9	24,271
1085,3	18,357
1085,7	16,814
1086,1	10,1
1086,5	11,186
1086,9	6,014
1087,3	4,957
1087,7	3,614
1088,2	6,186
1088,6	8,671
1089	7,986
1089,4	6,1
1089,8	9,443
1090,2	11,043
1090,6	12,729
1091	13,729
1091,4	11,729
1091,9	17,929
1092,3	19,1
1092,7	24,757
1093,1	25,9
1093,5	27,986
1093,9	28,357
1094,3	30,071
1094,7	28,271
1095,1	23,071
1095,5	14,586
1096	13,729
1096,4	15,586
1096,8	12,071
1097,2	8,671
1097,6	11,986
1098	13,443
1098,4	13,014
1098,8	12,871
1099,2	10,471
1099,6	9,671
1100,1	13,357
1100,5	9,129
1100,9	9,214
1101,3	10,871
1101,7	8,643
1102,1	7,9
1102,5	10,386
1102,9	9,957
1103,3	7,957
1103,7	12,471
1104,2	9,3
1104,6	9,529
1105	6,729
1105,4	4,3
1105,8	1,729
1106,2	3,043
1106,6	-1,7
1107	-1,357
1107,4	-1,433
1107,8	0,38
1108,3	-0,45
