Data from Subt2_00024.txt Node
Date: Mon Aug 28 13:10:51 MSK 2023
User: vat
Spectrometer: MAYP114033
Trigger mode: 0
Integration Time (sec): 1,000000E0
Scans to average: 5
Electric dark correction enabled: true
Nonlinearity correction enabled: false
Boxcar width: 3
XAxis mode: Wavelengths
Number of Pixels in Spectrum: 2068
>>>>>Begin Spectral Data<<<<<
199,4	-0,55
199,9	2,12
200,4	2,967
200,8	3,543
201,3	3,057
201,8	2,886
202,2	3,571
202,7	6,486
203,2	5,886
203,6	5,086
204,1	5,6
204,6	9,086
205	11,8
205,5	14,2
206	11,771
206,4	10,514
206,9	12,114
207,4	10,2
207,8	4,286
208,3	4,686
208,8	5,829
209,2	7,6
209,7	8,4
210,2	3,4
210,6	5,629
211,1	7,229
211,5	10,457
212	9,629
212,5	6,971
212,9	11,514
213,4	19,543
213,9	21
214,3	22,143
214,8	21,114
215,3	21,629
215,7	24,657
216,2	22,486
216,7	23,714
217,1	19,2
217,6	23,914
218,1	19,4
218,5	12,8
219	11,457
219,5	8,543
219,9	3,286
220,4	8,057
220,9	5,971
221,3	5,429
221,8	13,143
222,3	17,371
222,7	19,743
223,2	23
223,6	23,629
224,1	21,914
224,6	23,486
225	23
225,5	19,771
226	19,257
226,4	17,6
226,9	15,8
227,4	17,857
227,8	21,057
228,3	17,8
228,8	19,4
229,2	19,914
229,7	19,086
230,2	15,457
230,6	14,257
231,1	8,971
231,5	11,257
232	13,2
232,5	12,257
232,9	7,629
233,4	10,886
233,9	8,229
234,3	9,6
234,8	10,371
235,3	3,6
235,7	-1,4
236,2	-1,543
236,7	-2,343
237,1	8,886
237,6	9,6
238,1	5,514
238,5	8,543
239	11,714
239,4	16,086
239,9	17,743
240,4	8,629
240,8	8,8
241,3	11,829
241,8	13,314
242,2	16
242,7	20,6
243,2	23,257
243,6	31,943
244,1	31,686
244,6	29,971
245	30,971
245,5	34
245,9	26,086
246,4	25,343
246,9	20,143
247,3	19,057
247,8	16,486
248,3	16,029
248,7	16,086
249,2	19,8
249,7	16,486
250,1	14,343
250,6	14,114
251	14,857
251,5	14,086
252	7,6
252,4	9,514
252,9	9,914
253,4	11,286
253,8	12,029
254,3	11,8
254,8	11,057
255,2	13,114
255,7	11,057
256,1	13,686
256,6	13,771
257,1	17,229
257,5	17,8
258	16,771
258,5	17,8
258,9	17,343
259,4	15,6
259,9	11,971
260,3	9,829
260,8	12,686
261,2	11,257
261,7	11,514
262,2	11,8
262,6	9,914
263,1	12,257
263,6	11,086
264	9,286
264,5	10,2
264,9	12,4
265,4	10,514
265,9	9,657
266,3	10,029
266,8	9,686
267,3	6,629
267,7	7,714
268,2	5,971
268,7	6,229
269,1	12,743
269,6	17,429
270	22,2
270,5	22,743
271	24,229
271,4	23,657
271,9	28,114
272,4	23,714
272,8	18,257
273,3	15,686
273,7	14,657
274,2	12,057
274,7	10,771
275,1	8,686
275,6	11,971
276,1	10,943
276,5	7,771
277	12,257
277,4	14,486
277,9	16,457
278,4	14,886
278,8	13,086
279,3	12,229
279,8	10,771
280,2	7,257
280,7	1,343
281,1	-2,114
281,6	0,657
282,1	-2,429
282,5	-1,2
283	0,257
283,4	3,6
283,9	11,686
284,4	15,886
284,8	14,886
285,3	16,2
285,8	18,429
286,2	15,771
286,7	13,857
287,1	15,514
287,6	11,914
288,1	17,371
288,5	16,086
289	17,371
289,5	21,914
289,9	27,857
290,4	23,8
290,8	26,086
291,3	19,343
291,8	23,029
292,2	22,086
292,7	24,229
293,1	20,914
293,6	17,029
294,1	17,286
294,5	18,514
295	17,057
295,5	13,143
295,9	9,514
296,4	9,029
296,8	12,829
297,3	11,286
297,8	8,257
298,2	9,6
298,7	12,629
299,1	17,143
299,6	15,114
300,1	14,6
300,5	15,229
301	19,571
301,5	14,314
301,9	13,543
302,4	8,543
302,8	7,229
303,3	6,143
303,8	7,171
304,2	1,057
304,7	3,771
305,1	3,029
305,6	6,029
306,1	7
306,5	12,114
307	8,543
307,4	13,086
307,9	10,914
308,4	12,343
308,8	11,971
309,3	12,857
309,8	11,829
310,2	14,171
310,7	16,343
311,1	17,629
311,6	18,514
312,1	17,171
312,5	17
313	11,886
313,4	13
313,9	9,486
314,4	11,514
314,8	8,371
315,3	10,857
315,7	11,371
316,2	16,314
316,7	12,229
317,1	14,8
317,6	10,457
318	12,629
318,5	8,029
319	10,6
319,4	9,114
319,9	9,971
320,3	3,057
320,8	9,714
321,3	9,629
321,7	13,086
322,2	11,743
322,6	7,286
323,1	7,943
323,6	14,657
324	14,514
324,5	15,914
324,9	18,143
325,4	18,914
325,9	19,686
326,3	21,743
326,8	18,029
327,2	13,4
327,7	13,057
328,2	6,286
328,6	6,686
329,1	6,429
329,5	2,8
330	4,514
330,5	6,143
330,9	2,714
331,4	9,914
331,8	10,829
332,3	11,943
332,8	15,371
333,2	16,829
333,7	11,171
334,1	14,114
334,6	12,257
335,1	12,371
335,5	14,6
336	11,257
336,4	14,2
336,9	19,657
337,4	19,2
337,8	18,543
338,3	15,886
338,7	14,257
339,2	19,514
339,7	15,429
340,1	10,743
340,6	4,686
341	1,771
341,5	4,114
342	4,886
342,4	2,629
342,9	2,457
343,3	7,229
343,8	9,457
344,2	13,771
344,7	16,086
345,2	14,486
345,6	15,914
346,1	17,686
346,5	20,057
347	23,171
347,5	21,257
347,9	13,343
348,4	11,857
348,8	7,857
349,3	10,486
349,8	7,914
350,2	7,143
350,7	5,743
351,1	9,457
351,6	12,057
352	14,429
352,5	12,743
353	14,714
353,4	17,057
353,9	15,8
354,3	18,486
354,8	18,229
355,3	19,743
355,7	17,086
356,2	11,257
356,6	14,6
357,1	18,457
357,5	18,171
358	20,371
358,5	21,143
358,9	22,886
359,4	31,514
359,8	32,486
360,3	33,943
360,8	38,371
361,2	47,057
361,7	52,429
362,1	59,314
362,6	67,571
363	73,571
363,5	87,514
364	98,971
364,4	105,657
364,9	117,429
365,3	129,229
365,8	135,8
366,3	146
366,7	153,514
367,2	156,714
367,6	162,943
368,1	168,943
368,5	173,257
369	177,657
369,5	177,543
369,9	175,229
370,4	180,343
370,8	182,514
371,3	180,6
371,7	180,286
372,2	179,114
372,7	178,457
373,1	176,543
373,6	167,257
374	151,914
374,5	142,686
374,9	133,686
375,4	123,257
375,9	111,829
376,3	104,171
376,8	100,114
377,2	98
377,7	96,514
378,2	93,143
378,6	91,943
379,1	87,314
379,5	82,629
380	75,086
380,4	72,857
380,9	66,143
381,4	62,457
381,8	58,486
382,3	57,771
382,7	56,771
383,2	54,457
383,6	51,057
384,1	50,886
384,6	50,571
385	50,943
385,5	50,086
385,9	44,714
386,4	43,743
386,8	45,914
387,3	40,657
387,7	34,914
388,2	28,314
388,7	23,686
389,1	19,286
389,6	20,943
390	23,429
390,5	23,057
390,9	23,514
391,4	21,486
391,9	27,057
392,3	34,371
392,8	34,143
393,2	29,057
393,7	26,657
394,1	27,371
394,6	29,6
395,1	27,543
395,5	24,4
396	13,971
396,4	11,943
396,9	16,686
397,3	16,343
397,8	13,829
398,2	12,057
398,7	12
399,2	22,086
399,6	27,371
400,1	24,571
400,5	22,314
401	28,171
401,4	28,2
401,9	29,314
402,4	24,257
402,8	18,543
403,3	18,257
403,7	20,629
404,2	18,314
404,6	18,286
405,1	19,686
405,5	19,229
406	18,171
406,5	21,657
406,9	20,343
407,4	18,143
407,8	18,857
408,3	15
408,7	18,6
409,2	20,943
409,6	20,057
410,1	21,743
410,6	25,171
411	26,4
411,5	29,771
411,9	35,286
412,4	37,486
412,8	40,6
413,3	45,314
413,7	48,686
414,2	48,2
414,7	49,971
415,1	46,4
415,6	46,629
416	47,714
416,5	49,429
416,9	49,486
417,4	59,257
417,8	59,143
418,3	61,057
418,8	65,914
419,2	67,114
419,7	66,371
420,1	64,771
420,6	56,857
421	64,029
421,5	70,743
421,9	73,829
422,4	80,971
422,8	86,514
423,3	93,8
423,8	98,4
424,2	97,914
424,7	99,171
425,1	101,171
425,6	101,2
426	103,371
426,5	103,886
426,9	112
427,4	116,029
427,9	120,686
428,3	127,457
428,8	132,257
429,2	134,029
429,7	141,829
430,1	146,486
430,6	155,4
431	159,543
431,5	165,343
431,9	171,886
432,4	181,8
432,8	192,686
433,3	203,886
433,8	214,886
434,2	222,314
434,7	229,029
435,1	238,943
435,6	250,629
436	259,171
436,5	264,971
436,9	272,486
437,4	284,914
437,8	297,657
438,3	311,086
438,8	322,457
439,2	334,686
439,7	349,8
440,1	360,657
440,6	377,457
441	393,057
441,5	402,914
441,9	417,6
442,4	431,8
442,8	453
443,3	472,057
443,7	483,143
444,2	498,8
444,7	521,886
445,1	539,371
445,6	564,171
446	580,857
446,5	599,886
446,9	622,029
447,4	646,771
447,8	668,114
448,3	692,257
448,7	705,971
449,2	717,543
449,6	738,886
450,1	762,143
450,6	781,6
451	797,257
451,5	815,4
451,9	841,057
452,4	867,571
452,8	891,457
453,3	908,086
453,7	922,629
454,2	948,343
454,6	970,8
455,1	993,657
455,5	1016,029
456	1032
456,4	1058,486
456,9	1084,714
457,3	1108,714
457,8	1129,229
458,3	1152,114
458,7	1172,657
459,2	1201,171
459,6	1225,257
460,1	1254,029
460,5	1274,714
461	1297,829
461,4	1316,6
461,9	1341,429
462,3	1365,429
462,8	1386,171
463,2	1403,771
463,7	1421,171
464,1	1444,543
464,6	1463,086
465	1482,914
465,5	1492,029
466	1509,571
466,4	1527,086
466,9	1549,857
467,3	1563,343
467,8	1587,771
468,2	1604,229
468,7	1627,486
469,1	1650,171
469,6	1666,4
470	1682,029
470,5	1697,571
470,9	1702,4
471,4	1717,857
471,8	1726,229
472,3	1737,6
472,7	1748,6
473,2	1762,543
473,6	1778,086
474,1	1792,486
474,5	1808,229
475	1824,429
475,4	1833,086
475,9	1847,743
476,4	1855,257
476,8	1860,8
477,3	1871,4
477,7	1876,4
478,2	1883,486
478,6	1895,571
479,1	1894,257
479,5	1904,057
480	1914,743
480,4	1923,286
480,9	1930,943
481,3	1939,371
481,8	1936,143
482,2	1941,6
482,7	1938,2
483,1	1941,229
483,6	1938,629
484	1940,429
484,5	1939,429
484,9	1938,657
485,4	1944,743
485,8	1943,971
486,3	1941,943
486,7	1939,714
487,2	1935,743
487,6	1927,829
488,1	1924,2
488,5	1920,914
489	1921,286
489,4	1906,057
489,9	1905,429
490,4	1900,343
490,8	1899,314
491,3	1898,457
491,7	1883,171
492,2	1870,971
492,6	1871,143
493,1	1863,429
493,5	1844,371
494	1833,943
494,4	1824,657
494,9	1820,086
495,3	1809
495,8	1801,257
496,2	1784,257
496,7	1784,714
497,1	1782,371
497,6	1772,857
498	1763,629
498,5	1759,086
498,9	1745,829
499,4	1743,4
499,8	1728,257
500,3	1717,8
500,7	1703,486
501,2	1693,543
501,6	1679,543
502,1	1665,943
502,5	1652,857
503	1646,771
503,4	1630,857
503,9	1622,143
504,3	1608,886
504,8	1598,743
505,2	1593,886
505,7	1583,571
506,1	1570,086
506,6	1556,829
507	1542,8
507,5	1529,971
507,9	1515,771
508,4	1495,343
508,8	1480,657
509,3	1464,343
509,7	1452,943
510,2	1437,571
510,6	1427,114
511,1	1418,886
511,5	1410,943
512	1395,914
512,4	1380,086
512,9	1364,429
513,3	1353,257
513,8	1337,543
514,2	1324,629
514,7	1314,257
515,1	1306,171
515,6	1296,6
516	1283,6
516,5	1277,029
516,9	1263,429
517,4	1246,457
517,8	1232,771
518,3	1215,029
518,7	1204,057
519,2	1195,314
519,6	1174,086
520,1	1166,486
520,5	1158,143
521	1141,229
521,4	1128,2
521,9	1115,371
522,3	1101,943
522,8	1092,257
523,2	1077,4
523,7	1058,286
524,1	1050,629
524,6	1037,914
525	1024,114
525,5	1008,314
525,9	1000,2
526,4	989,571
526,8	982,029
527,3	966,457
527,7	955,257
528,2	947,6
528,6	939,086
529,1	921,057
529,5	903,971
530	895,714
530,4	885,771
530,9	877,086
531,3	868,686
531,8	853,171
532,2	844,2
532,6	836,571
533,1	821,086
533,5	813,086
534	806,229
534,4	794,371
534,9	791,029
535,3	784,943
535,8	779,771
536,2	776,143
536,7	762,457
537,1	748,2
537,6	739,2
538	729,914
538,5	723,743
538,9	713,314
539,4	703,029
539,8	700,2
540,3	695,486
540,7	686,743
541,2	672,943
541,6	664,114
542,1	654,543
542,5	650,571
543	640,4
543,4	630,057
543,9	622,886
544,3	619,829
544,8	611,971
545,2	608,4
545,7	601,029
546,1	592,743
546,5	584,686
547	578,743
547,4	565,286
547,9	563,057
548,3	552,886
548,8	544,057
549,2	541,314
549,7	537,029
550,1	526,857
550,6	527,343
551	515,771
551,5	507,829
551,9	500,543
552,4	491,257
552,8	488,6
553,3	484,143
553,7	477,029
554,2	471,257
554,6	467,686
555,1	458,943
555,5	455,686
555,9	451,514
556,4	445,086
556,8	437,657
557,3	427,429
557,7	423,371
558,2	423,029
558,6	417,143
559,1	409,514
559,5	404,714
560	401,543
560,4	400,486
560,9	395,314
561,3	392,8
561,8	386,714
562,2	375,686
562,7	369,657
563,1	366,4
563,6	365,114
564	363,086
564,4	358,4
564,9	357,086
565,3	358,4
565,8	356,343
566,2	347,2
566,7	343,029
567,1	340,143
567,6	331,314
568	328,714
568,5	327,657
568,9	326,457
569,4	324,8
569,8	316,029
570,3	307,543
570,7	304,571
571,1	301,686
571,6	294,943
572	291,943
572,5	290,457
572,9	289,629
573,4	290,314
573,8	289,571
574,3	282,857
574,7	280,571
575,2	278,543
575,6	280,171
576,1	277,771
576,5	271
576,9	261,257
577,4	259,029
577,8	252,6
578,3	245,514
578,7	239,2
579,2	239,314
579,6	237,886
580,1	242,057
580,5	236,829
581	237,629
581,4	237,229
581,9	235,8
582,3	232,914
582,7	230,629
583,2	227,571
583,6	226,257
584,1	226,343
584,5	225,2
585	221,743
585,4	219,143
585,9	216,143
586,3	212,686
586,8	210,714
587,2	207,257
587,6	198,743
588,1	200,6
588,5	191,171
589	190,171
589,4	189,2
589,9	187,971
590,3	182,886
590,8	183,829
591,2	172,571
591,7	178,6
592,1	173,686
592,5	173,171
593	176,143
593,4	172,771
593,9	167,914
594,3	172,457
594,8	168,886
595,2	170,086
595,7	163,771
596,1	160,486
596,6	159,857
597	164,743
597,4	162,2
597,9	159,057
598,3	155,171
598,8	151,2
599,2	145,143
599,7	145,4
600,1	143,229
600,6	140,057
601	141,457
601,4	144,771
601,9	150,2
602,3	153,029
602,8	154,286
603,2	150,143
603,7	151,457
604,1	147,486
604,6	144,286
605	143,8
605,4	136,657
605,9	131,8
606,3	132,943
606,8	130,943
607,2	128,8
607,7	126,371
608,1	120,4
608,6	123,714
609	125,114
609,4	120,8
609,9	120,2
610,3	119,029
610,8	116,4
611,2	117,771
611,7	117
612,1	113,514
612,6	112,714
613	103,686
613,4	101,286
613,9	103,829
614,3	101,429
614,8	97,629
615,2	102,371
615,7	103,771
616,1	109,486
616,6	114,771
617	111,771
617,4	109,514
617,9	111,2
618,3	108,943
618,8	108,371
619,2	106,686
619,7	97,714
620,1	99,029
620,5	97,686
621	96,2
621,4	90,971
621,9	84,486
622,3	85,657
622,8	88,6
623,2	85,343
623,6	86,486
624,1	85,171
624,5	85,257
625	83,971
625,4	85,629
625,9	86,029
626,3	88,943
626,8	90,057
627,2	86,114
627,6	85,771
628,1	90,486
628,5	87,543
629	87,571
629,4	88,171
629,9	84,8
630,3	86,543
630,7	88,943
631,2	90,743
631,6	85,657
632,1	83
632,5	81,771
633	87,429
633,4	89,714
633,8	86,657
634,3	81,171
634,7	82
635,2	87,629
635,6	82,171
636,1	74,686
636,5	72,286
636,9	71,571
637,4	74,343
637,8	78,629
638,3	77,686
638,7	77,657
639,2	78,657
639,6	75,971
640	75,029
640,5	75,714
640,9	74,571
641,4	71,886
641,8	70
642,2	71,086
642,7	77,657
643,1	78,429
643,6	77,743
644	74,543
644,5	77,171
644,9	79,171
645,3	80,314
645,8	77,029
646,2	74,257
646,7	72,314
647,1	72,429
647,6	67,371
648	67,514
648,4	67,486
648,9	63,743
649,3	65,086
649,8	63,743
650,2	62,029
650,6	59,829
651,1	59,629
651,5	57,457
652	61,143
652,4	57,943
652,9	52,886
653,3	49,714
653,7	49,829
654,2	47,286
654,6	47,114
655,1	42,971
655,5	47,143
655,9	52,257
656,4	57,543
656,8	60,2
657,3	64,143
657,7	61,371
658,2	65,343
658,6	63,771
659	65,771
659,5	65,8
659,9	66,143
660,4	66,514
660,8	65,714
661,2	62,029
661,7	58,171
662,1	57,314
662,6	59,286
663	56,971
663,4	55,971
663,9	58,543
664,3	55,429
664,8	56,229
665,2	55,4
665,6	49,2
666,1	50,629
666,5	49,086
667	46,686
667,4	49,143
667,9	51,086
668,3	46,714
668,7	47,029
669,2	40,657
669,6	36,371
670,1	39,229
670,5	38,086
670,9	36,114
671,4	37,514
671,8	39,743
672,3	43,486
672,7	46
673,1	44,971
673,6	47,514
674	48,286
674,5	50,714
674,9	49,4
675,3	48,829
675,8	45,8
676,2	43,514
676,7	42,714
677,1	44,057
677,5	43,229
678	43,857
678,4	44,343
678,9	48,629
679,3	47,286
679,7	45,029
680,2	46,943
680,6	44,4
681,1	43,343
681,5	46,2
681,9	43,657
682,4	47,829
682,8	46,2
683,3	42,914
683,7	44
684,1	41,886
684,6	40,229
685	35,057
685,5	23,914
685,9	24,229
686,3	25,286
686,8	26,914
687,2	29,514
687,7	26,171
688,1	33,743
688,5	38,4
689	42,429
689,4	39,2
689,9	38,743
690,3	36,371
690,7	38,143
691,2	36,286
691,6	38,457
692	36,886
692,5	35,714
692,9	34,086
693,4	35,771
693,8	36,057
694,2	34,829
694,7	30,714
695,1	34,486
695,6	40,6
696	40,829
696,4	41,4
696,9	36,914
697,3	38,657
697,8	46
698,2	38,8
698,6	33,343
699,1	37,829
699,5	39,457
699,9	40,8
700,4	42,457
700,8	38,714
701,3	42,371
701,7	42,543
702,1	37,829
702,6	30,114
703	28,543
703,5	28,086
703,9	28,343
704,3	24,686
704,8	25,371
705,2	22,371
705,6	27,343
706,1	27,086
706,5	26,114
707	26,286
707,4	30,2
707,8	31,4
708,3	34,543
708,7	34,114
709,2	33,886
709,6	33,086
710	35,343
710,5	31,771
710,9	34,886
711,3	32,771
711,8	31,086
712,2	32,114
712,7	27,514
713,1	23,171
713,5	23,8
714	17,229
714,4	17,2
714,8	18,743
715,3	26,143
715,7	28,314
716,2	35,571
716,6	33,029
717	35,829
717,5	33,943
717,9	31,771
718,3	27,343
718,8	29,2
719,2	24,771
719,7	27,714
720,1	27,143
720,5	31,914
721	34,886
721,4	37,057
721,8	33,4
722,3	34,029
722,7	31,571
723,2	33,171
723,6	34,829
724	35,343
724,5	33,114
724,9	35,257
725,3	30,229
725,8	33,943
726,2	32,6
726,7	28,6
727,1	26,114
727,5	24,657
728	18,514
728,4	22,514
728,8	19,771
729,3	15,571
729,7	17,971
730,1	17,4
730,6	17,8
731	25,171
731,5	24,657
731,9	27,057
732,3	30,029
732,8	29,286
733,2	33,571
733,6	37,114
734,1	34
734,5	33,914
734,9	30,429
735,4	31,914
735,8	31,514
736,3	21,4
736,7	16,371
737,1	17,057
737,6	13,029
738	16,971
738,4	18,6
738,9	19,343
739,3	26,657
739,7	28,8
740,2	29,971
740,6	34,543
741,1	28,257
741,5	25,571
741,9	21,629
742,4	24,686
742,8	22,971
743,2	21,686
743,7	22,714
744,1	28,514
744,5	26,686
745	28,543
745,4	24,6
745,8	23,029
746,3	24,714
746,7	21,114
747,2	19
747,6	24,2
748	28,686
748,5	30,229
748,9	31,6
749,3	33,971
749,8	35,886
750,2	33,829
750,6	28,886
751,1	26,686
751,5	27,714
751,9	28,143
752,4	30,057
752,8	29,514
753,3	33,857
753,7	35,743
754,1	34,343
754,6	33,486
755	33,971
755,4	33,229
755,9	32,714
756,3	29,6
756,7	32,057
757,2	28,543
757,6	26,229
758	25,086
758,5	21,743
758,9	24,8
759,3	23,2
759,8	19
760,2	20,457
760,6	28,086
761,1	31,514
761,5	32,257
761,9	28,486
762,4	31,171
762,8	35,229
763,3	37,171
763,7	32,4
764,1	27,371
764,6	27,571
765	29,8
765,4	32,143
765,9	31,343
766,3	30
766,7	29,143
767,2	30,943
767,6	32,343
768	28,229
768,5	24,771
768,9	22,457
769,3	21,914
769,8	15,057
770,2	18,029
770,6	13,857
771,1	15
771,5	15,914
771,9	17,086
772,4	19,857
772,8	23,629
773,2	21,514
773,7	19,486
774,1	24,143
774,5	25,029
775	24,257
775,4	23,371
775,8	22,971
776,3	25,229
776,7	27,743
777,1	23,943
777,6	19,114
778	18,371
778,4	13,857
778,9	14,257
779,3	9,457
779,7	9,114
780,2	9,657
780,6	14,857
781	14,629
781,5	20,886
781,9	26,686
782,3	29,314
782,8	33,571
783,2	30,629
783,6	29,229
784,1	29,8
784,5	22,486
784,9	18,4
785,4	16,771
785,8	11,4
786,2	13,486
786,7	13,657
787,1	16,829
787,5	20,886
788	18,543
788,4	22,057
788,8	20,971
789,3	22,914
789,7	23,429
790,1	21,286
790,6	23,6
791	24,2
791,4	23,029
791,9	22,743
792,3	21,029
792,7	21,343
793,2	19,343
793,6	19,886
794	21,714
794,5	18,971
794,9	26,657
795,3	27,829
795,8	27,514
796,2	25,743
796,6	21,457
797,1	19,514
797,5	18,343
797,9	13,771
798,4	13,771
798,8	14,629
799,2	16,343
799,7	16,543
800,1	17,943
800,5	22,857
801	24,029
801,4	22,371
801,8	19,486
802,2	18,686
802,7	17,171
803,1	17,314
803,5	13
804	8,886
804,4	8,514
804,8	10,857
805,3	12,171
805,7	12,229
806,1	10,4
806,6	11,8
807	16,914
807,4	17
807,9	16,914
808,3	17,686
808,7	20,771
809,2	19,057
809,6	20,629
810	22,743
810,4	25,571
810,9	26,4
811,3	21,686
811,7	18,286
812,2	20,714
812,6	20,143
813	15,514
813,5	15,886
813,9	12,2
814,3	13,6
814,8	16,771
815,2	16,886
815,6	18
816,1	19,6
816,5	16,143
816,9	18,286
817,3	22,4
817,8	23,714
818,2	21,429
818,6	20,543
819,1	19,8
819,5	17,429
819,9	18,229
820,4	19,914
820,8	17,943
821,2	19,771
821,7	13,686
822,1	10,943
822,5	19,371
822,9	18,771
823,4	14,857
823,8	14
824,2	16,314
824,7	20,686
825,1	23,943
825,5	16,971
826	7,657
826,4	6,429
826,8	8,457
827,3	6,257
827,7	8,086
828,1	7,057
828,5	11,943
829	21,571
829,4	20,086
829,8	19,257
830,3	19,257
830,7	19,457
831,1	21,2
831,6	17,886
832	15,714
832,4	19,657
832,8	19,086
833,3	17,229
833,7	12,143
834,1	11,571
834,6	14,886
835	18,914
835,4	17
835,8	16,314
836,3	19,4
836,7	23,429
837,1	22,4
837,6	17,229
838	14,4
838,4	13,857
838,9	16,057
839,3	15,686
839,7	14,343
840,1	18,486
840,6	19,286
841	20,743
841,4	17,6
841,9	17,371
842,3	15,657
842,7	15,143
843,1	9,029
843,6	10,771
844	10,457
844,4	18,314
844,9	19,029
845,3	19,457
845,7	19,886
846,2	24,943
846,6	23,343
847	21,657
847,4	21,857
847,9	19,543
848,3	13,371
848,7	13,229
849,2	11,114
849,6	9,571
850	12,286
850,4	7,314
850,9	8,229
851,3	16,6
851,7	14,2
852,2	11,514
852,6	12,829
853	13,8
853,4	16,886
853,9	15,686
854,3	15,229
854,7	21,943
855,2	22,514
855,6	23,057
856	23,514
856,4	18,371
856,9	17,4
857,3	14,343
857,7	14,114
858,2	13,2
858,6	16,457
859	13,171
859,4	12,971
859,9	14,914
860,3	17,743
860,7	12,086
861,1	15,971
861,6	13,943
862	14,343
862,4	17,429
862,9	15,2
863,3	14,229
863,7	18,829
864,1	17,543
864,6	18,2
865	17,457
865,4	15,486
865,9	15,829
866,3	14,657
866,7	9,371
867,1	7,686
867,6	7,057
868	3,257
868,4	4,857
868,8	5,2
869,3	10,229
869,7	15,143
870,1	15
870,6	13,714
871	77,514
871,4	76,371
871,8	76,486
872,3	73,743
872,7	70,486
873,1	67,714
873,5	68,543
874	11,886
874,4	12,971
874,8	13,229
875,3	10,286
875,7	10,143
876,1	14,514
876,5	14,571
877	8,743
877,4	9,143
877,8	8,971
878,2	15,886
878,7	18,486
879,1	17,8
879,5	16,829
879,9	17,971
880,4	14,543
880,8	20,143
881,2	14,457
881,7	11,429
882,1	8,943
882,5	10,514
882,9	12,571
883,4	15,743
883,8	9,486
884,2	7,086
884,6	4,886
885,1	3,057
885,5	2,257
885,9	-0,314
886,3	2,429
886,8	6,257
887,2	6,829
887,6	10,514
888	16,171
888,5	15,657
888,9	15,343
889,3	9,8
889,8	10,857
890,2	8,286
890,6	7,086
891	6,229
891,5	8,543
891,9	6,257
892,3	11,543
892,7	6,171
893,2	11,943
893,6	13,943
894	12,514
894,4	7,514
894,9	11,514
895,3	10,257
895,7	14,657
896,1	11,657
896,6	9,571
897	11,657
897,4	12,4
897,8	12,8
898,3	13,6
898,7	11,114
899,1	11,829
899,5	13,8
900	12,829
900,4	13,971
900,8	6,829
901,2	-0,514
901,7	2,714
902,1	1,857
902,5	-1,371
902,9	-4,429
903,4	-1,886
903,8	2,286
904,2	8,914
904,6	7,286
905,1	8,8
905,5	12
905,9	10,8
906,3	10,943
906,8	11,171
907,2	5,714
907,6	4,314
908	5,229
908,5	1,657
908,9	4,371
909,3	3,4
909,7	2,457
910,2	3,4
910,6	1,714
911	0,4
911,4	3,143
911,9	4,571
912,3	4
912,7	8,229
913,1	16
913,6	16,486
914	22,429
914,4	21,114
914,8	20,829
915,3	23,314
915,7	24,171
916,1	18,943
916,5	18,743
916,9	11,029
917,4	10,057
917,8	6,514
918,2	6,886
918,6	1,686
919,1	-0,714
919,5	3,543
919,9	10,429
920,3	12,686
920,8	21,6
921,2	19,257
921,6	20,514
922	20
922,5	18,314
922,9	15,486
923,3	15,743
923,7	9,171
924,2	7,4
924,6	7,057
925	12,743
925,4	13,514
925,8	12,686
926,3	11,371
926,7	13,057
927,1	13,257
927,5	16,4
928	12,686
928,4	9
928,8	11,971
929,2	9,6
929,7	9,543
930,1	12,486
930,5	6,886
930,9	12,057
931,3	17,171
931,8	14,229
932,2	16,143
932,6	13,6
933	8,514
933,5	12,543
933,9	9,971
934,3	3,029
934,7	1,686
935,2	1,457
935,6	1,486
936	-3,229
936,4	-2,429
936,8	-3,743
937,3	-0,543
937,7	0,657
938,1	5,286
938,5	4,971
939	10,4
939,4	9,571
939,8	6,971
940,2	5,114
940,6	4,457
941,1	0,743
941,5	3,686
941,9	6,114
942,3	4,6
942,8	8,657
943,2	9,514
943,6	11,429
944	12
944,4	9,2
944,9	6,029
945,3	5,943
945,7	4,914
946,1	5,886
946,6	0,486
947	1,371
947,4	-0,943
947,8	3,743
948,2	8,629
948,7	5,4
949,1	6,543
949,5	9,486
949,9	11,371
950,3	12,314
950,8	8,914
951,2	6,486
951,6	11,543
952	11,743
952,5	9,257
952,9	6,914
953,3	8,114
953,7	9,2
954,1	10,114
954,6	6,429
955	8,371
955,4	9,8
955,8	12,429
956,2	11,6
956,7	14,286
957,1	14,486
957,5	18,714
957,9	13,543
958,3	17,886
958,8	14,886
959,2	18,829
959,6	19,886
960	19,086
960,5	15,4
960,9	18,629
961,3	14,743
961,7	17,314
962,1	14,486
962,6	10,8
963	9,771
963,4	11,2
963,8	10,057
964,2	11,971
964,7	10,114
965,1	15,229
965,5	20,486
965,9	22,229
966,3	23,771
966,8	22,343
967,2	22,343
967,6	19,343
968	15,971
968,4	15,486
968,9	14,086
969,3	12,8
969,7	11,743
970,1	11,286
970,5	14,486
971	16,714
971,4	14
971,8	12,314
972,2	9,171
972,6	8,829
973,1	8,943
973,5	8,029
973,9	2,686
974,3	4,2
974,7	3,314
975,2	10,343
975,6	10,8
976	11,914
976,4	12,571
976,8	13,829
977,3	10,257
977,7	10,457
978,1	7,343
978,5	12,114
978,9	13,143
979,4	11,429
979,8	10,143
980,2	12,971
980,6	17,486
981	12,771
981,5	10,886
981,9	10,943
982,3	10,171
982,7	11,2
983,1	6,057
983,6	3,4
984	9,257
984,4	6,4
984,8	2,514
985,2	6,971
985,6	5,686
986,1	3,829
986,5	3,629
986,9	2,714
987,3	3,171
987,7	3,171
988,2	0,486
988,6	2,771
989	9,229
989,4	9,371
989,8	10,543
990,3	12,629
990,7	12,971
991,1	9,457
991,5	9,343
991,9	4,829
992,3	1,457
992,8	-1,4
993,2	-3,429
993,6	-5,2
994	-0,886
994,4	1,457
994,9	3,571
995,3	9,829
995,7	8,914
996,1	10,371
996,5	13,943
996,9	20,914
997,4	15,571
997,8	15,457
998,2	14,8
998,6	13,8
999	13
999,5	13,457
999,9	5,514
1000,3	8,514
1000,7	15,543
1001,1	13,314
1001,5	15
1002	13,4
1002,4	14,143
1002,8	16,943
1003,2	16,343
1003,6	9,714
1004	12,8
1004,5	10,657
1004,9	11,714
1005,3	7,171
1005,7	8,029
1006,1	7,8
1006,6	4,857
1007	-2,571
1007,4	-2
1007,8	0,629
1008,2	6,229
1008,6	7,743
1009,1	8,229
1009,5	15
1009,9	23,2
1010,3	27,829
1010,7	30,486
1011,1	28,971
1011,6	22,429
1012	23,343
1012,4	18,171
1012,8	16,114
1013,2	10,6
1013,6	6,171
1014,1	2,229
1014,5	4,6
1014,9	3,943
1015,3	5,143
1015,7	6,057
1016,1	8,971
1016,6	11,771
1017	15,514
1017,4	11,457
1017,8	15,743
1018,2	15,171
1018,6	14,343
1019,1	14,686
1019,5	11,257
1019,9	12,771
1020,3	15,114
1020,7	13,914
1021,1	13,886
1021,6	11,8
1022	13,171
1022,4	15,686
1022,8	11,229
1023,2	11,857
1023,6	6,543
1024,1	13,429
1024,5	17,2
1024,9	16,057
1025,3	17,486
1025,7	17,886
1026,1	14,543
1026,6	20,4
1027	14,429
1027,4	13,714
1027,8	11,457
1028,2	11,6
1028,6	12,686
1029	12,371
1029,5	8,171
1029,9	10,829
1030,3	5,2
1030,7	9,257
1031,1	12,2
1031,5	11,257
1032	13,286
1032,4	15,2
1032,8	7,571
1033,2	7,743
1033,6	4,857
1034	-3,086
1034,4	-5,086
1034,9	1,686
1035,3	2,771
1035,7	6,771
1036,1	14,114
1036,5	14,514
1036,9	17,771
1037,4	22,343
1037,8	17,029
1038,2	18,286
1038,6	17,914
1039	15
1039,4	20,4
1039,8	21,914
1040,3	24,943
1040,7	25,971
1041,1	17,914
1041,5	20,371
1041,9	25,171
1042,3	17,257
1042,7	15,143
1043,2	11,171
1043,6	10,143
1044	12,943
1044,4	14,371
1044,8	10,629
1045,2	15,343
1045,6	19,914
1046,1	21,4
1046,5	20,514
1046,9	26,229
1047,3	24,486
1047,7	22,257
1048,1	15,914
1048,5	12,743
1049	10,943
1049,4	10,8
1049,8	9,629
1050,2	7,371
1050,6	6
1051	12,886
1051,4	10,743
1051,9	11
1052,3	11,114
1052,7	9,057
1053,1	10,743
1053,5	12,543
1053,9	14,857
1054,3	10,6
1054,8	12,371
1055,2	13,829
1055,6	13,857
1056	9,686
1056,4	4,971
1056,8	3,514
1057,2	4,029
1057,6	2,143
1058,1	2,514
1058,5	-0,371
1058,9	4,2
1059,3	5,857
1059,7	4,143
1060,1	7,914
1060,5	7,971
1061	6,886
1061,4	6,829
1061,8	8,029
1062,2	8,343
1062,6	9,057
1063	9,857
1063,4	12
1063,8	12,543
1064,3	17,771
1064,7	15,457
1065,1	21,886
1065,5	20,143
1065,9	20,086
1066,3	19,771
1066,7	23,257
1067,1	16,486
1067,6	22,314
1068	20,457
1068,4	20,714
1068,8	20,657
1069,2	20,629
1069,6	15,229
1070	24,629
1070,4	18,771
1070,9	18,429
1071,3	17,314
1071,7	14,486
1072,1	10,343
1072,5	15,371
1072,9	10,457
1073,3	10,629
1073,7	9,514
1074,2	12,771
1074,6	17,286
1075	20,857
1075,4	19,2
1075,8	17,6
1076,2	21,771
1076,6	19,714
1077	19,829
1077,5	16,743
1077,9	10,657
1078,3	10,286
1078,7	11,686
1079,1	13,171
1079,5	14,657
1079,9	14,657
1080,3	16,429
1080,7	23,657
1081,2	24,2
1081,6	21,6
1082	18,771
1082,4	17,543
1082,8	17,286
1083,2	12,6
1083,6	7,8
1084	4,4
1084,5	7,2
1084,9	3,143
1085,3	3,743
1085,7	4,086
1086,1	7,2
1086,5	3,229
1086,9	5,086
1087,3	2,857
1087,7	9,286
1088,2	12,714
1088,6	14,2
1089	15,571
1089,4	28,686
1089,8	28
1090,2	27,229
1090,6	20,314
1091	15,057
1091,4	7,743
1091,9	6,914
1092,3	5,229
1092,7	2,971
1093,1	4,314
1093,5	6,743
1093,9	7,257
1094,3	8,257
1094,7	8,743
1095,1	6,8
1095,5	9,143
1096	12,4
1096,4	14,6
1096,8	18,057
1097,2	19,886
1097,6	20,829
1098	15,2
1098,4	17,229
1098,8	18,857
1099,2	14,8
1099,6	15,429
1100,1	16,143
1100,5	14,657
1100,9	16,486
1101,3	14,771
1101,7	11,257
1102,1	13,6
1102,5	9,686
1102,9	6,714
1103,3	6
1103,7	6,286
1104,2	7,457
1104,6	7,457
1105	6,029
1105,4	8,886
1105,8	10,029
1106,2	9,4
1106,6	7,571
1107	4,8
1107,4	4,233
1107,8	4,28
1108,3	0,35
