Data from Subt2_00049.txt Node
Date: Mon Aug 28 13:19:46 MSK 2023
User: vat
Spectrometer: MAYP114033
Trigger mode: 0
Integration Time (sec): 1,000000E0
Scans to average: 5
Electric dark correction enabled: true
Nonlinearity correction enabled: false
Boxcar width: 3
XAxis mode: Wavelengths
Number of Pixels in Spectrum: 2068
>>>>>Begin Spectral Data<<<<<
199,4	0,717
199,9	2,247
200,4	3,633
200,8	4,881
201,3	6,681
201,8	10,367
202,2	13,91
202,7	17,452
203,2	19,538
203,6	21,395
204,1	25,338
204,6	28,138
205	28,738
205,5	31,11
206	28,681
206,4	28,652
206,9	28,395
207,4	25,167
207,8	19,224
208,3	16,595
208,8	17,081
209,2	20,881
209,7	20,538
210,2	14,595
210,6	13,852
211,1	15,081
211,5	19,11
212	16,024
212,5	17,081
212,9	16,995
213,4	21,224
213,9	23,081
214,3	21,795
214,8	20,681
215,3	21,424
215,7	18,31
216,2	19,252
216,7	22,738
217,1	23,795
217,6	30,538
218,1	26,081
218,5	23,11
219	24,024
219,5	23,938
219,9	25,367
220,4	24,052
220,9	22,938
221,3	26,11
221,8	28,424
222,3	28,424
222,7	28,024
223,2	26,91
223,6	29,738
224,1	32,795
224,6	34,852
225	32,91
225,5	31,881
226	31,367
226,4	31,995
226,9	28,681
227,4	23,767
227,8	23,595
228,3	22,795
228,8	24,395
229,2	30,195
229,7	27,652
230,2	26,052
230,6	24,795
231,1	23,195
231,5	28,281
232	29,31
232,5	27,852
232,9	23,995
233,4	29,852
233,9	31,824
234,3	32,481
234,8	30,481
235,3	22,224
235,7	17,767
236,2	20,138
236,7	13,31
237,1	18,738
237,6	18,195
238,1	16,395
238,5	28,681
239	29,538
239,4	33,31
239,9	36,538
240,4	31,624
240,8	34,995
241,3	39,452
241,8	34,138
242,2	33,967
242,7	35,167
243,2	35,681
243,6	36,995
244,1	32,138
244,6	31,11
245	33,595
245,5	36,824
245,9	30,31
246,4	26,424
246,9	25,624
247,3	25,738
247,8	21,881
248,3	19,938
248,7	19,652
249,2	23,424
249,7	26,595
250,1	23,881
250,6	27,281
251	30,195
251,5	32,224
252	30,195
252,4	32,024
252,9	29,652
253,4	36,081
253,8	33,167
254,3	32,481
254,8	29,252
255,2	30,252
255,7	29,595
256,1	34,71
256,6	31,91
257,1	27,681
257,5	27,51
258	25,195
258,5	19,624
258,9	15,252
259,4	13,967
259,9	13,452
260,3	19,338
260,8	20,967
261,2	21,652
261,7	26,281
262,2	27,624
262,6	25,31
263,1	24,652
263,6	23,252
264	25,395
264,5	28,138
264,9	29,938
265,4	31,367
265,9	30,281
266,3	30,138
266,8	28,338
267,3	23,11
267,7	19,995
268,2	16,738
268,7	13,395
269,1	14,795
269,6	19,91
270	24,567
270,5	24,424
271	26,967
271,4	29,081
271,9	33,91
272,4	37,052
272,8	34,052
273,3	31,024
273,7	27,081
274,2	30,167
274,7	25,195
275,1	24,481
275,6	24,91
276,1	19,452
276,5	23,367
277	30,11
277,4	27,024
277,9	30,567
278,4	28,11
278,8	24,281
279,3	25,767
279,8	19,51
280,2	16,11
280,7	12,624
281,1	12,338
281,6	13,11
282,1	13,767
282,5	18,71
283	21,024
283,4	21,281
283,9	28,052
284,4	32,967
284,8	33,567
285,3	33,652
285,8	30,224
286,2	30,195
286,7	30,567
287,1	30,881
287,6	26,11
288,1	26,11
288,5	23,395
289	25,51
289,5	25,967
289,9	31,852
290,4	28,881
290,8	26,624
291,3	29,138
291,8	33,081
292,2	31,224
292,7	29,91
293,1	26,852
293,6	23,738
294,1	31,995
294,5	30,881
295	31,424
295,5	30,681
295,9	32,481
296,4	34,51
296,8	35,91
297,3	27,452
297,8	22,71
298,2	21,367
298,7	23,538
299,1	24,852
299,6	20,081
300,1	20,51
300,5	23,967
301	28,71
301,5	25,052
301,9	21,938
302,4	19,338
302,8	19,538
303,3	20,081
303,8	18,138
304,2	13,967
304,7	19,167
305,1	24,424
305,6	28,824
306,1	30,938
306,5	32,881
307	34,624
307,4	37,681
307,9	36,681
308,4	33,281
308,8	31,338
309,3	31,795
309,8	32,652
310,2	32,424
310,7	32,224
311,1	30,738
311,6	31,424
312,1	28,852
312,5	25,138
313	23,595
313,4	28,652
313,9	26,995
314,4	28,767
314,8	27,081
315,3	30,252
315,7	32,281
316,2	31,995
316,7	25,338
317,1	26,224
317,6	25,938
318	26,995
318,5	27,138
319	31,224
319,4	30,11
319,9	31,195
320,3	29,938
320,8	33,995
321,3	31,052
321,7	28,338
322,2	26,681
322,6	23,195
323,1	21,167
323,6	24,481
324	20,595
324,5	24,852
324,9	25,624
325,4	23,11
325,9	27,224
326,3	29,967
326,8	27,167
327,2	26,71
327,7	26,595
328,2	29,11
328,6	28,624
329,1	26,852
329,5	22,681
330	23,767
330,5	24,395
330,9	24,967
331,4	20,738
331,8	23,481
332,3	23,767
332,8	28,795
333,2	30,195
333,7	29,795
334,1	30,224
334,6	33,681
335,1	35,367
335,5	34,081
336	34,424
336,4	39,881
336,9	37,052
337,4	37,11
337,8	33,795
338,3	30,795
338,7	35,652
339,2	36,71
339,7	32,71
340,1	32,252
340,6	30,224
341	32,824
341,5	34,338
342	36,652
342,4	34,11
342,9	34,11
343,3	36,824
343,8	35,224
344,2	35,71
344,7	36,138
345,2	32,081
345,6	31,738
346,1	30,11
346,5	27,881
347	32,967
347,5	30,51
347,9	26,71
348,4	29,51
348,8	29,052
349,3	32,424
349,8	35,71
350,2	32,567
350,7	36,224
351,1	40,424
351,6	43,567
352	47,91
352,5	50,595
353	59,195
353,4	67,138
353,9	74,795
354,3	85,395
354,8	92,11
355,3	110,167
355,7	120,795
356,2	137,024
356,6	159,11
357,1	188,338
357,5	217,252
358	249,938
358,5	284,024
358,9	329,167
359,4	378,681
359,8	431,51
360,3	486,881
360,8	551,538
361,2	631,424
361,7	717,652
362,1	805,852
362,6	900,252
363	1004,938
363,5	1117,252
364	1235,824
364,4	1356,595
364,9	1472,567
365,3	1597,452
365,8	1715,881
366,3	1829,767
366,7	1930,224
367,2	2021,538
367,6	2090,31
368,1	2151,338
368,5	2190,91
369	2208,195
369,5	2209,652
369,9	2189,338
370,4	2154,91
370,8	2108,138
371,3	2038,224
371,7	1966,424
372,2	1886,767
372,7	1797,395
373,1	1709,224
373,6	1613,995
374	1514,681
374,5	1422,024
374,9	1324,195
375,4	1231,138
375,9	1134,424
376,3	1046,51
376,8	963,252
377,2	888,852
377,7	821,281
378,2	756,967
378,6	696,11
379,1	643,424
379,5	589,738
380	540,338
380,4	498,367
380,9	455,852
381,4	418,195
381,8	391,652
382,3	367,881
382,7	345,767
383,2	324,024
383,6	300,538
384,1	284,367
384,6	268,91
385	250,195
385,5	232,338
385,9	219,281
386,4	207,052
386,8	195,281
387,3	181,967
387,7	170,71
388,2	161,852
388,7	151,681
389,1	140,424
389,6	134,367
390	128,738
390,5	119,881
390,9	116,224
391,4	106,624
391,9	100,738
392,3	101,138
392,8	97,652
393,2	96,51
393,7	92,91
394,1	86,367
394,6	85,595
395,1	87,281
395,5	79,91
396	73,91
396,4	71,567
396,9	73,338
397,3	74,452
397,8	72,024
398,2	67,367
398,7	66,595
399,2	67,71
399,6	62,538
400,1	61,795
400,5	62,081
401	65,052
401,4	66,738
401,9	69,824
402,4	70,195
402,8	73,938
403,3	74,938
403,7	74,595
404,2	73,11
404,6	71,652
405,1	73,995
405,5	75,167
406	72,967
406,5	76,11
406,9	79,424
407,4	83,452
407,8	89,71
408,3	93,081
408,7	96,967
409,2	102,595
409,6	108,824
410,1	112,995
410,6	121,767
411	128,881
411,5	136,767
411,9	150,452
412,4	160,424
412,8	164,081
413,3	176,252
413,7	185,538
414,2	193,395
414,7	203,138
415,1	212,681
415,6	223,681
416	238,281
416,5	254,024
416,9	266,767
417,4	285,281
417,8	298,224
418,3	308,424
418,8	329,424
419,2	344,624
419,7	356,052
420,1	370,738
420,6	384,738
421	408,51
421,5	433,538
421,9	455,452
422,4	488,224
422,8	512,852
423,3	544,452
423,8	572,71
424,2	602,052
424,7	627,167
425,1	654,738
425,6	679,995
426	715,31
426,5	747,481
426,9	785,824
427,4	820,31
427,9	864,738
428,3	912,081
428,8	961,567
429,2	1008,338
429,7	1057,11
430,1	1112,71
430,6	1170,938
431	1235,824
431,5	1296,281
431,9	1362,481
432,4	1435,71
432,8	1517,195
433,3	1597,11
433,8	1682,081
434,2	1758,652
434,7	1847,195
435,1	1942,452
435,6	2041,824
436	2143,11
436,5	2245,995
436,9	2361,052
437,4	2481,395
437,8	2605,824
438,3	2725,367
438,8	2857,852
439,2	2990,91
439,7	3129,681
440,1	3255,024
440,6	3405,138
441	3550,852
441,5	3707,31
441,9	3864,795
442,4	4031,852
442,8	4215,91
443,3	4411,367
443,7	4596,824
444,2	4793,995
444,7	4999,995
445,1	5207,681
445,6	5420,395
446	5631,252
446,5	5854,138
446,9	6083,281
447,4	6315,452
447,8	6558,852
448,3	6801,538
448,7	7054,881
449,2	7311,824
449,6	7577,11
450,1	7846,167
450,6	8132,052
451	8401,71
451,5	8698,167
451,9	8989,338
452,4	9289,51
452,8	9592,367
453,3	9892,767
453,7	10190,31
454,2	10512,738
454,6	10821,938
455,1	11142,967
455,5	11463,852
456	11788,424
456,4	12138,538
456,9	12485,281
457,3	12835,424
457,8	13190,967
458,3	13553,367
458,7	13911,595
459,2	14274,138
459,6	14622,967
460,1	14993,395
460,5	15351,51
461	15716,967
461,4	16074,881
461,9	16460,767
462,3	16831,252
462,8	17208,738
463,2	17584,395
463,7	17943,281
464,1	18318,024
464,6	18694,481
465	19056,395
465,5	19419,624
466	19790,424
466,4	20135,995
466,9	20510,538
467,3	20869,567
467,8	21233,338
468,2	21580,567
468,7	21946,738
469,1	22289,938
469,6	22655,967
470	22999,081
470,5	23342,71
470,9	23665,138
471,4	23996,224
471,8	24307,538
472,3	24630,252
472,7	24943,052
473,2	25265,795
473,6	25576,738
474,1	25880,424
474,5	26178,91
475	26473,481
475,4	26749,595
475,9	27029,024
476,4	27284,281
476,8	27537,424
477,3	27786,767
477,7	28028,338
478,2	28264,71
478,6	28497,281
479,1	28707,452
479,5	28925,538
480	29119,652
480,4	29315,51
480,9	29509,938
481,3	29694,881
481,8	29864,481
482,2	30015,395
482,7	30174,538
483,1	30321,51
483,6	30432,967
484	30547,652
484,5	30644,938
484,9	30744,938
485,4	30833,081
485,8	30889,91
486,3	30958,167
486,7	31047,195
487,2	31108,795
487,6	31169,252
488,1	31217,367
488,5	31257,824
489	31286,738
489,4	31289,081
489,9	31297,224
490,4	31281,224
490,8	31257,51
491,3	31225,452
491,7	31197,824
492,2	31168,281
492,6	31114,681
493,1	31041,424
493,5	30964,224
494	30893,881
494,4	30815,481
494,9	30723,71
495,3	30621,795
495,8	30542,167
496,2	30451,024
496,7	30360,281
497,1	30269,024
497,6	30169,052
498	30055,824
498,5	29942,167
498,9	29821,938
499,4	29694,424
499,8	29556,424
500,3	29403,595
500,7	29254,195
501,2	29110,252
501,6	28965,31
502,1	28799,024
502,5	28638,91
503	28481,081
503,4	28322,624
503,9	28143,31
504,3	27963,481
504,8	27776,824
505,2	27603,138
505,7	27425,367
506,1	27240,624
506,6	27035,367
507	26846,567
507,5	26652,367
507,9	26445,281
508,4	26241,081
508,8	26031,995
509,3	25817,024
509,7	25612,424
510,2	25398,167
510,6	25187,595
511,1	24984,052
511,5	24769,824
512	24552,252
512,4	24346,024
512,9	24124,31
513,3	23904,224
513,8	23668,852
514,2	23444,452
514,7	23210,51
515,1	22980,71
515,6	22745,767
516	22516,195
516,5	22298,195
516,9	22099,595
517,4	21878,538
517,8	21664,395
518,3	21432,452
518,7	21224,652
519,2	21006,138
519,6	20774,71
520,1	20540,652
520,5	20317,595
521	20088,824
521,4	19885,681
521,9	19667,91
522,3	19454,338
522,8	19247,081
523,2	19032,224
523,7	18822,11
524,1	18627,567
524,6	18421,51
525	18205,252
525,5	18002,195
525,9	17808,367
526,4	17609,824
526,8	17413,481
527,3	17217,824
527,7	17017,852
528,2	16824,624
528,6	16639,995
529,1	16447,281
529,5	16261,024
530	16081,881
530,4	15890,681
530,9	15704,224
531,3	15525,91
531,8	15346,224
532,2	15162,795
532,6	14984,795
533,1	14797,938
533,5	14624,967
534	14467,11
534,4	14290,31
534,9	14123,681
535,3	13955,167
535,8	13798,595
536,2	13654,881
536,7	13508,024
537,1	13340,538
537,6	13185,652
538	13034,052
538,5	12892,567
538,9	12735,195
539,4	12573,567
539,8	12423,652
540,3	12278,338
540,7	12147,538
541,2	12006,024
541,6	11866,081
542,1	11738,767
542,5	11614,367
543	11487,652
543,4	11359,452
543,9	11240,71
544,3	11113,51
544,8	10998,91
545,2	10874,995
545,7	10754,738
546,1	10631,052
546,5	10518,167
547	10395,91
547,4	10278,052
547,9	10156,595
548,3	10043,852
548,8	9932,11
549,2	9820,11
549,7	9708,967
550,1	9599,681
550,6	9506,31
551	9407,51
551,5	9306,138
551,9	9210,167
552,4	9121,852
552,8	9032,624
553,3	8939,252
553,7	8846,995
554,2	8747,738
554,6	8658,195
555,1	8565,967
555,5	8480,824
555,9	8393,795
556,4	8315,624
556,8	8236,338
557,3	8153,967
557,7	8080,767
558,2	7996,881
558,6	7914,681
559,1	7838,71
559,5	7759,081
560	7679,224
560,4	7603,738
560,9	7527,881
561,3	7452,995
561,8	7375,824
562,2	7305,567
562,7	7229,91
563,1	7152,252
563,6	7092,395
564	7021,938
564,4	6962,652
564,9	6900,138
565,3	6836,11
565,8	6776,195
566,2	6714,624
566,7	6653,624
567,1	6595,167
567,6	6529,081
568	6466,767
568,5	6406,995
568,9	6350,281
569,4	6294,91
569,8	6232,767
570,3	6165,567
570,7	6112,995
571,1	6060,681
571,6	6004,338
572	5944,567
572,5	5882,71
572,9	5828,595
573,4	5779,967
573,8	5729,795
574,3	5676,224
574,7	5627,938
575,2	5579,567
575,6	5532,452
576,1	5485,51
576,5	5444,052
576,9	5390,652
577,4	5345,367
577,8	5289,481
578,3	5244,338
578,7	5200,31
579,2	5153,281
579,6	5107,31
580,1	5066,452
580,5	5017,595
581	4973,338
581,4	4926,367
581,9	4884,967
582,3	4849,995
582,7	4805,681
583,2	4758,024
583,6	4715,024
584,1	4687,281
584,5	4651,052
585	4605,624
585,4	4556,538
585,9	4516,167
586,3	4485,824
586,8	4448,138
587,2	4403,767
587,6	4362,681
588,1	4334,881
588,5	4301,738
589	4260,881
589,4	4224,795
589,9	4197,367
590,3	4169,252
590,8	4140,11
591,2	4105,538
591,7	4073,252
592,1	4047,795
592,5	4019,338
593	3986,652
593,4	3953,081
593,9	3928,138
594,3	3898,138
594,8	3870,51
595,2	3844,167
595,7	3811,652
596,1	3784,538
596,6	3752,31
597	3722,852
597,4	3695,538
597,9	3674,195
598,3	3649,767
598,8	3624,081
599,2	3593,452
599,7	3577,224
600,1	3551,31
600,6	3531,881
601	3506,452
601,4	3477,795
601,9	3454,167
602,3	3436,567
602,8	3414,881
603,2	3392,91
603,7	3367,367
604,1	3343,995
604,6	3322,967
605	3306,51
605,4	3282,138
605,9	3251,624
606,3	3226,881
606,8	3204,71
607,2	3179,767
607,7	3157,71
608,1	3128,081
608,6	3102,852
609	3085,281
609,4	3064,795
609,9	3045,452
610,3	3021,481
610,8	3003,024
611,2	2986,138
611,7	2966,024
612,1	2942,652
612,6	2920,567
613	2894,081
613,4	2872,938
613,9	2850,481
614,3	2831,167
614,8	2807,852
615,2	2789,538
615,7	2770,252
616,1	2750,767
616,6	2737,567
617	2720,738
617,4	2701,195
617,9	2689,538
618,3	2665,51
618,8	2647,681
619,2	2632,052
619,7	2607,281
620,1	2588,881
620,5	2570,938
621	2548,081
621,4	2536,052
621,9	2516,138
622,3	2500,424
622,8	2489,738
623,2	2472,024
623,6	2452,424
624,1	2441,224
624,5	2420,795
625	2404,852
625,4	2389,681
625,9	2368,91
626,3	2353,452
626,8	2335,795
627,2	2310,881
627,6	2296,852
628,1	2278,338
628,5	2258,567
629	2241,224
629,4	2216,452
629,9	2201,195
630,3	2191,11
630,7	2176,167
631,2	2161,967
631,6	2144,91
632,1	2130,567
632,5	2123,195
633	2106,395
633,4	2094,252
633,8	2073,338
634,3	2060,738
634,7	2043,595
635,2	2031,795
635,6	2015,11
636,1	1996,795
636,5	1980,567
636,9	1969,71
637,4	1955,052
637,8	1945,195
638,3	1931,052
638,7	1914,652
639,2	1903,595
639,6	1890,31
640	1878,052
640,5	1863,795
640,9	1852,967
641,4	1842,11
641,8	1828,567
642,2	1820,224
642,7	1809,995
643,1	1798,995
643,6	1791,281
644	1783,738
644,5	1777,395
644,9	1764,167
645,3	1749,71
645,8	1736,338
646,2	1726,081
646,7	1711,481
647,1	1687,71
647,6	1672,424
648	1666,681
648,4	1658,481
648,9	1642,624
649,3	1627,995
649,8	1617,624
650,2	1618,052
650,6	1606,881
651,1	1591,738
651,5	1581,91
652	1580,252
652,4	1569,367
652,9	1559,024
653,3	1544,681
653,7	1531,424
654,2	1524,652
654,6	1516,281
655,1	1502,681
655,5	1496,767
655,9	1488,624
656,4	1475,195
656,8	1467,567
657,3	1456,338
657,7	1441,424
658,2	1429,138
658,6	1418,91
659	1406,624
659,5	1400,138
659,9	1390,738
660,4	1384,852
660,8	1378,167
661,2	1372,567
661,7	1364,538
662,1	1355,538
662,6	1348,31
663	1339,538
663,4	1327,795
663,9	1318,195
664,3	1302,595
664,8	1290,424
665,2	1281,71
665,6	1269,738
666,1	1259,538
666,5	1247,938
667	1240,881
667,4	1240,881
667,9	1233,824
668,3	1226,995
668,7	1217,795
669,2	1204,51
669,6	1201,767
670,1	1192,11
670,5	1185,024
670,9	1173,224
671,4	1164,681
671,8	1159,738
672,3	1154,881
672,7	1149,195
673,1	1145,281
673,6	1135,338
674	1126,967
674,5	1120,881
674,9	1114,081
675,3	1105,481
675,8	1098,738
676,2	1087,481
676,7	1076,11
677,1	1074,624
677,5	1066,052
678	1059,538
678,4	1057,481
678,9	1045,538
679,3	1036,395
679,7	1032,138
680,2	1020,824
680,6	1009,281
681,1	997,767
681,5	991,424
681,9	985,081
682,4	979,567
682,8	969,11
683,3	967,024
683,7	962,681
684,1	959,538
684,6	948,024
685	938,51
685,5	924,824
685,9	916,795
686,3	910,31
686,8	906,538
687,2	900,71
687,7	895,938
688,1	891,652
688,5	893,11
689	896,967
689,4	889,367
689,9	885,595
690,3	880,967
690,7	877,995
691,2	877,024
691,6	872,538
692	861,681
692,5	852,424
692,9	843,51
693,4	832,281
693,8	825,681
694,2	817,595
694,7	809,567
695,1	805,367
695,6	805,595
696	800,795
696,4	798,538
696,9	790,395
697,3	783,71
697,8	781,481
698,2	773,11
698,6	762,681
699,1	754,852
699,5	750,767
699,9	744,024
700,4	740,395
700,8	735,424
701,3	730,995
701,7	724,224
702,1	719,081
702,6	709,424
703	707,938
703,5	699,652
703,9	693,824
704,3	686,567
704,8	688,395
705,2	689,024
705,6	686,91
706,1	680,081
706,5	680,995
707	679,852
707,4	680,71
707,8	675,481
708,3	671,167
708,7	667,881
709,2	662,51
709,6	658,652
710	650,367
710,5	641,11
710,9	638,081
711,3	629,481
711,8	620,995
712,2	621,31
712,7	610,767
713,1	604,024
713,5	604,367
714	600,138
714,4	596,538
714,8	601,767
715,3	596,767
715,7	596,995
716,2	600,91
716,6	594,395
717	588,824
717,5	584,852
717,9	574,595
718,3	571,995
718,8	566,424
719,2	555,967
719,7	551,938
720,1	545,167
720,5	546,938
721	541,938
721,4	533,081
721,8	526,281
722,3	528,281
722,7	520,91
723,2	519,424
723,6	512,11
724	510,224
724,5	510,138
724,9	512,338
725,3	503,081
725,8	497,681
726,2	494,538
726,7	486,938
727,1	483,51
727,5	474,652
728	462,081
728,4	461,624
728,8	462,567
729,3	454,738
729,7	453,938
730,1	448,452
730,6	450,31
731	453,138
731,5	450,995
731,9	451,652
732,3	456,624
732,8	448,824
733,2	451,224
733,6	448,567
734,1	442,195
734,5	440,024
734,9	435,71
735,4	428,71
735,8	426,167
736,3	418,11
736,7	414,938
737,1	416,595
737,6	408,024
738	404,338
738,4	404,452
738,9	405,11
739,3	410,052
739,7	407,967
740,2	404,167
740,6	408,081
741,1	404,024
741,5	402,195
741,9	403,138
742,4	402,795
742,8	400,281
743,2	397,767
743,7	392,052
744,1	392,624
744,5	390,31
745	387,71
745,4	375,881
745,8	375,424
746,3	375,538
746,7	371,71
747,2	366,652
747,6	363,395
748	365,767
748,5	367,367
748,9	363,624
749,3	363,652
749,8	364,424
750,2	358,738
750,6	355,51
751,1	348,881
751,5	346,852
751,9	345,052
752,4	345,195
752,8	343,595
753,3	346,395
753,7	344,71
754,1	344,195
754,6	341,795
755	339,967
755,4	336,967
755,9	338,024
756,3	340,71
756,7	342,71
757,2	333,938
757,6	330,081
758	325,624
758,5	321,51
758,9	316,395
759,3	308,71
759,8	301,481
760,2	303,424
760,6	306,738
761,1	306,51
761,5	304,024
761,9	301,881
762,4	300,938
762,8	301,938
763,3	301,424
763,7	295,281
764,1	289,167
764,6	282,138
765	281,31
765,4	284,367
765,9	285,252
766,3	282,281
766,7	281,852
767,2	284,452
767,6	287,567
768	283,595
768,5	275,967
768,9	268,138
769,3	267,51
769,8	264,024
770,2	262,852
770,6	260,195
771,1	260,367
771,5	260,567
771,9	260,995
772,4	258,71
772,8	256,138
773,2	254,51
773,7	253,567
774,1	255,624
774,5	253,967
775	251,481
775,4	249,31
775,8	252,681
776,3	252,652
776,7	251,852
777,1	246,338
777,6	242,91
778	241,252
778,4	240,252
778,9	237,71
779,3	232,824
779,7	228,281
780,2	224,281
780,6	228,252
781	229,252
781,5	230,71
781,9	227,738
782,3	226,681
782,8	232,567
783,2	231,281
783,6	227,795
784,1	223,424
784,5	219,995
784,9	217,51
785,4	219,881
785,8	216,738
786,2	215,51
786,7	211,652
787,1	215,395
787,5	211,91
788	213,624
788,4	211,824
788,8	207,395
789,3	207,31
789,7	208,481
790,1	204,567
790,6	204,767
791	202,738
791,4	200,567
791,9	199,681
792,3	197,995
792,7	197,252
793,2	198,481
793,6	196,31
794	193,138
794,5	190,567
794,9	188,167
795,3	188,481
795,8	188,51
796,2	182,31
796,6	183,138
797,1	182,652
797,5	181,052
797,9	182,138
798,4	182,624
798,8	178,595
799,2	178,51
799,7	174,681
800,1	174,224
800,5	176,995
801	177,024
801,4	173,91
801,8	174,852
802,2	173,881
802,7	178,281
803,1	176,11
803,5	176,195
804	169,938
804,4	171,795
804,8	172,738
805,3	173,481
805,7	171,052
806,1	168,852
806,6	166,338
807	168,081
807,4	163,938
807,9	155,138
808,3	153,167
808,7	152,224
809,2	155,138
809,6	151,881
810	150,538
810,4	152,081
810,9	157,224
811,3	154,195
811,7	150,052
812,2	144,852
812,6	142,595
813	142,995
813,5	142,595
813,9	138,395
814,3	138,367
814,8	139,91
815,2	145,481
815,6	144,938
816,1	143,595
816,5	141,138
816,9	144,795
817,3	146,052
817,8	146,281
818,2	140,652
818,6	141,338
819,1	139,852
819,5	136,367
819,9	132,481
820,4	134,452
820,8	130,595
821,2	129,338
821,7	127,367
822,1	123,738
822,5	130,767
822,9	130,31
823,4	124,395
823,8	123,71
824,2	123,367
824,7	122,081
825,1	123,224
825,5	116,938
826	111,852
826,4	113,024
826,8	111,395
827,3	109,795
827,7	111,567
828,1	115,395
828,5	116,252
829	121,767
829,4	121,195
829,8	122,738
830,3	126,967
830,7	122,624
831,1	120,652
831,6	117,538
832	112,338
832,4	111,424
832,8	107,71
833,3	104,252
833,7	100,938
834,1	101,024
834,6	103,738
835	105,281
835,4	102,224
835,8	102,852
836,3	98,967
836,7	103,224
837,1	97,71
837,6	90,738
838	92,338
838,4	90,338
838,9	92,995
839,3	96,795
839,7	98,452
840,1	100,252
840,6	106,138
841	100,881
841,4	100,281
841,9	101,795
842,3	97,138
842,7	92,395
843,1	90,681
843,6	85,567
844	85,31
844,4	88,71
844,9	84,881
845,3	85,938
845,7	85,567
846,2	82,367
846,6	84,738
847	87,824
847,4	89,624
847,9	89,567
848,3	87,91
848,7	86,024
849,2	89,281
849,6	86,11
850	86,938
850,4	84,11
850,9	82,481
851,3	88,052
851,7	93,024
852,2	93,338
852,6	94,395
853	96,338
853,4	94,252
853,9	92,624
854,3	91,624
854,7	92,767
855,2	93,995
855,6	90,424
856	86,252
856,4	85,652
856,9	86,967
857,3	80,252
857,7	76,281
858,2	71,424
858,6	71,852
859	69,938
859,4	72,052
859,9	69,852
860,3	70,024
860,7	64,995
861,1	69,395
861,6	73,795
862	73,938
862,4	68,624
862,9	69,852
863,3	71,795
863,7	77,995
864,1	74,738
864,6	70,31
865	66,538
865,4	68,624
865,9	69,567
866,3	72,624
866,7	64,11
867,1	61,252
867,6	61,738
868	60,567
868,4	57,224
868,8	53,824
869,3	50,91
869,7	58,138
870,1	61,11
870,6	61,338
871	109,795
871,4	114,167
871,8	115,052
872,3	113,767
872,7	106,51
873,1	103,624
873,5	103,024
874	57,738
874,4	55,852
874,8	54,795
875,3	52,024
875,7	52,11
876,1	55,481
876,5	54,081
877	55,052
877,4	55,424
877,8	57,795
878,2	63,195
878,7	67,595
879,1	64,51
879,5	62,281
879,9	58,338
880,4	55,881
880,8	55,138
881,2	49,481
881,7	48,081
882,1	45,452
882,5	46,195
882,9	50,281
883,4	49,767
883,8	45,681
884,2	44,652
884,6	42,852
885,1	44,538
885,5	45,652
885,9	42,824
886,3	44,338
886,8	45,252
887,2	44,138
887,6	44,738
888	43,652
888,5	41,424
888,9	40,938
889,3	36,024
889,8	36,767
890,2	40,281
890,6	41,652
891	40,795
891,5	43,224
891,9	41,538
892,3	49,538
892,7	46,138
893,2	46,167
893,6	43,11
894	45,481
894,4	41,824
894,9	43,967
895,3	39,052
895,7	41,395
896,1	36,767
896,6	37,995
897	38,967
897,4	42,224
897,8	39,795
898,3	40,795
898,7	41,481
899,1	43,31
899,5	45,024
900	43,395
900,4	42,024
900,8	43,538
901,2	43,167
901,7	42,11
902,1	43,452
902,5	41,767
902,9	42,995
903,4	43,424
903,8	41,024
904,2	42,31
904,6	39,452
905,1	38,452
905,5	36,138
905,9	32,424
906,3	29,624
906,8	30,167
907,2	25,938
907,6	31,852
908	32,31
908,5	30,167
908,9	29,652
909,3	35,195
909,7	35,624
910,2	39,71
910,6	35,881
911	35,852
911,4	39,424
911,9	41,538
912,3	39,538
912,7	40,481
913,1	37,51
913,6	38,481
914	39,71
914,4	41,367
914,8	45,652
915,3	43,024
915,7	47,538
916,1	47,481
916,5	43,767
916,9	40,024
917,4	40,452
917,8	33,395
918,2	41,224
918,6	35,681
919,1	37,71
919,5	41,224
919,9	43,624
920,3	39,252
920,8	45,195
921,2	35,481
921,6	34,624
922	31,824
922,5	30,652
922,9	33,681
923,3	38,538
923,7	34,052
924,2	35,452
924,6	37,852
925	41,538
925,4	42,938
925,8	40,538
926,3	38,51
926,7	38,424
927,1	40,824
927,5	40,424
928	39,138
928,4	37,51
928,8	37,452
929,2	39,624
929,7	41,51
930,1	41,281
930,5	39,424
930,9	43,081
931,3	48,224
931,8	47,081
932,2	43,224
932,6	43,967
933	38,31
933,5	38,424
933,9	33,852
934,3	28,938
934,7	32,024
935,2	30,11
935,6	25,967
936	25,567
936,4	29,024
936,8	28,195
937,3	31,71
937,7	26,652
938,1	31,424
938,5	30,681
939	35,824
939,4	32,824
939,8	32,738
940,2	28,31
940,6	26,367
941,1	22,767
941,5	24,567
941,9	21,824
942,3	23,881
942,8	25,281
943,2	20,681
943,6	26,481
944	27,652
944,4	29,195
944,9	31,481
945,3	32,738
945,7	32,138
946,1	36,852
946,6	33,31
947	35,424
947,4	33,595
947,8	33,51
948,2	30,452
948,7	26,824
949,1	27,967
949,5	27,652
949,9	23,11
950,3	22,852
950,8	22,367
951,2	20,624
951,6	25,424
952	25,795
952,5	26,938
952,9	27,424
953,3	25,881
953,7	24,11
954,1	21,795
954,6	21,024
955	20,652
955,4	20,195
955,8	26,338
956,2	25,624
956,7	29,681
957,1	35,967
957,5	37,195
957,9	36,167
958,3	37,738
958,8	38,881
959,2	45,824
959,6	46,938
960	45,852
960,5	42,367
960,9	46,052
961,3	42,824
961,7	39,224
962,1	34,595
962,6	32,538
963	34,881
963,4	38,824
963,8	32,31
964,2	31,31
964,7	25,624
965,1	26,195
965,5	26,995
965,9	22,052
966,3	20,395
966,8	21,281
967,2	24,71
967,6	25,852
968	24,681
968,4	25,167
968,9	26,567
969,3	24,995
969,7	24,91
970,1	21,052
970,5	22,538
971	26,138
971,4	23,338
971,8	21,11
972,2	20,224
972,6	17,824
973,1	21,395
973,5	23,567
973,9	18,795
974,3	18,338
974,7	16,852
975,2	19,138
975,6	20,51
976	18,767
976,4	15,481
976,8	18,824
977,3	13,824
977,7	17,481
978,1	18,052
978,5	19,595
978,9	19,31
979,4	20,852
979,8	17,138
980,2	24,424
980,6	25,452
981	22,567
981,5	21,967
981,9	22,995
982,3	21,881
982,7	25,167
983,1	22,71
983,6	18,795
984	20,881
984,4	23,881
984,8	24,624
985,2	27,624
985,6	21,624
986,1	22,224
986,5	25,252
986,9	20,024
987,3	16,824
987,7	15,138
988,2	13,252
988,6	14,91
989	16,538
989,4	14,652
989,8	21,652
990,3	22,938
990,7	19,681
991,1	15,852
991,5	17,938
991,9	13,824
992,3	12,424
992,8	8,252
993,2	8,338
993,6	10,167
994	12,852
994,4	21,595
994,9	25,395
995,3	29,167
995,7	29,11
996,1	28,795
996,5	28,738
996,9	33,538
997,4	25,31
997,8	22,224
998,2	25,71
998,6	25,938
999	23,51
999,5	27,852
999,9	23,595
1000,3	22,652
1000,7	28,424
1001,1	23,11
1001,5	23,938
1002	27,31
1002,4	23,281
1002,8	24,995
1003,2	25,995
1003,6	22,052
1004	23,995
1004,5	25,795
1004,9	25,995
1005,3	27,338
1005,7	31,595
1006,1	30,395
1006,6	30,081
1007	26,481
1007,4	23,281
1007,8	24,71
1008,2	29,852
1008,6	23,281
1009,1	25,452
1009,5	29,795
1009,9	31,91
1010,3	36,738
1010,7	35,91
1011,1	29,881
1011,6	28,281
1012	26,738
1012,4	19,538
1012,8	17,195
1013,2	10,281
1013,6	10,252
1014,1	8,595
1014,5	11,081
1014,9	13,91
1015,3	18,595
1015,7	23,51
1016,1	27,481
1016,6	26,967
1017	26,881
1017,4	22,71
1017,8	22,881
1018,2	22,824
1018,6	17,995
1019,1	17,881
1019,5	16,31
1019,9	19,852
1020,3	23,024
1020,7	24,624
1021,1	15,938
1021,6	17,052
1022	19,881
1022,4	21,767
1022,8	20,367
1023,2	19,252
1023,6	13,738
1024,1	21,967
1024,5	26,052
1024,9	26,624
1025,3	29,881
1025,7	30,081
1026,1	29,481
1026,6	38,024
1027	35,481
1027,4	33,852
1027,8	27,824
1028,2	29,681
1028,6	30,824
1029	31,138
1029,5	21,595
1029,9	24,367
1030,3	20,91
1030,7	26,338
1031,1	24,052
1031,5	27,367
1032	30,852
1032,4	38,052
1032,8	36,081
1033,2	38,224
1033,6	36,738
1034	31,595
1034,4	29,11
1034,9	33,767
1035,3	31,338
1035,7	31,138
1036,1	35,595
1036,5	33,395
1036,9	33,738
1037,4	35,11
1037,8	31,367
1038,2	34,767
1038,6	34,938
1039	29,424
1039,4	38,967
1039,8	45,081
1040,3	45,224
1040,7	46,224
1041,1	36,31
1041,5	40,738
1041,9	44,967
1042,3	33,881
1042,7	26,538
1043,2	26,138
1043,6	29,338
1044	35,995
1044,4	33,938
1044,8	34,995
1045,2	36,395
1045,6	41,881
1046,1	41,595
1046,5	35,252
1046,9	35,967
1047,3	35,681
1047,7	29,852
1048,1	29,138
1048,5	26,252
1049	25,138
1049,4	24,938
1049,8	23,824
1050,2	19,595
1050,6	18,195
1051	27,767
1051,4	24,967
1051,9	22,738
1052,3	22,252
1052,7	19,052
1053,1	22,652
1053,5	25,31
1053,9	16,967
1054,3	11,681
1054,8	16,452
1055,2	18,11
1055,6	20,624
1056	22,281
1056,4	23,481
1056,8	26,452
1057,2	34,081
1057,6	35,081
1058,1	40,024
1058,5	36,338
1058,9	31,995
1059,3	30,51
1059,7	26,852
1060,1	26,31
1060,5	23,31
1061	16,167
1061,4	15,052
1061,8	16,881
1062,2	19,11
1062,6	21,424
1063	24,795
1063,4	23,624
1063,8	25,281
1064,3	34,11
1064,7	36,51
1065,1	39,252
1065,5	39,681
1065,9	37,938
1066,3	44,767
1066,7	49,852
1067,1	45,624
1067,6	50,652
1068	52,081
1068,4	54,91
1068,8	52,824
1069,2	50,567
1069,6	44,71
1070	45,967
1070,4	38,681
1070,9	33,195
1071,3	31,024
1071,7	31,767
1072,1	23,481
1072,5	23,995
1072,9	20,767
1073,3	18,367
1073,7	15,624
1074,2	17,252
1074,6	15,11
1075	22,652
1075,4	27,652
1075,8	26,167
1076,2	32,167
1076,6	31,481
1077	32,338
1077,5	38,367
1077,9	32,167
1078,3	24,824
1078,7	28,938
1079,1	28,252
1079,5	32,252
1079,9	28,652
1080,3	29,052
1080,7	33,852
1081,2	36,91
1081,6	32,167
1082	32,71
1082,4	34,481
1082,8	34,31
1083,2	25,938
1083,6	23,481
1084	21,767
1084,5	26,852
1084,9	19,681
1085,3	13,681
1085,7	11,367
1086,1	16,252
1086,5	16,081
1086,9	19,738
1087,3	22,852
1087,7	29,91
1088,2	38,081
1088,6	40,338
1089	41,881
1089,4	47,052
1089,8	43,767
1090,2	38,538
1090,6	32,852
1091	26,052
1091,4	26,538
1091,9	23,852
1092,3	21,224
1092,7	21,595
1093,1	21,481
1093,5	21,881
1093,9	22,567
1094,3	19,281
1094,7	19,681
1095,1	18,652
1095,5	17,138
1096	18,31
1096,4	19,424
1096,8	24,967
1097,2	25,681
1097,6	27,367
1098	25,11
1098,4	31,595
1098,8	28,881
1099,2	27,281
1099,6	23,938
1100,1	25,967
1100,5	25,51
1100,9	25,424
1101,3	19,452
1101,7	18,538
1102,1	20,51
1102,5	17,024
1102,9	13,938
1103,3	12,224
1103,7	13,138
1104,2	12,024
1104,6	14,824
1105	12,71
1105,4	12,938
1105,8	12,252
1106,2	9,624
1106,6	6,652
1107	5,395
1107,4	2,7
1107,8	1,847
1108,3	0,667
