Data from Subt2_00008.txt Node
Date: Mon Aug 28 13:05:41 MSK 2023
User: vat
Spectrometer: MAYP114033
Trigger mode: 0
Integration Time (sec): 1,000000E0
Scans to average: 5
Electric dark correction enabled: true
Nonlinearity correction enabled: false
Boxcar width: 3
XAxis mode: Wavelengths
Number of Pixels in Spectrum: 2068
>>>>>Begin Spectral Data<<<<<
199,4	0,7
199,9	-0,88
200,4	-2,867
200,8	0,943
201,3	-0,971
201,8	1,2
202,2	3,543
202,7	6,343
203,2	9,229
203,6	11,686
204,1	9,429
204,6	11,714
205	9,8
205,5	11,714
206	9,829
206,4	8,314
206,9	7,514
207,4	6,971
207,8	7,714
208,3	8,943
208,8	7,914
209,2	13,771
209,7	13,286
210,2	10,343
210,6	10,229
211,1	6,771
211,5	7,686
212	6,743
212,5	0,486
212,9	4,6
213,4	9,343
213,9	11,857
214,3	15,029
214,8	16,886
215,3	14,486
215,7	14,829
216,2	11,257
216,7	11,371
217,1	12,343
217,6	10,8
218,1	4,171
218,5	5,714
219	5,914
219,5	7,371
219,9	7,4
220,4	4,114
220,9	4,857
221,3	10,829
221,8	11,829
222,3	14,114
222,7	13,857
223,2	13,6
223,6	16,314
224,1	20,6
224,6	14,6
225	12
225,5	10,429
226	13,029
226,4	15,114
226,9	9,657
227,4	9,114
227,8	12,114
228,3	13,257
228,8	14,2
229,2	15,257
229,7	12,914
230,2	15,143
230,6	10,857
231,1	14,886
231,5	18,143
232	16,6
232,5	16,743
232,9	14,514
233,4	13,886
233,9	17,6
234,3	12,143
234,8	10,743
235,3	7,743
235,7	4,114
236,2	5,714
236,7	4,114
237,1	10,171
237,6	11,6
238,1	6,943
238,5	12,629
239	8,657
239,4	10,629
239,9	16,657
240,4	8,8
240,8	8,629
241,3	17,457
241,8	14,514
242,2	17,2
242,7	20,6
243,2	18,971
243,6	23,486
244,1	24,743
244,6	21,657
245	24,029
245,5	24,486
245,9	16,4
246,4	14,6
246,9	9,2
247,3	7,143
247,8	6,429
248,3	7,629
248,7	12,543
249,2	15,457
249,7	17,086
250,1	13,857
250,6	17,571
251	10,029
251,5	9,971
252	3,857
252,4	5,486
252,9	1,057
253,4	10,714
253,8	8,286
254,3	14,4
254,8	11,657
255,2	13,371
255,7	13,571
256,1	18,686
256,6	15,971
257,1	14,543
257,5	10,114
258	8,771
258,5	8,343
258,9	10,286
259,4	9,486
259,9	7,286
260,3	12,086
260,8	16,314
261,2	20,714
261,7	22,6
262,2	21,657
262,6	16,457
263,1	19,314
263,6	18,886
264	19,857
264,5	17,514
264,9	14,571
265,4	7,743
265,9	11,2
266,3	12,429
266,8	7,886
267,3	5,057
267,7	1,943
268,2	4,057
268,7	12,143
269,1	10,943
269,6	9,2
270	10,657
270,5	5,571
271	9,114
271,4	8,4
271,9	4,714
272,4	8,029
272,8	7,629
273,3	8,086
273,7	14,743
274,2	11,857
274,7	12,743
275,1	13,086
275,6	15,029
276,1	10,857
276,5	14,229
277	15,2
277,4	19,314
277,9	20,143
278,4	17,971
278,8	18,143
279,3	20,143
279,8	13,914
280,2	8,771
280,7	5,4
281,1	4,629
281,6	6,371
282,1	2,343
282,5	6,314
283	6,6
283,4	9
283,9	14,171
284,4	15,114
284,8	13,686
285,3	18,771
285,8	17,286
286,2	15,4
286,7	16,657
287,1	14,714
287,6	15,371
288,1	18,971
288,5	17,314
289	19,514
289,5	24,057
289,9	29,8
290,4	29,514
290,8	25,886
291,3	26,914
291,8	24,086
292,2	20,229
292,7	20,2
293,1	16,257
293,6	7,971
294,1	11,857
294,5	10,486
295	12
295,5	12,743
295,9	12,2
296,4	12,771
296,8	17,143
297,3	9,657
297,8	1,4
298,2	4,171
298,7	6,029
299,1	7,314
299,6	1,886
300,1	4,829
300,5	7
301	13,4
301,5	6,629
301,9	1,743
302,4	2,829
302,8	7,429
303,3	7,229
303,8	10,4
304,2	4,657
304,7	6,143
305,1	9,971
305,6	10,371
306,1	12,029
306,5	15,429
307	16,857
307,4	23,257
307,9	21,171
308,4	19,486
308,8	19,371
309,3	17,914
309,8	17,314
310,2	19,229
310,7	20,714
311,1	25
311,6	26,629
312,1	24,457
312,5	24,257
313	24,686
313,4	25,829
313,9	25,371
314,4	26,829
314,8	26,114
315,3	27,629
315,7	26,4
316,2	24,971
316,7	15,114
317,1	13,914
317,6	10,486
318	11,8
318,5	12,486
319	18,571
319,4	16,629
319,9	19,943
320,3	22,829
320,8	25,829
321,3	17,657
321,7	14,943
322,2	8,971
322,6	8,057
323,1	8,029
323,6	5,229
324	2,857
324,5	8,371
324,9	9,8
325,4	10,743
325,9	12,829
326,3	15,943
326,8	13,4
327,2	14,943
327,7	16,114
328,2	13,771
328,6	12,4
329,1	6,286
329,5	4,514
330	4,486
330,5	5,571
330,9	1,571
331,4	4,429
331,8	5,086
332,3	8,571
332,8	7,486
333,2	10,857
333,7	9,829
334,1	15,829
334,6	14,971
335,1	16,629
335,5	18,971
336	16,8
336,4	16,943
336,9	14,857
337,4	12,371
337,8	11
338,3	10,429
338,7	7,257
339,2	14,4
339,7	15,457
340,1	14,914
340,6	9,943
341	10,486
341,5	7,629
342	7,6
342,4	7,857
342,9	7,114
343,3	4,943
343,8	7,029
344,2	12,971
344,7	19,657
345,2	24,143
345,6	20,514
346,1	21,343
346,5	24
347	25,657
347,5	22,457
347,9	16,943
348,4	16,057
348,8	15,486
349,3	16,429
349,8	19,143
350,2	19,943
350,7	20,686
351,1	24,686
351,6	28,429
352	30,2
352,5	33,914
353	38,086
353,4	46,286
353,9	48,686
354,3	60,314
354,8	66,571
355,3	82,143
355,7	91,486
356,2	104,714
356,6	124,4
357,1	148,571
357,5	168,514
358	197,486
358,5	226,914
358,9	261,371
359,4	301,429
359,8	345,143
360,3	395,771
360,8	450,829
361,2	514,543
361,7	583,4
362,1	661,886
362,6	746,686
363	834,429
363,5	931,057
364	1034,257
364,4	1137,943
364,9	1244,286
365,3	1346,057
365,8	1449,086
366,3	1542,6
366,7	1624,914
367,2	1694,8
367,6	1749,286
368,1	1794,771
368,5	1827,514
369	1840,286
369,5	1838,514
369,9	1820,771
370,4	1795,771
370,8	1759,257
371,3	1705,571
371,7	1641,6
372,2	1577,4
372,7	1503,486
373,1	1428,457
373,6	1342,543
374	1254,6
374,5	1170,286
374,9	1094,114
375,4	1007
375,9	926,657
376,3	851,971
376,8	788,457
377,2	728,057
377,7	674,743
378,2	620,886
378,6	575,771
379,1	533,743
379,5	489,8
380	444,886
380,4	405,457
380,9	370,714
381,4	337,971
381,8	312,171
382,3	289,6
382,7	270,029
383,2	253,571
383,6	241,114
384,1	222,457
384,6	208,657
385	194,6
385,5	177,686
385,9	167,943
386,4	157,714
386,8	149,429
387,3	140,286
387,7	133,543
388,2	122,571
388,7	118,371
389,1	108,829
389,6	101
390	96,543
390,5	93,829
390,9	86,371
391,4	78,686
391,9	73,543
392,3	74,943
392,8	77,6
393,2	72,943
393,7	64,914
394,1	62,886
394,6	62,829
395,1	63,486
395,5	58,171
396	51,114
396,4	47,771
396,9	52,8
397,3	54
397,8	52,371
398,2	49,771
398,7	52,657
399,2	54,057
399,6	54,514
400,1	51,914
400,5	52,571
401	59,371
401,4	61,229
401,9	56,971
402,4	57,4
402,8	57,829
403,3	59,286
403,7	57,8
404,2	55,2
404,6	54,257
405,1	58
405,5	60,514
406	64
406,5	66,457
406,9	66,857
407,4	73,086
407,8	79,029
408,3	81,771
408,7	86,314
409,2	91
409,6	92,571
410,1	99,429
410,6	103,029
411	107,486
411,5	118,057
411,9	126
412,4	136,514
412,8	146,2
413,3	157,914
413,7	168,057
414,2	178
414,7	188,029
415,1	199,971
415,6	211,057
416	226,343
416,5	233,886
416,9	247,343
417,4	268,8
417,8	279,8
418,3	293,371
418,8	311,771
419,2	333
419,7	354,057
420,1	374,514
420,6	385,143
421	408,771
421,5	430,6
421,9	452,943
422,4	475,229
422,8	504,714
423,3	529,514
423,8	561,429
424,2	589,029
424,7	619,371
425,1	649,086
425,6	681,6
426	713,314
426,5	750,686
426,9	789,114
427,4	834,114
427,9	876,571
428,3	926,314
428,8	969,943
429,2	1020,914
429,7	1071,086
430,1	1128,343
430,6	1187,314
431	1255,857
431,5	1314,029
431,9	1384,4
432,4	1456,914
432,8	1535,771
433,3	1616,771
433,8	1702,886
434,2	1782,943
434,7	1876,486
435,1	1969,914
435,6	2071,114
436	2173,6
436,5	2280,429
436,9	2390,457
437,4	2509,971
437,8	2627,457
438,3	2761,629
438,8	2888,514
439,2	3029,343
439,7	3168,657
440,1	3309,971
440,6	3459,143
441	3617,171
441,5	3778,571
441,9	3944,857
442,4	4118,829
442,8	4303,686
443,3	4494
443,7	4684,629
444,2	4882,257
444,7	5085,314
445,1	5298,571
445,6	5515
446	5744,143
446,5	5973,086
446,9	6211,4
447,4	6464,343
447,8	6709,943
448,3	6968,971
448,7	7224,943
449,2	7475,229
449,6	7738,057
450,1	8012,229
450,6	8285,857
451	8562,257
451,5	8851,314
451,9	9147,6
452,4	9451,886
452,8	9758,971
453,3	10072,343
453,7	10384,086
454,2	10713
454,6	11034,829
455,1	11364,514
455,5	11698,314
456	12050,029
456,4	12389,829
456,9	12742,429
457,3	13096,8
457,8	13458,714
458,3	13813,371
458,7	14180,543
459,2	14546,971
459,6	14924,114
460,1	15304,714
460,5	15681,114
461	16055,143
461,4	16434,857
461,9	16806,6
462,3	17181,257
462,8	17549,571
463,2	17920,8
463,7	18295,686
464,1	18669,057
464,6	19050
465	19431,286
465,5	19796,314
466	20183,629
466,4	20552,429
466,9	20922,229
467,3	21297,143
467,8	21663,629
468,2	22027,571
468,7	22397,743
469,1	22743,143
469,6	23100,743
470	23455,2
470,5	23801,743
470,9	24150,086
471,4	24495,629
471,8	24827,714
472,3	25162,714
472,7	25477,771
473,2	25804,886
473,6	26102,771
474,1	26405,543
474,5	26697,114
475	26999
475,4	27292,086
475,9	27586,743
476,4	27846,029
476,8	28129,686
477,3	28388,2
477,7	28628,6
478,2	28850,6
478,6	29089,543
479,1	29309,571
479,5	29521,229
480	29725,4
480,4	29917,771
480,9	30115,486
481,3	30295,514
481,8	30459,571
482,2	30606,714
482,7	30758,2
483,1	30891,571
483,6	31025,429
484	31141,743
484,5	31256,486
484,9	31357,371
485,4	31457
485,8	31547,143
486,3	31622,571
486,7	31688,8
487,2	31755,171
487,6	31815,8
488,1	31840,829
488,5	31863,314
489	31875,457
489,4	31885,086
489,9	31891,429
490,4	31881,286
490,8	31865,743
491,3	31862,457
491,7	31835,714
492,2	31808,971
492,6	31757,6
493,1	31695,229
493,5	31617,8
494	31549,714
494,4	31449,086
494,9	31365,429
495,3	31268,857
495,8	31185,171
496,2	31081,2
496,7	30990,857
497,1	30870,429
497,6	30766,571
498	30650,657
498,5	30524,086
498,9	30399,886
499,4	30268,171
499,8	30135,457
500,3	30002,771
500,7	29853,257
501,2	29715,829
501,6	29566,486
502,1	29398,571
502,5	29236,743
503	29064,286
503,4	28884
503,9	28715,543
504,3	28530,714
504,8	28357,057
505,2	28182,514
505,7	27998,971
506,1	27806,6
506,6	27608,886
507	27402,057
507,5	27202
507,9	26987,343
508,4	26784,114
508,8	26575,571
509,3	26377,914
509,7	26172,6
510,2	25966,257
510,6	25741,286
511,1	25532,743
511,5	25284,971
512	25062,943
512,4	24823,886
512,9	24592,371
513,3	24356,886
513,8	24140,086
514,2	23909,486
514,7	23692,543
515,1	23464,829
515,6	23237,143
516	23016
516,5	22802,114
516,9	22583,657
517,4	22359,2
517,8	22130,829
518,3	21909,171
518,7	21690,686
519,2	21461,114
519,6	21221,629
520,1	20983,114
520,5	20749,457
521	20518,771
521,4	20283,886
521,9	20060,143
522,3	19842
522,8	19629
523,2	19414,743
523,7	19203,857
524,1	18999,514
524,6	18794
525	18586,571
525,5	18383,914
525,9	18184,286
526,4	17972,286
526,8	17777,714
527,3	17574,229
527,7	17379,371
528,2	17181,571
528,6	16983,857
529,1	16790,029
529,5	16605,857
530	16410,771
530,4	16217,486
530,9	16026,743
531,3	15845,2
531,8	15662,6
532,2	15486,029
532,6	15299,229
533,1	15121,886
533,5	14970,886
534	14809,629
534,4	14641,314
534,9	14484,286
535,3	14317,457
535,8	14162,829
536,2	14002,543
536,7	13847,371
537,1	13677,114
537,6	13520
538	13361,629
538,5	13205,4
538,9	13050,057
539,4	12905,171
539,8	12749,229
540,3	12611,971
540,7	12472,086
541,2	12332,943
541,6	12203,8
542,1	12073,6
542,5	11944,4
543	11816,2
543,4	11684,571
543,9	11562,229
544,3	11437,029
544,8	11310,914
545,2	11185
545,7	11054,229
546,1	10938,143
546,5	10822,571
547	10704,114
547,4	10591,057
547,9	10483,257
548,3	10371,086
548,8	10263,943
549,2	10149,857
549,7	10040,571
550,1	9927,057
550,6	9815
551	9707,029
551,5	9605,771
551,9	9507,714
552,4	9405,857
552,8	9316,571
553,3	9225,629
553,7	9137,629
554,2	9044,543
554,6	8952,114
555,1	8861,857
555,5	8775,2
555,9	8689,114
556,4	8598,257
556,8	8509,829
557,3	8425,143
557,7	8348,086
558,2	8267,657
558,6	8193,857
559,1	8118,371
559,5	8039,886
560	7962,914
560,4	7878
560,9	7813,029
561,3	7741,086
561,8	7656,771
562,2	7569,086
562,7	7496,714
563,1	7424,143
563,6	7357,171
564	7274,371
564,4	7203,4
564,9	7136,8
565,3	7076,114
565,8	7014,371
566,2	6951,257
566,7	6897,086
567,1	6841,6
567,6	6774,914
568	6715,743
568,5	6652,743
568,9	6592,571
569,4	6531,171
569,8	6465,914
570,3	6403,857
570,7	6349,257
571,1	6295,829
571,6	6239,143
572	6185,829
572,5	6131,057
572,9	6082,114
573,4	6030,943
573,8	5980,086
574,3	5919,2
574,7	5874,743
575,2	5827,829
575,6	5784,114
576,1	5727,486
576,5	5678,571
576,9	5616,543
577,4	5577
577,8	5520,286
578,3	5469,686
578,7	5417,6
579,2	5377,143
579,6	5329,171
580,1	5303,743
580,5	5257,714
581	5214,657
581,4	5174,171
581,9	5133,771
582,3	5090,4
582,7	5053,057
583,2	5006,629
583,6	4968,629
584,1	4937
584,5	4891,629
585	4846,314
585,4	4803,286
585,9	4758,343
586,3	4711,771
586,8	4664,971
587,2	4625,829
587,6	4584,857
588,1	4557,743
588,5	4522,857
589	4483,343
589,4	4445,886
589,9	4423,057
590,3	4388,429
590,8	4359,114
591,2	4315,086
591,7	4282,371
592,1	4247,886
592,5	4230,6
593	4191,257
593,4	4153,257
593,9	4113,943
594,3	4086,057
594,8	4055,886
595,2	4029,171
595,7	3988,914
596,1	3967,6
596,6	3939,543
597	3921,743
597,4	3898,686
597,9	3866,486
598,3	3845,771
598,8	3826,771
599,2	3797,514
599,7	3775,771
600,1	3752,2
600,6	3724
601	3702,829
601,4	3669,314
601,9	3638,771
602,3	3616,086
602,8	3587,771
603,2	3559,457
603,7	3538,457
604,1	3517,229
604,6	3500,857
605	3483,486
605,4	3454,4
605,9	3424,086
606,3	3404,857
606,8	3379,257
607,2	3353,829
607,7	3330,486
608,1	3297,2
608,6	3272,029
609	3263,629
609,4	3233,686
609,9	3213,257
610,3	3198,2
610,8	3178,686
611,2	3165,657
611,7	3142,286
612,1	3116,629
612,6	3090,971
613	3066
613,4	3037,143
613,9	3012,771
614,3	2991,286
614,8	2967,343
615,2	2948,943
615,7	2934,629
616,1	2915,6
616,6	2899,171
617	2877,429
617,4	2854,029
617,9	2835,143
618,3	2811,543
618,8	2791,057
619,2	2769,886
619,7	2747,543
620,1	2731,143
620,5	2707,829
621	2695,743
621,4	2676,629
621,9	2655,971
622,3	2633,086
622,8	2610,686
623,2	2585,543
623,6	2567,743
624,1	2546,743
624,5	2530,6
625	2515,171
625,4	2501,943
625,9	2490,057
626,3	2476,829
626,8	2465,829
627,2	2447,543
627,6	2426,514
628,1	2405,514
628,5	2388,571
629	2366,171
629,4	2349,6
629,9	2328,657
630,3	2312
630,7	2292,914
631,2	2281,914
631,6	2263,171
632,1	2250,714
632,5	2237,714
633	2223,114
633,4	2209,771
633,8	2191,314
634,3	2166,514
634,7	2153,571
635,2	2137,629
635,6	2114,029
636,1	2095,771
636,5	2079,743
636,9	2068,714
637,4	2060,2
637,8	2042,457
638,3	2028,057
638,7	2012,486
639,2	1997,829
639,6	1984,286
640	1973,457
640,5	1958,943
640,9	1945,114
641,4	1930,114
641,8	1919,543
642,2	1909,429
642,7	1896,086
643,1	1879,914
643,6	1866,486
644	1857,029
644,5	1850,257
644,9	1835,257
645,3	1821,2
645,8	1804,029
646,2	1792,571
646,7	1777,714
647,1	1760,629
647,6	1744,114
648	1739,086
648,4	1729,171
648,9	1717,857
649,3	1705,657
649,8	1698,086
650,2	1690,429
650,6	1678,286
651,1	1667,143
651,5	1653,657
652	1653,114
652,4	1641,371
652,9	1622,8
653,3	1607,114
653,7	1594,914
654,2	1581,886
654,6	1573,514
655,1	1555,8
655,5	1547,457
655,9	1539,971
656,4	1532,029
656,8	1523,2
657,3	1511,714
657,7	1496,6
658,2	1485,971
658,6	1474,429
659	1465,657
659,5	1457,686
659,9	1446,514
660,4	1435,743
660,8	1423,114
661,2	1413,4
661,7	1404,057
662,1	1397,571
662,6	1392,2
663	1381,314
663,4	1372,029
663,9	1363,057
664,3	1346,257
664,8	1334,4
665,2	1322,686
665,6	1299,429
666,1	1290,571
666,5	1280,6
667	1273,029
667,4	1272,743
667,9	1267,143
668,3	1257,914
668,7	1255,6
669,2	1241,286
669,6	1228,943
670,1	1218,686
670,5	1208,371
670,9	1194,829
671,4	1185
671,8	1176,314
672,3	1170,6
672,7	1167,514
673,1	1166,657
673,6	1157,314
674	1144,943
674,5	1138,314
674,9	1128,057
675,3	1121,914
675,8	1111,857
676,2	1097,743
676,7	1090,943
677,1	1086,4
677,5	1081,657
678	1076,943
678,4	1070,8
678,9	1063,257
679,3	1058,229
679,7	1049,257
680,2	1045,143
680,6	1032,457
681,1	1021,686
681,5	1014,457
681,9	1008,571
682,4	997,371
682,8	988,457
683,3	979,714
683,7	974,714
684,1	967,629
684,6	954,8
685	945,6
685,5	933,257
685,9	925,6
686,3	921,371
686,8	917,857
687,2	919,229
687,7	918,229
688,1	906,229
688,5	907,086
689	904,857
689,4	896,8
689,9	886,2
690,3	873,743
690,7	866,343
691,2	865,686
691,6	852,543
692	846,029
692,5	836,743
692,9	833,229
693,4	826
693,8	821,257
694,2	816,114
694,7	818,429
695,1	807,143
695,6	806,229
696	793,143
696,4	788,743
696,9	777,8
697,3	774,114
697,8	764,943
698,2	760,457
698,6	751,686
699,1	751,8
699,5	746,943
699,9	743,829
700,4	735,714
700,8	731,343
701,3	729,086
701,7	722,314
702,1	715,171
702,6	706,314
703	699,571
703,5	694,2
703,9	690,943
704,3	683
704,8	679,571
705,2	676,314
705,6	675,2
706,1	669,4
706,5	668,229
707	665,514
707,4	667,086
707,8	665,686
708,3	662,943
708,7	658,629
709,2	655,486
709,6	648,371
710	640,2
710,5	627,6
710,9	622,343
711,3	614,686
711,8	603,229
712,2	602,771
712,7	594,8
713,1	589,629
713,5	591,4
714	580,457
714,4	572,257
714,8	574,143
715,3	569,229
715,7	565,686
716,2	566,4
716,6	557,486
717	558,971
717,5	552,743
717,9	547,829
718,3	542,314
718,8	540,886
719,2	528,714
719,7	526,029
720,1	518,657
720,5	525,4
721	523
721,4	519,171
721,8	512,657
722,3	510,229
722,7	505,943
723,2	504,429
723,6	497,4
724	493,714
724,5	487,543
724,9	482,057
725,3	476,143
725,8	470,943
726,2	464,8
726,7	457,257
727,1	450,714
727,5	450,114
728	439,914
728,4	442,857
728,8	437,857
729,3	433,886
729,7	428
730,1	425,829
730,6	422,886
731	430,229
731,5	426,629
731,9	428,2
732,3	433,086
732,8	434,629
733,2	432,857
733,6	432,343
734,1	426,171
734,5	423,629
734,9	416,743
735,4	407,429
735,8	405,114
736,3	399,657
736,7	393,8
737,1	392,343
737,6	388,457
738	390,429
738,4	391,143
738,9	388,8
739,3	393,6
739,7	392,257
740,2	391,543
740,6	387,229
741,1	382,286
741,5	377,686
741,9	375,114
742,4	372,629
742,8	367,343
743,2	364,143
743,7	364,857
744,1	366,629
744,5	365,571
745	363,314
745,4	359,029
745,8	358,286
746,3	358,971
746,7	354
747,2	343,486
747,6	343,029
748	344,714
748,5	340,914
748,9	335,971
749,3	331,171
749,8	330,857
750,2	331,114
750,6	325,771
751,1	323,114
751,5	323,829
751,9	323,2
752,4	325,314
752,8	325,943
753,3	324,857
753,7	322,971
754,1	316,2
754,6	307,257
755	303,6
755,4	303,114
755,9	298,657
756,3	298,743
756,7	296,114
757,2	294,543
757,6	296,971
758	293,029
758,5	282,543
758,9	282,343
759,3	278,2
759,8	275,171
760,2	276,457
760,6	278,629
761,1	281,543
761,5	282,829
761,9	278,743
762,4	278,943
762,8	279,514
763,3	275,114
763,7	271,8
764,1	268
764,6	265,943
765	265,086
765,4	266,457
765,9	263,114
766,3	265,943
766,7	260,629
767,2	260,514
767,6	260,286
768	254,571
768,5	249,171
768,9	244,257
769,3	239,029
769,8	231,514
770,2	228,371
770,6	225,4
771,1	226,771
771,5	225,371
771,9	227,343
772,4	225,714
772,8	228,857
773,2	232,686
773,7	231,886
774,1	233,629
774,5	232,314
775	233,171
775,4	230,8
775,8	230,429
776,3	225,371
776,7	222,629
777,1	213,743
777,6	207,114
778	203,171
778,4	205,714
778,9	203,943
779,3	203,286
779,7	200,829
780,2	203,314
780,6	211,971
781	214,286
781,5	206,714
781,9	204,371
782,3	203,8
782,8	206,371
783,2	205,171
783,6	197,286
784,1	198,286
784,5	199,714
784,9	198,886
785,4	197,2
785,8	197,171
786,2	192,8
786,7	197,257
787,1	194,086
787,5	192,286
788	191,743
788,4	189,457
788,8	184,6
789,3	187,657
789,7	184,057
790,1	185,657
790,6	185,114
791	183,343
791,4	181,371
791,9	177,4
792,3	176,743
792,7	181,114
793,2	173,2
793,6	173,686
794	173,514
794,5	173,4
794,9	175,429
795,3	175,571
795,8	167,6
796,2	160,829
796,6	159,514
797,1	160,743
797,5	158,971
797,9	162
798,4	161,2
798,8	157,171
799,2	164,486
799,7	161,686
800,1	158,686
800,5	160,657
801	158,543
801,4	153,543
801,8	156,429
802,2	157,314
802,7	155,914
803,1	156,971
803,5	153,714
804	150,343
804,4	152,657
804,8	151,143
805,3	143,229
805,7	144,914
806,1	140,143
806,6	142,343
807	142
807,4	142,314
807,9	140,571
808,3	143,657
808,7	140,571
809,2	139,657
809,6	137,714
810	135,057
810,4	132,743
810,9	139,257
811,3	138,629
811,7	132,629
812,2	130,971
812,6	130,143
813	132,857
813,5	133,4
813,9	125
814,3	121,229
814,8	123,114
815,2	125,543
815,6	124,229
816,1	125,086
816,5	122,771
816,9	121,743
817,3	125,543
817,8	127,057
818,2	125,343
818,6	123,371
819,1	115,143
819,5	116,457
819,9	119,486
820,4	123,371
820,8	124,743
821,2	120,514
821,7	114,829
822,1	115,543
822,5	114,257
822,9	107,543
823,4	99,114
823,8	101,457
824,2	107,457
824,7	110,486
825,1	112,657
825,5	109,257
826	108,486
826,4	108,171
826,8	101
827,3	96,057
827,7	95,486
828,1	91,943
828,5	95,2
829	100,257
829,4	97,571
829,8	100,286
830,3	103,229
830,7	100,657
831,1	100,657
831,6	95,914
832	90,029
832,4	90,971
832,8	85,314
833,3	80,429
833,7	81
834,1	81,486
834,6	78,114
835	80,4
835,4	79,314
835,8	82,714
836,3	86,371
836,7	85,857
837,1	85,686
837,6	84,114
838	83,886
838,4	85,657
838,9	85,229
839,3	80,286
839,7	80,171
840,1	79,343
840,6	81,371
841	73,6
841,4	72
841,9	70,029
842,3	68,371
842,7	64,8
843,1	64,543
843,6	63,971
844	72,029
844,4	73,029
844,9	72,029
845,3	72,571
845,7	71,857
846,2	73,429
846,6	75,486
847	71,657
847,4	73,257
847,9	72,429
848,3	69,686
848,7	70,829
849,2	66,4
849,6	62,371
850	64,914
850,4	59,057
850,9	56,314
851,3	63,914
851,7	63,286
852,2	59,743
852,6	62,943
853	64,771
853,4	63,286
853,9	66,829
854,3	65,771
854,7	68,143
855,2	71,486
855,6	66,2
856	63,2
856,4	64,029
856,9	60,171
857,3	51,971
857,7	52,286
858,2	52,286
858,6	53,086
859	54,543
859,4	51,371
859,9	48,314
860,3	52,543
860,7	48,343
861,1	52,057
861,6	56,343
862	53,886
862,4	57,371
862,9	64,686
863,3	61,943
863,7	64,114
864,1	58,257
864,6	55,486
865	53,657
865,4	53,086
865,9	52,6
866,3	55,771
866,7	52,657
867,1	53,229
867,6	52,943
868	51,286
868,4	50,086
868,8	42,571
869,3	43,857
869,7	48,571
870,1	47,714
870,6	48,229
871	90,857
871,4	94,057
871,8	97,057
872,3	92,486
872,7	85,171
873,1	78,514
873,5	73,314
874	31,171
874,4	33,286
874,8	34,886
875,3	35,343
875,7	37,571
876,1	46,829
876,5	51,114
877	51,057
877,4	46,857
877,8	44,629
878,2	49,2
878,7	50
879,1	45,771
879,5	44,6
879,9	41,6
880,4	38,114
880,8	41,086
881,2	33,629
881,7	31,829
882,1	35,257
882,5	33,257
882,9	36,114
883,4	34,829
883,8	30,229
884,2	33,829
884,6	34,657
885,1	27,543
885,5	25,943
885,9	25,486
886,3	29,2
886,8	32,229
887,2	27,971
887,6	28
888	32,086
888,5	34,914
888,9	32,743
889,3	28,4
889,8	27,971
890,2	28,2
890,6	30,314
891	31,086
891,5	29,8
891,9	27,086
892,3	33,8
892,7	30,114
893,2	33,829
893,6	28,457
894	26,257
894,4	25,286
894,9	30,514
895,3	27,143
895,7	29,829
896,1	22,829
896,6	28,314
897	32,429
897,4	33,171
897,8	34,4
898,3	33,114
898,7	31,086
899,1	33,514
899,5	31,571
900	26,571
900,4	25,686
900,8	15,143
901,2	16,829
901,7	21,286
902,1	20
902,5	19,714
902,9	20,971
903,4	22,629
903,8	26,429
904,2	27,4
904,6	24,343
905,1	27,257
905,5	26,086
905,9	25,771
906,3	23,257
906,8	23,543
907,2	18,8
907,6	19,486
908	14,914
908,5	11,8
908,9	13,886
909,3	12,8
909,7	12,371
910,2	14,571
910,6	13,8
911	20,257
911,4	24,286
911,9	22,714
912,3	26,543
912,7	29,829
913,1	28,257
913,6	27,943
914	30,371
914,4	27,4
914,8	29,086
915,3	28,886
915,7	29,057
916,1	28,457
916,5	28,2
916,9	22,8
917,4	22,457
917,8	16,114
918,2	16,857
918,6	17,943
919,1	19,429
919,5	20,486
919,9	23,086
920,3	24,029
920,8	32,743
921,2	30,971
921,6	30,971
922	29,114
922,5	27,771
922,9	26,8
923,3	28,686
923,7	23,486
924,2	20,314
924,6	21,314
925	24,886
925,4	27,371
925,8	23,886
926,3	23,657
926,7	24,543
927,1	28,086
927,5	26,4
928	24,286
928,4	18,486
928,8	22,314
929,2	22,2
929,7	22,171
930,1	17,543
930,5	12,257
930,9	12,686
931,3	20,829
931,8	19,714
932,2	19,829
932,6	18,714
933	16,2
933,5	19,029
933,9	20,029
934,3	11,943
934,7	12,943
935,2	9,286
935,6	9,4
936	12,771
936,4	10,371
936,8	8,429
937,3	12,857
937,7	8,629
938,1	12,771
938,5	8,771
939	11,486
939,4	16,257
939,8	12,429
940,2	8,914
940,6	8,057
941,1	5,514
941,5	8,086
941,9	5,857
942,3	4,543
942,8	7,657
943,2	5,457
943,6	8
944	8,714
944,4	8,543
944,9	7,086
945,3	5,886
945,7	7,829
946,1	8,743
946,6	9,543
947	10,429
947,4	9,686
947,8	16,543
948,2	19,143
948,7	16
949,1	22,914
949,5	20,486
949,9	17,6
950,3	14,914
950,8	9,286
951,2	7,257
951,6	9,486
952	7,171
952,5	7,514
952,9	7,571
953,3	12,4
953,7	12,629
954,1	11,714
954,6	8,057
955	6,486
955,4	7,714
955,8	9,657
956,2	4,914
956,7	5,457
957,1	6,571
957,5	13,571
957,9	9,486
958,3	11,086
958,8	12,371
959,2	18,6
959,6	20
960	20,143
960,5	11,343
960,9	19,571
961,3	19,6
961,7	20,4
962,1	21,629
962,6	20,543
963	22,314
963,4	30,486
963,8	25,6
964,2	21,371
964,7	20,2
965,1	16,171
965,5	17,571
965,9	15,029
966,3	11,629
966,8	10,457
967,2	15,343
967,6	15,743
968	18,143
968,4	16,057
968,9	13,029
969,3	13,629
969,7	17,4
970,1	12,4
970,5	5,143
971	6,343
971,4	9,057
971,8	11,857
972,2	10,257
972,6	6,714
973,1	5,829
973,5	13,171
973,9	5,943
974,3	6,114
974,7	5,8
975,2	7,114
975,6	9,429
976	13,429
976,4	13,457
976,8	16,971
977,3	15,086
977,7	16,771
978,1	17,314
978,5	12,229
978,9	12,943
979,4	12,686
979,8	12,743
980,2	14,971
980,6	13,771
981	7,114
981,5	9,057
981,9	6,229
982,3	3,6
982,7	0,943
983,1	-3,743
983,6	-2,6
984	4,343
984,4	0,143
984,8	0,714
985,2	2,914
985,6	3,857
986,1	4
986,5	3,857
986,9	0,286
987,3	3,857
987,7	4
988,2	-0,086
988,6	0,543
989	3,171
989,4	1,886
989,8	1,171
990,3	0,429
990,7	-2,914
991,1	1,229
991,5	1,2
991,9	-3,429
992,3	-3,571
992,8	-4,8
993,2	-1,514
993,6	1,057
994	-1,571
994,4	4,286
994,9	8,686
995,3	13,343
995,7	17,171
996,1	18,6
996,5	15,257
996,9	20,743
997,4	14,057
997,8	11,286
998,2	6,514
998,6	8,971
999	7,543
999,5	11,229
999,9	4,6
1000,3	2,6
1000,7	5,314
1001,1	4,743
1001,5	5,457
1002	1,571
1002,4	2,2
1002,8	4,6
1003,2	5,6
1003,6	2,714
1004	7,029
1004,5	3,257
1004,9	4,943
1005,3	3
1005,7	8,571
1006,1	7,229
1006,6	10,514
1007	3,543
1007,4	2,829
1007,8	7,229
1008,2	11,2
1008,6	4,029
1009,1	8,371
1009,5	7,857
1009,9	12,086
1010,3	14,457
1010,7	13,2
1011,1	10,943
1011,6	13
1012	11
1012,4	10,714
1012,8	8,429
1013,2	3,829
1013,6	1
1014,1	-2,543
1014,5	-2,229
1014,9	-1
1015,3	-4,057
1015,7	-4,514
1016,1	0,886
1016,6	3,686
1017	6,857
1017,4	5,114
1017,8	11,514
1018,2	12,486
1018,6	13,486
1019,1	9,886
1019,5	9,657
1019,9	13,8
1020,3	14,886
1020,7	9,171
1021,1	8,571
1021,6	9,971
1022	13,286
1022,4	9,829
1022,8	7,686
1023,2	5,457
1023,6	4,4
1024,1	8,057
1024,5	11
1024,9	11,543
1025,3	13,2
1025,7	10,686
1026,1	8,286
1026,6	14,314
1027	13,629
1027,4	9,514
1027,8	5,457
1028,2	6,371
1028,6	9,514
1029	9
1029,5	2,286
1029,9	4,886
1030,3	2,4
1030,7	5,857
1031,1	8,714
1031,5	7,943
1032	11,543
1032,4	15,2
1032,8	9,514
1033,2	11,8
1033,6	6,543
1034	1,771
1034,4	3,914
1034,9	8,857
1035,3	6,371
1035,7	9,886
1036,1	15,6
1036,5	16,257
1036,9	18,771
1037,4	15,343
1037,8	10,971
1038,2	11,914
1038,6	10,314
1039	7,371
1039,4	14,114
1039,8	17,971
1040,3	18,143
1040,7	21,286
1041,1	16,6
1041,5	21,4
1041,9	22,886
1042,3	19,571
1042,7	11,686
1043,2	12,829
1043,6	12,914
1044	19,714
1044,4	19,486
1044,8	16,4
1045,2	16,486
1045,6	18,857
1046,1	20,029
1046,5	15,371
1046,9	17,629
1047,3	15,8
1047,7	13,086
1048,1	9,8
1048,5	13,143
1049	12,343
1049,4	10,6
1049,8	5,229
1050,2	5,286
1050,6	6,229
1051	15,571
1051,4	13,486
1051,9	11,571
1052,3	10,171
1052,7	16,8
1053,1	13,257
1053,5	18,057
1053,9	12,743
1054,3	7,314
1054,8	5,457
1055,2	9,457
1055,6	3,971
1056	4,829
1056,4	-2,886
1056,8	-2,714
1057,2	-0,686
1057,6	6,743
1058,1	13
1058,5	10
1058,9	9,543
1059,3	11,371
1059,7	9,857
1060,1	11,6
1060,5	8,657
1061	2,914
1061,4	0,686
1061,8	1,343
1062,2	4,2
1062,6	3,114
1063	3,057
1063,4	-0,657
1063,8	-0,286
1064,3	7,514
1064,7	7,257
1065,1	5,314
1065,5	6,6
1065,9	9,457
1066,3	9,457
1066,7	15,286
1067,1	7,8
1067,6	9,4
1068	13,229
1068,4	12,229
1068,8	14,457
1069,2	19,057
1069,6	14,629
1070	20,4
1070,4	19,514
1070,9	17,857
1071,3	22
1071,7	17,8
1072,1	13,743
1072,5	15,429
1072,9	13,857
1073,3	13,171
1073,7	9,514
1074,2	7,486
1074,6	8,086
1075	12,314
1075,4	14,6
1075,8	14,514
1076,2	16,486
1076,6	20,629
1077	22,2
1077,5	24,143
1077,9	16,914
1078,3	13,114
1078,7	11,514
1079,1	15,657
1079,5	14,571
1079,9	16
1080,3	15,057
1080,7	17
1081,2	15,943
1081,6	15,429
1082	14,286
1082,4	14
1082,8	9,914
1083,2	4,257
1083,6	4,657
1084	3,657
1084,5	5,943
1084,9	-1,2
1085,3	-5,429
1085,7	-1,229
1086,1	6,143
1086,5	5,829
1086,9	5,743
1087,3	11,057
1087,7	18,514
1088,2	27,829
1088,6	24,943
1089	20,857
1089,4	29,771
1089,8	29,743
1090,2	21,914
1090,6	16,343
1091	8,029
1091,4	4,971
1091,9	5,771
1092,3	0,743
1092,7	-1,029
1093,1	1,057
1093,5	2,943
1093,9	4,914
1094,3	5,857
1094,7	3,8
1095,1	3,829
1095,5	6,086
1096	9,086
1096,4	7,429
1096,8	11,543
1097,2	12,743
1097,6	16,029
1098	12,943
1098,4	14,571
1098,8	12,743
1099,2	11,857
1099,6	10,371
1100,1	10,829
1100,5	12,057
1100,9	13,286
1101,3	10,4
1101,7	8,086
1102,1	11,343
1102,5	8,086
1102,9	8,286
1103,3	9,429
1103,7	11,171
1104,2	14,543
1104,6	18,6
1105	16,457
1105,4	20
1105,8	18,029
1106,2	13,4
1106,6	9,771
1107	6,629
1107,4	3,367
1107,8	3,04
1108,3	-0,15
