Data from Subt2_00030.txt Node
Date: Mon Aug 28 13:13:01 MSK 2023
User: vat
Spectrometer: MAYP114033
Trigger mode: 0
Integration Time (sec): 1,000000E0
Scans to average: 5
Electric dark correction enabled: true
Nonlinearity correction enabled: false
Boxcar width: 3
XAxis mode: Wavelengths
Number of Pixels in Spectrum: 2068
>>>>>Begin Spectral Data<<<<<
199,4	0,867
199,9	5,387
200,4	2,267
200,8	4,952
201,3	4,895
201,8	6,467
202,2	7,638
202,7	11,524
203,2	11,752
203,6	14,181
204,1	16,038
204,6	20,467
205	22,267
205,5	26,01
206	21,81
206,4	21,238
206,9	23,638
207,4	23,095
207,8	19,924
208,3	20,038
208,8	19,067
209,2	23,267
209,7	20,895
210,2	17,352
210,6	17,238
211,1	16,267
211,5	14,438
212	12,381
212,5	13,838
212,9	16,724
213,4	19,695
213,9	18,524
214,3	19,324
214,8	21,438
215,3	18,695
215,7	17,381
216,2	18,952
216,7	23,095
217,1	25,695
217,6	28,752
218,1	27,524
218,5	31,01
219	29,61
219,5	27,952
219,9	23,01
220,4	20,21
220,9	19,381
221,3	16,867
221,8	21,81
222,3	23,895
222,7	22,381
223,2	23,61
223,6	25,01
224,1	23,981
224,6	24,667
225	21,21
225,5	16,695
226	19,724
226,4	19,324
226,9	16,295
227,4	18,267
227,8	21,752
228,3	20,924
228,8	25,895
229,2	27,638
229,7	29,695
230,2	26,467
230,6	22,067
231,1	20,01
231,5	19,61
232	19,724
232,5	16,124
232,9	13,038
233,4	16,781
233,9	19,781
234,3	18,352
234,8	20,238
235,3	12,152
235,7	7,324
236,2	6,095
236,7	7,095
237,1	11,152
237,6	14,152
238,1	11,267
238,5	18,324
239	21,867
239,4	22,581
239,9	23,524
240,4	18,038
240,8	18,638
241,3	25,667
241,8	23,438
242,2	23,924
242,7	27,438
243,2	24,667
243,6	32,181
244,1	26,067
244,6	20,495
245	19,952
245,5	26,41
245,9	22,438
246,4	25,524
246,9	22,295
247,3	26,381
247,8	23,295
248,3	29,61
248,7	26,952
249,2	29,21
249,7	29,61
250,1	26,981
250,6	27,438
251	30,124
251,5	24,581
252	20,21
252,4	18,81
252,9	16,152
253,4	14,752
253,8	14,695
254,3	15,667
254,8	19,095
255,2	18,895
255,7	24,552
256,1	25,724
256,6	31,724
257,1	30,952
257,5	30,838
258	28,295
258,5	32,552
258,9	26,952
259,4	26,21
259,9	18,581
260,3	19,581
260,8	16,467
261,2	17,924
261,7	17,038
262,2	19,21
262,6	19,41
263,1	23,324
263,6	23,152
264	23,324
264,5	22,41
264,9	21,695
265,4	17,067
265,9	19,381
266,3	22,781
266,8	20,295
267,3	21,21
267,7	17,295
268,2	18,581
268,7	23,124
269,1	15,838
269,6	15,352
270	19,352
270,5	20,581
271	24,61
271,4	23,524
271,9	24,495
272,4	30,467
272,8	24,381
273,3	22,895
273,7	21,667
274,2	21,038
274,7	18,038
275,1	16,724
275,6	19,41
276,1	21,41
276,5	25,267
277	27,295
277,4	25,038
277,9	28,438
278,4	27,61
278,8	24,067
279,3	23,638
279,8	17,581
280,2	14,952
280,7	16,695
281,1	12,667
281,6	12,81
282,1	12,01
282,5	13,067
283	14,01
283,4	16,581
283,9	19,524
284,4	23,867
284,8	22,895
285,3	27,124
285,8	27,924
286,2	24,381
286,7	23,467
287,1	20,924
287,6	19,581
288,1	24,467
288,5	20,752
289	22,781
289,5	25,924
289,9	30,41
290,4	35,21
290,8	34,324
291,3	33,152
291,8	35,924
292,2	33,21
292,7	36,552
293,1	30,838
293,6	25,381
294,1	27,095
294,5	23,638
295	21,981
295,5	21,552
295,9	20,381
296,4	21,152
296,8	19,667
297,3	19,21
297,8	15,695
298,2	16,867
298,7	17,438
299,1	18,952
299,6	17,495
300,1	22,724
300,5	20,81
301	23,952
301,5	17,124
301,9	14,81
302,4	11,895
302,8	12,895
303,3	9,981
303,8	12,724
304,2	9,352
304,7	14,124
305,1	18,838
305,6	20,61
306,1	18,524
306,5	21,038
307	18,924
307,4	22,581
307,9	22,438
308,4	17,724
308,8	18,267
309,3	24,752
309,8	22,267
310,2	19,124
310,7	23,095
311,1	22,01
311,6	26,667
312,1	22,267
312,5	17,038
313	14,152
313,4	21,61
313,9	16,267
314,4	20,61
314,8	15,095
315,3	19,838
315,7	19,61
316,2	23,895
316,7	15,495
317,1	16,438
317,6	14,067
318	19,524
318,5	20,495
319	24,124
319,4	25,067
319,9	26,867
320,3	28,267
320,8	30,581
321,3	26,81
321,7	25,381
322,2	24,467
322,6	21,524
323,1	21,695
323,6	21,895
324	19,581
324,5	21,067
324,9	18,61
325,4	19,752
325,9	23,067
326,3	23,581
326,8	25,695
327,2	23,438
327,7	22,095
328,2	22,81
328,6	22,467
329,1	14,981
329,5	16,41
330	11,838
330,5	9,838
330,9	10,581
331,4	12,695
331,8	13,781
332,3	16,524
332,8	14,067
333,2	16,638
333,7	17,095
334,1	20,867
334,6	18,581
335,1	18,124
335,5	19,924
336	21,095
336,4	25,41
336,9	27,324
337,4	24,695
337,8	22,267
338,3	22,581
338,7	25,124
339,2	29,724
339,7	23,095
340,1	21,067
340,6	17,095
341	19,552
341,5	17,581
342	18,61
342,4	20,238
342,9	23,181
343,3	26,667
343,8	27,667
344,2	29,952
344,7	30,381
345,2	27,438
345,6	25,41
346,1	24,981
346,5	22,267
347	25,724
347,5	21,552
347,9	21,495
348,4	24,295
348,8	22,781
349,3	30,181
349,8	32,81
350,2	32,552
350,7	36,067
351,1	42,152
351,6	44,924
352	44,152
352,5	43,838
353	49,924
353,4	57,324
353,9	65,095
354,3	72,095
354,8	81,038
355,3	96,867
355,7	107,495
356,2	121,924
356,6	139,581
357,1	165,667
357,5	190,238
358	216,352
358,5	252,524
358,9	293,295
359,4	339,295
359,8	389,352
360,3	439,867
360,8	497,124
361,2	569,01
361,7	638,667
362,1	712,781
362,6	795,781
363	892,838
363,5	992,581
364	1101,924
364,4	1205,838
364,9	1318,724
365,3	1432,667
365,8	1538,21
366,3	1628,267
366,7	1714,724
367,2	1785,324
367,6	1845,495
368,1	1891,152
368,5	1919,124
369	1933,41
369,5	1931,438
369,9	1913,41
370,4	1879,524
370,8	1838,524
371,3	1782,924
371,7	1717,952
372,2	1653,781
372,7	1579,238
373,1	1502,895
373,6	1419,095
374	1329,21
374,5	1237,838
374,9	1153,238
375,4	1066,181
375,9	985,867
376,3	905,781
376,8	838,324
377,2	777,295
377,7	716,41
378,2	667,952
378,6	612,181
379,1	564,152
379,5	520,867
380	478,295
380,4	437,952
380,9	410,495
381,4	376,095
381,8	355,181
382,3	329,124
382,7	304,81
383,2	286,21
383,6	267,552
384,1	246,124
384,6	231,324
385	213,752
385,5	198,638
385,9	189,552
386,4	179,524
386,8	173,352
387,3	163,067
387,7	147,152
388,2	135,495
388,7	128,095
389,1	110,381
389,6	106,695
390	96,152
390,5	93,438
390,9	92,352
391,4	85,181
391,9	83,552
392,3	90,524
392,8	85,324
393,2	86,01
393,7	76,895
394,1	72,267
394,6	76,467
395,1	74,981
395,5	71,581
396	66,381
396,4	65,695
396,9	69,295
397,3	69,61
397,8	65,038
398,2	65,038
398,7	66,381
399,2	68,552
399,6	66,981
400,1	67,781
400,5	70,095
401	75,752
401,4	74,181
401,9	71,581
402,4	73,895
402,8	71,038
403,3	71,181
403,7	71,038
404,2	71,152
404,6	74,467
405,1	80,924
405,5	78,067
406	81,238
406,5	84,524
406,9	84,324
407,4	81,895
407,8	86,495
408,3	88,181
408,7	94,724
409,2	100,638
409,6	105,838
410,1	111,667
410,6	123,038
411	126,952
411,5	134,752
411,9	144,581
412,4	155,981
412,8	167,781
413,3	180,724
413,7	194,695
414,2	207,867
414,7	219,324
415,1	233,124
415,6	242,638
416	254,152
416,5	270,924
416,9	282,21
417,4	297,667
417,8	313,81
418,3	330,181
418,8	352,638
419,2	371,81
419,7	390,324
420,1	412,695
420,6	431,41
421	460,867
421,5	486,21
421,9	511,61
422,4	543,324
422,8	572,724
423,3	596,838
423,8	628,667
424,2	655,667
424,7	687,667
425,1	721,01
425,6	757,381
426	797,152
426,5	841,61
426,9	892,638
427,4	939,724
427,9	985,867
428,3	1038,61
428,8	1089,924
429,2	1143,524
429,7	1203,238
430,1	1257,381
430,6	1323,21
431	1396,467
431,5	1465,695
431,9	1543,381
432,4	1622,295
432,8	1705,552
433,3	1797,838
433,8	1894,095
434,2	1984,724
434,7	2087,838
435,1	2192,981
435,6	2309,124
436	2425,467
436,5	2542,667
436,9	2661,752
437,4	2797,238
437,8	2930,21
438,3	3070,238
438,8	3209,981
439,2	3356,21
439,7	3509,467
440,1	3667,524
440,6	3830,667
441	4002,238
441,5	4173,438
441,9	4353,21
442,4	4542,381
442,8	4748,438
443,3	4958,924
443,7	5170,324
444,2	5385,238
444,7	5617,067
445,1	5852,295
445,6	6100,61
446	6338,924
446,5	6587,095
446,9	6834,638
447,4	7107,495
447,8	7372,238
448,3	7649,267
448,7	7925,238
449,2	8213,61
449,6	8507,581
450,1	8808,781
450,6	9095,152
451	9404,438
451,5	9722,867
451,9	10046,267
452,4	10369,238
452,8	10697,21
453,3	11034,724
453,7	11389,667
454,2	11746,981
454,6	12100,61
455,1	12459,038
455,5	12818,467
456	13182,952
456,4	13561,981
456,9	13933,752
457,3	14313,638
457,8	14692,724
458,3	15083,695
458,7	15484,81
459,2	15886,724
459,6	16279,267
460,1	16690,667
460,5	17085,581
461	17487,667
461,4	17886,295
461,9	18287,867
462,3	18704,695
462,8	19123,01
463,2	19523,095
463,7	19918,752
464,1	20319,981
464,6	20728,038
465	21130,381
465,5	21518,81
466	21910,581
466,4	22302,524
466,9	22708,038
467,3	23100,838
467,8	23496,952
468,2	23893,381
468,7	24278,524
469,1	24661,238
469,6	25054,552
470	25429,552
470,5	25806,981
470,9	26165,181
471,4	26521,638
471,8	26867,324
472,3	27206,381
472,7	27540,381
473,2	27880,638
473,6	28209,324
474,1	28527,238
474,5	28849,552
475	29165,467
475,4	29486,381
475,9	29780,524
476,4	30056,295
476,8	30333,01
477,3	30603,352
477,7	30864,01
478,2	31100,581
478,6	31344,495
479,1	31564,752
479,5	31794,724
480	32016,381
480,4	32223,695
480,9	32411,238
481,3	32610,667
481,8	32781,267
482,2	32963,752
482,7	33127,21
483,1	33274,895
483,6	33415,381
484	33531,952
484,5	33657,724
484,9	33755,924
485,4	33843,21
485,8	33910,381
486,3	33976,581
486,7	34032,752
487,2	34089,695
487,6	34123,352
488,1	34157,01
488,5	34189,667
489	34215,01
489,4	34226,952
489,9	34239,181
490,4	34230,952
490,8	34211,81
491,3	34180,781
491,7	34132,01
492,2	34086,867
492,6	34028,81
493,1	33944,724
493,5	33852,01
494	33759,695
494,4	33671,124
494,9	33584,038
495,3	33472,695
495,8	33344,067
496,2	33229,152
496,7	33120,324
497,1	33000,238
497,6	32867,038
498	32713,924
498,5	32575,81
498,9	32446,552
499,4	32290,895
499,8	32137,61
500,3	31973,981
500,7	31816,838
501,2	31650,552
501,6	31481,467
502,1	31302,981
502,5	31128,781
503	30943,267
503,4	30763,781
503,9	30571,238
504,3	30377,695
504,8	30178,724
505,2	29976,038
505,7	29756,41
506,1	29549,381
506,6	29316,695
507	29098,724
507,5	28885,124
507,9	28664,467
508,4	28423,695
508,8	28206,952
509,3	27978,467
509,7	27773,552
510,2	27538,038
510,6	27307,524
511,1	27076,124
511,5	26844,895
512	26602,038
512,4	26343,295
512,9	26086,524
513,3	25834,695
513,8	25595,124
514,2	25329,867
514,7	25088,638
515,1	24858,781
515,6	24631,952
516	24384,095
516,5	24149,724
516,9	23894,667
517,4	23646,924
517,8	23403,952
518,3	23146,638
518,7	22891,381
519,2	22653,295
519,6	22402,124
520,1	22161,181
520,5	21926,467
521	21664,867
521,4	21428,295
521,9	21196,552
522,3	20955,552
522,8	20723,838
523,2	20490,524
523,7	20257,038
524,1	20042,41
524,6	19807,21
525	19578,524
525,5	19358,352
525,9	19137,324
526,4	18911,01
526,8	18706,381
527,3	18496,838
527,7	18303,181
528,2	18096,838
528,6	17894,61
529,1	17684,467
529,5	17485,495
530	17276,295
530,4	17079,238
530,9	16870,752
531,3	16679,01
531,8	16489,038
532,2	16298,924
532,6	16102,267
533,1	15907,438
533,5	15721,038
534	15539,524
534,4	15353,324
534,9	15163,867
535,3	14993,524
535,8	14829,181
536,2	14667,952
536,7	14497,781
537,1	14319,838
537,6	14152,724
538	13994,238
538,5	13825,267
538,9	13646,781
539,4	13479,495
539,8	13309,238
540,3	13164,838
540,7	13022,552
541,2	12868,667
541,6	12729,295
542,1	12591,752
542,5	12457,01
543	12332,238
543,4	12190,152
543,9	12047,952
544,3	11917,267
544,8	11786,295
545,2	11654,667
545,7	11523,038
546,1	11389,181
546,5	11255,895
547	11124,895
547,4	11001,781
547,9	10873,781
548,3	10766,352
548,8	10647,724
549,2	10531,695
549,7	10424,038
550,1	10317,952
550,6	10204,638
551	10093,552
551,5	9980,21
551,9	9873,667
552,4	9772,267
552,8	9678,61
553,3	9576,895
553,7	9477,352
554,2	9371,667
554,6	9276,495
555,1	9179,41
555,5	9082,781
555,9	8976,552
556,4	8878,952
556,8	8782,81
557,3	8696,638
557,7	8603,495
558,2	8519,867
558,6	8440,467
559,1	8358,581
559,5	8288,695
560	8214,724
560,4	8138,981
560,9	8065,238
561,3	7981,41
561,8	7895,581
562,2	7817,467
562,7	7728,467
563,1	7644,267
563,6	7567,124
564	7490,81
564,4	7418,095
564,9	7347,238
565,3	7270,838
565,8	7203,924
566,2	7139,095
566,7	7070,895
567,1	7001,667
567,6	6937,41
568	6877,438
568,5	6823,495
568,9	6763,724
569,4	6700,781
569,8	6638,324
570,3	6581,781
570,7	6525,381
571,1	6462,01
571,6	6397,981
572	6335,867
572,5	6276,41
572,9	6227,781
573,4	6171,467
573,8	6112,867
574,3	6060,61
574,7	6010,324
575,2	5962,238
575,6	5917,838
576,1	5858,667
576,5	5799,495
576,9	5746,781
577,4	5692,81
577,8	5634,124
578,3	5576,495
578,7	5509,467
579,2	5458,41
579,6	5412,695
580,1	5366,467
580,5	5314,752
581	5275,581
581,4	5231,61
581,9	5195,181
582,3	5150,41
582,7	5101,695
583,2	5060,152
583,6	5012,667
584,1	4968,981
584,5	4925,381
585	4881,038
585,4	4838,495
585,9	4803,495
586,3	4763,838
586,8	4726,324
587,2	4684,638
587,6	4645,181
588,1	4609,095
588,5	4569,438
589	4524,438
589,4	4480,181
589,9	4442,667
590,3	4413,952
590,8	4379,095
591,2	4338,667
591,7	4306,552
592,1	4278,038
592,5	4248,695
593	4219,924
593,4	4182,41
593,9	4151,838
594,3	4127,781
594,8	4095,038
595,2	4064,238
595,7	4028,267
596,1	4004,724
596,6	3977,552
597	3950,238
597,4	3921,781
597,9	3900,324
598,3	3868,724
598,8	3845,752
599,2	3812,867
599,7	3784,152
600,1	3758,552
600,6	3732,695
601	3702,295
601,4	3679,381
601,9	3653,495
602,3	3636,381
602,8	3610,952
603,2	3581,667
603,7	3551,81
604,1	3527,638
604,6	3509,095
605	3486,095
605,4	3450,438
605,9	3423,467
606,3	3398,695
606,8	3377,495
607,2	3350,724
607,7	3317,324
608,1	3289,352
608,6	3268,924
609	3246,324
609,4	3224,181
609,9	3202,352
610,3	3179,638
610,8	3162,01
611,2	3137,381
611,7	3112,952
612,1	3092,095
612,6	3067,981
613	3041,095
613,4	3017,638
613,9	2993,581
614,3	2974,352
614,8	2948,838
615,2	2923,352
615,7	2902,781
616,1	2882,21
616,6	2866,952
617	2846,695
617,4	2827,295
617,9	2814,924
618,3	2798,41
618,8	2778,01
619,2	2761,924
619,7	2738,438
620,1	2717,01
620,5	2692,638
621	2669,981
621,4	2650,695
621,9	2628,867
622,3	2609,438
622,8	2591,81
623,2	2576,21
623,6	2562,524
624,1	2549,895
624,5	2531,552
625	2513,924
625,4	2496,981
625,9	2479,638
626,3	2465,867
626,8	2450,638
627,2	2418,667
627,6	2403,81
628,1	2385,267
628,5	2362,295
629	2343,181
629,4	2317,667
629,9	2294,667
630,3	2281,867
630,7	2262,181
631,2	2246,638
631,6	2227,324
632,1	2210,724
632,5	2198,352
633	2185,638
633,4	2171,381
633,8	2153,324
634,3	2134,752
634,7	2121,352
635,2	2106,067
635,6	2086,924
636,1	2069,61
636,5	2058,695
636,9	2042,41
637,4	2034,895
637,8	2020,638
638,3	2009,41
638,7	1994,667
639,2	1983,952
639,6	1968,352
640	1956,324
640,5	1940,267
640,9	1926,095
641,4	1913,495
641,8	1900,552
642,2	1888,381
642,7	1881,895
643,1	1867,524
643,6	1857,981
644	1853,952
644,5	1842,124
644,9	1828,952
645,3	1816,01
645,8	1795,667
646,2	1785,41
646,7	1765,467
647,1	1748,867
647,6	1733,01
648	1725,238
648,4	1715,981
648,9	1707,667
649,3	1695,695
649,8	1687,838
650,2	1677,524
650,6	1664,638
651,1	1651,552
651,5	1636,352
652	1627,495
652,4	1615,867
652,9	1604,552
653,3	1590,467
653,7	1581,295
654,2	1571,295
654,6	1560,467
655,1	1546,981
655,5	1540,352
655,9	1534,838
656,4	1526,038
656,8	1518,838
657,3	1512,667
657,7	1502,552
658,2	1492,638
658,6	1478,981
659	1467,667
659,5	1459,495
659,9	1444,781
660,4	1434,152
660,8	1424,01
661,2	1411,867
661,7	1405,581
662,1	1398,152
662,6	1388,952
663	1381,181
663,4	1372,981
663,9	1365,552
664,3	1352,524
664,8	1334,038
665,2	1325,867
665,6	1314,21
666,1	1302,352
666,5	1289,238
667	1274,295
667,4	1268,495
667,9	1267,324
668,3	1252,895
668,7	1243,152
669,2	1236,981
669,6	1228,467
670,1	1223,667
670,5	1218,724
670,9	1201,924
671,4	1191,752
671,8	1184,952
672,3	1174,695
672,7	1167,638
673,1	1159,952
673,6	1151,867
674	1147,324
674,5	1142,295
674,9	1130,61
675,3	1127,238
675,8	1117,267
676,2	1107,467
676,7	1098,238
677,1	1093,267
677,5	1087,781
678	1086,267
678,4	1078,01
678,9	1070,038
679,3	1062,267
679,7	1052,124
680,2	1044,267
680,6	1028,867
681,1	1017,895
681,5	1008,895
681,9	1000,324
682,4	994,495
682,8	988,81
683,3	982,524
683,7	982,524
684,1	972,238
684,6	966,724
685	959,267
685,5	945,352
685,9	939,667
686,3	934,238
686,8	925,867
687,2	921,324
687,7	912,267
688,1	906,724
688,5	905,552
689	900,895
689,4	892,61
689,9	884,324
690,3	873,067
690,7	867,81
691,2	862,41
691,6	858,81
692	849,981
692,5	841,067
692,9	840,381
693,4	840,552
693,8	838,381
694,2	831,067
694,7	821,638
695,1	822,495
695,6	823,752
696	813,21
696,4	808,81
696,9	797,095
697,3	797,552
697,8	795,981
698,2	783,81
698,6	775,267
699,1	773,095
699,5	765,752
699,9	761,867
700,4	753,695
700,8	744,467
701,3	743,152
701,7	734,552
702,1	727,095
702,6	720,038
703	714,838
703,5	708,495
703,9	710,438
704,3	698,638
704,8	694,895
705,2	689,895
705,6	689,238
706,1	679,895
706,5	675,41
707	670,438
707,4	669,781
707,8	664,752
708,3	660,838
708,7	653,038
709,2	651,695
709,6	645,381
710	637,41
710,5	631,352
710,9	631,01
711,3	626,781
711,8	621,924
712,2	619,838
712,7	617,61
713,1	608,41
713,5	607,267
714	602,638
714,4	592,267
714,8	590,667
715,3	585,238
715,7	580,038
716,2	583,324
716,6	573,752
717	569,324
717,5	573,038
717,9	569,381
718,3	567,61
718,8	562,21
719,2	555,838
719,7	553,638
720,1	547,638
720,5	542,781
721	538,438
721,4	531,895
721,8	530,895
722,3	526,181
722,7	523,381
723,2	523,838
723,6	519,838
724	514,724
724,5	508,867
724,9	502,781
725,3	498,095
725,8	492,067
726,2	483,267
726,7	479,152
727,1	475,152
727,5	471,752
728	467,295
728,4	465,21
728,8	463,752
729,3	462,867
729,7	458,752
730,1	455,867
730,6	458,552
731	455,752
731,5	457,267
731,9	457,981
732,3	455,695
732,8	452,867
733,2	453,352
733,6	449,295
734,1	445,924
734,5	441,438
734,9	431,838
735,4	427,61
735,8	421,981
736,3	414,495
736,7	410,21
737,1	409,324
737,6	400,438
738	403,324
738,4	404,924
738,9	404,524
739,3	408,895
739,7	409,152
740,2	407,238
740,6	407,467
741,1	400,61
741,5	394,981
741,9	394,181
742,4	393,095
742,8	387,324
743,2	385,61
743,7	383,952
744,1	386,838
744,5	383,01
745	376,838
745,4	372,41
745,8	372,295
746,3	370,038
746,7	369,41
747,2	363,095
747,6	360,724
748	365,695
748,5	360,067
748,9	355,524
749,3	357,838
749,8	352,81
750,2	354,01
750,6	349,981
751,1	345,895
751,5	345,267
751,9	342,524
752,4	339,867
752,8	341,438
753,3	334,581
753,7	334,838
754,1	330,324
754,6	326,61
755	327,21
755,4	323,352
755,9	319,21
756,3	322,181
756,7	320,952
757,2	316,067
757,6	311,724
758	305,981
758,5	298,324
758,9	296,495
759,3	291,238
759,8	289,552
760,2	289,867
760,6	295,352
761,1	299,467
761,5	304,01
761,9	299,952
762,4	303,438
762,8	304,695
763,3	302,752
763,7	295,924
764,1	290,067
764,6	285,724
765	286,61
765,4	283,095
765,9	281,638
766,3	281,238
766,7	280,381
767,2	278,41
767,6	277,895
768	271,724
768,5	265,838
768,9	259,01
769,3	260,467
769,8	255,895
770,2	253,21
770,6	252,781
771,1	252,41
771,5	254,324
771,9	254,01
772,4	249,781
772,8	251,552
773,2	253,495
773,7	247,695
774,1	251,238
774,5	247,524
775	246,61
775,4	242,61
775,8	242,924
776,3	239,152
776,7	241,352
777,1	238,838
777,6	234,21
778	233,552
778,4	232,695
778,9	225,438
779,3	225,524
779,7	218,467
780,2	214,895
780,6	219,552
781	218,095
781,5	217,524
781,9	222,352
782,3	220,467
782,8	223,781
783,2	223,667
783,6	221,324
784,1	219,552
784,5	216,41
784,9	211,81
785,4	208,581
785,8	207,981
786,2	203,667
786,7	204,01
787,1	204,038
787,5	204,295
788	204,152
788,4	207,524
788,8	205,124
789,3	207,752
789,7	204,324
790,1	204,095
790,6	200,581
791	195,895
791,4	192,181
791,9	188,524
792,3	188,638
792,7	188,067
793,2	186,01
793,6	186,124
794	188,21
794,5	186,895
794,9	190,295
795,3	187,324
795,8	188,295
796,2	184,667
796,6	185,238
797,1	186,41
797,5	183,724
797,9	182,61
798,4	179,352
798,8	174,781
799,2	172,524
799,7	171,752
800,1	168,752
800,5	172,581
801	170,295
801,4	171,752
801,8	172,067
802,2	173,324
802,7	170,438
803,1	169,524
803,5	166,495
804	162,267
804,4	158,352
804,8	158,581
805,3	155,81
805,7	154,238
806,1	149,667
806,6	148,952
807	151,267
807,4	154,352
807,9	151,81
808,3	155,324
808,7	155,895
809,2	159,038
809,6	160,895
810	159,124
810,4	157,381
810,9	158,067
811,3	155,181
811,7	148,438
812,2	142,095
812,6	138,21
813	138,152
813,5	135,952
813,9	131,61
814,3	128,667
814,8	133,324
815,2	135,981
815,6	132,867
816,1	132,21
816,5	131,352
816,9	130,981
817,3	130,581
817,8	131,181
818,2	128,981
818,6	131,895
819,1	131,352
819,5	130,81
819,9	129,438
820,4	132,61
820,8	132,552
821,2	130,752
821,7	127,438
822,1	125,152
822,5	125,924
822,9	126,724
823,4	120,01
823,8	121,152
824,2	124,667
824,7	119,524
825,1	115,438
825,5	112,095
826	105,952
826,4	104,581
826,8	97,552
827,3	96,524
827,7	100,152
828,1	103,381
828,5	105,152
829	112,895
829,4	114,495
829,8	119,067
830,3	117,41
830,7	112,524
831,1	109,067
831,6	106,924
832	101,438
832,4	103,038
832,8	97,581
833,3	96,41
833,7	97,667
834,1	102,352
834,6	104,267
835	104,724
835,4	100,295
835,8	100,467
836,3	99,924
836,7	99,21
837,1	96,324
837,6	90,838
838	87,467
838,4	89,181
838,9	87,524
839,3	85,295
839,7	84,552
840,1	88,352
840,6	89,267
841	91,524
841,4	88,181
841,9	91,152
842,3	91,038
842,7	89,952
843,1	84,067
843,6	78,981
844	78,238
844,4	79,41
844,9	75,981
845,3	75,781
845,7	75,267
846,2	74,581
846,6	79,724
847	78,895
847,4	79,381
847,9	81,552
848,3	78,724
848,7	80,324
849,2	79,524
849,6	76,61
850	75,752
850,4	73,695
850,9	72,581
851,3	78,324
851,7	76,324
852,2	76,552
852,6	79,038
853	82,838
853,4	84,238
853,9	80,838
854,3	80,152
854,7	82,581
855,2	84,867
855,6	78,552
856	79,381
856,4	70,41
856,9	73,267
857,3	67,41
857,7	68,438
858,2	65,952
858,6	68,438
859	63,895
859,4	73,495
859,9	68,895
860,3	71,638
860,7	67,152
861,1	66,41
861,6	68,038
862	68,724
862,4	60,238
862,9	65,867
863,3	61,838
863,7	66,438
864,1	65,21
864,6	67,524
865	62,981
865,4	67,438
865,9	63,952
866,3	66,038
866,7	57,095
867,1	54,41
867,6	53,495
868	49,781
868,4	50,752
868,8	51,067
869,3	54,838
869,7	62,095
870,1	64,924
870,6	61,695
871	69,838
871,4	69,352
871,8	66,524
872,3	62,552
872,7	55,524
873,1	49,752
873,5	45,838
874	44,267
874,4	46,381
874,8	45,781
875,3	42,438
875,7	45,41
876,1	50,181
876,5	55,381
877	55,381
877,4	52,495
877,8	51,924
878,2	55,667
878,7	58,752
879,1	58,581
879,5	57,667
879,9	53,324
880,4	49,924
880,8	53,41
881,2	48,981
881,7	45,667
882,1	45,924
882,5	44,924
882,9	47,867
883,4	47,21
883,8	42,752
884,2	43,781
884,6	40,21
885,1	36,181
885,5	32,381
885,9	31,781
886,3	33,638
886,8	41,067
887,2	38,41
887,6	44,181
888	46,81
888,5	51,381
888,9	45,552
889,3	48,238
889,8	43,924
890,2	44,152
890,6	43,038
891	40,695
891,5	37,695
891,9	40,724
892,3	40,41
892,7	34,381
893,2	39,61
893,6	34,695
894	36,524
894,4	33,895
894,9	32,61
895,3	30,867
895,7	32,438
896,1	27,81
896,6	28,638
897	29,067
897,4	30,61
897,8	36,01
898,3	37,438
898,7	41,838
899,1	44,981
899,5	45,524
900	43,067
900,4	41,724
900,8	35,267
901,2	30,067
901,7	32,267
902,1	29,324
902,5	30,181
902,9	26,924
903,4	30,124
903,8	30,524
904,2	32,638
904,6	27,524
905,1	29,267
905,5	29,81
905,9	29,524
906,3	27,467
906,8	28,438
907,2	28,152
907,6	30,181
908	27,181
908,5	20,581
908,9	26,381
909,3	27,581
909,7	29,895
910,2	28,524
910,6	28,61
911	31,952
911,4	39,067
911,9	37,981
912,3	39,467
912,7	39,152
913,1	37,867
913,6	37,638
914	38,324
914,4	36,01
914,8	34,524
915,3	31,295
915,7	33,581
916,1	32,81
916,5	32,01
916,9	28,752
917,4	27,552
917,8	25,895
918,2	31,752
918,6	25,381
919,1	29,638
919,5	30,238
919,9	32,152
920,3	34,895
920,8	39,038
921,2	32,524
921,6	34,381
922	30,381
922,5	31,495
922,9	32,381
923,3	34,61
923,7	31,61
924,2	33,752
924,6	32,438
925	38,838
925,4	36,324
925,8	34,981
926,3	30,81
926,7	33,181
927,1	34,867
927,5	40,552
928	37,581
928,4	35,267
928,8	36,952
929,2	39,181
929,7	40,61
930,1	38,781
930,5	33,267
930,9	32,21
931,3	34,095
931,8	30,81
932,2	26,752
932,6	23,038
933	16,324
933,5	22,61
933,9	22,895
934,3	22,695
934,7	24,924
935,2	25,381
935,6	23,838
936	25,324
936,4	20,467
936,8	20,295
937,3	26,752
937,7	27,181
938,1	30,438
938,5	33,038
939	36,095
939,4	36,152
939,8	34,81
940,2	28,324
940,6	25,638
941,1	21,638
941,5	21,124
941,9	21,781
942,3	19,524
942,8	17,895
943,2	11,21
943,6	12,781
944	12,381
944,4	7,981
944,9	5,01
945,3	7,81
945,7	13,438
946,1	18,781
946,6	15,152
947	16,381
947,4	16,495
947,8	23,267
948,2	26,61
948,7	20,895
949,1	24,752
949,5	26,067
949,9	24,524
950,3	25,267
950,8	21,838
951,2	13,41
951,6	15,21
952	11,667
952,5	10,695
952,9	13,01
953,3	14,152
953,7	12,238
954,1	15,695
954,6	16,238
955	18,067
955,4	19,095
955,8	24,352
956,2	24,552
956,7	24,752
957,1	27,324
957,5	25,152
957,9	22,781
958,3	25,495
958,8	18,238
959,2	20,124
959,6	28,895
960	26,21
960,5	28,01
960,9	30,352
961,3	29,238
961,7	31,667
962,1	30,381
962,6	24,781
963	30,124
963,4	33,381
963,8	27,41
964,2	21,752
964,7	20,181
965,1	21,181
965,5	19,181
965,9	15,01
966,3	12,952
966,8	17,61
967,2	21,152
967,6	19,467
968	18,295
968,4	22,552
968,9	23,095
969,3	23,61
969,7	18,667
970,1	18,924
970,5	21,781
971	24,152
971,4	20,067
971,8	18,467
972,2	15,152
972,6	18,81
973,1	16,267
973,5	16,295
973,9	10,467
974,3	11,067
974,7	11,124
975,2	10,981
975,6	12,838
976	17,095
976,4	13,981
976,8	19,381
977,3	19,752
977,7	18,41
978,1	23,152
978,5	23,238
978,9	25,152
979,4	26,552
979,8	23,867
980,2	22,352
980,6	25,152
981	20,095
981,5	20,438
981,9	17,267
982,3	18,981
982,7	18,124
983,1	15,438
983,6	13,81
984	17,41
984,4	15,581
984,8	14,438
985,2	14,381
985,6	15,924
986,1	14,867
986,5	17,067
986,9	18,01
987,3	16,61
987,7	16,438
988,2	14,924
988,6	13,867
989	20,352
989,4	17,01
989,8	13,295
990,3	13,295
990,7	15,238
991,1	14,124
991,5	12,095
991,9	6,667
992,3	3,981
992,8	0,924
993,2	1,867
993,6	-1,762
994	2,667
994,4	8,838
994,9	8,381
995,3	13,124
995,7	18,067
996,1	21,095
996,5	19,981
996,9	22,695
997,4	18,238
997,8	20,581
998,2	23,238
998,6	22,067
999	19,038
999,5	25,752
999,9	22,695
1000,3	22,038
1000,7	25,981
1001,1	22,352
1001,5	24,552
1002	24,781
1002,4	19,924
1002,8	21,438
1003,2	20,695
1003,6	16,695
1004	18,524
1004,5	15,752
1004,9	15,952
1005,3	19,781
1005,7	19,067
1006,1	21,41
1006,6	21,41
1007	15,181
1007,4	13,152
1007,8	17,867
1008,2	22,752
1008,6	19,552
1009,1	16,638
1009,5	19,181
1009,9	23,267
1010,3	25,638
1010,7	23,01
1011,1	17,524
1011,6	12,838
1012	16,267
1012,4	12,01
1012,8	11,581
1013,2	8,524
1013,6	9,067
1014,1	4,438
1014,5	12,067
1014,9	11,981
1015,3	12,581
1015,7	12,752
1016,1	15,552
1016,6	13,81
1017	16,324
1017,4	10,41
1017,8	7,924
1018,2	6,267
1018,6	7,752
1019,1	9,581
1019,5	8,467
1019,9	10,352
1020,3	13,867
1020,7	15,181
1021,1	15,21
1021,6	15,81
1022	14,238
1022,4	12,867
1022,8	10,124
1023,2	6,038
1023,6	7,038
1024,1	14,381
1024,5	12,838
1024,9	17,095
1025,3	21,61
1025,7	24,181
1026,1	27,267
1026,6	28,724
1027	22,41
1027,4	24,981
1027,8	20,41
1028,2	17,638
1028,6	14,895
1029	13,038
1029,5	10,695
1029,9	17,838
1030,3	12,467
1030,7	15,095
1031,1	17,724
1031,5	19,41
1032	23,495
1032,4	29,152
1032,8	21,381
1033,2	21,867
1033,6	18,21
1034	13,895
1034,4	13,61
1034,9	15,267
1035,3	10,61
1035,7	8,352
1036,1	13,638
1036,5	15,895
1036,9	15,638
1037,4	19,81
1037,8	14,01
1038,2	15,952
1038,6	21,552
1039	19,524
1039,4	22,295
1039,8	31,467
1040,3	31,067
1040,7	35,295
1041,1	28,324
1041,5	34,952
1041,9	34,895
1042,3	26,552
1042,7	17,381
1043,2	15,695
1043,6	17,724
1044	26,038
1044,4	22,067
1044,8	22,41
1045,2	26,781
1045,6	32,752
1046,1	33,21
1046,5	29,867
1046,9	29,895
1047,3	30,038
1047,7	27,724
1048,1	28,438
1048,5	24,981
1049	21,352
1049,4	19,895
1049,8	22,838
1050,2	19,267
1050,6	19,41
1051	23,667
1051,4	22,638
1051,9	25,095
1052,3	27,01
1052,7	19,781
1053,1	17,724
1053,5	18,867
1053,9	15,581
1054,3	14,21
1054,8	15,724
1055,2	14,352
1055,6	20,838
1056	24,524
1056,4	24,924
1056,8	23,438
1057,2	22,41
1057,6	22,552
1058,1	26,01
1058,5	15,895
1058,9	11,867
1059,3	9,067
1059,7	10,067
1060,1	13,124
1060,5	11,838
1061	7,781
1061,4	12,438
1061,8	17,352
1062,2	20,667
1062,6	20,81
1063	22,295
1063,4	23,467
1063,8	25,295
1064,3	30,981
1064,7	28,667
1065,1	29,095
1065,5	30,124
1065,9	32,724
1066,3	28,181
1066,7	32,238
1067,1	26,467
1067,6	27,952
1068	31,21
1068,4	27,952
1068,8	28,838
1069,2	35,438
1069,6	33,381
1070	35,867
1070,4	32,638
1070,9	28,181
1071,3	32,41
1071,7	25,838
1072,1	20,552
1072,5	20,752
1072,9	20,324
1073,3	21,667
1073,7	18,924
1074,2	17,895
1074,6	18,124
1075	22,238
1075,4	20,267
1075,8	13,038
1076,2	13,724
1076,6	14,638
1077	15,124
1077,5	18,295
1077,9	11,781
1078,3	8,495
1078,7	12,152
1079,1	12,524
1079,5	15,238
1079,9	15,352
1080,3	11,924
1080,7	15,352
1081,2	16,324
1081,6	17,238
1082	19,381
1082,4	13,81
1082,8	13,467
1083,2	13,21
1083,6	10,867
1084	12,467
1084,5	14,495
1084,9	10,152
1085,3	13,124
1085,7	10,867
1086,1	12,267
1086,5	8,81
1086,9	7,21
1087,3	7,324
1087,7	13,295
1088,2	16,867
1088,6	21,267
1089	24,895
1089,4	32,152
1089,8	31,381
1090,2	26,038
1090,6	20,181
1091	15,295
1091,4	13,952
1091,9	12,295
1092,3	14,267
1092,7	15,981
1093,1	22,581
1093,5	22,924
1093,9	22,981
1094,3	17,41
1094,7	14,238
1095,1	11,667
1095,5	13,238
1096	12,781
1096,4	14,41
1096,8	18,238
1097,2	20,552
1097,6	22,924
1098	21,352
1098,4	23,267
1098,8	20,21
1099,2	20,41
1099,6	19,952
1100,1	21,724
1100,5	18,981
1100,9	17,781
1101,3	14,667
1101,7	13,038
1102,1	12,524
1102,5	12,238
1102,9	9,981
1103,3	12,181
1103,7	14,895
1104,2	14,695
1104,6	18,924
1105	17,581
1105,4	19,61
1105,8	18,895
1106,2	16,038
1106,6	13,038
1107	10,61
1107,4	7,167
1107,8	7,227
1108,3	0,817
