Data from Subt2_00069.txt Node
Date: Mon Aug 28 13:27:31 MSK 2023
User: vat
Spectrometer: MAYP114033
Trigger mode: 0
Integration Time (sec): 1,000000E0
Scans to average: 5
Electric dark correction enabled: true
Nonlinearity correction enabled: false
Boxcar width: 3
XAxis mode: Wavelengths
Number of Pixels in Spectrum: 2068
>>>>>Begin Spectral Data<<<<<
199,4	-0,167
199,9	-1,747
200,4	-0,667
200,8	2,619
201,3	4,019
201,8	5,448
202,2	3,162
202,7	4,133
203,2	8,419
203,6	8,362
204,1	5,305
204,6	6,305
205	6,876
205,5	9,248
206	10,076
206,4	4,819
206,9	5,362
207,4	5,133
207,8	4,133
208,3	3,219
208,8	2,076
209,2	1,676
209,7	3,333
210,2	4,876
210,6	4,99
211,1	8,19
211,5	7,419
212	10,733
212,5	8,362
212,9	7,505
213,4	7,619
213,9	7,019
214,3	5,105
214,8	6,476
215,3	6,733
215,7	7,419
216,2	8,19
216,7	8,419
217,1	5,533
217,6	6,99
218,1	8,39
218,5	4,19
219	5,133
219,5	6,305
219,9	0,79
220,4	8,905
220,9	5,476
221,3	6,048
221,8	9,819
222,3	13,933
222,7	19,59
223,2	19,276
223,6	13,333
224,1	15,39
224,6	15,39
225	12,962
225,5	8,533
226	2,676
226,4	10,133
226,9	11,19
227,4	13,076
227,8	7,933
228,3	8,362
228,8	10,448
229,2	11,705
229,7	9,705
230,2	12,733
230,6	11,419
231,1	14,248
231,5	17,962
232	16,733
232,5	13,333
232,9	16,105
233,4	13,562
233,9	14,133
234,3	16,276
234,8	12,705
235,3	13,59
235,7	13,619
236,2	9,39
236,7	6,905
237,1	7,019
237,6	3,79
238,1	5,048
238,5	6,648
239	10,448
239,4	12,533
239,9	16,162
240,4	12,619
240,8	14,819
241,3	12,505
241,8	8,562
242,2	4,762
242,7	3,476
243,2	5,362
243,6	8,79
244,1	7,133
244,6	2,448
245	3,048
245,5	5,876
245,9	7,19
246,4	4,848
246,9	2,362
247,3	0,905
247,8	4,162
248,3	4,99
248,7	7,562
249,2	3,162
249,7	5,133
250,1	4,762
250,6	7,819
251	8,533
251,5	6,076
252	-0,41
252,4	3,105
252,9	4,99
253,4	6,448
253,8	2,219
254,3	3,619
254,8	7,219
255,2	7,676
255,7	7,019
256,1	2,762
256,6	-1,352
257,1	4,076
257,5	1,448
258	-2,067
258,5	2,39
258,9	-3,267
259,4	-4,667
259,9	-3,867
260,3	-8,324
260,8	-7,552
261,2	-1,095
261,7	-0,981
262,2	1,676
262,6	5,333
263,1	3,105
263,6	0,419
264	6,333
264,5	1,648
264,9	0,59
265,4	1,619
265,9	-1,781
266,3	-0,067
266,8	3,648
267,3	1,333
267,7	-1,238
268,2	-1,067
268,7	2,305
269,1	0,733
269,6	5,048
270	2,305
270,5	5,533
271	5,676
271,4	1,133
271,9	-2,21
272,4	-0,552
272,8	-2,352
273,3	-0,152
273,7	-3,324
274,2	1,962
274,7	6,933
275,1	8,848
275,6	14,705
276,1	14,019
276,5	14,305
277	12,533
277,4	8,048
277,9	4,105
278,4	1,79
278,8	-2,952
279,3	-1,667
279,8	2,076
280,2	3,019
280,7	4,562
281,1	3,533
281,6	1,505
282,1	1,59
282,5	3,99
283	-0,638
283,4	2,219
283,9	1,619
284,4	5,962
284,8	8,476
285,3	6,933
285,8	3,99
286,2	3,99
286,7	-1,124
287,1	-1,495
287,6	-2,752
288,1	-0,524
288,5	3,933
289	4,419
289,5	7,648
289,9	9,162
290,4	10,59
290,8	11,819
291,3	13,419
291,8	10,648
292,2	10,905
292,7	8,305
293,1	9,59
293,6	5,876
294,1	3,905
294,5	0,962
295	-0,295
295,5	-0,124
295,9	3,59
296,4	2,448
296,8	8,676
297,3	13,219
297,8	15,59
298,2	16,848
298,7	17,905
299,1	16,962
299,6	18,276
300,1	16,19
300,5	14,562
301	9,076
301,5	9,705
301,9	5,133
302,4	1,248
302,8	3,333
303,3	6,076
303,8	5,333
304,2	9,848
304,7	7,133
305,1	6,248
305,6	8,99
306,1	3,362
306,5	-6,581
307	-7,124
307,4	-8,781
307,9	-7,581
308,4	-5,467
308,8	-5,324
309,3	-2,21
309,8	4,419
310,2	2,019
310,7	2,59
311,1	2,362
311,6	1,733
312,1	-0,981
312,5	0,362
313	-1,781
313,4	-0,667
313,9	-2,124
314,4	-6,295
314,8	-2,152
315,3	3,105
315,7	2,362
316,2	3,419
316,7	2,733
317,1	5,362
317,6	9,59
318	8,733
318,5	6,448
319	8,905
319,4	9,79
319,9	8,219
320,3	6,105
320,8	4,962
321,3	-1,467
321,7	-1,324
322,2	-8,181
322,6	-4,924
323,1	-1,838
323,6	-1,238
324	0,648
324,5	3,819
324,9	5,705
325,4	8,619
325,9	4,762
326,3	3,876
326,8	4,819
327,2	-0,667
327,7	1,59
328,2	0,733
328,6	3,762
329,1	-1,438
329,5	-2,724
330	-3,41
330,5	6,305
330,9	4,333
331,4	1,676
331,8	-3,324
332,3	3,619
332,8	5,19
333,2	5,79
333,7	-3,781
334,1	-8,067
334,6	-7,524
335,1	-2,467
335,5	-4,581
336	-0,695
336,4	-1,495
336,9	5,048
337,4	7,105
337,8	7,819
338,3	8,705
338,7	11,362
339,2	6,476
339,7	5,305
340,1	3,19
340,6	6,533
341	3,419
341,5	2,333
342	0,162
342,4	-4,467
342,9	-0,752
343,3	0,762
343,8	5,648
344,2	10,162
344,7	8,419
345,2	8,848
345,6	14,219
346,1	9,819
346,5	9,676
347	1,705
347,5	0,048
347,9	-0,495
348,4	0,705
348,8	5,819
349,3	1,962
349,8	1,19
350,2	2,19
350,7	1,99
351,1	1,19
351,6	-0,067
352	-3,067
352,5	10,276
353	18,648
353,4	26,248
353,9	35,276
354,3	49,162
354,8	56,248
355,3	68,848
355,7	81,076
356,2	95,219
356,6	113,276
357,1	134,648
357,5	157,476
358	193,59
358,5	224,933
358,9	258,705
359,4	296,705
359,8	343,733
360,3	394,133
360,8	450,676
361,2	511,648
361,7	586,248
362,1	663,962
362,6	751,248
363	845,962
363,5	939,619
364	1040,562
364,4	1141,99
364,9	1241,362
365,3	1339,219
365,8	1441,219
366,3	1523,276
366,7	1599,419
367,2	1664,248
367,6	1723,448
368,1	1761,105
368,5	1791,676
369	1793,705
369,5	1797,79
369,9	1787,676
370,4	1759,99
370,8	1715,19
371,3	1666,133
371,7	1603,305
372,2	1541,476
372,7	1463,448
373,1	1387,019
373,6	1305,648
374	1224,248
374,5	1146,819
374,9	1069,848
375,4	987,276
375,9	918,648
376,3	844,933
376,8	779,048
377,2	717,619
377,7	659,133
378,2	607,476
378,6	561,476
379,1	509,848
379,5	470,048
380	432,19
380,4	399,276
380,9	366,876
381,4	333,848
381,8	307,762
382,3	287,048
382,7	266,305
383,2	244,505
383,6	227,819
384,1	210,305
384,6	199,305
385	189,248
385,5	178,019
385,9	165,248
386,4	160,19
386,8	144,562
387,3	138,333
387,7	127,076
388,2	114,933
388,7	103,905
389,1	98,876
389,6	90,105
390	86,876
390,5	81,305
390,9	74,762
391,4	68,248
391,9	64,19
392,3	62,933
392,8	56,562
393,2	59,705
393,7	59,819
394,1	57,39
394,6	58,848
395,1	62,333
395,5	57,505
396	61,448
396,4	51,562
396,9	49,105
397,3	52,59
397,8	45,99
398,2	38,79
398,7	34,933
399,2	30,019
399,6	30,619
400,1	24,962
400,5	22,048
401	26,962
401,4	22,762
401,9	23,39
402,4	20,933
402,8	26,248
403,3	30,619
403,7	24,733
404,2	22,248
404,6	28,019
405,1	28,705
405,5	32,933
406	34,105
406,5	29,505
406,9	40,676
407,4	41,59
407,8	42,905
408,3	43,019
408,7	42,933
409,2	39,476
409,6	42,533
410,1	39,99
410,6	37,933
411	39,248
411,5	41,876
411,9	41,248
412,4	43,419
412,8	40,448
413,3	38,962
413,7	42,733
414,2	44,619
414,7	42,248
415,1	48,505
415,6	50,105
416	57,476
416,5	66,133
416,9	72,362
417,4	76,705
417,8	84,39
418,3	85,533
418,8	88,248
419,2	89,162
419,7	86,476
420,1	85,162
420,6	84,676
421	92,79
421,5	94,848
421,9	94,99
422,4	99,476
422,8	104,848
423,3	108,076
423,8	107,533
424,2	101,505
424,7	105,648
425,1	103,248
425,6	99,019
426	97,476
426,5	100,162
426,9	98,676
427,4	103,019
427,9	101,619
428,3	104,733
428,8	110,705
429,2	111,133
429,7	112,619
430,1	117,533
430,6	112,762
431	111,533
431,5	118,248
431,9	119,505
432,4	118,162
432,8	118,819
433,3	122,276
433,8	129,905
434,2	132,505
434,7	133,333
435,1	138,762
435,6	143,133
436	148,533
436,5	156,19
436,9	161,448
437,4	169,762
437,8	173,876
438,3	179,39
438,8	189,99
439,2	194,362
439,7	200,676
440,1	204,105
440,6	214,276
441	224,219
441,5	232,019
441,9	239,048
442,4	255,705
442,8	266,048
443,3	280,276
443,7	288,762
444,2	299,848
444,7	315,333
445,1	332,762
445,6	340,733
446	357,533
446,5	373,819
446,9	397,419
447,4	417,076
447,8	435,505
448,3	452,848
448,7	469,533
449,2	482,39
449,6	499,648
450,1	509,362
450,6	530,105
451	548,248
451,5	568,619
451,9	594,619
452,4	620,19
452,8	641,219
453,3	666,733
453,7	688,476
454,2	710,905
454,6	733,362
455,1	758,933
455,5	786,533
456	816,819
456,4	844,733
456,9	872,448
457,3	899,476
457,8	929,819
458,3	955,476
458,7	985,762
459,2	1015,019
459,6	1049,276
460,1	1082,162
460,5	1114,562
461	1147,248
461,4	1184,619
461,9	1217,562
462,3	1252,905
462,8	1285,933
463,2	1318,79
463,7	1357,448
464,1	1395,505
464,6	1431,248
465	1466,905
465,5	1501,99
466	1545,076
466,4	1584,448
466,9	1621,505
467,3	1658,562
467,8	1700,105
468,2	1743,162
468,7	1785,762
469,1	1819,39
469,6	1856,99
470	1902,305
470,5	1943,848
470,9	1982,162
471,4	2024,019
471,8	2065,819
472,3	2107,133
472,7	2155,79
473,2	2191,39
473,6	2230,933
474,1	2268,79
474,5	2306,819
475	2344,19
475,4	2388,19
475,9	2424,762
476,4	2467,476
476,8	2510,876
477,3	2553,59
477,7	2595,162
478,2	2634,105
478,6	2666,59
479,1	2712,848
479,5	2751,562
480	2788,59
480,4	2826,419
480,9	2857,562
481,3	2896,448
481,8	2934,933
482,2	2963,762
482,7	3002,562
483,1	3035,105
483,6	3063,419
484	3097,962
484,5	3129,619
484,9	3162,305
485,4	3192,105
485,8	3216,048
486,3	3247,248
486,7	3284,305
487,2	3314,619
487,6	3338,848
488,1	3367,048
488,5	3391,648
489	3418,219
489,4	3447,019
489,9	3468,562
490,4	3488,105
490,8	3518,276
491,3	3538,105
491,7	3558,705
492,2	3578,162
492,6	3590,619
493,1	3606,048
493,5	3626,933
494	3648,476
494,4	3669,59
494,9	3687,676
495,3	3701,276
495,8	3715,076
496,2	3735,39
496,7	3759,39
497,1	3762,505
497,6	3776,048
498	3788,99
498,5	3810,39
498,9	3829,59
499,4	3843,79
499,8	3853,219
500,3	3869,419
500,7	3879,048
501,2	3894,676
501,6	3907,59
502,1	3919,59
502,5	3926,705
503	3934,362
503,4	3945,876
503,9	3957,248
504,3	3964,733
504,8	3968,39
505,2	3979,105
505,7	3990,905
506,1	3988,905
506,6	3993,133
507	4006,933
507,5	4014,533
507,9	4027,362
508,4	4031,876
508,8	4036,333
509,3	4054,848
509,7	4063,39
510,2	4069,848
510,6	4084,19
511,1	4090,533
511,5	4097,562
512	4102,276
512,4	4107,133
512,9	4115,648
513,3	4113,733
513,8	4116,99
514,2	4119,962
514,7	4125,476
515,1	4136,105
515,6	4143,848
516	4145,333
516,5	4150,305
516,9	4149,19
517,4	4154,59
517,8	4161,448
518,3	4164,419
518,7	4165,019
519,2	4177,819
519,6	4184,762
520,1	4196,876
520,5	4203,305
521	4200,39
521,4	4205,905
521,9	4206,819
522,3	4211,648
522,8	4211,162
523,2	4210,19
523,7	4209,019
524,1	4218,79
524,6	4226,19
525	4237,076
525,5	4239,048
525,9	4249,933
526,4	4254,762
526,8	4268,705
527,3	4277,848
527,7	4285,219
528,2	4297,905
528,6	4314,733
529,1	4325,762
529,5	4345,476
530	4354,048
530,4	4364,133
530,9	4370,133
531,3	4378,048
531,8	4385,333
532,2	4393,248
532,6	4397,562
533,1	4394,39
533,5	4393,876
534	4401,533
534,4	4406,362
534,9	4406,99
535,3	4417,962
535,8	4429,305
536,2	4449,39
536,7	4464,562
537,1	4471,105
537,6	4479,133
538	4497,333
538,5	4511,819
538,9	4516,448
539,4	4526,848
539,8	4537,819
540,3	4555,99
540,7	4564,619
541,2	4570,79
541,6	4574,762
542,1	4583,962
542,5	4589,133
543	4594,505
543,4	4600,505
543,9	4610,162
544,3	4625,962
544,8	4636,419
545,2	4647,733
545,7	4663,876
546,1	4685,076
546,5	4696,105
547	4707,848
547,4	4712,705
547,9	4716,876
548,3	4722,276
548,8	4727,419
549,2	4733,162
549,7	4742,162
550,1	4747,905
550,6	4754,333
551	4763,59
551,5	4773,648
551,9	4781,333
552,4	4785,019
552,8	4793,876
553,3	4801,705
553,7	4810,219
554,2	4830,305
554,6	4843,219
555,1	4853,962
555,5	4862,076
555,9	4866,39
556,4	4878,39
556,8	4889,076
557,3	4886,905
557,7	4892,962
558,2	4902,962
558,6	4909,276
559,1	4918,362
559,5	4930,219
560	4935,105
560,4	4948,133
560,9	4952,19
561,3	4955,79
561,8	4968,648
562,2	4976,019
562,7	4978,533
563,1	4981,762
563,6	4982,048
564	4990,162
564,4	4998,819
564,9	4998,276
565,3	5003,219
565,8	5011,533
566,2	5016,619
566,7	5024,19
567,1	5028,362
567,6	5027,39
568	5036,39
568,5	5039,305
568,9	5041,819
569,4	5041,819
569,8	5034,533
570,3	5034,962
570,7	5037,333
571,1	5036,676
571,6	5042,962
572	5036,133
572,5	5034,533
572,9	5041,99
573,4	5040,305
573,8	5046,705
574,3	5046,219
574,7	5038,133
575,2	5038,076
575,6	5048,676
576,1	5052,048
576,5	5055,419
576,9	5045,133
577,4	5043,305
577,8	5046,933
578,3	5046,848
578,7	5033,705
579,2	5025,162
579,6	5023,105
580,1	5020,962
580,5	5018,619
581	5005,248
581,4	5005,419
581,9	5001,562
582,3	4995,105
582,7	4987,419
583,2	4982,076
583,6	4967,076
584,1	4965,048
584,5	4954,19
585	4946,505
585,4	4940,933
585,9	4933,533
586,3	4923,676
586,8	4920,39
587,2	4913,648
587,6	4911,562
588,1	4905,048
588,5	4899,99
589	4885,876
589,4	4877,562
589,9	4867,248
590,3	4859,076
590,8	4839,276
591,2	4832,848
591,7	4817,676
592,1	4817,79
592,5	4817,162
593	4815,79
593,4	4811,39
593,9	4808,533
594,3	4807,99
594,8	4806,819
595,2	4793,133
595,7	4783,79
596,1	4769,133
596,6	4760,562
597	4753,476
597,4	4738,762
597,9	4723,133
598,3	4714,619
598,8	4701,019
599,2	4700,305
599,7	4685,876
600,1	4675,876
600,6	4666,076
601	4666,019
601,4	4663,59
601,9	4661,19
602,3	4646,505
602,8	4636,448
603,2	4621,99
603,7	4608,276
604,1	4588,305
604,6	4573,762
605	4563,505
605,4	4552,448
605,9	4538,933
606,3	4530,305
606,8	4523,219
607,2	4522,648
607,7	4506,276
608,1	4488,79
608,6	4480,79
609	4467,79
609,4	4454,676
609,9	4435,048
610,3	4408,362
610,8	4402,333
611,2	4385,762
611,7	4365,419
612,1	4351,076
612,6	4332,133
613	4315,448
613,4	4308,305
613,9	4288,076
614,3	4270,219
614,8	4252,733
615,2	4238,905
615,7	4228,762
616,1	4217,762
616,6	4202,105
617	4180,105
617,4	4166,962
617,9	4153,19
618,3	4137,448
618,8	4126,619
619,2	4110,105
619,7	4093,048
620,1	4083,333
620,5	4064,962
621	4042,99
621,4	4029,048
621,9	4007,733
622,3	3988,048
622,8	3972,962
623,2	3952,533
623,6	3935,162
624,1	3920,219
624,5	3899,39
625	3884,962
625,4	3865,048
625,9	3843,819
626,3	3822,676
626,8	3804,99
627,2	3788,99
627,6	3770,676
628,1	3744,676
628,5	3729,448
629	3714,19
629,4	3703,162
629,9	3690,362
630,3	3673,248
630,7	3656,79
631,2	3641,876
631,6	3625,705
632,1	3598,99
632,5	3574,39
633	3549,933
633,4	3530,933
633,8	3507,362
634,3	3490,362
634,7	3473,819
635,2	3455,19
635,6	3441,819
636,1	3426,733
636,5	3405,762
636,9	3397,705
637,4	3379,99
637,8	3363,676
638,3	3348,105
638,7	3325,076
639,2	3305,676
639,6	3291,619
640	3264,59
640,5	3244,876
640,9	3218,448
641,4	3209,333
641,8	3203,819
642,2	3189,333
642,7	3168,848
643,1	3157,705
643,6	3147,762
644	3140,333
644,5	3121,019
644,9	3099,59
645,3	3086,648
645,8	3071,848
646,2	3054,533
646,7	3032,533
647,1	3013,276
647,6	2996,333
648	2981,533
648,4	2962,105
648,9	2946,648
649,3	2936,762
649,8	2924,219
650,2	2912,676
650,6	2901,676
651,1	2884,133
651,5	2861,619
652	2849,79
652,4	2824,59
652,9	2806,333
653,3	2791,962
653,7	2775,19
654,2	2760,848
654,6	2754,333
655,1	2736,476
655,5	2726,933
655,9	2716,962
656,4	2703,162
656,8	2686,819
657,3	2669,648
657,7	2649,933
658,2	2636,19
658,6	2624,219
659	2602,476
659,5	2585,419
659,9	2566,562
660,4	2551,79
660,8	2540,276
661,2	2521,933
661,7	2506,562
662,1	2496,59
662,6	2479,39
663	2466,562
663,4	2456,048
663,9	2438,419
664,3	2428,162
664,8	2407,705
665,2	2388,162
665,6	2369,505
666,1	2353,99
666,5	2332,733
667	2318,848
667,4	2301,962
667,9	2294,99
668,3	2280,733
668,7	2265,019
669,2	2248,733
669,6	2235,19
670,1	2218,505
670,5	2204,876
670,9	2182,448
671,4	2167,648
671,8	2155,276
672,3	2140,105
672,7	2128,448
673,1	2118,819
673,6	2099,905
674	2090,362
674,5	2079,076
674,9	2067,733
675,3	2055,79
675,8	2041,419
676,2	2026,99
676,7	2017,219
677,1	2001,419
677,5	1981,819
678	1967,933
678,4	1959,133
678,9	1946,39
679,3	1934,333
679,7	1922,333
680,2	1910,705
680,6	1903,505
681,1	1891,419
681,5	1875,762
681,9	1857,533
682,4	1839,305
682,8	1827,762
683,3	1813,362
683,7	1805,533
684,1	1790,933
684,6	1777,59
685	1769,848
685,5	1764,733
685,9	1749,876
686,3	1740,19
686,8	1724,362
687,2	1712,733
687,7	1696,562
688,1	1684,733
688,5	1672,962
689	1664,905
689,4	1652,676
689,9	1643,333
690,3	1639,762
690,7	1631,99
691,2	1620,076
691,6	1610,59
692	1597,19
692,5	1588,848
692,9	1575,276
693,4	1556,162
693,8	1553,39
694,2	1544,019
694,7	1527,133
695,1	1525,333
695,6	1515,876
696	1504,305
696,4	1497,733
696,9	1482,619
697,3	1476,448
697,8	1472,019
698,2	1455,99
698,6	1444,248
699,1	1437,619
699,5	1425,848
699,9	1420,276
700,4	1411,333
700,8	1401,676
701,3	1394,562
701,7	1383,59
702,1	1372,305
702,6	1365,876
703	1354,333
703,5	1345,962
703,9	1331,19
704,3	1319,533
704,8	1311,448
705,2	1302,876
705,6	1292,933
706,1	1283,99
706,5	1273,305
707	1265,59
707,4	1259,333
707,8	1247,019
708,3	1237,99
708,7	1227,733
709,2	1220,276
709,6	1209,59
710	1200,648
710,5	1192,39
710,9	1191,39
711,3	1181,476
711,8	1171,39
712,2	1163,248
712,7	1153,933
713,1	1144,248
713,5	1132,848
714	1119,362
714,4	1117,248
714,8	1111,476
715,3	1102,476
715,7	1097,619
716,2	1095,476
716,6	1087,533
717	1078,39
717,5	1065,019
717,9	1056,905
718,3	1044,905
718,8	1037,676
719,2	1025,248
719,7	1017,248
720,1	1012,248
720,5	1007,648
721	995,476
721,4	992,676
721,8	984,876
722,3	985,619
722,7	978,905
723,2	967,59
723,6	958,562
724	953,305
724,5	942,448
724,9	934,562
725,3	920,448
725,8	911,79
726,2	906,933
726,7	903,905
727,1	898,048
727,5	892,562
728	884,019
728,4	877,533
728,8	869,733
729,3	861,133
729,7	851,419
730,1	844,505
730,6	840,419
731	834,39
731,5	825,99
731,9	829,076
732,3	831,19
732,8	828,448
733,2	823,362
733,6	818,333
734,1	811,476
734,5	814,333
734,9	801,676
735,4	793,99
735,8	789,619
736,3	787,59
736,7	780,448
737,1	780,362
737,6	772,362
738	770,105
738,4	765,162
738,9	755,819
739,3	753,248
739,7	744,276
740,2	740,476
740,6	735,076
741,1	727,505
741,5	720,133
741,9	717,276
742,4	708,162
742,8	706,99
743,2	701,39
743,7	693,705
744,1	694,105
744,5	698,276
745	689,99
745,4	685,962
745,8	684,419
746,3	679,476
746,7	678,019
747,2	671,276
747,6	656,133
748	656,819
748,5	652,819
748,9	642,648
749,3	629,876
749,8	625,905
750,2	619,219
750,6	619,248
751,1	614,848
751,5	615,305
751,9	614,133
752,4	615,105
752,8	613,476
753,3	614,248
753,7	603,648
754,1	596,505
754,6	592,19
755	589,905
755,4	590,305
755,9	581,676
756,3	579,448
756,7	585,162
757,2	582,533
757,6	574,019
758	569,048
758,5	562,905
758,9	559,762
759,3	547,248
759,8	539,248
760,2	531,133
760,6	527,619
761,1	522,019
761,5	517,305
761,9	513,733
762,4	510,162
762,8	503,19
763,3	504,362
763,7	496,533
764,1	495,79
764,6	491,162
765	486,105
765,4	489,219
765,9	490,848
766,3	485,533
766,7	485,333
767,2	480,876
767,6	477,648
768	477,99
768,5	471,419
768,9	468,219
769,3	464,019
769,8	462,448
770,2	459,705
770,6	457,962
771,1	450,79
771,5	447,648
771,9	447,533
772,4	447,562
772,8	443,705
773,2	437,905
773,7	430,248
774,1	428,305
774,5	421,676
775	413,048
775,4	408,133
775,8	408,305
776,3	408,59
776,7	410,505
777,1	409,99
777,6	408,419
778	405,962
778,4	402,933
778,9	396,648
779,3	390,476
779,7	384,562
780,2	382,819
780,6	377,39
781	372,876
781,5	373,562
781,9	373,048
782,3	373,819
782,8	378,19
783,2	368,962
783,6	374,562
784,1	371,476
784,5	368,59
784,9	366,248
785,4	360,562
785,8	353,39
786,2	352,533
786,7	347,876
787,1	346,248
787,5	339,162
788	335,933
788,4	334,59
788,8	328,076
789,3	326,59
789,7	321,362
790,1	318,505
790,6	317,562
791	316,533
791,4	316,076
791,9	316,59
792,3	319,276
792,7	314,99
793,2	313,619
793,6	310,933
794	304,505
794,5	302,305
794,9	303,362
795,3	297,933
795,8	297,048
796,2	297,762
796,6	299,905
797,1	295,648
797,5	295,419
797,9	291,59
798,4	286,848
798,8	286,39
799,2	281,048
799,7	275,733
800,1	278,419
800,5	268,076
801	266,333
801,4	268,733
801,8	267,419
802,2	268,705
802,7	270,333
803,1	266,733
803,5	271,39
804	266,705
804,4	260,533
804,8	255,219
805,3	257,162
805,7	253,476
806,1	250,676
806,6	241,819
807	244,048
807,4	246,362
807,9	246,79
808,3	238,076
808,7	234,19
809,2	233,133
809,6	239,676
810	233,362
810,4	225,619
810,9	222,048
811,3	222,79
811,7	222,533
812,2	221,819
812,6	210,219
813	210,933
813,5	209,476
813,9	209,562
814,3	205,333
814,8	204,076
815,2	202,019
815,6	203,362
816,1	199,219
816,5	203,876
816,9	201,076
817,3	200,248
817,8	198,105
818,2	198,562
818,6	199,048
819,1	199,219
819,5	194,562
819,9	194,619
820,4	192,762
820,8	188,619
821,2	183,79
821,7	186,59
822,1	183,448
822,5	181,076
822,9	178,733
823,4	180,076
823,8	176,476
824,2	178,276
824,7	172,476
825,1	168,162
825,5	167,133
826	167,105
826,4	159,648
826,8	158,962
827,3	156,933
827,7	158,219
828,1	159,533
828,5	155,448
829	155,505
829,4	154,533
829,8	157,819
830,3	154,39
830,7	150,219
831,1	154,133
831,6	157,762
832	153,562
832,4	158,362
832,8	153,676
833,3	155,048
833,7	148,562
834,1	142,819
834,6	139,362
835	139,876
835,4	132,333
835,8	135,105
836,3	133,533
836,7	138,99
837,1	139,276
837,6	137,762
838	136,419
838,4	139,819
838,9	134,619
839,3	135,19
839,7	138,562
840,1	129,162
840,6	131,105
841	130,019
841,4	129,819
841,9	129,219
842,3	125,362
842,7	119,019
843,1	128,333
843,6	126,59
844	126,476
844,4	120,448
844,9	118,305
845,3	117,019
845,7	113,133
846,2	110,505
846,6	107,105
847	103,476
847,4	101,876
847,9	100,276
848,3	103,019
848,7	102,905
849,2	99,733
849,6	98,99
850	100,019
850,4	101,133
850,9	102,133
851,3	99,105
851,7	98,705
852,2	98,762
852,6	95,905
853	94,419
853,4	94,619
853,9	92,105
854,3	93,162
854,7	94,876
855,2	97,305
855,6	98,105
856	96,876
856,4	99,476
856,9	102,533
857,3	95,59
857,7	96,305
858,2	87,99
858,6	84,39
859	82,39
859,4	83,019
859,9	82,19
860,3	80,876
860,7	80,048
861,1	85,533
861,6	94,219
862	92,619
862,4	83,505
862,9	84,133
863,3	84,076
863,7	86,105
864,1	84,362
864,6	77,619
865	79,933
865,4	81,876
865,9	76,933
866,3	79,305
866,7	76,79
867,1	71,733
867,6	72,362
868	75,705
868,4	75,048
868,8	77,048
869,3	76,248
869,7	74,133
870,1	75,59
870,6	70,048
871	59,99
871,4	57,619
871,8	56,562
872,3	54,733
872,7	55,219
873,1	59,533
873,5	62,59
874	62,276
874,4	63,39
874,8	66,876
875,3	68,59
875,7	62,533
876,1	56,533
876,5	54,562
877	56,876
877,4	56,79
877,8	52,476
878,2	48,048
878,7	52,19
879,1	49,99
879,5	44,676
879,9	47,562
880,4	48,705
880,8	47,219
881,2	49,048
881,7	45,533
882,1	50,162
882,5	59,019
882,9	57,333
883,4	56,362
883,8	56,933
884,2	53,133
884,6	58,705
885,1	58,505
885,5	57,19
885,9	57,79
886,3	58,99
886,8	55,648
887,2	57,39
887,6	52,648
888	51,333
888,5	49,762
888,9	47,162
889,3	44,105
889,8	49,59
890,2	48,362
890,6	47,876
891	44,533
891,5	45,505
891,9	46,333
892,3	48,848
892,7	48,79
893,2	50,39
893,6	50,905
894	52,905
894,4	48,419
894,9	44,733
895,3	40,99
895,7	34,162
896,1	33,619
896,6	36,848
897	31,933
897,4	33,333
897,8	35,505
898,3	38,848
898,7	35,819
899,1	38,562
899,5	32,79
900	36,076
900,4	36,876
900,8	39,676
901,2	35,705
901,7	38,79
902,1	38,819
902,5	37,105
902,9	32,79
903,4	34,048
903,8	30,562
904,2	31,219
904,6	31,962
905,1	30,333
905,5	31,933
905,9	36,19
906,3	33,676
906,8	32,533
907,2	32,39
907,6	34,333
908	32,248
908,5	34,733
908,9	35,99
909,3	34,305
909,7	36,676
910,2	40,648
910,6	38,39
911	33,076
911,4	30,248
911,9	27,933
912,3	24,048
912,7	18,762
913,1	12,648
913,6	8,59
914	14,819
914,4	11,276
914,8	11,79
915,3	15,39
915,7	22,476
916,1	24,876
916,5	32,733
916,9	26,162
917,4	28,219
917,8	24,619
918,2	28,39
918,6	25,333
919,1	22,99
919,5	17,648
919,9	21,933
920,3	24,105
920,8	28,99
921,2	22,876
921,6	22,019
922	24,248
922,5	26,333
922,9	27,705
923,3	25,133
923,7	25,333
924,2	29,305
924,6	30,333
925	32,933
925,4	31,019
925,8	30,133
926,3	32,619
926,7	29,848
927,1	31,076
927,5	31,876
928	26,848
928,4	27,362
928,8	22,619
929,2	21,276
929,7	23,333
930,1	20,962
930,5	19,39
930,9	19,533
931,3	21,19
931,8	25,048
932,2	26,733
932,6	22,39
933	20,19
933,5	21,733
933,9	21,276
934,3	20,39
934,7	16,333
935,2	13,362
935,6	16,762
936	14,619
936,4	12,133
936,8	15,619
937,3	12,219
937,7	16,276
938,1	12,248
938,5	8,276
939	15,39
939,4	13,362
939,8	10,276
940,2	12,019
940,6	7,419
941,1	13,019
941,5	12,705
941,9	7,619
942,3	12,076
942,8	16,048
943,2	17,133
943,6	26,419
944	24,762
944,4	29,362
944,9	27,59
945,3	21,648
945,7	17,648
946,1	17,448
946,6	12,076
947	14,248
947,4	9,105
947,8	12,19
948,2	12,619
948,7	8,162
949,1	11,219
949,5	10,19
949,9	8,562
950,3	9,048
950,8	12,476
951,2	14,99
951,6	17,819
952	11,848
952,5	13,219
952,9	13,448
953,3	17,648
953,7	11,762
954,1	14,562
954,6	17,876
955	22,619
955,4	26,562
955,8	25,819
956,2	25,333
956,7	28,59
957,1	23,505
957,5	20,419
957,9	15,419
958,3	8,962
958,8	9,305
959,2	6,476
959,6	2,219
960	4,733
960,5	4,248
960,9	8,19
961,3	5,848
961,7	1,762
962,1	3,248
962,6	7,219
963	6,248
963,4	7,133
963,8	5,362
964,2	11,133
964,7	14,676
965,1	10,476
965,5	10,305
965,9	7,933
966,3	5,048
966,8	2,619
967,2	-2,267
967,6	-0,867
968	-0,381
968,4	1,076
968,9	1,905
969,3	4,448
969,7	8,362
970,1	8,848
970,5	7,933
971	8,79
971,4	6,048
971,8	4,705
972,2	6,333
972,6	3,39
973,1	4,419
973,5	1,562
973,9	-0,01
974,3	1,876
974,7	5,219
975,2	8,048
975,6	8,476
976	10,476
976,4	11,133
976,8	11,933
977,3	9,019
977,7	6,419
978,1	6,19
978,5	7,99
978,9	2,619
979,4	3,79
979,8	3,99
980,2	3,076
980,6	1,333
981	-4,324
981,5	-5,524
981,9	-1,41
982,3	-1,21
982,7	-1,581
983,1	-2,067
983,6	3,133
984	2,619
984,4	6,133
984,8	7,676
985,2	9,676
985,6	13,305
986,1	13,476
986,5	10,448
986,9	14,162
987,3	9,99
987,7	8,248
988,2	7,39
988,6	6,39
989	6,162
989,4	9,705
989,8	6,248
990,3	7,305
990,7	7,905
991,1	9,648
991,5	10,448
991,9	10,362
992,3	6,476
992,8	6,848
993,2	7,819
993,6	8,562
994	5,333
994,4	6,133
994,9	6,562
995,3	10,962
995,7	11,733
996,1	8,333
996,5	5,133
996,9	0,962
997,4	-5,124
997,8	-1,095
998,2	-4,81
998,6	-3,867
999	-4,238
999,5	-1,438
999,9	4,048
1000,3	9,219
1000,7	6,876
1001,1	3,933
1001,5	5,305
1002	7,59
1002,4	6,562
1002,8	5,819
1003,2	6,219
1003,6	4,99
1004	8,048
1004,5	5,562
1004,9	6,362
1005,3	1,79
1005,7	-0,324
1006,1	1,448
1006,6	0,533
1007	0,59
1007,4	-0,495
1007,8	2,562
1008,2	12,333
1008,6	14,248
1009,1	13,59
1009,5	15,962
1009,9	17,876
1010,3	19,79
1010,7	16,048
1011,1	12,733
1011,6	13,762
1012	10,476
1012,4	14,79
1012,8	13,562
1013,2	14,133
1013,6	15,905
1014,1	15,333
1014,5	13,533
1014,9	11,962
1015,3	6,105
1015,7	7,705
1016,1	2,276
1016,6	-4,695
1017	-1,61
1017,4	-0,352
1017,8	-1,695
1018,2	0,648
1018,6	1,476
1019,1	6,362
1019,5	10,562
1019,9	8,248
1020,3	5,248
1020,7	10,505
1021,1	8,533
1021,6	4,762
1022	7,933
1022,4	13,733
1022,8	13,39
1023,2	14,076
1023,6	8,648
1024,1	9,905
1024,5	8,79
1024,9	6,419
1025,3	1,848
1025,7	1,362
1026,1	6,305
1026,6	11,219
1027	10,533
1027,4	17,419
1027,8	11,59
1028,2	6,819
1028,6	7,248
1029	4,848
1029,5	5,305
1029,9	4,819
1030,3	2,876
1030,7	7,733
1031,1	12,876
1031,5	16,59
1032	17,105
1032,4	16,019
1032,8	16,99
1033,2	15,105
1033,6	17,019
1034	17,79
1034,4	15,048
1034,9	17,762
1035,3	16,419
1035,7	13,619
1036,1	12,276
1036,5	11,648
1036,9	12,362
1037,4	11,419
1037,8	10,79
1038,2	10,476
1038,6	12,905
1039	17,305
1039,4	16,505
1039,8	9,533
1040,3	9,762
1040,7	7,476
1041,1	2,676
1041,5	2,762
1041,9	-3,724
1042,3	-6,81
1042,7	-4,295
1043,2	-4,124
1043,6	-2,067
1044	4,419
1044,4	4,219
1044,8	4,933
1045,2	12,105
1045,6	14,476
1046,1	15,448
1046,5	9,676
1046,9	11,962
1047,3	9,876
1047,7	12,219
1048,1	9,362
1048,5	5,362
1049	10,305
1049,4	9,762
1049,8	5,99
1050,2	7,162
1050,6	5,59
1051	-3,41
1051,4	-1,924
1051,9	-10,552
1052,3	-10,467
1052,7	-13,638
1053,1	-10,752
1053,5	-10,467
1053,9	-3,067
1054,3	-5,41
1054,8	-2,638
1055,2	-4,067
1055,6	3,619
1056	1,276
1056,4	1,133
1056,8	2,105
1057,2	4,876
1057,6	6,076
1058,1	12,99
1058,5	9,048
1058,9	9,676
1059,3	13,19
1059,7	11,333
1060,1	14,733
1060,5	12,933
1061	5,619
1061,4	9,905
1061,8	13,819
1062,2	8,248
1062,6	15,79
1063	14,648
1063,4	9,876
1063,8	11,476
1064,3	6,876
1064,7	5,562
1065,1	8,876
1065,5	4,562
1065,9	7,819
1066,3	10,362
1066,7	12,762
1067,1	11,962
1067,6	9,248
1068	6,848
1068,4	-0,638
1068,8	-6,895
1069,2	-5,667
1069,6	-8,438
1070	-9,324
1070,4	-9,524
1070,9	-9,152
1071,3	-1,895
1071,7	1,876
1072,1	-1,124
1072,5	2,705
1072,9	3,562
1073,3	7,733
1073,7	12,619
1074,2	9,305
1074,6	5,276
1075	6,476
1075,4	8,562
1075,8	11,962
1076,2	12,848
1076,6	13,419
1077	13,676
1077,5	15,105
1077,9	12,533
1078,3	6,905
1078,7	0,505
1079,1	-5,152
1079,5	-11,781
1079,9	-12,552
1080,3	-10,61
1080,7	-1,695
1081,2	5,048
1081,6	10,505
1082	12,648
1082,4	14,59
1082,8	15,505
1083,2	15,562
1083,6	10,819
1084	3,99
1084,5	6,39
1084,9	1,733
1085,3	1,419
1085,7	3,619
1086,1	4,333
1086,5	0,076
1086,9	0,962
1087,3	-3,867
1087,7	-2,495
1088,2	0,448
1088,6	-2,724
1089	-5,695
1089,4	-2,81
1089,8	-1,438
1090,2	-1,667
1090,6	1,019
1091	2,248
1091,4	4,762
1091,9	4,59
1092,3	4,819
1092,7	2,705
1093,1	3,933
1093,5	1,048
1093,9	-1,981
1094,3	-0,524
1094,7	0,99
1095,1	3,219
1095,5	4,133
1096	5,533
1096,4	5,876
1096,8	5,448
1097,2	1,905
1097,6	1,105
1098	0,476
1098,4	2,705
1098,8	2,505
1099,2	0,19
1099,6	1,362
1100,1	4,962
1100,5	5,505
1100,9	7,99
1101,3	8,362
1101,7	5,562
1102,1	10,19
1102,5	5,962
1102,9	-0,352
1103,3	-0,752
1103,7	-4,238
1104,2	-4,524
1104,6	2,619
1105	5,076
1105,4	8,933
1105,8	11,905
1106,2	11,59
1106,6	11,419
1107	10,59
1107,4	5,867
1107,8	2,013
1108,3	-0,067
