Data from Subt2_00090.txt Node
Date: Mon Aug 28 13:33:51 MSK 2023
User: vat
Spectrometer: MAYP114033
Trigger mode: 0
Integration Time (sec): 1,000000E0
Scans to average: 5
Electric dark correction enabled: true
Nonlinearity correction enabled: false
Boxcar width: 3
XAxis mode: Wavelengths
Number of Pixels in Spectrum: 2068
>>>>>Begin Spectral Data<<<<<
199,4	-1,617
199,9	-5,067
200,4	-3,133
200,8	-1,61
201,3	-2,667
201,8	1,448
202,2	1,505
202,7	3,619
203,2	10,162
203,6	11,476
204,1	9,305
204,6	11,676
205	8,619
205,5	9,219
206	9,048
206,4	3,219
206,9	2,333
207,4	4,076
207,8	1,59
208,3	2,076
208,8	-0,524
209,2	2,762
209,7	5,648
210,2	1,562
210,6	2,59
211,1	8,99
211,5	7,848
212	11,019
212,5	7,162
212,9	6,876
213,4	14,19
213,9	12,476
214,3	11,676
214,8	10,905
215,3	14,076
215,7	14,533
216,2	16,848
216,7	18,105
217,1	13,819
217,6	12,905
218,1	16,533
218,5	14,762
219	14,505
219,5	14,59
219,9	8,676
220,4	20,362
220,9	17,59
221,3	17,248
221,8	14,933
222,3	17,648
222,7	22,048
223,2	22,848
223,6	13,105
224,1	16,648
224,6	17,076
225	15,99
225,5	11,705
226	3,248
226,4	7,505
226,9	11,305
227,4	15,39
227,8	13,276
228,3	13,448
228,8	13,076
229,2	18,59
229,7	17,448
230,2	19,362
230,6	9,448
231,1	10,533
231,5	15,648
232	21,219
232,5	14,705
232,9	15,019
233,4	13,619
233,9	17,076
234,3	19,876
234,8	18,276
235,3	13,333
235,7	19,676
236,2	16,162
236,7	11,876
237,1	15,133
237,6	12,133
238,1	9,819
238,5	12,905
239	8,79
239,4	8,733
239,9	11,533
240,4	5,505
240,8	6,448
241,3	6,876
241,8	5,59
242,2	3,419
242,7	2,333
243,2	9,105
243,6	13,876
244,1	9,762
244,6	9,248
245	10,162
245,5	14,19
245,9	19,305
246,4	13,305
246,9	11,79
247,3	13,105
247,8	12,419
248,3	15,476
248,7	17,162
249,2	13,619
249,7	15,962
250,1	13,705
250,6	12,676
251	12,933
251,5	8,305
252	7,962
252,4	8,79
252,9	7,676
253,4	12,648
253,8	16,676
254,3	17,562
254,8	19,305
255,2	16,733
255,7	14,39
256,1	11,048
256,6	4,876
257,1	5,19
257,5	5,019
258	0,076
258,5	1,962
258,9	0,676
259,4	2,905
259,9	1,019
260,3	-4,724
260,8	-7,181
261,2	-0,095
261,7	2,276
262,2	3,876
262,6	5,333
263,1	7,562
263,6	8,676
264	12,619
264,5	11,305
264,9	7,448
265,4	8,79
265,9	5,905
266,3	8,362
266,8	10,333
267,3	11,105
267,7	8,676
268,2	8,448
268,7	9,79
269,1	7,305
269,6	8,133
270	3,505
270,5	7,476
271	7,79
271,4	5,705
271,9	1,162
272,4	7,819
272,8	9,39
273,3	14,99
273,7	9,933
274,2	8,848
274,7	12,276
275,1	15,99
275,6	17,99
276,1	16,248
276,5	17,99
277	14,305
277,4	16,019
277,9	11,733
278,4	11,39
278,8	6,248
279,3	8,733
279,8	8,533
280,2	14,505
280,7	14,39
281,1	12,819
281,6	9,648
282,1	11,962
282,5	9,505
283	7,133
283,4	7,048
283,9	5,505
284,4	9,59
284,8	10,848
285,3	9,676
285,8	7,905
286,2	9,505
286,7	3,648
287,1	4,162
287,6	5,762
288,1	5,533
288,5	4,819
289	3,419
289,5	1,79
289,9	3,133
290,4	0,476
290,8	-1,695
291,3	3,648
291,8	2,419
292,2	8,676
292,7	12,476
293,1	14,848
293,6	17,076
294,1	19,933
294,5	18,819
295	17,848
295,5	14,305
295,9	10,619
296,4	12,562
296,8	13,876
297,3	12,848
297,8	15,448
298,2	18,419
298,7	18,99
299,1	20,99
299,6	18,705
300,1	17,648
300,5	15,533
301	11,076
301,5	11,105
301,9	7,019
302,4	4,933
302,8	6,876
303,3	14,733
303,8	18,333
304,2	17,933
304,7	14,648
305,1	17,933
305,6	16,219
306,1	12,162
306,5	-2,267
307	-5,124
307,4	-9,381
307,9	-8,81
308,4	-9,438
308,8	-8,124
309,3	-2,038
309,8	7,162
310,2	4,133
310,7	4,676
311,1	7,133
311,6	5,562
312,1	2,048
312,5	-3,381
313	-5,895
313,4	2,876
313,9	6,276
314,4	1,105
314,8	7,133
315,3	16,105
315,7	20,248
316,2	19,562
316,7	15,733
317,1	15,305
317,6	21,962
318	20,533
318,5	14,648
319	10,905
319,4	11,933
319,9	7,048
320,3	7,876
320,8	4,105
321,3	-1,324
321,7	3,048
322,2	3,076
322,6	4,19
323,1	6,619
323,6	7,99
324	8,733
324,5	13,39
324,9	11,162
325,4	11,305
325,9	9,619
326,3	10,276
326,8	10,39
327,2	10,848
327,7	9,162
328,2	10,419
328,6	10,648
329,1	6,819
329,5	9,705
330	7,733
330,5	11,133
330,9	12,162
331,4	10,819
331,8	10,533
332,3	19,305
332,8	15,933
333,2	15,505
333,7	10,676
334,1	6,505
334,6	3,819
335,1	5,933
335,5	0,762
336	4,133
336,4	5,133
336,9	15,219
337,4	18,305
337,8	21,905
338,3	22,448
338,7	25,705
339,2	22,962
339,7	23,448
340,1	12,562
340,6	13,79
341	9,79
341,5	5,048
342	1,619
342,4	-2,552
342,9	-2,724
343,3	0,876
343,8	-0,81
344,2	3,762
344,7	4,39
345,2	7,562
345,6	12,276
346,1	14,305
346,5	13,048
347	11,59
347,5	12,419
347,9	10,905
348,4	7,733
348,8	8,333
349,3	3,19
349,8	6,048
350,2	7,848
350,7	6,419
351,1	14,762
351,6	16,105
352	16,905
352,5	26,505
353	28,362
353,4	34,733
353,9	47,533
354,3	58,105
354,8	64,362
355,3	79,733
355,7	96,448
356,2	113,533
356,6	134,762
357,1	152,162
357,5	167,705
358	205,39
358,5	233,59
358,9	266,019
359,4	307,762
359,8	349,362
360,3	393,505
360,8	452,305
361,2	510,99
361,7	585,59
362,1	659,362
362,6	741,448
363	834,048
363,5	935,676
364	1033,59
364,4	1133,562
364,9	1229,99
365,3	1333,848
365,8	1439,619
366,3	1529,819
366,7	1604,105
367,2	1680,076
367,6	1742,133
368,1	1785,476
368,5	1811,79
369	1820,133
369,5	1821,305
369,9	1805,533
370,4	1775,248
370,8	1731,905
371,3	1680,762
371,7	1617,419
372,2	1548,99
372,7	1473,219
373,1	1402,99
373,6	1320,162
374	1235,676
374,5	1158,076
374,9	1085,219
375,4	1007,248
375,9	934,848
376,3	861,562
376,8	793,848
377,2	736,419
377,7	676,276
378,2	619,048
378,6	570,305
379,1	518,305
379,5	476,848
380	439,276
380,4	402,648
380,9	372,219
381,4	345,248
381,8	314,99
382,3	295,133
382,7	274,79
383,2	253,248
383,6	237,448
384,1	221,933
384,6	207,848
385	198,048
385,5	182,819
385,9	170,962
386,4	169,648
386,8	157,533
387,3	145,39
387,7	134,533
388,2	122,562
388,7	115,19
389,1	104,876
389,6	94,476
390	90,505
390,5	88,248
390,9	82,105
391,4	78,39
391,9	74,705
392,3	74,19
392,8	68,448
393,2	65,19
393,7	62,876
394,1	62,076
394,6	59,819
395,1	62,848
395,5	60,333
396	62,762
396,4	59,162
396,9	57,648
397,3	56,59
397,8	50,705
398,2	46,762
398,7	43,705
399,2	37,848
399,6	39,219
400,1	36,819
400,5	33,533
401	39,219
401,4	34,733
401,9	34,133
402,4	37,476
402,8	36,076
403,3	36,933
403,7	36,962
404,2	37,19
404,6	39,59
405,1	47,533
405,5	44,933
406	45,305
406,5	45,59
406,9	49,248
407,4	43,79
407,8	42,533
408,3	39,248
408,7	39,362
409,2	38,619
409,6	39,762
410,1	39,39
410,6	43,705
411	45,533
411,5	41,99
411,9	42,648
412,4	51,162
412,8	50,048
413,3	51,248
413,7	52,19
414,2	55,676
414,7	58,419
415,1	65,962
415,6	59,305
416	64,733
416,5	73,648
416,9	82,533
417,4	86,048
417,8	94,848
418,3	91,19
418,8	94,819
419,2	97,019
419,7	93,933
420,1	85,505
420,6	87,59
421	87,819
421,5	91,905
421,9	92,39
422,4	94,248
422,8	95,362
423,3	100,99
423,8	101,59
424,2	102,705
424,7	106,333
425,1	109,276
425,6	105,533
426	104,476
426,5	107,019
426,9	107,705
427,4	109,305
427,9	109,59
428,3	111,448
428,8	113,962
429,2	116,876
429,7	119,648
430,1	122,19
430,6	113,505
431	113,219
431,5	116,676
431,9	123,048
432,4	123,619
432,8	126,876
433,3	127,39
433,8	141,362
434,2	147,076
434,7	144,762
435,1	149,019
435,6	153,419
436	154,933
436,5	163,933
436,9	167,133
437,4	170,476
437,8	178,533
438,3	184,19
438,8	192,105
439,2	200,733
439,7	205,99
440,1	212,105
440,6	221,19
441	233,133
441,5	239,248
441,9	246,476
442,4	253,448
442,8	262,876
443,3	275,562
443,7	283,962
444,2	296,276
444,7	309,905
445,1	327,019
445,6	342,248
446	354,162
446,5	366,133
446,9	386,962
447,4	403,419
447,8	420,905
448,3	435,276
448,7	454,133
449,2	475,162
449,6	495,99
450,1	510,876
450,6	528,362
451	546,39
451,5	572,619
451,9	592,362
452,4	612,476
452,8	633,905
453,3	656,905
453,7	679,705
454,2	702,048
454,6	721,076
455,1	748,362
455,5	774,048
456	802,619
456,4	831,019
456,9	865,162
457,3	897,562
457,8	927,076
458,3	956,762
458,7	993,505
459,2	1022,305
459,6	1052,333
460,1	1082,99
460,5	1110,619
461	1144,762
461,4	1175,648
461,9	1203,305
462,3	1241,276
462,8	1278,219
463,2	1309,162
463,7	1343,99
464,1	1375,019
464,6	1408,248
465	1441,533
465,5	1475,19
466	1513,419
466,4	1551,362
466,9	1589,733
467,3	1632,648
467,8	1677,419
468,2	1721,419
468,7	1768,219
469,1	1804,99
469,6	1836,248
470	1881,905
470,5	1919,476
470,9	1961,362
471,4	2004,619
471,8	2037,105
472,3	2071,648
472,7	2113,333
473,2	2148,162
473,6	2189,133
474,1	2227,048
474,5	2262,848
475	2306,19
475,4	2354,962
475,9	2398,333
476,4	2442,333
476,8	2481,362
477,3	2518,705
477,7	2562,219
478,2	2599,876
478,6	2637,133
479,1	2684,048
479,5	2721,933
480	2761,733
480,4	2801,819
480,9	2833,162
481,3	2865,562
481,8	2898,219
482,2	2928,105
482,7	2959,305
483,1	2986,819
483,6	3011,562
484	3048,276
484,5	3083,962
484,9	3115,105
485,4	3146,676
485,8	3176,362
486,3	3205,705
486,7	3238,39
487,2	3261,848
487,6	3283,705
488,1	3314,876
488,5	3336,133
489	3365,133
489,4	3394,619
489,9	3414,59
490,4	3437,248
490,8	3460,876
491,3	3478,362
491,7	3499,248
492,2	3520,219
492,6	3535,19
493,1	3561,59
493,5	3583,019
494	3603,505
494,4	3616,59
494,9	3634,505
495,3	3637,676
495,8	3654,619
496,2	3666,39
496,7	3680,962
497,1	3690,562
497,6	3713,962
498	3728,533
498,5	3750,79
498,9	3766,676
499,4	3781,59
499,8	3794,248
500,3	3815,59
500,7	3820,676
501,2	3832,419
501,6	3840,362
502,1	3858,99
502,5	3871,676
503	3878,876
503,4	3880,648
503,9	3896,105
504,3	3907,905
504,8	3919,362
505,2	3924,019
505,7	3925,448
506,1	3928,933
506,6	3935,619
507	3938,79
507,5	3943,448
507,9	3953,39
508,4	3958,562
508,8	3969,19
509,3	3985,876
509,7	3990,619
510,2	4000,448
510,6	4006,362
511,1	4009,419
511,5	4012,248
512	4011,419
512,4	4012,848
512,9	4024,476
513,3	4028,762
513,8	4035,219
514,2	4038,305
514,7	4047,962
515,1	4054,79
515,6	4058,619
516	4055,876
516,5	4058,619
516,9	4063,305
517,4	4074,276
517,8	4078,419
518,3	4088,962
518,7	4099,619
519,2	4115,448
519,6	4120,305
520,1	4125,476
520,5	4129,619
521	4131,019
521,4	4133,505
521,9	4130,99
522,3	4131,305
522,8	4135,333
523,2	4141,705
523,7	4151,562
524,1	4155,219
524,6	4156,448
525	4167,105
525,5	4177,848
525,9	4183,762
526,4	4189,962
526,8	4188,448
527,3	4200,533
527,7	4216,848
528,2	4228,79
528,6	4236,333
529,1	4251,505
529,5	4262,562
530	4280,762
530,4	4287,048
530,9	4288,905
531,3	4294,019
531,8	4292,848
532,2	4296,305
532,6	4300,99
533,1	4304,962
533,5	4311,962
534	4322,533
534,4	4325,676
534,9	4339,362
535,3	4356,876
535,8	4363,59
536,2	4366,905
536,7	4374,39
537,1	4391,305
537,6	4399,733
538	4413,448
538,5	4420,819
538,9	4431,533
539,4	4444,162
539,8	4453,248
540,3	4456,39
540,7	4467,59
541,2	4468,848
541,6	4467,676
542,1	4479,419
542,5	4493,133
543	4503,876
543,4	4512,362
543,9	4520,905
544,3	4539,505
544,8	4551,562
545,2	4556,99
545,7	4559,79
546,1	4567,248
546,5	4575,305
547	4586,933
547,4	4585,733
547,9	4593,248
548,3	4607,962
548,8	4612,562
549,2	4626,276
549,7	4641,276
550,1	4645,476
550,6	4660,048
551	4674,019
551,5	4673,762
551,9	4680,733
552,4	4681,905
552,8	4688,619
553,3	4694,19
553,7	4698,248
554,2	4705,648
554,6	4716,019
555,1	4727,162
555,5	4744,305
555,9	4744,762
556,4	4756,133
556,8	4768,219
557,3	4772,648
557,7	4783,219
558,2	4793,248
558,6	4791,848
559,1	4803,705
559,5	4813,762
560	4813,562
560,4	4816,79
560,9	4824,562
561,3	4828,19
561,8	4840,676
562,2	4847,676
562,7	4852,676
563,1	4869,876
563,6	4876,105
564	4878,99
564,4	4886,99
564,9	4893,305
565,3	4892,619
565,8	4897,733
566,2	4898,876
566,7	4905,59
567,1	4909,762
567,6	4917,905
568	4913,076
568,5	4918,505
568,9	4923,533
569,4	4912,219
569,8	4917,762
570,3	4917,048
570,7	4910,133
571,1	4916,762
571,6	4914,648
572	4909,476
572,5	4921,133
572,9	4910,019
573,4	4909,419
573,8	4914,076
574,3	4914,019
574,7	4917,705
575,2	4919,305
575,6	4919,59
576,1	4931,333
576,5	4931,99
576,9	4928,59
577,4	4924,39
577,8	4925,133
578,3	4921,105
578,7	4914,448
579,2	4902,076
579,6	4901,39
580,1	4902,733
580,5	4902,676
581	4897,733
581,4	4892,99
581,9	4881,848
582,3	4878,648
582,7	4863,162
583,2	4852,533
583,6	4837,562
584,1	4825,105
584,5	4819,933
585	4816,876
585,4	4798,448
585,9	4805,219
586,3	4790,362
586,8	4791,105
587,2	4784,933
587,6	4777,648
588,1	4775,248
588,5	4782,162
589	4768,305
589,4	4765,39
589,9	4756,99
590,3	4747,276
590,8	4742,276
591,2	4728,448
591,7	4716,019
592,1	4707,419
592,5	4704,962
593	4699,362
593,4	4686,762
593,9	4675,676
594,3	4674,476
594,8	4672,219
595,2	4660,476
595,7	4655,133
596,1	4641,019
596,6	4643,276
597	4639,676
597,4	4626,733
597,9	4616,99
598,3	4611,019
598,8	4593,019
599,2	4587,619
599,7	4574,105
600,1	4555,848
600,6	4552,848
601	4549,59
601,4	4548,448
601,9	4538,962
602,3	4523,476
602,8	4515,562
603,2	4509,19
603,7	4490,619
604,1	4475,419
604,6	4449,619
605	4451,99
605,4	4442,076
605,9	4432,248
606,3	4422,448
606,8	4412,305
607,2	4398,848
607,7	4393,533
608,1	4374,562
608,6	4364,105
609	4349,248
609,4	4334,876
609,9	4322,505
610,3	4300,333
610,8	4285,876
611,2	4269,59
611,7	4251,133
612,1	4230,476
612,6	4215,248
613	4201,162
613,4	4192,076
613,9	4175,705
614,3	4165,362
614,8	4152,162
615,2	4139,676
615,7	4127,476
616,1	4115,99
616,6	4101,933
617	4084,562
617,4	4062,962
617,9	4046,476
618,3	4033,362
618,8	4014,248
619,2	3999,476
619,7	3980,076
620,1	3967,848
620,5	3950,39
621	3932,962
621,4	3915,59
621,9	3897,962
622,3	3877,133
622,8	3865,762
623,2	3849,505
623,6	3834,819
624,1	3822,162
624,5	3798,333
625	3780,048
625,4	3763,162
625,9	3739,648
626,3	3723,762
626,8	3708,305
627,2	3689,933
627,6	3681,476
628,1	3660,419
628,5	3644,59
629	3626,476
629,4	3609,076
629,9	3594,819
630,3	3573,705
630,7	3552,762
631,2	3544,876
631,6	3527,59
632,1	3510,076
632,5	3491,733
633	3462,048
633,4	3444,848
633,8	3428,076
634,3	3406,505
634,7	3388,962
635,2	3373,933
635,6	3360,048
636,1	3345,476
636,5	3323,048
636,9	3309,019
637,4	3290,448
637,8	3274,305
638,3	3254,305
638,7	3230,705
639,2	3215,076
639,6	3207,248
640	3189,533
640,5	3173,133
640,9	3150,248
641,4	3134,276
641,8	3125,219
642,2	3108,79
642,7	3088,99
643,1	3070,99
643,6	3060,076
644	3049,562
644,5	3041,39
644,9	3016,619
645,3	3008,219
645,8	2994,076
646,2	2980,676
646,7	2959,019
647,1	2940,619
647,6	2924,933
648	2912,533
648,4	2890,276
648,9	2874,79
649,3	2858,762
649,8	2845,505
650,2	2831,876
650,6	2817,99
651,1	2805,076
651,5	2794,705
652	2782,59
652,4	2767,162
652,9	2757,676
653,3	2740,019
653,7	2722,933
654,2	2706,362
654,6	2686,59
655,1	2668,219
655,5	2653,533
655,9	2634,99
656,4	2623,39
656,8	2601,933
657,3	2584,676
657,7	2569,562
658,2	2563,676
658,6	2546,59
659	2529,619
659,5	2517,419
659,9	2505,762
660,4	2493,533
660,8	2482,076
661,2	2451,419
661,7	2443,419
662,1	2430,048
662,6	2412,705
663	2398,962
663,4	2379,505
663,9	2358,933
664,3	2356,048
664,8	2333,619
665,2	2322,676
665,6	2306,19
666,1	2293,79
666,5	2281,276
667	2274,562
667,4	2254,248
667,9	2250,019
668,3	2235,276
668,7	2215,59
669,2	2193,362
669,6	2181,39
670,1	2165,933
670,5	2153,105
670,9	2128,533
671,4	2110,733
671,8	2095,933
672,3	2088,59
672,7	2079,419
673,1	2059,505
673,6	2047,59
674	2036,448
674,5	2019,533
674,9	2013,79
675,3	1996,676
675,8	1978,362
676,2	1964,562
676,7	1948,162
677,1	1937,533
677,5	1926,333
678	1913,962
678,4	1905,79
678,9	1890,162
679,3	1888,362
679,7	1877,162
680,2	1865,362
680,6	1860,79
681,1	1845,648
681,5	1830,533
681,9	1820,562
682,4	1805,99
682,8	1799,933
683,3	1786,419
683,7	1766,419
684,1	1753,562
684,6	1743,505
685	1730,762
685,5	1719,619
685,9	1707,133
686,3	1695,676
686,8	1689,448
687,2	1679,733
687,7	1667,105
688,1	1660,705
688,5	1647,733
689	1636,762
689,4	1628,276
689,9	1623,048
690,3	1618,448
690,7	1610,99
691,2	1593,876
691,6	1588,79
692	1578,133
692,5	1563,905
692,9	1542,648
693,4	1521,305
693,8	1512,105
694,2	1506,933
694,7	1490,99
695,1	1482,419
695,6	1472,876
696	1464,905
696,4	1464,762
696,9	1453,962
697,3	1448,905
697,8	1440,19
698,2	1423,933
698,6	1415,533
699,1	1414,448
699,5	1395,762
699,9	1388,648
700,4	1371,676
700,8	1363,876
701,3	1362,133
701,7	1352,905
702,1	1334,048
702,6	1330,305
703	1315,59
703,5	1308,19
703,9	1292,648
704,3	1277,419
704,8	1268,39
705,2	1262,333
705,6	1255,362
706,1	1249,848
706,5	1246,79
707	1244,676
707,4	1240,305
707,8	1225,448
708,3	1221,705
708,7	1208,905
709,2	1202,905
709,6	1190,476
710	1179,448
710,5	1171,876
710,9	1173,105
711,3	1158,333
711,8	1154,162
712,2	1142,019
712,7	1135,848
713,1	1129,019
713,5	1116,048
714	1105,476
714,4	1100,276
714,8	1086,819
715,3	1079,648
715,7	1069,105
716,2	1062,648
716,6	1054,933
717	1047,505
717,5	1037,048
717,9	1035,39
718,3	1027,419
718,8	1021,476
719,2	1009,676
719,7	1005,762
720,1	995,305
720,5	990,733
721	980,476
721,4	971,276
721,8	963,419
722,3	956,79
722,7	950,419
723,2	944,562
723,6	933,619
724	925,076
724,5	918,676
724,9	911,39
725,3	901,533
725,8	892,019
726,2	882,105
726,7	879,876
727,1	875,562
727,5	866,59
728	857,162
728,4	854,162
728,8	845,619
729,3	841,819
729,7	836,733
730,1	831,648
730,6	826,248
731	825,19
731,5	821,448
731,9	825,848
732,3	828,619
732,8	822,648
733,2	819,79
733,6	821,162
734,1	816,305
734,5	813,648
734,9	802,39
735,4	792,19
735,8	786,219
736,3	781,105
736,7	773,962
737,1	771,933
737,6	764,762
738	764,619
738,4	760,819
738,9	758,276
739,3	753,676
739,7	747,533
740,2	742,019
740,6	735,105
741,1	720,933
741,5	713,562
741,9	708,933
742,4	701,99
742,8	701,476
743,2	695,762
743,7	690,819
744,1	693,019
744,5	693,819
745	685,305
745,4	680,648
745,8	676,19
746,3	673,076
746,7	673,162
747,2	665,648
747,6	660,676
748	659,733
748,5	655,933
748,9	647,59
749,3	636,133
749,8	632,962
750,2	628,59
750,6	621,619
751,1	618,619
751,5	615,448
751,9	615,162
752,4	611,619
752,8	604,819
753,3	598,962
753,7	585,59
754,1	574,733
754,6	573,048
755	564,105
755,4	567,076
755,9	562,562
756,3	560,905
756,7	568,419
757,2	565,848
757,6	556,019
758	553,276
758,5	548,248
758,9	541,476
759,3	536,019
759,8	527,133
760,2	525,105
760,6	526,219
761,1	521,619
761,5	517,762
761,9	519,133
762,4	517,762
762,8	516,162
763,3	511,962
763,7	504,219
764,1	504,048
764,6	498,99
765	490,762
765,4	487,162
765,9	486,876
766,3	484,105
766,7	482,19
767,2	479,333
767,6	481,133
768	478,362
768,5	476,505
768,9	473,276
769,3	470,562
769,8	466,648
770,2	460,248
770,6	450,705
771,1	451,419
771,5	448,333
771,9	445,962
772,4	442,19
772,8	440,39
773,2	437,905
773,7	432,362
774,1	428,933
774,5	421,962
775	412,048
775,4	408,676
775,8	405,019
776,3	404,533
776,7	405,133
777,1	398,076
777,6	396,962
778	400,533
778,4	401,133
778,9	400,076
779,3	395,105
779,7	391,105
780,2	392,019
780,6	386,333
781	380,162
781,5	371,933
781,9	371,733
782,3	367,019
782,8	369,305
783,2	363,19
783,6	366,076
784,1	359,933
784,5	362,505
784,9	358,962
785,4	358,076
785,8	349,762
786,2	348,648
786,7	346,019
787,1	349,562
787,5	345,105
788	338,762
788,4	339,019
788,8	336,79
789,3	332,933
789,7	334,848
790,1	329,848
790,6	327,076
791	325,276
791,4	320,933
791,9	318,276
792,3	317,79
792,7	303,762
793,2	302,19
793,6	301,133
794	298,19
794,5	296,59
794,9	297,476
795,3	297,133
795,8	299,99
796,2	294,333
796,6	290,819
797,1	284,533
797,5	283,619
797,9	282,219
798,4	276,048
798,8	273,619
799,2	275,419
799,7	272,305
800,1	273,79
800,5	268,79
801	265,819
801,4	268,105
801,8	269,276
802,2	265,59
802,7	269,019
803,1	268,362
803,5	267,676
804	260,819
804,4	260,19
804,8	259,276
805,3	264,419
805,7	256,819
806,1	255,848
806,6	250,819
807	252,19
807,4	248,533
807,9	244,648
808,3	239,248
808,7	238,79
809,2	233,962
809,6	235,762
810	233,59
810,4	231,733
810,9	225,19
811,3	223,533
811,7	221,505
812,2	220,133
812,6	215,762
813	215,448
813,5	208,933
813,9	207,305
814,3	203,676
814,8	203,619
815,2	206,305
815,6	204,248
816,1	198,219
816,5	199,562
816,9	198,305
817,3	197,219
817,8	193,762
818,2	189,762
818,6	190,133
819,1	193,19
819,5	190,562
819,9	192,048
820,4	188,333
820,8	189,619
821,2	191,648
821,7	189,248
822,1	187,076
822,5	187,133
822,9	183,19
823,4	187,762
823,8	183,105
824,2	178,333
824,7	176,619
825,1	172,19
825,5	170,705
826	172,99
826,4	166,962
826,8	167,476
827,3	165,733
827,7	166,019
828,1	168,276
828,5	164,133
829	160,905
829,4	155,59
829,8	153,248
830,3	149,762
830,7	147,848
831,1	145,962
831,6	145,448
832	149,905
832,4	149,848
832,8	143,676
833,3	143,39
833,7	142,019
834,1	138,048
834,6	136,819
835	133,162
835,4	135,533
835,8	140,733
836,3	140,362
836,7	143,048
837,1	145,705
837,6	146,076
838	142,79
838,4	141,133
838,9	137,59
839,3	142,819
839,7	140,619
840,1	134,648
840,6	132,648
841	133,876
841,4	134,762
841,9	133,848
842,3	126,133
842,7	120,562
843,1	121,39
843,6	123,305
844	119,019
844,4	115,276
844,9	113,79
845,3	112,505
845,7	116,733
846,2	114,019
846,6	109,676
847	109,848
847,4	101,162
847,9	98,533
848,3	99,762
848,7	95,848
849,2	97,848
849,6	98,105
850	101,162
850,4	104,905
850,9	108,505
851,3	110,733
851,7	106,933
852,2	105,848
852,6	102,533
853	96,59
853,4	96,562
853,9	92,133
854,3	89,162
854,7	92,819
855,2	97,219
855,6	100,733
856	101,705
856,4	105,476
856,9	107,419
857,3	103,705
857,7	102,419
858,2	93,419
858,6	89,648
859	84,99
859,4	85,162
859,9	86,419
860,3	84,905
860,7	86,933
861,1	86,362
861,6	88,505
862	90,933
862,4	84,933
862,9	82,99
863,3	82,105
863,7	79,505
864,1	81,105
864,6	80,876
865	83,79
865,4	83,39
865,9	85,39
866,3	87,448
866,7	89,876
867,1	87,505
867,6	88,676
868	90,848
868,4	91,619
868,8	88,648
869,3	87,79
869,7	84,133
870,1	90,962
870,6	84,848
871	94,419
871,4	93,019
871,8	91,99
872,3	90,248
872,7	90,305
873,1	86,876
873,5	89,162
874	69,19
874,4	65,733
874,8	66,505
875,3	67,905
875,7	62,933
876,1	60,19
876,5	59,305
877	59,162
877,4	65,019
877,8	65,848
878,2	63,876
878,7	67,79
879,1	69,819
879,5	68,048
879,9	70,733
880,4	68,076
880,8	65,305
881,2	65,362
881,7	63,933
882,1	63,019
882,5	69,219
882,9	66,048
883,4	67,276
883,8	65,562
884,2	58,733
884,6	60,819
885,1	61,076
885,5	55,276
885,9	56,305
886,3	55,448
886,8	53,705
887,2	58,048
887,6	52,933
888	48,848
888,5	49,619
888,9	48,705
889,3	45,162
889,8	49,476
890,2	47,819
890,6	49,905
891	49,419
891,5	50,79
891,9	49,019
892,3	49,562
892,7	47,333
893,2	47,905
893,6	42,448
894	44,533
894,4	43,448
894,9	46,076
895,3	46,162
895,7	41,019
896,1	44,705
896,6	51,076
897	49,533
897,4	48,362
897,8	46,162
898,3	48,476
898,7	49,562
899,1	50,419
899,5	46,476
900	45,533
900,4	44,076
900,8	45,962
901,2	43,848
901,7	44,79
902,1	43,619
902,5	38,619
902,9	34,733
903,4	35,019
903,8	32,676
904,2	32,39
904,6	32,819
905,1	32,419
905,5	39,219
905,9	40,876
906,3	33,848
906,8	34,048
907,2	32,476
907,6	34,533
908	31,848
908,5	28,705
908,9	32,39
909,3	37,133
909,7	41,39
910,2	44,676
910,6	41,333
911	37,448
911,4	38,19
911,9	33,619
912,3	32,819
912,7	23,59
913,1	22,105
913,6	16,505
914	25,133
914,4	24,505
914,8	23,362
915,3	21,019
915,7	28,105
916,1	30,419
916,5	36,219
916,9	28,819
917,4	30,59
917,8	30,019
918,2	35,876
918,6	33,276
919,1	29,562
919,5	26,705
919,9	29,562
920,3	29,076
920,8	37,048
921,2	31,676
921,6	35,505
922	33,79
922,5	38,219
922,9	35,648
923,3	33,705
923,7	31,162
924,2	33,162
924,6	28,276
925	33,705
925,4	33,333
925,8	37,848
926,3	41,819
926,7	39,562
927,1	39,219
927,5	44,39
928	36,048
928,4	35,876
928,8	30,162
929,2	22,99
929,7	23,905
930,1	25,448
930,5	20,562
930,9	24,819
931,3	24,39
931,8	22,99
932,2	26,962
932,6	26,419
933	23,733
933,5	29,276
933,9	26,162
934,3	26,505
934,7	25,162
935,2	27,476
935,6	25,248
936	25,648
936,4	22,705
936,8	27,133
937,3	26,133
937,7	32,248
938,1	27,505
938,5	24,562
939	26,99
939,4	27,019
939,8	24,133
940,2	19,419
940,6	14,905
941,1	14,848
941,5	17,876
941,9	20,848
942,3	16,305
942,8	17,133
943,2	25,39
943,6	24,019
944	25,676
944,4	31,39
944,9	30,562
945,3	29,305
945,7	31,79
946,1	27,933
946,6	33,619
947	33,19
947,4	30,105
947,8	28,019
948,2	28,305
948,7	23,362
949,1	23,362
949,5	20,676
949,9	21,276
950,3	23,705
950,8	22,305
951,2	26,962
951,6	30,305
952	30,133
952,5	24,59
952,9	20,848
953,3	17,848
953,7	15,248
954,1	11,133
954,6	10,562
955	7,962
955,4	14,39
955,8	20,305
956,2	21,59
956,7	23,762
957,1	24,648
957,5	22,59
957,9	23,876
958,3	21,048
958,8	18,648
959,2	14,99
959,6	15,848
960	18,133
960,5	18,876
960,9	20,848
961,3	22,419
961,7	18,105
962,1	19,476
962,6	17,79
963	16,676
963,4	17,162
963,8	16,476
964,2	19,305
964,7	20,876
965,1	14,99
965,5	14,105
965,9	14,705
966,3	11,705
966,8	10,162
967,2	5,533
967,6	8,105
968	10,819
968,4	12,362
968,9	10,905
969,3	14,276
969,7	13,905
970,1	11,59
970,5	10,219
971	12,619
971,4	12,419
971,8	15,162
972,2	13,933
972,6	13,619
973,1	18,533
973,5	15,448
973,9	12,962
974,3	13,819
974,7	12,676
975,2	9,248
975,6	11,105
976	10,162
976,4	10,419
976,8	11,019
977,3	7,762
977,7	4,219
978,1	9,419
978,5	8,533
978,9	4,419
979,4	6,248
979,8	7,562
980,2	10,39
980,6	11,476
981	13,19
981,5	12,933
981,9	18,248
982,3	20,705
982,7	21,933
983,1	19,133
983,6	21,876
984	14,562
984,4	16,705
984,8	14,848
985,2	14,448
985,6	14,59
986,1	16,362
986,5	14,705
986,9	17,79
987,3	15,362
987,7	18,419
988,2	18,19
988,6	15,505
989	12,905
989,4	13,562
989,8	12,133
990,3	10,333
990,7	10,505
991,1	12,19
991,5	14,819
991,9	13,762
992,3	17,362
992,8	19,362
993,2	19,076
993,6	15,019
994	13,876
994,4	17,419
994,9	19,276
995,3	17,276
995,7	15,562
996,1	14,676
996,5	14,019
996,9	14,076
997,4	6,733
997,8	9,362
998,2	6,505
998,6	8,248
999	12,79
999,5	11,248
999,9	10,276
1000,3	14,533
1000,7	14,933
1001,1	12,876
1001,5	16,39
1002	14,19
1002,4	17,419
1002,8	17,905
1003,2	16,905
1003,6	14,933
1004	16,162
1004,5	12,448
1004,9	11,219
1005,3	8,562
1005,7	6,305
1006,1	5,476
1006,6	4,333
1007	3,676
1007,4	3,933
1007,8	7,476
1008,2	9,39
1008,6	11,105
1009,1	15,076
1009,5	14,733
1009,9	13,248
1010,3	14,333
1010,7	14,59
1011,1	18,305
1011,6	21,219
1012	17,59
1012,4	22,019
1012,8	22,59
1013,2	18,819
1013,6	15,505
1014,1	7,79
1014,5	2,333
1014,9	5,619
1015,3	3,79
1015,7	5,533
1016,1	3,562
1016,6	0,676
1017	6,905
1017,4	6,99
1017,8	-4,41
1018,2	-6,438
1018,6	-4,638
1019,1	-2,495
1019,5	-0,01
1019,9	3,448
1020,3	2,39
1020,7	10,39
1021,1	11,019
1021,6	9,19
1022	13,105
1022,4	16,448
1022,8	9,59
1023,2	8,162
1023,6	6,876
1024,1	5,648
1024,5	5,448
1024,9	4,676
1025,3	0,59
1025,7	4,19
1026,1	13,676
1026,6	20,105
1027	18,448
1027,4	21,39
1027,8	20,162
1028,2	19,99
1028,6	18,676
1029	11,419
1029,5	9,133
1029,9	12,162
1030,3	12,276
1030,7	13,19
1031,1	16,933
1031,5	18,619
1032	19,476
1032,4	21,248
1032,8	20,276
1033,2	19,248
1033,6	19,419
1034	19,105
1034,4	18,448
1034,9	21,79
1035,3	16,048
1035,7	14,933
1036,1	11,962
1036,5	13,533
1036,9	12,219
1037,4	12,733
1037,8	13,076
1038,2	14,619
1038,6	20,505
1039	25,39
1039,4	21,048
1039,8	21,048
1040,3	21,305
1040,7	18,819
1041,1	13,99
1041,5	14,162
1041,9	8,019
1042,3	9,762
1042,7	6,048
1043,2	6,419
1043,6	11,762
1044	16,39
1044,4	12,048
1044,8	16,362
1045,2	22,762
1045,6	26,59
1046,1	25,562
1046,5	19,105
1046,9	19,362
1047,3	23,448
1047,7	23,305
1048,1	18,676
1048,5	18,819
1049	18,59
1049,4	23,133
1049,8	19,333
1050,2	15,876
1050,6	10,219
1051	10,39
1051,4	14,619
1051,9	15,762
1052,3	8,476
1052,7	11,105
1053,1	13,419
1053,5	19,476
1053,9	19,19
1054,3	10,762
1054,8	10,419
1055,2	8,905
1055,6	12,248
1056	8,59
1056,4	8,133
1056,8	7,39
1057,2	11,933
1057,6	12,362
1058,1	19,59
1058,5	19,876
1058,9	21,076
1059,3	20,448
1059,7	20,019
1060,1	19,59
1060,5	15,762
1061	12,533
1061,4	8,79
1061,8	8,333
1062,2	7,705
1062,6	11,619
1063	14,448
1063,4	15,333
1063,8	17,819
1064,3	15,705
1064,7	16,819
1065,1	17,933
1065,5	15,733
1065,9	8,19
1066,3	7,733
1066,7	6,219
1067,1	7,419
1067,6	7,876
1068	9,648
1068,4	7,362
1068,8	6,076
1069,2	4,562
1069,6	3,562
1070	6,133
1070,4	3,848
1070,9	-0,467
1071,3	0,39
1071,7	5,962
1072,1	6,762
1072,5	10,648
1072,9	8,933
1073,3	12,533
1073,7	16,933
1074,2	18,362
1074,6	15,848
1075	17,905
1075,4	12,505
1075,8	12,533
1076,2	8,676
1076,6	9,105
1077	6,819
1077,5	9,276
1077,9	4,419
1078,3	2,419
1078,7	2,962
1079,1	6,876
1079,5	2,819
1079,9	2,448
1080,3	2,362
1080,7	9,219
1081,2	14,962
1081,6	12,476
1082	11,733
1082,4	7,39
1082,8	8,59
1083,2	10,19
1083,6	8,762
1084	5,333
1084,5	8,39
1084,9	5,105
1085,3	8,505
1085,7	8,305
1086,1	3,505
1086,5	0,076
1086,9	-2,61
1087,3	-3,981
1087,7	-3,267
1088,2	-0,038
1088,6	-0,438
1089	-1,067
1089,4	2,305
1089,8	5,819
1090,2	2,933
1090,6	1,848
1091	2,333
1091,4	3,133
1091,9	5,79
1092,3	9,19
1092,7	12,305
1093,1	13,962
1093,5	17,505
1093,9	14,448
1094,3	15,419
1094,7	17,79
1095,1	11,99
1095,5	6,848
1096	8,905
1096,4	6,562
1096,8	8,105
1097,2	5,276
1097,6	6,648
1098	9,248
1098,4	11,562
1098,8	10,19
1099,2	5,705
1099,6	3,248
1100,1	5,333
1100,5	4,533
1100,9	7,762
1101,3	5,99
1101,7	3,962
1102,1	10,848
1102,5	10,276
1102,9	3,648
1103,3	3,99
1103,7	0,533
1104,2	5,876
1104,6	12,933
1105	13,705
1105,4	15,905
1105,8	20,048
1106,2	16,619
1106,6	14,133
1107	10,876
1107,4	6,7
1107,8	2,653
1108,3	0,083
