Data from Subt2_00103.txt Node
Date: Mon Aug 28 13:37:51 MSK 2023
User: vat
Spectrometer: MAYP114033
Trigger mode: 0
Integration Time (sec): 1,000000E0
Scans to average: 5
Electric dark correction enabled: true
Nonlinearity correction enabled: false
Boxcar width: 3
XAxis mode: Wavelengths
Number of Pixels in Spectrum: 2068
>>>>>Begin Spectral Data<<<<<
199,4	-2,017
199,9	-4,627
200,4	-3,7
200,8	2,848
201,3	5,533
201,8	8,162
202,2	11,933
202,7	13,676
203,2	18,333
203,6	19,305
204,1	12,276
204,6	13,505
205	12,619
205,5	7,99
206	6,333
206,4	6,19
206,9	5,99
207,4	7,619
207,8	3,99
208,3	2,905
208,8	3,676
209,2	6,19
209,7	5,048
210,2	4,419
210,6	6,705
211,1	9,705
211,5	11,248
212	11,448
212,5	10,019
212,9	7,076
213,4	7,876
213,9	5,733
214,3	8,848
214,8	8,79
215,3	10,676
215,7	10,905
216,2	14,962
216,7	18,562
217,1	18,962
217,6	14,048
218,1	16,219
218,5	19,419
219	22,762
219,5	23,933
219,9	18,762
220,4	26,419
220,9	25,133
221,3	19,248
221,8	16,076
222,3	16,019
222,7	18,048
223,2	16,762
223,6	8,876
224,1	13,562
224,6	20,619
225	20,848
225,5	16,848
226	11,762
226,4	17,905
226,9	17,048
227,4	17,676
227,8	18,419
228,3	19,819
228,8	20,876
229,2	22,905
229,7	20,048
230,2	21,99
230,6	17,905
231,1	14,876
231,5	14,59
232	17,219
232,5	13,305
232,9	16,133
233,4	14,419
233,9	20,876
234,3	21,962
234,8	23,333
235,3	21,962
235,7	27,876
236,2	26,876
236,7	26,248
237,1	22,962
237,6	18,905
238,1	17,733
238,5	15,876
239	15,305
239,4	15,276
239,9	19,562
240,4	16,162
240,8	23,076
241,3	21,276
241,8	22,448
242,2	16,305
242,7	11,79
243,2	12,219
243,6	18,648
244,1	12,848
244,6	12,019
245	9,962
245,5	14,333
245,9	19,79
246,4	16,105
246,9	13,876
247,3	15,333
247,8	13,419
248,3	19,076
248,7	17,59
249,2	14,876
249,7	16,419
250,1	9,705
250,6	8,79
251	11,533
251,5	7,79
252	8,59
252,4	9,019
252,9	12,619
253,4	18,505
253,8	18,305
254,3	19,076
254,8	18,59
255,2	16,562
255,7	15,19
256,1	10,219
256,6	10,705
257,1	13,962
257,5	9,39
258	5,876
258,5	10,448
258,9	9,648
259,4	12,933
259,9	5,905
260,3	2,39
260,8	4,305
261,2	10,705
261,7	13,819
262,2	11,676
262,6	13,733
263,1	17,819
263,6	14,762
264	16,962
264,5	15,733
264,9	9,448
265,4	14,019
265,9	9,133
266,3	5,933
266,8	11,162
267,3	13,79
267,7	12,019
268,2	10,419
268,7	11,333
269,1	11,333
269,6	17,99
270	11,59
270,5	14,448
271	13,505
271,4	9,562
271,9	5,362
272,4	5,733
272,8	5,105
273,3	7,105
273,7	2,962
274,2	3,133
274,7	9,876
275,1	13,419
275,6	18,19
276,1	16,162
276,5	20,362
277	19,19
277,4	19,676
277,9	17,762
278,4	16,619
278,8	12,219
279,3	11,019
279,8	9,219
280,2	10,219
280,7	11,876
281,1	13,476
281,6	14,219
282,1	16,619
282,5	21,133
283	20,59
283,4	22,19
283,9	22,705
284,4	21,362
284,8	19,905
285,3	19,705
285,8	16,533
286,2	15,905
286,7	12,819
287,1	10,305
287,6	13,305
288,1	15,276
288,5	14,276
289	9,933
289,5	12,619
289,9	9,448
290,4	10,648
290,8	11,248
291,3	15,076
291,8	15,133
292,2	21,876
292,7	19,762
293,1	23,562
293,6	19,448
294,1	17,362
294,5	12,762
295	7,533
295,5	7,762
295,9	8,962
296,4	8,105
296,8	10,99
297,3	14,305
297,8	18,762
298,2	24,533
298,7	22,076
299,1	21,562
299,6	24,162
300,1	22,562
300,5	18,876
301	19,562
301,5	17,276
301,9	18,305
302,4	18,705
302,8	16,305
303,3	21,333
303,8	26,19
304,2	21,962
304,7	21,305
305,1	16,333
305,6	14,848
306,1	16,333
306,5	11,133
307	3,39
307,4	-0,41
307,9	0,162
308,4	2,648
308,8	4,362
309,3	2,762
309,8	6,248
310,2	6,019
310,7	6,905
311,1	7,362
311,6	4,133
312,1	2,59
312,5	3,562
313	4,105
313,4	9,705
313,9	10,99
314,4	7,162
314,8	12,105
315,3	15,876
315,7	22,648
316,2	19,076
316,7	17,562
317,1	15,705
317,6	18,619
318	19,162
318,5	10,762
319	4,276
319,4	8,533
319,9	4,933
320,3	9,219
320,8	6,99
321,3	1,676
321,7	7,99
322,2	7,505
322,6	9,276
323,1	9,819
323,6	5,962
324	9,448
324,5	15,533
324,9	18,562
325,4	18,048
325,9	14,933
326,3	16,676
326,8	20,333
327,2	16,99
327,7	17,162
328,2	17,876
328,6	21,905
329,1	16,876
329,5	16,248
330	15,59
330,5	24,619
330,9	21,333
331,4	16,762
331,8	11,733
332,3	16,133
332,8	16,848
333,2	15,448
333,7	7,676
334,1	3,619
334,6	3,533
335,1	5,562
335,5	4,876
336	6,619
336,4	8,59
336,9	8,362
337,4	11,419
337,8	12,305
338,3	14,362
338,7	14,248
339,2	8,762
339,7	5,476
340,1	3,048
340,6	4,362
341	4,533
341,5	3,019
342	2,676
342,4	3,819
342,9	9,162
343,3	12,705
343,8	17,133
344,2	19,105
344,7	18,305
345,2	20,048
345,6	23,39
346,1	18,905
346,5	21,019
347	15,162
347,5	15,333
347,9	15,533
348,4	16,505
348,8	16,048
349,3	18,419
349,8	17,933
350,2	21,962
350,7	22,362
351,1	21,276
351,6	22,876
352	25,276
352,5	32,419
353	38,276
353,4	43,533
353,9	54,819
354,3	72,362
354,8	79,762
355,3	94,876
355,7	109,219
356,2	130,733
356,6	149,933
357,1	174,19
357,5	198,676
358	241,733
358,5	276,648
358,9	320,219
359,4	371,619
359,8	432,676
360,3	489,962
360,8	565,533
361,2	639,019
361,7	737,448
362,1	831,019
362,6	933,419
363	1049,105
363,5	1176,619
364	1298,733
364,4	1426,962
364,9	1553,019
365,3	1687,276
365,8	1817,105
366,3	1929,819
366,7	2030,248
367,2	2122,505
367,6	2205,333
368,1	2263,562
368,5	2299,476
369	2312,933
369,5	2316,305
369,9	2303,819
370,4	2264,219
370,8	2210,048
371,3	2142,876
371,7	2068,219
372,2	1981,076
372,7	1881,619
373,1	1779,876
373,6	1681,562
374	1573,19
374,5	1472,048
374,9	1367,876
375,4	1273,705
375,9	1185,676
376,3	1093,362
376,8	1006,19
377,2	931,362
377,7	856,162
378,2	788,848
378,6	720,848
379,1	655,562
379,5	602,162
380	552,362
380,4	506,333
380,9	463,333
381,4	427,133
381,8	397,905
382,3	374,105
382,7	349,276
383,2	326,19
383,6	305,505
384,1	289,476
384,6	269,619
385	252,562
385,5	236,648
385,9	219,076
386,4	212,105
386,8	195,419
387,3	178,105
387,7	167,39
388,2	151,533
388,7	138,19
389,1	130,105
389,6	119,219
390	116,133
390,5	114,248
390,9	103,99
391,4	99,705
391,9	96,99
392,3	95,276
392,8	88,133
393,2	83,533
393,7	81,676
394,1	82,676
394,6	85,733
395,1	82,848
395,5	76,876
396	71,076
396,4	66,362
396,9	61,219
397,3	61,876
397,8	53,933
398,2	47,105
398,7	44,876
399,2	45,99
399,6	45,019
400,1	40,619
400,5	37,533
401	47,39
401,4	47,562
401,9	49,019
402,4	49,476
402,8	52,562
403,3	57,648
403,7	58,99
404,2	48,305
404,6	52,962
405,1	54,162
405,5	55,59
406	56,133
406,5	57,19
406,9	60,933
407,4	60,762
407,8	58,79
408,3	56,448
408,7	52,276
409,2	50,333
409,6	48,99
410,1	45,705
410,6	46,79
411	49,819
411,5	53,133
411,9	55,019
412,4	58,79
412,8	55,762
413,3	57,676
413,7	60,819
414,2	59,905
414,7	59,333
415,1	70,305
415,6	68,99
416	74,848
416,5	80,019
416,9	84,39
417,4	91,505
417,8	95,076
418,3	91,533
418,8	93,305
419,2	97,076
419,7	100,505
420,1	98,876
420,6	96,905
421	102,79
421,5	106,105
421,9	108,819
422,4	110,59
422,8	106,305
423,3	111,962
423,8	114,648
424,2	112,076
424,7	111,962
425,1	116,59
425,6	116,562
426	118,819
426,5	116,562
426,9	117,505
427,4	125,305
427,9	124,676
428,3	124,676
428,8	122,133
429,2	124,105
429,7	126,705
430,1	124,219
430,6	113,419
431	115,076
431,5	112,276
431,9	117,219
432,4	117,448
432,8	120,876
433,3	127,819
433,8	137,533
434,2	140,676
434,7	143,762
435,1	150,419
435,6	152,79
436	153,676
436,5	159,762
436,9	163,248
437,4	169,419
437,8	176,305
438,3	181,362
438,8	189,59
439,2	197,048
439,7	203,733
440,1	214,905
440,6	224,162
441	235,79
441,5	242,648
441,9	255,99
442,4	267,19
442,8	278,19
443,3	288,048
443,7	295,333
444,2	303,533
444,7	316,905
445,1	328,048
445,6	340,733
446	352,819
446,5	365,105
446,9	385,448
447,4	406,848
447,8	424,39
448,3	440,533
448,7	460,048
449,2	476,99
449,6	495,019
450,1	514,733
450,6	534,19
451	551,619
451,5	572,219
451,9	591,99
452,4	611,933
452,8	633,448
453,3	651,905
453,7	673,076
454,2	694,619
454,6	715,762
455,1	743,819
455,5	769,848
456	799,276
456,4	821,333
456,9	847,848
457,3	877,99
457,8	902,476
458,3	924,705
458,7	953,933
459,2	980,819
459,6	1015,048
460,1	1047,019
460,5	1072,762
461	1108,362
461,4	1140,99
461,9	1176,733
462,3	1213,848
462,8	1249,476
463,2	1280,562
463,7	1320,876
464,1	1355,848
464,6	1394,133
465	1424,448
465,5	1455,905
466	1491,79
466,4	1533,533
466,9	1573,59
467,3	1609,219
467,8	1653,762
468,2	1698,99
468,7	1742,419
469,1	1785,076
469,6	1815,933
470	1853,276
470,5	1892,619
470,9	1920,505
471,4	1955,905
471,8	1992,733
472,3	2028,819
472,7	2073,39
473,2	2109,648
473,6	2147,648
474,1	2188,219
474,5	2223,533
475	2266,762
475,4	2305,248
475,9	2344,39
476,4	2387,105
476,8	2430,962
477,3	2472,705
477,7	2519,762
478,2	2553,79
478,6	2588,733
479,1	2627,933
479,5	2663,676
480	2702,676
480,4	2741,848
480,9	2771,105
481,3	2809,39
481,8	2848,505
482,2	2877,133
482,7	2909,819
483,1	2936,162
483,6	2968,505
484	3003,248
484,5	3031,448
484,9	3061,248
485,4	3096,276
485,8	3122,762
486,3	3155,219
486,7	3181,276
487,2	3208,819
487,6	3230,705
488,1	3258,848
488,5	3280,076
489	3308,905
489,4	3332,676
489,9	3350,276
490,4	3365,333
490,8	3388,876
491,3	3403,19
491,7	3421,276
492,2	3436,676
492,6	3457,076
493,1	3477,962
493,5	3502,419
494	3525,019
494,4	3544,048
494,9	3556,933
495,3	3572,39
495,8	3585,619
496,2	3600,248
496,7	3616,39
497,1	3627,105
497,6	3640,476
498	3659,876
498,5	3673,562
498,9	3682,362
499,4	3700,448
499,8	3712,99
500,3	3727,219
500,7	3736,562
501,2	3744,676
501,6	3759,419
502,1	3779,162
502,5	3787,705
503	3794,933
503,4	3799,848
503,9	3815,962
504,3	3826,59
504,8	3832,248
505,2	3833,505
505,7	3832,819
506,1	3835,962
506,6	3841,076
507	3846,333
507,5	3855,619
507,9	3867,79
508,4	3875,933
508,8	3886,79
509,3	3893,59
509,7	3898,619
510,2	3897,619
510,6	3900,019
511,1	3896,019
511,5	3900,448
512	3902,733
512,4	3910,733
512,9	3915,248
513,3	3926,79
513,8	3940,448
514,2	3950,819
514,7	3952,59
515,1	3958,419
515,6	3965,733
516	3973,619
516,5	3974,762
516,9	3967,99
517,4	3970,505
517,8	3976,19
518,3	3983,79
518,7	3986,248
519,2	3990,876
519,6	3998,476
520,1	4021,362
520,5	4025,848
521	4030,419
521,4	4036,19
521,9	4030,219
522,3	4032,933
522,8	4033,533
523,2	4024,476
523,7	4035,162
524,1	4039,762
524,6	4041,876
525	4065,162
525,5	4075,39
525,9	4082,248
526,4	4090,076
526,8	4086,819
527,3	4096,448
527,7	4106,105
528,2	4105,362
528,6	4112,162
529,1	4121,048
529,5	4132,562
530	4151,705
530,4	4163,276
530,9	4179,562
531,3	4196,448
531,8	4200,333
532,2	4208,448
532,6	4213,762
533,1	4211,19
533,5	4213,648
534	4213,105
534,4	4211,876
534,9	4225,133
535,3	4240,419
535,8	4252,219
536,2	4266,648
536,7	4275,505
537,1	4287,505
537,6	4292,505
538	4304,562
538,5	4309,305
538,9	4310,99
539,4	4319,562
539,8	4331,105
540,3	4338,39
540,7	4350,133
541,2	4354,533
541,6	4359,876
542,1	4373,305
542,5	4380,648
543	4387,248
543,4	4398,362
543,9	4409,962
544,3	4423,933
544,8	4437,819
545,2	4443,19
545,7	4457,648
546,1	4464,105
546,5	4466,79
547	4468,648
547,4	4468,562
547,9	4468,133
548,3	4484,819
548,8	4489,448
549,2	4505,848
549,7	4515,333
550,1	4530,39
550,6	4543,962
551	4560,305
551,5	4557,419
551,9	4564,476
552,4	4570,676
552,8	4574,076
553,3	4581,848
553,7	4590,248
554,2	4592,448
554,6	4602,476
555,1	4614,448
555,5	4622,762
555,9	4636,733
556,4	4646,533
556,8	4652,79
557,3	4663,019
557,7	4670,219
558,2	4673,848
558,6	4675,362
559,1	4678,762
559,5	4680,105
560	4683,019
560,4	4686,762
560,9	4691,876
561,3	4700,362
561,8	4714,933
562,2	4727,362
562,7	4730,762
563,1	4742,276
563,6	4746,476
564	4756,99
564,4	4756,962
564,9	4758,648
565,3	4760,733
565,8	4770,219
566,2	4766,533
566,7	4778,562
567,1	4776,705
567,6	4781,933
568	4777,419
568,5	4773,333
568,9	4779,333
569,4	4790,076
569,8	4788,019
570,3	4795,362
570,7	4797,648
571,1	4804,39
571,6	4811,848
572	4808,962
572,5	4804,362
572,9	4798,362
573,4	4791,248
573,8	4795,933
574,3	4800,162
574,7	4796,733
575,2	4791,019
575,6	4796,362
576,1	4807,276
576,5	4810,19
576,9	4802,248
577,4	4796,305
577,8	4798,619
578,3	4799,162
578,7	4789,476
579,2	4778,133
579,6	4781,848
580,1	4786,962
580,5	4783,876
581	4773,99
581,4	4771,79
581,9	4761,848
582,3	4760,19
582,7	4740,59
583,2	4729,162
583,6	4717,619
584,1	4711,162
584,5	4700,876
585	4697,448
585,4	4688,733
585,9	4690,162
586,3	4679,105
586,8	4675,19
587,2	4670,333
587,6	4666,876
588,1	4666,476
588,5	4657,133
589	4647,876
589,4	4646,219
589,9	4635,733
590,3	4627,076
590,8	4610,362
591,2	4594,819
591,7	4586,962
592,1	4587,162
592,5	4581,419
593	4571,905
593,4	4562,133
593,9	4562,819
594,3	4564,619
594,8	4563,705
595,2	4551,362
595,7	4538,219
596,1	4534,105
596,6	4534,305
597	4524,419
597,4	4513,99
597,9	4510,019
598,3	4502,99
598,8	4493,505
599,2	4491,59
599,7	4482,848
600,1	4481,276
600,6	4469,876
601	4455,448
601,4	4446,362
601,9	4434,562
602,3	4420,505
602,8	4410,59
603,2	4393,962
603,7	4386,19
604,1	4370,819
604,6	4354,476
605	4353,819
605,4	4340,59
605,9	4326,333
606,3	4320,762
606,8	4310,962
607,2	4300,448
607,7	4296,533
608,1	4283,79
608,6	4277,533
609	4265,705
609,4	4251,019
609,9	4232,476
610,3	4222,248
610,8	4204,448
611,2	4188,019
611,7	4172,99
612,1	4158,19
612,6	4143,933
613	4131,362
613,4	4120,362
613,9	4102,419
614,3	4087,276
614,8	4067,419
615,2	4047,79
615,7	4037,362
616,1	4028,99
616,6	4013,476
617	3998,362
617,4	3979,762
617,9	3970,733
618,3	3958,476
618,8	3942,876
619,2	3920,705
619,7	3902,933
620,1	3886,99
620,5	3869,733
621	3847,876
621,4	3839,705
621,9	3816,619
622,3	3797,076
622,8	3776,933
623,2	3764,762
623,6	3747,105
624,1	3731,505
624,5	3710,162
625	3696,505
625,4	3684,105
625,9	3670,619
626,3	3652,19
626,8	3642,048
627,2	3627,705
627,6	3613,876
628,1	3599,533
628,5	3581,905
629	3563,019
629,4	3551,619
629,9	3536,59
630,3	3525,59
630,7	3503,19
631,2	3483,619
631,6	3470,819
632,1	3453,562
632,5	3431,305
633	3408,876
633,4	3386,19
633,8	3372,962
634,3	3354,219
634,7	3337,848
635,2	3322,076
635,6	3302,619
636,1	3291,105
636,5	3270,962
636,9	3255,619
637,4	3239,419
637,8	3221,505
638,3	3203,876
638,7	3191,476
639,2	3169,819
639,6	3156,048
640	3133,562
640,5	3116,962
640,9	3096,248
641,4	3082,019
641,8	3065,99
642,2	3051,733
642,7	3034,648
643,1	3019,505
643,6	3006,762
644	2995,533
644,5	2986,39
644,9	2972,105
645,3	2956,305
645,8	2939,848
646,2	2925,762
646,7	2904,505
647,1	2886,048
647,6	2865,705
648	2850,39
648,4	2832,648
648,9	2823,962
649,3	2809,705
649,8	2804,905
650,2	2798,505
650,6	2790,419
651,1	2780,505
651,5	2768,476
652	2754,762
652,4	2741,733
652,9	2724,162
653,3	2706,39
653,7	2687,733
654,2	2668,762
654,6	2653,248
655,1	2630,476
655,5	2614,762
655,9	2598,648
656,4	2581,333
656,8	2561,676
657,3	2540,619
657,7	2530,676
658,2	2517,733
658,6	2505,59
659	2492,448
659,5	2479,362
659,9	2466,048
660,4	2457,505
660,8	2439,162
661,2	2421,79
661,7	2404,019
662,1	2392,39
662,6	2377,705
663	2368,505
663,4	2353,476
663,9	2341,276
664,3	2332,762
664,8	2318,076
665,2	2298,019
665,6	2286,505
666,1	2266,105
666,5	2248,39
667	2231,276
667,4	2214,333
667,9	2207,219
668,3	2196,733
668,7	2178,933
669,2	2166,533
669,6	2153,533
670,1	2138,162
670,5	2126,248
670,9	2108,876
671,4	2089,162
671,8	2070,705
672,3	2059,448
672,7	2049,876
673,1	2040,762
673,6	2031,848
674	2013,105
674,5	2006,705
674,9	1995,905
675,3	1981,933
675,8	1964,048
676,2	1944,79
676,7	1925,076
677,1	1911,876
677,5	1894,59
678	1884,876
678,4	1869,162
678,9	1866,476
679,3	1863,562
679,7	1853,248
680,2	1841,305
680,6	1833,99
681,1	1827,705
681,5	1818,448
681,9	1801,419
682,4	1784,276
682,8	1778,019
683,3	1770,705
683,7	1757,219
684,1	1740,333
684,6	1732,19
685	1717,762
685,5	1713,762
685,9	1701,333
686,3	1689,933
686,8	1679,048
687,2	1669,39
687,7	1655,962
688,1	1646,819
688,5	1633,048
689	1619,162
689,4	1608,905
689,9	1600,648
690,3	1592,048
690,7	1578,419
691,2	1568,133
691,6	1552,705
692	1542,905
692,5	1535,105
692,9	1522,333
693,4	1508,962
693,8	1502,762
694,2	1493,79
694,7	1483,162
695,1	1476,59
695,6	1465,619
696	1456,59
696,4	1447,133
696,9	1434,362
697,3	1424,305
697,8	1419,448
698,2	1407,333
698,6	1393,733
699,1	1387,419
699,5	1376,705
699,9	1369,848
700,4	1360,276
700,8	1353,476
701,3	1347,962
701,7	1345,076
702,1	1331,705
702,6	1320,305
703	1310,99
703,5	1299,99
703,9	1282,448
704,3	1268,419
704,8	1260,648
705,2	1248,762
705,6	1244,19
706,1	1235,648
706,5	1233,533
707	1232,676
707,4	1225,962
707,8	1214,076
708,3	1212,99
708,7	1200,076
709,2	1191,705
709,6	1176,505
710	1166,676
710,5	1154,733
710,9	1150,248
711,3	1139,333
711,8	1134,705
712,2	1125,162
712,7	1121,99
713,1	1107,533
713,5	1100,476
714	1092,048
714,4	1084,419
714,8	1075,276
715,3	1069,419
715,7	1060,533
716,2	1061,019
716,6	1054,762
717	1043,705
717,5	1033,19
717,9	1031,79
718,3	1020,219
718,8	1014,362
719,2	1004,962
719,7	1000,648
720,1	994,79
720,5	990,162
721	976,562
721,4	971,505
721,8	963,848
722,3	955,476
722,7	945,819
723,2	934,648
723,6	925,733
724	919,79
724,5	911,676
724,9	908,219
725,3	900,476
725,8	894,362
726,2	886,676
726,7	878,705
727,1	873,876
727,5	868,562
728	854,933
728,4	854,733
728,8	848,105
729,3	847,105
729,7	847,705
730,1	838,648
730,6	830,276
731	827,733
731,5	817,676
731,9	816,676
732,3	810,248
732,8	804,876
733,2	803,219
733,6	806,99
734,1	803,762
734,5	798,276
734,9	792,276
735,4	790,19
735,8	781,733
736,3	775,19
736,7	761,933
737,1	757,048
737,6	753,133
738	750,448
738,4	742,79
738,9	736,362
739,3	732,905
739,7	729,676
740,2	722,248
740,6	719,133
741,1	707,762
741,5	706,79
741,9	708,648
742,4	703,276
742,8	699,676
743,2	700,819
743,7	690,876
744,1	691,962
744,5	692,019
745	677,819
745,4	676,619
745,8	677,533
746,3	671,876
746,7	667,762
747,2	660,419
747,6	648,19
748	648,219
748,5	638,848
748,9	625,248
749,3	617,676
749,8	618,448
750,2	613,362
750,6	611,705
751,1	607,019
751,5	608,676
751,9	609,533
752,4	602,505
752,8	596,476
753,3	596,933
753,7	588,99
754,1	583,705
754,6	577,905
755	574,276
755,4	577,048
755,9	574,79
756,3	568,905
756,7	569,448
757,2	567,905
757,6	560,505
758	558,305
758,5	552,619
758,9	544,276
759,3	537,619
759,8	529,676
760,2	526,99
760,6	523,276
761,1	516,99
761,5	513,762
761,9	513,905
762,4	512,562
762,8	509,305
763,3	502,648
763,7	500,248
764,1	501,962
764,6	495,59
765	490,676
765,4	486,048
765,9	486,305
766,3	484,933
766,7	482,39
767,2	475,219
767,6	475,419
768	477,59
768,5	475,362
768,9	470,248
769,3	466,105
769,8	467,362
770,2	465,133
770,6	459,59
771,1	452,648
771,5	451,876
771,9	451,905
772,4	450,39
772,8	442,019
773,2	437,333
773,7	431,648
774,1	430,19
774,5	421,619
775	412,962
775,4	412,219
775,8	409,99
776,3	408,962
776,7	407,619
777,1	403,933
777,6	400,105
778	399,105
778,4	393,59
778,9	386,476
779,3	384,876
779,7	382,448
780,2	381,705
780,6	381,505
781	378,876
781,5	373,848
781,9	376,819
782,3	375,562
782,8	377,219
783,2	371,79
783,6	368,733
784,1	364,933
784,5	364,333
784,9	361,819
785,4	355,676
785,8	353,876
786,2	350,476
786,7	348,648
787,1	350,876
787,5	348,362
788	346,448
788,4	345,476
788,8	337,962
789,3	335,019
789,7	332,59
790,1	326,105
790,6	326,476
791	322,79
791,4	320,505
791,9	319,705
792,3	320,79
792,7	318,19
793,2	316,562
793,6	311,505
794	308,19
794,5	303,162
794,9	303,362
795,3	302,562
795,8	300,876
796,2	296,505
796,6	299,076
797,1	294,505
797,5	295,162
797,9	290,133
798,4	283,39
798,8	280,419
799,2	287,248
799,7	281,476
800,1	284,248
800,5	283,276
801	280,562
801,4	282,99
801,8	277,105
802,2	270,933
802,7	270,59
803,1	268,962
803,5	266,962
804	268,59
804,4	262,848
804,8	264,048
805,3	264,448
805,7	262,848
806,1	259,876
806,6	256,133
807	253,362
807,4	253,362
807,9	254,105
808,3	247,962
808,7	240,276
809,2	238,933
809,6	241,019
810	234,533
810,4	229,305
810,9	227,305
811,3	226,848
811,7	232,448
812,2	230,79
812,6	224,048
813	221,133
813,5	219,962
813,9	219,248
814,3	217,99
814,8	212,076
815,2	211,019
815,6	208,19
816,1	208,876
816,5	212,305
816,9	206,276
817,3	203,448
817,8	198,133
818,2	193,819
818,6	195,305
819,1	194,562
819,5	189,505
819,9	190,019
820,4	187,162
820,8	187,99
821,2	187,99
821,7	190,476
822,1	189,619
822,5	188,79
822,9	187,419
823,4	188,219
823,8	185,648
824,2	187,619
824,7	182,19
825,1	178,99
825,5	177,562
826	177,333
826,4	174,762
826,8	175,933
827,3	171,162
827,7	166,162
828,1	167,448
828,5	163,819
829	162,762
829,4	160,733
829,8	161,676
830,3	159,99
830,7	162,19
831,1	161,076
831,6	162,448
832	161,619
832,4	159,676
832,8	153,362
833,3	151,162
833,7	144,362
834,1	144,962
834,6	139,562
835	140,59
835,4	139,876
835,8	142,333
836,3	140,076
836,7	142,105
837,1	136,419
837,6	140,276
838	135,019
838,4	137,905
838,9	133,705
839,3	141,79
839,7	145,162
840,1	145,619
840,6	145,276
841	146,648
841,4	143,19
841,9	141,448
842,3	132,705
842,7	127,79
843,1	129,476
843,6	124,048
844	122,876
844,4	119,162
844,9	118,733
845,3	116,305
845,7	113,59
846,2	109,019
846,6	111,876
847	110,19
847,4	103,048
847,9	101,762
848,3	107,819
848,7	111,905
849,2	114,362
849,6	108,305
850	107,476
850,4	113,533
850,9	115,219
851,3	111,076
851,7	107,419
852,2	106,219
852,6	105,648
853	102,248
853,4	100,305
853,9	99,762
854,3	98,048
854,7	100,076
855,2	100,219
855,6	101,733
856	105,305
856,4	105,333
856,9	109,19
857,3	105,248
857,7	101,105
858,2	96,362
858,6	92,219
859	89,619
859,4	89,848
859,9	86,905
860,3	87,676
860,7	89,476
861,1	90,133
861,6	96,39
862	93,19
862,4	89,933
862,9	88,505
863,3	84,133
863,7	86,505
864,1	83,59
864,6	82,933
865	85,505
865,4	87,276
865,9	85,619
866,3	91,019
866,7	89,076
867,1	85,99
867,6	88,533
868	88,619
868,4	89,733
868,8	86,619
869,3	87,705
869,7	81,905
870,1	85,648
870,6	77,19
871	74,19
871,4	73,219
871,8	73,705
872,3	67,076
872,7	72,819
873,1	68,933
873,5	72,219
874	68,505
874,4	65,99
874,8	70,505
875,3	74,476
875,7	71,448
876,1	76,305
876,5	76,648
877	77,562
877,4	77,676
877,8	76,762
878,2	67,448
878,7	67,619
879,1	63,705
879,5	60,162
879,9	63,648
880,4	66,79
880,8	63,162
881,2	70,048
881,7	68,333
882,1	78,59
882,5	79,619
882,9	75,362
883,4	70,133
883,8	74,276
884,2	71,105
884,6	69,848
885,1	60,648
885,5	60,133
885,9	60,876
886,3	63,276
886,8	58,105
887,2	57,848
887,6	55,676
888	55,333
888,5	58,905
888,9	62,562
889,3	59,533
889,8	61,362
890,2	59,219
890,6	61,648
891	59,562
891,5	57,705
891,9	54,276
892,3	55,648
892,7	57,505
893,2	61,562
893,6	60,505
894	60,305
894,4	59,133
894,9	58,39
895,3	57,162
895,7	52,79
896,1	53,705
896,6	53,505
897	52,39
897,4	48,648
897,8	46,705
898,3	50,105
898,7	49,419
899,1	48,476
899,5	47,448
900	49,305
900,4	50,933
900,8	49,962
901,2	49,59
901,7	47,533
902,1	50,876
902,5	46,648
902,9	43,676
903,4	44,762
903,8	46,648
904,2	42,39
904,6	44,219
905,1	42,505
905,5	49,762
905,9	53,476
906,3	49,448
906,8	49,676
907,2	50,705
907,6	52,248
908	43,848
908,5	37,962
908,9	36,219
909,3	36,105
909,7	37,419
910,2	37,562
910,6	30,562
911	33,076
911,4	32,819
911,9	29,162
912,3	27,419
912,7	21,733
913,1	20,762
913,6	20,876
914	23,619
914,4	18,79
914,8	23,333
915,3	24,019
915,7	30,648
916,1	29,762
916,5	33,705
916,9	31,362
917,4	36,676
917,8	31,648
918,2	35,533
918,6	32,248
919,1	33,676
919,5	31,076
919,9	32,39
920,3	35,419
920,8	41,933
921,2	36,819
921,6	40,876
922	42,676
922,5	47,162
922,9	47,362
923,3	48,59
923,7	45,876
924,2	48,933
924,6	43,362
925	42,133
925,4	40,019
925,8	38,276
926,3	36,505
926,7	34,848
927,1	34,705
927,5	40,59
928	39,105
928,4	40,19
928,8	40,505
929,2	38,276
929,7	39,99
930,1	43,076
930,5	39,876
930,9	35,505
931,3	32,076
931,8	31,505
932,2	32,19
932,6	30,962
933	25,562
933,5	24,19
933,9	26,505
934,3	25,819
934,7	25,419
935,2	27,476
935,6	28,419
936	28,276
936,4	28,733
936,8	31,733
937,3	30,79
937,7	29,076
938,1	22,562
938,5	18,133
939	19,248
939,4	18,733
939,8	15,562
940,2	19,533
940,6	20,333
941,1	23,99
941,5	23,076
941,9	28,19
942,3	29,219
942,8	32,39
943,2	31,848
943,6	34,933
944	31,448
944,4	36,105
944,9	31,905
945,3	28,876
945,7	22,533
946,1	22,105
946,6	22,276
947	24,99
947,4	23,019
947,8	23,333
948,2	20,819
948,7	20,962
949,1	22,105
949,5	17,59
949,9	17,762
950,3	15,19
950,8	15,362
951,2	20,105
951,6	21,962
952	18,619
952,5	20,419
952,9	19,362
953,3	20,876
953,7	20,962
954,1	20,562
954,6	22,39
955	23,076
955,4	28,19
955,8	32,048
956,2	35,648
956,7	30,762
957,1	26,419
957,5	27,19
957,9	32,59
958,3	26,476
958,8	24,962
959,2	22,619
959,6	24,448
960	28,505
960,5	22,219
960,9	20,133
961,3	18,962
961,7	19,676
962,1	19,048
962,6	17,276
963	14,59
963,4	18,933
963,8	17,505
964,2	21,59
964,7	16,133
965,1	8,219
965,5	10,448
965,9	12,133
966,3	11,248
966,8	7,048
967,2	2,99
967,6	6,39
968	13,905
968,4	14,39
968,9	15,419
969,3	15,419
969,7	17,105
970,1	14,962
970,5	13,79
971	13,076
971,4	11,619
971,8	10,219
972,2	15,19
972,6	15,962
973,1	19,505
973,5	22,762
973,9	20,933
974,3	23,848
974,7	25,819
975,2	20,619
975,6	21,848
976	22,39
976,4	16,848
976,8	17,648
977,3	21,905
977,7	19,39
978,1	21,276
978,5	19,905
978,9	16,99
979,4	20,962
979,8	23,362
980,2	16,105
980,6	12,133
981	10,048
981,5	10,59
981,9	16,905
982,3	15,39
982,7	15,448
983,1	12,162
983,6	17,276
984	18,19
984,4	20,648
984,8	17,019
985,2	15,705
985,6	15,79
986,1	19,533
986,5	17,019
986,9	17,876
987,3	15,419
987,7	15,733
988,2	17,59
988,6	19,19
989	15,733
989,4	18,99
989,8	18,305
990,3	17,248
990,7	20,305
991,1	22,648
991,5	22,19
991,9	22,333
992,3	16,505
992,8	14,905
993,2	13,79
993,6	5,333
994	3,162
994,4	4,79
994,9	5,219
995,3	14,648
995,7	16,305
996,1	17,219
996,5	18,819
996,9	14,419
997,4	9,562
997,8	14,448
998,2	10,448
998,6	12,048
999	14,133
999,5	20,476
999,9	22,105
1000,3	26,362
1000,7	25,59
1001,1	20,362
1001,5	20,219
1002	18,733
1002,4	16,448
1002,8	18,533
1003,2	17,39
1003,6	21,19
1004	22,962
1004,5	16,448
1004,9	16,933
1005,3	18,448
1005,7	17,19
1006,1	16,476
1006,6	10,19
1007	12,533
1007,4	15,619
1007,8	20,59
1008,2	19,962
1008,6	20,676
1009,1	21,076
1009,5	23,79
1009,9	22,705
1010,3	23,19
1010,7	22,476
1011,1	23,105
1011,6	25,162
1012	24,962
1012,4	26,248
1012,8	27,79
1013,2	28,59
1013,6	26,305
1014,1	23,19
1014,5	20,476
1014,9	21,048
1015,3	17,362
1015,7	19,162
1016,1	15,39
1016,6	10,905
1017	13,39
1017,4	15,019
1017,8	9,733
1018,2	12,248
1018,6	11,019
1019,1	16,648
1019,5	19,248
1019,9	18,533
1020,3	18,99
1020,7	21,162
1021,1	19,048
1021,6	14,876
1022	19,39
1022,4	20,648
1022,8	20,276
1023,2	18,762
1023,6	14,133
1024,1	13,59
1024,5	16,448
1024,9	12,733
1025,3	12,933
1025,7	14,505
1026,1	15,848
1026,6	24,962
1027	25,19
1027,4	26,962
1027,8	27,19
1028,2	24,819
1028,6	25,962
1029	23,905
1029,5	23,59
1029,9	24,505
1030,3	27,505
1030,7	26,99
1031,1	26,219
1031,5	27,819
1032	30,419
1032,4	33,105
1032,8	32,562
1033,2	28,39
1033,6	27,676
1034	25,905
1034,4	20,248
1034,9	22,79
1035,3	19,819
1035,7	20,362
1036,1	19,076
1036,5	22,048
1036,9	26,133
1037,4	26,076
1037,8	23,933
1038,2	18,99
1038,6	18,705
1039	24,733
1039,4	23,105
1039,8	20,733
1040,3	24,133
1040,7	26,305
1041,1	28,162
1041,5	30,933
1041,9	21,676
1042,3	18,99
1042,7	19,876
1043,2	18,276
1043,6	18,676
1044	21,79
1044,4	22,79
1044,8	27,076
1045,2	28,505
1045,6	30,819
1046,1	30,933
1046,5	27,476
1046,9	25,848
1047,3	25,419
1047,7	28,505
1048,1	24,762
1048,5	24,476
1049	24,762
1049,4	26,019
1049,8	24,076
1050,2	23,19
1050,6	20,048
1051	20,19
1051,4	14,276
1051,9	13,133
1052,3	13,219
1052,7	15,133
1053,1	12,933
1053,5	9,562
1053,9	11,562
1054,3	13,876
1054,8	15,648
1055,2	6,59
1055,6	9,305
1056	7,59
1056,4	8,962
1056,8	10,305
1057,2	13,562
1057,6	15,105
1058,1	23,648
1058,5	16,476
1058,9	15,419
1059,3	18,905
1059,7	16,505
1060,1	11,99
1060,5	10,905
1061	8,076
1061,4	11,762
1061,8	14,79
1062,2	9,962
1062,6	12,962
1063	17,676
1063,4	16,99
1063,8	19,276
1064,3	20,39
1064,7	20,19
1065,1	25,705
1065,5	26,476
1065,9	26,648
1066,3	28,59
1066,7	23,962
1067,1	22,99
1067,6	24,419
1068	25,019
1068,4	19,133
1068,8	12,505
1069,2	11,276
1069,6	13,733
1070	11,133
1070,4	12,648
1070,9	10,219
1071,3	18,048
1071,7	24,162
1072,1	17,933
1072,5	18,105
1072,9	17,79
1073,3	19,962
1073,7	22,048
1074,2	17,59
1074,6	13,905
1075	17,562
1075,4	18,762
1075,8	20,59
1076,2	15,476
1076,6	12,933
1077	10,476
1077,5	13,676
1077,9	10,448
1078,3	5,19
1078,7	4,619
1079,1	6,219
1079,5	4,105
1079,9	2,276
1080,3	4,162
1080,7	9,162
1081,2	16,076
1081,6	14,076
1082	11,79
1082,4	8,419
1082,8	12,676
1083,2	9,676
1083,6	6,676
1084	6,333
1084,5	8,076
1084,9	4,248
1085,3	9,419
1085,7	12,933
1086,1	11,876
1086,5	8,276
1086,9	2,133
1087,3	2,762
1087,7	3,819
1088,2	2,79
1088,6	-2,61
1089	-4,524
1089,4	3,19
1089,8	9,819
1090,2	10,533
1090,6	15,105
1091	15,39
1091,4	15,848
1091,9	22,076
1092,3	23,048
1092,7	20,905
1093,1	20,99
1093,5	21,248
1093,9	23,219
1094,3	24,733
1094,7	24,39
1095,1	22,105
1095,5	20,962
1096	21,533
1096,4	21,505
1096,8	19,962
1097,2	19,619
1097,6	18,19
1098	15,333
1098,4	13,933
1098,8	11,933
1099,2	8,362
1099,6	7,676
1100,1	6,305
1100,5	4,59
1100,9	10,905
1101,3	11,99
1101,7	11,362
1102,1	15,133
1102,5	12,733
1102,9	8,533
1103,3	11,876
1103,7	6,819
1104,2	6,676
1104,6	11,133
1105	8,905
1105,4	10,333
1105,8	14,333
1106,2	9,19
1106,6	7,448
1107	7,048
1107,4	2,833
1107,8	1,373
1108,3	0,683
