Data from Subt2_00003.txt Node
Date: Mon Aug 28 13:04:16 MSK 2023
User: vat
Spectrometer: MAYP114033
Trigger mode: 0
Integration Time (sec): 1,000000E0
Scans to average: 5
Electric dark correction enabled: true
Nonlinearity correction enabled: false
Boxcar width: 3
XAxis mode: Wavelengths
Number of Pixels in Spectrum: 2068
>>>>>Begin Spectral Data<<<<<
199,4	-0,5
199,9	-0,64
200,4	-0,133
200,8	2,943
201,3	4,029
201,8	5,343
202,2	4,943
202,7	6,029
203,2	6,771
203,6	7,886
204,1	7,2
204,6	8,886
205	7,743
205,5	11,943
206	11,057
206,4	12,743
206,9	13,171
207,4	14,857
207,8	12,114
208,3	17,229
208,8	16,343
209,2	20,943
209,7	19,8
210,2	13,829
210,6	11,6
211,1	8,857
211,5	6,486
212	6,371
212,5	5,571
212,9	5,914
213,4	12,657
213,9	11,314
214,3	13,114
214,8	11,886
215,3	9,686
215,7	5,971
216,2	6,314
216,7	4,714
217,1	3,114
217,6	5,629
218,1	4,486
218,5	3,2
219	5,829
219,5	4,8
219,9	7,086
220,4	10,029
220,9	10,829
221,3	12,114
221,8	13,429
222,3	17,029
222,7	15,514
223,2	11,171
223,6	11
224,1	11,714
224,6	8,8
225	10,657
225,5	5,857
226	8,943
226,4	13,771
226,9	11,286
227,4	11,743
227,8	13,114
228,3	10,571
228,8	12,286
229,2	14,686
229,7	9,6
230,2	12,457
230,6	10,371
231,1	11,886
231,5	17,086
232	16,229
232,5	17,8
232,9	16,514
233,4	15,571
233,9	16,829
234,3	14,543
234,8	10,171
235,3	3,343
235,7	-0,8
236,2	-0,2
236,7	-3,057
237,1	0,257
237,6	5,4
238,1	6,886
238,5	13,857
239	13,657
239,4	16,457
239,9	21,343
240,4	15,714
240,8	13,829
241,3	16,2
241,8	14,143
242,2	14,343
242,7	20,4
243,2	16,714
243,6	23,371
244,1	16,257
244,6	14,171
245	14,029
245,5	16,886
245,9	9,629
246,4	12,657
246,9	8,371
247,3	13,086
247,8	9,943
248,3	11,714
248,7	10,914
249,2	12,543
249,7	12,371
250,1	6,4
250,6	10,029
251	11,686
251,5	12,657
252	7,371
252,4	8,657
252,9	6,429
253,4	12,714
253,8	10,029
254,3	8,429
254,8	6,8
255,2	3,543
255,7	2,971
256,1	7,686
256,6	8,2
257,1	5,086
257,5	6,6
258	4,714
258,5	8,543
258,9	6,886
259,4	4,543
259,9	1,171
260,3	4,514
260,8	4,2
261,2	6,714
261,7	6,143
262,2	6,8
262,6	1,971
263,1	4,086
263,6	1,743
264	2,886
264,5	2,429
264,9	5,714
265,4	4,829
265,9	12,543
266,3	11,743
266,8	13,829
267,3	14,029
267,7	10,743
268,2	9,914
268,7	9,143
269,1	1,743
269,6	5,229
270	7
270,5	7,8
271	13,971
271,4	14,943
271,9	17,057
272,4	22,657
272,8	20,4
273,3	18,829
273,7	17,286
274,2	14,971
274,7	12,257
275,1	13,829
275,6	16,057
276,1	12,2
276,5	12,6
277	11,314
277,4	10,257
277,9	13,086
278,4	10,429
278,8	8,8
279,3	10,857
279,8	7,771
280,2	8,657
280,7	3,343
281,1	1,029
281,6	7,286
282,1	4,314
282,5	6,257
283	7,286
283,4	9,057
283,9	13,086
284,4	13,2
284,8	8,143
285,3	10,286
285,8	10,171
286,2	8,743
286,7	2,571
287,1	9,2
287,6	10,171
288,1	13,171
288,5	8,971
289	11,943
289,5	13,657
289,9	22,257
290,4	18,029
290,8	19,314
291,3	12,571
291,8	18,686
292,2	14,543
292,7	15,486
293,1	10,4
293,6	11,086
294,1	10,6
294,5	12,029
295	7,943
295,5	4,8
295,9	2,4
296,4	7,114
296,8	9,2
297,3	7,2
297,8	3,114
298,2	8,429
298,7	12,171
299,1	12,429
299,6	10,229
300,1	9,857
300,5	8,457
301	12,543
301,5	4,343
301,9	3,486
302,4	3,486
302,8	0,171
303,3	-3,943
303,8	1,314
304,2	1,229
304,7	4,171
305,1	6,857
305,6	9,886
306,1	10,657
306,5	14,343
307	12,486
307,4	14,257
307,9	15,171
308,4	13,657
308,8	11,943
309,3	14,371
309,8	16,629
310,2	17,143
310,7	21,514
311,1	17,914
311,6	15,771
312,1	12,514
312,5	9,143
313	3,714
313,4	7,686
313,9	6,514
314,4	11,457
314,8	13,143
315,3	19,914
315,7	21,343
316,2	21,714
316,7	10,257
317,1	7,314
317,6	6,029
318	8,314
318,5	4,571
319	8,971
319,4	9,771
319,9	14,714
320,3	13,314
320,8	14,743
321,3	6,857
321,7	6,714
322,2	4,143
322,6	0,143
323,1	0,771
323,6	3,543
324	0,714
324,5	6,4
324,9	7,686
325,4	8,229
325,9	12,371
326,3	12,8
326,8	11,086
327,2	11,857
327,7	10,343
328,2	9,229
328,6	8,114
329,1	5,629
329,5	6,2
330	5,457
330,5	5,886
330,9	7,029
331,4	11,257
331,8	12,286
332,3	11,914
332,8	10,8
333,2	11,829
333,7	9,171
334,1	12
334,6	8,971
335,1	9,2
335,5	12,257
336	13,343
336,4	14,886
336,9	15,229
337,4	12,8
337,8	12,029
338,3	10,743
338,7	9,343
339,2	10
339,7	11,457
340,1	9,171
340,6	4,943
341	4,914
341,5	9,343
342	12,886
342,4	15,4
342,9	13
343,3	18,286
343,8	23,543
344,2	26,514
344,7	26,343
345,2	25,886
345,6	24,6
346,1	26,114
346,5	22,971
347	21,429
347,5	18,143
347,9	14,486
348,4	12
348,8	10,629
349,3	17,886
349,8	20,543
350,2	24,114
350,7	28,171
351,1	33,4
351,6	38,743
352	43,886
352,5	41,2
353	48,429
353,4	53,971
353,9	59,829
354,3	68,086
354,8	79,029
355,3	92,971
355,7	108,457
356,2	129,6
356,6	151,714
357,1	179,771
357,5	210,771
358	243,571
358,5	281,571
358,9	329,857
359,4	382,743
359,8	444,514
360,3	510,229
360,8	584,629
361,2	671,086
361,7	758,6
362,1	854,229
362,6	960,543
363	1072,286
363,5	1197,257
364	1318,286
364,4	1449,714
364,9	1585,486
365,3	1718,543
365,8	1838,486
366,3	1956,057
366,7	2058,343
367,2	2157,286
367,6	2224,657
368,1	2282,114
368,5	2319,229
369	2338,629
369,5	2337,514
369,9	2319,571
370,4	2278
370,8	2231,143
371,3	2161,086
371,7	2083,514
372,2	1998,486
372,7	1900,714
373,1	1800,143
373,6	1697,314
374	1589,771
374,5	1490,029
374,9	1385,343
375,4	1278,743
375,9	1181,371
376,3	1087,143
376,8	1004,457
377,2	921,429
377,7	843,943
378,2	776,114
378,6	719,914
379,1	659,686
379,5	604,971
380	551,657
380,4	509,171
380,9	469,343
381,4	430,229
381,8	397
382,3	368,486
382,7	345,943
383,2	322,029
383,6	302,543
384,1	282,857
384,6	266,029
385	250,229
385,5	237,4
385,9	218,429
386,4	204
386,8	191,314
387,3	178,629
387,7	167
388,2	152,514
388,7	141,943
389,1	136
389,6	129,857
390	119,6
390,5	105,971
390,9	98,971
391,4	92,829
391,9	87,743
392,3	83,743
392,8	77,371
393,2	78
393,7	79,2
394,1	76,486
394,6	75,657
395,1	72,6
395,5	68,143
396	65,2
396,4	57,4
396,9	56,8
397,3	56,657
397,8	50,286
398,2	49,543
398,7	49,029
399,2	51,257
399,6	53,057
400,1	52,857
400,5	53,943
401	60,829
401,4	63,543
401,9	63,029
402,4	62
402,8	63,057
403,3	66,571
403,7	63,829
404,2	65,029
404,6	65,743
405,1	71,914
405,5	72,114
406	71,971
406,5	73,486
406,9	77,343
407,4	79,8
407,8	83,171
408,3	80,943
408,7	87,371
409,2	95,429
409,6	100,8
410,1	104,657
410,6	112,343
411	120,086
411,5	132,114
411,9	141,286
412,4	146,143
412,8	152,771
413,3	164,343
413,7	176,571
414,2	185,657
414,7	196,514
415,1	206,771
415,6	221,429
416	238,943
416,5	251,686
416,9	263,657
417,4	284,486
417,8	296,943
418,3	314,943
418,8	337,2
419,2	352,314
419,7	370,171
420,1	388,457
420,6	401,971
421	434,943
421,5	460,457
421,9	483,543
422,4	516,257
422,8	553,314
423,3	582,657
423,8	616,971
424,2	643,571
424,7	677,314
425,1	710,571
425,6	745,057
426	780,371
426,5	818,257
426,9	863,714
427,4	904,257
427,9	955,571
428,3	1011,686
428,8	1063,314
429,2	1118,857
429,7	1179,371
430,1	1237,114
430,6	1309,057
431	1375,8
431,5	1438,543
431,9	1515,543
432,4	1593
432,8	1676
433,3	1764,514
433,8	1857,829
434,2	1948,371
434,7	2048,657
435,1	2148,257
435,6	2256,514
436	2375,343
436,5	2492,657
436,9	2609,429
437,4	2739,686
437,8	2872,629
438,3	3007,571
438,8	3151,514
439,2	3293,057
439,7	3448,143
440,1	3605,057
440,6	3764,743
441	3934,257
441,5	4110,771
441,9	4294,229
442,4	4480,029
442,8	4675,371
443,3	4879,829
443,7	5088,029
444,2	5306,429
444,7	5528,829
445,1	5757,2
445,6	5998,857
446	6243,371
446,5	6487,057
446,9	6737,086
447,4	6997,943
447,8	7264,971
448,3	7541,457
448,7	7805,629
449,2	8074,886
449,6	8356,829
450,1	8652
450,6	8941,171
451	9239,514
451,5	9543,286
451,9	9873,686
452,4	10198,314
452,8	10533,886
453,3	10864,429
453,7	11198,229
454,2	11547,143
454,6	11891,686
455,1	12244,743
455,5	12606,429
456	12957,4
456,4	13327,829
456,9	13711,371
457,3	14095,771
457,8	14479,143
458,3	14844,914
458,7	15233,229
459,2	15635,6
459,6	16041,571
460,1	16433,857
460,5	16821,286
461	17207,629
461,4	17623,143
461,9	18024,686
462,3	18422,314
462,8	18808,971
463,2	19210,343
463,7	19607,143
464,1	19998,914
464,6	20395,086
465	20781,886
465,5	21171,543
466	21564,257
466,4	21941,714
466,9	22334,086
467,3	22735,629
467,8	23124,6
468,2	23511,457
468,7	23920,029
469,1	24303,114
469,6	24690,114
470	25069,771
470,5	25433,771
470,9	25798
471,4	26162,086
471,8	26488,543
472,3	26830,429
472,7	27180,514
473,2	27496,714
473,6	27822,029
474,1	28129,543
474,5	28439,829
475	28750,629
475,4	29053,371
475,9	29332,229
476,4	29619,286
476,8	29906,143
477,3	30182,371
477,7	30447,829
478,2	30689,943
478,6	30936,286
479,1	31167,857
479,5	31396,8
480	31614,686
480,4	31822,229
480,9	32006,571
481,3	32191,857
481,8	32378
482,2	32553,857
482,7	32703,914
483,1	32843,171
483,6	32965,571
484	33101,6
484,5	33225,8
484,9	33311,657
485,4	33397,543
485,8	33499,029
486,3	33579,514
486,7	33655,686
487,2	33706,457
487,6	33755,257
488,1	33783,886
488,5	33821,829
489	33845,8
489,4	33844,886
489,9	33848
490,4	33841,143
490,8	33819,714
491,3	33810,2
491,7	33767,571
492,2	33715,857
492,6	33660,143
493,1	33584,229
493,5	33503,714
494	33425,743
494,4	33323,286
494,9	33231,029
495,3	33136,4
495,8	33030,257
496,2	32922,286
496,7	32813,114
497,1	32695,6
497,6	32576,371
498	32435,914
498,5	32282,629
498,9	32149,629
499,4	32019,857
499,8	31866,143
500,3	31717,8
500,7	31558,943
501,2	31400,829
501,6	31238,257
502,1	31063,829
502,5	30884,6
503	30711,857
503,4	30519,229
503,9	30338,914
504,3	30149,114
504,8	29970,6
505,2	29784,057
505,7	29581,8
506,1	29370,086
506,6	29156,086
507	28949,943
507,5	28742,771
507,9	28525,029
508,4	28300,029
508,8	28078,314
509,3	27865,543
509,7	27645,829
510,2	27406,914
510,6	27186,886
511,1	26942,514
511,5	26708,886
512	26467
512,4	26228,4
512,9	25988,029
513,3	25755,657
513,8	25495,886
514,2	25253,457
514,7	25006,2
515,1	24774,171
515,6	24547,629
516	24312,314
516,5	24064,4
516,9	23823,429
517,4	23585,743
517,8	23357,8
518,3	23112,857
518,7	22853,343
519,2	22599,914
519,6	22365,6
520,1	22138,2
520,5	21897,029
521	21650,971
521,4	21416,943
521,9	21186,6
522,3	20974,771
522,8	20738,143
523,2	20514,829
523,7	20294,2
524,1	20075,086
524,6	19850,971
525	19625,114
525,5	19398,429
525,9	19194,657
526,4	18973,029
526,8	18757,143
527,3	18543,257
527,7	18328,114
528,2	18121,829
528,6	17914,914
529,1	17707,486
529,5	17497,886
530	17295
530,4	17096,829
530,9	16907,057
531,3	16716,829
531,8	16528,2
532,2	16334,657
532,6	16160,714
533,1	15980,457
533,5	15795,971
534	15621,029
534,4	15448,457
534,9	15267,971
535,3	15094,371
535,8	14912,086
536,2	14748,514
536,7	14586,371
537,1	14406,114
537,6	14231,229
538	14075,171
538,5	13919,743
538,9	13765,571
539,4	13597,686
539,8	13433,857
540,3	13285,314
540,7	13140,257
541,2	12978,714
541,6	12828,771
542,1	12692,343
542,5	12558,543
543	12425,029
543,4	12288,4
543,9	12150,657
544,3	12023,543
544,8	11898,114
545,2	11757,829
545,7	11625,743
546,1	11504,286
546,5	11382,429
547	11258,057
547,4	11127,629
547,9	11002,6
548,3	10881,886
548,8	10768,771
549,2	10649,114
549,7	10527,943
550,1	10416,229
550,6	10310,343
551	10193,4
551,5	10090,429
551,9	9974,486
552,4	9860,171
552,8	9762,743
553,3	9665,543
553,7	9576,829
554,2	9480,314
554,6	9378,8
555,1	9290,057
555,5	9199,743
555,9	9105,657
556,4	9011,714
556,8	8914,286
557,3	8822,143
557,7	8742,8
558,2	8658,914
558,6	8569,543
559,1	8487,2
559,5	8400,771
560	8326,4
560,4	8252,314
560,9	8169,229
561,3	8088,286
561,8	8015,771
562,2	7928,257
562,7	7848,857
563,1	7768,771
563,6	7697,657
564	7625,257
564,4	7543,371
564,9	7469,086
565,3	7403,657
565,8	7340,686
566,2	7274,971
566,7	7213,143
567,1	7154,686
567,6	7093,257
568	7025,229
568,5	6963,886
568,9	6895,143
569,4	6825,629
569,8	6752,6
570,3	6676,971
570,7	6622,971
571,1	6573,686
571,6	6511,657
572	6455,2
572,5	6392,771
572,9	6338,086
573,4	6289,971
573,8	6228,857
574,3	6168,257
574,7	6113,771
575,2	6066,086
575,6	6026,629
576,1	5978,171
576,5	5920,429
576,9	5860,371
577,4	5817,343
577,8	5763,829
578,3	5709,114
578,7	5652,057
579,2	5598,114
579,6	5547,943
580,1	5505,086
580,5	5447,086
581	5407,571
581,4	5363,371
581,9	5321,229
582,3	5268,971
582,7	5227,371
583,2	5186,571
583,6	5148,8
584,1	5114,057
584,5	5063
585	5015,571
585,4	4976,371
585,9	4927,314
586,3	4887,229
586,8	4840,286
587,2	4790,057
587,6	4755,629
588,1	4716,514
588,5	4676,2
589	4638,486
589,4	4595,514
589,9	4561,457
590,3	4526,743
590,8	4488,457
591,2	4453,514
591,7	4419,886
592,1	4393,8
592,5	4364,286
593	4335,029
593,4	4294,514
593,9	4264,143
594,3	4231,514
594,8	4204,943
595,2	4176,171
595,7	4141,629
596,1	4113,629
596,6	4090,886
597	4062,771
597,4	4034,857
597,9	4002,057
598,3	3972,543
598,8	3946,143
599,2	3916,629
599,7	3890,686
600,1	3865,486
600,6	3836,6
601	3817,657
601,4	3789,971
601,9	3768,4
602,3	3740,829
602,8	3718,2
603,2	3691,257
603,7	3666,086
604,1	3639,657
604,6	3614,457
605	3588,8
605,4	3564,457
605,9	3533,086
606,3	3503,429
606,8	3474,629
607,2	3448,229
607,7	3417,657
608,1	3393,943
608,6	3369,771
609	3345,886
609,4	3324,514
609,9	3307,771
610,3	3283,8
610,8	3266,371
611,2	3242,429
611,7	3216,371
612,1	3192,086
612,6	3166,2
613	3138,829
613,4	3112,457
613,9	3092,857
614,3	3070,514
614,8	3043,257
615,2	3028,457
615,7	3013,971
616,1	2993,657
616,6	2980,2
617	2956,143
617,4	2932,314
617,9	2915,914
618,3	2890,086
618,8	2870,571
619,2	2854,314
619,7	2826,429
620,1	2808,429
620,5	2784,257
621	2763,429
621,4	2747,114
621,9	2720,629
622,3	2701,857
622,8	2683,171
623,2	2662,743
623,6	2649,143
624,1	2627,314
624,5	2604,314
625	2585,171
625,4	2565,086
625,9	2544,857
626,3	2523,543
626,8	2505,314
627,2	2494,371
627,6	2477,543
628,1	2459,2
628,5	2440,143
629	2427,314
629,4	2406,543
629,9	2387,914
630,3	2361,029
630,7	2347,657
631,2	2335,429
631,6	2316,343
632,1	2298,257
632,5	2291,257
633	2277,229
633,4	2267,543
633,8	2243,429
634,3	2221,657
634,7	2207,571
635,2	2192,571
635,6	2167,2
636,1	2147,114
636,5	2131,6
636,9	2117,8
637,4	2101,543
637,8	2084,714
638,3	2072,057
638,7	2059,314
639,2	2046,743
639,6	2030,686
640	2015,4
640,5	2008,343
640,9	1996,343
641,4	1981,143
641,8	1967,714
642,2	1956,229
642,7	1944,8
643,1	1933,743
643,6	1916,8
644	1906,286
644,5	1895,171
644,9	1883,514
645,3	1864,257
645,8	1844,257
646,2	1829,4
646,7	1814,057
647,1	1796,543
647,6	1778,057
648	1761,771
648,4	1757,314
648,9	1753,057
649,3	1745,714
649,8	1741,8
650,2	1733,057
650,6	1723,8
651,1	1713,8
651,5	1698,629
652	1691,943
652,4	1680,343
652,9	1666,657
653,3	1650,657
653,7	1639,229
654,2	1631,514
654,6	1621,6
655,1	1604,686
655,5	1589,2
655,9	1579,314
656,4	1572,114
656,8	1559,057
657,3	1546,486
657,7	1533,971
658,2	1522,171
658,6	1514,6
659	1498,229
659,5	1489,971
659,9	1483,571
660,4	1472,857
660,8	1459,2
661,2	1450,143
661,7	1439,343
662,1	1434,029
662,6	1422,8
663	1408,114
663,4	1400,543
663,9	1395,886
664,3	1379,914
664,8	1370,057
665,2	1360,6
665,6	1348,886
666,1	1338,514
666,5	1325,8
667	1307,343
667,4	1304,086
667,9	1296,914
668,3	1284,429
668,7	1268,2
669,2	1254,286
669,6	1244,171
670,1	1240,171
670,5	1230,457
670,9	1215,514
671,4	1200,4
671,8	1198,686
672,3	1195,829
672,7	1186,257
673,1	1177,943
673,6	1170
674	1162,229
674,5	1159,057
674,9	1149,057
675,3	1140,971
675,8	1133,057
676,2	1123,343
676,7	1113,4
677,1	1108,286
677,5	1102,4
678	1097,229
678,4	1091,514
678,9	1084,943
679,3	1079,543
679,7	1071,943
680,2	1062,4
680,6	1052,314
681,1	1042,057
681,5	1032,714
681,9	1024,743
682,4	1014,4
682,8	1003,6
683,3	1000,457
683,7	993,2
684,1	986,4
684,6	979,771
685	968,371
685,5	955,171
685,9	952,486
686,3	943,143
686,8	936,457
687,2	934,2
687,7	929,114
688,1	924,943
688,5	926,6
689	921,343
689,4	914,114
689,9	907,429
690,3	894,343
690,7	885,057
691,2	882,343
691,6	877,4
692	867,229
692,5	855,657
692,9	850,229
693,4	844,514
693,8	839,486
694,2	828,857
694,7	816,886
695,1	813,229
695,6	812,171
696	802,686
696,4	800,086
696,9	793,086
697,3	790,571
697,8	791,743
698,2	781,829
698,6	778,4
699,1	775,971
699,5	768,571
699,9	763,4
700,4	758,743
700,8	750,286
701,3	747,2
701,7	739,029
702,1	735,114
702,6	727,429
703	723,057
703,5	716,371
703,9	713,543
704,3	707,571
704,8	703
705,2	696,543
705,6	693,4
706,1	682,857
706,5	681,286
707	678,743
707,4	674,2
707,8	667,371
708,3	664,514
708,7	660,857
709,2	661,771
709,6	655,543
710	647,486
710,5	642,229
710,9	640,543
711,3	633,629
711,8	629,314
712,2	619,114
712,7	611,971
713,1	601,2
713,5	601,229
714	596,343
714,4	590,229
714,8	583,6
715,3	580,429
715,7	577,057
716,2	582,429
716,6	572,743
717	569,571
717,5	567,6
717,9	566,686
718,3	564,629
718,8	563,029
719,2	557,314
719,7	555,057
720,1	548,657
720,5	549,171
721	543,229
721,4	539,657
721,8	532,2
722,3	526,743
722,7	524,029
723,2	519,886
723,6	516,6
724	513,686
724,5	512,571
724,9	506,314
725,3	497,629
725,8	495,4
726,2	493,314
726,7	481,971
727,1	474,314
727,5	467,4
728	460,457
728,4	461,343
728,8	457,686
729,3	452,114
729,7	448,8
730,1	448,086
730,6	447,514
731	448,914
731,5	446,514
731,9	439,029
732,3	440,314
732,8	439,857
733,2	444,257
733,6	444,2
734,1	439,457
734,5	437,4
734,9	432,371
735,4	425,886
735,8	422,143
736,3	407,829
736,7	401,714
737,1	399,971
737,6	398,971
738	403,371
738,4	402,943
738,9	402,486
739,3	409,771
739,7	407,029
740,2	406,514
740,6	401,257
741,1	394
741,5	388,857
741,9	385
742,4	378,714
742,8	377,829
743,2	375,714
743,7	374,286
744,1	372,429
744,5	371,343
745	367,8
745,4	368,429
745,8	365,571
746,3	365,771
746,7	362,429
747,2	359,343
747,6	358,743
748	360,857
748,5	356,514
748,9	354,8
749,3	355,171
749,8	350,429
750,2	350,743
750,6	343,914
751,1	336
751,5	331,657
751,9	327,6
752,4	329,229
752,8	328,629
753,3	326,2
753,7	329,514
754,1	330,286
754,6	326,429
755	327,886
755,4	318,829
755,9	318,171
756,3	318,514
756,7	313,914
757,2	308,943
757,6	307,343
758	297,029
758,5	293,371
758,9	289,257
759,3	283,8
759,8	279,857
760,2	281,143
760,6	283,257
761,1	289,257
761,5	288,571
761,9	284,286
762,4	281,771
762,8	285,857
763,3	283,514
763,7	281,343
764,1	275,457
764,6	272,714
765	275,286
765,4	280,686
765,9	272,429
766,3	269,314
766,7	266,629
767,2	265,257
767,6	266
768	261,086
768,5	252,371
768,9	252,171
769,3	253,6
769,8	249,714
770,2	245,829
770,6	240,2
771,1	234,2
771,5	237,343
771,9	238,143
772,4	232,314
772,8	230,229
773,2	232,286
773,7	231,629
774,1	238,486
774,5	236,314
775	234,714
775,4	236,657
775,8	235,8
776,3	234,143
776,7	232,286
777,1	228,057
777,6	222,657
778	216,371
778,4	213,371
778,9	213,2
779,3	212,771
779,7	212,486
780,2	213,486
780,6	216,943
781	220,6
781,5	217,486
781,9	214,514
782,3	212,057
782,8	212,343
783,2	209,057
783,6	205,714
784,1	203,114
784,5	202,171
784,9	202,257
785,4	201,6
785,8	200,171
786,2	198,4
786,7	196,714
787,1	201,6
787,5	202,2
788	197,057
788,4	198,114
788,8	195
789,3	194,257
789,7	191,886
790,1	189,629
790,6	187,114
791	186,657
791,4	184,886
791,9	185,2
792,3	183,457
792,7	188,343
793,2	183,514
793,6	183,8
794	184,829
794,5	182,314
794,9	184,514
795,3	183,2
795,8	177,314
796,2	166,714
796,6	166,171
797,1	171,114
797,5	165,886
797,9	162,514
798,4	162,343
798,8	162,886
799,2	171,143
799,7	166,371
800,1	163,057
800,5	166,371
801	165,514
801,4	163,657
801,8	161,314
802,2	158,886
802,7	160,086
803,1	156,543
803,5	153,4
804	148,686
804,4	149
804,8	148,229
805,3	144,2
805,7	144,143
806,1	142,029
806,6	144,514
807	142,143
807,4	142,171
807,9	137,171
808,3	137,314
808,7	134,371
809,2	134,486
809,6	133,686
810	134,257
810,4	129,6
810,9	135,086
811,3	138,714
811,7	134,857
812,2	132,2
812,6	126,086
813	130,886
813,5	134,229
813,9	129,143
814,3	122,971
814,8	127,229
815,2	129,857
815,6	131,171
816,1	128,4
816,5	126,314
816,9	126,429
817,3	127,343
817,8	125,971
818,2	122,543
818,6	121,914
819,1	117,857
819,5	114,343
819,9	113,457
820,4	115,343
820,8	113,257
821,2	111,829
821,7	111,171
822,1	110,714
822,5	114,714
822,9	115,8
823,4	113,429
823,8	114,114
824,2	116,143
824,7	113,229
825,1	109,914
825,5	104,286
826	98,429
826,4	97,543
826,8	92,429
827,3	91,914
827,7	92,829
828,1	95
828,5	100,714
829	102,371
829,4	97,286
829,8	101,286
830,3	96,314
830,7	94,143
831,1	89,857
831,6	82,429
832	81,943
832,4	82,771
832,8	80,543
833,3	81,857
833,7	79,629
834,1	86,257
834,6	86,457
835	88,343
835,4	86,857
835,8	87,8
836,3	87,257
836,7	88,457
837,1	79,686
837,6	75,229
838	73,029
838,4	71,6
838,9	70,571
839,3	73,457
839,7	76,029
840,1	80,457
840,6	82,343
841	73,943
841,4	75,486
841,9	74,371
842,3	69,314
842,7	65,429
843,1	65,114
843,6	69,514
844	76,714
844,4	76,486
844,9	72,857
845,3	72,114
845,7	70,2
846,2	71,514
846,6	68,857
847	69,6
847,4	73,629
847,9	76,086
848,3	74
848,7	77,4
849,2	73,4
849,6	71,714
850	68,514
850,4	64,486
850,9	62
851,3	63,971
851,7	59,086
852,2	56,714
852,6	60,257
853	61,029
853,4	59,857
853,9	60,029
854,3	61,886
854,7	66,343
855,2	70,2
855,6	65,943
856	70,143
856,4	70,457
856,9	71,343
857,3	69,114
857,7	65,171
858,2	61
858,6	60,314
859	53,743
859,4	52,114
859,9	52,086
860,3	50,543
860,7	52,229
861,1	59,486
861,6	62,143
862	62,571
862,4	61,971
862,9	62,514
863,3	60,371
863,7	59,114
864,1	50,057
864,6	50,771
865	49,571
865,4	50,629
865,9	50,429
866,3	52,714
866,7	48,8
867,1	51,857
867,6	50,171
868	46,086
868,4	43,486
868,8	41,457
869,3	42,371
869,7	48
870,1	50,514
870,6	49,029
871	59,371
871,4	62,457
871,8	63,229
872,3	60,257
872,7	56,857
873,1	50,686
873,5	46,686
874	44,143
874,4	43,857
874,8	41,429
875,3	42,029
875,7	40,343
876,1	43,343
876,5	47,943
877	43,486
877,4	40,486
877,8	42,343
878,2	47,543
878,7	52,057
879,1	47,086
879,5	44,057
879,9	41,657
880,4	40,371
880,8	44,771
881,2	33,686
881,7	30,686
882,1	35,686
882,5	36,686
882,9	38,914
883,4	43,6
883,8	38,886
884,2	41,543
884,6	35,686
885,1	32,257
885,5	33,771
885,9	31,857
886,3	27,514
886,8	26,543
887,2	29,229
887,6	33,343
888	36,4
888,5	33,343
888,9	29,971
889,3	29,6
889,8	31,4
890,2	28,371
890,6	27,629
891	25,8
891,5	25,6
891,9	30,571
892,3	31,829
892,7	25,314
893,2	26,486
893,6	21,657
894	20,029
894,4	18,857
894,9	19,314
895,3	17,114
895,7	23,543
896,1	22,971
896,6	27,6
897	30,486
897,4	30,943
897,8	29,114
898,3	32,914
898,7	30,829
899,1	32,971
899,5	35,657
900	32,371
900,4	30,686
900,8	20,457
901,2	14,514
901,7	13,8
902,1	13,457
902,5	13,286
902,9	13
903,4	14,771
903,8	23
904,2	27,857
904,6	26,171
905,1	24,914
905,5	21,857
905,9	19,229
906,3	19,743
906,8	19,829
907,2	18,029
907,6	20,086
908	19,943
908,5	15,857
908,9	20,629
909,3	21,086
909,7	25,143
910,2	23,571
910,6	23,686
911	27,029
911,4	31,714
911,9	31
912,3	28,829
912,7	29
913,1	28,829
913,6	26,914
914	25,543
914,4	26,543
914,8	30,429
915,3	31,857
915,7	27,2
916,1	26,886
916,5	24,429
916,9	20,343
917,4	17,429
917,8	10,943
918,2	7,8
918,6	8,2
919,1	4,371
919,5	7,057
919,9	12,8
920,3	12,514
920,8	17,686
921,2	21,171
921,6	21,571
922	26,6
922,5	28,743
922,9	23,914
923,3	27,971
923,7	25,629
924,2	28,486
924,6	27,914
925	26,486
925,4	27
925,8	31,371
926,3	29,2
926,7	26,143
927,1	22,8
927,5	22,114
928	23,543
928,4	18,457
928,8	17,743
929,2	17,657
929,7	23,371
930,1	21,543
930,5	22,257
930,9	23,114
931,3	29,229
931,8	26,686
932,2	24,171
932,6	18,857
933	16,371
933,5	19,171
933,9	18,2
934,3	14,343
934,7	15,514
935,2	14,086
935,6	11,914
936	8,543
936,4	5,457
936,8	6,429
937,3	6,371
937,7	3,686
938,1	5,114
938,5	6,143
939	13
939,4	14,171
939,8	8,686
940,2	7,543
940,6	9,771
941,1	9,886
941,5	9,657
941,9	8
942,3	6,171
942,8	13,086
943,2	5,514
943,6	3,2
944	2,486
944,4	1,4
944,9	1,6
945,3	3,686
945,7	4,714
946,1	12,229
946,6	9,629
947	12,886
947,4	11,2
947,8	11,829
948,2	11,829
948,7	8,886
949,1	10,2
949,5	10
949,9	7,057
950,3	7,343
950,8	6,229
951,2	2,657
951,6	1,571
952	1,857
952,5	2,286
952,9	2
953,3	4,286
953,7	2,514
954,1	7,514
954,6	8,829
955	8
955,4	9,229
955,8	14,057
956,2	15,686
956,7	13,971
957,1	16,086
957,5	16,086
957,9	13,857
958,3	13,657
958,8	10,229
959,2	13,086
959,6	24,314
960	17,886
960,5	12,8
960,9	17,629
961,3	19,257
961,7	25,829
962,1	22,171
962,6	14,543
963	19,143
963,4	27,4
963,8	25,829
964,2	23,171
964,7	17,657
965,1	21,429
965,5	28,257
965,9	22,029
966,3	20,029
966,8	17,486
967,2	17,686
967,6	17,8
968	14,314
968,4	12,571
968,9	14,571
969,3	16,714
969,7	12,543
970,1	14,571
970,5	13,914
971	16,8
971,4	9,229
971,8	6,971
972,2	-1,143
972,6	4,257
973,1	4,343
973,5	2,086
973,9	-2,143
974,3	3,286
974,7	6,914
975,2	9,771
975,6	9,229
976	9,114
976,4	13,257
976,8	15,943
977,3	11,657
977,7	10,371
978,1	9,886
978,5	9,914
978,9	10,171
979,4	8,343
979,8	6,771
980,2	11,171
980,6	11,371
981	10,886
981,5	7,857
981,9	9
982,3	9,486
982,7	9,6
983,1	7,229
983,6	9,343
984	10,743
984,4	11,143
984,8	9,914
985,2	10,886
985,6	8,543
986,1	5
986,5	3,514
986,9	1,886
987,3	0,457
987,7	0,6
988,2	-5,286
988,6	-2,486
989	3,4
989,4	0,143
989,8	0,743
990,3	3,486
990,7	3,029
991,1	1,914
991,5	0,086
991,9	-7,771
992,3	-8,171
992,8	-10,714
993,2	-12,943
993,6	-18,829
994	-10,486
994,4	-8,343
994,9	-5,229
995,3	-1,571
995,7	0,4
996,1	3,8
996,5	7,886
996,9	5,6
997,4	2,771
997,8	6,429
998,2	6,8
998,6	7,086
999	6,086
999,5	6,571
999,9	5,943
1000,3	6,114
1000,7	7,257
1001,1	7,8
1001,5	11,086
1002	12,314
1002,4	12,829
1002,8	12,371
1003,2	10,571
1003,6	7,257
1004	6,943
1004,5	2,6
1004,9	0,629
1005,3	1,543
1005,7	6,171
1006,1	5,314
1006,6	7,686
1007	5,714
1007,4	6,8
1007,8	8,371
1008,2	11,229
1008,6	4,571
1009,1	7,8
1009,5	7,457
1009,9	8,657
1010,3	8,829
1010,7	10,829
1011,1	8,543
1011,6	7,371
1012	11,057
1012,4	10,114
1012,8	6,8
1013,2	4,8
1013,6	1,429
1014,1	-0,743
1014,5	3,314
1014,9	-0,771
1015,3	-1,657
1015,7	7,2
1016,1	8,8
1016,6	12,4
1017	13,943
1017,4	10,686
1017,8	15,114
1018,2	13,543
1018,6	5,857
1019,1	7,114
1019,5	2,857
1019,9	6,857
1020,3	7,714
1020,7	7,143
1021,1	5,229
1021,6	5,286
1022	3,4
1022,4	5,314
1022,8	-1,429
1023,2	-3,514
1023,6	-6,543
1024,1	1,457
1024,5	6,486
1024,9	8,514
1025,3	9,6
1025,7	9,514
1026,1	11,286
1026,6	13,971
1027	7,429
1027,4	4,571
1027,8	2,429
1028,2	2,371
1028,6	-0,257
1029	-4,029
1029,5	-8,686
1029,9	-3,171
1030,3	-7,229
1030,7	-0,543
1031,1	2,314
1031,5	9,114
1032	15
1032,4	19,971
1032,8	12,371
1033,2	13,314
1033,6	6,371
1034	-2,8
1034,4	-3,714
1034,9	0,8
1035,3	0,857
1035,7	2,743
1036,1	7,114
1036,5	6,686
1036,9	11,8
1037,4	13,457
1037,8	5,8
1038,2	4,429
1038,6	6,343
1039	7,514
1039,4	12,457
1039,8	14,829
1040,3	14,057
1040,7	18,457
1041,1	14,914
1041,5	22,429
1041,9	21,914
1042,3	20,514
1042,7	16,629
1043,2	18,657
1043,6	21,029
1044	28,029
1044,4	24,171
1044,8	22,343
1045,2	19,371
1045,6	24,8
1046,1	20,571
1046,5	13,429
1046,9	8,857
1047,3	6,714
1047,7	6,2
1048,1	4,943
1048,5	2,257
1049	1,229
1049,4	1,429
1049,8	6,086
1050,2	3,543
1050,6	2,143
1051	9,257
1051,4	7,171
1051,9	8,743
1052,3	12,943
1052,7	7,6
1053,1	6,029
1053,5	6,8
1053,9	3,429
1054,3	-2,6
1054,8	-4,857
1055,2	-3,029
1055,6	0,171
1056	2,686
1056,4	-1,314
1056,8	-6,257
1057,2	-2,657
1057,6	2,314
1058,1	4,829
1058,5	-1,486
1058,9	-1,543
1059,3	2,257
1059,7	7,943
1060,1	9,8
1060,5	10,8
1061	4,371
1061,4	4,8
1061,8	4,914
1062,2	5,143
1062,6	2,971
1063	6,6
1063,4	3,743
1063,8	4,029
1064,3	15,286
1064,7	16,6
1065,1	17,857
1065,5	19,457
1065,9	19,143
1066,3	17,714
1066,7	20,143
1067,1	10,686
1067,6	10,829
1068	15,171
1068,4	15,029
1068,8	12,714
1069,2	14,6
1069,6	10,971
1070	14,057
1070,4	9,829
1070,9	6,943
1071,3	10,829
1071,7	7,571
1072,1	1,343
1072,5	8,314
1072,9	9,086
1073,3	10,143
1073,7	6,086
1074,2	1,571
1074,6	4,857
1075	13,057
1075,4	9,943
1075,8	4,629
1076,2	8,371
1076,6	8,514
1077	11,286
1077,5	15,971
1077,9	10,6
1078,3	3,429
1078,7	5,314
1079,1	6,229
1079,5	10,543
1079,9	8,143
1080,3	4,143
1080,7	6,714
1081,2	12,543
1081,6	11,371
1082	12,257
1082,4	9,029
1082,8	12,6
1083,2	9,086
1083,6	7,714
1084	7,514
1084,5	9,571
1084,9	3,4
1085,3	1,857
1085,7	-5,229
1086,1	-2,943
1086,5	-4,257
1086,9	-2,629
1087,3	2,714
1087,7	9,2
1088,2	11,771
1088,6	16,457
1089	19,057
1089,4	24,829
1089,8	19,6
1090,2	12,286
1090,6	5,314
1091	4,6
1091,4	2,8
1091,9	2,514
1092,3	0,6
1092,7	0,686
1093,1	2,314
1093,5	5,114
1093,9	5,057
1094,3	5,629
1094,7	0,543
1095,1	3,086
1095,5	6,171
1096	7,371
1096,4	9,229
1096,8	10,714
1097,2	7,343
1097,6	14,743
1098	9,829
1098,4	12,6
1098,8	12,543
1099,2	12,143
1099,6	12,029
1100,1	14,829
1100,5	10,171
1100,9	9,343
1101,3	6,314
1101,7	6,6
1102,1	7,429
1102,5	4,571
1102,9	2,286
1103,3	3,657
1103,7	6,114
1104,2	4,6
1104,6	4,686
1105	0,886
1105,4	3,171
1105,8	4,971
1106,2	3,457
1106,6	1,771
1107	2,029
1107,4	0,433
1107,8	1,92
1108,3	0,55
