Data from Subt2_00045.txt Node
Date: Mon Aug 28 13:18:46 MSK 2023
User: vat
Spectrometer: MAYP114033
Trigger mode: 0
Integration Time (sec): 1,000000E0
Scans to average: 5
Electric dark correction enabled: true
Nonlinearity correction enabled: false
Boxcar width: 3
XAxis mode: Wavelengths
Number of Pixels in Spectrum: 2068
>>>>>Begin Spectral Data<<<<<
199,4	-0,167
199,9	1,033
200,4	0,3
200,8	2,605
201,3	5,862
201,8	9,748
202,2	11,433
202,7	13,776
203,2	15,548
203,6	18,576
204,1	22,233
204,6	23,833
205	25,919
205,5	27,919
206	27,433
206,4	28,49
206,9	29,262
207,4	25,776
207,8	23,319
208,3	21,69
208,8	21,805
209,2	24,662
209,7	19,49
210,2	14,09
210,6	16,719
211,1	16,233
211,5	17,662
212	19,119
212,5	17,405
212,9	24,405
213,4	30,976
213,9	30,49
214,3	31,862
214,8	34,519
215,3	30,405
215,7	30,433
216,2	28,405
216,7	27,348
217,1	28,776
217,6	28,005
218,1	20,033
218,5	23,405
219	21,948
219,5	23,262
219,9	20,976
220,4	19,662
220,9	20,69
221,3	22,262
221,8	21,633
222,3	27,862
222,7	27,433
223,2	29,462
223,6	27,89
224,1	25,633
224,6	25,29
225	21,176
225,5	18,29
226	18,205
226,4	17,633
226,9	17,433
227,4	19,09
227,8	21,576
228,3	23,805
228,8	23,633
229,2	26,919
229,7	26,662
230,2	22,976
230,6	22,805
231,1	21,719
231,5	24,433
232	25,09
232,5	19,976
232,9	19,119
233,4	24,062
233,9	26,633
234,3	27,005
234,8	24,29
235,3	18,833
235,7	21,748
236,2	23,29
236,7	18,262
237,1	20,576
237,6	21,005
238,1	23,462
238,5	31,49
239	29,376
239,4	31,433
239,9	35,662
240,4	32,862
240,8	31,176
241,3	34,919
241,8	31,833
242,2	30,833
242,7	32,405
243,2	31,062
243,6	35,09
244,1	34,119
244,6	33,662
245	32,919
245,5	35,89
245,9	25,319
246,4	27,176
246,9	23,976
247,3	26,776
247,8	22,205
248,3	21,89
248,7	22,976
249,2	28,919
249,7	30,433
250,1	26,29
250,6	27,576
251	25,633
251,5	25,119
252	21,433
252,4	22,976
252,9	19,833
253,4	25,89
253,8	21,89
254,3	26,005
254,8	28,748
255,2	28,748
255,7	28,176
256,1	30,519
256,6	29,405
257,1	31,519
257,5	33,148
258	26,462
258,5	28,576
258,9	30,09
259,4	29,548
259,9	25,919
260,3	26,405
260,8	24,29
261,2	27,776
261,7	27,119
262,2	27,548
262,6	26,576
263,1	30,29
263,6	28,119
264	25,976
264,5	28,262
264,9	29,176
265,4	29,148
265,9	29,405
266,3	31,119
266,8	33,405
267,3	33,233
267,7	32,948
268,2	29,519
268,7	31,433
269,1	29,205
269,6	26,176
270	28,919
270,5	28,29
271	27,29
271,4	28,29
271,9	28,976
272,4	34,348
272,8	34,748
273,3	33,062
273,7	33,69
274,2	34,376
274,7	34,462
275,1	30,433
275,6	28,89
276,1	26,805
276,5	27,376
277	27,233
277,4	28,633
277,9	30,519
278,4	28,776
278,8	26,148
279,3	28,29
279,8	25,09
280,2	28,862
280,7	24,29
281,1	22,233
281,6	22,548
282,1	23,176
282,5	22,49
283	20,148
283,4	17,662
283,9	18,176
284,4	20,948
284,8	21,633
285,3	23,719
285,8	26,519
286,2	26,719
286,7	24,862
287,1	25,348
287,6	23,262
288,1	28,948
288,5	29,948
289	25,576
289,5	27,576
289,9	34,319
290,4	35,576
290,8	34,833
291,3	32,405
291,8	33,176
292,2	33,976
292,7	34,548
293,1	27,976
293,6	25,89
294,1	31,09
294,5	25,348
295	23,005
295,5	23,69
295,9	21,719
296,4	23,319
296,8	26,89
297,3	24,462
297,8	23,29
298,2	26,805
298,7	26,576
299,1	29,576
299,6	27,719
300,1	29,176
300,5	25,062
301	31,748
301,5	24,319
301,9	22,948
302,4	19,233
302,8	20,89
303,3	18,205
303,8	23,462
304,2	21,519
304,7	28,148
305,1	28,348
305,6	33,833
306,1	34,348
306,5	37,176
307	33,89
307,4	34,09
307,9	29,433
308,4	29,776
308,8	27,919
309,3	30,948
309,8	32,148
310,2	34,29
310,7	35,976
311,1	36,976
311,6	35,405
312,1	34,148
312,5	28,348
313	21,033
313,4	21,262
313,9	16,833
314,4	19,033
314,8	21,462
315,3	23,976
315,7	26,148
316,2	29,148
316,7	23,719
317,1	26,433
317,6	24,405
318	23,748
318,5	27,862
319	28,205
319,4	29,519
319,9	31,205
320,3	29,662
320,8	30,833
321,3	29,605
321,7	21,29
322,2	23,205
322,6	20,062
323,1	20,376
323,6	25,89
324	25,176
324,5	27,948
324,9	29,376
325,4	28,605
325,9	29,49
326,3	35,176
326,8	28,062
327,2	28,576
327,7	26,89
328,2	26,233
328,6	25,005
329,1	25,548
329,5	23,119
330	25,462
330,5	24,833
330,9	26,433
331,4	31,205
331,8	32,519
332,3	32,69
332,8	30,119
333,2	33,776
333,7	31,833
334,1	33,348
334,6	34,49
335,1	35,548
335,5	34,005
336	30,948
336,4	32,519
336,9	33,976
337,4	36,205
337,8	34,119
338,3	30,69
338,7	30,348
339,2	36,89
339,7	30,919
340,1	27,233
340,6	19,319
341	16,09
341,5	20,462
342	21,033
342,4	22,176
342,9	24,233
343,3	26,319
343,8	29,262
344,2	32,462
344,7	34,948
345,2	34,719
345,6	30,176
346,1	27,262
346,5	27,433
347	27,205
347,5	25,176
347,9	17,433
348,4	17,233
348,8	17,233
349,3	26,976
349,8	32,89
350,2	38,405
350,7	39,033
351,1	47,605
351,6	53,862
352	57,862
352,5	57,89
353	56,348
353,4	60,233
353,9	64,376
354,3	66,662
354,8	73,519
355,3	86,633
355,7	92,405
356,2	105,662
356,6	119,148
357,1	137,262
357,5	158,919
358	181,633
358,5	207,033
358,9	237,976
359,4	277,29
359,8	318,176
360,3	364,776
360,8	415,748
361,2	470,062
361,7	523,348
362,1	588,919
362,6	655,833
363	726,405
363,5	807,09
364	889,49
364,4	978,29
364,9	1066,405
365,3	1154,262
365,8	1240,948
366,3	1318,176
366,7	1388,49
367,2	1449,748
367,6	1504,462
368,1	1550,148
368,5	1575,233
369	1588,89
369,5	1591,719
369,9	1580,919
370,4	1557,205
370,8	1520,576
371,3	1472,69
371,7	1424,062
372,2	1368,405
372,7	1307,205
373,1	1244,548
373,6	1174,576
374	1098,633
374,5	1030,519
374,9	962,719
375,4	889,119
375,9	821,633
376,3	754,919
376,8	699,433
377,2	646,148
377,7	595,776
378,2	544,033
378,6	504,833
379,1	467,262
379,5	428,005
380	390,005
380,4	358,719
380,9	333,576
381,4	313,776
381,8	294,605
382,3	274,605
382,7	258,833
383,2	244,662
383,6	233,319
384,1	217,119
384,6	206,062
385	188,605
385,5	177,719
385,9	168,262
386,4	162,176
386,8	150,519
387,3	141,462
387,7	129,633
388,2	122,433
388,7	116,605
389,1	107,148
389,6	101,805
390	98,433
390,5	96,376
390,9	91,433
391,4	85,205
391,9	81,833
392,3	85,919
392,8	82,776
393,2	85,205
393,7	81,319
394,1	79,233
394,6	82,776
395,1	79,09
395,5	72,633
396	68,548
396,4	66,633
396,9	66,376
397,3	67,833
397,8	61,805
398,2	59,462
398,7	60,948
399,2	62,348
399,6	58,633
400,1	59,033
400,5	62,29
401	68,49
401,4	71,776
401,9	71,205
402,4	74,462
402,8	75,605
403,3	75,062
403,7	74,633
404,2	75,719
404,6	76,348
405,1	81,033
405,5	75,919
406	79,148
406,5	85,519
406,9	85,976
407,4	90,662
407,8	99,976
408,3	100,833
408,7	109,862
409,2	115,89
409,6	118,005
410,1	122,09
410,6	123,576
411	124,719
411,5	134,376
411,9	141,919
412,4	149,548
412,8	155,433
413,3	168,348
413,7	185,548
414,2	200,205
414,7	215,062
415,1	222,633
415,6	233,833
416	250,462
416,5	262,005
416,9	274,519
417,4	291,405
417,8	300,09
418,3	319,319
418,8	339,548
419,2	358,462
419,7	381,262
420,1	400,748
420,6	417,062
421	447,89
421,5	472,605
421,9	500,919
422,4	530,862
422,8	557,348
423,3	586,062
423,8	616,462
424,2	641,348
424,7	671,862
425,1	696,748
425,6	730,519
426	766,833
426,5	804,49
426,9	849,033
427,4	893,805
427,9	943,69
428,3	997,348
428,8	1047,148
429,2	1102,49
429,7	1159,348
430,1	1215,29
430,6	1280,233
431	1348,805
431,5	1419,233
431,9	1489,948
432,4	1565,49
432,8	1646,148
433,3	1732,633
433,8	1821,89
434,2	1908,662
434,7	2002,062
435,1	2101,89
435,6	2207,205
436	2319,062
436,5	2428,348
436,9	2547,69
437,4	2669,148
437,8	2798,605
438,3	2929,776
438,8	3070,376
439,2	3212,633
439,7	3366,348
440,1	3517,776
440,6	3676,748
441	3832,548
441,5	4007,748
441,9	4183,719
442,4	4361,319
442,8	4550,633
443,3	4748,462
443,7	4950,319
444,2	5157,319
444,7	5370,69
445,1	5583,719
445,6	5816,89
446	6045,348
446,5	6279,319
446,9	6524,805
447,4	6778,576
447,8	7036,09
448,3	7307,205
448,7	7564,29
449,2	7832,005
449,6	8102,576
450,1	8383,033
450,6	8676,862
451	8964,005
451,5	9252,633
451,9	9569,49
452,4	9884,519
452,8	10209,29
453,3	10519,862
453,7	10839,148
454,2	11173,576
454,6	11519,148
455,1	11849,748
455,5	12184,376
456	12528,376
456,4	12898,633
456,9	13254,09
457,3	13610,776
457,8	13970,576
458,3	14345,29
458,7	14725,719
459,2	15115,805
459,6	15493,319
460,1	15896,662
460,5	16278,519
461	16662,433
461,4	17041,119
461,9	17421,433
462,3	17809,176
462,8	18196,948
463,2	18581,262
463,7	18980,805
464,1	19360,662
464,6	19739,605
465	20128,919
465,5	20499,433
466	20882,919
466,4	21238,49
466,9	21604,376
467,3	21981,919
467,8	22359,405
468,2	22728,548
468,7	23104,348
469,1	23480,605
469,6	23861,805
470	24233,919
470,5	24581,976
470,9	24935,348
471,4	25277,519
471,8	25599,148
472,3	25908,662
472,7	26233,462
473,2	26554,062
473,6	26865,319
474,1	27172,148
474,5	27484,662
475	27781,576
475,4	28081,262
475,9	28357,405
476,4	28626,033
476,8	28907,805
477,3	29173,09
477,7	29424,148
478,2	29654,605
478,6	29880,633
479,1	30098,662
479,5	30309,976
480	30503,548
480,4	30681,319
480,9	30867,576
481,3	31062,833
481,8	31243,833
482,2	31417,233
482,7	31562,462
483,1	31715,005
483,6	31859,033
484	31976,405
484,5	32089,719
484,9	32184,005
485,4	32261,976
485,8	32338,148
486,3	32408,033
486,7	32471,062
487,2	32526,948
487,6	32552,919
488,1	32574,348
488,5	32612,976
489	32638,376
489,4	32651,89
489,9	32636,519
490,4	32620,89
490,8	32628,376
491,3	32609,376
491,7	32575,605
492,2	32550,919
492,6	32481,862
493,1	32423,89
493,5	32354,862
494	32252,576
494,4	32168,405
494,9	32060,09
495,3	31940,576
495,8	31851,462
496,2	31753,033
496,7	31631,576
497,1	31525,548
497,6	31395,462
498	31272,319
498,5	31163,805
498,9	31022,09
499,4	30891,49
499,8	30745,833
500,3	30612,948
500,7	30466,948
501,2	30309,462
501,6	30148,748
502,1	29974,033
502,5	29799,49
503	29646,89
503,4	29463,976
503,9	29294,033
504,3	29113,805
504,8	28906,033
505,2	28738,89
505,7	28542,062
506,1	28340,605
506,6	28130,348
507	27906,976
507,5	27702,948
507,9	27491,719
508,4	27274,49
508,8	27068,405
509,3	26853,005
509,7	26630,519
510,2	26424,948
510,6	26199,633
511,1	26001,233
511,5	25763,719
512	25539,605
512,4	25306,033
512,9	25090,348
513,3	24863,005
513,8	24630,605
514,2	24368,49
514,7	24144,462
515,1	23901,09
515,6	23669,319
516	23434,148
516,5	23194,49
516,9	22964,062
517,4	22746,748
517,8	22513,062
518,3	22286,033
518,7	22056,833
519,2	21828,89
519,6	21605,062
520,1	21373,948
520,5	21139,862
521	20907,433
521,4	20683,262
521,9	20457,69
522,3	20229,49
522,8	20007,605
523,2	19788,49
523,7	19571,29
524,1	19355,09
524,6	19130,948
525	18921,948
525,5	18714,862
525,9	18506,948
526,4	18303,405
526,8	18089,919
527,3	17884,176
527,7	17688,805
528,2	17480,605
528,6	17289,89
529,1	17086,576
529,5	16896,262
530	16713,119
530,4	16530,062
530,9	16340,69
531,3	16156,519
531,8	15962,119
532,2	15777,233
532,6	15585,662
533,1	15399,376
533,5	15225,633
534	15053,519
534,4	14883,862
534,9	14715,29
535,3	14553,548
535,8	14399,348
536,2	14241,319
536,7	14075,148
537,1	13901,776
537,6	13748,319
538	13589,148
538,5	13436,948
538,9	13269,119
539,4	13123,348
539,8	12971,233
540,3	12832,548
540,7	12675,462
541,2	12536,233
541,6	12388,033
542,1	12260,576
542,5	12123,576
543	11996,033
543,4	11855,462
543,9	11739,748
544,3	11602,29
544,8	11473,805
545,2	11342,348
545,7	11209,062
546,1	11073,633
546,5	10953,033
547	10815,719
547,4	10693,09
547,9	10578,519
548,3	10464,805
548,8	10355,005
549,2	10244,662
549,7	10144,033
550,1	10046,433
550,6	9943,205
551	9835,576
551,5	9731,49
551,9	9633,062
552,4	9536,005
552,8	9442,262
553,3	9336,662
553,7	9248,062
554,2	9150,005
554,6	9062,233
555,1	8962,205
555,5	8878,605
555,9	8783,148
556,4	8694,348
556,8	8608,948
557,3	8519,605
557,7	8430,548
558,2	8358,548
558,6	8272,119
559,1	8189,119
559,5	8120,033
560	8039,49
560,4	7971,205
560,9	7898,49
561,3	7816,89
561,8	7740,319
562,2	7664,405
562,7	7579,805
563,1	7502,69
563,6	7430,833
564	7356,833
564,4	7286,005
564,9	7221,548
565,3	7154,119
565,8	7086,262
566,2	7022,919
566,7	6963,49
567,1	6897,948
567,6	6832,29
568	6778,262
568,5	6718,09
568,9	6659,576
569,4	6593,433
569,8	6523,833
570,3	6460,862
570,7	6398,976
571,1	6324,433
571,6	6272,09
572	6220,633
572,5	6163,462
572,9	6117,148
573,4	6063,376
573,8	6013,233
574,3	5958,205
574,7	5904,49
575,2	5852,69
575,6	5811,29
576,1	5759,976
576,5	5709,205
576,9	5655,862
577,4	5614,719
577,8	5557,519
578,3	5508,805
578,7	5450,919
579,2	5401,576
579,6	5355,633
580,1	5313,862
580,5	5271,462
581	5234,462
581,4	5195,805
581,9	5159,948
582,3	5111,662
582,7	5071,033
583,2	5027,29
583,6	4983,005
584,1	4940,119
584,5	4888,805
585	4840,576
585,4	4797,062
585,9	4753,662
586,3	4717,919
586,8	4673,29
587,2	4635,29
587,6	4595,805
588,1	4561,805
588,5	4530,89
589	4495,719
589,4	4450,633
589,9	4413,833
590,3	4376,29
590,8	4349,576
591,2	4309,148
591,7	4275,662
592,1	4244,233
592,5	4215,69
593	4188,519
593,4	4150,976
593,9	4112,748
594,3	4090,519
594,8	4055,89
595,2	4026,605
595,7	3997,805
596,1	3974,005
596,6	3946,605
597	3923,576
597,4	3890,29
597,9	3868,862
598,3	3844,576
598,8	3820,548
599,2	3786,519
599,7	3768,033
600,1	3743,119
600,6	3719,405
601	3695,29
601,4	3668,205
601,9	3641,29
602,3	3623,833
602,8	3595,319
603,2	3567,062
603,7	3542,833
604,1	3516,262
604,6	3491,319
605	3467,119
605,4	3432,662
605,9	3406,776
606,3	3382,862
606,8	3361,29
607,2	3338,89
607,7	3311,862
608,1	3288,29
608,6	3264,319
609	3248,29
609,4	3223,205
609,9	3199,719
610,3	3178,233
610,8	3157,433
611,2	3131,405
611,7	3113,29
612,1	3084,89
612,6	3063,29
613	3042,69
613,4	3008,919
613,9	2989,605
614,3	2972,29
614,8	2945,548
615,2	2923,89
615,7	2897,348
616,1	2876,433
616,6	2863,376
617	2840,348
617,4	2819,948
617,9	2805,433
618,3	2789,148
618,8	2772,09
619,2	2757,148
619,7	2733,976
620,1	2717,462
620,5	2697,29
621	2679,49
621,4	2656,062
621,9	2638,376
622,3	2617,462
622,8	2601,748
623,2	2579,776
623,6	2564,976
624,1	2548,033
624,5	2529,033
625	2514,062
625,4	2492,69
625,9	2478,776
626,3	2461,433
626,8	2443,948
627,2	2422,119
627,6	2411,576
628,1	2394,833
628,5	2372,062
629	2352,005
629,4	2333,862
629,9	2308,833
630,3	2292,748
630,7	2266,576
631,2	2250,148
631,6	2236,205
632,1	2217,89
632,5	2206,49
633	2197,919
633,4	2184,148
633,8	2170,748
634,3	2149,633
634,7	2131,833
635,2	2119,576
635,6	2099,49
636,1	2078,119
636,5	2062,205
636,9	2050,576
637,4	2038,662
637,8	2024,805
638,3	2007,348
638,7	1992,519
639,2	1977,719
639,6	1964,748
640	1951,662
640,5	1936,776
640,9	1923,319
641,4	1916,29
641,8	1904,633
642,2	1890,29
642,7	1876,148
643,1	1858,662
643,6	1848,862
644	1839,433
644,5	1825,748
644,9	1816,748
645,3	1810,948
645,8	1799,748
646,2	1789,633
646,7	1772,69
647,1	1757,862
647,6	1741,805
648	1727,29
648,4	1720,633
648,9	1705,405
649,3	1693,319
649,8	1687,548
650,2	1677,633
650,6	1669,69
651,1	1654,919
651,5	1637,976
652	1630,833
652,4	1623,262
652,9	1613,862
653,3	1601,233
653,7	1585,29
654,2	1575,005
654,6	1560,262
655,1	1549,519
655,5	1535,805
655,9	1522,49
656,4	1511,948
656,8	1508,033
657,3	1502,976
657,7	1497,176
658,2	1486,205
658,6	1474,576
659	1463,662
659,5	1457,205
659,9	1446,205
660,4	1431,433
660,8	1417,948
661,2	1403,062
661,7	1395,462
662,1	1390,262
662,6	1382,976
663	1369,462
663,4	1362,433
663,9	1353,633
664,3	1342,748
664,8	1333,348
665,2	1320,89
665,6	1307,09
666,1	1296,89
666,5	1286,405
667	1273,148
667,4	1269,633
667,9	1257,119
668,3	1244,519
668,7	1237,605
669,2	1225,605
669,6	1217,605
670,1	1213,033
670,5	1204,49
670,9	1198,205
671,4	1189,205
671,8	1182,576
672,3	1179,09
672,7	1168,976
673,1	1161,805
673,6	1154,29
674	1146,662
674,5	1141,576
674,9	1128,976
675,3	1118,576
675,8	1112,262
676,2	1100,719
676,7	1092,205
677,1	1081,833
677,5	1076,605
678	1070,405
678,4	1065,319
678,9	1056,833
679,3	1048,519
679,7	1035,405
680,2	1033,69
680,6	1020,862
681,1	1014,262
681,5	1007,805
681,9	1003,205
682,4	997,548
682,8	993,919
683,3	983,633
683,7	980,548
684,1	968,348
684,6	960,29
685	948,748
685,5	937,719
685,9	925,976
686,3	922,948
686,8	916,033
687,2	913,548
687,7	908,233
688,1	906,205
688,5	904,405
689	908,319
689,4	895,062
689,9	885,605
690,3	882,719
690,7	877,919
691,2	870,205
691,6	863,805
692	854,433
692,5	850,948
692,9	847,633
693,4	839,119
693,8	826,948
694,2	820,89
694,7	814,033
695,1	810,348
695,6	806,119
696	798,29
696,4	790,833
696,9	785,776
697,3	779,548
697,8	776,776
698,2	766,89
698,6	759,233
699,1	752,833
699,5	750,09
699,9	746,719
700,4	742,119
700,8	732,719
701,3	729,09
701,7	722,433
702,1	720,976
702,6	713,605
703	710,062
703,5	704,548
703,9	705,262
704,3	701,005
704,8	696,29
705,2	690,062
705,6	685,176
706,1	678,576
706,5	674,633
707	669,405
707,4	667,09
707,8	668,976
708,3	668,433
708,7	665,005
709,2	663,719
709,6	658,548
710	653,062
710,5	643,89
710,9	639,719
711,3	629,662
711,8	622,49
712,2	616,776
712,7	608,205
713,1	604,462
713,5	603,919
714	593,29
714,4	584,662
714,8	585,005
715,3	581,49
715,7	577,976
716,2	574,405
716,6	568,662
717	570,062
717,5	570,348
717,9	560,748
718,3	555,976
718,8	554,262
719,2	546,119
719,7	541,405
720,1	534,948
720,5	536,862
721	534,09
721,4	529,262
721,8	528,976
722,3	527,176
722,7	521,29
723,2	514,862
723,6	507,69
724	505,062
724,5	501,49
724,9	494,719
725,3	492,29
725,8	489,89
726,2	486,205
726,7	477,976
727,1	473,119
727,5	467,919
728	460,862
728,4	456,262
728,8	450,805
729,3	446,09
729,7	446,033
730,1	446,119
730,6	445,462
731	446,519
731,5	445,49
731,9	443,348
732,3	446,033
732,8	442,233
733,2	440,833
733,6	439,319
734,1	432,09
734,5	428,748
734,9	426,405
735,4	420,69
735,8	416,862
736,3	407,319
736,7	404,633
737,1	403,719
737,6	399,748
738	399,205
738,4	398,405
738,9	398,862
739,3	400,576
739,7	400,119
740,2	399,29
740,6	399,576
741,1	394,09
741,5	391,919
741,9	391,976
742,4	394,262
742,8	385,805
743,2	385,09
743,7	381,205
744,1	382,49
744,5	382,062
745	376,405
745,4	368,262
745,8	372,348
746,3	369,233
746,7	363,862
747,2	356,576
747,6	351,005
748	346,805
748,5	346,69
748,9	340,462
749,3	339,976
749,8	340,433
750,2	342,69
750,6	341,176
751,1	338,89
751,5	336,462
751,9	333,69
752,4	337,719
752,8	336,29
753,3	332,69
753,7	328,662
754,1	332,776
754,6	330,919
755	330,748
755,4	326,633
755,9	327,433
756,3	329,919
756,7	329,405
757,2	321,119
757,6	317,948
758	312,319
758,5	304,519
758,9	298,405
759,3	294,119
759,8	288,405
760,2	290,548
760,6	292,548
761,1	290,09
761,5	288,919
761,9	286,29
762,4	284,062
762,8	286,605
763,3	285,719
763,7	280,205
764,1	278,919
764,6	276,462
765	276,49
765,4	275,405
765,9	273,69
766,3	269,805
766,7	273,319
767,2	273,605
767,6	277,719
768	274,662
768,5	269,719
768,9	263,976
769,3	264,519
769,8	259,262
770,2	256,348
770,6	249,776
771,1	245,976
771,5	246,948
771,9	248,776
772,4	244,919
772,8	242,948
773,2	244,719
773,7	242,719
774,1	249,948
774,5	246,748
775	245,348
775,4	240,69
775,8	236,919
776,3	235,833
776,7	232,519
777,1	226,748
777,6	224,348
778	222,29
778,4	226,09
778,9	225,919
779,3	220,033
779,7	219,433
780,2	216,805
780,6	220,233
781	222,69
781,5	220,176
781,9	220,49
782,3	222,49
782,8	226,062
783,2	222,919
783,6	221,119
784,1	215,576
784,5	215,348
784,9	214,49
785,4	215,662
785,8	209,462
786,2	210,233
786,7	204,833
787,1	210,89
787,5	209,376
788	205,805
788,4	206,662
788,8	206,976
789,3	206,948
789,7	205,519
790,1	200,233
790,6	195,662
791	193,405
791,4	190,69
791,9	189,205
792,3	188,519
792,7	193,748
793,2	190,69
793,6	190,69
794	194,176
794,5	187,433
794,9	187,005
795,3	186,662
795,8	188,405
796,2	185,49
796,6	186,348
797,1	181,89
797,5	181,462
797,9	181,976
798,4	179,49
798,8	171,348
799,2	172,233
799,7	170,233
800,1	171,205
800,5	171,205
801	169,119
801,4	170,376
801,8	169,748
802,2	167,633
802,7	168,233
803,1	167,348
803,5	169,462
804	165,49
804,4	160,548
804,8	162,348
805,3	163,148
805,7	161,548
806,1	159,29
806,6	159,033
807	157,89
807,4	157,348
807,9	155,348
808,3	153,176
808,7	151,005
809,2	151,862
809,6	150,033
810	154,576
810,4	154,776
810,9	156,433
811,3	156,605
811,7	152,919
812,2	150,89
812,6	144,919
813	146,119
813,5	145,719
813,9	142,09
814,3	138,062
814,8	135,005
815,2	134,033
815,6	135,69
816,1	130,519
816,5	126,205
816,9	127,062
817,3	124,862
817,8	134,548
818,2	134,833
818,6	134,548
819,1	135,119
819,5	133,662
819,9	130,119
820,4	138,262
820,8	131,662
821,2	130,119
821,7	127,005
822,1	123,49
822,5	128,319
822,9	128,948
823,4	124,605
823,8	127,948
824,2	128,548
824,7	129,548
825,1	129,405
825,5	128,69
826	125,633
826,4	121,662
826,8	115,462
827,3	112,233
827,7	112,376
828,1	115,262
828,5	115,29
829	118,69
829,4	115,862
829,8	121,176
830,3	118,776
830,7	116,062
831,1	115,348
831,6	110,148
832	104,89
832,4	110,805
832,8	104,119
833,3	105,319
833,7	105,376
834,1	103,976
834,6	102,262
835	100,633
835,4	93,919
835,8	93,69
836,3	92,319
836,7	88,948
837,1	83,376
837,6	80,033
838	80,633
838,4	79,919
838,9	84,776
839,3	87,948
839,7	93,033
840,1	96,119
840,6	104,605
841	99,262
841,4	99,633
841,9	94,262
842,3	88,662
842,7	87,119
843,1	82,462
843,6	78,862
844	83,348
844,4	88,462
844,9	89,29
845,3	92,062
845,7	86,262
846,2	90,005
846,6	86,605
847	87,033
847,4	83,09
847,9	79,233
848,3	75,376
848,7	79,862
849,2	77,119
849,6	80,776
850	80,176
850,4	78,919
850,9	81,033
851,3	84,49
851,7	83,119
852,2	81,462
852,6	77,976
853	75,833
853,4	77,519
853,9	77,462
854,3	80,919
854,7	84,662
855,2	87,205
855,6	88,233
856	91,405
856,4	88,319
856,9	88,919
857,3	80,748
857,7	77,605
858,2	77,548
858,6	74,862
859	73,462
859,4	73,49
859,9	70,49
860,3	72,148
860,7	69,319
861,1	70,09
861,6	72,719
862	74,233
862,4	71,662
862,9	72,805
863,3	70,948
863,7	72,49
864,1	67,348
864,6	66,519
865	61,69
865,4	65,005
865,9	63,748
866,3	64,605
866,7	60,605
867,1	62,376
867,6	63,376
868	60,462
868,4	57,576
868,8	56,69
869,3	57,948
869,7	61,348
870,1	62,033
870,6	57,576
871	100,148
871,4	101,005
871,8	103,148
872,3	100,519
872,7	94,576
873,1	87,833
873,5	89,776
874	53,49
874,4	51,348
874,8	50,205
875,3	50,033
875,7	51,633
876,1	58,919
876,5	57,89
877	52,89
877,4	53,09
877,8	52,319
878,2	56,405
878,7	58,176
879,1	54,29
879,5	50,862
879,9	50,29
880,4	49,776
880,8	55,605
881,2	49,519
881,7	50,662
882,1	49,205
882,5	51,919
882,9	53,633
883,4	55,233
883,8	46,005
884,2	46,09
884,6	42,833
885,1	46,062
885,5	47,033
885,9	48,262
886,3	49,633
886,8	55,49
887,2	54,833
887,6	59,376
888	58,376
888,5	57,405
888,9	52,319
889,3	48,119
889,8	46,519
890,2	45,348
890,6	43,548
891	46,09
891,5	45,69
891,9	48,09
892,3	52,948
892,7	45,89
893,2	50,49
893,6	47,348
894	43,462
894,4	42,662
894,9	43,262
895,3	38,805
895,7	43,005
896,1	40,49
896,6	41,119
897	45,919
897,4	48,062
897,8	49,462
898,3	70,433
898,7	81,805
899,1	79,919
899,5	83,233
900	76,205
900,4	73,662
900,8	65,605
901,2	42,748
901,7	36,29
902,1	34,805
902,5	33,119
902,9	37,033
903,4	35,605
903,8	41,005
904,2	47,948
904,6	43,062
905,1	47,519
905,5	43,976
905,9	40,719
906,3	39,776
906,8	39,262
907,2	31,033
907,6	34,29
908	33,69
908,5	31,662
908,9	32,405
909,3	33,033
909,7	34,519
910,2	36,948
910,6	32,605
911	35,319
911,4	37,976
911,9	34,748
912,3	36,348
912,7	36,062
913,1	35,433
913,6	35,919
914	35,776
914,4	35,205
914,8	38,176
915,3	35,376
915,7	35,748
916,1	37,405
916,5	35,633
916,9	28,862
917,4	31,262
917,8	29,033
918,2	35,262
918,6	29,49
919,1	28,633
919,5	32,748
919,9	37,69
920,3	36,605
920,8	42,262
921,2	37,576
921,6	42,405
922	42,319
922,5	42,062
922,9	40,462
923,3	41,89
923,7	36,376
924,2	37,405
924,6	37,862
925	38,948
925,4	36,033
925,8	33,405
926,3	29,49
926,7	30,633
927,1	27,662
927,5	29,005
928	29,548
928,4	27,605
928,8	35,376
929,2	38,719
929,7	41,29
930,1	42,548
930,5	37,833
930,9	37,176
931,3	39,462
931,8	33,862
932,2	33,833
932,6	28,376
933	25,09
933,5	24,005
933,9	25,633
934,3	23,462
934,7	26,919
935,2	23,719
935,6	28,833
936	30,89
936,4	37,49
936,8	35,633
937,3	37,29
937,7	34,919
938,1	38,176
938,5	36,548
939	37,89
939,4	32,433
939,8	28,49
940,2	29,576
940,6	26,776
941,1	22,576
941,5	22,805
941,9	22,49
942,3	25,576
942,8	30,633
943,2	22,633
943,6	24,062
944	23,262
944,4	20,49
944,9	17,233
945,3	14,033
945,7	12,376
946,1	17,462
946,6	17,29
947	21,89
947,4	20,89
947,8	26,633
948,2	30,519
948,7	29,805
949,1	35,319
949,5	31,976
949,9	32,405
950,3	32,462
950,8	26,976
951,2	24,119
951,6	25,376
952	21,548
952,5	22,033
952,9	16,233
953,3	14,69
953,7	17,062
954,1	18,633
954,6	18,119
955	18,576
955,4	19,405
955,8	25,605
956,2	26,719
956,7	25,548
957,1	26,605
957,5	24,976
957,9	23,719
958,3	25,719
958,8	23,005
959,2	29,776
959,6	34,09
960	32,09
960,5	32,576
960,9	34,433
961,3	32,976
961,7	35,805
962,1	31,29
962,6	32,948
963	32,49
963,4	35,948
963,8	34,405
964,2	32,519
964,7	30,348
965,1	31,833
965,5	34,29
965,9	33,519
966,3	34,348
966,8	34,405
967,2	41,033
967,6	40,433
968	40,748
968,4	37,262
968,9	34,89
969,3	30,833
969,7	30,119
970,1	25,69
970,5	25,033
971	24,49
971,4	22,605
971,8	25,948
972,2	26,548
972,6	25,376
973,1	22,548
973,5	19,748
973,9	17,519
974,3	16,29
974,7	19,005
975,2	20,233
975,6	22,09
976	23,862
976,4	24,462
976,8	28,319
977,3	28,948
977,7	24,262
978,1	23,148
978,5	21,148
978,9	24,576
979,4	28,205
979,8	23,633
980,2	26,976
980,6	31,148
981	26,376
981,5	27,805
981,9	28,519
982,3	24,519
982,7	26,405
983,1	21,033
983,6	18,833
984	22,433
984,4	20,69
984,8	17,433
985,2	21,033
985,6	19,005
986,1	16,405
986,5	17,233
986,9	15,348
987,3	14,433
987,7	14,948
988,2	11,748
988,6	10,805
989	19,433
989,4	15,519
989,8	18,29
990,3	19,062
990,7	17,49
991,1	15,948
991,5	20,576
991,9	10,576
992,3	10,176
992,8	9,233
993,2	10,433
993,6	13,176
994	15,519
994,4	14,776
994,9	18,176
995,3	25,062
995,7	24,005
996,1	22,748
996,5	20,262
996,9	29,976
997,4	27,29
997,8	28,348
998,2	27,176
998,6	32,29
999	32,719
999,5	35,233
999,9	25,405
1000,3	28,062
1000,7	32,519
1001,1	28,633
1001,5	24,833
1002	26,748
1002,4	24,69
1002,8	29,776
1003,2	27,29
1003,6	22,176
1004	25,49
1004,5	25,405
1004,9	26,833
1005,3	26,605
1005,7	27,062
1006,1	26,948
1006,6	24,833
1007	18,519
1007,4	18,062
1007,8	15,719
1008,2	19,69
1008,6	19,462
1009,1	19,119
1009,5	23,862
1009,9	30,919
1010,3	34,805
1010,7	37,776
1011,1	32,976
1011,6	29,976
1012	33,176
1012,4	32,262
1012,8	28,148
1013,2	21,062
1013,6	17,719
1014,1	19,09
1014,5	17,319
1014,9	15,119
1015,3	15,89
1015,7	19,919
1016,1	25,805
1016,6	25,89
1017	25,119
1017,4	23,748
1017,8	29,748
1018,2	26,919
1018,6	24,919
1019,1	21,662
1019,5	25,719
1019,9	27,348
1020,3	31,376
1020,7	27,319
1021,1	26,976
1021,6	25,719
1022	29,176
1022,4	24,49
1022,8	24,119
1023,2	21,119
1023,6	18,548
1024,1	25,49
1024,5	26,09
1024,9	24,833
1025,3	26,748
1025,7	27,205
1026,1	29,433
1026,6	32,205
1027	29,148
1027,4	30,348
1027,8	25,548
1028,2	28,776
1028,6	30,262
1029	22,776
1029,5	17,69
1029,9	18,376
1030,3	16,405
1030,7	20,376
1031,1	18,776
1031,5	15,433
1032	23,633
1032,4	32,376
1032,8	22,919
1033,2	19,09
1033,6	16,548
1034	11,805
1034,4	12,833
1034,9	17,005
1035,3	15,976
1035,7	19,205
1036,1	28,49
1036,5	28,376
1036,9	31,948
1037,4	32,748
1037,8	24,119
1038,2	20,119
1038,6	22,29
1039	17,833
1039,4	28,233
1039,8	35,033
1040,3	35,976
1040,7	40,348
1041,1	38,433
1041,5	44,405
1041,9	47,205
1042,3	40,633
1042,7	32,233
1043,2	28,462
1043,6	32,776
1044	37,176
1044,4	36,262
1044,8	32,805
1045,2	31,262
1045,6	36,519
1046,1	42,89
1046,5	35,148
1046,9	31,405
1047,3	28,605
1047,7	30,719
1048,1	31,548
1048,5	26,748
1049	20,462
1049,4	20,605
1049,8	24,119
1050,2	24,09
1050,6	19,919
1051	23,719
1051,4	20,548
1051,9	26,319
1052,3	27,376
1052,7	26,748
1053,1	22,376
1053,5	24,176
1053,9	18,205
1054,3	19,176
1054,8	16,519
1055,2	19,005
1055,6	20,262
1056	27,405
1056,4	23,09
1056,8	29,262
1057,2	29,948
1057,6	35,376
1058,1	36,405
1058,5	31,719
1058,9	29,205
1059,3	33,405
1059,7	30,462
1060,1	33,062
1060,5	27,262
1061	22,776
1061,4	27,605
1061,8	28,148
1062,2	25,862
1062,6	27,462
1063	26,119
1063,4	27,919
1063,8	31,148
1064,3	34,062
1064,7	35,205
1065,1	40,376
1065,5	39,262
1065,9	40,748
1066,3	38,69
1066,7	40,29
1067,1	36,833
1067,6	37,976
1068	38,49
1068,4	36,89
1068,8	36,348
1069,2	35,69
1069,6	35,548
1070	35,833
1070,4	30,633
1070,9	31,29
1071,3	32,776
1071,7	30,719
1072,1	26,748
1072,5	27,233
1072,9	24,89
1073,3	23,29
1073,7	19,148
1074,2	21,605
1074,6	24,062
1075	29,633
1075,4	29,662
1075,8	24,862
1076,2	30,062
1076,6	32,49
1077	30,433
1077,5	31,405
1077,9	28,062
1078,3	22,919
1078,7	26,405
1079,1	29,205
1079,5	26,033
1079,9	28,148
1080,3	28,233
1080,7	30,519
1081,2	32,49
1081,6	31,548
1082	31,176
1082,4	34,29
1082,8	31,176
1083,2	27,462
1083,6	26,833
1084	25,233
1084,5	30,462
1084,9	25,49
1085,3	22,805
1085,7	20,405
1086,1	24,748
1086,5	24,29
1086,9	24,976
1087,3	22,519
1087,7	25,148
1088,2	27,119
1088,6	29,233
1089	27,176
1089,4	30,862
1089,8	32,462
1090,2	29,233
1090,6	25,348
1091	22,176
1091,4	20,262
1091,9	18,205
1092,3	18,233
1092,7	17,09
1093,1	18,033
1093,5	20,205
1093,9	16,719
1094,3	18,89
1094,7	22,29
1095,1	19,948
1095,5	20,748
1096	23,262
1096,4	22,89
1096,8	31,662
1097,2	30,49
1097,6	29,605
1098	25,176
1098,4	28,005
1098,8	25,862
1099,2	24,976
1099,6	19,405
1100,1	18,948
1100,5	15,948
1100,9	18,805
1101,3	14,633
1101,7	13,776
1102,1	13,805
1102,5	12,805
1102,9	11,148
1103,3	15,09
1103,7	18,09
1104,2	18,948
1104,6	22,49
1105	22,29
1105,4	25,49
1105,8	24,062
1106,2	18,976
1106,6	13,805
1107	10,119
1107,4	5,967
1107,8	3,873
1108,3	0,133
