Data from Subt2_00005.txt Node
Date: Mon Aug 28 13:04:26 MSK 2023
User: vat
Spectrometer: MAYP114033
Trigger mode: 0
Integration Time (sec): 1,000000E0
Scans to average: 5
Electric dark correction enabled: true
Nonlinearity correction enabled: false
Boxcar width: 3
XAxis mode: Wavelengths
Number of Pixels in Spectrum: 2068
>>>>>Begin Spectral Data<<<<<
199,4	-0,15
199,9	-0,3
200,4	0,233
200,8	0,986
201,3	1,871
201,8	5,1
202,2	4,329
202,7	5,986
203,2	6,786
203,6	8,129
204,1	7,671
204,6	10,557
205	8,357
205,5	11,957
206	12,043
206,4	11,9
206,9	10,414
207,4	10,986
207,8	9,786
208,3	10,614
208,8	11,586
209,2	12,786
209,7	13,043
210,2	12,329
210,6	12,129
211,1	13,014
211,5	17,243
212	12,843
212,5	10,614
212,9	12,871
213,4	13,271
213,9	15,529
214,3	13,729
214,8	7,471
215,3	9,671
215,7	12,443
216,2	12,557
216,7	13,671
217,1	12,557
217,6	12,414
218,1	13,729
218,5	10,243
219	8,014
219,5	4,9
219,9	6,129
220,4	4,214
220,9	5,043
221,3	2,9
221,8	3,929
222,3	7,129
222,7	9,529
223,2	8,529
223,6	11,557
224,1	11,986
224,6	13,186
225	14,471
225,5	11,157
226	13,214
226,4	11,3
226,9	7,186
227,4	6,271
227,8	7,414
228,3	5,786
228,8	7,471
229,2	9,129
229,7	11,529
230,2	11,529
230,6	8,9
231,1	8,5
231,5	12,5
232	13,957
232,5	9,329
232,9	5,843
233,4	8,386
233,9	12,043
234,3	5,386
234,8	5,7
235,3	-2,957
235,7	-4,929
236,2	-4,529
236,7	-6,243
237,1	-1,1
237,6	8,586
238,1	4,757
238,5	10,443
239	8,1
239,4	9,1
239,9	11,1
240,4	1,929
240,8	1,614
241,3	12,357
241,8	12,957
242,2	15,186
242,7	19,671
243,2	19,271
243,6	24,043
244,1	18,557
244,6	10,9
245	9,957
245,5	13,186
245,9	8,957
246,4	8,186
246,9	6,071
247,3	8,043
247,8	5,586
248,3	3,957
248,7	6,157
249,2	4,957
249,7	6,386
250,1	7,586
250,6	9,586
251	10,414
251,5	14,871
252	9,643
252,4	9,529
252,9	10,7
253,4	12,157
253,8	9,671
254,3	12,157
254,8	11,1
255,2	12,071
255,7	16,271
256,1	12,186
256,6	11,7
257,1	13,243
257,5	10,786
258	6,7
258,5	6,5
258,9	4,729
259,4	7,386
259,9	4,414
260,3	5,986
260,8	7,3
261,2	11,157
261,7	9,271
262,2	6,529
262,6	5,1
263,1	6,643
263,6	3,9
264	5,271
264,5	5,986
264,9	11,357
265,4	11,586
265,9	13,9
266,3	15,757
266,8	17,557
267,3	16,529
267,7	12,986
268,2	10,586
268,7	13,957
269,1	10,529
269,6	9,814
270	11,214
270,5	8,071
271	10,557
271,4	8,814
271,9	7,786
272,4	11,786
272,8	12,1
273,3	12,471
273,7	11,5
274,2	10,3
274,7	6,9
275,1	10,014
275,6	10,214
276,1	5,757
276,5	3,471
277	9,671
277,4	12,071
277,9	13,929
278,4	8,671
278,8	10,186
279,3	13,729
279,8	13,329
280,2	5,929
280,7	0,643
281,1	3,443
281,6	4,386
282,1	-0,3
282,5	-1,443
283	-4,329
283,4	-1,786
283,9	4,5
284,4	2,671
284,8	2,9
285,3	6,957
285,8	10,043
286,2	12,243
286,7	14,071
287,1	10,986
287,6	12,357
288,1	14,9
288,5	13,357
289	13,9
289,5	13,871
289,9	18,243
290,4	19,3
290,8	20,271
291,3	18,329
291,8	18,671
292,2	16,243
292,7	17,586
293,1	11,643
293,6	12,243
294,1	13,1
294,5	14,186
295	14,386
295,5	11,671
295,9	10,757
296,4	12,186
296,8	11,129
297,3	8,729
297,8	4,157
298,2	1,357
298,7	5,9
299,1	7,529
299,6	4,386
300,1	4,614
300,5	2,843
301	6,071
301,5	5,3
301,9	1,529
302,4	-0,129
302,8	0,7
303,3	1,014
303,8	5,529
304,2	4,786
304,7	8,529
305,1	7,529
305,6	10,671
306,1	10,1
306,5	10,529
307	9,443
307,4	11,443
307,9	10,729
308,4	11,957
308,8	11,329
309,3	14,7
309,8	16,414
310,2	16,329
310,7	18,443
311,1	16,443
311,6	19,986
312,1	17,557
312,5	14,586
313	10,671
313,4	15,871
313,9	10,957
314,4	12,557
314,8	7,729
315,3	9,614
315,7	12,043
316,2	17,871
316,7	7,414
317,1	8,129
317,6	2,557
318	6,1
318,5	4,471
319	6,329
319,4	3,557
319,9	8,271
320,3	11,3
320,8	20,986
321,3	16,929
321,7	15,843
322,2	16,329
322,6	11,986
323,1	12,5
323,6	11,871
324	5,471
324,5	10,386
324,9	13,614
325,4	12,586
325,9	16,957
326,3	15,557
326,8	14,814
327,2	19,9
327,7	17,471
328,2	12,614
328,6	11,7
329,1	7,671
329,5	8,729
330	9,9
330,5	5,957
330,9	2,7
331,4	8,443
331,8	9,014
332,3	11,1
332,8	11,214
333,2	12,7
333,7	11,529
334,1	18,871
334,6	17,5
335,1	19,7
335,5	19,614
336	18,843
336,4	19,357
336,9	19,9
337,4	18,386
337,8	16,986
338,3	13,271
338,7	13,986
339,2	16,957
339,7	15,214
340,1	13,786
340,6	7,357
341	5,957
341,5	8,557
342	7,871
342,4	8,014
342,9	8,586
343,3	11,214
343,8	14,129
344,2	17,9
344,7	19,757
345,2	20,014
345,6	20,1
346,1	15,843
346,5	13,786
347	16,043
347,5	14,243
347,9	12,071
348,4	9,757
348,8	9,643
349,3	19,043
349,8	22,871
350,2	20,557
350,7	20,386
351,1	22,3
351,6	28,7
352	30,214
352,5	36,243
353	43,329
353,4	60,1
353,9	72,614
354,3	86,214
354,8	96,843
355,3	115,814
355,7	124,557
356,2	141,986
356,6	165,557
357,1	197,071
357,5	227,957
358	270,5
358,5	315,7
358,9	368,357
359,4	432,357
359,8	496,443
360,3	566,443
360,8	647,557
361,2	736,7
361,7	834,814
362,1	943,9
362,6	1058,643
363	1182,643
363,5	1324,614
364	1472,071
364,4	1625,729
364,9	1769,214
365,3	1915,757
365,8	2055,871
366,3	2186,957
366,7	2297,871
367,2	2396,443
367,6	2474,643
368,1	2544,729
368,5	2582,586
369	2602,529
369,5	2597,843
369,9	2574,529
370,4	2529,386
370,8	2469,9
371,3	2387,7
371,7	2304,214
372,2	2208,929
372,7	2105,386
373,1	1995,871
373,6	1880,014
374	1758,871
374,5	1645,329
374,9	1531,014
375,4	1417,586
375,9	1309,386
376,3	1208,329
376,8	1119,1
377,2	1028,471
377,7	947,3
378,2	871,786
378,6	800,957
379,1	733,471
379,5	669,671
380	608,271
380,4	558,443
380,9	512,357
381,4	469,586
381,8	433,814
382,3	404,7
382,7	374,7
383,2	349,357
383,6	328,214
384,1	306,1
384,6	289,929
385	271,014
385,5	250,729
385,9	236,557
386,4	222,986
386,8	207,014
387,3	189,3
387,7	174,471
388,2	159,5
388,7	148,1
389,1	131,729
389,6	122,5
390	119,014
390,5	111,643
390,9	102,614
391,4	96,071
391,9	92,471
392,3	98,157
392,8	94,986
393,2	88,843
393,7	86,014
394,1	83,786
394,6	83,671
395,1	82,871
395,5	74,357
396	70,214
396,4	65,014
396,9	63,557
397,3	60,271
397,8	57,357
398,2	58,271
398,7	59,3
399,2	61,071
399,6	62,643
400,1	65,329
400,5	71,186
401	72,9
401,4	68,843
401,9	69,243
402,4	65,957
402,8	63,271
403,3	61,443
403,7	56,671
404,2	60,129
404,6	57,271
405,1	60,729
405,5	62,5
406	67,414
406,5	71,1
406,9	73,7
407,4	73,814
407,8	86,214
408,3	85,1
408,7	90,671
409,2	96,443
409,6	102,557
410,1	109,214
410,6	115,9
411	117,386
411,5	127,3
411,9	139,271
412,4	146,557
412,8	154,957
413,3	168,929
413,7	180,929
414,2	191,9
414,7	205,357
415,1	211,186
415,6	224,271
416	236,586
416,5	248,071
416,9	262,814
417,4	280,357
417,8	290,014
418,3	309,329
418,8	331,814
419,2	354,3
419,7	372,471
420,1	387,957
420,6	405,5
421	435,1
421,5	462,586
421,9	486,129
422,4	518,129
422,8	549,757
423,3	586,3
423,8	621,414
424,2	654,014
424,7	684,043
425,1	718,929
425,6	748,414
426	784,929
426,5	826,271
426,9	870,271
427,4	911,957
427,9	961,386
428,3	1013,357
428,8	1068,3
429,2	1122,014
429,7	1175,814
430,1	1233,557
430,6	1298,1
431	1367,643
431,5	1433,729
431,9	1506,414
432,4	1588,414
432,8	1672,986
433,3	1765,957
433,8	1861,1
434,2	1953,443
434,7	2052,957
435,1	2162,786
435,6	2271,643
436	2387,357
436,5	2499,071
436,9	2625,786
437,4	2753,814
437,8	2886,7
438,3	3019,414
438,8	3160,786
439,2	3305,871
439,7	3460,443
440,1	3608,843
440,6	3769,357
441	3937,757
441,5	4108,386
441,9	4290,3
442,4	4475,586
442,8	4671,1
443,3	4880,414
443,7	5089,814
444,2	5305,3
444,7	5531,471
445,1	5752,586
445,6	5986,929
446	6229,471
446,5	6473,557
446,9	6724,357
447,4	6985,786
447,8	7243,043
448,3	7519,871
448,7	7797,786
449,2	8077,357
449,6	8357,843
450,1	8652,643
450,6	8953,729
451	9259,557
451,5	9573,014
451,9	9888,557
452,4	10203,586
452,8	10537,557
453,3	10866,814
453,7	11196,043
454,2	11548,1
454,6	11889,071
455,1	12244,671
455,5	12605,814
456	12969,814
456,4	13336,1
456,9	13716,529
457,3	14090,671
457,8	14478,043
458,3	14856,214
458,7	15250,3
459,2	15635,129
459,6	16037,729
460,1	16425,929
460,5	16824,729
461	17213,7
461,4	17623,7
461,9	18009,957
462,3	18406,614
462,8	18811,043
463,2	19214,729
463,7	19614,414
464,1	20008,7
464,6	20400,557
465	20803,986
465,5	21214,443
466	21607,814
466,4	21990,043
466,9	22379,557
467,3	22772,843
467,8	23164,443
468,2	23548,614
468,7	23934,529
469,1	24290,643
469,6	24681,671
470	25046,557
470,5	25424,443
470,9	25785,129
471,4	26135,386
471,8	26465,014
472,3	26830,186
472,7	27161,443
473,2	27508,186
473,6	27826,129
474,1	28132,014
474,5	28462,214
475	28777,871
475,4	29073,929
475,9	29360,729
476,4	29636,043
476,8	29920,443
477,3	30206,871
477,7	30469,843
478,2	30714,557
478,6	30961,814
479,1	31190,871
479,5	31410,3
480	31614,329
480,4	31805,671
480,9	31999,357
481,3	32190,814
481,8	32374,786
482,2	32549,843
482,7	32720,757
483,1	32878,843
483,6	33029,757
484	33146,243
484,5	33262,586
484,9	33349,386
485,4	33453,814
485,8	33527,529
486,3	33614,557
486,7	33668,186
487,2	33725,986
487,6	33770,729
488,1	33813,929
488,5	33843,071
489	33873,271
489,4	33864,043
489,9	33847,443
490,4	33839,329
490,8	33823,3
491,3	33790,929
491,7	33743,471
492,2	33677,986
492,6	33622,014
493,1	33571,871
493,5	33489,5
494	33403,157
494,4	33318,357
494,9	33224,071
495,3	33132,557
495,8	33022,357
496,2	32909,757
496,7	32793,557
497,1	32684,614
497,6	32551,186
498	32428,043
498,5	32297,843
498,9	32160,186
499,4	32030,814
499,8	31894,214
500,3	31733,5
500,7	31588,186
501,2	31422,071
501,6	31258,643
502,1	31090,9
502,5	30913,786
503	30734,7
503,4	30556,271
503,9	30380,071
504,3	30194,157
504,8	29993,1
505,2	29799,214
505,7	29584,157
506,1	29392,414
506,6	29185,271
507	28960,871
507,5	28742,129
507,9	28523,643
508,4	28300,129
508,8	28104,986
509,3	27864,386
509,7	27626,614
510,2	27395,471
510,6	27161,357
511,1	26941,614
511,5	26711,386
512	26454,1
512,4	26210,129
512,9	25984,329
513,3	25738,614
513,8	25513,043
514,2	25266,786
514,7	25021,329
515,1	24789,786
515,6	24549,7
516	24292,871
516,5	24061,471
516,9	23816,129
517,4	23574,7
517,8	23342,871
518,3	23090,786
518,7	22861,614
519,2	22632,729
519,6	22398,843
520,1	22149,957
520,5	21908,986
521	21670,3
521,4	21446,157
521,9	21207,814
522,3	20981,186
522,8	20746,671
523,2	20530,986
523,7	20300,529
524,1	20067,043
524,6	19831,843
525	19624,671
525,5	19405,786
525,9	19192,986
526,4	18968,957
526,8	18752,014
527,3	18545,471
527,7	18344,671
528,2	18128,157
528,6	17917,9
529,1	17714,357
529,5	17506,129
530	17321,586
530,4	17125,129
530,9	16938,843
531,3	16749,786
531,8	16561,9
532,2	16362,929
532,6	16182,014
533,1	15986,471
533,5	15800,471
534	15609,5
534,4	15430,814
534,9	15258,729
535,3	15094,643
535,8	14927,614
536,2	14754,757
536,7	14585,586
537,1	14413,729
537,6	14245,3
538	14078,186
538,5	13925,014
538,9	13754,7
539,4	13607,3
539,8	13453,957
540,3	13316,957
540,7	13165,957
541,2	13015,614
541,6	12852,243
542,1	12714,729
542,5	12564,1
543	12429,586
543,4	12285,9
543,9	12144,871
544,3	12011,9
544,8	11885,443
545,2	11750,529
545,7	11631,986
546,1	11491,9
546,5	11362,643
547	11243,729
547,4	11117,529
547,9	10991,271
548,3	10881,786
548,8	10759,329
549,2	10657,643
549,7	10539,043
550,1	10419,157
550,6	10312,671
551	10204,529
551,5	10091,843
551,9	9989,643
552,4	9885,814
552,8	9792,586
553,3	9695,814
553,7	9595,957
554,2	9502,843
554,6	9398,186
555,1	9302,814
555,5	9202,386
555,9	9105,986
556,4	9009,5
556,8	8921,757
557,3	8828,843
557,7	8754,586
558,2	8669,843
558,6	8587,529
559,1	8509,386
559,5	8431,614
560	8346,1
560,4	8261,414
560,9	8181,1
561,3	8093,071
561,8	8010,957
562,2	7920,443
562,7	7841,757
563,1	7762,1
563,6	7688,986
564	7606,186
564,4	7540,929
564,9	7469,814
565,3	7401,129
565,8	7339,014
566,2	7267,129
566,7	7207,7
567,1	7150,986
567,6	7084,157
568	7022,157
568,5	6959,786
568,9	6885,786
569,4	6832,614
569,8	6758,157
570,3	6691,871
570,7	6633,3
571,1	6570,643
571,6	6509,186
572	6457,214
572,5	6390,186
572,9	6336,871
573,4	6279,586
573,8	6222,071
574,3	6170,014
574,7	6118,786
575,2	6066,643
575,6	6020,186
576,1	5974,129
576,5	5922,814
576,9	5861,843
577,4	5812,671
577,8	5755,5
578,3	5699,957
578,7	5642,557
579,2	5589,643
579,6	5543,243
580,1	5498,957
580,5	5446,729
581	5404,243
581,4	5359,386
581,9	5327,586
582,3	5277,957
582,7	5231,643
583,2	5189,071
583,6	5143,814
584,1	5109,014
584,5	5069,871
585	5015,814
585,4	4974,043
585,9	4933,186
586,3	4889,929
586,8	4848,157
587,2	4799,186
587,6	4749,757
588,1	4712,614
588,5	4675,129
589	4634,986
589,4	4596,786
589,9	4560,1
590,3	4524,386
590,8	4494,271
591,2	4454,471
591,7	4418,214
592,1	4390,643
592,5	4362,443
593	4333,271
593,4	4297,557
593,9	4267,071
594,3	4242,3
594,8	4216,414
595,2	4180,7
595,7	4150,586
596,1	4124,5
596,6	4094,471
597	4066,643
597,4	4036,643
597,9	4005,757
598,3	3982,586
598,8	3951,443
599,2	3912,1
599,7	3894,9
600,1	3863,929
600,6	3836,614
601	3810,329
601,4	3781,5
601,9	3752,1
602,3	3729,929
602,8	3700,957
603,2	3673,557
603,7	3642,557
604,1	3613,271
604,6	3583,643
605	3565,557
605,4	3537,986
605,9	3508,957
606,3	3489,471
606,8	3475,1
607,2	3458,3
607,7	3434,986
608,1	3402,986
608,6	3380,614
609	3356,643
609,4	3331,329
609,9	3303,986
610,3	3278,5
610,8	3256,186
611,2	3233,871
611,7	3217,729
612,1	3191,957
612,6	3166,871
613	3136,386
613,4	3112,586
613,9	3092,529
614,3	3072,5
614,8	3041,786
615,2	3024,843
615,7	3008,614
616,1	2994,929
616,6	2975,414
617	2948,757
617,4	2924,557
617,9	2909,814
618,3	2891,871
618,8	2867,129
619,2	2845,643
619,7	2820,014
620,1	2798,843
620,5	2776,186
621	2755,129
621,4	2733,814
621,9	2712,3
622,3	2695,443
622,8	2680,529
623,2	2663,671
623,6	2651,414
624,1	2634,986
624,5	2617,529
625	2597,986
625,4	2578,929
625,9	2562,929
626,3	2547,614
626,8	2529,843
627,2	2506,014
627,6	2481,986
628,1	2470,814
628,5	2450,843
629	2428,043
629,4	2405,957
629,9	2386,271
630,3	2368,471
630,7	2355,9
631,2	2333,814
631,6	2314,043
632,1	2298,7
632,5	2287,071
633	2272,9
633,4	2259,329
633,8	2240,014
634,3	2222,557
634,7	2205,271
635,2	2190,129
635,6	2168,129
636,1	2146,871
636,5	2130,614
636,9	2116,043
637,4	2101,357
637,8	2094,729
638,3	2086,529
638,7	2071,729
639,2	2062,186
639,6	2048,814
640	2032,471
640,5	2021,186
640,9	2000,614
641,4	1977,329
641,8	1963,129
642,2	1947,014
642,7	1936,043
643,1	1926,986
643,6	1915,129
644	1902,614
644,5	1892,557
644,9	1884,614
645,3	1870,614
645,8	1856,1
646,2	1837,986
646,7	1817,5
647,1	1800,643
647,6	1789,243
648	1772,843
648,4	1765,957
648,9	1753,3
649,3	1744,271
649,8	1738,814
650,2	1732,643
650,6	1719,586
651,1	1709,071
651,5	1694,871
652	1687,1
652,4	1673,157
652,9	1661,271
653,3	1644,871
653,7	1629,271
654,2	1619,043
654,6	1604,129
655,1	1588,957
655,5	1573,9
655,9	1565,186
656,4	1558,071
656,8	1548,243
657,3	1543,014
657,7	1531,471
658,2	1522,386
658,6	1522,414
659	1510,671
659,5	1499,471
659,9	1492,786
660,4	1475,643
660,8	1467,843
661,2	1452,043
661,7	1438,814
662,1	1422,586
662,6	1413,729
663	1399,9
663,4	1390,986
663,9	1386,014
664,3	1373,843
664,8	1362,471
665,2	1356,214
665,6	1349,614
666,1	1343,786
666,5	1334,329
667	1317,1
667,4	1315,614
667,9	1305,557
668,3	1296,529
668,7	1282,986
669,2	1270,414
669,6	1257,157
670,1	1247,871
670,5	1237,1
670,9	1225,586
671,4	1211,043
671,8	1203,986
672,3	1198,357
672,7	1194,129
673,1	1188,129
673,6	1181,386
674	1174,443
674,5	1168,871
674,9	1158,329
675,3	1146,614
675,8	1135,129
676,2	1121,443
676,7	1110,043
677,1	1100,214
677,5	1094,757
678	1088,271
678,4	1079,7
678,9	1074,929
679,3	1074,186
679,7	1065,5
680,2	1065,786
680,6	1055,586
681,1	1045,671
681,5	1040,586
681,9	1030,557
682,4	1020,071
682,8	1010,014
683,3	999,557
683,7	993,414
684,1	986,357
684,6	978,871
685	970,814
685,5	962,214
685,9	958,243
686,3	948,986
686,8	944,443
687,2	938,643
687,7	933,186
688,1	928,357
688,5	918,814
689	917,271
689,4	904,157
689,9	895,757
690,3	887,243
690,7	883,271
691,2	879,271
691,6	880,729
692	871,386
692,5	872,414
692,9	868,557
693,4	862,3
693,8	850,186
694,2	840,071
694,7	832,043
695,1	824,7
695,6	819,243
696	807,014
696,4	804,643
696,9	804,529
697,3	801,414
697,8	799,986
698,2	790,557
698,6	783,443
699,1	784,214
699,5	777,043
699,9	766,271
700,4	760,243
700,8	748,871
701,3	745,186
701,7	736,5
702,1	728,7
702,6	721,386
703	717,214
703,5	708,014
703,9	704,957
704,3	699,186
704,8	698,957
705,2	694,586
705,6	692,557
706,1	686,586
706,5	687,871
707	684,3
707,4	684,129
707,8	678,357
708,3	676,814
708,7	671,9
709,2	671,129
709,6	668,214
710	661,957
710,5	652,586
710,9	649,671
711,3	639,1
711,8	631,929
712,2	625,986
712,7	614,414
713,1	609,957
713,5	608,043
714	601,043
714,4	596,157
714,8	596,129
715,3	591,929
715,7	589,586
716,2	584,957
716,6	579,186
717	576,729
717,5	571,471
717,9	567,071
718,3	561,443
718,8	559,843
719,2	553,843
719,7	550,071
720,1	542,129
720,5	545,243
721	538,157
721,4	533,471
721,8	528,7
722,3	526,357
722,7	521,129
723,2	518,443
723,6	512,529
724	509,586
724,5	505,414
724,9	499,786
725,3	496,729
725,8	494,071
726,2	489,357
726,7	482,643
727,1	481,5
727,5	476,786
728	468,129
728,4	460,5
728,8	456,986
729,3	452,786
729,7	447,9
730,1	439,014
730,6	437,557
731	438,157
731,5	439,929
731,9	437,843
732,3	439,614
732,8	441,214
733,2	440,243
733,6	439,729
734,1	434,386
734,5	429,643
734,9	424,729
735,4	416,157
735,8	411,329
736,3	404,957
736,7	400,329
737,1	400,843
737,6	397,529
738	400,157
738,4	398,529
738,9	397,386
739,3	405,5
739,7	408,1
740,2	403,443
740,6	404,586
741,1	396,1
741,5	395,957
741,9	392,843
742,4	387,471
742,8	381,443
743,2	379,557
743,7	375,929
744,1	381,3
744,5	378,329
745	373,157
745,4	367,586
745,8	363,043
746,3	362,214
746,7	355,357
747,2	344,3
747,6	339,929
748	338,043
748,5	337,329
748,9	338,443
749,3	338,129
749,8	339,814
750,2	338,329
750,6	335,986
751,1	338,271
751,5	337,986
751,9	331,7
752,4	334,1
752,8	333,671
753,3	331,986
753,7	331,271
754,1	325,843
754,6	319,643
755	321,3
755,4	315,157
755,9	312,986
756,3	318,1
756,7	318,729
757,2	316,729
757,6	312,529
758	306,3
758,5	301,443
758,9	297,5
759,3	290,014
759,8	282,214
760,2	279,729
760,6	287,443
761,1	288,014
761,5	290,557
761,9	284,871
762,4	285,529
762,8	291,043
763,3	290,929
763,7	282,786
764,1	277,586
764,6	268,529
765	272,1
765,4	271,9
765,9	269,414
766,3	268,529
766,7	267,186
767,2	269,986
767,6	273,414
768	270,671
768,5	264,186
768,9	256,843
769,3	253,243
769,8	247,757
770,2	244,243
770,6	240,986
771,1	234,929
771,5	233,214
771,9	235,1
772,4	233,357
772,8	233,614
773,2	235,071
773,7	237,071
774,1	244,329
774,5	242,557
775	241,357
775,4	239,586
775,8	233,443
776,3	232,043
776,7	228,729
777,1	221,271
777,6	222,186
778	218,443
778,4	220,186
778,9	223,3
779,3	218,3
779,7	212,929
780,2	211,957
780,6	211,757
781	211,471
781,5	204,957
781,9	202,557
782,3	202,129
782,8	204,3
783,2	201,129
783,6	196,586
784,1	198,3
784,5	198,043
784,9	198,5
785,4	196,729
785,8	195,729
786,2	197,3
786,7	198,786
787,1	201,214
787,5	199,757
788	197,957
788,4	196,814
788,8	190,586
789,3	190,529
789,7	187,871
790,1	182,871
790,6	183,471
791	182,157
791,4	180,386
791,9	183,986
792,3	183,757
792,7	185,043
793,2	185,186
793,6	182,214
794	181,557
794,5	181,786
794,9	179,3
795,3	177,386
795,8	177,014
796,2	169,014
796,6	171,614
797,1	173,129
797,5	171,186
797,9	168,614
798,4	163,071
798,8	157,186
799,2	157,614
799,7	155,986
800,1	155,7
800,5	157,786
801	161,871
801,4	164,186
801,8	164,757
802,2	165,157
802,7	159,929
803,1	158,357
803,5	155,7
804	150,529
804,4	148,7
804,8	151,671
805,3	154,186
805,7	157,1
806,1	155,929
806,6	154,7
807	153,043
807,4	152,729
807,9	147,414
808,3	142,843
808,7	141,586
809,2	139,243
809,6	134,129
810	136,329
810,4	135,129
810,9	135,1
811,3	134,843
811,7	127,586
812,2	124,471
812,6	127,414
813	128,071
813,5	129,757
813,9	127,871
814,3	123,214
814,8	125,586
815,2	127,671
815,6	126,557
816,1	125,014
816,5	124,271
816,9	124,729
817,3	128,014
817,8	131,157
818,2	127,471
818,6	128,071
819,1	119,786
819,5	116,329
819,9	115,871
820,4	119,757
820,8	116,329
821,2	117,7
821,7	113,1
822,1	116,871
822,5	115,9
822,9	112,5
823,4	107,5
823,8	107,214
824,2	105,957
824,7	106,329
825,1	102,357
825,5	101,5
826	97,9
826,4	95,271
826,8	93,9
827,3	95,071
827,7	95,814
828,1	101,7
828,5	103,729
829	108,5
829,4	106,5
829,8	106,043
830,3	101,643
830,7	101,1
831,1	96,929
831,6	91,043
832	89,129
832,4	91,929
832,8	88,443
833,3	85,843
833,7	82,271
834,1	84,1
834,6	85,9
835	86,043
835,4	79,786
835,8	81,357
836,3	86,157
836,7	86,957
837,1	82,214
837,6	79,1
838	78,186
838,4	79,414
838,9	81,614
839,3	75,843
839,7	73,729
840,1	74,471
840,6	78,129
841	70,786
841,4	71,557
841,9	68,786
842,3	68,357
842,7	66,757
843,1	68,7
843,6	65,471
844	69,586
844,4	72,186
844,9	72,671
845,3	70,9
845,7	72,214
846,2	71,386
846,6	69,814
847	72,586
847,4	70,586
847,9	66,929
848,3	68,186
848,7	67,871
849,2	60,9
849,6	61,043
850	61,271
850,4	58,443
850,9	59,729
851,3	62,643
851,7	61,386
852,2	62,957
852,6	64,014
853	64,214
853,4	66,214
853,9	63,3
854,3	66,014
854,7	68,729
855,2	73,529
855,6	69,957
856	68,957
856,4	65,5
856,9	67,614
857,3	59,357
857,7	57,7
858,2	53,9
858,6	55,214
859	49,814
859,4	50,3
859,9	51,643
860,3	55,014
860,7	54,529
861,1	56,529
861,6	58,3
862	64,757
862,4	64,471
862,9	65,614
863,3	62,671
863,7	60,357
864,1	57,871
864,6	56,9
865	54,557
865,4	54,9
865,9	51,357
866,3	52,786
866,7	50,786
867,1	49,786
867,6	49,414
868	46,414
868,4	45,386
868,8	45,043
869,3	43,186
869,7	48,129
870,1	48,386
870,6	49,043
871	112,529
871,4	114,157
871,8	115,443
872,3	115,471
872,7	110,929
873,1	106,757
873,5	101,386
874	37,243
874,4	35,1
874,8	31,814
875,3	32,643
875,7	32,071
876,1	34,586
876,5	39,557
877	39,329
877,4	39,214
877,8	38,7
878,2	44,357
878,7	46,871
879,1	48,071
879,5	42,414
879,9	40,014
880,4	36,7
880,8	42,557
881,2	35,129
881,7	36,614
882,1	33,757
882,5	36,329
882,9	36,9
883,4	41,557
883,8	39,271
884,2	40,643
884,6	36,643
885,1	36,871
885,5	35,5
885,9	34,386
886,3	33,671
886,8	33,386
887,2	29,471
887,6	32,157
888	33,157
888,5	32,214
888,9	29,5
889,3	27,957
889,8	24,614
890,2	26,786
890,6	26,443
891	25,071
891,5	28,271
891,9	30,614
892,3	31,729
892,7	28,043
893,2	28,5
893,6	23,471
894	26,957
894,4	22,557
894,9	23,1
895,3	22,386
895,7	28,643
896,1	26,529
896,6	30,471
897	32,557
897,4	35,557
897,8	40,814
898,3	41,014
898,7	38,214
899,1	39,471
899,5	37,014
900	34,643
900,4	31,1
900,8	20,757
901,2	17,471
901,7	19,729
902,1	18,157
902,5	18,957
902,9	16,214
903,4	20,214
903,8	24,129
904,2	25,271
904,6	23,129
905,1	24,614
905,5	23,843
905,9	23,929
906,3	20,471
906,8	20,214
907,2	22,729
907,6	28,5
908	28,9
908,5	28,786
908,9	27,1
909,3	28,357
909,7	30,529
910,2	27,386
910,6	21,386
911	21,443
911,4	23,643
911,9	24,586
912,3	27,014
912,7	25,386
913,1	24,9
913,6	26,071
914	30,186
914,4	29,871
914,8	33,214
915,3	29,443
915,7	32,671
916,1	33,214
916,5	29,5
916,9	24,329
917,4	23,129
917,8	19,214
918,2	22,3
918,6	16,643
919,1	16,786
919,5	23,814
919,9	27,243
920,3	26,614
920,8	27,329
921,2	22,9
921,6	24,243
922	20,614
922,5	16,443
922,9	12,729
923,3	14,9
923,7	14,843
924,2	16,386
924,6	18,3
925	24,3
925,4	25,3
925,8	26,329
926,3	22,271
926,7	19,414
927,1	18,129
927,5	17,929
928	18,786
928,4	16,1
928,8	19,1
929,2	20,471
929,7	25,643
930,1	29,014
930,5	23,214
930,9	25,186
931,3	27,1
931,8	23,443
932,2	23,986
932,6	18,7
933	14,357
933,5	19,7
933,9	11,7
934,3	8,757
934,7	9,357
935,2	6,929
935,6	8,443
936	7,814
936,4	8,757
936,8	8,671
937,3	7,986
937,7	6,643
938,1	8,586
938,5	8,871
939	11,5
939,4	8,614
939,8	9,443
940,2	12,014
940,6	9,586
941,1	10,871
941,5	10,186
941,9	14,3
942,3	14,929
942,8	14,386
943,2	9,586
943,6	12,729
944	10,243
944,4	8,614
944,9	1,1
945,3	2,529
945,7	5,614
946,1	7,129
946,6	2,5
947	2,957
947,4	3,186
947,8	8,214
948,2	10,843
948,7	6,529
949,1	9,186
949,5	14,186
949,9	15,443
950,3	14,843
950,8	13,871
951,2	7,729
951,6	14,271
952	14,757
952,5	12,386
952,9	9,871
953,3	10,814
953,7	11,214
954,1	13,729
954,6	7,7
955	8,043
955,4	7,843
955,8	9,843
956,2	10,414
956,7	8,643
957,1	11,9
957,5	15,529
957,9	10,643
958,3	14,529
958,8	13,7
959,2	16,214
959,6	19,9
960	17,671
960,5	14,157
960,9	17,843
961,3	14,586
961,7	16,386
962,1	16,471
962,6	11,3
963	14,1
963,4	19,729
963,8	15,529
964,2	14,414
964,7	15,614
965,1	14,214
965,5	17,957
965,9	12,729
966,3	10,643
966,8	14,614
967,2	15,786
967,6	11,986
968	10,586
968,4	9,414
968,9	9,614
969,3	9,186
969,7	5,471
970,1	6,529
970,5	6,786
971	7,271
971,4	2,7
971,8	-0,1
972,2	-1,5
972,6	2,729
973,1	1,7
973,5	-1,129
973,9	-2,443
974,3	0,386
974,7	2,129
975,2	3,243
975,6	0,929
976	-0,243
976,4	2,814
976,8	5,186
977,3	5,5
977,7	9,014
978,1	9,586
978,5	11,843
978,9	16,414
979,4	12,786
979,8	12,1
980,2	16,957
980,6	18,557
981	16,357
981,5	16,157
981,9	17,871
982,3	19,243
982,7	19,1
983,1	12,271
983,6	5,014
984	7,186
984,4	6,043
984,8	1,1
985,2	2,986
985,6	2,214
986,1	-1,043
986,5	4,471
986,9	-0,186
987,3	-5,5
987,7	-7,786
988,2	-12,614
988,6	-13,586
989	-4,071
989,4	-10,214
989,8	-9,186
990,3	-5,5
990,7	-1,7
991,1	3,957
991,5	8,357
991,9	0,443
992,3	2,271
992,8	4,871
993,2	3,557
993,6	2,157
994	3,071
994,4	3,471
994,9	6,986
995,3	11,3
995,7	8,986
996,1	8,9
996,5	6,471
996,9	9,929
997,4	4,586
997,8	3,814
998,2	1,786
998,6	1,557
999	3,957
999,5	7,929
999,9	3,129
1000,3	4,471
1000,7	7,1
1001,1	7,643
1001,5	9,643
1002	8,271
1002,4	5,271
1002,8	8,843
1003,2	8,929
1003,6	4,786
1004	8,443
1004,5	6,471
1004,9	9,529
1005,3	7,357
1005,7	5,243
1006,1	2,586
1006,6	3,186
1007	-1,586
1007,4	2,614
1007,8	1,814
1008,2	9,129
1008,6	6,843
1009,1	9,271
1009,5	12,357
1009,9	14,986
1010,3	13,186
1010,7	14,843
1011,1	11,214
1011,6	9,129
1012	11,043
1012,4	7,586
1012,8	0,529
1013,2	0,814
1013,6	1,414
1014,1	-4,929
1014,5	0,557
1014,9	0,014
1015,3	3,757
1015,7	7,614
1016,1	9,643
1016,6	7,586
1017	11,043
1017,4	7,186
1017,8	9,043
1018,2	3,986
1018,6	3,386
1019,1	2,014
1019,5	1,957
1019,9	2,786
1020,3	5,814
1020,7	4,3
1021,1	3,957
1021,6	7,1
1022	6,814
1022,4	5,157
1022,8	6,043
1023,2	6,1
1023,6	4,586
1024,1	9,243
1024,5	7,671
1024,9	6,1
1025,3	8,957
1025,7	6,386
1026,1	1,5
1026,6	3,557
1027	1,157
1027,4	-0,1
1027,8	-4,271
1028,2	-3,757
1028,6	-3,1
1029	-2,1
1029,5	-6,386
1029,9	-3,871
1030,3	-3,786
1030,7	5,529
1031,1	2,529
1031,5	4,586
1032	9,071
1032,4	15,043
1032,8	9,843
1033,2	8,957
1033,6	5,186
1034	0,043
1034,4	0,386
1034,9	2,043
1035,3	-0,1
1035,7	2,329
1036,1	10,443
1036,5	6,186
1036,9	13,1
1037,4	15,5
1037,8	8,7
1038,2	10,471
1038,6	11,414
1039	6,357
1039,4	14,529
1039,8	18,986
1040,3	18,5
1040,7	20,957
1041,1	16,186
1041,5	19,271
1041,9	20,357
1042,3	20,214
1042,7	16,757
1043,2	17,071
1043,6	22,757
1044	25,557
1044,4	25,1
1044,8	24,271
1045,2	15,529
1045,6	16,786
1046,1	15,1
1046,5	6,9
1046,9	5,871
1047,3	2,9
1047,7	-4,186
1048,1	-4,9
1048,5	-9,614
1049	-14,814
1049,4	-15,1
1049,8	-10,957
1050,2	-9,814
1050,6	-1,586
1051	2,3
1051,4	4,271
1051,9	9,9
1052,3	9,5
1052,7	9,3
1053,1	7,671
1053,5	1,071
1053,9	2,729
1054,3	-2,243
1054,8	-3,557
1055,2	0,843
1055,6	-2,043
1056	0,643
1056,4	5,614
1056,8	7,443
1057,2	9,729
1057,6	12,3
1058,1	11,214
1058,5	8,7
1058,9	8,986
1059,3	7,271
1059,7	2,814
1060,1	5,929
1060,5	6,443
1061	3,843
1061,4	3,557
1061,8	0,357
1062,2	2,643
1062,6	1,386
1063	-1,157
1063,4	-3,5
1063,8	-2,157
1064,3	5,843
1064,7	8,786
1065,1	10,157
1065,5	12,986
1065,9	14,3
1066,3	13,871
1066,7	19,3
1067,1	12,214
1067,6	15,3
1068	15,071
1068,4	15,414
1068,8	17,957
1069,2	19,214
1069,6	12,757
1070	15,729
1070,4	11,786
1070,9	12,329
1071,3	14,414
1071,7	11,7
1072,1	6,614
1072,5	12,271
1072,9	12,929
1073,3	15,014
1073,7	12,529
1074,2	12,729
1074,6	14,757
1075	21,871
1075,4	22,671
1075,8	18,929
1076,2	15,9
1076,6	17,871
1077	14,929
1077,5	14,5
1077,9	6,7
1078,3	3,129
1078,7	1,614
1079,1	1,214
1079,5	1,157
1079,9	6,329
1080,3	10,3
1080,7	16,129
1081,2	13,586
1081,6	13,157
1082	17,3
1082,4	15,214
1082,8	12,671
1083,2	3,186
1083,6	5,414
1084	7,671
1084,5	10,643
1084,9	1,1
1085,3	-2,043
1085,7	-7,271
1086,1	-2,157
1086,5	-6,786
1086,9	-7,243
1087,3	-9,9
1087,7	2,7
1088,2	10,814
1088,6	14,586
1089	15,157
1089,4	15,7
1089,8	14,614
1090,2	15,586
1090,6	7,586
1091	-1,729
1091,4	0,157
1091,9	-4,1
1092,3	0,929
1092,7	1,9
1093,1	3,671
1093,5	3,329
1093,9	7,586
1094,3	5,329
1094,7	5,871
1095,1	5,1
1095,5	3,443
1096	7,243
1096,4	10,129
1096,8	13,7
1097,2	10,014
1097,6	13,614
1098	10,3
1098,4	16,614
1098,8	11,671
1099,2	11,9
1099,6	11,071
1100,1	14,614
1100,5	12,271
1100,9	10,671
1101,3	5,386
1101,7	5,129
1102,1	4,529
1102,5	1,043
1102,9	-1,529
1103,3	0,529
1103,7	1,3
1104,2	1,7
1104,6	6,729
1105	6,386
1105,4	8,271
1105,8	9,957
1106,2	7,814
1106,6	7,786
1107	6,729
1107,4	2,7
1107,8	2,66
1108,3	-0,25
