Data from Subt2_00034.txt Node
Date: Mon Aug 28 13:14:31 MSK 2023
User: vat
Spectrometer: MAYP114033
Trigger mode: 0
Integration Time (sec): 1,000000E0
Scans to average: 5
Electric dark correction enabled: true
Nonlinearity correction enabled: false
Boxcar width: 3
XAxis mode: Wavelengths
Number of Pixels in Spectrum: 2068
>>>>>Begin Spectral Data<<<<<
199,4	0,383
199,9	0,533
200,4	0,167
200,8	0,39
201,3	2,676
201,8	5,619
202,2	5,733
202,7	8,19
203,2	10,39
203,6	12,676
204,1	16,105
204,6	16,905
205	18,162
205,5	22,019
206	18,619
206,4	21,99
206,9	25,59
207,4	24,533
207,8	24,705
208,3	22,762
208,8	21,019
209,2	26,162
209,7	21,076
210,2	11,59
210,6	12,019
211,1	9,676
211,5	11,79
212	12,419
212,5	12,733
212,9	14,733
213,4	18,733
213,9	18,962
214,3	16,59
214,8	19,362
215,3	20,648
215,7	19,848
216,2	19,219
216,7	23,048
217,1	26,59
217,6	30,905
218,1	21,876
218,5	19,476
219	17,99
219,5	18,162
219,9	17,648
220,4	16,362
220,9	16,162
221,3	21,676
221,8	22,448
222,3	29,819
222,7	29,59
223,2	28,248
223,6	28,105
224,1	28,705
224,6	26,619
225	25,962
225,5	18,619
226	19,133
226,4	21,676
226,9	19,533
227,4	20,076
227,8	22,99
228,3	23,248
228,8	23,79
229,2	28,276
229,7	24,505
230,2	23,79
230,6	23,562
231,1	22,99
231,5	22,276
232	25,905
232,5	20,819
232,9	19,076
233,4	20,333
233,9	22,819
234,3	20,676
234,8	22,39
235,3	13,419
235,7	11,19
236,2	12,762
236,7	10,648
237,1	14,419
237,6	13,162
238,1	17,79
238,5	25,219
239	25,705
239,4	28,162
239,9	28,962
240,4	21,648
240,8	26,162
241,3	26,048
241,8	23,533
242,2	25,105
242,7	30,819
243,2	31,876
243,6	35,19
244,1	29,905
244,6	28,248
245	30,962
245,5	31,505
245,9	19,962
246,4	20,19
246,9	22,705
247,3	25,848
247,8	21,362
248,3	19,705
248,7	22,476
249,2	28,248
249,7	27,333
250,1	17,59
250,6	16,676
251	16,79
251,5	15,362
252	13,419
252,4	12,876
252,9	11,448
253,4	18,705
253,8	18,99
254,3	20,048
254,8	22,419
255,2	20,248
255,7	25,905
256,1	27,648
256,6	24,476
257,1	28,448
257,5	25,419
258	19,99
258,5	20,962
258,9	16,448
259,4	16,219
259,9	18,876
260,3	15,905
260,8	21,019
261,2	26,076
261,7	29,448
262,2	29,819
262,6	28,505
263,1	27,333
263,6	25,505
264	23,248
264,5	24,676
264,9	23,59
265,4	21,276
265,9	25,733
266,3	26,276
266,8	27,19
267,3	27,076
267,7	26,162
268,2	24,333
268,7	25,533
269,1	22,248
269,6	23,99
270	27,533
270,5	25,962
271	28,733
271,4	31,705
271,9	35,59
272,4	37,19
272,8	33,819
273,3	31,133
273,7	30,305
274,2	25,99
274,7	19,448
275,1	17,705
275,6	15,676
276,1	13,59
276,5	13,219
277	16,362
277,4	18,305
277,9	26,333
278,4	24,905
278,8	30,933
279,3	33,876
279,8	31,733
280,2	26,39
280,7	22,762
281,1	17,476
281,6	17,248
282,1	10,39
282,5	13,162
283	13,39
283,4	16,79
283,9	19,533
284,4	21,562
284,8	18,962
285,3	21,762
285,8	19,676
286,2	21,476
286,7	20,619
287,1	21,619
287,6	23,905
288,1	25,933
288,5	27,933
289	30,705
289,5	31,905
289,9	38,39
290,4	39,99
290,8	38,219
291,3	35,79
291,8	33,705
292,2	30,39
292,7	27,733
293,1	28,019
293,6	23,59
294,1	25,505
294,5	29,076
295	29,848
295,5	30,219
295,9	29,933
296,4	27,105
296,8	28,933
297,3	24,419
297,8	17,819
298,2	14,705
298,7	12,962
299,1	18,476
299,6	14,333
300,1	15,305
300,5	18,248
301	23,419
301,5	21,562
301,9	22,733
302,4	18,819
302,8	21,99
303,3	15,962
303,8	12,333
304,2	8,219
304,7	9,848
305,1	6,762
305,6	9,905
306,1	7,648
306,5	13,505
307	13,876
307,4	16,219
307,9	16,676
308,4	19,619
308,8	18,333
309,3	25,105
309,8	24,619
310,2	26,79
310,7	30,448
311,1	31,79
311,6	32,962
312,1	29,99
312,5	21,705
313	22,162
313,4	25,962
313,9	25,362
314,4	25,533
314,8	23,133
315,3	26,362
315,7	27,933
316,2	29,076
316,7	21,505
317,1	21,105
317,6	19,848
318	23,162
318,5	22,133
319	23,79
319,4	21,79
319,9	23,448
320,3	24,733
320,8	26,876
321,3	21,448
321,7	19,533
322,2	20,419
322,6	19,79
323,1	22,219
323,6	20,276
324	17,705
324,5	20,533
324,9	23,362
325,4	23,705
325,9	24,162
326,3	23,419
326,8	21,19
327,2	26,905
327,7	28,39
328,2	25,648
328,6	23,019
329,1	20,476
329,5	19,59
330	23,848
330,5	19,79
330,9	17,733
331,4	19,39
331,8	24,105
332,3	25,933
332,8	27,048
333,2	25,962
333,7	21,933
334,1	25,619
334,6	27,219
335,1	27,419
335,5	28,276
336	29,362
336,4	32,39
336,9	33,962
337,4	33,076
337,8	29,933
338,3	25,105
338,7	25,076
339,2	25,448
339,7	23,19
340,1	22,79
340,6	14,276
341	16,476
341,5	19,133
342	21,619
342,4	22,105
342,9	21,648
343,3	22,933
343,8	28,848
344,2	29,133
344,7	30,59
345,2	30,448
345,6	29,362
346,1	30,048
346,5	29,59
347	31,105
347,5	27,933
347,9	24,39
348,4	24,248
348,8	24,019
349,3	27,505
349,8	32,962
350,2	34,619
350,7	38,562
351,1	43,705
351,6	45,648
352	49,705
352,5	53,219
353	56,362
353,4	63,333
353,9	71,79
354,3	79,305
354,8	90,933
355,3	101,705
355,7	109,505
356,2	125,705
356,6	146,676
357,1	172,819
357,5	202,105
358	226,219
358,5	263,133
358,9	307,819
359,4	353,133
359,8	400,619
360,3	448,619
360,8	508,276
361,2	582,705
361,7	655,505
362,1	736,105
362,6	828,733
363	924,905
363,5	1034,476
364	1148,448
364,4	1262,733
364,9	1379,305
365,3	1496,448
365,8	1605,562
366,3	1711,19
366,7	1806,19
367,2	1888,962
367,6	1958,419
368,1	2016,076
368,5	2054,448
369	2070,305
369,5	2071,39
369,9	2053,362
370,4	2017,248
370,8	1971,133
371,3	1911,905
371,7	1845,076
372,2	1775,933
372,7	1696,762
373,1	1614,219
373,6	1524,79
374	1427,79
374,5	1338,219
374,9	1249,105
375,4	1155,248
375,9	1067,933
376,3	982,648
376,8	908,448
377,2	840,619
377,7	771,305
378,2	704,333
378,6	650,848
379,1	595,333
379,5	545,533
380	496,962
380,4	456,99
380,9	421,562
381,4	388,676
381,8	360,705
382,3	337,333
382,7	315,619
383,2	297,019
383,6	279,762
384,1	263,219
384,6	251,476
385	236,533
385,5	221,533
385,9	208,448
386,4	198,933
386,8	185,962
387,3	174,962
387,7	158,733
388,2	148,733
388,7	139,048
389,1	129,876
389,6	123,79
390	117,676
390,5	108,59
390,9	106,933
391,4	95,562
391,9	99,019
392,3	100,419
392,8	95,105
393,2	94,219
393,7	84,962
394,1	81,962
394,6	83,619
395,1	79,619
395,5	72,762
396	69,362
396,4	64,505
396,9	69,219
397,3	64,048
397,8	56,848
398,2	51,99
398,7	50,219
399,2	53,305
399,6	54,762
400,1	57,333
400,5	61,733
401	71,076
401,4	70,59
401,9	73,676
402,4	70,133
402,8	70,819
403,3	71,933
403,7	71,648
404,2	70,248
404,6	70,79
405,1	75,962
405,5	79,705
406	80,105
406,5	77,562
406,9	78,219
407,4	80,505
407,8	89,448
408,3	86,305
408,7	88,162
409,2	91,505
409,6	99,248
410,1	105,99
410,6	114,362
411	115,448
411,5	129,848
411,9	140,39
412,4	152,362
412,8	159,048
413,3	173,933
413,7	183,962
414,2	194,505
414,7	200,419
415,1	211,448
415,6	221,019
416	237,619
416,5	246,476
416,9	259,133
417,4	276,276
417,8	289,962
418,3	304,162
418,8	327,105
419,2	345,705
419,7	365,305
420,1	387,276
420,6	402,162
421	432,476
421,5	457,248
421,9	476,79
422,4	503,79
422,8	529,876
423,3	552,048
423,8	585,19
424,2	609,876
424,7	644,476
425,1	679,876
425,6	710,619
426	749,19
426,5	793,362
426,9	839,762
427,4	882,362
427,9	922,905
428,3	967,076
428,8	1016,333
429,2	1066,962
429,7	1117,99
430,1	1171,99
430,6	1234,39
431	1305,562
431,5	1377,248
431,9	1450,305
432,4	1524,79
432,8	1607,733
433,3	1693,219
433,8	1781,219
434,2	1871,819
434,7	1963,933
435,1	2065,219
435,6	2172,133
436	2277,99
436,5	2387,819
436,9	2502,248
437,4	2620,876
437,8	2748,619
438,3	2872,219
438,8	3006,419
439,2	3144,419
439,7	3285,362
440,1	3440,419
440,6	3592,762
441	3749,733
441,5	3920,733
441,9	4094,276
442,4	4272,19
442,8	4457,676
443,3	4645,762
443,7	4843,79
444,2	5047,848
444,7	5255,733
445,1	5467,819
445,6	5699,533
446	5940,276
446,5	6179,133
446,9	6413,676
447,4	6666,533
447,8	6925,305
448,3	7183,705
448,7	7440,733
449,2	7692,105
449,6	7964,59
450,1	8241,276
450,6	8523,962
451	8809,248
451,5	9103,619
451,9	9411,048
452,4	9722,59
452,8	10031,819
453,3	10354,276
453,7	10672,59
454,2	11008,705
454,6	11341,733
455,1	11682,419
455,5	12021,19
456	12361,019
456,4	12716,619
456,9	13080,733
457,3	13429,676
457,8	13787,019
458,3	14140,905
458,7	14516,39
459,2	14891,933
459,6	15268,39
460,1	15634,333
460,5	16024,333
461	16411,448
461,4	16795,019
461,9	17177,39
462,3	17564,933
462,8	17945,848
463,2	18331,19
463,7	18706,933
464,1	19082,733
464,6	19456,762
465	19834,733
465,5	20210,019
466	20584,933
466,4	20958,762
466,9	21322,019
467,3	21686,219
467,8	22069,962
468,2	22434,162
468,7	22797,962
469,1	23155,648
469,6	23513,733
470	23875,733
470,5	24235,962
470,9	24567,905
471,4	24912,819
471,8	25237,819
472,3	25570,133
472,7	25903,648
473,2	26216,219
473,6	26528,333
474,1	26838,248
474,5	27135,248
475	27442,933
475,4	27734,362
475,9	28012,419
476,4	28278,59
476,8	28539,448
477,3	28809,876
477,7	29053,419
478,2	29286,362
478,6	29520,362
479,1	29722,59
479,5	29944,419
480	30146,076
480,4	30328,39
480,9	30517,933
481,3	30691,19
481,8	30856,876
482,2	31029,362
482,7	31166,276
483,1	31327,819
483,6	31451,819
484	31577,99
484,5	31692,448
484,9	31787,419
485,4	31876,39
485,8	31967,533
486,3	32018,333
486,7	32099,505
487,2	32147,362
487,6	32185,333
488,1	32216,048
488,5	32246,019
489	32258,59
489,4	32276,448
489,9	32245,619
490,4	32228,219
490,8	32217,79
491,3	32188,076
491,7	32156,019
492,2	32121,79
492,6	32063,076
493,1	32003,048
493,5	31941,905
494	31852,676
494,4	31784,962
494,9	31685,333
495,3	31574,59
495,8	31473,105
496,2	31380,276
496,7	31274,962
497,1	31182,048
497,6	31059,562
498	30944,819
498,5	30842,79
498,9	30719,79
499,4	30573,619
499,8	30426,905
500,3	30272,905
500,7	30124,419
501,2	29955,19
501,6	29779,962
502,1	29609,676
502,5	29449,305
503	29286,99
503,4	29130,762
503,9	28944,933
504,3	28768,619
504,8	28578,448
505,2	28389,79
505,7	28195,248
506,1	27991,419
506,6	27768,79
507	27566,105
507,5	27365,819
507,9	27156,733
508,4	26939,819
508,8	26741,276
509,3	26533,305
509,7	26324,676
510,2	26111,505
510,6	25895,562
511,1	25687,762
511,5	25465,476
512	25239,676
512,4	25001,19
512,9	24770,476
513,3	24540,905
513,8	24304,876
514,2	24061,848
514,7	23839,59
515,1	23607,076
515,6	23382,533
516	23143,99
516,5	22903,276
516,9	22669,733
517,4	22457,762
517,8	22218,99
518,3	21977,533
518,7	21748,076
519,2	21528,99
519,6	21306,762
520,1	21077,819
520,5	20838,448
521	20611,248
521,4	20389,362
521,9	20172,19
522,3	19956,276
522,8	19739,39
523,2	19529,276
523,7	19320,448
524,1	19105,448
524,6	18889,99
525	18676,648
525,5	18468,619
525,9	18264,762
526,4	18058,819
526,8	17849,333
527,3	17654,476
527,7	17468,733
528,2	17260,219
528,6	17064,505
529,1	16851,048
529,5	16648,39
530	16465,133
530,4	16281,876
530,9	16084,79
531,3	15916,333
531,8	15726,59
532,2	15549,562
532,6	15385,019
533,1	15191,762
533,5	15012,476
534	14843,362
534,4	14671,819
534,9	14502,876
535,3	14353,333
535,8	14190,219
536,2	14044,99
536,7	13886,133
537,1	13724,505
537,6	13560,076
538	13409,048
538,5	13251,505
538,9	13096,133
539,4	12939,19
539,8	12788,762
540,3	12650,248
540,7	12512,648
541,2	12368,619
541,6	12222,962
542,1	12087,505
542,5	11959,99
543	11833,619
543,4	11697,333
543,9	11558,19
544,3	11430,476
544,8	11312,79
545,2	11183,448
545,7	11058,019
546,1	10931,419
546,5	10807,39
547	10694,676
547,4	10570,79
547,9	10449,962
548,3	10331,533
548,8	10215,533
549,2	10106,019
549,7	9998,305
550,1	9890,419
550,6	9783,076
551	9675,962
551,5	9572,933
551,9	9474,762
552,4	9370,876
552,8	9276,133
553,3	9174,476
553,7	9084,79
554,2	9002,448
554,6	8915,048
555,1	8826,362
555,5	8738,533
555,9	8653,048
556,4	8573,105
556,8	8491,99
557,3	8397,705
557,7	8316,533
558,2	8239,076
558,6	8161,419
559,1	8083,79
559,5	8002,676
560	7921,219
560,4	7850,219
560,9	7776,076
561,3	7690,019
561,8	7616,048
562,2	7533,333
562,7	7457,533
563,1	7382,933
563,6	7313,248
564	7241,876
564,4	7175,162
564,9	7105,562
565,3	7045,476
565,8	6983,59
566,2	6921,505
566,7	6858,705
567,1	6791,219
567,6	6730,619
568	6668,905
568,5	6606,105
568,9	6546,219
569,4	6485,905
569,8	6416,333
570,3	6362,876
570,7	6309,762
571,1	6257,133
571,6	6199,848
572	6145,448
572,5	6082,19
572,9	6030,133
573,4	5970,219
573,8	5910,933
574,3	5853,476
574,7	5800,019
575,2	5746,819
575,6	5710,219
576,1	5664,819
576,5	5615,39
576,9	5559,476
577,4	5510,333
577,8	5460,133
578,3	5407,819
578,7	5348,905
579,2	5297,705
579,6	5249,476
580,1	5213,648
580,5	5171,248
581	5135,048
581,4	5099,19
581,9	5059,848
582,3	5017,876
582,7	4977,048
583,2	4928,533
583,6	4886,133
584,1	4845,019
584,5	4796,476
585	4751,19
585,4	4707,648
585,9	4661,505
586,3	4622,59
586,8	4578,476
587,2	4533,962
587,6	4495,305
588,1	4463,648
588,5	4425,305
589	4397,648
589,4	4363,333
589,9	4333,505
590,3	4297,676
590,8	4267,419
591,2	4228,105
591,7	4196,848
592,1	4161,39
592,5	4130,448
593	4097,162
593,4	4072,762
593,9	4040,248
594,3	4012,99
594,8	3988,333
595,2	3959,962
595,7	3925,848
596,1	3900,419
596,6	3863,448
597	3841,59
597,4	3816,876
597,9	3790,619
598,3	3763,305
598,8	3743,676
599,2	3711,362
599,7	3696,105
600,1	3667,648
600,6	3639,219
601	3610,105
601,4	3582,819
601,9	3550,133
602,3	3533,133
602,8	3502,762
603,2	3477,362
603,7	3454,105
604,1	3429,79
604,6	3412,133
605	3394,905
605,4	3361,619
605,9	3338,962
606,3	3315,79
606,8	3290,362
607,2	3267,733
607,7	3245,362
608,1	3215,648
608,6	3194,648
609	3171,476
609,4	3143,79
609,9	3126,848
610,3	3109,448
610,8	3088,962
611,2	3073,733
611,7	3055,105
612,1	3037,105
612,6	3015,762
613	2991,676
613,4	2967,99
613,9	2947,019
614,3	2927,905
614,8	2902,676
615,2	2879,59
615,7	2863,762
616,1	2845,733
616,6	2826,99
617	2798,876
617,4	2772,476
617,9	2757,305
618,3	2739,19
618,8	2715,048
619,2	2691,305
619,7	2666,39
620,1	2653,562
620,5	2634,848
621	2609,305
621,4	2591,133
621,9	2575,219
622,3	2562,819
622,8	2548,505
623,2	2526,562
623,6	2511,648
624,1	2500,819
624,5	2484,305
625	2465,79
625,4	2442,333
625,9	2425,162
626,3	2410,905
626,8	2394,59
627,2	2373,162
627,6	2351,676
628,1	2334,99
628,5	2322,105
629	2300,762
629,4	2281,39
629,9	2258,248
630,3	2241,733
630,7	2227,59
631,2	2216,99
631,6	2191,876
632,1	2179,99
632,5	2167,962
633	2158,962
633,4	2145,19
633,8	2129,59
634,3	2110,99
634,7	2097,305
635,2	2082,99
635,6	2063,105
636,1	2042,676
636,5	2022,705
636,9	2003,162
637,4	1985,248
637,8	1978,105
638,3	1963,99
638,7	1951,019
639,2	1939,133
639,6	1930,562
640	1919,448
640,5	1909,419
640,9	1896,105
641,4	1883,848
641,8	1871,019
642,2	1858,19
642,7	1849,819
643,1	1835,133
643,6	1821,305
644	1808,933
644,5	1799,305
644,9	1792,562
645,3	1780,562
645,8	1766,533
646,2	1755,276
646,7	1739,819
647,1	1722,305
647,6	1706,048
648	1694,619
648,4	1688,819
648,9	1676,876
649,3	1670,133
649,8	1663,733
650,2	1655,733
650,6	1642,79
651,1	1627,648
651,5	1613,533
652	1607,876
652,4	1595,819
652,9	1582,848
653,3	1571,619
653,7	1566,905
654,2	1558,105
654,6	1544,248
655,1	1532,19
655,5	1520,79
655,9	1509,648
656,4	1502,562
656,8	1488,276
657,3	1481,105
657,7	1471,476
658,2	1459,333
658,6	1450,248
659	1438,39
659,5	1426,705
659,9	1415,79
660,4	1398,99
660,8	1392,162
661,2	1380,676
661,7	1372,162
662,1	1366,162
662,6	1356,876
663	1348,305
663,4	1343,819
663,9	1334,848
664,3	1318,762
664,8	1304,876
665,2	1293,79
665,6	1284,762
666,1	1274,39
666,5	1262,848
667	1251,448
667,4	1249,705
667,9	1240,448
668,3	1234,19
668,7	1225,448
669,2	1212,59
669,6	1198,048
670,1	1187,705
670,5	1180,648
670,9	1170,848
671,4	1157,705
671,8	1151,019
672,3	1148,19
672,7	1146,762
673,1	1143,619
673,6	1133,048
674	1128,619
674,5	1124,733
674,9	1116,933
675,3	1109,962
675,8	1099,648
676,2	1088,562
676,7	1084,79
677,1	1076,39
677,5	1069,762
678	1061,505
678,4	1052,39
678,9	1045,19
679,3	1037,562
679,7	1024,733
680,2	1017,276
680,6	1008,648
681,1	996,733
681,5	986,819
681,9	984,048
682,4	974,533
682,8	965,733
683,3	959,333
683,7	952,133
684,1	946,333
684,6	939,276
685	924,105
685,5	913,276
685,9	905,905
686,3	903,59
686,8	898,99
687,2	897,533
687,7	892,276
688,1	892,019
688,5	893,019
689	894,133
689,4	880,733
689,9	877,133
690,3	868,105
690,7	864,448
691,2	856,019
691,6	851,076
692	843,648
692,5	836,333
692,9	821,648
693,4	817,476
693,8	809,762
694,2	802,648
694,7	790,248
695,1	785,848
695,6	787,448
696	789,305
696,4	782,305
696,9	780,648
697,3	775,648
697,8	776,848
698,2	769,819
698,6	759,105
699,1	753,276
699,5	747,733
699,9	740,133
700,4	734,705
700,8	726,848
701,3	718,648
701,7	712,105
702,1	706,248
702,6	698,876
703	693,362
703,5	685,848
703,9	682,848
704,3	678,276
704,8	677,819
705,2	674,105
705,6	674,905
706,1	665,533
706,5	669,79
707	666,333
707,4	663,733
707,8	659,705
708,3	652,733
708,7	648,933
709,2	648,99
709,6	641,362
710	635,59
710,5	631,333
710,9	624,533
711,3	618,419
711,8	607,59
712,2	605,419
712,7	596,333
713,1	591,59
713,5	587,905
714	582,448
714,4	576,59
714,8	579,048
715,3	575,476
715,7	574,133
716,2	571,476
716,6	563,933
717	563,219
717,5	560,99
717,9	548,448
718,3	541,448
718,8	537,619
719,2	533,819
719,7	533,648
720,1	529,448
720,5	533,162
721	532,19
721,4	530,333
721,8	528,448
722,3	529,819
722,7	524,733
723,2	519,133
723,6	510,39
724	510,219
724,5	507,59
724,9	501,705
725,3	487,048
725,8	477,019
726,2	473,162
726,7	465,162
727,1	458,305
727,5	451,162
728	445,305
728,4	448,219
728,8	448,133
729,3	448,248
729,7	449,105
730,1	446,648
730,6	445,076
731	442,305
731,5	437,562
731,9	436,876
732,3	434,933
732,8	428,962
733,2	429,248
733,6	425,39
734,1	421,305
734,5	418,648
734,9	412,762
735,4	409,305
735,8	405,248
736,3	396,99
736,7	395,162
737,1	394,676
737,6	394,162
738	396,476
738,4	393,819
738,9	393,848
739,3	396,676
739,7	396,962
740,2	398,79
740,6	398,476
741,1	394,419
741,5	390,048
741,9	390,133
742,4	387,133
742,8	383,905
743,2	378,39
743,7	373,562
744,1	373,162
744,5	367,905
745	364,419
745,4	365,105
745,8	360,79
746,3	361,162
746,7	355,048
747,2	349,762
747,6	353,419
748	357,762
748,5	353,362
748,9	349,705
749,3	350,648
749,8	351,162
750,2	349,133
750,6	342,819
751,1	336,533
751,5	336,048
751,9	340,076
752,4	339,048
752,8	337,362
753,3	337,59
753,7	339,162
754,1	340,933
754,6	332,019
755	326,105
755,4	324,59
755,9	322,705
756,3	319,19
756,7	319,276
757,2	309,733
757,6	312,076
758	311,933
758,5	302,162
758,9	299,39
759,3	297,648
759,8	291,676
760,2	295,562
760,6	299,019
761,1	299,305
761,5	301,848
761,9	299,362
762,4	300,619
762,8	300,79
763,3	294,39
763,7	288,105
764,1	278,533
764,6	273,333
765	272,333
765,4	270,333
765,9	269,105
766,3	271,79
766,7	269,79
767,2	272,19
767,6	271,933
768	265,333
768,5	259,505
768,9	254,99
769,3	249,648
769,8	246,505
770,2	244,019
770,6	239,59
771,1	243,419
771,5	245,533
771,9	246,819
772,4	245,933
772,8	246,19
773,2	246,733
773,7	247,248
774,1	250,933
774,5	249,39
775	244,705
775,4	244,248
775,8	246,305
776,3	247,419
776,7	245,848
777,1	239,505
777,6	234,762
778	231,962
778,4	228,762
778,9	221,79
779,3	216,276
779,7	216,762
780,2	216,705
780,6	219,019
781	220,219
781,5	215,648
781,9	217,162
782,3	217,505
782,8	216,505
783,2	214,562
783,6	213,076
784,1	213,419
784,5	216,848
784,9	213,79
785,4	210,933
785,8	207,933
786,2	204,59
786,7	202,39
787,1	203,876
787,5	201,762
788	198,762
788,4	198,876
788,8	195,733
789,3	199,876
789,7	199,819
790,1	197,19
790,6	197,219
791	197,219
791,4	196,505
791,9	197,99
792,3	191,848
792,7	195,99
793,2	193,705
793,6	190,562
794	192,619
794,5	192,162
794,9	192,962
795,3	196,048
795,8	190,562
796,2	183,305
796,6	185,819
797,1	184,276
797,5	180,076
797,9	174,848
798,4	172,619
798,8	169,248
799,2	175,362
799,7	171,019
800,1	170,962
800,5	172,79
801	179,733
801,4	176,762
801,8	173,705
802,2	168,762
802,7	166,162
803,1	162,876
803,5	160,933
804	154,419
804,4	157,219
804,8	159,276
805,3	161,305
805,7	164,219
806,1	162,219
806,6	164,105
807	160,762
807,4	158,162
807,9	159,39
808,3	156,762
808,7	156,962
809,2	157,876
809,6	156,248
810	155,619
810,4	150,705
810,9	146,362
811,3	146,448
811,7	138,79
812,2	138,676
812,6	132,076
813	135,105
813,5	141,248
813,9	141,133
814,3	136,733
814,8	137,448
815,2	135,562
815,6	136,762
816,1	138,933
816,5	132,362
816,9	133,819
817,3	137,619
817,8	141,276
818,2	136,533
818,6	136,448
819,1	130,248
819,5	127,276
819,9	128,162
820,4	130,362
820,8	124,676
821,2	124,562
821,7	122,562
822,1	122,762
822,5	130,562
822,9	127,048
823,4	125,819
823,8	132,133
824,2	133,533
824,7	132,876
825,1	134,619
825,5	128,276
826	124,762
826,4	117,733
826,8	108,076
827,3	107,648
827,7	107,733
828,1	101,276
828,5	107,133
829	108,962
829,4	107,19
829,8	112,19
830,3	109,105
830,7	108,962
831,1	111,19
831,6	103,962
832	105,733
832,4	106,705
832,8	100,619
833,3	103,933
833,7	101,162
834,1	100,733
834,6	103,105
835	100,619
835,4	98,99
835,8	101,248
836,3	96,933
836,7	96,19
837,1	94,762
837,6	87,162
838	82,219
838,4	80,276
838,9	82,448
839,3	83,076
839,7	82,448
840,1	86,59
840,6	92,133
841	89,59
841,4	91,905
841,9	88,962
842,3	86,333
842,7	85,962
843,1	81,248
843,6	77,076
844	80,219
844,4	81,79
844,9	83,648
845,3	86,19
845,7	85,105
846,2	85,962
846,6	87,619
847	89,219
847,4	89,876
847,9	88,219
848,3	81,419
848,7	84,105
849,2	83,962
849,6	84,219
850	83,79
850,4	79,019
850,9	77,905
851,3	85,933
851,7	80,619
852,2	74,476
852,6	73,248
853	73,076
853,4	70,733
853,9	68,905
854,3	70,333
854,7	78,362
855,2	83,619
855,6	79,276
856	79,733
856,4	77,762
856,9	78,305
857,3	69,819
857,7	67,533
858,2	63,648
858,6	63,076
859	58,305
859,4	60,762
859,9	60,362
860,3	63,133
860,7	58,733
861,1	60,333
861,6	62,419
862	64,19
862,4	65,762
862,9	67,333
863,3	66,59
863,7	66,219
864,1	64,562
864,6	66,39
865	64,305
865,4	66,276
865,9	63,933
866,3	64,533
866,7	63,733
867,1	61,476
867,6	62,448
868	62,019
868,4	57,819
868,8	55,762
869,3	56,076
869,7	57,419
870,1	57,533
870,6	55,848
871	44,133
871,4	46,248
871,8	49,676
872,3	49,19
872,7	44,562
873,1	40,562
873,5	39,133
874	50,962
874,4	50,19
874,8	49,705
875,3	45,99
875,7	48,648
876,1	55,819
876,5	55,162
877	52,162
877,4	53,276
877,8	54,362
878,2	56,305
878,7	57,99
879,1	55,819
879,5	51,905
879,9	50,333
880,4	46,076
880,8	45,562
881,2	42,762
881,7	43,562
882,1	44,162
882,5	46,705
882,9	52,39
883,4	55,676
883,8	52,076
884,2	51,076
884,6	45,733
885,1	42,905
885,5	39,333
885,9	37,733
886,3	34,733
886,8	37,019
887,2	36,476
887,6	38,562
888	35,848
888,5	35,362
888,9	34,762
889,3	30,876
889,8	30,39
890,2	31,905
890,6	32,133
891	37,362
891,5	40,59
891,9	37,505
892,3	43,248
892,7	37,533
893,2	39,962
893,6	38,162
894	37,533
894,4	31,79
894,9	33,962
895,3	29,99
895,7	34,476
896,1	29,362
896,6	32,962
897	33,276
897,4	39,876
897,8	41,39
898,3	41,219
898,7	37,448
899,1	40,676
899,5	38,333
900	32,876
900,4	29,048
900,8	23,505
901,2	21,79
901,7	25,905
902,1	22,733
902,5	21,219
902,9	25,362
903,4	25,105
903,8	27,39
904,2	32,848
904,6	30,648
905,1	37,562
905,5	39,59
905,9	38,305
906,3	41,333
906,8	38,362
907,2	35,419
907,6	33,248
908	26,848
908,5	20,705
908,9	21,448
909,3	22,248
909,7	27,762
910,2	28,59
910,6	29,933
911	31,59
911,4	36,762
911,9	35,933
912,3	33,048
912,7	32,819
913,1	32,276
913,6	32,619
914	38,39
914,4	39,133
914,8	37,533
915,3	37,076
915,7	36,876
916,1	35,962
916,5	33,076
916,9	26,733
917,4	23,79
917,8	24,19
918,2	26,876
918,6	21,076
919,1	20,505
919,5	23,59
919,9	25,59
920,3	25,705
920,8	28,705
921,2	24,048
921,6	26,819
922	24,848
922,5	27,362
922,9	28,876
923,3	31,819
923,7	29,39
924,2	32,848
924,6	34,962
925	36,876
925,4	33,276
925,8	32,305
926,3	30,79
926,7	31,505
927,1	30,333
927,5	28,733
928	29,048
928,4	26,905
928,8	25,048
929,2	27,676
929,7	29,219
930,1	32,219
930,5	32,219
930,9	34,305
931,3	39,99
931,8	39,448
932,2	35,419
932,6	31,448
933	24,133
933,5	24,362
933,9	25,476
934,3	21,248
934,7	26,048
935,2	27,448
935,6	27,533
936	30,276
936,4	32,19
936,8	31,819
937,3	33,076
937,7	30,876
938,1	32,819
938,5	30,39
939	30,676
939,4	28,762
939,8	22,619
940,2	26,448
940,6	20,19
941,1	15,848
941,5	18,048
941,9	20,419
942,3	19,362
942,8	23,476
943,2	14,476
943,6	19,676
944	20,248
944,4	20,076
944,9	15,533
945,3	15,562
945,7	14,162
946,1	17,762
946,6	15,219
947	17,162
947,4	13,19
947,8	16,39
948,2	20,133
948,7	18,962
949,1	17,762
949,5	19,076
949,9	14,79
950,3	16,333
950,8	14,962
951,2	12,305
951,6	14,876
952	16,333
952,5	12,848
952,9	12,705
953,3	13,648
953,7	10,962
954,1	12,276
954,6	11,79
955	11,59
955,4	14,562
955,8	18,848
956,2	19,248
956,7	24,733
957,1	21,562
957,5	21,733
957,9	23,419
958,3	26,876
958,8	26,219
959,2	30,305
959,6	31,019
960	29,219
960,5	26,705
960,9	25,533
961,3	22,59
961,7	26,99
962,1	24,933
962,6	20,19
963	22,448
963,4	28,448
963,8	31,19
964,2	28,133
964,7	21,905
965,1	23,876
965,5	30,419
965,9	28,533
966,3	24,505
966,8	22,905
967,2	28,248
967,6	28,562
968	26,59
968,4	28,676
968,9	32,705
969,3	33,305
969,7	31,133
970,1	26,076
970,5	26,19
971	29,19
971,4	24,99
971,8	23,99
972,2	22,476
972,6	21,219
973,1	23,105
973,5	26,876
973,9	20,505
974,3	20,562
974,7	18,505
975,2	17,105
975,6	18,848
976	21,019
976,4	15,19
976,8	18,876
977,3	15,99
977,7	16,905
978,1	19,648
978,5	20,448
978,9	22,39
979,4	28,19
979,8	27,505
980,2	30,819
980,6	35,019
981	30,648
981,5	33,105
981,9	30,048
982,3	26,048
982,7	24,333
983,1	17,962
983,6	14,848
984	16,648
984,4	11,648
984,8	13,019
985,2	16,933
985,6	16,448
986,1	17,99
986,5	17,648
986,9	16,99
987,3	19,676
987,7	13,276
988,2	9,79
988,6	10,305
989	17,19
989,4	14,648
989,8	13,248
990,3	9,162
990,7	13,848
991,1	12,276
991,5	13,162
991,9	1,99
992,3	4,133
992,8	8,448
993,2	8,962
993,6	4,419
994	8,019
994,4	13,248
994,9	19,99
995,3	22,705
995,7	21,105
996,1	23,219
996,5	27,905
996,9	35,79
997,4	27,562
997,8	25,19
998,2	22,248
998,6	20,39
999	19,448
999,5	21,962
999,9	13,276
1000,3	14,962
1000,7	21,219
1001,1	20,819
1001,5	22,676
1002	24,076
1002,4	21,448
1002,8	22,019
1003,2	22,648
1003,6	17,533
1004	22,162
1004,5	23,219
1004,9	22,505
1005,3	17,076
1005,7	18,048
1006,1	17,333
1006,6	18,019
1007	12,705
1007,4	11,076
1007,8	10,562
1008,2	15,933
1008,6	14,533
1009,1	15,619
1009,5	18,762
1009,9	17,133
1010,3	20,762
1010,7	24,362
1011,1	24,476
1011,6	23,305
1012	23,419
1012,4	18,59
1012,8	20,248
1013,2	14,305
1013,6	15,105
1014,1	11,79
1014,5	10,933
1014,9	9,99
1015,3	13,848
1015,7	16,619
1016,1	21,933
1016,6	18,419
1017	19,19
1017,4	18,99
1017,8	22,962
1018,2	18,648
1018,6	19,333
1019,1	16,762
1019,5	14,505
1019,9	16,79
1020,3	15,019
1020,7	13,505
1021,1	13,619
1021,6	13,79
1022	11,79
1022,4	14,848
1022,8	13,905
1023,2	15,476
1023,6	10,905
1024,1	15,419
1024,5	13,333
1024,9	18,533
1025,3	18,648
1025,7	18,99
1026,1	16,848
1026,6	26,619
1027	24,848
1027,4	27,79
1027,8	21,219
1028,2	24,59
1028,6	23,676
1029	21,276
1029,5	14,476
1029,9	17,133
1030,3	12,019
1030,7	16,733
1031,1	14,19
1031,5	14,505
1032	18,533
1032,4	21,533
1032,8	17,362
1033,2	17,676
1033,6	16,705
1034	11,99
1034,4	13,962
1034,9	18,905
1035,3	20,248
1035,7	20,305
1036,1	23,39
1036,5	23,219
1036,9	26,99
1037,4	26,762
1037,8	23,476
1038,2	23,248
1038,6	24,962
1039	25,105
1039,4	29,248
1039,8	31,362
1040,3	32,762
1040,7	39,505
1041,1	30,162
1041,5	31,905
1041,9	33,705
1042,3	27,848
1042,7	24,619
1043,2	21,133
1043,6	19,476
1044	24,333
1044,4	26,248
1044,8	23,733
1045,2	24,39
1045,6	30,733
1046,1	36,419
1046,5	30,219
1046,9	34,333
1047,3	30,505
1047,7	30,762
1048,1	32,59
1048,5	29,676
1049	23,99
1049,4	22,39
1049,8	23,333
1050,2	22,276
1050,6	19,733
1051	23,933
1051,4	18,362
1051,9	19,448
1052,3	23,533
1052,7	20,305
1053,1	18,933
1053,5	23,162
1053,9	23,019
1054,3	25,133
1054,8	23,733
1055,2	23,762
1055,6	28,219
1056	26,076
1056,4	18,762
1056,8	19,219
1057,2	16,99
1057,6	22,019
1058,1	21,876
1058,5	13,705
1058,9	18,333
1059,3	22,905
1059,7	20,505
1060,1	22,79
1060,5	19,048
1061	16,79
1061,4	19,762
1061,8	20,419
1062,2	19,648
1062,6	15,448
1063	18,619
1063,4	19,133
1063,8	19,733
1064,3	26,048
1064,7	24,99
1065,1	26,848
1065,5	28,99
1065,9	28,362
1066,3	27,705
1066,7	34,19
1067,1	26,276
1067,6	28,048
1068	31,905
1068,4	33,619
1068,8	35,533
1069,2	40,905
1069,6	36,99
1070	37,133
1070,4	35,133
1070,9	32,219
1071,3	32,076
1071,7	27,876
1072,1	21,333
1072,5	20,048
1072,9	23,562
1073,3	23,333
1073,7	19,562
1074,2	20,19
1074,6	20,133
1075	22,333
1075,4	25,476
1075,8	22,876
1076,2	25,676
1076,6	26,99
1077	27,162
1077,5	28,019
1077,9	23,333
1078,3	16,39
1078,7	16,533
1079,1	15,533
1079,5	18,276
1079,9	21,819
1080,3	23,19
1080,7	28,762
1081,2	33,676
1081,6	31,99
1082	35,533
1082,4	31,99
1082,8	25,219
1083,2	18,905
1083,6	17,105
1084	15,333
1084,5	18,476
1084,9	11,076
1085,3	10,133
1085,7	13,39
1086,1	20,448
1086,5	20,076
1086,9	22,305
1087,3	21,448
1087,7	26,162
1088,2	31,962
1088,6	29,819
1089	28,39
1089,4	30,019
1089,8	23,762
1090,2	20,476
1090,6	16,305
1091	9,333
1091,4	10,819
1091,9	7,39
1092,3	9,333
1092,7	10,533
1093,1	12,562
1093,5	12,19
1093,9	13,619
1094,3	10,762
1094,7	13,619
1095,1	14,305
1095,5	20,676
1096	23,876
1096,4	22,39
1096,8	27,448
1097,2	28,305
1097,6	27,648
1098	21,705
1098,4	18,733
1098,8	17,848
1099,2	23,333
1099,6	21,876
1100,1	23,933
1100,5	21,362
1100,9	20,619
1101,3	19,133
1101,7	15,333
1102,1	14,533
1102,5	10,905
1102,9	4,962
1103,3	8,019
1103,7	10,048
1104,2	8,39
1104,6	10,99
1105	7,819
1105,4	8,733
1105,8	10,333
1106,2	7,219
1106,6	5,19
1107	5,162
1107,4	2,667
1107,8	2,373
1108,3	0,533
