Data from Subt2_00004.txt Node
Date: Mon Aug 28 13:04:21 MSK 2023
User: vat
Spectrometer: MAYP114033
Trigger mode: 0
Integration Time (sec): 1,000000E0
Scans to average: 5
Electric dark correction enabled: true
Nonlinearity correction enabled: false
Boxcar width: 3
XAxis mode: Wavelengths
Number of Pixels in Spectrum: 2068
>>>>>Begin Spectral Data<<<<<
199,4	-0,5
199,9	0,58
200,4	-1,467
200,8	0,1
201,3	-2,214
201,8	0,1
202,2	-0,643
202,7	1,643
203,2	-1,3
203,6	3,186
204,1	4,786
204,6	8,443
205	8,986
205,5	12,814
206	9,614
206,4	11,786
206,9	9,9
207,4	8,357
207,8	5,214
208,3	2,957
208,8	4,671
209,2	7,243
209,7	9,1
210,2	4,929
210,6	4,1
211,1	4,986
211,5	9,757
212	5,9
212,5	4,957
212,9	3,071
213,4	13,786
213,9	14,957
214,3	15,271
214,8	10,471
215,3	12,786
215,7	11,671
216,2	15,357
216,7	9,729
217,1	7,643
217,6	8,271
218,1	7,071
218,5	1,614
219	6,1
219,5	1,643
219,9	2,529
220,4	2,929
220,9	4,1
221,3	5,214
221,8	7,957
222,3	7,329
222,7	10,643
223,2	9,157
223,6	11,214
224,1	12,957
224,6	15,986
225	17,014
225,5	16,414
226	14,557
226,4	16,014
226,9	12,671
227,4	12,957
227,8	10,986
228,3	11,586
228,8	11,186
229,2	16,129
229,7	16,414
230,2	18,614
230,6	14,9
231,1	13,271
231,5	11,986
232	12,9
232,5	8,957
232,9	4,157
233,4	4,843
233,9	8,557
234,3	8,271
234,8	10,871
235,3	4,071
235,7	1,443
236,2	0,043
236,7	0,443
237,1	5,871
237,6	11,7
238,1	5,643
238,5	13,929
239	14,843
239,4	22,014
239,9	22,614
240,4	15,757
240,8	12,243
241,3	22,643
241,8	20,671
242,2	23,071
242,7	22,129
243,2	19,414
243,6	23,871
244,1	22,043
244,6	15,757
245	16,643
245,5	18,729
245,9	11,957
246,4	12,7
246,9	8,329
247,3	9,757
247,8	9,214
248,3	8,986
248,7	4,9
249,2	7,757
249,7	6,3
250,1	2,214
250,6	2,643
251	-0,929
251,5	-1,529
252	-1,471
252,4	1,814
252,9	5,186
253,4	8,329
253,8	7,243
254,3	13,243
254,8	14,643
255,2	16,329
255,7	15,014
256,1	13,557
256,6	14,986
257,1	14,586
257,5	15,186
258	9,329
258,5	8,671
258,9	8,814
259,4	8,157
259,9	6,757
260,3	5,3
260,8	1,329
261,2	6,957
261,7	11,814
262,2	12,757
262,6	9,786
263,1	10,814
263,6	13,643
264	16,871
264,5	14,671
264,9	11,1
265,4	6,843
265,9	11,643
266,3	12,871
266,8	12,957
267,3	7,186
267,7	6,443
268,2	4,186
268,7	7,7
269,1	7,414
269,6	7,671
270	8,929
270,5	8,614
271	8,814
271,4	10,186
271,9	14,014
272,4	14,871
272,8	13,957
273,3	11,614
273,7	14,329
274,2	14,729
274,7	10,986
275,1	8,271
275,6	6,7
276,1	3,929
276,5	5,214
277	9,1
277,4	7,671
277,9	10,729
278,4	9,414
278,8	9,214
279,3	12,929
279,8	6,471
280,2	0,729
280,7	-1,5
281,1	-0,5
281,6	-0,3
282,1	-0,186
282,5	2,071
283	5,329
283,4	14,071
283,9	19,1
284,4	15,929
284,8	17,071
285,3	18,843
285,8	17,1
286,2	14,643
286,7	10,3
287,1	9,586
287,6	11,957
288,1	15,957
288,5	13,814
289	12,214
289,5	14,586
289,9	19,414
290,4	22,671
290,8	26,1
291,3	24,214
291,8	31,7
292,2	29,614
292,7	34,729
293,1	26,586
293,6	20,843
294,1	18,243
294,5	16,529
295	11,957
295,5	15,129
295,9	11,586
296,4	17,386
296,8	20,357
297,3	15,557
297,8	6,071
298,2	1,986
298,7	1,871
299,1	5,3
299,6	0,214
300,1	-0,814
300,5	1,529
301	9,271
301,5	11,329
301,9	9,871
302,4	4,529
302,8	5,614
303,3	4,529
303,8	9,471
304,2	4,043
304,7	5,3
305,1	4,357
305,6	10,586
306,1	10,471
306,5	15,3
307	10,186
307,4	13,929
307,9	10,586
308,4	11,1
308,8	5,186
309,3	7,7
309,8	4,243
310,2	7,329
310,7	13,243
311,1	16,071
311,6	15,243
312,1	17,014
312,5	13,529
313	11,071
313,4	12,071
313,9	7,643
314,4	8,843
314,8	8,786
315,3	8,671
315,7	10,071
316,2	15,3
316,7	9,329
317,1	9,471
317,6	5,1
318	7,871
318,5	10,329
319	11,986
319,4	8,243
319,9	10,929
320,3	8,329
320,8	14,529
321,3	10,014
321,7	5,329
322,2	3,671
322,6	2,814
323,1	5,214
323,6	6,129
324	2,7
324,5	3,1
324,9	5,329
325,4	8,014
325,9	13,071
326,3	11,414
326,8	12,014
327,2	13,3
327,7	13,471
328,2	13,243
328,6	11,443
329,1	6,014
329,5	4,271
330	5,929
330,5	5,3
330,9	6,043
331,4	9,329
331,8	9,329
332,3	12,129
332,8	14,843
333,2	14,7
333,7	9,986
334,1	12,5
334,6	10,586
335,1	13,814
335,5	15,357
336	13,757
336,4	15,786
336,9	19,271
337,4	16,957
337,8	16,243
338,3	9,671
338,7	6,386
339,2	7,614
339,7	9,814
340,1	7,757
340,6	4,214
341	6,014
341,5	11,843
342	12,986
342,4	17,7
342,9	15,643
343,3	15,329
343,8	19,071
344,2	20,871
344,7	20,386
345,2	21,671
345,6	17,786
346,1	14,157
346,5	16,443
347	15,757
347,5	13,357
347,9	11,643
348,4	11,186
348,8	11,357
349,3	16,843
349,8	20,843
350,2	23,357
350,7	24,386
351,1	27,614
351,6	33,443
352	37,986
352,5	40,957
353	45,186
353,4	56,186
353,9	65,557
354,3	77,129
354,8	88,643
355,3	105,729
355,7	125,186
356,2	144,529
356,6	169,443
357,1	203,5
357,5	235,243
358	272,9
358,5	318,9
358,9	366,643
359,4	429,157
359,8	492,557
360,3	560,786
360,8	646,414
361,2	736,471
361,7	833,186
362,1	939,757
362,6	1056,7
363	1179,729
363,5	1316,271
364	1454,329
364,4	1597,843
364,9	1741,843
365,3	1890,643
365,8	2023,843
366,3	2154,814
366,7	2266,071
367,2	2364,729
367,6	2449,014
368,1	2510,757
368,5	2548,786
369	2570,043
369,5	2566,757
369,9	2547,357
370,4	2507,929
370,8	2449,986
371,3	2374,3
371,7	2291,243
372,2	2203,329
372,7	2105,986
373,1	1994,357
373,6	1870,157
374	1753,3
374,5	1640,186
374,9	1525,814
375,4	1408,871
375,9	1294,786
376,3	1194,386
376,8	1110,129
377,2	1019,643
377,7	940,414
378,2	865,3
378,6	793,329
379,1	730,1
379,5	668,014
380	608,5
380,4	563,3
380,9	517,557
381,4	469,729
381,8	437,414
382,3	407,814
382,7	379,643
383,2	356,129
383,6	330,614
384,1	305,157
384,6	291,529
385	269,843
385,5	246,929
385,9	232,814
386,4	218,729
386,8	205,986
387,3	192,957
387,7	179,471
388,2	164,814
388,7	155,529
389,1	138,214
389,6	127,671
390	117,443
390,5	109,586
390,9	99,529
391,4	93,357
391,9	86,214
392,3	91,557
392,8	87,786
393,2	84,157
393,7	79,986
394,1	78,5
394,6	74,786
395,1	75,129
395,5	68,586
396	64,386
396,4	59,043
396,9	55,7
397,3	55,414
397,8	54,243
398,2	53,129
398,7	52,1
399,2	56,414
399,6	58,271
400,1	58,1
400,5	57,643
401	59,957
401,4	61,957
401,9	58,814
402,4	57,757
402,8	57,043
403,3	61,871
403,7	62,729
404,2	61,9
404,6	61,071
405,1	68,843
405,5	67,614
406	67,557
406,5	71,643
406,9	71,814
407,4	75,243
407,8	80,243
408,3	83,271
408,7	89,157
409,2	95,986
409,6	99,729
410,1	105,529
410,6	114,329
411	115,814
411,5	123,871
411,9	134,014
412,4	144,329
412,8	149,957
413,3	164,786
413,7	177,529
414,2	192,271
414,7	205,529
415,1	216,043
415,6	222,814
416	238,557
416,5	249,7
416,9	266,729
417,4	286,129
417,8	297,643
418,3	310,329
418,8	337,843
419,2	358,357
419,7	381,329
420,1	398,071
420,6	413,271
421	444,329
421,5	472,986
421,9	494,929
422,4	526,871
422,8	553,071
423,3	580,786
423,8	612,014
424,2	636,471
424,7	668,929
425,1	703,329
425,6	736,243
426	774,529
426,5	815,071
426,9	866,871
427,4	912,329
427,9	957,186
428,3	1010,129
428,8	1062,271
429,2	1116,243
429,7	1177,243
430,1	1234,586
430,6	1302,614
431	1375,186
431,5	1447,671
431,9	1520,871
432,4	1599,357
432,8	1684,643
433,3	1773,671
433,8	1866,7
434,2	1955,986
434,7	2050,843
435,1	2156,814
435,6	2272,129
436	2385,3
436,5	2499,357
436,9	2617,529
437,4	2756,414
437,8	2884,871
438,3	3022,557
438,8	3162,814
439,2	3307,786
439,7	3459,871
440,1	3618,214
440,6	3776,071
441	3948,729
441,5	4126,443
441,9	4309,814
442,4	4496,729
442,8	4695,557
443,3	4895,729
443,7	5097,186
444,2	5308,3
444,7	5529,186
445,1	5754,614
445,6	5988,443
446	6230,214
446,5	6478,871
446,9	6736,643
447,4	7000,671
447,8	7262,071
448,3	7526,7
448,7	7806,957
449,2	8080,671
449,6	8365,7
450,1	8660,271
450,6	8957,1
451	9258,871
451,5	9568,929
451,9	9885,243
452,4	10215,557
452,8	10541,157
453,3	10868,814
453,7	11206,643
454,2	11551,3
454,6	11905,043
455,1	12263,186
455,5	12620,443
456	12982,157
456,4	13355,471
456,9	13734,157
457,3	14121,214
457,8	14501,614
458,3	14880,529
458,7	15264,614
459,2	15658,529
459,6	16049,557
460,1	16444,443
460,5	16830,614
461	17223,014
461,4	17609,871
461,9	18003,071
462,3	18403,329
462,8	18805,357
463,2	19198,814
463,7	19597,3
464,1	19998,814
464,6	20397,729
465	20799,386
465,5	21200,843
466	21591,043
466,4	21974,043
466,9	22368,929
467,3	22756,7
467,8	23149,386
468,2	23537,443
468,7	23918,471
469,1	24293,7
469,6	24684,786
470	25049,5
470,5	25423,529
470,9	25784,643
471,4	26149,529
471,8	26489,129
472,3	26833,271
472,7	27162,786
473,2	27504,471
473,6	27827,614
474,1	28157,643
474,5	28456,671
475	28780,1
475,4	29087,129
475,9	29389,471
476,4	29676,186
476,8	29949,957
477,3	30206,5
477,7	30474,5
478,2	30710,129
478,6	30962,929
479,1	31193,1
479,5	31422,443
480	31639,957
480,4	31846,129
480,9	32043,414
481,3	32230,043
481,8	32404,443
482,2	32577,614
482,7	32741,1
483,1	32882,557
483,6	33014,014
484	33131,129
484,5	33263,529
484,9	33353,443
485,4	33442,3
485,8	33510,414
486,3	33583,9
486,7	33652,871
487,2	33715,5
487,6	33747,757
488,1	33793,529
488,5	33819,757
489	33843,586
489,4	33844,9
489,9	33851,043
490,4	33839,3
490,8	33828,271
491,3	33800,929
491,7	33763,386
492,2	33708,757
492,6	33665,986
493,1	33590,957
493,5	33509,557
494	33428,386
494,4	33341,757
494,9	33254,414
495,3	33155,871
495,8	33059,986
496,2	32963,271
496,7	32846,643
497,1	32726,014
497,6	32597,786
498	32453,1
498,5	32322,5
498,9	32173,757
499,4	32026,986
499,8	31894,671
500,3	31742,814
500,7	31587,986
501,2	31431,214
501,6	31257,271
502,1	31074,129
502,5	30892,243
503	30705,214
503,4	30530,129
503,9	30350,214
504,3	30175,243
504,8	29987,814
505,2	29796,3
505,7	29602,043
506,1	29405,729
506,6	29166,3
507	28937,671
507,5	28707,7
507,9	28499,329
508,4	28282,786
508,8	28068,386
509,3	27837,214
509,7	27627,214
510,2	27399,329
510,6	27170,157
511,1	26927,729
511,5	26691,129
512	26448,471
512,4	26210,643
512,9	25960,529
513,3	25724,7
513,8	25480,357
514,2	25244,043
514,7	24999,957
515,1	24750,214
515,6	24509,557
516	24284,786
516,5	24042,843
516,9	23803,386
517,4	23557,043
517,8	23324,014
518,3	23087,786
518,7	22848,757
519,2	22601,471
519,6	22360,643
520,1	22132,957
520,5	21890,471
521	21653,043
521,4	21415,414
521,9	21171,271
522,3	20947,186
522,8	20730,214
523,2	20489,5
523,7	20281,471
524,1	20052,671
524,6	19839,729
525	19637,929
525,5	19419,129
525,9	19196,414
526,4	18996,014
526,8	18768,271
527,3	18564,471
527,7	18347,557
528,2	18131,786
528,6	17924,814
529,1	17720,814
529,5	17512,529
530	17311,9
530,4	17102,786
530,9	16903,243
531,3	16706,729
531,8	16516,957
532,2	16317,471
532,6	16129,329
533,1	15938,1
533,5	15774,471
534	15601,986
534,4	15428,186
534,9	15253,871
535,3	15091,643
535,8	14920,529
536,2	14754,186
536,7	14582,357
537,1	14417,643
537,6	14247,957
538	14080,786
538,5	13924,214
538,9	13769,986
539,4	13619,157
539,8	13464,3
540,3	13312,414
540,7	13161,043
541,2	13008,3
541,6	12849,586
542,1	12698,357
542,5	12555,929
543	12411,129
543,4	12265,871
543,9	12136,7
544,3	12009,414
544,8	11881,614
545,2	11741,7
545,7	11618,557
546,1	11487,557
546,5	11363,586
547	11234,871
547,4	11113,3
547,9	11003,929
548,3	10892,471
548,8	10767,071
549,2	10651,814
549,7	10538,557
550,1	10427,5
550,6	10315,186
551	10195,871
551,5	10084,471
551,9	9985,214
552,4	9881,357
552,8	9779,271
553,3	9682,329
553,7	9580,043
554,2	9477,443
554,6	9381,243
555,1	9278,271
555,5	9187,414
555,9	9094,014
556,4	8999,329
556,8	8911,1
557,3	8824,786
557,7	8737,414
558,2	8646,1
558,6	8556,929
559,1	8474,871
559,5	8391,443
560	8313,329
560,4	8229,7
560,9	8158,871
561,3	8091,386
561,8	8014,329
562,2	7930,386
562,7	7844,786
563,1	7763,9
563,6	7689,357
564	7608,329
564,4	7531,671
564,9	7459,929
565,3	7393,471
565,8	7331,471
566,2	7264,129
566,7	7199,7
567,1	7142,9
567,6	7074,786
568	7013,243
568,5	6951,957
568,9	6892,7
569,4	6835,129
569,8	6769,3
570,3	6699,3
570,7	6641,329
571,1	6584,729
571,6	6521,7
572	6458,129
572,5	6384,614
572,9	6328,929
573,4	6270,986
573,8	6217,243
574,3	6153,586
574,7	6100,586
575,2	6050,071
575,6	6009,357
576,1	5961,414
576,5	5910,929
576,9	5855,071
577,4	5813,529
577,8	5760,243
578,3	5713,1
578,7	5664,214
579,2	5614,157
579,6	5564,757
580,1	5520,557
580,5	5467,157
581	5422,3
581,4	5375,329
581,9	5325,843
582,3	5283,443
582,7	5238,214
583,2	5186,586
583,6	5141,5
584,1	5099,614
584,5	5049,957
585	5009,1
585,4	4960,786
585,9	4916,186
586,3	4878,243
586,8	4841,014
587,2	4804,729
587,6	4765,7
588,1	4724,3
588,5	4686,157
589	4650,071
589,4	4612,1
589,9	4570,9
590,3	4531,3
590,8	4496,014
591,2	4457,729
591,7	4424,386
592,1	4394,443
592,5	4361,529
593	4333,129
593,4	4299,557
593,9	4267,471
594,3	4240,929
594,8	4210,529
595,2	4182,043
595,7	4150,271
596,1	4121,786
596,6	4086,443
597	4058,7
597,4	4027,386
597,9	3997,271
598,3	3966,243
598,8	3940,357
599,2	3904,329
599,7	3890,357
600,1	3865,843
600,6	3838,071
601	3806,186
601,4	3781,471
601,9	3751,129
602,3	3733,529
602,8	3700,271
603,2	3669,786
603,7	3647,129
604,1	3628,586
604,6	3606,071
605	3588,729
605,4	3556,643
605,9	3530,014
606,3	3506,3
606,8	3478,157
607,2	3450,157
607,7	3424,1
608,1	3391,871
608,6	3368,5
609	3346,5
609,4	3324,271
609,9	3308,529
610,3	3290,529
610,8	3264,3
611,2	3248,243
611,7	3226,614
612,1	3203,329
612,6	3174,986
613	3147,671
613,4	3120,986
613,9	3100,357
614,3	3074,786
614,8	3051,1
615,2	3030,614
615,7	3011,7
616,1	2988,414
616,6	2968,643
617	2948,814
617,4	2925,957
617,9	2905,614
618,3	2878,557
618,8	2860,871
619,2	2843,471
619,7	2816,757
620,1	2796,614
620,5	2776,586
621	2761,871
621,4	2744,9
621,9	2723,671
622,3	2705,157
622,8	2690,471
623,2	2669,1
623,6	2651,157
624,1	2629,357
624,5	2615,071
625	2596,129
625,4	2573,5
625,9	2558,843
626,3	2541,843
626,8	2522,386
627,2	2497,5
627,6	2477,643
628,1	2459,3
628,5	2441,5
629	2415,1
629,4	2396,529
629,9	2381,1
630,3	2367,671
630,7	2348,7
631,2	2335,1
631,6	2313,9
632,1	2302,557
632,5	2287,1
633	2275,1
633,4	2253,1
633,8	2237,071
634,3	2216,9
634,7	2203,414
635,2	2188,214
635,6	2167,471
636,1	2143,243
636,5	2134,329
636,9	2118,757
637,4	2103,186
637,8	2087,357
638,3	2075,986
638,7	2060,014
639,2	2043,871
639,6	2030,157
640	2013,871
640,5	1997,043
640,9	1987,186
641,4	1976,5
641,8	1962,3
642,2	1954,443
642,7	1940,071
643,1	1928,957
643,6	1914,7
644	1901,214
644,5	1888,043
644,9	1884,357
645,3	1871,071
645,8	1860,357
646,2	1845,7
646,7	1834,043
647,1	1817,386
647,6	1796,5
648	1776,614
648,4	1765,786
648,9	1747,871
649,3	1740,929
649,8	1736,843
650,2	1727,5
650,6	1716,186
651,1	1705,329
651,5	1693,3
652	1684,129
652,4	1669,214
652,9	1656,729
653,3	1644,729
653,7	1632,414
654,2	1621,157
654,6	1605,386
655,1	1596,529
655,5	1585,7
655,9	1564,814
656,4	1556,1
656,8	1545,471
657,3	1539,843
657,7	1526,986
658,2	1516,786
658,6	1508,271
659	1508,329
659,5	1492,871
659,9	1484,129
660,4	1470,729
660,8	1464,757
661,2	1452,5
661,7	1439,757
662,1	1423,243
662,6	1418,386
663	1409,1
663,4	1402,329
663,9	1391,9
664,3	1374,729
664,8	1364,071
665,2	1355,014
665,6	1344,529
666,1	1328,071
666,5	1311,986
667	1302,214
667,4	1300,414
667,9	1290,386
668,3	1284,129
668,7	1272,471
669,2	1263,5
669,6	1256,443
670,1	1245,786
670,5	1241,929
670,9	1234,386
671,4	1220,329
671,8	1210,043
672,3	1207,986
672,7	1199,7
673,1	1193,986
673,6	1182,9
674	1173,271
674,5	1168,1
674,9	1160,929
675,3	1151,757
675,8	1141,5
676,2	1128,643
676,7	1119,671
677,1	1113,729
677,5	1108,843
678	1102,929
678,4	1097,1
678,9	1086,043
679,3	1080,586
679,7	1071,1
680,2	1062,357
680,6	1052,786
681,1	1044,671
681,5	1038,929
681,9	1036,614
682,4	1030,129
682,8	1017,843
683,3	1016,043
683,7	1007,671
684,1	995,843
684,6	986,071
685	972,757
685,5	957,843
685,9	950,729
686,3	940,186
686,8	935,557
687,2	933,986
687,7	928,3
688,1	923,786
688,5	923,843
689	923,986
689,4	914,5
689,9	905,186
690,3	896,3
690,7	887,329
691,2	882,471
691,6	876,614
692	867,843
692,5	858,871
692,9	850,786
693,4	843,1
693,8	838,186
694,2	829,671
694,7	822,614
695,1	820,386
695,6	822,7
696	816,871
696,4	814,443
696,9	806,5
697,3	806,929
697,8	801,157
698,2	789,243
698,6	775,243
699,1	769,386
699,5	764,043
699,9	756,843
700,4	744,043
700,8	741,586
701,3	737,471
701,7	730,3
702,1	728,1
702,6	718,043
703	712,786
703,5	711,957
703,9	706,014
704,3	699,043
704,8	700,443
705,2	696,671
705,6	698,3
706,1	690,529
706,5	683,529
707	680,7
707,4	680,043
707,8	675,614
708,3	668,814
708,7	659,1
709,2	659,014
709,6	659,1
710	649,357
710,5	644,757
710,9	641,186
711,3	636,729
711,8	633,929
712,2	629,071
712,7	619,871
713,1	618,3
713,5	617,357
714	604,014
714,4	595,871
714,8	595,243
715,3	592,929
715,7	590,243
716,2	586,7
716,6	574,414
717	574,986
717,5	571,014
717,9	561,014
718,3	557,529
718,8	557,443
719,2	553,957
719,7	553,271
720,1	548,7
720,5	550,186
721	548,071
721,4	540,986
721,8	530,1
722,3	527,1
722,7	523,843
723,2	519,043
723,6	513,243
724	510,614
724,5	510,129
724,9	508,757
725,3	498,786
725,8	491,586
726,2	486,786
726,7	479,243
727,1	472,386
727,5	466,671
728	459,757
728,4	457,843
728,8	456,329
729,3	452,043
729,7	449,5
730,1	448,271
730,6	447,014
731	447,671
731,5	450,843
731,9	448,643
732,3	451,786
732,8	445,9
733,2	441,729
733,6	439,443
734,1	432,329
734,5	425,786
734,9	421,129
735,4	415,1
735,8	416,929
736,3	410,986
736,7	407,157
737,1	409,643
737,6	402,529
738	404,929
738,4	404,557
738,9	402,357
739,3	403,9
739,7	397,014
740,2	392,957
740,6	395,471
741,1	385,414
741,5	381,586
741,9	376,1
742,4	377,129
742,8	380,386
743,2	377,7
743,7	375,986
744,1	374,643
744,5	375,7
745	377,1
745,4	370,614
745,8	367,243
746,3	365,843
746,7	359,871
747,2	357,786
747,6	348,9
748	346,271
748,5	347,414
748,9	342,929
749,3	341,5
749,8	340,214
750,2	335,443
750,6	335,043
751,1	331,871
751,5	328,557
751,9	324,129
752,4	326,871
752,8	327,586
753,3	331,843
753,7	334,643
754,1	333,357
754,6	330,529
755	335,443
755,4	330,186
755,9	325,329
756,3	325,5
756,7	320,243
757,2	314,729
757,6	309,814
758	303,586
758,5	296,9
758,9	292,1
759,3	288,957
759,8	285,643
760,2	288,471
760,6	295,786
761,1	297,043
761,5	298,043
761,9	297,986
762,4	293,5
762,8	297,643
763,3	290,9
763,7	284,071
764,1	276,529
764,6	275,671
765	275,729
765,4	278,214
765,9	273,843
766,3	277,643
766,7	277,186
767,2	276,186
767,6	272,9
768	266,986
768,5	259,471
768,9	255,329
769,3	251,329
769,8	245,243
770,2	243,671
770,6	239,986
771,1	238,843
771,5	240,357
771,9	237,757
772,4	235,557
772,8	235,043
773,2	238,871
773,7	240,843
774,1	246,929
774,5	243,043
775	240,3
775,4	238,957
775,8	237,929
776,3	232,643
776,7	228,1
777,1	218,5
777,6	214,329
778	212,643
778,4	208,586
778,9	207,643
779,3	209,843
779,7	210,443
780,2	213,071
780,6	215,814
781	218,614
781,5	215,386
781,9	215,729
782,3	210,7
782,8	211,243
783,2	210,757
783,6	210,043
784,1	208,814
784,5	211,671
784,9	204,586
785,4	203,786
785,8	200,5
786,2	198,1
786,7	198,7
787,1	200,557
787,5	198,529
788	196,443
788,4	193,329
788,8	191,757
789,3	189,929
789,7	184,443
790,1	180,443
790,6	179,329
791	180,671
791,4	185,729
791,9	183,014
792,3	181,643
792,7	184,557
793,2	183,614
793,6	182,9
794	179,986
794,5	172,443
794,9	174,043
795,3	172,814
795,8	172,071
796,2	162,614
796,6	161,986
797,1	164,5
797,5	165,671
797,9	166,443
798,4	165,757
798,8	160,129
799,2	165,329
799,7	162,786
800,1	166,071
800,5	165,186
801	161,186
801,4	166,214
801,8	161,614
802,2	161,7
802,7	156,271
803,1	151,986
803,5	148,186
804	147,671
804,4	141,471
804,8	145,129
805,3	144,9
805,7	149,9
806,1	145,443
806,6	145,643
807	142,071
807,4	140,443
807,9	139,557
808,3	136,957
808,7	138,157
809,2	142,043
809,6	144,614
810	144,929
810,4	145,671
810,9	147,214
811,3	145,614
811,7	142,357
812,2	137,071
812,6	133,957
813	137,9
813,5	138,243
813,9	133,814
814,3	131,014
814,8	129,186
815,2	130,671
815,6	129,471
816,1	126,986
816,5	125,1
816,9	128,643
817,3	132,186
817,8	133,271
818,2	130,986
818,6	127,9
819,1	121,071
819,5	116,5
819,9	113,214
820,4	114,443
820,8	112,243
821,2	110,729
821,7	107,157
822,1	108,643
822,5	110,157
822,9	108,586
823,4	101,871
823,8	100,271
824,2	102,929
824,7	106,271
825,1	108,3
825,5	107,729
826	104,386
826,4	102,871
826,8	101,357
827,3	96,471
827,7	94,243
828,1	88,271
828,5	90,814
829	92,786
829,4	90,071
829,8	94,243
830,3	98,414
830,7	98,043
831,1	100,757
831,6	96,129
832	95,014
832,4	99,243
832,8	91,557
833,3	87,871
833,7	84,214
834,1	86,129
834,6	87,157
835	88,786
835,4	84,071
835,8	84,614
836,3	81,729
836,7	85,757
837,1	80,186
837,6	74,471
838	69,9
838,4	67,9
838,9	69,9
839,3	71,386
839,7	71,443
840,1	75,357
840,6	76,186
841	76,986
841,4	76,043
841,9	73,529
842,3	71,9
842,7	68,529
843,1	66,243
843,6	67,329
844	69,271
844,4	69,586
844,9	69,986
845,3	70,129
845,7	69,1
846,2	69,757
846,6	72,986
847	69,157
847,4	77,957
847,9	79,271
848,3	74,557
848,7	74,9
849,2	71,871
849,6	67,729
850	69,586
850,4	64,557
850,9	64,3
851,3	69,957
851,7	70,643
852,2	69,814
852,6	67,014
853	70,243
853,4	67,929
853,9	65,786
854,3	65,843
854,7	67,843
855,2	69,129
855,6	71,529
856	70,9
856,4	69,586
856,9	70,643
857,3	67,471
857,7	66,3
858,2	62,757
858,6	60,243
859	56,757
859,4	56,614
859,9	53,9
860,3	49,929
860,7	48,614
861,1	53,3
861,6	56,671
862	55,929
862,4	52,271
862,9	54,557
863,3	54,5
863,7	53,843
864,1	51,271
864,6	54,671
865	55,5
865,4	60,471
865,9	56,729
866,3	59,957
866,7	56,186
867,1	55,643
867,6	50,786
868	44,957
868,4	44,3
868,8	43,5
869,3	48,071
869,7	53,386
870,1	53,5
870,6	50,557
871	76,414
871,4	74,671
871,8	76,1
872,3	71,043
872,7	62,443
873,1	56,871
873,5	57,243
874	35,786
874,4	37,814
874,8	36,3
875,3	34,043
875,7	38,643
876,1	47,043
876,5	49,186
877	47,986
877,4	47,9
877,8	50,071
878,2	53,929
878,7	54,529
879,1	52,071
879,5	46,929
879,9	43,386
880,4	40,329
880,8	40,7
881,2	36,186
881,7	33,814
882,1	29,014
882,5	31,643
882,9	33,043
883,4	33,186
883,8	33,443
884,2	33,186
884,6	30,586
885,1	29,5
885,5	25,614
885,9	26,586
886,3	27,929
886,8	30,243
887,2	28,071
887,6	30,014
888	33,443
888,5	36,529
888,9	32,043
889,3	25,386
889,8	22,671
890,2	22,071
890,6	23,614
891	23,214
891,5	25,986
891,9	26,7
892,3	31,843
892,7	27,243
893,2	28,129
893,6	23,329
894	25,129
894,4	19,271
894,9	22,986
895,3	23,414
895,7	24,357
896,1	24,5
896,6	28,814
897	29,871
897,4	33,071
897,8	31,671
898,3	28,7
898,7	32,186
899,1	35,929
899,5	40,357
900	32,9
900,4	30,3
900,8	24,7
901,2	26,643
901,7	25,843
902,1	22,329
902,5	16,843
902,9	18,843
903,4	20,643
903,8	23,757
904,2	23,871
904,6	17,529
905,1	20,529
905,5	19,9
905,9	20,586
906,3	21,357
906,8	23,1
907,2	24,014
907,6	28,957
908	28,129
908,5	24,043
908,9	22,1
909,3	21,071
909,7	16,1
910,2	12,814
910,6	8,614
911	6,9
911,4	10,786
911,9	13,871
912,3	16,414
912,7	22,643
913,1	19,614
913,6	23,071
914	29,9
914,4	30,043
914,8	29,386
915,3	25,357
915,7	26,5
916,1	30,843
916,5	26,814
916,9	18,243
917,4	16,729
917,8	16,957
918,2	21,557
918,6	15,186
919,1	12,386
919,5	16,243
919,9	21,271
920,3	22,529
920,8	24,329
921,2	20,757
921,6	22,271
922	23,357
922,5	24,129
922,9	23,414
923,3	22,957
923,7	19,9
924,2	21,386
924,6	22,1
925	24,643
925,4	22,643
925,8	23,014
926,3	22,786
926,7	23,1
927,1	21,871
927,5	21,557
928	18,071
928,4	15,071
928,8	12,243
929,2	13,214
929,7	13,414
930,1	9,929
930,5	9,414
930,9	12,014
931,3	17,129
931,8	19,643
932,2	18,214
932,6	15,957
933	15,986
933,5	16,7
933,9	15,357
934,3	10,729
934,7	7,957
935,2	8,5
935,6	6,271
936	4,986
936,4	6,386
936,8	8,871
937,3	11,671
937,7	13,014
938,1	13,386
938,5	17,986
939	19,3
939,4	17,7
939,8	12,186
940,2	11,271
940,6	11,014
941,1	7,5
941,5	5,843
941,9	7,386
942,3	7,729
942,8	9,014
943,2	2,5
943,6	-1,386
944	-1,271
944,4	0,471
944,9	-1,986
945,3	-3,271
945,7	-0,957
946,1	3,357
946,6	4,643
947	8,557
947,4	3,157
947,8	6,214
948,2	7,043
948,7	4,043
949,1	5,443
949,5	3,7
949,9	0,414
950,3	3,443
950,8	3,786
951,2	2,157
951,6	6,729
952	8,357
952,5	8,357
952,9	8,843
953,3	8,043
953,7	2,9
954,1	6,214
954,6	3,671
955	4,557
955,4	6,757
955,8	10,614
956,2	11,786
956,7	14,271
957,1	11,843
957,5	14,1
957,9	10,043
958,3	11,357
958,8	10,071
959,2	11,414
959,6	19,729
960	19,386
960,5	17,471
960,9	21,014
961,3	18,186
961,7	19,1
962,1	17,329
962,6	9,471
963	14,986
963,4	18,443
963,8	14,814
964,2	15,671
964,7	12,871
965,1	12,757
965,5	16,071
965,9	12,014
966,3	11,7
966,8	12,614
967,2	15,014
967,6	14,414
968	14,529
968,4	16,071
968,9	15,1
969,3	14,3
969,7	13,443
970,1	9,129
970,5	12,271
971	11,586
971,4	8,357
971,8	7,7
972,2	6,186
972,6	8,786
973,1	8,929
973,5	10,843
973,9	11,471
974,3	12,214
974,7	12,071
975,2	6,643
975,6	2,471
976	4,786
976,4	0,3
976,8	0,157
977,3	-1,671
977,7	-0,729
978,1	2,243
978,5	3,671
978,9	6,614
979,4	3,814
979,8	1,729
980,2	5,614
980,6	9,786
981	6,814
981,5	8,757
981,9	7,043
982,3	9,929
982,7	15,3
983,1	13,043
983,6	6,157
984	10,386
984,4	6,014
984,8	3,729
985,2	4,671
985,6	0,586
986,1	-4,014
986,5	2,643
986,9	2,729
987,3	3,471
987,7	1,814
988,2	1,357
988,6	2,671
989	6,186
989,4	-0,614
989,8	2,471
990,3	3,5
990,7	5,814
991,1	5,186
991,5	3,957
991,9	2,929
992,3	1,757
992,8	-0,529
993,2	3,671
993,6	3,586
994	8,671
994,4	10,9
994,9	12,157
995,3	18,7
995,7	16,614
996,1	14,043
996,5	12,671
996,9	13,757
997,4	8,929
997,8	5,5
998,2	7,043
998,6	4,557
999	6,471
999,5	10,071
999,9	3,729
1000,3	2,386
1000,7	9,929
1001,1	6,386
1001,5	10,329
1002	5,5
1002,4	0,243
1002,8	2,957
1003,2	6,729
1003,6	3,786
1004	5,586
1004,5	2,186
1004,9	6,786
1005,3	9,529
1005,7	12,757
1006,1	15,614
1006,6	15,043
1007	10,5
1007,4	10,814
1007,8	11,3
1008,2	16,014
1008,6	11,157
1009,1	9,157
1009,5	8,929
1009,9	13,529
1010,3	18,243
1010,7	18,186
1011,1	13,157
1011,6	13,243
1012	16,214
1012,4	13,214
1012,8	7,529
1013,2	4,271
1013,6	2,129
1014,1	1,986
1014,5	4,643
1014,9	-0,586
1015,3	0,329
1015,7	6,529
1016,1	4,643
1016,6	7,214
1017	6,871
1017,4	1,414
1017,8	6,557
1018,2	6,471
1018,6	-0,157
1019,1	0,614
1019,5	-3,071
1019,9	-1,471
1020,3	-0,471
1020,7	-2,7
1021,1	-5,357
1021,6	-1,186
1022	-0,443
1022,4	-0,214
1022,8	-3,643
1023,2	-6,129
1023,6	-8,386
1024,1	-0,414
1024,5	3,929
1024,9	6,071
1025,3	11,214
1025,7	14,729
1026,1	18,986
1026,6	24,329
1027	18,5
1027,4	18,243
1027,8	14,357
1028,2	13,871
1028,6	13,186
1029	8,129
1029,5	1,3
1029,9	5,957
1030,3	-0,071
1030,7	4,729
1031,1	7,871
1031,5	8,443
1032	15,671
1032,4	21,871
1032,8	16,243
1033,2	18,186
1033,6	16,7
1034	7,071
1034,4	5,843
1034,9	6,157
1035,3	5,1
1035,7	6,529
1036,1	7,3
1036,5	7,529
1036,9	10,786
1037,4	14,157
1037,8	6,5
1038,2	6,586
1038,6	8,014
1039	5,586
1039,4	10,357
1039,8	16,7
1040,3	13,329
1040,7	20,671
1041,1	14,471
1041,5	15,214
1041,9	18,071
1042,3	11,414
1042,7	3,014
1043,2	0,7
1043,6	-0,043
1044	5,357
1044,4	7,957
1044,8	6,386
1045,2	8,357
1045,6	12,557
1046,1	15,1
1046,5	10,929
1046,9	12,586
1047,3	10,214
1047,7	8,586
1048,1	1,014
1048,5	1,957
1049	-1,786
1049,4	-1,471
1049,8	-4,7
1050,2	-4,9
1050,6	-6,614
1051	4,986
1051,4	0,414
1051,9	5,7
1052,3	6,671
1052,7	5,3
1053,1	1,9
1053,5	1,014
1053,9	-5,786
1054,3	-8,414
1054,8	-7,7
1055,2	-7,843
1055,6	-5,529
1056	-5,243
1056,4	-2,671
1056,8	2,3
1057,2	5,557
1057,6	8,071
1058,1	10,329
1058,5	5,757
1058,9	6,5
1059,3	5,671
1059,7	1,186
1060,1	3,043
1060,5	3,614
1061	3,786
1061,4	9,186
1061,8	12,757
1062,2	16,443
1062,6	13,871
1063	14,5
1063,4	7,557
1063,8	5,3
1064,3	10,1
1064,7	7,157
1065,1	9,471
1065,5	15,5
1065,9	13,157
1066,3	15,586
1066,7	22,214
1067,1	17,071
1067,6	22,071
1068	18,386
1068,4	21,271
1068,8	21,929
1069,2	22,814
1069,6	16,414
1070	16,729
1070,4	15,814
1070,9	17,729
1071,3	13,757
1071,7	16,7
1072,1	15,414
1072,5	16,614
1072,9	14,957
1073,3	12,471
1073,7	6,3
1074,2	8,271
1074,6	5,957
1075	11,357
1075,4	14,3
1075,8	14,157
1076,2	15,243
1076,6	20,043
1077	21,3
1077,5	21,843
1077,9	15,443
1078,3	8,843
1078,7	10,843
1079,1	9,757
1079,5	9,443
1079,9	8,729
1080,3	8,271
1080,7	9,271
1081,2	12,414
1081,6	10,557
1082	11,243
1082,4	10,757
1082,8	8,071
1083,2	5,557
1083,6	1,329
1084	3,814
1084,5	3,271
1084,9	-3,386
1085,3	-4,157
1085,7	-5,014
1086,1	0,014
1086,5	0,014
1086,9	-2,443
1087,3	-0,357
1087,7	8,929
1088,2	14,186
1088,6	16,014
1089	13,586
1089,4	21,014
1089,8	20,843
1090,2	19,471
1090,6	15,043
1091	11,3
1091,4	9,471
1091,9	9,529
1092,3	8,5
1092,7	9,214
1093,1	9,557
1093,5	7,529
1093,9	4,757
1094,3	6,1
1094,7	2,557
1095,1	3,1
1095,5	0,786
1096	3,671
1096,4	7,586
1096,8	14,614
1097,2	10,443
1097,6	18,986
1098	17,643
1098,4	19,271
1098,8	16,643
1099,2	13,071
1099,6	12,271
1100,1	16,671
1100,5	10,786
1100,9	11,1
1101,3	12,414
1101,7	10,9
1102,1	15,071
1102,5	8,214
1102,9	4,186
1103,3	6,671
1103,7	5,643
1104,2	3,614
1104,6	4,671
1105	0,157
1105,4	3,471
1105,8	5,643
1106,2	2,357
1106,6	1,271
1107	0,814
1107,4	0,1
1107,8	2,1
1108,3	0,9
