Data from Subt2_00068.txt Node
Date: Mon Aug 28 13:27:26 MSK 2023
User: vat
Spectrometer: MAYP114033
Trigger mode: 0
Integration Time (sec): 1,000000E0
Scans to average: 5
Electric dark correction enabled: true
Nonlinearity correction enabled: false
Boxcar width: 3
XAxis mode: Wavelengths
Number of Pixels in Spectrum: 2068
>>>>>Begin Spectral Data<<<<<
199,4	0,117
199,9	-2,073
200,4	0,5
200,8	1,91
201,3	2,652
201,8	3,11
202,2	3,367
202,7	4,252
203,2	4,51
203,6	4,767
204,1	5,367
204,6	5,138
205	5,567
205,5	5,51
206	5,681
206,4	6,224
206,9	3,595
207,4	0,91
207,8	0,681
208,3	-0,576
208,8	-1,005
209,2	-1,148
209,7	-0,49
210,2	0,367
210,6	2,452
211,1	3,995
211,5	3,995
212	7,138
212,5	7,424
212,9	7,938
213,4	10,31
213,9	8,795
214,3	9,738
214,8	11,995
215,3	8,538
215,7	7,367
216,2	6,052
216,7	8,367
217,1	4,91
217,6	6,424
218,1	7,367
218,5	10,224
219	12,338
219,5	14,652
219,9	9,11
220,4	19,395
220,9	12,91
221,3	15,024
221,8	12,538
222,3	13,024
222,7	15,538
223,2	17,024
223,6	10,595
224,1	17,024
224,6	13,681
225	14,11
225,5	10,852
226	8,481
226,4	11,624
226,9	9,824
227,4	9,395
227,8	10,567
228,3	8,652
228,8	12,595
229,2	14,852
229,7	10,652
230,2	15,252
230,6	12,338
231,1	9,424
231,5	14,91
232	12,51
232,5	8,881
232,9	10,567
233,4	9,338
233,9	12,881
234,3	17,052
234,8	16,052
235,3	16,167
235,7	18,567
236,2	17,11
236,7	10,881
237,1	10,881
237,6	6,481
238,1	5,138
238,5	4,652
239	2,538
239,4	4,51
239,9	10,024
240,4	2,995
240,8	8,91
241,3	7,967
241,8	6,595
242,2	8,11
242,7	5,138
243,2	8,652
243,6	16,081
244,1	9,452
244,6	2,281
245	2,824
245,5	-0,29
245,9	4,51
246,4	1,424
246,9	-4,348
247,3	1,681
247,8	9,281
248,3	13,167
248,7	15,138
249,2	10,338
249,7	11,138
250,1	13,195
250,6	8,481
251	4,024
251,5	1,681
252	2,681
252,4	5,11
252,9	6,052
253,4	3,167
253,8	0,167
254,3	3,024
254,8	4,71
255,2	7,195
255,7	7,195
256,1	3,024
256,6	5,11
257,1	12,995
257,5	13,995
258	10,024
258,5	5,938
258,9	3,767
259,4	7,71
259,9	6,51
260,3	1,281
260,8	1,767
261,2	8,852
261,7	9,767
262,2	12,681
262,6	12,995
263,1	13,167
263,6	11,224
264	11,995
264,5	8,338
264,9	8,195
265,4	8,052
265,9	2,024
266,3	4,938
266,8	8,767
267,3	9,052
267,7	8,995
268,2	8,624
268,7	5,652
269,1	7,91
269,6	5,681
270	2,738
270,5	7,738
271	3,281
271,4	3,11
271,9	3,31
272,4	4,795
272,8	7,652
273,3	10,652
273,7	5,138
274,2	10,252
274,7	11,195
275,1	9,881
275,6	15,681
276,1	11,395
276,5	10,024
277	8,11
277,4	5,024
277,9	2,652
278,4	5,51
278,8	1,767
279,3	7,081
279,8	4,967
280,2	7,31
280,7	9,881
281,1	5,681
281,6	3,424
282,1	2,281
282,5	4,252
283	4,138
283,4	4,567
283,9	4,567
284,4	9,538
284,8	10,224
285,3	5,167
285,8	2,081
286,2	4,481
286,7	2,367
287,1	-0,576
287,6	-0,148
288,1	1,967
288,5	5,481
289	3,281
289,5	3,795
289,9	5,195
290,4	5,51
290,8	9,938
291,3	11,31
291,8	11,367
292,2	14,652
292,7	14,195
293,1	14,881
293,6	15,538
294,1	12,424
294,5	11,652
295	12,91
295,5	9,024
295,9	9,652
296,4	9,881
296,8	12,195
297,3	12,881
297,8	14,995
298,2	9,824
298,7	12,338
299,1	12,767
299,6	10,567
300,1	11,567
300,5	11,767
301	7,424
301,5	14,224
301,9	10,081
302,4	9,767
302,8	9,595
303,3	8,824
303,8	14,195
304,2	14,91
304,7	11,195
305,1	11,338
305,6	5,967
306,1	4,91
306,5	-2,49
307	-13,89
307,4	-15,405
307,9	-15,29
308,4	-12,69
308,8	-6,862
309,3	-0,348
309,8	6,195
310,2	8,424
310,7	11,967
311,1	14,652
311,6	11,081
312,1	12,424
312,5	7,081
313	8,452
313,4	12,652
313,9	13,738
314,4	10,395
314,8	19,052
315,3	17,081
315,7	16,338
316,2	14,11
316,7	14,51
317,1	10,252
317,6	13,224
318	10,938
318,5	8,738
319	7,281
319,4	10,652
319,9	5,452
320,3	8,51
320,8	2,395
321,3	-3,49
321,7	-0,862
322,2	-1,662
322,6	-2,833
323,1	-0,69
323,6	0,481
324	5,452
324,5	9,224
324,9	13,995
325,4	16,767
325,9	16,252
326,3	15,681
326,8	9,252
327,2	8,481
327,7	7,938
328,2	5,395
328,6	6,252
329,1	1,395
329,5	1,767
330	5,367
330,5	10,91
330,9	9,452
331,4	5,567
331,8	3,852
332,3	7,424
332,8	7,081
333,2	8,367
333,7	0,081
334,1	-0,548
334,6	0,138
335,1	1,967
335,5	1,424
336	6,31
336,4	7,852
336,9	12,481
337,4	12,024
337,8	14,71
338,3	17,595
338,7	15,138
339,2	7,652
339,7	6,652
340,1	1,481
340,6	-0,433
341	-2,462
341,5	-7,862
342	-6,405
342,4	-6,948
342,9	-8,433
343,3	-2,776
343,8	2,367
344,2	2,195
344,7	1,767
345,2	1,767
345,6	6,224
346,1	8,024
346,5	6,138
347	4,11
347,5	3,367
347,9	7,767
348,4	8,852
348,8	10,252
349,3	5,338
349,8	7,367
350,2	8,824
350,7	12,167
351,1	13,881
351,6	19,995
352	22,367
352,5	32,138
353	36,081
353,4	45,195
353,9	59,538
354,3	74,281
354,8	82,252
355,3	98,052
355,7	116,995
356,2	137,71
356,6	159,224
357,1	182,91
357,5	210,738
358	251,395
358,5	288,11
358,9	334,138
359,4	389,338
359,8	451,281
360,3	514,281
360,8	587,852
361,2	667,881
361,7	768,738
362,1	868,91
362,6	980,424
363	1100,91
363,5	1230,881
364	1367,424
364,4	1505,538
364,9	1639,967
365,3	1780,252
365,8	1913,51
366,3	2032,738
366,7	2138,824
367,2	2232,424
367,6	2317,938
368,1	2377,91
368,5	2415,795
369	2429,424
369,5	2429,738
369,9	2409,71
370,4	2366,795
370,8	2305,71
371,3	2235,795
371,7	2148,567
372,2	2056,338
372,7	1960,138
373,1	1865,252
373,6	1761,767
374	1648,224
374,5	1541,681
374,9	1442,195
375,4	1339,881
375,9	1244,938
376,3	1139,795
376,8	1049,252
377,2	969,852
377,7	890,995
378,2	812,967
378,6	748,338
379,1	674,624
379,5	619,652
380	568,624
380,4	520,681
380,9	477,224
381,4	437,424
381,8	402,567
382,3	372,595
382,7	344,795
383,2	317,252
383,6	293,738
384,1	272,31
384,6	254,824
385	235,624
385,5	222,424
385,9	209,738
386,4	200,681
386,8	186,91
387,3	174,967
387,7	164,652
388,2	154,195
388,7	144,281
389,1	134,481
389,6	125,224
390	118,538
390,5	111,738
390,9	104,338
391,4	99,795
391,9	91,852
392,3	90,338
392,8	84,081
393,2	82,367
393,7	78,024
394,1	72,281
394,6	70,395
395,1	75,595
395,5	69,452
396	64,31
396,4	55,681
396,9	59,31
397,3	62,195
397,8	56,767
398,2	46,71
398,7	43,224
399,2	42,224
399,6	43,738
400,1	33,91
400,5	31,567
401	34,138
401,4	35,595
401,9	40,538
402,4	37,338
402,8	38,024
403,3	42,395
403,7	40,195
404,2	38,91
404,6	37,881
405,1	39,281
405,5	43,824
406	44,081
406,5	40,681
406,9	44,167
407,4	42,681
407,8	47,31
408,3	42,395
408,7	41,052
409,2	39,252
409,6	41,881
410,1	41,395
410,6	38,195
411	37,652
411,5	37,51
411,9	38,51
412,4	44,71
412,8	42,967
413,3	42,167
413,7	47,852
414,2	47,71
414,7	49,281
415,1	54,824
415,6	54,167
416	59,481
416,5	67,738
416,9	72,367
417,4	78,195
417,8	82,224
418,3	85,395
418,8	88,852
419,2	92,824
419,7	95,481
420,1	95,71
420,6	95,195
421	102,652
421,5	103,795
421,9	107,452
422,4	110,252
422,8	108,767
423,3	110,481
423,8	112,881
424,2	110,31
424,7	111,852
425,1	104,967
425,6	104,31
426	104,281
426,5	104,138
426,9	104,081
427,4	106,567
427,9	107,395
428,3	112,052
428,8	112,51
429,2	115,538
429,7	120,538
430,1	118,71
430,6	109,252
431	109,767
431,5	116,681
431,9	116,452
432,4	118,31
432,8	121,71
433,3	127,281
433,8	143,452
434,2	145,424
434,7	141,824
435,1	149,11
435,6	151,767
436	156,824
436,5	167,367
436,9	171,538
437,4	180,395
437,8	193,224
438,3	203,738
438,8	211,652
439,2	218,138
439,7	222,395
440,1	229,452
440,6	237,767
441	245,081
441,5	247,995
441,9	258,11
442,4	265,367
442,8	275,395
443,3	283,795
443,7	293,995
444,2	306,31
444,7	320,967
445,1	335,71
445,6	352,281
446	370,024
446,5	388,31
446,9	409,824
447,4	426,71
447,8	443,367
448,3	458,252
448,7	474,91
449,2	486,738
449,6	506,452
450,1	520,424
450,6	540,51
451	560,224
451,5	583,224
451,9	606,167
452,4	630,652
452,8	651,595
453,3	675,281
453,7	697,852
454,2	720,652
454,6	743,452
455,1	763,652
455,5	794,052
456	819,024
456,4	844,71
456,9	872,424
457,3	903,224
457,8	928,738
458,3	962,652
458,7	991,481
459,2	1024,424
459,6	1057,138
460,1	1090,024
460,5	1121,595
461	1160,71
461,4	1192,052
461,9	1226,481
462,3	1258,595
462,8	1293,481
463,2	1326,31
463,7	1364,224
464,1	1397,795
464,6	1433,024
465	1463,167
465,5	1499,052
466	1538,624
466,4	1577,138
466,9	1618,224
467,3	1657,081
467,8	1703,481
468,2	1743,167
468,7	1788,452
469,1	1827,567
469,6	1866,31
470	1909,652
470,5	1950,567
470,9	1986,652
471,4	2037,252
471,8	2074,538
472,3	2113,681
472,7	2157,395
473,2	2193,395
473,6	2235,395
474,1	2274,938
474,5	2309,252
475	2354,995
475,4	2396,538
475,9	2434,281
476,4	2478,624
476,8	2522,71
477,3	2564,767
477,7	2608,252
478,2	2644,31
478,6	2687,195
479,1	2733,51
479,5	2771,195
480	2812,967
480,4	2849,624
480,9	2884,367
481,3	2921,424
481,8	2953,91
482,2	2988,71
482,7	3026,195
483,1	3052,738
483,6	3087,538
484	3124,424
484,5	3156,71
484,9	3190,824
485,4	3217,052
485,8	3238,995
486,3	3268,338
486,7	3301,367
487,2	3330,367
487,6	3358,167
488,1	3384,338
488,5	3412,081
489	3445,595
489,4	3473,052
489,9	3492,681
490,4	3508,595
490,8	3529,852
491,3	3550,11
491,7	3573,795
492,2	3590,338
492,6	3608,195
493,1	3632,852
493,5	3657,967
494	3681,995
494,4	3700,138
494,9	3714,881
495,3	3728,052
495,8	3744,281
496,2	3754,738
496,7	3770,681
497,1	3774,567
497,6	3790,024
498	3809,195
498,5	3828,481
498,9	3841,31
499,4	3856,081
499,8	3862,281
500,3	3881,395
500,7	3892,938
501,2	3902,052
501,6	3905,795
502,1	3922,567
502,5	3940,167
503	3953,395
503,4	3965,224
503,9	3978,052
504,3	3983,51
504,8	3992,538
505,2	4000,51
505,7	4001,624
506,1	4011,738
506,6	4012,052
507	4021,167
507,5	4029,967
507,9	4043,881
508,4	4051,452
508,8	4055,081
509,3	4058,481
509,7	4067,195
510,2	4073,881
510,6	4084,738
511,1	4095,938
511,5	4101,538
512	4111,31
512,4	4123,138
512,9	4133,91
513,3	4132,824
513,8	4136,881
514,2	4136,624
514,7	4143,795
515,1	4144,995
515,6	4143,052
516	4143,452
516,5	4147,995
516,9	4151,338
517,4	4155,995
517,8	4153,195
518,3	4165,052
518,7	4169,938
519,2	4180,681
519,6	4187,738
520,1	4193,681
520,5	4201,024
521	4211,281
521,4	4210,424
521,9	4215,624
522,3	4218,967
522,8	4224,852
523,2	4233,795
523,7	4232,852
524,1	4236,024
524,6	4244,91
525	4258,281
525,5	4261,681
525,9	4274,567
526,4	4273,338
526,8	4284,938
527,3	4294,938
527,7	4307,881
528,2	4307,538
528,6	4326,852
529,1	4327,624
529,5	4344,167
530	4357,167
530,4	4365,51
530,9	4373,481
531,3	4387,51
531,8	4388,995
532,2	4395,452
532,6	4405,424
533,1	4405,681
533,5	4405,195
534	4407,052
534,4	4418,395
534,9	4420,652
535,3	4437,167
535,8	4439,281
536,2	4449,167
536,7	4464,167
537,1	4481,024
537,6	4483,167
538	4495,31
538,5	4503,595
538,9	4517,881
539,4	4532,967
539,8	4540,51
540,3	4543,51
540,7	4557,281
541,2	4570,767
541,6	4578,424
542,1	4587,652
542,5	4592,538
543	4603,395
543,4	4615,31
543,9	4628,024
544,3	4641,081
544,8	4655,452
545,2	4663,452
545,7	4673,481
546,1	4684,995
546,5	4690,91
547	4702,71
547,4	4708,995
547,9	4711,595
548,3	4728,31
548,8	4733,795
549,2	4746,081
549,7	4754,967
550,1	4760,424
550,6	4764,224
551	4779,738
551,5	4776,738
551,9	4788,881
552,4	4793,31
552,8	4801,795
553,3	4812,024
553,7	4823,081
554,2	4827,652
554,6	4841,538
555,1	4857,91
555,5	4866,71
555,9	4875,481
556,4	4881,395
556,8	4897,195
557,3	4906,338
557,7	4914,567
558,2	4916,938
558,6	4921,281
559,1	4937,11
559,5	4943,71
560	4948,938
560,4	4949,595
560,9	4956,452
561,3	4964,51
561,8	4977,852
562,2	4979,024
562,7	4983,338
563,1	4984,795
563,6	4995,567
564	4997,795
564,4	5001,881
564,9	5007,424
565,3	5007,538
565,8	5018,395
566,2	5024,281
566,7	5028,852
567,1	5036,795
567,6	5040,481
568	5036,31
568,5	5037,595
568,9	5038,138
569,4	5042,424
569,8	5042,11
570,3	5048,195
570,7	5050,024
571,1	5054,91
571,6	5065,995
572	5062,11
572,5	5058,367
572,9	5059,252
573,4	5053,567
573,8	5056,452
574,3	5055,224
574,7	5046,91
575,2	5049,024
575,6	5050,938
576,1	5052,595
576,5	5057,51
576,9	5048,024
577,4	5051,881
577,8	5054,852
578,3	5051,538
578,7	5037,967
579,2	5023,224
579,6	5012,738
580,1	5011,138
580,5	5005,11
581	4995,395
581,4	4992,738
581,9	4990,652
582,3	5000,024
582,7	4989,395
583,2	4984,081
583,6	4969,395
584,1	4966,338
584,5	4955,281
585	4953,681
585,4	4940,11
585,9	4944,138
586,3	4928,481
586,8	4925,31
587,2	4920,767
587,6	4914,738
588,1	4906,71
588,5	4898,795
589	4878,595
589,4	4872,481
589,9	4860,738
590,3	4845,595
590,8	4828,624
591,2	4825,681
591,7	4820,567
592,1	4822,024
592,5	4822,538
593	4820,052
593,4	4818,652
593,9	4820,452
594,3	4814,538
594,8	4803,795
595,2	4791,11
595,7	4777,91
596,1	4765,681
596,6	4755,338
597	4755,538
597,4	4742,281
597,9	4730,395
598,3	4717,052
598,8	4711,31
599,2	4716,567
599,7	4705,224
600,1	4689,595
600,6	4674,71
601	4667,252
601,4	4662,167
601,9	4650,795
602,3	4627,624
602,8	4617,052
603,2	4605,195
603,7	4595,081
604,1	4585,281
604,6	4570,395
605	4561,938
605,4	4548,081
605,9	4532,224
606,3	4520,595
606,8	4511,767
607,2	4498,738
607,7	4487,852
608,1	4476,967
608,6	4468,681
609	4460,281
609,4	4440,795
609,9	4425,767
610,3	4414,624
610,8	4400,624
611,2	4381,452
611,7	4367,538
612,1	4350,138
612,6	4335,995
613	4313,967
613,4	4296,281
613,9	4282,138
614,3	4266,481
614,8	4246,081
615,2	4233,595
615,7	4227,71
616,1	4222,91
616,6	4210,081
617	4192,338
617,4	4178,281
617,9	4164,967
618,3	4147,052
618,8	4125,738
619,2	4108,338
619,7	4089,481
620,1	4078,138
620,5	4059,852
621	4038,938
621,4	4027,881
621,9	4008,881
622,3	3987,567
622,8	3966,738
623,2	3943,167
623,6	3923,195
624,1	3909,138
624,5	3888,138
625	3874,252
625,4	3854,767
625,9	3842,795
626,3	3828,995
626,8	3818,11
627,2	3805,024
627,6	3783,252
628,1	3762,395
628,5	3747,652
629	3725,252
629,4	3706,052
629,9	3688,252
630,3	3669,51
630,7	3654,081
631,2	3636,252
631,6	3618,481
632,1	3604,252
632,5	3585,281
633	3565,51
633,4	3542,281
633,8	3526,71
634,3	3502,91
634,7	3487,195
635,2	3468,652
635,6	3449,995
636,1	3431,338
636,5	3410,852
636,9	3394,195
637,4	3379,71
637,8	3357,595
638,3	3332,31
638,7	3315,738
639,2	3296,595
639,6	3285,938
640	3261,938
640,5	3247,081
640,9	3232,138
641,4	3215,738
641,8	3198,167
642,2	3184,081
642,7	3164,795
643,1	3147,252
643,6	3134,338
644	3119,652
644,5	3114,567
644,9	3100,938
645,3	3091,281
645,8	3078,024
646,2	3067,995
646,7	3042,395
647,1	3025,052
647,6	3005,51
648	2986,624
648,4	2965,167
648,9	2947,824
649,3	2935,681
649,8	2925,138
650,2	2908,624
650,6	2896,395
651,1	2883,71
651,5	2863,852
652	2849,624
652,4	2828,824
652,9	2814,852
653,3	2798,595
653,7	2782,967
654,2	2761,595
654,6	2745,252
655,1	2727,081
655,5	2716,824
655,9	2699,481
656,4	2684,738
656,8	2661,081
657,3	2651,767
657,7	2639,738
658,2	2627,252
658,6	2607,881
659	2594,11
659,5	2579,881
659,9	2567,795
660,4	2553,31
660,8	2540,395
661,2	2523,252
661,7	2509,567
662,1	2496,624
662,6	2482,11
663	2464,681
663,4	2445,995
663,9	2427,938
664,3	2418,081
664,8	2399,395
665,2	2379,252
665,6	2364,995
666,1	2355,11
666,5	2344,195
667	2331,71
667,4	2313,652
667,9	2302,681
668,3	2290,281
668,7	2273,11
669,2	2256,395
669,6	2238,824
670,1	2216,224
670,5	2200,51
670,9	2181,395
671,4	2167,91
671,8	2155,681
672,3	2141,338
672,7	2125,195
673,1	2111,71
673,6	2102,338
674	2092,31
674,5	2077,31
674,9	2064,51
675,3	2050,881
675,8	2040,795
676,2	2027,652
676,7	2012,595
677,1	1999,852
677,5	1985,738
678	1969,767
678,4	1962,995
678,9	1947,795
679,3	1943,11
679,7	1928,767
680,2	1913,824
680,6	1908,367
681,1	1900,738
681,5	1885,681
681,9	1872,31
682,4	1858,481
682,8	1850,281
683,3	1843,71
683,7	1830,081
684,1	1812,138
684,6	1795,824
685	1788,567
685,5	1773,081
685,9	1755,367
686,3	1739,595
686,8	1726,195
687,2	1713,481
687,7	1700,738
688,1	1692,967
688,5	1687,024
689	1676,681
689,4	1665,424
689,9	1655,595
690,3	1651,052
690,7	1639,767
691,2	1623,024
691,6	1606,338
692	1593,481
692,5	1576,595
692,9	1557,11
693,4	1539,338
693,8	1535,91
694,2	1525,052
694,7	1511,91
695,1	1509,195
695,6	1504,967
696	1501,995
696,4	1494,938
696,9	1480,91
697,3	1469,452
697,8	1462,052
698,2	1444,395
698,6	1435,081
699,1	1425,024
699,5	1413,624
699,9	1404,881
700,4	1399,852
700,8	1397,252
701,3	1392,795
701,7	1384,795
702,1	1376,595
702,6	1374,024
703	1365,081
703,5	1350,852
703,9	1332,224
704,3	1317,138
704,8	1308,281
705,2	1299,452
705,6	1287,538
706,1	1278,681
706,5	1274,881
707	1273,795
707,4	1269,138
707,8	1252,252
708,3	1241,967
708,7	1232,995
709,2	1227,681
709,6	1215,252
710	1199,767
710,5	1192,195
710,9	1188,452
711,3	1177,281
711,8	1166,252
712,2	1157,138
712,7	1148,624
713,1	1146,395
713,5	1137,995
714	1129,51
714,4	1123,881
714,8	1116,567
715,3	1104,11
715,7	1094,852
716,2	1083,767
716,6	1076,595
717	1069,538
717,5	1058,652
717,9	1051,224
718,3	1045,738
718,8	1043,995
719,2	1038,367
719,7	1026,338
720,1	1017,71
720,5	1014,881
721	1005,052
721,4	995,195
721,8	985,11
722,3	976,424
722,7	972,71
723,2	964,881
723,6	956,167
724	952,224
724,5	942,338
724,9	935,052
725,3	924,91
725,8	916,71
726,2	908,138
726,7	899,424
727,1	893,024
727,5	888,024
728	880,71
728,4	874,738
728,8	862,31
729,3	854,424
729,7	850,31
730,1	840,795
730,6	834,395
731	828,224
731,5	821,51
731,9	823,395
732,3	822,681
732,8	818,967
733,2	816,824
733,6	815,31
734,1	810,681
734,5	812,938
734,9	803,367
735,4	798,024
735,8	785,452
736,3	781,11
736,7	773,081
737,1	772,795
737,6	767,11
738	762,91
738,4	758,767
738,9	759,31
739,3	753,881
739,7	747,252
740,2	738,538
740,6	731,595
741,1	727,738
741,5	725,252
741,9	716,595
742,4	707,11
742,8	706,11
743,2	704,624
743,7	696,51
744,1	691,224
744,5	685,252
745	678,424
745,4	674,795
745,8	670,338
746,3	665,567
746,7	663,795
747,2	661,681
747,6	654,424
748	654,167
748,5	651,081
748,9	640,281
749,3	633,024
749,8	629,995
750,2	624,538
750,6	624,167
751,1	620,224
751,5	619,71
751,9	623,967
752,4	617,624
752,8	610,738
753,3	608,567
753,7	601,338
754,1	594,91
754,6	586,024
755	581,252
755,4	579,252
755,9	573,538
756,3	574,624
756,7	574,91
757,2	570,538
757,6	568,824
758	565,452
758,5	560,852
758,9	561,11
759,3	549,595
759,8	540,91
760,2	536,481
760,6	534,395
761,1	524,452
761,5	525,252
761,9	517,452
762,4	514,595
762,8	507,595
763,3	510,595
763,7	502,395
764,1	504,51
764,6	494,11
765	490,11
765,4	486,052
765,9	487,767
766,3	482,538
766,7	481,481
767,2	476,195
767,6	480,338
768	483,338
768,5	485,052
768,9	482,71
769,3	479,252
769,8	473,624
770,2	466,795
770,6	461,852
771,1	453,795
771,5	448,795
771,9	450,024
772,4	450,538
772,8	453,052
773,2	450,167
773,7	440,681
774,1	441,738
774,5	434,852
775	423,824
775,4	414,31
775,8	409,052
776,3	408,738
776,7	407,681
777,1	402,595
777,6	396,652
778	398,252
778,4	396,652
778,9	389,481
779,3	383,767
779,7	383,11
780,2	383,481
780,6	380,367
781	374,052
781,5	372,281
781,9	374,967
782,3	375,452
782,8	371,881
783,2	365,91
783,6	368,081
784,1	368,281
784,5	364,995
784,9	361,252
785,4	356,052
785,8	352,91
786,2	351,195
786,7	349,71
787,1	344,91
787,5	345,195
788	342,767
788,4	339,281
788,8	337,11
789,3	332,138
789,7	334,424
790,1	332,767
790,6	327,595
791	328,167
791,4	329,538
791,9	323,652
792,3	320,452
792,7	308,338
793,2	307,938
793,6	303,652
794	298,51
794,5	293,91
794,9	295,31
795,3	297,51
795,8	297,367
796,2	293,338
796,6	293,852
797,1	286,481
797,5	287,195
797,9	285,395
798,4	281,224
798,8	281,452
799,2	280,995
799,7	280,167
800,1	282,51
800,5	279,11
801	280,71
801,4	280,852
801,8	276,995
802,2	273,395
802,7	271,024
803,1	269,395
803,5	268,11
804	261,452
804,4	256,395
804,8	253,91
805,3	255,167
805,7	251,938
806,1	248,367
806,6	246,595
807	244,195
807,4	246,395
807,9	246,681
808,3	238,967
808,7	234,51
809,2	234,624
809,6	233,281
810	229,452
810,4	224,967
810,9	220,71
811,3	220,11
811,7	223,31
812,2	222,224
812,6	216,567
813	217,367
813,5	209,852
813,9	207,167
814,3	208,538
814,8	200,767
815,2	196,652
815,6	196,767
816,1	197,224
816,5	202,167
816,9	199,31
817,3	196,91
817,8	198,652
818,2	197,138
818,6	195,938
819,1	196,138
819,5	194,51
819,9	194,938
820,4	193,795
820,8	192,11
821,2	190,052
821,7	187,738
822,1	182,395
822,5	180,167
822,9	178,224
823,4	174,824
823,8	174,767
824,2	175,852
824,7	177,31
825,1	175,51
825,5	170,881
826	174,452
826,4	174,195
826,8	171,052
827,3	167,367
827,7	165,624
828,1	166,367
828,5	161,91
829	157,395
829,4	150,681
829,8	149,738
830,3	150,738
830,7	147,624
831,1	147,224
831,6	154,338
832	159,795
832,4	161,167
832,8	153,967
833,3	153,738
833,7	154,167
834,1	150,767
834,6	147,51
835	142,824
835,4	139,652
835,8	143,738
836,3	138,252
836,7	135,052
837,1	132,738
837,6	129,852
838	125,081
838,4	124,081
838,9	123,338
839,3	130,595
839,7	132,967
840,1	130,138
840,6	131,91
841	134,681
841,4	138,367
841,9	136,481
842,3	131,024
842,7	124,224
843,1	125,795
843,6	119,51
844	115,681
844,4	112,481
844,9	108,338
845,3	105,052
845,7	104,424
846,2	100,281
846,6	100,481
847	103,252
847,4	93,71
847,9	94,31
848,3	95,11
848,7	93,995
849,2	97,052
849,6	96,024
850	93,567
850,4	100,024
850,9	102,281
851,3	101,338
851,7	99,767
852,2	98,652
852,6	99,281
853	93,767
853,4	93,081
853,9	93,91
854,3	92,395
854,7	94,852
855,2	96,538
855,6	96,795
856	95,595
856,4	98,967
856,9	94,424
857,3	93,195
857,7	92,567
858,2	85,795
858,6	83,31
859	83,052
859,4	81,338
859,9	81,881
860,3	79,452
860,7	78,195
861,1	80,195
861,6	84,195
862	84,052
862,4	82,51
862,9	80,31
863,3	76,424
863,7	79,167
864,1	78,338
864,6	75,138
865	79,31
865,4	80,995
865,9	81,567
866,3	90,624
866,7	90,224
867,1	85,195
867,6	85,338
868	86,824
868,4	85,424
868,8	84,881
869,3	79,624
869,7	74,738
870,1	81,081
870,6	74,452
871	65,824
871,4	60,595
871,8	61,881
872,3	61,852
872,7	64,767
873,1	58,395
873,5	65,995
874	64,252
874,4	65,281
874,8	65,938
875,3	67,281
875,7	66,31
876,1	68,195
876,5	62,824
877	61,681
877,4	62,91
877,8	60,338
878,2	56,852
878,7	57,452
879,1	58,824
879,5	56,424
879,9	61,71
880,4	64,767
880,8	60,338
881,2	65,195
881,7	62,338
882,1	62,71
882,5	66,052
882,9	65,11
883,4	65,71
883,8	68,024
884,2	60,424
884,6	63,767
885,1	62,852
885,5	61,595
885,9	62,281
886,3	56,738
886,8	58,252
887,2	56,395
887,6	47,31
888	48,11
888,5	46,91
888,9	47,167
889,3	46,052
889,8	43,51
890,2	46,024
890,6	48,738
891	44,51
891,5	46,538
891,9	44,195
892,3	42,824
892,7	45,11
893,2	45,195
893,6	45,281
894	44,367
894,4	43,595
894,9	45,652
895,3	46,767
895,7	47,081
896,1	51,024
896,6	53,938
897	53,538
897,4	53,224
897,8	51,167
898,3	51,31
898,7	45,967
899,1	43,738
899,5	37,395
900	39,738
900,4	42,51
900,8	38,138
901,2	37,624
901,7	40,052
902,1	39,652
902,5	40,852
902,9	40,424
903,4	35,252
903,8	39,995
904,2	39,567
904,6	37,224
905,1	37,738
905,5	41,281
905,9	40,91
906,3	40,738
906,8	37,338
907,2	35,367
907,6	38,967
908	30,595
908,5	26,624
908,9	27,795
909,3	28,252
909,7	27,595
910,2	29,967
910,6	27,167
911	28,052
911,4	26,91
911,9	24,91
912,3	16,967
912,7	14,595
913,1	14,738
913,6	11,652
914	17,938
914,4	16,195
914,8	18,71
915,3	23,824
915,7	28,967
916,1	28,138
916,5	29,938
916,9	24,652
917,4	31,71
917,8	28,052
918,2	32,367
918,6	30,567
919,1	31,652
919,5	32,681
919,9	37,367
920,3	36,424
920,8	36,081
921,2	31,081
921,6	32,024
922	29,91
922,5	31,71
922,9	27,967
923,3	26,881
923,7	26,595
924,2	24,624
924,6	21,481
925	20,567
925,4	20,024
925,8	21,138
926,3	25,081
926,7	28,281
927,1	31,767
927,5	35,367
928	35,71
928,4	32,052
928,8	30,11
929,2	21,367
929,7	16,738
930,1	14,224
930,5	14,281
930,9	13,167
931,3	14,367
931,8	15,795
932,2	19,681
932,6	23,224
933	25,538
933,5	24,395
933,9	24,767
934,3	25,938
934,7	20,224
935,2	20,138
935,6	17,452
936	14,252
936,4	16,767
936,8	17,938
937,3	13,31
937,7	16,167
938,1	11,424
938,5	7,71
939	11,624
939,4	8,538
939,8	7,681
940,2	9,567
940,6	12,281
941,1	14,395
941,5	20,767
941,9	23,938
942,3	19,624
942,8	21,424
943,2	25,424
943,6	23,71
944	23,167
944,4	23,738
944,9	14,824
945,3	18,11
945,7	14,652
946,1	14,538
946,6	14,681
947	15,167
947,4	12,567
947,8	18,395
948,2	14,652
948,7	11,967
949,1	10,91
949,5	7,595
949,9	7,881
950,3	4,31
950,8	6,11
951,2	10,138
951,6	16,595
952	12,538
952,5	12,052
952,9	11,481
953,3	14,11
953,7	12,824
954,1	12,452
954,6	8,367
955	8,624
955,4	15,138
955,8	15,51
956,2	18,167
956,7	16,167
957,1	13,224
957,5	10,51
957,9	15,995
958,3	13,224
958,8	15,995
959,2	15,224
959,6	12,967
960	14,567
960,5	14,567
960,9	14,71
961,3	10,824
961,7	3,167
962,1	4,052
962,6	2,024
963	-0,376
963,4	3,024
963,8	-1,719
964,2	3,51
964,7	9,395
965,1	3,538
965,5	8,11
965,9	9,595
966,3	5,052
966,8	5,681
967,2	2,138
967,6	3,195
968	3,995
968,4	2,681
968,9	5,995
969,3	6,881
969,7	4,452
970,1	4,052
970,5	2,567
971	1,195
971,4	-1,148
971,8	-4,605
972,2	-0,633
972,6	4,024
973,1	4,481
973,5	2,224
973,9	5,395
974,3	6,967
974,7	6,31
975,2	5,024
975,6	3,71
976	6,338
976,4	7,338
976,8	4,738
977,3	8,652
977,7	10,452
978,1	9,995
978,5	3,681
978,9	-0,205
979,4	0,567
979,8	-0,005
980,2	-4,205
980,6	-3,519
981	-1,805
981,5	3,452
981,9	7,138
982,3	9,881
982,7	11,252
983,1	10,738
983,6	11,024
984	7,652
984,4	7,91
984,8	10,224
985,2	8,424
985,6	11,081
986,1	11,624
986,5	8,967
986,9	9,31
987,3	5,31
987,7	0,738
988,2	-1,833
988,6	-2,776
989	-2,976
989,4	0,595
989,8	1,71
990,3	6,91
990,7	12,195
991,1	15,652
991,5	17,681
991,9	17,252
992,3	15,681
992,8	12,938
993,2	13,538
993,6	7,71
994	6,167
994,4	8,252
994,9	9,195
995,3	14,424
995,7	17,224
996,1	17,424
996,5	16,195
996,9	14,452
997,4	8,567
997,8	14,11
998,2	8,795
998,6	12,652
999	12,652
999,5	14,11
999,9	16,452
1000,3	19,995
1000,7	15,367
1001,1	8,824
1001,5	4,481
1002	2,167
1002,4	2,795
1002,8	1,338
1003,2	1,881
1003,6	2,738
1004	6,595
1004,5	8,024
1004,9	9,738
1005,3	11,424
1005,7	10,767
1006,1	11,395
1006,6	7,91
1007	5,938
1007,4	3,11
1007,8	2,11
1008,2	3,738
1008,6	4,11
1009,1	-0,49
1009,5	0,424
1009,9	4,795
1010,3	5,452
1010,7	5,938
1011,1	2,767
1011,6	4,224
1012	4,881
1012,4	9,595
1012,8	6,71
1013,2	7,824
1013,6	6,481
1014,1	7,252
1014,5	3,767
1014,9	6,481
1015,3	-1,119
1015,7	2,91
1016,1	-2,176
1016,6	-3,89
1017	2,11
1017,4	4,595
1017,8	0,91
1018,2	4,795
1018,6	1,481
1019,1	8,367
1019,5	9,052
1019,9	5,167
1020,3	5,195
1020,7	7,538
1021,1	8,252
1021,6	7,567
1022	8,824
1022,4	11,195
1022,8	7,881
1023,2	7,938
1023,6	4,052
1024,1	4,738
1024,5	8,624
1024,9	8,31
1025,3	5,681
1025,7	13,31
1026,1	14,881
1026,6	24,91
1027	21,31
1027,4	18,824
1027,8	16,367
1028,2	14,624
1028,6	9,224
1029	5,224
1029,5	-2,49
1029,9	1,252
1030,3	2,767
1030,7	9,395
1031,1	10,11
1031,5	13,138
1032	16,71
1032,4	18,852
1032,8	16,452
1033,2	16,967
1033,6	10,367
1034	10,567
1034,4	11,538
1034,9	12,852
1035,3	11,767
1035,7	13,71
1036,1	14,195
1036,5	18,367
1036,9	22,938
1037,4	21,052
1037,8	20,624
1038,2	15,824
1038,6	15,252
1039	12,795
1039,4	11,195
1039,8	12,11
1040,3	11,195
1040,7	6,538
1041,1	10,338
1041,5	10,767
1041,9	10,738
1042,3	9,767
1042,7	0,167
1043,2	0,367
1043,6	6,338
1044	9,681
1044,4	7,91
1044,8	11,51
1045,2	12,852
1045,6	19,881
1046,1	16,338
1046,5	14,795
1046,9	13,681
1047,3	17,452
1047,7	16,138
1048,1	14,252
1048,5	18,281
1049	22,852
1049,4	21,367
1049,8	20,167
1050,2	16,252
1050,6	17,938
1051	10,51
1051,4	2,481
1051,9	-2,205
1052,3	0,195
1052,7	1,395
1053,1	0,452
1053,5	-0,29
1053,9	6,224
1054,3	4,767
1054,8	8,138
1055,2	2,338
1055,6	2,881
1056	7,11
1056,4	5,252
1056,8	10,481
1057,2	17,31
1057,6	16,795
1058,1	24,167
1058,5	20,881
1058,9	16,11
1059,3	15,395
1059,7	11,167
1060,1	9,081
1060,5	6,738
1061	3,424
1061,4	5,767
1061,8	10,424
1062,2	9,681
1062,6	10,338
1063	10,224
1063,4	11,11
1063,8	11,195
1064,3	8,71
1064,7	8,71
1065,1	10,567
1065,5	9,995
1065,9	9,624
1066,3	8,767
1066,7	7,024
1067,1	3,681
1067,6	5,995
1068	4,595
1068,4	2,738
1068,8	-3,405
1069,2	-1,948
1069,6	-1,605
1070	4,052
1070,4	0,938
1070,9	1,567
1071,3	5,938
1071,7	14,138
1072,1	10,681
1072,5	11,567
1072,9	11,852
1073,3	8,224
1073,7	10,967
1074,2	6,252
1074,6	3,138
1075	5,938
1075,4	5,538
1075,8	3,424
1076,2	5,71
1076,6	6,395
1077	7,252
1077,5	9,11
1077,9	5,167
1078,3	2,11
1078,7	3,11
1079,1	4,138
1079,5	-1,719
1079,9	-1,605
1080,3	-4,462
1080,7	-0,062
1081,2	5,538
1081,6	1,452
1082	-0,576
1082,4	2,767
1082,8	1,767
1083,2	2,852
1083,6	0,367
1084	-3,09
1084,5	3,024
1084,9	1,452
1085,3	1,938
1085,7	5,595
1086,1	6,767
1086,5	6,538
1086,9	7,881
1087,3	3,138
1087,7	5,881
1088,2	2,852
1088,6	-1,09
1089	-1,462
1089,4	1,938
1089,8	2,567
1090,2	1,738
1090,6	2,252
1091	6,738
1091,4	7,652
1091,9	10,052
1092,3	9,881
1092,7	9,881
1093,1	12,567
1093,5	11,481
1093,9	9,424
1094,3	9,795
1094,7	6,052
1095,1	8,881
1095,5	6,681
1096	8,652
1096,4	8,452
1096,8	7,052
1097,2	9,538
1097,6	12,681
1098	14,024
1098,4	11,167
1098,8	10,224
1099,2	8,367
1099,6	8,195
1100,1	8,51
1100,5	5,795
1100,9	4,71
1101,3	7,595
1101,7	5,852
1102,1	10,595
1102,5	8,024
1102,9	2,91
1103,3	4,824
1103,7	2,224
1104,2	4,824
1104,6	9,824
1105	7,595
1105,4	10,824
1105,8	12,91
1106,2	10,967
1106,6	8,71
1107	6,11
1107,4	2,033
1107,8	1,407
1108,3	-0,283
