Data from Subt2_00099.txt Node
Date: Mon Aug 28 13:36:51 MSK 2023
User: vat
Spectrometer: MAYP114033
Trigger mode: 0
Integration Time (sec): 1,000000E0
Scans to average: 5
Electric dark correction enabled: true
Nonlinearity correction enabled: false
Boxcar width: 3
XAxis mode: Wavelengths
Number of Pixels in Spectrum: 2068
>>>>>Begin Spectral Data<<<<<
199,4	-1,8
199,9	-6,74
200,4	-3,633
200,8	0,843
201,3	-1,471
201,8	1,443
202,2	3,414
202,7	4,786
203,2	9,5
203,6	10,129
204,1	8,357
204,6	12,7
205	10,357
205,5	11,3
206	10,214
206,4	7,757
206,9	8,443
207,4	6,7
207,8	6,386
208,3	7,1
208,8	5,129
209,2	8,814
209,7	11,1
210,2	9,386
210,6	10,529
211,1	13,9
211,5	12,929
212	15,757
212,5	12,186
212,9	11,1
213,4	13,214
213,9	11,471
214,3	12,786
214,8	14,071
215,3	12,529
215,7	17,557
216,2	19,786
216,7	22,243
217,1	19,414
217,6	18,214
218,1	20,043
218,5	18,7
219	16,329
219,5	18,386
219,9	11,9
220,4	15,671
220,9	12,357
221,3	10,586
221,8	15,043
222,3	13,9
222,7	14,7
223,2	16,386
223,6	16,786
224,1	23,186
224,6	25,014
225	21,214
225,5	18,243
226	14,729
226,4	14,529
226,9	16,871
227,4	13,271
227,8	9,643
228,3	7,1
228,8	10,986
229,2	16,671
229,7	19,786
230,2	21,7
230,6	21,643
231,1	26,014
231,5	34,814
232	34,3
232,5	28,614
232,9	28,929
233,4	27,157
233,9	25,843
234,3	23,729
234,8	18,871
235,3	20,586
235,7	21,871
236,2	20,614
236,7	12,786
237,1	15,5
237,6	17,129
238,1	18,586
238,5	16,786
239	17,443
239,4	18,671
239,9	23,871
240,4	23,157
240,8	21,7
241,3	22,386
241,8	23,643
242,2	20,957
242,7	20,443
243,2	25,014
243,6	25,5
244,1	22,814
244,6	17,071
245	14,729
245,5	16,529
245,9	15,986
246,4	11,7
246,9	12,329
247,3	15,014
247,8	12,7
248,3	16,957
248,7	15,471
249,2	13,071
249,7	13,1
250,1	6,729
250,6	10,3
251	13,557
251,5	8,929
252	6,271
252,4	7,271
252,9	10,643
253,4	10,843
253,8	4,757
254,3	7,386
254,8	10,786
255,2	14,329
255,7	15,1
256,1	8,986
256,6	10,843
257,1	15,843
257,5	11,586
258	6,157
258,5	8,357
258,9	6,271
259,4	9,9
259,9	8,129
260,3	3,043
260,8	3,757
261,2	8,929
261,7	5,671
262,2	9,757
262,6	11,071
263,1	11,157
263,6	9,671
264	14,757
264,5	15,786
264,9	18,386
265,4	13,643
265,9	13,871
266,3	14,5
266,8	19,814
267,3	14,329
267,7	13,471
268,2	14,643
268,7	17,671
269,1	19,157
269,6	20,729
270	17,814
270,5	26,529
271	22,871
271,4	17,157
271,9	13,5
272,4	11,071
272,8	11,5
273,3	11,957
273,7	3,443
274,2	4,643
274,7	7,157
275,1	6,814
275,6	9,786
276,1	8,129
276,5	6,814
277	9,386
277,4	10,814
277,9	9,043
278,4	11,557
278,8	10,043
279,3	10,9
279,8	13,329
280,2	15,843
280,7	12,357
281,1	13,129
281,6	16,357
282,1	13,786
282,5	16,271
283	17,986
283,4	17,729
283,9	22,757
284,4	24,843
284,8	21,271
285,3	22,043
285,8	17,214
286,2	13,729
286,7	14,471
287,1	12,186
287,6	12,957
288,1	15,1
288,5	17,243
289	13,729
289,5	17,843
289,9	14,529
290,4	14,557
290,8	15,614
291,3	16,129
291,8	11,557
292,2	21,614
292,7	18,757
293,1	24,643
293,6	22,643
294,1	19,043
294,5	17,014
295	18,186
295,5	13,1
295,9	16,043
296,4	9,157
296,8	10,443
297,3	13,529
297,8	20,586
298,2	20,214
298,7	22,814
299,1	19,129
299,6	21,271
300,1	25,471
300,5	22,357
301	17,586
301,5	19,843
301,9	18,357
302,4	15,786
302,8	18,986
303,3	17,843
303,8	20,5
304,2	19,357
304,7	14,443
305,1	13,043
305,6	15,814
306,1	10,1
306,5	5,271
307	1,814
307,4	-0,729
307,9	2,471
308,4	5,071
308,8	5,186
309,3	9,243
309,8	10,386
310,2	14,586
310,7	17,929
311,1	17,757
311,6	12,557
312,1	9,957
312,5	7,014
313	14,9
313,4	13,9
313,9	10,129
314,4	5,986
314,8	10,414
315,3	17,3
315,7	23,214
316,2	13,529
316,7	15,214
317,1	17,386
317,6	26,014
318	24,614
318,5	20,957
319	15,329
319,4	21,614
319,9	14,471
320,3	17,443
320,8	14,271
321,3	14,186
321,7	14,614
322,2	14,671
322,6	12,786
323,1	14,529
323,6	13,157
324	12,414
324,5	13,529
324,9	15,957
325,4	17,071
325,9	15,957
326,3	17,843
326,8	18,7
327,2	18,329
327,7	18,643
328,2	20,757
328,6	21,214
329,1	16,586
329,5	17,557
330	19,557
330,5	21,7
330,9	18,957
331,4	11,243
331,8	9,786
332,3	18,557
332,8	17,5
333,2	13,986
333,7	9,214
334,1	4,243
334,6	7,471
335,1	6,7
335,5	-0,929
336	-0,271
336,4	2,157
336,9	4,843
337,4	13,871
337,8	8,529
338,3	11,014
338,7	12,043
339,2	12,529
339,7	9,214
340,1	7,414
340,6	5,9
341	13,871
341,5	11,243
342	11,7
342,4	5,071
342,9	8,529
343,3	13,1
343,8	12,671
344,2	13,557
344,7	14,729
345,2	16,929
345,6	23,757
346,1	18,957
346,5	17,529
347	16,786
347,5	12,614
347,9	10,843
348,4	11,186
348,8	11,386
349,3	11,929
349,8	11,843
350,2	14,529
350,7	15,786
351,1	18,386
351,6	18,014
352	18,186
352,5	26,043
353	32,443
353,4	40,586
353,9	54,843
354,3	70,386
354,8	78,614
355,3	97,443
355,7	111,986
356,2	127,471
356,6	144,586
357,1	162,671
357,5	183,9
358	221,529
358,5	253,471
358,9	293,243
359,4	341,129
359,8	390,529
360,3	442,157
360,8	506,014
361,2	574,357
361,7	648,129
362,1	728,329
362,6	816,3
363	911,929
363,5	1016,9
364	1125,243
364,4	1238,986
364,9	1351,386
365,3	1463,843
365,8	1573,186
366,3	1676,614
366,7	1759,386
367,2	1835,471
367,6	1895,386
368,1	1944,5
368,5	1972,386
369	1978,157
369,5	1976,729
369,9	1968,929
370,4	1933,043
370,8	1884,986
371,3	1820,1
371,7	1753,957
372,2	1683,929
372,7	1598,357
373,1	1512,843
373,6	1426,957
374	1337,3
374,5	1252,929
374,9	1167,586
375,4	1082,614
375,9	1006,329
376,3	924,757
376,8	851,243
377,2	783,729
377,7	726,043
378,2	668,071
378,6	617,243
379,1	563,871
379,5	521,3
380	481,1
380,4	443,986
380,9	406,157
381,4	374,671
381,8	342,1
382,3	317,614
382,7	292,157
383,2	271,529
383,6	254,957
384,1	239,071
384,6	221,986
385	210,243
385,5	196,014
385,9	190,329
386,4	181,129
386,8	168,843
387,3	157,186
387,7	147,043
388,2	137,1
388,7	131,729
389,1	119,786
389,6	114,529
390	105,814
390,5	102,529
390,9	97,014
391,4	91,671
391,9	82,129
392,3	79,014
392,8	70,786
393,2	74,043
393,7	68,157
394,1	65,671
394,6	68,214
395,1	72,071
395,5	69,586
396	69,7
396,4	62,614
396,9	63,386
397,3	67,271
397,8	57,129
398,2	52,3
398,7	45,929
399,2	43,9
399,6	42,871
400,1	35,9
400,5	33,129
401	39,271
401,4	34,957
401,9	36,357
402,4	31,243
402,8	35,871
403,3	43,043
403,7	38,929
404,2	38,9
404,6	42,529
405,1	49,529
405,5	55,414
406	57,557
406,5	53,3
406,9	57,043
407,4	54,071
407,8	56,129
408,3	51,414
408,7	47,843
409,2	40,7
409,6	43,643
410,1	43,871
410,6	43,243
411	45,414
411,5	47,757
411,9	46,471
412,4	52,129
412,8	52,186
413,3	53,271
413,7	62,243
414,2	59,814
414,7	63,329
415,1	72,214
415,6	70,986
416	77,186
416,5	83,386
416,9	81,014
417,4	86,386
417,8	89,414
418,3	89,157
418,8	93,757
419,2	93,871
419,7	90,843
420,1	88,986
420,6	95,129
421	97,9
421,5	99,986
421,9	100,729
422,4	102,529
422,8	105,1
423,3	110,357
423,8	108,3
424,2	103,843
424,7	109,414
425,1	107,471
425,6	108,357
426	112,729
426,5	112,671
426,9	112,986
427,4	121,157
427,9	120,043
428,3	125,786
428,8	128,329
429,2	128,9
429,7	133,214
430,1	133,414
430,6	127,386
431	126,1
431,5	126,414
431,9	125,614
432,4	124,471
432,8	127,757
433,3	126,786
433,8	134,071
434,2	140,9
434,7	137,814
435,1	145,786
435,6	149,671
436	153,186
436,5	164,157
436,9	169,386
437,4	174,386
437,8	186,729
438,3	195,043
438,8	200,7
439,2	208,614
439,7	211,443
440,1	218,071
440,6	224,357
441	234,871
441,5	237,443
441,9	247,129
442,4	255,614
442,8	267,671
443,3	283,071
443,7	292,386
444,2	301,614
444,7	321,386
445,1	336,3
445,6	350,814
446	366,186
446,5	376,414
446,9	398,129
447,4	417,729
447,8	430,386
448,3	449,3
448,7	465,043
449,2	481,157
449,6	503,757
450,1	518,929
450,6	539,729
451	559,443
451,5	586,157
451,9	606,786
452,4	630,586
452,8	650,243
453,3	672,7
453,7	695,786
454,2	720,843
454,6	738,443
455,1	768,186
455,5	795,814
456	826,329
456,4	849,071
456,9	878,129
457,3	903,614
457,8	928,329
458,3	954,014
458,7	983,7
459,2	1010,843
459,6	1048,271
460,1	1080,614
460,5	1112,014
461	1153,586
461,4	1189,014
461,9	1222,214
462,3	1257,471
462,8	1290,9
463,2	1322,3
463,7	1362,529
464,1	1393,471
464,6	1427,986
465	1462,957
465,5	1497,843
466	1541,214
466,4	1579,729
466,9	1617,5
467,3	1654,443
467,8	1700,957
468,2	1742,929
468,7	1791,386
469,1	1829,671
469,6	1873,014
470	1915,357
470,5	1962,386
470,9	1999,529
471,4	2043,1
471,8	2077,871
472,3	2117,871
472,7	2158,986
473,2	2198,786
473,6	2234,729
474,1	2273,5
474,5	2313,843
475	2351,586
475,4	2391,786
475,9	2431,271
476,4	2467,414
476,8	2507,386
477,3	2545,814
477,7	2584,671
478,2	2628,9
478,6	2664,386
479,1	2707,357
479,5	2757,1
480	2804,157
480,4	2847,157
480,9	2882,043
481,3	2917,329
481,8	2955,243
482,2	2985,929
482,7	3016,243
483,1	3038,271
483,6	3072,557
484	3106,129
484,5	3136,871
484,9	3175,129
485,4	3204,5
485,8	3231,529
486,3	3266,329
486,7	3292,214
487,2	3323,014
487,6	3349,186
488,1	3369,071
488,5	3390,071
489	3420,957
489,4	3454,157
489,9	3468,9
490,4	3490,329
490,8	3514,271
491,3	3532,471
491,7	3558,3
492,2	3573,586
492,6	3587,243
493,1	3620,271
493,5	3642,357
494	3668,814
494,4	3692,957
494,9	3708,586
495,3	3719,157
495,8	3733,129
496,2	3746,729
496,7	3758,671
497,1	3761,986
497,6	3774,214
498	3790,214
498,5	3808,186
498,9	3825,157
499,4	3830,986
499,8	3834,957
500,3	3858,586
500,7	3868,843
501,2	3883,157
501,6	3895,729
502,1	3903,529
502,5	3911,871
503	3932,329
503,4	3932,014
503,9	3943,814
504,3	3951,329
504,8	3958,414
505,2	3971,443
505,7	3981,243
506,1	3990,586
506,6	3997,586
507	4009,1
507,5	4017,443
507,9	4031,357
508,4	4035,614
508,8	4049,471
509,3	4060,157
509,7	4069,986
510,2	4079,929
510,6	4082,471
511,1	4087,329
511,5	4090,671
512	4093,929
512,4	4099,186
512,9	4108,871
513,3	4103,757
513,8	4116,643
514,2	4119,386
514,7	4130,157
515,1	4135,271
515,6	4138,786
516	4140,729
516,5	4150,871
516,9	4146,9
517,4	4151,243
517,8	4150,014
518,3	4160,757
518,7	4166,386
519,2	4176,814
519,6	4176,529
520,1	4183,871
520,5	4187,786
521	4195,271
521,4	4196,614
521,9	4197,014
522,3	4198,986
522,8	4212,186
523,2	4221,7
523,7	4225,3
524,1	4231,557
524,6	4233,786
525	4244,357
525,5	4256,5
525,9	4262,1
526,4	4270,586
526,8	4284,7
527,3	4298,1
527,7	4316,786
528,2	4323,529
528,6	4331,386
529,1	4341,329
529,5	4346,614
530	4363,271
530,4	4366,529
530,9	4376,071
531,3	4390,757
531,8	4398,614
532,2	4405,614
532,6	4415,443
533,1	4410,271
533,5	4419,814
534	4419,643
534,4	4421,329
534,9	4425,414
535,3	4436,529
535,8	4452,986
536,2	4469,529
536,7	4479,614
537,1	4493,129
537,6	4507,814
538	4517,357
538,5	4527,5
538,9	4529,214
539,4	4538,614
539,8	4542,614
540,3	4552,843
540,7	4549,157
541,2	4560,271
541,6	4569,271
542,1	4579,129
542,5	4588,671
543	4600,3
543,4	4602,986
543,9	4623,986
544,3	4636,014
544,8	4644,557
545,2	4657,643
545,7	4670,071
546,1	4682,671
546,5	4695,3
547	4702,243
547,4	4708,186
547,9	4719,786
548,3	4728,271
548,8	4731,014
549,2	4746,386
549,7	4759,5
550,1	4760,729
550,6	4766,9
551	4772,243
551,5	4778,071
551,9	4794,729
552,4	4791,7
552,8	4797,443
553,3	4812,614
553,7	4824,814
554,2	4834,586
554,6	4854,271
555,1	4855,357
555,5	4869,729
555,9	4880,843
556,4	4892,386
556,8	4912,243
557,3	4920,129
557,7	4920,443
558,2	4930,443
558,6	4932,957
559,1	4940,957
559,5	4945,529
560	4940,757
560,4	4949,586
560,9	4956,9
561,3	4960,129
561,8	4981,843
562,2	4987,986
562,7	4996,3
563,1	5006,243
563,6	5009,071
564	5008,557
564,4	5017,529
564,9	5019,157
565,3	5015,9
565,8	5020,671
566,2	5019,643
566,7	5029,329
567,1	5033,243
567,6	5037,357
568	5027,471
568,5	5040,557
568,9	5043,1
569,4	5047,643
569,8	5047,471
570,3	5060,471
570,7	5063,529
571,1	5071,557
571,6	5070,3
572	5073,529
572,5	5070,3
572,9	5073,014
573,4	5063,414
573,8	5067,443
574,3	5069,643
574,7	5065,471
575,2	5062,614
575,6	5068,957
576,1	5065,414
576,5	5070,643
576,9	5065,386
577,4	5067,471
577,8	5067,129
578,3	5066,643
578,7	5056,643
579,2	5049,757
579,6	5046,386
580,1	5047,271
580,5	5041,586
581	5039,043
581,4	5034,414
581,9	5037,214
582,3	5031,671
582,7	5018,129
583,2	5002,786
583,6	4988,071
584,1	4981,586
584,5	4971,986
585	4954,643
585,4	4951,043
585,9	4948,329
586,3	4939,729
586,8	4940,443
587,2	4929,271
587,6	4919,5
588,1	4920,757
588,5	4921,471
589	4911,329
589,4	4910,5
589,9	4891,529
590,3	4884,586
590,8	4876,557
591,2	4866,157
591,7	4848,786
592,1	4844,757
592,5	4828,843
593	4826,929
593,4	4819,471
593,9	4816,729
594,3	4816,671
594,8	4815,671
595,2	4807,586
595,7	4809,414
596,1	4801,814
596,6	4797,557
597	4788,586
597,4	4776,386
597,9	4761,729
598,3	4754,271
598,8	4744,671
599,2	4745,443
599,7	4736,671
600,1	4724,443
600,6	4709,929
601	4704,5
601,4	4698,671
601,9	4679,129
602,3	4659,957
602,8	4643,986
603,2	4633,671
603,7	4622,557
604,1	4606,3
604,6	4589,5
605	4590,529
605,4	4575,557
605,9	4562,643
606,3	4556,529
606,8	4549,014
607,2	4543,957
607,7	4527,729
608,1	4507,786
608,6	4503,471
609	4492,186
609,4	4474,3
609,9	4465,386
610,3	4442,814
610,8	4432,243
611,2	4418,729
611,7	4395,871
612,1	4384,043
612,6	4363,243
613	4331,329
613,4	4316,186
613,9	4299,643
614,3	4285,729
614,8	4270,186
615,2	4256,071
615,7	4246,671
616,1	4239,871
616,6	4225,129
617	4204,471
617,4	4186,043
617,9	4179,157
618,3	4159,471
618,8	4144,186
619,2	4131,5
619,7	4116,957
620,1	4105,614
620,5	4093,871
621	4070,129
621,4	4056,186
621,9	4040,357
622,3	4021,986
622,8	4002,129
623,2	3989,643
623,6	3967,1
624,1	3950,014
624,5	3929,814
625	3908,5
625,4	3884,186
625,9	3873,186
626,3	3852,5
626,8	3831,1
627,2	3817,786
627,6	3804,7
628,1	3781,071
628,5	3765,471
629	3740,443
629,4	3720,271
629,9	3709,3
630,3	3686,414
630,7	3666,186
631,2	3655,729
631,6	3638,129
632,1	3623,071
632,5	3605,471
633	3587,329
633,4	3566,814
633,8	3540,529
634,3	3521,9
634,7	3503,014
635,2	3479,443
635,6	3467,557
636,1	3444,5
636,5	3428,843
636,9	3417,471
637,4	3397,471
637,8	3383,871
638,3	3368,7
638,7	3345,129
639,2	3330,157
639,6	3317,043
640	3296,443
640,5	3276,814
640,9	3260,614
641,4	3243,329
641,8	3229,643
642,2	3214,9
642,7	3195,614
643,1	3178,014
643,6	3171,329
644	3152,157
644,5	3146,757
644,9	3126,3
645,3	3110,1
645,8	3094,586
646,2	3080,214
646,7	3052,214
647,1	3036,014
647,6	3011,414
648	2996,157
648,4	2975,157
648,9	2960,243
649,3	2947,529
649,8	2937,529
650,2	2928,843
650,6	2919,586
651,1	2903,586
651,5	2889,243
652	2879,1
652,4	2866,071
652,9	2852,757
653,3	2828,043
653,7	2813,043
654,2	2800,243
654,6	2790,586
655,1	2765,443
655,5	2746,3
655,9	2731,014
656,4	2722,329
656,8	2698,586
657,3	2684,986
657,7	2669,071
658,2	2653,471
658,6	2637,529
659	2621,071
659,5	2598,329
659,9	2581,9
660,4	2561,986
660,8	2547,014
661,2	2535,871
661,7	2523,957
662,1	2515,529
662,6	2505,729
663	2495,586
663,4	2483,557
663,9	2464,729
664,3	2448,3
664,8	2426,671
665,2	2401,386
665,6	2381,986
666,1	2362,643
666,5	2348,214
667	2334,871
667,4	2318,7
667,9	2317,3
668,3	2306,871
668,7	2295,671
669,2	2284,329
669,6	2265,929
670,1	2245,586
670,5	2226,814
670,9	2203,243
671,4	2186,329
671,8	2168,443
672,3	2154,9
672,7	2145,214
673,1	2133,157
673,6	2122,386
674	2109,071
674,5	2097,471
674,9	2083,043
675,3	2063,986
675,8	2043,814
676,2	2031,357
676,7	2020,929
677,1	2008,814
677,5	1996,957
678	1989,043
678,4	1984,614
678,9	1975,214
679,3	1961,843
679,7	1950,671
680,2	1933,957
680,6	1920,471
681,1	1910,843
681,5	1890,243
681,9	1879,757
682,4	1869,729
682,8	1855,271
683,3	1845,186
683,7	1834,443
684,1	1820,729
684,6	1811,7
685	1799,929
685,5	1787,129
685,9	1775,1
686,3	1762,671
686,8	1753,471
687,2	1740,271
687,7	1724,757
688,1	1713,557
688,5	1704,557
689	1694,814
689,4	1687,586
689,9	1674,271
690,3	1667,786
690,7	1658,243
691,2	1643,386
691,6	1629,986
692	1620,214
692,5	1609,071
692,9	1594,614
693,4	1574,757
693,8	1570,157
694,2	1559,414
694,7	1544,814
695,1	1534,614
695,6	1522,643
696	1516,157
696,4	1513,757
696,9	1502,5
697,3	1494,671
697,8	1487,871
698,2	1472,843
698,6	1462,529
699,1	1451,414
699,5	1435,557
699,9	1425,986
700,4	1412,986
700,8	1406,157
701,3	1401,843
701,7	1393,5
702,1	1385,129
702,6	1373,757
703	1362,671
703,5	1353,414
703,9	1338,129
704,3	1320,957
704,8	1314,043
705,2	1299,329
705,6	1293,157
706,1	1287,357
706,5	1285,1
707	1281,586
707,4	1278,814
707,8	1263,271
708,3	1255,986
708,7	1247,729
709,2	1238,357
709,6	1224,614
710	1219,986
710,5	1213,129
710,9	1210,214
711,3	1202,214
711,8	1195,243
712,2	1182,214
712,7	1171,5
713,1	1163,129
713,5	1152,329
714	1140,214
714,4	1139,7
714,8	1127,614
715,3	1123,557
715,7	1115,214
716,2	1104,329
716,6	1094,014
717	1089,129
717,5	1076,071
717,9	1071,757
718,3	1059,271
718,8	1060,986
719,2	1051,3
719,7	1043,871
720,1	1032,843
720,5	1025,3
721	1016,729
721,4	1009,129
721,8	994,529
722,3	990,929
722,7	986,557
723,2	979,014
723,6	968,957
724	955,414
724,5	946,9
724,9	941,071
725,3	932,157
725,8	926,9
726,2	917,414
726,7	912,757
727,1	913,357
727,5	912,3
728	902,757
728,4	897,129
728,8	885,986
729,3	884,843
729,7	877,157
730,1	866,1
730,6	858,614
731	856,557
731,5	847,729
731,9	846,271
732,3	841,471
732,8	837,157
733,2	837,157
733,6	834,1
734,1	829,586
734,5	826,186
734,9	814,814
735,4	812,471
735,8	805,1
736,3	800,757
736,7	794,729
737,1	795,357
737,6	789,786
738	788,871
738,4	778,129
738,9	774,043
739,3	767,443
739,7	760,7
740,2	747,643
740,6	745,871
741,1	739,043
741,5	736,614
741,9	730,1
742,4	727,986
742,8	725,3
743,2	723,214
743,7	714,471
744,1	716,529
744,5	715,757
745	712,157
745,4	706,729
745,8	702,071
746,3	698,443
746,7	696,7
747,2	688,843
747,6	677,3
748	674,043
748,5	670,014
748,9	662,1
749,3	656,357
749,8	652,757
750,2	647,957
750,6	647,643
751,1	645,271
751,5	635,586
751,9	634,243
752,4	627,129
752,8	620,3
753,3	617,071
753,7	610,443
754,1	604,043
754,6	604,586
755	597,471
755,4	600,1
755,9	595,186
756,3	593,271
756,7	591,643
757,2	589,786
757,6	582,671
758	580,157
758,5	572,586
758,9	565,014
759,3	554,271
759,8	551,786
760,2	545,671
760,6	540,671
761,1	535,214
761,5	532,214
761,9	534,814
762,4	533,3
762,8	525,957
763,3	522,5
763,7	516,329
764,1	516,557
764,6	510,7
765	499,043
765,4	496,129
765,9	494,614
766,3	490,414
766,7	488,814
767,2	483,957
767,6	485,614
768	489,043
768,5	487,757
768,9	485,643
769,3	478,529
769,8	479,357
770,2	474,243
770,6	469,643
771,1	466,929
771,5	465,729
771,9	466,014
772,4	464,814
772,8	461,186
773,2	458,957
773,7	449,729
774,1	444,871
774,5	434,9
775	421,129
775,4	416,214
775,8	414,929
776,3	416,243
776,7	418,329
777,1	411,729
777,6	411,9
778	412,043
778,4	415,1
778,9	409,471
779,3	402,5
779,7	401,386
780,2	404,186
780,6	398,471
781	394,529
781,5	389,471
781,9	387,3
782,3	384,329
782,8	380,129
783,2	372,643
783,6	373,414
784,1	374,329
784,5	369,729
784,9	367,9
785,4	367,329
785,8	357,443
786,2	357,043
786,7	352,7
787,1	349,243
787,5	349,871
788	344,9
788,4	341,443
788,8	344,157
789,3	341,9
789,7	341,043
790,1	338,471
790,6	337,986
791	337,471
791,4	335,586
791,9	332,786
792,3	330,757
792,7	323,986
793,2	320,643
793,6	318,157
794	313,386
794,5	312,3
794,9	311,071
795,3	311,557
795,8	312,671
796,2	309,814
796,6	310,186
797,1	305,414
797,5	300,043
797,9	294,729
798,4	287,271
798,8	286,843
799,2	288,9
799,7	281,614
800,1	285,957
800,5	283,671
801	287,243
801,4	291,7
801,8	286,414
802,2	282,757
802,7	280,757
803,1	276,443
803,5	273,757
804	266,7
804,4	257,129
804,8	256,329
805,3	256,043
805,7	255,243
806,1	249,986
806,6	247,957
807	250,043
807,4	250,157
807,9	245,929
808,3	243,329
808,7	235,986
809,2	235,643
809,6	238,414
810	232,071
810,4	229,214
810,9	229,614
811,3	228,157
811,7	233,871
812,2	234,129
812,6	226,871
813	221,329
813,5	217,814
813,9	216,243
814,3	210,729
814,8	205,529
815,2	206,786
815,6	206,443
816,1	210,386
816,5	215,214
816,9	212,729
817,3	213,071
817,8	210,5
818,2	204,614
818,6	206,129
819,1	206,871
819,5	202,157
819,9	203,729
820,4	203,043
820,8	200,929
821,2	200,929
821,7	194,614
822,1	192,471
822,5	191,671
822,9	188,814
823,4	188,529
823,8	190,557
824,2	188,814
824,7	193,7
825,1	189,129
825,5	188,414
826	185,471
826,4	182,7
826,8	180,529
827,3	177,671
827,7	173,757
828,1	173,757
828,5	171,071
829	170,043
829,4	164,9
829,8	158,1
830,3	157,471
830,7	151,729
831,1	156,386
831,6	159,071
832	161,957
832,4	164,643
832,8	166,529
833,3	162,957
833,7	161,586
834,1	154,071
834,6	147,7
835	146,7
835,4	147,357
835,8	147,929
836,3	147,471
836,7	152,471
837,1	152,957
837,6	150,329
838	146,1
838,4	139,614
838,9	139,329
839,3	147,043
839,7	146,043
840,1	138,614
840,6	144,243
841	148,614
841,4	150,1
841,9	146,814
842,3	139,614
842,7	136,814
843,1	140,243
843,6	137,014
844	129,7
844,4	124,386
844,9	123,386
845,3	122,871
845,7	121,214
846,2	121,9
846,6	116,329
847	118,1
847,4	117,129
847,9	116,986
848,3	116,157
848,7	114,957
849,2	113,329
849,6	114,129
850	113,186
850,4	115,7
850,9	111,757
851,3	111,729
851,7	110,271
852,2	112,7
852,6	110,557
853	106,329
853,4	104,843
853,9	107,129
854,3	100,186
854,7	100,814
855,2	100,729
855,6	103,014
856	101,5
856,4	102,471
856,9	103,386
857,3	105,7
857,7	105,243
858,2	95,386
858,6	92,071
859	93,614
859,4	93,757
859,9	92,586
860,3	89,814
860,7	86,443
861,1	92,643
861,6	97,671
862	95,471
862,4	89,071
862,9	87,157
863,3	85,3
863,7	87,271
864,1	83,557
864,6	81,414
865	82,557
865,4	84,386
865,9	82,557
866,3	86,471
866,7	85,471
867,1	85,214
867,6	86,157
868	88,814
868,4	86,7
868,8	87,643
869,3	85,471
869,7	85,614
870,1	87,814
870,6	79,557
871	147,071
871,4	146,329
871,8	148,214
872,3	145,586
872,7	147,157
873,1	143,1
873,5	145,843
874	69,9
874,4	70,9
874,8	69,386
875,3	71,1
875,7	64,414
876,1	64,214
876,5	64,843
877	67,957
877,4	67,071
877,8	66,186
878,2	63,9
878,7	69,186
879,1	67,271
879,5	65,214
879,9	65,014
880,4	68,471
880,8	67,871
881,2	70,529
881,7	66,529
882,1	68,014
882,5	71,043
882,9	70,843
883,4	69,7
883,8	69,586
884,2	65,043
884,6	66,5
885,1	65,643
885,5	64,386
885,9	65,071
886,3	64,043
886,8	62,471
887,2	64,243
887,6	59,586
888	59,443
888,5	59,329
888,9	57,671
889,3	55,7
889,8	57,243
890,2	56,414
890,6	58,7
891	53,614
891,5	57,071
891,9	55,329
892,3	56,643
892,7	55,386
893,2	60,014
893,6	60,443
894	64,471
894,4	60,786
894,9	58,843
895,3	58,357
895,7	53,1
896,1	52,7
896,6	51,186
897	50,329
897,4	46,671
897,8	46,729
898,3	43,186
898,7	43,843
899,1	42,843
899,5	39,871
900	39,614
900,4	43,957
900,8	44,014
901,2	51,671
901,7	51,243
902,1	54,071
902,5	54,9
902,9	51,757
903,4	46,014
903,8	46,5
904,2	40,957
904,6	44,643
905,1	42,071
905,5	46,786
905,9	50,871
906,3	49,157
906,8	47,586
907,2	44,443
907,6	44,529
908	39,071
908,5	35,986
908,9	36,443
909,3	38,3
909,7	39,271
910,2	47,157
910,6	43,329
911	44,9
911,4	37,986
911,9	34,271
912,3	31,471
912,7	30,9
913,1	22,357
913,6	19,614
914	25,843
914,4	30,214
914,8	33,7
915,3	35,157
915,7	37,3
916,1	39,586
916,5	42,529
916,9	32,643
917,4	33,186
917,8	30,786
918,2	34,043
918,6	34,786
919,1	37,3
919,5	36,214
919,9	40,757
920,3	40,957
920,8	42,243
921,2	40,614
921,6	39,471
922	38,214
922,5	39,9
922,9	38,7
923,3	39,443
923,7	40,243
924,2	40,243
924,6	39,757
925	39,729
925,4	40,3
925,8	36,9
926,3	38,614
926,7	35,557
927,1	35,786
927,5	36,043
928	33,071
928,4	31,614
928,8	32,643
929,2	32,586
929,7	34,214
930,1	32,129
930,5	32,186
930,9	29,414
931,3	30,671
931,8	31,071
932,2	27,814
932,6	25,386
933	23,443
933,5	22,3
933,9	26,129
934,3	28,3
934,7	24,357
935,2	29,729
935,6	29,357
936	29,471
936,4	30,471
936,8	31,329
937,3	28,129
937,7	26,957
938,1	19,729
938,5	21,214
939	21,414
939,4	20,586
939,8	20,843
940,2	16,386
940,6	21,014
941,1	22,1
941,5	18,614
941,9	25,3
942,3	22,757
942,8	23,043
943,2	28,643
943,6	30,729
944	29,729
944,4	33,386
944,9	27,329
945,3	24,871
945,7	22,329
946,1	22,5
946,6	23,386
947	24,271
947,4	22,1
947,8	24,243
948,2	28,3
948,7	25,529
949,1	25,443
949,5	23,671
949,9	24,814
950,3	25,586
950,8	25,643
951,2	25,929
951,6	28,586
952	26,529
952,5	23,586
952,9	20,586
953,3	21,386
953,7	18,871
954,1	17,129
954,6	15,871
955	13,414
955,4	17,129
955,8	20,014
956,2	18,3
956,7	22,529
957,1	17,843
957,5	15,471
957,9	17,271
958,3	11,443
958,8	8,557
959,2	9,186
959,6	6,786
960	14,414
960,5	16,1
960,9	19,443
961,3	20,443
961,7	21,443
962,1	21,271
962,6	18,529
963	12,9
963,4	15,786
963,8	14,129
964,2	17,129
964,7	18,757
965,1	14,329
965,5	17,3
965,9	20,643
966,3	18,729
966,8	14,814
967,2	10,329
967,6	9,043
968	12,471
968,4	8,014
968,9	6,129
969,3	8,043
969,7	10,243
970,1	12,186
970,5	14,329
971	12,557
971,4	12,129
971,8	12,1
972,2	10,929
972,6	10,786
973,1	12,386
973,5	7,3
973,9	10,443
974,3	13,614
974,7	13,043
975,2	11,643
975,6	12,729
976	11,443
976,4	13,7
976,8	15,443
977,3	16,814
977,7	17,7
978,1	18,386
978,5	16,5
978,9	12,614
979,4	12,043
979,8	9,071
980,2	7,729
980,6	6,243
981	4,557
981,5	1,814
981,9	6,843
982,3	11,214
982,7	10,329
983,1	5,157
983,6	7,757
984	6,586
984,4	8,643
984,8	8,414
985,2	5,071
985,6	8,1
986,1	13,1
986,5	11,557
986,9	11,157
987,3	11,243
987,7	13,243
988,2	14,586
988,6	13,843
989	13,243
989,4	14,186
989,8	17,271
990,3	17,043
990,7	18,957
991,1	21,043
991,5	20,129
991,9	20,157
992,3	19,129
992,8	18,757
993,2	20,129
993,6	15,414
994	15,243
994,4	22,129
994,9	22,843
995,3	29,271
995,7	26,9
996,1	28,557
996,5	26,5
996,9	22,014
997,4	12,443
997,8	15,671
998,2	5,243
998,6	12,214
999	11,471
999,5	14,443
999,9	15,186
1000,3	19,357
1000,7	19,871
1001,1	25,043
1001,5	21,014
1002	22,043
1002,4	23,529
1002,8	23,014
1003,2	24,043
1003,6	19,9
1004	21,3
1004,5	24,214
1004,9	25,129
1005,3	21,386
1005,7	19,7
1006,1	22,814
1006,6	18,786
1007	18,214
1007,4	10,214
1007,8	12,1
1008,2	14,786
1008,6	19,3
1009,1	14,814
1009,5	16,957
1009,9	15,1
1010,3	16,357
1010,7	13,986
1011,1	15,843
1011,6	15,3
1012	9,814
1012,4	15,1
1012,8	16,186
1013,2	22,443
1013,6	18,7
1014,1	14,786
1014,5	12,843
1014,9	18,157
1015,3	16,929
1015,7	18,329
1016,1	14,471
1016,6	13,443
1017	16,7
1017,4	18,414
1017,8	16,186
1018,2	13,614
1018,6	13,957
1019,1	15,757
1019,5	20,157
1019,9	19,071
1020,3	19,7
1020,7	19,214
1021,1	20,243
1021,6	18,357
1022	17,757
1022,4	15,986
1022,8	14,386
1023,2	13,129
1023,6	9,586
1024,1	10,729
1024,5	10,586
1024,9	11,329
1025,3	11,757
1025,7	16,529
1026,1	19,557
1026,6	29,7
1027	29,414
1027,4	30,643
1027,8	31,386
1028,2	31,414
1028,6	25,414
1029	20,557
1029,5	15,786
1029,9	13,729
1030,3	11,386
1030,7	13,071
1031,1	16,443
1031,5	18,871
1032	18,471
1032,4	18,614
1032,8	21,214
1033,2	25,129
1033,6	19,071
1034	14,643
1034,4	14,7
1034,9	18,357
1035,3	19,786
1035,7	18,357
1036,1	14,329
1036,5	21,814
1036,9	21,529
1037,4	23,186
1037,8	20,3
1038,2	21,129
1038,6	23,929
1039	23,9
1039,4	19,043
1039,8	20,843
1040,3	20,443
1040,7	21,443
1041,1	17,329
1041,5	18,414
1041,9	19,271
1042,3	21,5
1042,7	19,529
1043,2	17,871
1043,6	23,386
1044	26,843
1044,4	23,071
1044,8	19,957
1045,2	17,529
1045,6	20,243
1046,1	20,957
1046,5	19,129
1046,9	16,786
1047,3	19,043
1047,7	25,329
1048,1	26,814
1048,5	26,643
1049	27,271
1049,4	25,7
1049,8	25,329
1050,2	22,671
1050,6	19,3
1051	11,643
1051,4	9,443
1051,9	8,557
1052,3	2,871
1052,7	5,9
1053,1	4,7
1053,5	4,729
1053,9	17,957
1054,3	16,329
1054,8	18,929
1055,2	19,414
1055,6	19,329
1056	17,9
1056,4	19,071
1056,8	17,014
1057,2	17,986
1057,6	15,814
1058,1	23,386
1058,5	21,271
1058,9	22,7
1059,3	22,7
1059,7	16,671
1060,1	14,529
1060,5	12,929
1061	10,129
1061,4	14,386
1061,8	18,414
1062,2	17,9
1062,6	25,671
1063	30,443
1063,4	35,271
1063,8	34,929
1064,3	31,186
1064,7	32,214
1065,1	33,614
1065,5	28,757
1065,9	29,614
1066,3	25,043
1066,7	24,329
1067,1	23,643
1067,6	22,186
1068	22,014
1068,4	19,7
1068,8	13,586
1069,2	15,014
1069,6	14,071
1070	15,1
1070,4	16,729
1070,9	13,329
1071,3	16,986
1071,7	21,7
1072,1	19,814
1072,5	17,814
1072,9	16,529
1073,3	14,443
1073,7	18,214
1074,2	13,671
1074,6	9,414
1075	12,643
1075,4	14,671
1075,8	14,243
1076,2	13,329
1076,6	12,243
1077	10,529
1077,5	12,786
1077,9	8,186
1078,3	7,357
1078,7	6,157
1079,1	4,529
1079,5	1,329
1079,9	2,757
1080,3	1,271
1080,7	7,986
1081,2	9,986
1081,6	12,671
1082	15,929
1082,4	18,014
1082,8	18,586
1083,2	19,814
1083,6	14,929
1084	13,586
1084,5	12,443
1084,9	4,671
1085,3	5,729
1085,7	6,786
1086,1	9,9
1086,5	10,157
1086,9	11,3
1087,3	10,871
1087,7	17,157
1088,2	15,357
1088,6	15,3
1089	9,414
1089,4	11,529
1089,8	10,671
1090,2	9,529
1090,6	12,443
1091	14,443
1091,4	14,5
1091,9	18,671
1092,3	18,129
1092,7	17,614
1093,1	13,443
1093,5	8,214
1093,9	8,414
1094,3	8,7
1094,7	7,414
1095,1	5,271
1095,5	4,043
1096	11,3
1096,4	12,986
1096,8	11,386
1097,2	11,557
1097,6	14,471
1098	19,471
1098,4	20,386
1098,8	19,186
1099,2	14,9
1099,6	14,186
1100,1	15,329
1100,5	13,929
1100,9	14,586
1101,3	15,214
1101,7	12,271
1102,1	17,186
1102,5	13,3
1102,9	6,357
1103,3	6,757
1103,7	1,786
1104,2	2,071
1104,6	7,243
1105	7,214
1105,4	12,9
1105,8	16,786
1106,2	13,786
1106,6	12,357
1107	11,157
1107,4	8,167
1107,8	4,9
1108,3	0,7
