Data from Subt2_00047.txt Node
Date: Mon Aug 28 13:19:36 MSK 2023
User: vat
Spectrometer: MAYP114033
Trigger mode: 0
Integration Time (sec): 1,000000E0
Scans to average: 5
Electric dark correction enabled: true
Nonlinearity correction enabled: false
Boxcar width: 3
XAxis mode: Wavelengths
Number of Pixels in Spectrum: 2068
>>>>>Begin Spectral Data<<<<<
199,4	-0,6
199,9	0,2
200,4	0,033
200,8	4,4
201,3	6,057
201,8	10,257
202,2	14,314
202,7	17,743
203,2	19,543
203,6	20,2
204,1	20,8
204,6	25,371
205	25,086
205,5	26,257
206	28,286
206,4	27,371
206,9	32,4
207,4	32
207,8	30,086
208,3	29,6
208,8	29,171
209,2	27,886
209,7	30,229
210,2	24,657
210,6	22,457
211,1	19
211,5	22,6
212	19,057
212,5	21,029
212,9	20,6
213,4	26,4
213,9	25,943
214,3	28,543
214,8	27,343
215,3	31,886
215,7	28,486
216,2	29,057
216,7	30,114
217,1	31,971
217,6	33,429
218,1	28,086
218,5	23,914
219	23,543
219,5	24,457
219,9	20,971
220,4	19,171
220,9	19,057
221,3	22,486
221,8	24,457
222,3	27,171
222,7	24,429
223,2	24,343
223,6	27,029
224,1	29,057
224,6	25,657
225	24,914
225,5	24,543
226	28,2
226,4	30,486
226,9	29,486
227,4	27,829
227,8	31,286
228,3	33,314
228,8	31,914
229,2	33,8
229,7	32,971
230,2	32,371
230,6	29,571
231,1	30,514
231,5	33,486
232	37,686
232,5	37,2
232,9	37,029
233,4	38,057
233,9	40,171
234,3	36,886
234,8	35,514
235,3	24,8
235,7	21,971
236,2	20,114
236,7	17,229
237,1	22,514
237,6	27,114
238,1	26,029
238,5	36,629
239	33,343
239,4	34,743
239,9	36,057
240,4	31,057
240,8	28,771
241,3	32,657
241,8	29,886
242,2	33,4
242,7	33,829
243,2	35,943
243,6	38,686
244,1	36,514
244,6	30,257
245	29,743
245,5	31,657
245,9	25,886
246,4	26,4
246,9	20,514
247,3	17,886
247,8	16,2
248,3	18,571
248,7	20,314
249,2	23,886
249,7	21
250,1	22,057
250,6	27,4
251	29,086
251,5	28,314
252	23,371
252,4	26,629
252,9	25,771
253,4	30,029
253,8	28,714
254,3	29,057
254,8	29,114
255,2	33,171
255,7	33,514
256,1	40,286
256,6	43,229
257,1	45,486
257,5	44,486
258	38,571
258,5	32,943
258,9	30,143
259,4	27,143
259,9	20,057
260,3	20,657
260,8	20,143
261,2	26,2
261,7	31,4
262,2	30,914
262,6	28,8
263,1	30,429
263,6	29,6
264	33,343
264,5	28,886
264,9	28,629
265,4	26,314
265,9	26,6
266,3	24,771
266,8	18,829
267,3	20,543
267,7	21,943
268,2	17,114
268,7	22,514
269,1	22,2
269,6	25,886
270	31,657
270,5	26,829
271	27,486
271,4	28,943
271,9	28,257
272,4	30,457
272,8	31,457
273,3	31,914
273,7	31,8
274,2	32,6
274,7	28,914
275,1	28,571
275,6	26,171
276,1	19,629
276,5	16,629
277	19,114
277,4	18,4
277,9	25,857
278,4	22,257
278,8	26,514
279,3	28,543
279,8	26,657
280,2	23,914
280,7	21,057
281,1	20,686
281,6	22,057
282,1	19,943
282,5	22,571
283	23,257
283,4	24,657
283,9	29,229
284,4	26,943
284,8	30,857
285,3	33,057
285,8	31,343
286,2	30,743
286,7	32,971
287,1	33,4
287,6	33,629
288,1	35,543
288,5	31,057
289	33,829
289,5	37,571
289,9	42,429
290,4	42,457
290,8	44,171
291,3	39,057
291,8	43,057
292,2	39,2
292,7	38,2
293,1	32,171
293,6	28,086
294,1	26,629
294,5	27,971
295	26,429
295,5	28,686
295,9	28,914
296,4	31,057
296,8	34,743
297,3	34,629
297,8	31,143
298,2	30,743
298,7	30,486
299,1	32,2
299,6	29,4
300,1	32,486
300,5	29,714
301	33,286
301,5	30,114
301,9	29,057
302,4	23,829
302,8	20,171
303,3	16,743
303,8	19,6
304,2	13,429
304,7	15,971
305,1	20,371
305,6	24,057
306,1	27,2
306,5	28,086
307	27,771
307,4	31,971
307,9	32,629
308,4	29,086
308,8	29,629
309,3	31,8
309,8	30,771
310,2	30,057
310,7	32,057
311,1	32,057
311,6	29,171
312,1	29,4
312,5	28,4
313	24,543
313,4	30,171
313,9	27,486
314,4	28,886
314,8	30
315,3	28,686
315,7	26,886
316,2	29,371
316,7	21,343
317,1	19,2
317,6	15,971
318	18,143
318,5	18,657
319	23,057
319,4	22,771
319,9	24,714
320,3	29,829
320,8	31,514
321,3	32,657
321,7	32,914
322,2	27,457
322,6	30,771
323,1	29,543
323,6	28,486
324	31,629
324,5	28,629
324,9	30,829
325,4	34,4
325,9	33,171
326,3	32,371
326,8	30,514
327,2	28,743
327,7	31,486
328,2	27,143
328,6	25,4
329,1	23,286
329,5	21,171
330	24,8
330,5	24,686
330,9	20,829
331,4	25
331,8	25,029
332,3	25,886
332,8	28,171
333,2	26,971
333,7	21,971
334,1	27,257
334,6	25,086
335,1	30,971
335,5	28,8
336	29,229
336,4	30,429
336,9	33,257
337,4	30,743
337,8	31,286
338,3	25,686
338,7	26,743
339,2	30,714
339,7	32,286
340,1	28,8
340,6	27,371
341	27,143
341,5	26,314
342	25,943
342,4	26,771
342,9	23,914
343,3	25,714
343,8	26,171
344,2	28,714
344,7	33,057
345,2	35,486
345,6	35,029
346,1	35,857
346,5	36,371
347	39,057
347,5	34,543
347,9	30,2
348,4	29,343
348,8	26,429
349,3	31,6
349,8	35,2
350,2	36,829
350,7	39,686
351,1	46,2
351,6	52,029
352	52,257
352,5	53,971
353	56,771
353,4	63,886
353,9	72,2
354,3	80,829
354,8	89,143
355,3	108
355,7	121,2
356,2	144,4
356,6	166,629
357,1	192,6
357,5	221,771
358	253
358,5	292
358,9	335,086
359,4	381,4
359,8	432,143
360,3	492,229
360,8	559,486
361,2	641,629
361,7	726,286
362,1	817,371
362,6	914,629
363	1022,971
363,5	1138,4
364	1258,6
364,4	1381,971
364,9	1504,971
365,3	1628,171
365,8	1751,486
366,3	1865,943
366,7	1966,343
367,2	2056,257
367,6	2128,943
368,1	2189,286
368,5	2225,486
369	2245,543
369,5	2239,457
369,9	2221,429
370,4	2192,171
370,8	2144,086
371,3	2076,429
371,7	2008,086
372,2	1930,829
372,7	1851,457
373,1	1763,171
373,6	1661,286
374	1560,829
374,5	1460,314
374,9	1364,914
375,4	1262,743
375,9	1169,686
376,3	1080,629
376,8	999,029
377,2	923,971
377,7	860,257
378,2	791,029
378,6	729,743
379,1	667,2
379,5	612,714
380	560,314
380,4	511,6
380,9	469,086
381,4	433,4
381,8	402,086
382,3	378,8
382,7	354,743
383,2	333,2
383,6	313,629
384,1	292,114
384,6	274,8
385	260,514
385,5	243,2
385,9	230,057
386,4	214,314
386,8	205,429
387,3	192,886
387,7	175,114
388,2	160,857
388,7	148,886
389,1	132,857
389,6	131,629
390	123,229
390,5	115,857
390,9	116,743
391,4	107,171
391,9	101,743
392,3	105,943
392,8	98,571
393,2	94,914
393,7	87,8
394,1	83,629
394,6	85,6
395,1	86,171
395,5	80,2
396	77,057
396,4	73,943
396,9	75,8
397,3	75,686
397,8	72,114
398,2	68,343
398,7	68,171
399,2	67,571
399,6	66,6
400,1	66,829
400,5	69,971
401	74,229
401,4	73,686
401,9	75,686
402,4	79,171
402,8	78,914
403,3	80,429
403,7	77,714
404,2	79,514
404,6	80,857
405,1	80,543
405,5	77,114
406	75,229
406,5	77,657
406,9	79,514
407,4	80,086
407,8	87,286
408,3	89,457
408,7	95,971
409,2	102,914
409,6	105,657
410,1	108
410,6	117,343
411	124,286
411,5	133,857
411,9	142,714
412,4	153,286
412,8	164,257
413,3	178,029
413,7	188,6
414,2	192,686
414,7	202,086
415,1	214,171
415,6	222,286
416	235
416,5	248,314
416,9	258,743
417,4	279,543
417,8	293,114
418,3	306,829
418,8	328,6
419,2	346,629
419,7	363,629
420,1	380,914
420,6	393,6
421	416,886
421,5	439,943
421,9	461,229
422,4	483,8
422,8	507,943
423,3	534,371
423,8	567,143
424,2	595,114
424,7	620,2
425,1	652,857
425,6	684,686
426	718,571
426,5	752,343
426,9	788,714
427,4	829,086
427,9	876,429
428,3	927,686
428,8	979,629
429,2	1025,914
429,7	1078,057
430,1	1131,943
430,6	1188
431	1248,343
431,5	1302,029
431,9	1366,657
432,4	1438,314
432,8	1514,943
433,3	1598,4
433,8	1682,629
434,2	1760,343
434,7	1851,143
435,1	1944,086
435,6	2044,057
436	2145,657
436,5	2247,629
436,9	2355,029
437,4	2479,343
437,8	2600,629
438,3	2723,857
438,8	2857,714
439,2	2995,229
439,7	3138,171
440,1	3277,143
440,6	3423,629
441	3572,543
441,5	3733,829
441,9	3896,057
442,4	4059,629
442,8	4237,029
443,3	4428,057
443,7	4612,8
444,2	4808,486
444,7	5007,8
445,1	5212,857
445,6	5434,857
446	5650,343
446,5	5877,771
446,9	6107,057
447,4	6349,343
447,8	6591,343
448,3	6842,114
448,7	7081,171
449,2	7337,4
449,6	7595,229
450,1	7872,457
450,6	8141,8
451	8415,8
451,5	8701,314
451,9	9001,514
452,4	9298,914
452,8	9602,286
453,3	9896,8
453,7	10212,743
454,2	10535,771
454,6	10856,629
455,1	11188,4
455,5	11514,743
456	11849,629
456,4	12197
456,9	12537,657
457,3	12890,286
457,8	13240,257
458,3	13586,8
458,7	13950,2
459,2	14319,571
459,6	14685,886
460,1	15046,8
460,5	15417,943
461	15784,771
461,4	16147,257
461,9	16514,429
462,3	16880,771
462,8	17244,6
463,2	17623,286
463,7	17986,543
464,1	18360,371
464,6	18741,429
465	19113,229
465,5	19480,371
466	19868,6
466,4	20228,914
466,9	20594
467,3	20952,743
467,8	21318,2
468,2	21685,2
468,7	22053,429
469,1	22392,229
469,6	22750,086
470	23097,2
470,5	23434,057
470,9	23758,286
471,4	24082,171
471,8	24381,429
472,3	24701,143
472,7	25014,2
473,2	25328,943
473,6	25644,8
474,1	25959,143
474,5	26258,629
475	26561,057
475,4	26842,429
475,9	27124,257
476,4	27380,857
476,8	27636,057
477,3	27874,486
477,7	28103,771
478,2	28331,629
478,6	28572,343
479,1	28768,6
479,5	28991,571
480	29188,543
480,4	29379,886
480,9	29576,029
481,3	29756,457
481,8	29921,514
482,2	30102,914
482,7	30235,286
483,1	30371,914
483,6	30513,657
484	30641,371
484,5	30768,343
484,9	30876,057
485,4	30958,171
485,8	31044,429
486,3	31142,371
486,7	31204,029
487,2	31260,4
487,6	31302,6
488,1	31326,457
488,5	31354,743
489	31376,886
489,4	31371,286
489,9	31384,229
490,4	31366,2
490,8	31348,086
491,3	31327,171
491,7	31309,057
492,2	31269,171
492,6	31229,314
493,1	31153,714
493,5	31091
494	31019,543
494,4	30944,6
494,9	30849,371
495,3	30758,114
495,8	30659,029
496,2	30572,4
496,7	30467,771
497,1	30358,571
497,6	30243,571
498	30129,543
498,5	30007,914
498,9	29891,714
499,4	29763,4
499,8	29635,286
500,3	29489,457
500,7	29338,714
501,2	29190,029
501,6	29041,657
502,1	28876,114
502,5	28707,2
503	28537,4
503,4	28372,857
503,9	28195,429
504,3	28017,714
504,8	27843,029
505,2	27667,571
505,7	27497,029
506,1	27309,514
506,6	27116,057
507	26930,171
507,5	26731,343
507,9	26533,286
508,4	26324,657
508,8	26106,229
509,3	25897,371
509,7	25694,971
510,2	25472,4
510,6	25259,8
511,1	25050,914
511,5	24835,543
512	24629
512,4	24406,943
512,9	24186,229
513,3	23967,4
513,8	23746,429
514,2	23524,429
514,7	23303,429
515,1	23083,829
515,6	22865,371
516	22637,943
516,5	22432,543
516,9	22206,657
517,4	21970,6
517,8	21742,029
518,3	21506,657
518,7	21282,457
519,2	21062,286
519,6	20827,486
520,1	20603,257
520,5	20393,057
521	20168,286
521,4	19934,371
521,9	19714,857
522,3	19490,257
522,8	19276,143
523,2	19071,143
523,7	18861,8
524,1	18660,171
524,6	18464,429
525	18260,457
525,5	18059,8
525,9	17866,286
526,4	17656,143
526,8	17453,029
527,3	17255,657
527,7	17061,914
528,2	16871,771
528,6	16689,8
529,1	16498,429
529,5	16313,886
530	16118
530,4	15933
530,9	15745,771
531,3	15566,143
531,8	15376,143
532,2	15197,914
532,6	15034,914
533,1	14856,8
533,5	14675,686
534	14520,143
534,4	14347,229
534,9	14189,371
535,3	14025,714
535,8	13860,8
536,2	13707,571
536,7	13566,086
537,1	13401,543
537,6	13253,371
538	13104,629
538,5	12958,171
538,9	12800,686
539,4	12655,257
539,8	12502,486
540,3	12358,429
540,7	12216,229
541,2	12067,486
541,6	11931,8
542,1	11795,914
542,5	11667,086
543	11540,086
543,4	11413,743
543,9	11280,229
544,3	11148,343
544,8	11012,543
545,2	10891,229
545,7	10771,714
546,1	10643,4
546,5	10524,086
547	10417,886
547,4	10303,686
547,9	10195,629
548,3	10091,057
548,8	9977,286
549,2	9867,514
549,7	9762,771
550,1	9647,2
550,6	9547,4
551	9441,143
551,5	9341,429
551,9	9242,743
552,4	9150,886
552,8	9062,457
553,3	8968,886
553,7	8882,486
554,2	8792,771
554,6	8699,543
555,1	8613,486
555,5	8521,657
555,9	8430,286
556,4	8350,914
556,8	8264
557,3	8180,114
557,7	8102,8
558,2	8016,114
558,6	7942,229
559,1	7866,943
559,5	7789,486
560	7714,829
560,4	7637,143
560,9	7558,143
561,3	7486,629
561,8	7411,343
562,2	7336,114
562,7	7259,657
563,1	7185,429
563,6	7119,743
564	7049,229
564,4	6991,229
564,9	6924,571
565,3	6847,857
565,8	6783,486
566,2	6718,343
566,7	6656,571
567,1	6599,686
567,6	6525,2
568	6464,629
568,5	6413,886
568,9	6353,171
569,4	6297,514
569,8	6233,829
570,3	6172,743
570,7	6119,629
571,1	6065,086
571,6	5998,743
572	5954,714
572,5	5899,314
572,9	5851,771
573,4	5799,686
573,8	5748,971
574,3	5691,714
574,7	5648,657
575,2	5598,6
575,6	5545,886
576,1	5498,686
576,5	5452,143
576,9	5404,886
577,4	5364,029
577,8	5312,029
578,3	5261,829
578,7	5220,686
579,2	5174,914
579,6	5125,971
580,1	5078
580,5	5033,743
581	4993,371
581,4	4942,8
581,9	4899,543
582,3	4859
582,7	4814,086
583,2	4772,657
583,6	4733,086
584,1	4702,914
584,5	4663,886
585	4627,429
585,4	4587,914
585,9	4550,629
586,3	4512,257
586,8	4474,314
587,2	4429,114
587,6	4390,171
588,1	4352,086
588,5	4306,486
589	4268,886
589,4	4233,114
589,9	4196,886
590,3	4163
590,8	4138,771
591,2	4101,971
591,7	4077,371
592,1	4048,771
592,5	4018,257
593	3986,457
593,4	3952,314
593,9	3920,2
594,3	3898,914
594,8	3867,2
595,2	3841,886
595,7	3809,4
596,1	3784,114
596,6	3755,143
597	3733,171
597,4	3704,143
597,9	3681,429
598,3	3660,457
598,8	3645,571
599,2	3616,686
599,7	3600,2
600,1	3575,657
600,6	3547,143
601	3521,714
601,4	3488,771
601,9	3461,429
602,3	3447,771
602,8	3424,143
603,2	3393,686
603,7	3368,343
604,1	3344,314
604,6	3327,286
605	3305,629
605,4	3275,971
605,9	3247,171
606,3	3226,229
606,8	3210,2
607,2	3190,057
607,7	3166,086
608,1	3139,629
608,6	3117,371
609	3099,743
609,4	3077
609,9	3052,343
610,3	3029,057
610,8	3007,057
611,2	2987,686
611,7	2964,886
612,1	2945,629
612,6	2924
613	2901,114
613,4	2874,429
613,9	2855,6
614,3	2836,2
614,8	2811,771
615,2	2792,314
615,7	2771,857
616,1	2756,457
616,6	2744,4
617	2721,257
617,4	2703,2
617,9	2693,029
618,3	2672,943
618,8	2653,114
619,2	2632,371
619,7	2609,114
620,1	2594,657
620,5	2573,4
621	2552,343
621,4	2534,571
621,9	2515,057
622,3	2501,457
622,8	2492,771
623,2	2476,8
623,6	2463,429
624,1	2451,857
624,5	2437,6
625	2423,829
625,4	2402,543
625,9	2382,886
626,3	2365,143
626,8	2344,657
627,2	2322,314
627,6	2304,086
628,1	2290,914
628,5	2275,886
629	2258,4
629,4	2242,657
629,9	2225,771
630,3	2210,429
630,7	2192,114
631,2	2174,914
631,6	2155,714
632,1	2138,686
632,5	2123,714
633	2115,086
633,4	2101,971
633,8	2087,229
634,3	2070,543
634,7	2058,886
635,2	2047,914
635,6	2031,343
636,1	2008,371
636,5	1992,657
636,9	1979,6
637,4	1968,114
637,8	1953,371
638,3	1939,143
638,7	1925,086
639,2	1916,2
639,6	1897,686
640	1885
640,5	1873,771
640,9	1864,543
641,4	1852,857
641,8	1836,229
642,2	1825,171
642,7	1821,229
643,1	1806,286
643,6	1792,743
644	1785,114
644,5	1772,2
644,9	1766,4
645,3	1754,257
645,8	1740,714
646,2	1732,314
646,7	1714,057
647,1	1693,571
647,6	1679,229
648	1669,686
648,4	1663,371
648,9	1650,457
649,3	1636,971
649,8	1634,771
650,2	1630,543
650,6	1625,086
651,1	1609,857
651,5	1592,343
652	1582,514
652,4	1574,829
652,9	1564,686
653,3	1546,429
653,7	1528,2
654,2	1519,086
654,6	1513,229
655,1	1501,829
655,5	1493,143
655,9	1481,6
656,4	1476,8
656,8	1473,629
657,3	1466,286
657,7	1450,029
658,2	1440,886
658,6	1428,257
659	1420,057
659,5	1408,914
659,9	1399
660,4	1385,629
660,8	1380,6
661,2	1373,857
661,7	1366,314
662,1	1356,371
662,6	1352,943
663	1339,886
663,4	1331,457
663,9	1322,886
664,3	1307,314
664,8	1300,114
665,2	1290,571
665,6	1275,829
666,1	1266,229
666,5	1259,086
667	1252
667,4	1249,943
667,9	1242,486
668,3	1233,686
668,7	1224,114
669,2	1211,171
669,6	1200,657
670,1	1189,8
670,5	1177,943
670,9	1163,571
671,4	1151,314
671,8	1146,886
672,3	1143,971
672,7	1139,714
673,1	1134,171
673,6	1129,943
674	1122,029
674,5	1120
674,9	1109,086
675,3	1102,371
675,8	1095,486
676,2	1082,286
676,7	1075,829
677,1	1069,886
677,5	1063,029
678	1058,8
678,4	1054,629
678,9	1041,857
679,3	1041,257
679,7	1029,514
680,2	1022,886
680,6	1010,2
681,1	1003,2
681,5	993,4
681,9	989,429
682,4	981,486
682,8	972,886
683,3	970,829
683,7	968,429
684,1	961,571
684,6	954,886
685	946,4
685,5	933,086
685,9	928,029
686,3	920,371
686,8	914,086
687,2	911,571
687,7	906,457
688,1	901,4
688,5	897,829
689	899,514
689,4	889,286
689,9	882,914
690,3	874,686
690,7	875,714
691,2	876,371
691,6	873,286
692	861,914
692,5	855,743
692,9	850,343
693,4	842,6
693,8	830,257
694,2	818,314
694,7	809,057
695,1	804,857
695,6	804,971
696	795,486
696,4	787
696,9	782,029
697,3	777
697,8	774,343
698,2	764,886
698,6	752,114
699,1	748,571
699,5	746,4
699,9	739,2
700,4	735,314
700,8	728,229
701,3	726,971
701,7	721,686
702,1	716,2
702,6	709,629
703	705,286
703,5	700,914
703,9	698,886
704,3	690,4
704,8	692,429
705,2	689,2
705,6	684,543
706,1	680,8
706,5	675,286
707	673,857
707,4	673,829
707,8	667,114
708,3	663,171
708,7	663,714
709,2	662,714
709,6	659,943
710	652,886
710,5	645,229
710,9	641,829
711,3	640,914
711,8	631,743
712,2	626,171
712,7	619,429
713,1	615,171
713,5	616,657
714	611,086
714,4	599,771
714,8	599,943
715,3	598,457
715,7	593,143
716,2	592,714
716,6	582,829
717	581,2
717,5	579,714
717,9	575,4
718,3	565,6
718,8	563,2
719,2	559,514
719,7	558,086
720,1	550,6
720,5	550,857
721	544,686
721,4	540,686
721,8	536,457
722,3	529,629
722,7	524,229
723,2	521,229
723,6	513,829
724	512,943
724,5	512,2
724,9	509
725,3	504,829
725,8	502,143
726,2	498,543
726,7	492,714
727,1	482,371
727,5	475,4
728	466
728,4	464,343
728,8	459,771
729,3	455,086
729,7	455,286
730,1	453,543
730,6	456,829
731	458,286
731,5	454
731,9	449,543
732,3	451,629
732,8	448,8
733,2	451,571
733,6	451,829
734,1	446,714
734,5	450,4
734,9	443,457
735,4	435,086
735,8	431,8
736,3	421
736,7	413,229
737,1	415,4
737,6	405,229
738	412,114
738,4	413,686
738,9	412,2
739,3	421,314
739,7	418,914
740,2	411,971
740,6	413,943
741,1	407,343
741,5	404,6
741,9	398
742,4	394,8
742,8	393,143
743,2	391,6
743,7	387,171
744,1	388,629
744,5	390,114
745	390,486
745,4	383,771
745,8	380,086
746,3	378,8
746,7	374,514
747,2	367,714
747,6	362,4
748	363,486
748,5	363,371
748,9	357,886
749,3	359,286
749,8	358,8
750,2	356,829
750,6	348,971
751,1	344,4
751,5	339,4
751,9	338,886
752,4	340,686
752,8	337,886
753,3	337,371
753,7	342,029
754,1	344,171
754,6	342,4
755	342,629
755,4	341,143
755,9	340,2
756,3	341,286
756,7	339,686
757,2	332,314
757,6	329,343
758	324,343
758,5	316,171
758,9	313,543
759,3	308,886
759,8	300,171
760,2	298,286
760,6	300
761,1	300,743
761,5	298,371
761,9	291,114
762,4	291,686
762,8	293,514
763,3	294,829
763,7	291,686
764,1	286,4
764,6	284,829
765	287,114
765,4	282,886
765,9	284,686
766,3	282,771
766,7	281,857
767,2	282,571
767,6	285,343
768	281,429
768,5	279,086
768,9	271,857
769,3	268,286
769,8	261,486
770,2	255,857
770,6	254,686
771,1	254,057
771,5	254,143
771,9	257,429
772,4	250,829
772,8	253,029
773,2	255,8
773,7	250,086
774,1	252,714
774,5	249,143
775	250
775,4	256,4
775,8	255,8
776,3	256,971
776,7	256,543
777,1	253,657
777,6	253,429
778	247,4
778,4	245,029
778,9	242,143
779,3	238,686
779,7	236,971
780,2	238,029
780,6	236,371
781	232,314
781,5	227,914
781,9	228,343
782,3	230,429
782,8	234,543
783,2	229,743
783,6	226,371
784,1	227,543
784,5	223,971
784,9	220,743
785,4	215,143
785,8	211,543
786,2	208,486
786,7	211,086
787,1	214,914
787,5	215,143
788	215,457
788,4	216,829
788,8	206,6
789,3	207,4
789,7	205,486
790,1	203,829
790,6	205,6
791	201,771
791,4	201,229
791,9	204,371
792,3	202,886
792,7	203,829
793,2	198,829
793,6	195,914
794	197,4
794,5	193,886
794,9	195,314
795,3	197,486
795,8	197,8
796,2	194,771
796,6	197,057
797,1	198,143
797,5	196,886
797,9	195,686
798,4	193,571
798,8	188,086
799,2	187,743
799,7	183,457
800,1	180,257
800,5	181,057
801	181,571
801,4	177,829
801,8	178,343
802,2	176,629
802,7	175,286
803,1	174,971
803,5	172,657
804	169,543
804,4	170,8
804,8	168
805,3	165,514
805,7	165,286
806,1	158,057
806,6	158,657
807	154,686
807,4	152,343
807,9	151,314
808,3	151,457
808,7	152,914
809,2	160,743
809,6	158,914
810	162,857
810,4	161,171
810,9	160,257
811,3	163,114
811,7	158,229
812,2	151,143
812,6	149,2
813	146,486
813,5	148,8
813,9	149,314
814,3	142,629
814,8	145,086
815,2	145,086
815,6	142,429
816,1	143
816,5	142,571
816,9	144,457
817,3	147,057
817,8	147,429
818,2	146,257
818,6	143,171
819,1	139,457
819,5	133,229
819,9	134,314
820,4	136,2
820,8	133,2
821,2	133,971
821,7	134,2
822,1	133,171
822,5	137,314
822,9	129,171
823,4	125,771
823,8	125,8
824,2	124,086
824,7	125,057
825,1	124,686
825,5	119,057
826	112,286
826,4	111,914
826,8	107,286
827,3	106,571
827,7	104,486
828,1	108,771
828,5	112,371
829	121,4
829,4	119,4
829,8	125,829
830,3	125,343
830,7	122,343
831,1	118,343
831,6	115,914
832	116,514
832,4	117,286
832,8	110,314
833,3	108,314
833,7	107,514
834,1	105,714
834,6	103,343
835	105,829
835,4	101,143
835,8	102,171
836,3	101,429
836,7	103
837,1	102,143
837,6	101,086
838	93,486
838,4	93,086
838,9	94,4
839,3	96,657
839,7	98,143
840,1	98,914
840,6	101,686
841	95,8
841,4	98,4
841,9	94,886
842,3	92,829
842,7	89,457
843,1	89,829
843,6	84,886
844	89,171
844,4	91,8
844,9	88,743
845,3	87,543
845,7	87,029
846,2	83,971
846,6	85,771
847	85,6
847,4	82,771
847,9	85,629
848,3	82,914
848,7	85,457
849,2	85,314
849,6	84,029
850	81,943
850,4	80,429
850,9	78,657
851,3	84,086
851,7	83,371
852,2	80,6
852,6	84,114
853	87,286
853,4	89,057
853,9	90,657
854,3	91,171
854,7	92,857
855,2	93,486
855,6	90,857
856	92,143
856,4	88,257
856,9	87,2
857,3	82,657
857,7	80,571
858,2	83,571
858,6	81,943
859	80,229
859,4	79,8
859,9	77,371
860,3	76,829
860,7	76
861,1	77,057
861,6	79,086
862	75,857
862,4	72,2
862,9	74,6
863,3	71,543
863,7	71
864,1	67,057
864,6	63,543
865	66,171
865,4	70,971
865,9	67,571
866,3	72,029
866,7	68,457
867,1	67,914
867,6	68,486
868	65,143
868,4	60,857
868,8	59,114
869,3	58,029
869,7	64,571
870,1	66,4
870,6	64,143
871	99,143
871,4	100,486
871,8	104,171
872,3	98,857
872,7	91,143
873,1	86,571
873,5	87,086
874	55,114
874,4	54,286
874,8	50,314
875,3	51,886
875,7	55,229
876,1	61,914
876,5	61,429
877	58,829
877,4	60,714
877,8	61,829
878,2	65,314
878,7	65,343
879,1	59,686
879,5	58,657
879,9	54,571
880,4	51,057
880,8	55,257
881,2	50,171
881,7	49,571
882,1	48,543
882,5	48,257
882,9	49,857
883,4	51,886
883,8	45,829
884,2	45,429
884,6	41,2
885,1	38,286
885,5	36,714
885,9	38,143
886,3	38,029
886,8	41,343
887,2	42,057
887,6	43,829
888	48,029
888,5	50,514
888,9	46,714
889,3	44,2
889,8	46,286
890,2	43,514
890,6	43,971
891	42,571
891,5	44,771
891,9	44,8
892,3	45,571
892,7	44,2
893,2	48,314
893,6	46,171
894	49,286
894,4	43,914
894,9	46,2
895,3	48,257
895,7	45,171
896,1	41,257
896,6	44,143
897	43,057
897,4	45,229
897,8	45,743
898,3	46,114
898,7	44,857
899,1	47,371
899,5	46,629
900	42,886
900,4	39,171
900,8	34,886
901,2	34,086
901,7	37,486
902,1	36,4
902,5	35,114
902,9	35,314
903,4	42,457
903,8	43,543
904,2	43,457
904,6	42,743
905,1	46,229
905,5	46,486
905,9	45,257
906,3	41,657
906,8	41,857
907,2	40,029
907,6	38,4
908	36,114
908,5	34,886
908,9	35,829
909,3	39,886
909,7	38,629
910,2	36,943
910,6	35,657
911	34,171
911,4	31,743
911,9	32,371
912,3	29,029
912,7	30,743
913,1	31,686
913,6	31,114
914	34,029
914,4	35,829
914,8	34,971
915,3	33,229
915,7	36,371
916,1	35,771
916,5	38,514
916,9	37,943
917,4	41
917,8	37,029
918,2	42,171
918,6	38,057
919,1	38,171
919,5	38,229
919,9	38,171
920,3	35,171
920,8	38,229
921,2	33,743
921,6	32,629
922	31,543
922,5	32,571
922,9	31,514
923,3	35
923,7	36,571
924,2	38,686
924,6	39,829
925	45,086
925,4	43,229
925,8	41,171
926,3	35,8
926,7	35,771
927,1	31,4
927,5	33,343
928	30,229
928,4	28,629
928,8	32,343
929,2	36,371
929,7	40,543
930,1	43,457
930,5	40,771
930,9	41,6
931,3	43,429
931,8	44,743
932,2	41,343
932,6	35,857
933	29,514
933,5	31,4
933,9	31,2
934,3	28,257
934,7	26,057
935,2	25,943
935,6	27,029
936	28,086
936,4	29,229
936,8	29,943
937,3	31,029
937,7	28,714
938,1	29,857
938,5	26,143
939	30,657
939,4	27,829
939,8	25,429
940,2	26,114
940,6	24,8
941,1	26,829
941,5	32
941,9	30,029
942,3	35,314
942,8	35,629
943,2	29,286
943,6	32,686
944	28,143
944,4	25,4
944,9	25,686
945,3	23,943
945,7	25,429
946,1	29,571
946,6	25,8
947	28,486
947,4	26,086
947,8	28,6
948,2	30,914
948,7	26,943
949,1	28,114
949,5	26,4
949,9	27,4
950,3	26,486
950,8	24,286
951,2	19,314
951,6	20,514
952	18,771
952,5	19,343
952,9	18,2
953,3	19,114
953,7	16,057
954,1	14,057
954,6	13,029
955	16,857
955,4	15,571
955,8	16,229
956,2	16,657
956,7	20,314
957,1	25,143
957,5	29,714
957,9	29,857
958,3	37,371
958,8	39,114
959,2	41,429
959,6	46,886
960	43,543
960,5	41,371
960,9	42,629
961,3	39,314
961,7	40,771
962,1	40,2
962,6	32,971
963	35,886
963,4	38,314
963,8	34,914
964,2	32,543
964,7	30,371
965,1	30,029
965,5	35,086
965,9	32,857
966,3	31,086
966,8	29,714
967,2	32,514
967,6	27,371
968	29,514
968,4	29,171
968,9	29,829
969,3	28,343
969,7	26,4
970,1	23,943
970,5	27,6
971	29,229
971,4	26,543
971,8	25,314
972,2	24,057
972,6	29,657
973,1	29,229
973,5	29,771
973,9	22,6
974,3	21,114
974,7	20,486
975,2	23,514
975,6	18,629
976	18,914
976,4	16,086
976,8	18,771
977,3	17,429
977,7	16,514
978,1	15,829
978,5	18,114
978,9	17,286
979,4	22,371
979,8	19,371
980,2	21,314
980,6	27,029
981	21,029
981,5	19,914
981,9	25,457
982,3	22,4
982,7	24,4
983,1	25,829
983,6	22,629
984	27,6
984,4	25,6
984,8	25,457
985,2	29,114
985,6	28,8
986,1	22,343
986,5	22,743
986,9	21,543
987,3	26,229
987,7	22,514
988,2	17,371
988,6	17,514
989	26,429
989,4	21,457
989,8	22,429
990,3	20,114
990,7	20,657
991,1	21,314
991,5	23
991,9	12,229
992,3	15,771
992,8	17,371
993,2	17,571
993,6	16,4
994	16,857
994,4	18,829
994,9	24,857
995,3	27
995,7	25,857
996,1	24,286
996,5	24,857
996,9	32,257
997,4	26,371
997,8	27,8
998,2	25,457
998,6	27,914
999	27,8
999,5	32,514
999,9	24,657
1000,3	30,143
1000,7	34,371
1001,1	36
1001,5	32,629
1002	32,286
1002,4	27,571
1002,8	32,057
1003,2	28,029
1003,6	25,086
1004	26,286
1004,5	27,029
1004,9	29,457
1005,3	29,771
1005,7	32,686
1006,1	30,971
1006,6	28,943
1007	23,514
1007,4	21,429
1007,8	20,229
1008,2	24,314
1008,6	19,257
1009,1	19,943
1009,5	22,114
1009,9	27
1010,3	30,914
1010,7	35,029
1011,1	28,229
1011,6	25,886
1012	32,229
1012,4	27,629
1012,8	25,857
1013,2	20,886
1013,6	16,829
1014,1	18,371
1014,5	20,4
1014,9	15,514
1015,3	18,886
1015,7	20,114
1016,1	22,543
1016,6	24,714
1017	26,314
1017,4	25,2
1017,8	28,229
1018,2	24,543
1018,6	24,086
1019,1	28,4
1019,5	27,2
1019,9	26,629
1020,3	24,686
1020,7	25,343
1021,1	22,486
1021,6	21
1022	15,714
1022,4	15,6
1022,8	12,286
1023,2	11,343
1023,6	11,086
1024,1	21,943
1024,5	22,657
1024,9	26,171
1025,3	30,457
1025,7	32,914
1026,1	34
1026,6	32,771
1027	25,743
1027,4	29,771
1027,8	26,2
1028,2	23,8
1028,6	23,943
1029	22,686
1029,5	19,457
1029,9	26,229
1030,3	23,514
1030,7	29,4
1031,1	31,057
1031,5	33,571
1032	37,457
1032,4	45,457
1032,8	39,686
1033,2	39,086
1033,6	31,2
1034	26,686
1034,4	23,6
1034,9	24,371
1035,3	20,486
1035,7	18,6
1036,1	21,029
1036,5	21,229
1036,9	25,429
1037,4	28,743
1037,8	25,6
1038,2	26,257
1038,6	27,4
1039	29,486
1039,4	38,143
1039,8	41,257
1040,3	39,486
1040,7	41,6
1041,1	34,429
1041,5	39,257
1041,9	40,486
1042,3	34,6
1042,7	28,657
1043,2	28,429
1043,6	28,8
1044	37
1044,4	39,057
1044,8	35,943
1045,2	38,429
1045,6	42,971
1046,1	44,257
1046,5	40,257
1046,9	40,571
1047,3	37,857
1047,7	33,2
1048,1	24,2
1048,5	18,086
1049	18,343
1049,4	20,086
1049,8	18,057
1050,2	16,571
1050,6	19,314
1051	31,2
1051,4	32,4
1051,9	33,771
1052,3	33,543
1052,7	33,743
1053,1	31,343
1053,5	25,2
1053,9	22,257
1054,3	20,486
1054,8	13,086
1055,2	14,371
1055,6	10,971
1056	10,943
1056,4	15,6
1056,8	17,286
1057,2	21,086
1057,6	29,257
1058,1	33,486
1058,5	31,057
1058,9	28,286
1059,3	25,514
1059,7	23,714
1060,1	18,686
1060,5	18,314
1061	12,6
1061,4	16,686
1061,8	21,543
1062,2	20,629
1062,6	16,343
1063	22,771
1063,4	21,086
1063,8	22,343
1064,3	26,857
1064,7	30,943
1065,1	34,514
1065,5	36,971
1065,9	38,829
1066,3	35
1066,7	39,971
1067,1	31,943
1067,6	30,486
1068	30,4
1068,4	31,143
1068,8	26,714
1069,2	30,314
1069,6	24,086
1070	31,029
1070,4	25,229
1070,9	25,057
1071,3	27,571
1071,7	24,886
1072,1	22,857
1072,5	28,029
1072,9	25,171
1073,3	25,6
1073,7	20,686
1074,2	19,371
1074,6	21,429
1075	26,429
1075,4	25,457
1075,8	22,171
1076,2	23,343
1076,6	30,143
1077	30,629
1077,5	31,314
1077,9	23,686
1078,3	19,086
1078,7	22,8
1079,1	27,429
1079,5	26,571
1079,9	28,029
1080,3	29,714
1080,7	34,571
1081,2	37,229
1081,6	38
1082	38,771
1082,4	42,257
1082,8	38,771
1083,2	34,029
1083,6	31,057
1084	33,086
1084,5	34,2
1084,9	28,971
1085,3	26,371
1085,7	26,286
1086,1	28,4
1086,5	31,486
1086,9	29,029
1087,3	26,543
1087,7	30,971
1088,2	31,229
1088,6	33,314
1089	35,257
1089,4	36,743
1089,8	33,657
1090,2	32,657
1090,6	27,371
1091	25,943
1091,4	22,486
1091,9	20,286
1092,3	19,514
1092,7	24,571
1093,1	24,314
1093,5	24,829
1093,9	24,257
1094,3	24,314
1094,7	24,914
1095,1	25,371
1095,5	21,714
1096	24,314
1096,4	27,6
1096,8	30,086
1097,2	31,514
1097,6	33,657
1098	28,971
1098,4	30,629
1098,8	33,2
1099,2	32,429
1099,6	31,6
1100,1	34,486
1100,5	29,743
1100,9	31,171
1101,3	30,457
1101,7	25,057
1102,1	22,171
1102,5	18,4
1102,9	13,086
1103,3	15,543
1103,7	15,143
1104,2	16,514
1104,6	17,457
1105	17,229
1105,4	21,114
1105,8	19,857
1106,2	16,629
1106,6	14,286
1107	9,886
1107,4	8,067
1107,8	7,32
1108,3	0,6
