Data from Subt2_00072.txt Node
Date: Mon Aug 28 13:28:46 MSK 2023
User: vat
Spectrometer: MAYP114033
Trigger mode: 0
Integration Time (sec): 1,000000E0
Scans to average: 5
Electric dark correction enabled: true
Nonlinearity correction enabled: false
Boxcar width: 3
XAxis mode: Wavelengths
Number of Pixels in Spectrum: 2068
>>>>>Begin Spectral Data<<<<<
199,4	-1,683
199,9	-7,933
200,4	-4,767
200,8	0,838
201,3	1,838
201,8	4,667
202,2	6,724
202,7	8,152
203,2	15,181
203,6	14,295
204,1	10,981
204,6	10,581
205	8,238
205,5	4,524
206	3,981
206,4	2,724
206,9	3,724
207,4	3,581
207,8	2,124
208,3	2,381
208,8	0,638
209,2	1,924
209,7	2,952
210,2	5,638
210,6	6,41
211,1	9,267
211,5	7,952
212	13,038
212,5	9,781
212,9	6,495
213,4	4,152
213,9	1,524
214,3	0,352
214,8	1,467
215,3	-1,619
215,7	-0,762
216,2	-0,419
216,7	-0,162
217,1	-2,39
217,6	1,81
218,1	3,095
218,5	3,61
219	3,381
219,5	6,981
219,9	3,952
220,4	12,152
220,9	6,638
221,3	3,952
221,8	3,781
222,3	8,495
222,7	10,638
223,2	7,181
223,6	2,267
224,1	5,81
224,6	10,438
225	12,867
225,5	4,752
226	1,724
226,4	9,324
226,9	9,038
227,4	11,895
227,8	11,41
228,3	9,495
228,8	17,438
229,2	15,267
229,7	9,81
230,2	11,038
230,6	10,095
231,1	9,038
231,5	11,324
232	10,552
232,5	10,438
232,9	15,295
233,4	17,095
233,9	17,581
234,3	16,895
234,8	14,067
235,3	13,467
235,7	17,952
236,2	16,752
236,7	11,838
237,1	10,467
237,6	11,295
238,1	15,21
238,5	14,867
239	13,724
239,4	13,41
239,9	15,895
240,4	11,495
240,8	13,524
241,3	10,495
241,8	7,21
242,2	6,352
242,7	6,61
243,2	6,095
243,6	8,495
244,1	6,838
244,6	3,067
245	5,952
245,5	3,067
245,9	1,81
246,4	3,381
246,9	3,495
247,3	2,352
247,8	4,581
248,3	6,895
248,7	9,467
249,2	11,21
249,7	10,638
250,1	7,838
250,6	7,467
251	7,095
251,5	3,781
252	0,067
252,4	1,067
252,9	4,152
253,4	4,81
253,8	5,124
254,3	6,324
254,8	7,552
255,2	9,838
255,7	5,781
256,1	0,467
256,6	4,181
257,1	4,981
257,5	4,181
258	2,867
258,5	5,667
258,9	5,21
259,4	9,524
259,9	6,867
260,3	6,152
260,8	7,352
261,2	10,924
261,7	9,01
262,2	9,61
262,6	11,952
263,1	10,124
263,6	4,981
264	5,667
264,5	4,324
264,9	1,267
265,4	-0,076
265,9	-5,705
266,3	-5,876
266,8	1,895
267,3	7,352
267,7	3,667
268,2	7,41
268,7	10,067
269,1	9,638
269,6	13,238
270	3,152
270,5	4,124
271	2,61
271,4	-3,305
271,9	-2,305
272,4	-3,019
272,8	-2,876
273,3	5,61
273,7	-0,19
274,2	5,81
274,7	14,581
275,1	14,352
275,6	18,895
276,1	15,381
276,5	14,152
277	15,01
277,4	11,21
277,9	1,41
278,4	-1,676
278,8	-5,762
279,3	-0,419
279,8	1,152
280,2	1,495
280,7	3,981
281,1	6,295
281,6	8,867
282,1	10,667
282,5	8,124
283	3,152
283,4	3,581
283,9	2,41
284,4	5,324
284,8	6,981
285,3	5,695
285,8	6,924
286,2	10,352
286,7	8,038
287,1	8,095
287,6	9,438
288,1	8,867
288,5	9,324
289	9,124
289,5	5,667
289,9	4,952
290,4	6,81
290,8	8,267
291,3	7,41
291,8	7,752
292,2	9,238
292,7	11,495
293,1	14,21
293,6	9,924
294,1	5,067
294,5	6,41
295	10,495
295,5	6,381
295,9	9,01
296,4	6,81
296,8	8,095
297,3	11,381
297,8	15,895
298,2	10,352
298,7	12,01
299,1	9,01
299,6	11,638
300,1	13,952
300,5	10,124
301	9,267
301,5	11,124
301,9	7,524
302,4	9,552
302,8	7,724
303,3	11,752
303,8	15,267
304,2	8,124
304,7	4,438
305,1	5,924
305,6	-0,305
306,1	-2,933
306,5	-11,79
307	-14,39
307,4	-14,733
307,9	-12,619
308,4	-13,962
308,8	-5,162
309,3	-1,048
309,8	4,895
310,2	8,152
310,7	10,495
311,1	11,324
311,6	11,752
312,1	4,238
312,5	2,552
313	1,924
313,4	3,124
313,9	0,295
314,4	-2,162
314,8	-0,305
315,3	7,495
315,7	9,152
316,2	3,095
316,7	3,581
317,1	5,067
317,6	9,638
318	14,238
318,5	7,81
319	5,838
319,4	14,552
319,9	9,467
320,3	12,152
320,8	5,61
321,3	0,924
321,7	6,467
322,2	7,01
322,6	5,41
323,1	5,838
323,6	4,21
324	7,924
324,5	11,095
324,9	13,152
325,4	12,524
325,9	9,81
326,3	12,581
326,8	9,667
327,2	8,724
327,7	4,295
328,2	0,267
328,6	5,095
329,1	0,41
329,5	-4,39
330	-2,276
330,5	5,581
330,9	5,295
331,4	4,981
331,8	-0,619
332,3	4,095
332,8	6,924
333,2	8,381
333,7	-1,533
334,1	-3,105
334,6	-6,019
335,1	-5,133
335,5	-5,19
336	-3,076
336,4	-0,848
336,9	6,495
337,4	9,724
337,8	14,01
338,3	19,924
338,7	18,352
339,2	14,41
339,7	11,238
340,1	3,238
340,6	1,095
341	-2,248
341,5	-7,762
342	-6,019
342,4	-8,133
342,9	-5,648
343,3	-2,219
343,8	3,781
344,2	5,295
344,7	5,181
345,2	4,438
345,6	9,324
346,1	7,895
346,5	9,295
347	3,552
347,5	8,495
347,9	7,267
348,4	9,981
348,8	12,095
349,3	12,638
349,8	12,952
350,2	17,324
350,7	15,981
351,1	17,781
351,6	18,952
352	21,152
352,5	25,781
353	33,524
353,4	40,41
353,9	55,81
354,3	70,095
354,8	80,981
355,3	99,238
355,7	122,781
356,2	146,067
356,6	174,81
357,1	207,324
357,5	250,267
358	303,838
358,5	356,01
358,9	416,981
359,4	481,581
359,8	556,467
360,3	634,981
360,8	728,752
361,2	830,724
361,7	947,352
362,1	1072,238
362,6	1210,181
363	1366,781
363,5	1530,152
364	1700,238
364,4	1874,381
364,9	2051,638
365,3	2232,01
365,8	2422,238
366,3	2580,324
366,7	2726,495
367,2	2855,638
367,6	2971,495
368,1	3057,781
368,5	3112,01
369	3136,01
369,5	3147,381
369,9	3132,524
370,4	3092,352
370,8	3022,038
371,3	2930,381
371,7	2833,61
372,2	2720,21
372,7	2593,867
373,1	2463,495
373,6	2318,61
374	2178,181
374,5	2045,095
374,9	1906,61
375,4	1769,181
375,9	1638,295
376,3	1506,724
376,8	1388,495
377,2	1280,238
377,7	1174,124
378,2	1077,038
378,6	987,924
379,1	899,524
379,5	823,838
380	757,895
380,4	688,438
380,9	634,924
381,4	579,41
381,8	529,495
382,3	495,381
382,7	460,038
383,2	427,495
383,6	400,867
384,1	372,638
384,6	348,638
385	326,752
385,5	304,438
385,9	285,638
386,4	267,095
386,8	249,438
387,3	230,438
387,7	215,181
388,2	197,752
388,7	177,067
389,1	159,667
389,6	147,295
390	134,181
390,5	127,152
390,9	116,924
391,4	111,667
391,9	108,838
392,3	108,638
392,8	100,724
393,2	96,81
393,7	93,152
394,1	89,21
394,6	85,552
395,1	83,467
395,5	75,41
396	71,438
396,4	63,41
396,9	57,352
397,3	56,267
397,8	51,524
398,2	44,552
398,7	40,581
399,2	34,724
399,6	39,81
400,1	33,552
400,5	31,638
401	34,752
401,4	28,781
401,9	28,267
402,4	33,124
402,8	35,467
403,3	39,495
403,7	36,381
404,2	35,81
404,6	42,952
405,1	52,295
405,5	49,352
406	46,038
406,5	44,752
406,9	49,752
407,4	46,41
407,8	44,552
408,3	38,381
408,7	40,181
409,2	37,552
409,6	41,095
410,1	42,01
410,6	39,581
411	41,01
411,5	41,124
411,9	40,438
412,4	43,41
412,8	42,495
413,3	42,267
413,7	46,352
414,2	49,238
414,7	47,267
415,1	53,981
415,6	54,152
416	57,467
416,5	67,038
416,9	73,867
417,4	76,152
417,8	83,552
418,3	87,41
418,8	91,952
419,2	94,695
419,7	90,438
420,1	85,981
420,6	90,01
421	92,152
421,5	92,438
421,9	94,952
422,4	96,067
422,8	97,181
423,3	101,867
423,8	100,924
424,2	100,638
424,7	100,667
425,1	99,381
425,6	101,381
426	105,152
426,5	108,752
426,9	112,324
427,4	115,438
427,9	117,467
428,3	120,324
428,8	119,352
429,2	118,267
429,7	118,181
430,1	115,381
430,6	109,381
431	106,924
431,5	105,381
431,9	105,324
432,4	104,038
432,8	106,924
433,3	111,238
433,8	118,467
434,2	127,867
434,7	128,867
435,1	138,295
435,6	144,381
436	147,581
436,5	152,495
436,9	156,81
437,4	157,81
437,8	168,838
438,3	176,752
438,8	183,724
439,2	193,981
439,7	202,695
440,1	212,724
440,6	222,438
441	231,581
441,5	236,495
441,9	244,838
442,4	251,124
442,8	258,21
443,3	272,81
443,7	278,467
444,2	290,41
444,7	308,124
445,1	325,61
445,6	339,667
446	359,01
446,5	371,381
446,9	395,695
447,4	413,352
447,8	425,61
448,3	441,152
448,7	458,752
449,2	473,981
449,6	491,038
450,1	504,581
450,6	526,695
451	545,781
451,5	570,067
451,9	590,495
452,4	609,295
452,8	631,61
453,3	655,095
453,7	671,752
454,2	692,638
454,6	712,552
455,1	740,581
455,5	770,524
456	795,81
456,4	823,038
456,9	858,838
457,3	895,695
457,8	921,41
458,3	949,581
458,7	983,01
459,2	1016,01
459,6	1049,095
460,1	1076,924
460,5	1101,581
461	1138,238
461,4	1171,667
461,9	1202,438
462,3	1235,01
462,8	1266,981
463,2	1299,438
463,7	1337,638
464,1	1372,181
464,6	1403,352
465	1440,267
465,5	1475,438
466	1519,324
466,4	1557,524
466,9	1596,952
467,3	1633,638
467,8	1676,124
468,2	1715,695
468,7	1758,038
469,1	1793,295
469,6	1827,781
470	1867,21
470,5	1908,181
470,9	1944,381
471,4	1983,752
471,8	2022,267
472,3	2059,467
472,7	2108,095
473,2	2153,038
473,6	2193,038
474,1	2234,924
474,5	2271,581
475	2316,495
475,4	2360,21
475,9	2395,038
476,4	2427,667
476,8	2467,581
477,3	2508,638
477,7	2550,124
478,2	2586,124
478,6	2623,324
479,1	2663,524
479,5	2705,41
480	2745,324
480,4	2779,067
480,9	2816,552
481,3	2851,41
481,8	2884,724
482,2	2921,552
482,7	2957,581
483,1	2984,61
483,6	3020,095
484	3049,324
484,5	3082,438
484,9	3116,495
485,4	3142,267
485,8	3171,01
486,3	3201,095
486,7	3227,81
487,2	3260,238
487,6	3276,724
488,1	3297,41
488,5	3322,952
489	3348,752
489,4	3375,267
489,9	3398,295
490,4	3413,41
490,8	3440,038
491,3	3470,438
491,7	3489,352
492,2	3500,267
492,6	3513,867
493,1	3526,81
493,5	3549,067
494	3574,752
494,4	3585,095
494,9	3604,381
495,3	3625,295
495,8	3641,61
496,2	3662,724
496,7	3676,981
497,1	3681,438
497,6	3698,924
498	3714,524
498,5	3725,467
498,9	3744,752
499,4	3757,181
499,8	3767,352
500,3	3791,838
500,7	3795,152
501,2	3809,124
501,6	3816,552
502,1	3829,867
502,5	3840,267
503	3852,152
503,4	3855,324
503,9	3879,267
504,3	3885,695
504,8	3898,895
505,2	3908,124
505,7	3917,495
506,1	3923,267
506,6	3929,695
507	3932,21
507,5	3938,067
507,9	3947,638
508,4	3949,61
508,8	3957,81
509,3	3967,724
509,7	3971,638
510,2	3976,21
510,6	3984,867
511,1	3990,524
511,5	3996,581
512	4002,895
512,4	4013,124
512,9	4020,724
513,3	4027,267
513,8	4036,324
514,2	4044,295
514,7	4054,581
515,1	4064,352
515,6	4067,295
516	4075,952
516,5	4078,781
516,9	4079,238
517,4	4081,324
517,8	4088,181
518,3	4090,152
518,7	4095,438
519,2	4102,924
519,6	4115,724
520,1	4127,181
520,5	4136,152
521	4132,21
521,4	4138,752
521,9	4146,952
522,3	4157,181
522,8	4157,267
523,2	4161,181
523,7	4164,81
524,1	4176,638
524,6	4181,295
525	4191,438
525,5	4197,61
525,9	4207,21
526,4	4211,095
526,8	4224,981
527,3	4242,467
527,7	4257,295
528,2	4258,352
528,6	4265,667
529,1	4274,695
529,5	4283,752
530	4286,724
530,4	4291,324
530,9	4297,838
531,3	4313,352
531,8	4319,838
532,2	4331,438
532,6	4348,981
533,1	4356,352
533,5	4356,038
534	4362,295
534,4	4365,038
534,9	4374,981
535,3	4382,524
535,8	4392,381
536,2	4408,181
536,7	4427,952
537,1	4445,867
537,6	4460,038
538	4473,124
538,5	4488,581
538,9	4491,952
539,4	4504,552
539,8	4512,61
540,3	4523,01
540,7	4531,581
541,2	4538,695
541,6	4539,752
542,1	4552,238
542,5	4561,381
543	4573,867
543,4	4579,467
543,9	4589,867
544,3	4608,41
544,8	4631,924
545,2	4641,752
545,7	4658,238
546,1	4669,752
546,5	4680,952
547	4691,924
547,4	4696,81
547,9	4694,895
548,3	4705,895
548,8	4703,01
549,2	4713,381
549,7	4728,667
550,1	4735,267
550,6	4745,295
551	4759,01
551,5	4768,324
551,9	4785,095
552,4	4790,495
552,8	4795,981
553,3	4808,581
553,7	4822,324
554,2	4833,924
554,6	4845,981
555,1	4853,581
555,5	4865,524
555,9	4873,095
556,4	4888,495
556,8	4899,324
557,3	4910,924
557,7	4919,61
558,2	4932,295
558,6	4935,152
559,1	4941,41
559,5	4943,01
560	4942,495
560,4	4946,981
560,9	4951,41
561,3	4952,581
561,8	4965,781
562,2	4978,838
562,7	4980,152
563,1	4990,638
563,6	4991,524
564	4996,552
564,4	5007,495
564,9	5015,352
565,3	5015,981
565,8	5030,781
566,2	5027,295
566,7	5040,724
567,1	5056,838
567,6	5064,924
568	5060,981
568,5	5064,324
568,9	5069,924
569,4	5085,01
569,8	5083,895
570,3	5074,41
570,7	5072,01
571,1	5077,895
571,6	5086,438
572	5084,038
572,5	5077,038
572,9	5074,495
573,4	5075,467
573,8	5080,352
574,3	5078,181
574,7	5082,038
575,2	5081,924
575,6	5089,61
576,1	5097,152
576,5	5105,181
576,9	5099,724
577,4	5107,152
577,8	5092,695
578,3	5092,295
578,7	5084,581
579,2	5079,724
579,6	5074,467
580,1	5075,238
580,5	5068,352
581	5068,095
581,4	5063,152
581,9	5054,752
582,3	5044,695
582,7	5031,695
583,2	5019,495
583,6	5007,438
584,1	4993,981
584,5	4980,324
585	4975,124
585,4	4971,867
585,9	4971,41
586,3	4962,124
586,8	4953,152
587,2	4953,238
587,6	4943,838
588,1	4943,21
588,5	4934,324
589	4922,324
589,4	4919,524
589,9	4911,324
590,3	4901,352
590,8	4902,095
591,2	4884,067
591,7	4879,438
592,1	4884,495
592,5	4875,61
593	4866,81
593,4	4859,238
593,9	4854,038
594,3	4849,81
594,8	4836,867
595,2	4816,724
595,7	4809,667
596,1	4809,324
596,6	4803,21
597	4799,438
597,4	4791,152
597,9	4785,638
598,3	4778,667
598,8	4768,067
599,2	4759,152
599,7	4752,695
600,1	4736,695
600,6	4727,381
601	4719,552
601,4	4715,981
601,9	4708,438
602,3	4695,324
602,8	4681,038
603,2	4672,067
603,7	4669,838
604,1	4656,095
604,6	4633,952
605	4620,01
605,4	4608,952
605,9	4595,181
606,3	4583,752
606,8	4565,838
607,2	4556,552
607,7	4551,267
608,1	4536,581
608,6	4526,81
609	4513,124
609,4	4489,952
609,9	4475,61
610,3	4454,895
610,8	4442,324
611,2	4429,867
611,7	4415,267
612,1	4401,638
612,6	4392,638
613	4375,581
613,4	4367,667
613,9	4346,295
614,3	4332,01
614,8	4309,552
615,2	4295,924
615,7	4277,867
616,1	4268,524
616,6	4255,267
617	4242,952
617,4	4226,552
617,9	4216,581
618,3	4197,295
618,8	4189,352
619,2	4168,124
619,7	4144,438
620,1	4124,152
620,5	4107,867
621	4089,295
621,4	4070,867
621,9	4045,038
622,3	4029,238
622,8	4013,295
623,2	3994,495
623,6	3977,124
624,1	3962,295
624,5	3952,581
625	3938,295
625,4	3919,41
625,9	3904,781
626,3	3890,867
626,8	3870,61
627,2	3848,467
627,6	3835,41
628,1	3817,295
628,5	3796,152
629	3775,124
629,4	3756,552
629,9	3742,695
630,3	3727,21
630,7	3701,924
631,2	3684,124
631,6	3668,724
632,1	3647,352
632,5	3625,467
633	3604,467
633,4	3579,352
633,8	3561,924
634,3	3547,552
634,7	3534,552
635,2	3515,095
635,6	3501,238
636,1	3485,038
636,5	3472,01
636,9	3451,752
637,4	3430,638
637,8	3408,981
638,3	3388,581
638,7	3373,381
639,2	3353,495
639,6	3337,381
640	3323,667
640,5	3309,41
640,9	3292,381
641,4	3281,895
641,8	3265,838
642,2	3247,324
642,7	3232,667
643,1	3212,924
643,6	3201,067
644	3186,467
644,5	3177,667
644,9	3157,981
645,3	3148,695
645,8	3130,952
646,2	3116,667
646,7	3091,524
647,1	3073,524
647,6	3053,267
648	3034,781
648,4	3016,838
648,9	3002,038
649,3	2987,324
649,8	2969,61
650,2	2957,038
650,6	2944,152
651,1	2929,752
651,5	2915,095
652	2902,095
652,4	2884,552
652,9	2873,838
653,3	2856,581
653,7	2840,124
654,2	2825,667
654,6	2806,067
655,1	2789,867
655,5	2779,381
655,9	2761,352
656,4	2746,895
656,8	2730,81
657,3	2714,667
657,7	2700,524
658,2	2682,21
658,6	2663,838
659	2648,467
659,5	2629,238
659,9	2606,638
660,4	2595,467
660,8	2577,981
661,2	2557,352
661,7	2544,21
662,1	2532,838
662,6	2521,381
663	2511,41
663,4	2496,867
663,9	2482,61
664,3	2471,695
664,8	2450,038
665,2	2432,552
665,6	2417,295
666,1	2398,752
666,5	2375,381
667	2358,267
667,4	2343,067
667,9	2335,952
668,3	2320,61
668,7	2307,095
669,2	2294,781
669,6	2282,524
670,1	2270,124
670,5	2250,838
670,9	2232,238
671,4	2218,981
671,8	2202,781
672,3	2188,81
672,7	2178,638
673,1	2165,352
673,6	2156,295
674	2141,095
674,5	2127,724
674,9	2108,981
675,3	2094,895
675,8	2080,467
676,2	2065,095
676,7	2051,381
677,1	2038,752
677,5	2025,238
678	2020,924
678,4	2007,667
678,9	1995,581
679,3	1984,41
679,7	1974,81
680,2	1964,095
680,6	1950,952
681,1	1935,352
681,5	1923,152
681,9	1904,781
682,4	1895,267
682,8	1883,867
683,3	1872,01
683,7	1861,238
684,1	1845,381
684,6	1832,638
685	1824,295
685,5	1805,838
685,9	1793,267
686,3	1779,781
686,8	1763,181
687,2	1754,438
687,7	1744,752
688,1	1733,438
688,5	1729,01
689	1713,324
689,4	1700,238
689,9	1689,981
690,3	1681,524
690,7	1668,01
691,2	1652,895
691,6	1638,781
692	1627,124
692,5	1615,752
692,9	1602,41
693,4	1587,495
693,8	1576,438
694,2	1571,267
694,7	1557,124
695,1	1553,752
695,6	1547,724
696	1543,552
696,4	1533,152
696,9	1525,41
697,3	1515,124
697,8	1507,038
698,2	1488,352
698,6	1475,524
699,1	1467,524
699,5	1453,781
699,9	1441,524
700,4	1430,21
700,8	1425,238
701,3	1428,752
701,7	1421,324
702,1	1411,924
702,6	1404,752
703	1398,752
703,5	1382,352
703,9	1367,695
704,3	1348,838
704,8	1333,238
705,2	1319,495
705,6	1309,152
706,1	1295,981
706,5	1298,381
707	1294,924
707,4	1290,924
707,8	1282,238
708,3	1278,495
708,7	1271,038
709,2	1264,61
709,6	1248,81
710	1236,238
710,5	1227,667
710,9	1226,181
711,3	1213,695
711,8	1209,924
712,2	1198,667
712,7	1192,295
713,1	1189,067
713,5	1171,495
714	1160,61
714,4	1154,01
714,8	1142,238
715,3	1140,724
715,7	1128,752
716,2	1115,867
716,6	1111,581
717	1104,352
717,5	1090,952
717,9	1084,21
718,3	1071,981
718,8	1071,467
719,2	1061,781
719,7	1049,924
720,1	1038,41
720,5	1035,867
721	1021,61
721,4	1014,267
721,8	1003,238
722,3	997,81
722,7	994,438
723,2	985,41
723,6	974,61
724	968,524
724,5	957,41
724,9	951,267
725,3	940,638
725,8	933,352
726,2	927,41
726,7	922,295
727,1	915,124
727,5	911,81
728	903,038
728,4	897,038
728,8	892,581
729,3	886,381
729,7	881,21
730,1	878,895
730,6	872,495
731	872,295
731,5	866,81
731,9	868,095
732,3	867,295
732,8	861,067
733,2	855,095
733,6	850,667
734,1	845,781
734,5	840,81
734,9	826,01
735,4	816,21
735,8	804,152
736,3	799,381
736,7	794,238
737,1	785,552
737,6	784,867
738	786,095
738,4	783,267
738,9	785,067
739,3	779,152
739,7	773,21
740,2	768,924
740,6	765,724
741,1	753,838
741,5	753,41
741,9	750,467
742,4	744,467
742,8	739,238
743,2	733,038
743,7	719,524
744,1	719,038
744,5	712,81
745	704,124
745,4	703,152
745,8	700,152
746,3	697,438
746,7	697,61
747,2	690,667
747,6	680,152
748	679,41
748,5	672,524
748,9	663,067
749,3	650,152
749,8	646,152
750,2	643,21
750,6	646,381
751,1	640,352
751,5	636,324
751,9	632,067
752,4	633,267
752,8	628,667
753,3	625,381
753,7	611,81
754,1	605,638
754,6	601,438
755	603,238
755,4	602,61
755,9	599,352
756,3	590,752
756,7	591,438
757,2	585,152
757,6	580,752
758	578,438
758,5	572,41
758,9	568,552
759,3	563,695
759,8	559,41
760,2	556,152
760,6	551,438
761,1	546,467
761,5	541,352
761,9	536,124
762,4	536,067
762,8	530,752
763,3	527,638
763,7	525,352
764,1	520,324
764,6	517,181
765	508,352
765,4	503,581
765,9	502,152
766,3	499,21
766,7	496,067
767,2	490,952
767,6	487,752
768	489,295
768,5	488,524
768,9	488,095
769,3	482,695
769,8	479,924
770,2	473,781
770,6	471,952
771,1	466,01
771,5	463,638
771,9	462,324
772,4	468,381
772,8	464,438
773,2	466,495
773,7	460,667
774,1	462,581
774,5	452,61
775	441,581
775,4	429,181
775,8	428,438
776,3	424,41
776,7	421,724
777,1	414,238
777,6	414,095
778	414,295
778,4	417,41
778,9	412,324
779,3	409,467
779,7	408,952
780,2	409,038
780,6	404,095
781	397,524
781,5	389,667
781,9	385,81
782,3	379,552
782,8	377,067
783,2	370,21
783,6	373,181
784,1	371,524
784,5	364,61
784,9	362,438
785,4	363,324
785,8	359,01
786,2	359,495
786,7	355,467
787,1	357,981
787,5	364,61
788	364,238
788,4	361,838
788,8	360,181
789,3	358,238
789,7	361,495
790,1	352,981
790,6	348,067
791	346,438
791,4	342,838
791,9	338,124
792,3	337,038
792,7	325,438
793,2	330,495
793,6	324,238
794	315,981
794,5	313,467
794,9	315,695
795,3	311,638
795,8	310,01
796,2	301,581
796,6	302,267
797,1	298,638
797,5	299,667
797,9	292,352
798,4	287,438
798,8	285,867
799,2	287,952
799,7	285,581
800,1	290,124
800,5	283,152
801	283,667
801,4	287,724
801,8	286,61
802,2	282,495
802,7	282,61
803,1	280,152
803,5	276,924
804	273,924
804,4	268,667
804,8	266,638
805,3	268,381
805,7	265,267
806,1	261,61
806,6	259,381
807	256,267
807,4	253,895
807,9	251,781
808,3	245,067
808,7	242,352
809,2	240,01
809,6	242,067
810	237,01
810,4	235,267
810,9	230,838
811,3	230,895
811,7	234,667
812,2	232,981
812,6	225,295
813	225,381
813,5	218,667
813,9	220,038
814,3	213,981
814,8	204,838
815,2	205,152
815,6	206,124
816,1	202,952
816,5	208,295
816,9	203,152
817,3	205,952
817,8	203,295
818,2	197,41
818,6	197,581
819,1	197,267
819,5	193,21
819,9	194,81
820,4	191,038
820,8	189,152
821,2	188,924
821,7	186,21
822,1	184,695
822,5	184,152
822,9	181,124
823,4	183,838
823,8	182,067
824,2	185,21
824,7	188,21
825,1	189,381
825,5	183,01
826	184,438
826,4	178,181
826,8	179,61
827,3	175,095
827,7	173,152
828,1	172,181
828,5	174,467
829	171,21
829,4	166,124
829,8	166,438
830,3	162,752
830,7	157,467
831,1	156,867
831,6	157,61
832	160,867
832,4	162,838
832,8	157,352
833,3	159,267
833,7	156,095
834,1	151,467
834,6	148,352
835	144,724
835,4	144,552
835,8	145,695
836,3	140,752
836,7	144,267
837,1	143,895
837,6	139,952
838	136,524
838,4	136,124
838,9	133,267
839,3	138,495
839,7	136,81
840,1	131,581
840,6	134,152
841	133,61
841,4	132,638
841,9	131,467
842,3	126,781
842,7	121,724
843,1	123,981
843,6	122,638
844	122,638
844,4	120,61
844,9	119,781
845,3	121,352
845,7	119,238
846,2	122,381
846,6	116,867
847	114,324
847,4	109,295
847,9	109,067
848,3	105,81
848,7	106,552
849,2	103,41
849,6	105,724
850	104,838
850,4	106,238
850,9	101,952
851,3	100,524
851,7	98,838
852,2	99,924
852,6	93,552
853	92,524
853,4	92,352
853,9	95,238
854,3	92,895
854,7	96,495
855,2	95,295
855,6	100,552
856	96,638
856,4	98,838
856,9	101,924
857,3	100,867
857,7	97,01
858,2	90,21
858,6	88,81
859	89,695
859,4	88,238
859,9	84,81
860,3	84,724
860,7	87,267
861,1	89,752
861,6	92,381
862	90,61
862,4	88,667
862,9	89,152
863,3	89,352
863,7	87,41
864,1	81,838
864,6	77,295
865	80,81
865,4	78,638
865,9	75,495
866,3	74,752
866,7	76,067
867,1	77,267
867,6	80,724
868	83,352
868,4	81,038
868,8	78,495
869,3	78,352
869,7	76,095
870,1	79,981
870,6	73,267
871	83,724
871,4	86,61
871,8	88,181
872,3	87,581
872,7	86,895
873,1	85,981
873,5	91,467
874	72,152
874,4	69,581
874,8	75,495
875,3	73,61
875,7	67,438
876,1	63,952
876,5	57,067
877	60,41
877,4	62,467
877,8	56,267
878,2	50,81
878,7	55,524
879,1	58,181
879,5	59,838
879,9	55,667
880,4	56,695
880,8	55,524
881,2	63,381
881,7	60,152
882,1	61,781
882,5	63,295
882,9	65,81
883,4	63,124
883,8	63,438
884,2	56,981
884,6	62,067
885,1	57,781
885,5	57,181
885,9	55,61
886,3	54,61
886,8	52,724
887,2	55,981
887,6	48,467
888	48,495
888,5	47,124
888,9	47,124
889,3	46,152
889,8	48,467
890,2	45,495
890,6	47,552
891	43,867
891,5	46,638
891,9	46,724
892,3	47,867
892,7	46,781
893,2	48,752
893,6	46,924
894	47,895
894,4	44,781
894,9	44,495
895,3	43,01
895,7	40,381
896,1	39,324
896,6	44,41
897	44,781
897,4	44,324
897,8	42,01
898,3	42,838
898,7	38,467
899,1	38,952
899,5	34,152
900	34,667
900,4	35,01
900,8	35,41
901,2	31,524
901,7	36,552
902,1	40,095
902,5	39,181
902,9	35,381
903,4	33,067
903,8	33,838
904,2	35,01
904,6	33,324
905,1	32,581
905,5	34,781
905,9	37,895
906,3	36,952
906,8	36,381
907,2	33,038
907,6	37,152
908	32,21
908,5	32,61
908,9	31,524
909,3	29,124
909,7	28,867
910,2	35,895
910,6	28,695
911	26,181
911,4	22,038
911,9	23,41
912,3	22,267
912,7	17,495
913,1	9,067
913,6	12,21
914	18,01
914,4	17,01
914,8	19,038
915,3	23,095
915,7	30,867
916,1	34,61
916,5	36,781
916,9	29,352
917,4	33,552
917,8	30,01
918,2	29,352
918,6	24,981
919,1	25,667
919,5	25,524
919,9	30,181
920,3	27,695
920,8	32,124
921,2	30,41
921,6	29,667
922	27,952
922,5	24,21
922,9	23,181
923,3	26,295
923,7	24,438
924,2	25,638
924,6	26,067
925	26,838
925,4	29,981
925,8	25,81
926,3	24,838
926,7	21,781
927,1	21,581
927,5	27,781
928	25,667
928,4	27,495
928,8	27,81
929,2	27,181
929,7	25,524
930,1	27,324
930,5	21,181
930,9	23,124
931,3	19,981
931,8	25,038
932,2	26,295
932,6	25,695
933	23,695
933,5	26,01
933,9	25,495
934,3	24,924
934,7	22,181
935,2	25,352
935,6	28,781
936	23,267
936,4	23,324
936,8	24,924
937,3	20,038
937,7	19,524
938,1	10,838
938,5	3,895
939	9,81
939,4	6,324
939,8	1,781
940,2	2,495
940,6	2,781
941,1	5,667
941,5	12,152
941,9	10,924
942,3	6,238
942,8	11,238
943,2	16,01
943,6	16,038
944	13,295
944,4	12,838
944,9	13,81
945,3	14,352
945,7	11,352
946,1	4,695
946,6	7,038
947	8,867
947,4	6,381
947,8	3,724
948,2	3,267
948,7	-0,705
949,1	5,038
949,5	1,238
949,9	0,695
950,3	1,238
950,8	5,895
951,2	11,067
951,6	16,21
952	15,295
952,5	14,438
952,9	15,524
953,3	15,552
953,7	12,124
954,1	12,067
954,6	10,495
955	7,838
955,4	14,81
955,8	14,952
956,2	16,152
956,7	15,752
957,1	12,467
957,5	10,324
957,9	14,61
958,3	7,495
958,8	7,438
959,2	5,552
959,6	6,095
960	11,267
960,5	10,095
960,9	7,238
961,3	7,295
961,7	5,638
962,1	8,352
962,6	8,238
963	6,295
963,4	13,581
963,8	15,667
964,2	18,524
964,7	19,067
965,1	9,924
965,5	12,752
965,9	14,61
966,3	7,495
966,8	6,381
967,2	0,838
967,6	1,467
968	6,067
968,4	0,238
968,9	1,41
969,3	3,667
969,7	1,781
970,1	9,295
970,5	8,867
971	9,495
971,4	10,552
971,8	6,124
972,2	11,181
972,6	15,324
973,1	7,21
973,5	4,352
973,9	7,41
974,3	10,438
974,7	9,038
975,2	6,695
975,6	3,467
976	8,181
976,4	12,581
976,8	10,21
977,3	5,295
977,7	4,067
978,1	1,61
978,5	0,01
978,9	-2,962
979,4	-2,419
979,8	-1,362
980,2	0,067
980,6	4,295
981	5,724
981,5	6,867
981,9	8,01
982,3	6,238
982,7	4,638
983,1	5,267
983,6	4,324
984	3,038
984,4	5,067
984,8	7,81
985,2	9,467
985,6	10,067
986,1	11,724
986,5	11,21
986,9	11,895
987,3	8,695
987,7	7,838
988,2	6,724
988,6	8,467
989	5,152
989,4	6,524
989,8	3,438
990,3	3,781
990,7	6,781
991,1	6,181
991,5	5,667
991,9	3,495
992,3	4,695
992,8	6,867
993,2	8,61
993,6	3,895
994	4,638
994,4	7,924
994,9	15,838
995,3	19,41
995,7	19,867
996,1	15,724
996,5	14,667
996,9	10,952
997,4	6,152
997,8	9,181
998,2	0,438
998,6	1,781
999	5,124
999,5	8,467
999,9	12,867
1000,3	13,724
1000,7	9,924
1001,1	12,124
1001,5	14,095
1002	13,724
1002,4	11,667
1002,8	6,01
1003,2	5,724
1003,6	7,467
1004	6,924
1004,5	2,295
1004,9	2,552
1005,3	2,267
1005,7	7,095
1006,1	10,181
1006,6	2,181
1007	-0,048
1007,4	-4,162
1007,8	2,152
1008,2	4,095
1008,6	2,267
1009,1	-1,533
1009,5	4,695
1009,9	6,638
1010,3	12,01
1010,7	8,495
1011,1	9,352
1011,6	13,467
1012	15,181
1012,4	15,295
1012,8	14,467
1013,2	16,81
1013,6	16,81
1014,1	15,924
1014,5	10,21
1014,9	10,581
1015,3	7,01
1015,7	9,695
1016,1	4,724
1016,6	1,838
1017	3,095
1017,4	7,095
1017,8	2,438
1018,2	3,781
1018,6	4,295
1019,1	6,752
1019,5	6,295
1019,9	4,61
1020,3	4,495
1020,7	6,238
1021,1	4,895
1021,6	2,552
1022	5,21
1022,4	8,81
1022,8	6,467
1023,2	1,695
1023,6	0,324
1024,1	1,352
1024,5	0,552
1024,9	-0,876
1025,3	0,01
1025,7	4,924
1026,1	9,81
1026,6	15,838
1027	12,81
1027,4	18,552
1027,8	15,895
1028,2	9,381
1028,6	9,667
1029	7,867
1029,5	6,01
1029,9	7,724
1030,3	6,495
1030,7	12,267
1031,1	15,981
1031,5	13,981
1032	14,238
1032,4	13,067
1032,8	16,724
1033,2	14,238
1033,6	7,981
1034	7,238
1034,4	9,038
1034,9	11,095
1035,3	12,752
1035,7	9,981
1036,1	11,61
1036,5	14,581
1036,9	13,952
1037,4	13,81
1037,8	12,61
1038,2	10,895
1038,6	9,752
1039	7,152
1039,4	5,324
1039,8	7,238
1040,3	8,781
1040,7	10,01
1041,1	7,981
1041,5	15,21
1041,9	14,381
1042,3	12,295
1042,7	10,495
1043,2	4,581
1043,6	5,152
1044	7,067
1044,4	-0,648
1044,8	0,952
1045,2	8,724
1045,6	8,867
1046,1	8,238
1046,5	3,295
1046,9	4,952
1047,3	6,41
1047,7	7,695
1048,1	1,295
1048,5	5,352
1049	11,867
1049,4	9,752
1049,8	8,381
1050,2	7,067
1050,6	5,495
1051	1,924
1051,4	-0,648
1051,9	-6,619
1052,3	-4,048
1052,7	-5,648
1053,1	-3,019
1053,5	-3,476
1053,9	4,61
1054,3	3,41
1054,8	5,524
1055,2	2,381
1055,6	6,638
1056	6,81
1056,4	8,01
1056,8	8,552
1057,2	4,895
1057,6	3,838
1058,1	8,067
1058,5	3,267
1058,9	1,267
1059,3	2,838
1059,7	-0,848
1060,1	-0,962
1060,5	-1,533
1061	-1,762
1061,4	6,752
1061,8	11,038
1062,2	7,81
1062,6	12,752
1063	15,21
1063,4	16,295
1063,8	16,895
1064,3	12,695
1064,7	13,295
1065,1	13,152
1065,5	10,695
1065,9	10,152
1066,3	10,324
1066,7	6,552
1067,1	3,295
1067,6	3,152
1068	4,638
1068,4	3,038
1068,8	-1,048
1069,2	-1,276
1069,6	0,124
1070	2,181
1070,4	-1,19
1070,9	-1,876
1071,3	2,238
1071,7	8,438
1072,1	5,838
1072,5	7,781
1072,9	7,181
1073,3	8,924
1073,7	8,581
1074,2	2,067
1074,6	-3,848
1075	-1,619
1075,4	-3,419
1075,8	-5,876
1076,2	-7,476
1076,6	-5,876
1077	-4,79
1077,5	1,038
1077,9	3,41
1078,3	4,181
1078,7	5,295
1079,1	8,038
1079,5	6,381
1079,9	4,467
1080,3	1,067
1080,7	-0,648
1081,2	4,981
1081,6	5,324
1082	0,695
1082,4	-4,162
1082,8	-0,819
1083,2	3,752
1083,6	3,381
1084	-2,962
1084,5	0,552
1084,9	0,581
1085,3	5,867
1085,7	7,324
1086,1	4,124
1086,5	2,181
1086,9	3,267
1087,3	-0,59
1087,7	-0,676
1088,2	0,524
1088,6	-2,476
1089	-1,248
1089,4	-0,705
1089,8	-0,848
1090,2	-1,648
1090,6	0,381
1091	1,038
1091,4	1,095
1091,9	0,324
1092,3	2,895
1092,7	6,324
1093,1	6,81
1093,5	7,752
1093,9	7,381
1094,3	7,581
1094,7	7,667
1095,1	5,81
1095,5	1,124
1096	2,324
1096,4	1,781
1096,8	-0,533
1097,2	0,467
1097,6	4,21
1098	7,01
1098,4	8,21
1098,8	5,981
1099,2	2,667
1099,6	1,41
1100,1	2,352
1100,5	0,124
1100,9	2,01
1101,3	3,724
1101,7	4,81
1102,1	10,41
1102,5	8,581
1102,9	3,238
1103,3	3,124
1103,7	0,438
1104,2	-1,019
1104,6	1,581
1105	1,267
1105,4	5,352
1105,8	8,638
1106,2	7,552
1106,6	5,867
1107	6,038
1107,4	4,567
1107,8	1,227
1108,3	0,267
