Data from Subt2_00059.txt Node
Date: Mon Aug 28 13:24:11 MSK 2023
User: vat
Spectrometer: MAYP114033
Trigger mode: 0
Integration Time (sec): 1,000000E0
Scans to average: 5
Electric dark correction enabled: true
Nonlinearity correction enabled: false
Boxcar width: 3
XAxis mode: Wavelengths
Number of Pixels in Spectrum: 2068
>>>>>Begin Spectral Data<<<<<
199,4	-1,583
199,9	-7,473
200,4	-7,633
200,8	-4,805
201,3	-5,862
201,8	-3,005
202,2	-0,719
202,7	-0,262
203,2	5,91
203,6	8,967
204,1	9,11
204,6	11,052
205	10,052
205,5	10,11
206	11,652
206,4	11,767
206,9	13,224
207,4	10,71
207,8	8,424
208,3	8,567
208,8	6,052
209,2	5,652
209,7	4,167
210,2	1,824
210,6	2,452
211,1	8,424
211,5	3,795
212	4,795
212,5	3,252
212,9	4,767
213,4	5,081
213,9	3,452
214,3	0,738
214,8	7,881
215,3	9,224
215,7	12,024
216,2	9,881
216,7	13,367
217,1	11,452
217,6	8,252
218,1	4,424
218,5	1,767
219	0,624
219,5	4,252
219,9	-3,148
220,4	4,795
220,9	5,51
221,3	1,481
221,8	4,367
222,3	4,681
222,7	7,424
223,2	6,967
223,6	2,71
224,1	8,195
224,6	12,91
225	11,624
225,5	7,252
226	1,538
226,4	7,652
226,9	7,481
227,4	9,31
227,8	11,081
228,3	6,652
228,8	8,452
229,2	10,567
229,7	7,252
230,2	9,624
230,6	3,652
231,1	-2,005
231,5	2,195
232	4,852
232,5	2,252
232,9	2,11
233,4	-0,548
233,9	2,224
234,3	8,167
234,8	7,71
235,3	10,11
235,7	9,624
236,2	12,824
236,7	12,452
237,1	14,681
237,6	12,052
238,1	14,538
238,5	9,024
239	9,252
239,4	7,567
239,9	8,338
240,4	1,51
240,8	2,31
241,3	1,367
241,8	3,252
242,2	0,967
242,7	-0,005
243,2	0,995
243,6	3,281
244,1	-0,005
244,6	-3,005
245	-4,519
245,5	-3,176
245,9	-4,005
246,4	-5,119
246,9	-4,833
247,3	-1,662
247,8	-4,462
248,3	-1,462
248,7	0,824
249,2	1,767
249,7	3,71
250,1	-0,176
250,6	-1,233
251	0,938
251,5	1,252
252	0,795
252,4	0,052
252,9	1,624
253,4	3,395
253,8	-0,262
254,3	2,652
254,8	2,138
255,2	1,624
255,7	0,052
256,1	-4,948
256,6	-1,919
257,1	2,681
257,5	0,852
258	-3,462
258,5	-0,062
258,9	0,938
259,4	2,081
259,9	-1,833
260,3	-3,405
260,8	-1,69
261,2	4,767
261,7	2,595
262,2	3,452
262,6	2,91
263,1	3,967
263,6	1,567
264	1,852
264,5	-0,119
264,9	-0,89
265,4	-2,776
265,9	1,052
266,3	1,224
266,8	4,652
267,3	4,167
267,7	2,167
268,2	3,052
268,7	6,795
269,1	0,738
269,6	1,338
270	-3,119
270,5	-0,262
271	-1,633
271,4	-7,319
271,9	-10,233
272,4	-6,948
272,8	-7,233
273,3	-1,748
273,7	-5,69
274,2	-3,29
274,7	2,11
275,1	1,624
275,6	6,281
276,1	7,052
276,5	4,767
277	6,081
277,4	6,395
277,9	5,31
278,4	9,31
278,8	6,624
279,3	9,91
279,8	9,852
280,2	13,852
280,7	12,167
281,1	9,481
281,6	6,338
282,1	3,652
282,5	0,138
283	2,738
283,4	0,538
283,9	1,281
284,4	6,31
284,8	7,538
285,3	8,538
285,8	9,624
286,2	5,995
286,7	3,395
287,1	2,138
287,6	-4,776
288,1	-3,062
288,5	-0,748
289	-3,09
289,5	-1,433
289,9	-0,148
290,4	0,024
290,8	5,824
291,3	6,995
291,8	5,538
292,2	8,052
292,7	10,052
293,1	11,024
293,6	10,367
294,1	7,31
294,5	4,224
295	0,281
295,5	-0,69
295,9	-4,576
296,4	-7,062
296,8	-3,69
297,3	0,252
297,8	5,31
298,2	5,681
298,7	7,681
299,1	10,224
299,6	12,024
300,1	12,481
300,5	11,138
301	7,91
301,5	10,338
301,9	7,252
302,4	3,424
302,8	2,138
303,3	3,995
303,8	8,995
304,2	12,052
304,7	9,024
305,1	6,595
305,6	6,252
306,1	2,081
306,5	-4,833
307	-13,633
307,4	-20,319
307,9	-16,519
308,4	-13,176
308,8	-8,719
309,3	-1,376
309,8	1,51
310,2	4,681
310,7	3,624
311,1	1,938
311,6	-0,719
312,1	-0,919
312,5	-5,776
313	-5,662
313,4	-4,005
313,9	-1,948
314,4	-0,69
314,8	3,538
315,3	7,167
315,7	10,281
316,2	7,481
316,7	7,024
317,1	7,738
317,6	8,052
318	9,852
318,5	6,224
319	4,652
319,4	8,367
319,9	2,738
320,3	3,595
320,8	-0,119
321,3	-6,862
321,7	-6,462
322,2	-10,519
322,6	-12,119
323,1	-9,948
323,6	-10,348
324	-9,576
324,5	-2,148
324,9	-1,005
325,4	0,367
325,9	2,824
326,3	2,938
326,8	2,738
327,2	2,252
327,7	-2,405
328,2	-2,89
328,6	2,567
329,1	-2,29
329,5	-0,805
330	-0,919
330,5	5,624
330,9	6,852
331,4	3,31
331,8	1,281
332,3	9,51
332,8	9,452
333,2	13,281
333,7	5,252
334,1	-0,348
334,6	-0,49
335,1	1,224
335,5	-5,919
336	-3,205
336,4	-6,348
336,9	-3,662
337,4	-1,576
337,8	1,081
338,3	0,252
338,7	0,852
339,2	-2,29
339,7	-4,405
340,1	-3,09
340,6	-2,49
341	-4,348
341,5	-9,862
342	-7,262
342,4	-11,462
342,9	-8,033
343,3	-5,033
343,8	1,052
344,2	0,31
344,7	1,595
345,2	1,71
345,6	6,338
346,1	1,938
346,5	-0,29
347	-6,119
347,5	-0,176
347,9	4,681
348,4	-0,662
348,8	0,024
349,3	3,167
349,8	0,195
350,2	1,367
350,7	-1,976
351,1	-6,519
351,6	-3,89
352	-2,662
352,5	3,338
353	11,738
353,4	18,138
353,9	28,91
354,3	47,538
354,8	56,881
355,3	72,395
355,7	86,824
356,2	101,71
356,6	119,081
357,1	137,967
357,5	154,767
358	189,967
358,5	217,767
358,9	251,624
359,4	293,738
359,8	336,452
360,3	385,824
360,8	447,995
361,2	508,167
361,7	583,138
362,1	656,795
362,6	741,024
363	841,652
363,5	939,167
364	1035,595
364,4	1141,71
364,9	1244,167
365,3	1350,995
365,8	1460,91
366,3	1543,167
366,7	1623,024
367,2	1690,395
367,6	1741,91
368,1	1783,881
368,5	1811,624
369	1812,51
369,5	1811,395
369,9	1797,938
370,4	1766,881
370,8	1726,138
371,3	1671,424
371,7	1602,881
372,2	1533,938
372,7	1458,252
373,1	1376,595
373,6	1296,738
374	1213,052
374,5	1129,91
374,9	1049,481
375,4	971,595
375,9	899,595
376,3	824,081
376,8	757,424
377,2	697,567
377,7	637,081
378,2	588,652
378,6	537,881
379,1	485,167
379,5	444,367
380	405,424
380,4	370,681
380,9	341,452
381,4	311,395
381,8	286,652
382,3	269,195
382,7	251,195
383,2	235,624
383,6	218,91
384,1	206,281
384,6	193,252
385	181,51
385,5	172,167
385,9	164,281
386,4	155,367
386,8	144,538
387,3	133,424
387,7	124,224
388,2	114,195
388,7	104,481
389,1	96,538
389,6	91,338
390	87,367
390,5	84,081
390,9	76,91
391,4	69,624
391,9	64,481
392,3	65,052
392,8	58,338
393,2	55,281
393,7	54,11
394,1	54,195
394,6	54,424
395,1	59,024
395,5	50,995
396	51,767
396,4	45,424
396,9	40,195
397,3	39,852
397,8	36,852
398,2	31,138
398,7	26,338
399,2	22,024
399,6	22,338
400,1	20,795
400,5	20,538
401	21,052
401,4	16,681
401,9	20,652
402,4	19,652
402,8	26,852
403,3	28,967
403,7	27,138
404,2	28,681
404,6	30,452
405,1	31,452
405,5	33,652
406	30,452
406,5	31,652
406,9	34,11
407,4	32,138
407,8	34,224
408,3	37,024
408,7	37,195
409,2	36,738
409,6	40,481
410,1	41,51
410,6	40,624
411	43,681
411,5	40,367
411,9	39,852
412,4	42,195
412,8	38,71
413,3	39,167
413,7	43,852
414,2	45,338
414,7	46,481
415,1	54,624
415,6	56,081
416	62,767
416,5	70,91
416,9	77,567
417,4	79,395
417,8	86,51
418,3	84,938
418,8	85,995
419,2	88,281
419,7	81,081
420,1	75,795
420,6	80,567
421	82,424
421,5	89,281
421,9	91,452
422,4	92,338
422,8	97,538
423,3	103,51
423,8	100,567
424,2	101,195
424,7	101,024
425,1	100,224
425,6	99,167
426	102,224
426,5	101,852
426,9	104,138
427,4	110,852
427,9	112,195
428,3	118,224
428,8	118,138
429,2	119,195
429,7	124,852
430,1	126,91
430,6	118,881
431	114,395
431,5	110,91
431,9	113,081
432,4	109,138
432,8	109,881
433,3	112,081
433,8	122,138
434,2	130,138
434,7	134,795
435,1	140,71
435,6	146,424
436	150,738
436,5	159,795
436,9	164,167
437,4	169,738
437,8	178,51
438,3	187,795
438,8	198,167
439,2	205,31
439,7	209,967
440,1	217,224
440,6	226,367
441	235,681
441,5	242,995
441,9	249,767
442,4	258,795
442,8	269,652
443,3	280,967
443,7	285,195
444,2	295,652
444,7	311,538
445,1	330,538
445,6	345,11
446	359,91
446,5	374,51
446,9	401,824
447,4	421,881
447,8	434,995
448,3	447,738
448,7	467,538
449,2	483,938
449,6	501,567
450,1	513,967
450,6	536,138
451	560,338
451,5	589,71
451,9	610,081
452,4	632,652
452,8	657,424
453,3	678,538
453,7	697,881
454,2	718,681
454,6	734,595
455,1	761,595
455,5	791,452
456	819,31
456,4	852,652
456,9	885,252
457,3	916,424
457,8	947,995
458,3	976,424
458,7	1005,652
459,2	1036,024
459,6	1065,71
460,1	1094,167
460,5	1121,538
461	1155,224
461,4	1187,11
461,9	1218,767
462,3	1250,795
462,8	1292,338
463,2	1325,024
463,7	1366,71
464,1	1407,567
464,6	1443,995
465	1485,424
465,5	1526,51
466	1562,31
466,4	1607,052
466,9	1646,11
467,3	1681,938
467,8	1724,967
468,2	1765,338
468,7	1807,767
469,1	1848,11
469,6	1882,481
470	1926,052
470,5	1971,91
470,9	2012,852
471,4	2059,052
471,8	2096,71
472,3	2129,195
472,7	2173,024
473,2	2212,11
473,6	2249,452
474,1	2292,795
474,5	2327,11
475	2369,252
475,4	2418,367
475,9	2461,224
476,4	2501,052
476,8	2544,71
477,3	2583,452
477,7	2629,024
478,2	2671,738
478,6	2711,538
479,1	2752,824
479,5	2794,481
480	2830,452
480,4	2866,595
480,9	2897,538
481,3	2933,338
481,8	2965,738
482,2	2996,624
482,7	3028,652
483,1	3059,31
483,6	3093,91
484	3128,281
484,5	3160,081
484,9	3196,195
485,4	3227,281
485,8	3258,338
486,3	3289,652
486,7	3318,052
487,2	3346,995
487,6	3376,31
488,1	3397,452
488,5	3424,538
489	3454,995
489,4	3482,824
489,9	3504,652
490,4	3527,481
490,8	3545,852
491,3	3573,11
491,7	3599,767
492,2	3614,052
492,6	3634,652
493,1	3663,31
493,5	3679,624
494	3702,395
494,4	3710,424
494,9	3727,195
495,3	3742,052
495,8	3755,824
496,2	3769,138
496,7	3791,51
497,1	3804,052
497,6	3828,767
498	3840,167
498,5	3854,91
498,9	3869,681
499,4	3878,167
499,8	3884,138
500,3	3902,652
500,7	3909,538
501,2	3924,395
501,6	3933,852
502,1	3949,51
502,5	3958,91
503	3977,852
503,4	3982,424
503,9	3996,71
504,3	4000,767
504,8	4013,995
505,2	4023,995
505,7	4033,052
506,1	4031,367
506,6	4037,367
507	4046,795
507,5	4055,252
507,9	4067,338
508,4	4064,51
508,8	4074,51
509,3	4091,252
509,7	4100,624
510,2	4110,052
510,6	4113,881
511,1	4113,538
511,5	4124,967
512	4131,481
512,4	4133,538
512,9	4132,481
513,3	4134,338
513,8	4144,881
514,2	4153,967
514,7	4160,852
515,1	4165,024
515,6	4166,967
516	4176,31
516,5	4180,052
516,9	4187,195
517,4	4197,195
517,8	4205,195
518,3	4210,481
518,7	4221,538
519,2	4234,824
519,6	4242,567
520,1	4250,938
520,5	4250,138
521	4254,881
521,4	4265,567
521,9	4267,51
522,3	4265,652
522,8	4269,795
523,2	4273,452
523,7	4281,31
524,1	4287,738
524,6	4290,167
525	4303,881
525,5	4318,995
525,9	4328,395
526,4	4332,738
526,8	4341,024
527,3	4350,481
527,7	4361,11
528,2	4369,481
528,6	4380,681
529,1	4397,167
529,5	4408,138
530	4414,224
530,4	4422,31
530,9	4431,452
531,3	4435,338
531,8	4439,138
532,2	4436,395
532,6	4448,51
533,1	4459,11
533,5	4462,967
534	4468,281
534,4	4477,824
534,9	4488,938
535,3	4506,31
535,8	4519,624
536,2	4528,938
536,7	4537,31
537,1	4550,967
537,6	4557,624
538	4566,567
538,5	4570,767
538,9	4565,452
539,4	4576,595
539,8	4591,452
540,3	4600,481
540,7	4608,538
541,2	4617,281
541,6	4630,11
542,1	4646,11
542,5	4652,395
543	4654,967
543,4	4667,481
543,9	4681,167
544,3	4697,481
544,8	4706,995
545,2	4710,967
545,7	4724,31
546,1	4738,024
546,5	4736,795
547	4752,624
547,4	4757,71
547,9	4754,91
548,3	4774,252
548,8	4777,395
549,2	4785,795
549,7	4806,31
550,1	4810,31
550,6	4816,11
551	4833,567
551,5	4838,167
551,9	4852,652
552,4	4862,995
552,8	4875,11
553,3	4883,424
553,7	4890,938
554,2	4905,938
554,6	4919,51
555,1	4928,224
555,5	4935,338
555,9	4933,881
556,4	4943,11
556,8	4955,538
557,3	4956,338
557,7	4958,881
558,2	4966,138
558,6	4970,424
559,1	4980,452
559,5	4982,024
560	4983,167
560,4	4993,395
560,9	5002,195
561,3	5009,252
561,8	5013,51
562,2	5017,481
562,7	5024,424
563,1	5036,652
563,6	5039,424
564	5047,424
564,4	5055,195
564,9	5070,567
565,3	5078,967
565,8	5092,395
566,2	5092,081
566,7	5107,71
567,1	5111,367
567,6	5110,567
568	5105,995
568,5	5111,995
568,9	5111,481
569,4	5110,567
569,8	5106,024
570,3	5107,738
570,7	5109,681
571,1	5120,252
571,6	5119,138
572	5121,538
572,5	5122,91
572,9	5118,195
573,4	5115,081
573,8	5117,081
574,3	5117,281
574,7	5124,995
575,2	5118,824
575,6	5122,138
576,1	5128,11
576,5	5126,252
576,9	5120,824
577,4	5114,967
577,8	5104,91
578,3	5106,224
578,7	5097,538
579,2	5088,195
579,6	5090,252
580,1	5088,024
580,5	5083,595
581	5076,681
581,4	5070,452
581,9	5065,681
582,3	5059,652
582,7	5049,881
583,2	5043,338
583,6	5029,767
584,1	5016,881
584,5	5011,167
585	5005,052
585,4	4997,481
585,9	4989,824
586,3	4982,024
586,8	4978,767
587,2	4974,224
587,6	4967,767
588,1	4957,052
588,5	4951,11
589	4940,167
589,4	4930,452
589,9	4926,681
590,3	4921,738
590,8	4905,567
591,2	4905,51
591,7	4891,51
592,1	4893,452
592,5	4891,538
593	4883,481
593,4	4871,967
593,9	4868,624
594,3	4857,795
594,8	4860,767
595,2	4846,452
595,7	4834,681
596,1	4825,595
596,6	4821,367
597	4817,881
597,4	4813,452
597,9	4805,31
598,3	4794,024
598,8	4790,367
599,2	4786,11
599,7	4776,595
600,1	4767,681
600,6	4758,367
601	4746,91
601,4	4743,138
601,9	4727,538
602,3	4706,138
602,8	4695,967
603,2	4679,995
603,7	4666,71
604,1	4653,424
604,6	4637,081
605	4637,681
605,4	4630,767
605,9	4621,195
606,3	4614,595
606,8	4602,338
607,2	4589,595
607,7	4579,967
608,1	4561,881
608,6	4544,424
609	4532,338
609,4	4511,652
609,9	4500,567
610,3	4480,052
610,8	4467,995
611,2	4444,967
611,7	4436,052
612,1	4410,71
612,6	4399,967
613	4372,767
613,4	4369,881
613,9	4343,681
614,3	4336,195
614,8	4314,338
615,2	4298,852
615,7	4289,395
616,1	4280,595
616,6	4255,567
617	4245,938
617,4	4223,567
617,9	4217,081
618,3	4208,738
618,8	4188,795
619,2	4173,624
619,7	4160,652
620,1	4142,252
620,5	4122,252
621	4100,138
621,4	4082,281
621,9	4060,91
622,3	4040,424
622,8	4012,452
623,2	3998,795
623,6	3986,767
624,1	3967,224
624,5	3944,652
625	3926,424
625,4	3912,881
625,9	3906,167
626,3	3887,024
626,8	3869,281
627,2	3858,967
627,6	3847,452
628,1	3825,852
628,5	3805,11
629	3783,024
629,4	3765,052
629,9	3747,281
630,3	3723,11
630,7	3700,167
631,2	3684,624
631,6	3666,252
632,1	3649,167
632,5	3626,31
633	3604,967
633,4	3584,852
633,8	3572,538
634,3	3553,938
634,7	3536,367
635,2	3515,367
635,6	3502,281
636,1	3485,31
636,5	3467,424
636,9	3443,538
637,4	3431,367
637,8	3415,167
638,3	3402,481
638,7	3379,224
639,2	3357,224
639,6	3343,767
640	3322,081
640,5	3299,024
640,9	3276,938
641,4	3258,281
641,8	3246,052
642,2	3235,281
642,7	3217,624
643,1	3210,052
643,6	3198,567
644	3188,224
644,5	3177,938
644,9	3163,338
645,3	3146,967
645,8	3131,252
646,2	3112,395
646,7	3084,481
647,1	3065,852
647,6	3044,081
648	3023,567
648,4	3001,852
648,9	2990,652
649,3	2970,452
649,8	2966,31
650,2	2953,052
650,6	2940,967
651,1	2924,452
651,5	2910,367
652	2893,881
652,4	2878,51
652,9	2860,281
653,3	2843,338
653,7	2831,595
654,2	2821,652
654,6	2809,224
655,1	2786,338
655,5	2774,51
655,9	2759,538
656,4	2746,167
656,8	2720,11
657,3	2702,195
657,7	2689,395
658,2	2676,252
658,6	2657,738
659	2641,052
659,5	2623,195
659,9	2609,452
660,4	2595,195
660,8	2579,824
661,2	2564,938
661,7	2551,567
662,1	2537,681
662,6	2521,452
663	2504,91
663,4	2489,424
663,9	2472,795
664,3	2459,681
664,8	2442,424
665,2	2425,738
665,6	2407,652
666,1	2395,538
666,5	2379,224
667	2363,567
667,4	2344,51
667,9	2337,967
668,3	2317,195
668,7	2302,681
669,2	2283,881
669,6	2268,138
670,1	2252,624
670,5	2241,452
670,9	2220,938
671,4	2210,795
671,8	2198,681
672,3	2185,681
672,7	2173,51
673,1	2157,224
673,6	2141,51
674	2125,738
674,5	2107,967
674,9	2089,767
675,3	2078,338
675,8	2058,624
676,2	2043,938
676,7	2030,081
677,1	2017,538
677,5	2008,281
678	2003,91
678,4	1989,71
678,9	1987,452
679,3	1982,024
679,7	1972,138
680,2	1960,652
680,6	1951,452
681,1	1937,252
681,5	1923,31
681,9	1902,11
682,4	1886,91
682,8	1870,71
683,3	1861,995
683,7	1848,567
684,1	1830,081
684,6	1817,024
685	1807,881
685,5	1792,395
685,9	1783,11
686,3	1770,224
686,8	1758,024
687,2	1747,881
687,7	1742,681
688,1	1727,767
688,5	1717,481
689	1704,881
689,4	1692,595
689,9	1680,91
690,3	1674,224
690,7	1660,31
691,2	1649,167
691,6	1642,424
692	1625,31
692,5	1612,681
692,9	1598,11
693,4	1581,452
693,8	1573,424
694,2	1566,824
694,7	1552,024
695,1	1545,481
695,6	1534,195
696	1524,51
696,4	1519,967
696,9	1504,738
697,3	1494,938
697,8	1484,738
698,2	1473,052
698,6	1461,681
699,1	1457,395
699,5	1442,995
699,9	1438,481
700,4	1426,995
700,8	1418,595
701,3	1412,31
701,7	1405,424
702,1	1393,052
702,6	1383,367
703	1372,71
703,5	1362,51
703,9	1345,652
704,3	1332,824
704,8	1325,252
705,2	1315,881
705,6	1308,71
706,1	1297,367
706,5	1289,881
707	1290,11
707,4	1287,881
707,8	1273,652
708,3	1264,71
708,7	1255,567
709,2	1249,938
709,6	1242,71
710	1231,652
710,5	1218,91
710,9	1212,338
711,3	1202,024
711,8	1193,51
712,2	1181,052
712,7	1169,138
713,1	1162,452
713,5	1154,567
714	1148,138
714,4	1140,11
714,8	1133,795
715,3	1125,681
715,7	1117,11
716,2	1108,281
716,6	1095,91
717	1086,595
717,5	1073,424
717,9	1065,852
718,3	1056,624
718,8	1055,91
719,2	1048,224
719,7	1043,681
720,1	1036,252
720,5	1033,567
721	1019,852
721,4	1015,167
721,8	1002,224
722,3	995,795
722,7	985,195
723,2	975,395
723,6	965,738
724	957,338
724,5	942,795
724,9	940,567
725,3	925,31
725,8	923,681
726,2	914,51
726,7	912,852
727,1	910,395
727,5	909,995
728	895,681
728,4	895,481
728,8	884,195
729,3	879,652
729,7	871,91
730,1	866,395
730,6	857,052
731	850,481
731,5	842,167
731,9	837,995
732,3	836,51
732,8	832,395
733,2	825,852
733,6	826,938
734,1	827,91
734,5	831,195
734,9	825,995
735,4	817,995
735,8	807,567
736,3	804,538
736,7	794,852
737,1	788,138
737,6	773,51
738	771,567
738,4	765,195
738,9	764,967
739,3	757,824
739,7	752,624
740,2	749,652
740,6	748,652
741,1	741,31
741,5	739,338
741,9	733,852
742,4	727,138
742,8	724,938
743,2	720,738
743,7	714,652
744,1	709,481
744,5	707,281
745	700,852
745,4	703,767
745,8	695,538
746,3	690,681
746,7	686,395
747,2	681,795
747,6	675,195
748	671,595
748,5	659,852
748,9	657,624
749,3	646,938
749,8	641,51
750,2	635,567
750,6	637,538
751,1	630,395
751,5	628,881
751,9	624,31
752,4	621,881
752,8	617,938
753,3	617,081
753,7	601,938
754,1	596,567
754,6	592,938
755	589,081
755,4	584,995
755,9	580,452
756,3	576,281
756,7	573,481
757,2	572,424
757,6	565,71
758	559,395
758,5	558,624
758,9	554,795
759,3	545,652
759,8	541,91
760,2	535,481
760,6	533,824
761,1	527,938
761,5	527,367
761,9	523,367
762,4	524,024
762,8	522,424
763,3	520,538
763,7	512,395
764,1	516,567
764,6	504,852
765	501,967
765,4	497,481
765,9	496,081
766,3	495,081
766,7	494,938
767,2	489,624
767,6	491,881
768	492,338
768,5	488,738
768,9	485,024
769,3	478,967
769,8	479,681
770,2	473,052
770,6	468,567
771,1	463,824
771,5	462,767
771,9	462,624
772,4	461,938
772,8	455,11
773,2	455,195
773,7	447,024
774,1	444,052
774,5	436,852
775	425,024
775,4	417,767
775,8	415,91
776,3	408,71
776,7	404,167
777,1	397,738
777,6	392,767
778	391,738
778,4	394,881
778,9	387,424
779,3	386,424
779,7	388,881
780,2	393,024
780,6	390,51
781	389,852
781,5	382,967
781,9	385,424
782,3	386,081
782,8	386,538
783,2	378,395
783,6	378,681
784,1	376,538
784,5	375,024
784,9	369,081
785,4	361,367
785,8	352,081
786,2	347,824
786,7	347,767
787,1	344,967
787,5	343,881
788	342,224
788,4	343,195
788,8	340,367
789,3	335,31
789,7	332,395
790,1	328,71
790,6	325,567
791	323,224
791,4	320,367
791,9	320,081
792,3	321,595
792,7	315,252
793,2	315,967
793,6	315,195
794	312,767
794,5	310,195
794,9	310,452
795,3	309,51
795,8	309,538
796,2	305,052
796,6	303,252
797,1	295,538
797,5	293,452
797,9	292,167
798,4	286,052
798,8	284,281
799,2	282,367
799,7	276,538
800,1	278,481
800,5	272,767
801	264,91
801,4	270,081
801,8	264,681
802,2	263,11
802,7	263,595
803,1	267,195
803,5	269,167
804	265,252
804,4	260,31
804,8	261,967
805,3	262,138
805,7	259,367
806,1	250,081
806,6	243,452
807	240,91
807,4	238,795
807,9	235,967
808,3	230,452
808,7	223,024
809,2	226,252
809,6	225,252
810	225,538
810,4	219,367
810,9	217,538
811,3	219,767
811,7	224,395
812,2	218,281
812,6	215,138
813	216,624
813,5	211,91
813,9	209,424
814,3	203,51
814,8	200,995
815,2	203,852
815,6	203,11
816,1	198,595
816,5	205,224
816,9	203,081
817,3	203,081
817,8	203,024
818,2	199,424
818,6	199,081
819,1	203,481
819,5	194,767
819,9	193,281
820,4	189,538
820,8	183,31
821,2	180,452
821,7	181,11
822,1	173,338
822,5	177,995
822,9	178,367
823,4	181,252
823,8	180,224
824,2	181,567
824,7	179,481
825,1	178,967
825,5	172,481
826	170,252
826,4	163,681
826,8	165,338
827,3	166,481
827,7	165,967
828,1	168,424
828,5	168,938
829	170,138
829,4	167,281
829,8	163,252
830,3	155,338
830,7	149,138
831,1	144,995
831,6	143,995
832	142,452
832,4	147,652
832,8	142,224
833,3	143,51
833,7	144,281
834,1	145,138
834,6	144,652
835	147,31
835,4	142,167
835,8	145,138
836,3	144,31
836,7	147,367
837,1	144,652
837,6	142,795
838	132,595
838,4	133,081
838,9	130,767
839,3	135,652
839,7	135,167
840,1	132,795
840,6	133,452
841	139,681
841,4	137,367
841,9	137,624
842,3	129,424
842,7	121,595
843,1	121,71
843,6	120,595
844	117,795
844,4	117,452
844,9	114,938
845,3	115,652
845,7	117,252
846,2	114,167
846,6	111,481
847	107,081
847,4	101,224
847,9	100,338
848,3	99,881
848,7	98,481
849,2	103,024
849,6	100,538
850	104,367
850,4	111,367
850,9	112,538
851,3	114,767
851,7	116,595
852,2	114,652
852,6	112,024
853	103,91
853,4	94,31
853,9	86,995
854,3	83,081
854,7	81,652
855,2	79,824
855,6	83,167
856	87,652
856,4	92,91
856,9	96,51
857,3	91,624
857,7	89,567
858,2	84,71
858,6	80,995
859	74,252
859,4	74,652
859,9	76,738
860,3	78,681
860,7	78,281
861,1	82,767
861,6	89,31
862	90,995
862,4	87,681
862,9	88,624
863,3	86,967
863,7	86,224
864,1	80,795
864,6	78,681
865	82,852
865,4	82,595
865,9	75,595
866,3	77,052
866,7	79,595
867,1	76,71
867,6	73,91
868	74,024
868,4	73,167
868,8	73,11
869,3	70,767
869,7	65,71
870,1	71,367
870,6	64,881
871	60,11
871,4	59,567
871,8	62,024
872,3	60,967
872,7	62,681
873,1	58,624
873,5	65,081
874	58,795
874,4	57,91
874,8	61,31
875,3	63,881
875,7	60,367
876,1	57,795
876,5	54,11
877	57,681
877,4	58,91
877,8	54,91
878,2	50,538
878,7	55,395
879,1	56,624
879,5	50,452
879,9	53,452
880,4	54,681
880,8	54,567
881,2	55,367
881,7	51,11
882,1	52,395
882,5	60,71
882,9	57,31
883,4	56,252
883,8	56,681
884,2	53,767
884,6	53,995
885,1	53,824
885,5	50,767
885,9	52,195
886,3	50,824
886,8	45,595
887,2	46,995
887,6	45,138
888	46,51
888,5	46,281
888,9	47,195
889,3	44,91
889,8	49,567
890,2	48,338
890,6	47,652
891	42,852
891,5	43,395
891,9	42,252
892,3	42,71
892,7	43,424
893,2	42,31
893,6	43,31
894	44,938
894,4	43,195
894,9	41,795
895,3	41,11
895,7	35,767
896,1	37,624
896,6	37,938
897	37,738
897,4	38,824
897,8	37,595
898,3	39,024
898,7	38,51
899,1	34,424
899,5	33,71
900	32,195
900,4	33,052
900,8	32,567
901,2	31,71
901,7	30,367
902,1	38,138
902,5	37,395
902,9	37,938
903,4	36,081
903,8	38,967
904,2	36,167
904,6	37,31
905,1	35,481
905,5	33,252
905,9	31,452
906,3	27,538
906,8	24,624
907,2	20,481
907,6	24,624
908	18,881
908,5	23,081
908,9	24,481
909,3	26,11
909,7	28,081
910,2	34,052
910,6	26,595
911	25,11
911,4	22,195
911,9	19,681
912,3	17,995
912,7	11,024
913,1	9,31
913,6	11,281
914	14,395
914,4	12,338
914,8	15,938
915,3	16,624
915,7	24,795
916,1	26,652
916,5	28,51
916,9	27,995
917,4	33,338
917,8	26,138
918,2	30,481
918,6	28,71
919,1	28,024
919,5	28,681
919,9	29,71
920,3	22,31
920,8	27,167
921,2	23,024
921,6	22,567
922	21,852
922,5	21,167
922,9	23,167
923,3	28,71
923,7	29,224
924,2	27,71
924,6	27,881
925	26,595
925,4	28,481
925,8	27,481
926,3	26,852
926,7	29,652
927,1	34,424
927,5	34,338
928	31,338
928,4	29,31
928,8	28,795
929,2	26,795
929,7	25,481
930,1	21,738
930,5	21,338
930,9	18,595
931,3	19,881
931,8	17,624
932,2	20,967
932,6	16,681
933	16,338
933,5	20,452
933,9	24,31
934,3	22,738
934,7	19,595
935,2	20,681
935,6	21,252
936	19,538
936,4	17,167
936,8	16,91
937,3	15,795
937,7	16,967
938,1	9,938
938,5	10,767
939	11,424
939,4	5,881
939,8	8,767
940,2	5,252
940,6	6,681
941,1	8,452
941,5	9,624
941,9	13,11
942,3	8,795
942,8	9,052
943,2	14,824
943,6	16,338
944	14,138
944,4	12,595
944,9	11,995
945,3	17,081
945,7	16,767
946,1	12,967
946,6	12,995
947	14,138
947,4	11,995
947,8	14,51
948,2	14,452
948,7	6,51
949,1	8,738
949,5	6,91
949,9	3,51
950,3	6,452
950,8	3,652
951,2	2,224
951,6	9,367
952	8,31
952,5	5,795
952,9	10,167
953,3	7,852
953,7	8,224
954,1	7,824
954,6	5,567
955	5,652
955,4	11,967
955,8	12,995
956,2	13,252
956,7	15,538
957,1	15,995
957,5	16,195
957,9	15,424
958,3	12,138
958,8	8,624
959,2	8,367
959,6	4,367
960	9,795
960,5	6,795
960,9	6,938
961,3	8,167
961,7	5,081
962,1	6,767
962,6	6,052
963	1,852
963,4	4,595
963,8	4,081
964,2	1,567
964,7	5,081
965,1	-1,433
965,5	1,167
965,9	0,995
966,3	0,795
966,8	1,967
967,2	-1,205
967,6	-0,576
968	2,195
968,4	-2,433
968,9	-1,948
969,3	-0,605
969,7	-2,662
970,1	-1,605
970,5	-0,433
971	0,824
971,4	3,91
971,8	-0,033
972,2	3,452
972,6	7,452
973,1	7,595
973,5	7,11
973,9	7,681
974,3	8,224
974,7	9,795
975,2	6,281
975,6	2,71
976	7,795
976,4	5,367
976,8	2,995
977,3	2,338
977,7	3,767
978,1	2,71
978,5	2,71
978,9	-4,662
979,4	-4,405
979,8	-0,519
980,2	-5,89
980,6	-3,205
981	-2,405
981,5	-1,348
981,9	-0,805
982,3	3,995
982,7	1,652
983,1	4,967
983,6	1,852
984	-0,462
984,4	-1,176
984,8	6,795
985,2	1,338
985,6	3,11
986,1	5,138
986,5	5,052
986,9	5,481
987,3	4,138
987,7	0,281
988,2	1,452
988,6	1,967
989	-2,176
989,4	1,795
989,8	2,595
990,3	2,395
990,7	5,91
991,1	9,452
991,5	9,195
991,9	7,881
992,3	2,367
992,8	1,31
993,2	2,738
993,6	-1,062
994	-2,976
994,4	1,824
994,9	8,252
995,3	14,481
995,7	12,967
996,1	11,195
996,5	9,824
996,9	6,71
997,4	-0,862
997,8	-0,633
998,2	-7,833
998,6	-4,719
999	-2,062
999,5	-4,833
999,9	-2,776
1000,3	-0,005
1000,7	0,938
1001,1	0,71
1001,5	2,11
1002	1,824
1002,4	7,71
1002,8	8,852
1003,2	5,967
1003,6	1,767
1004	3,338
1004,5	-0,49
1004,9	-3,519
1005,3	-7,262
1005,7	-10,633
1006,1	-9,262
1006,6	-9,948
1007	-8,205
1007,4	-9,262
1007,8	-1,205
1008,2	1,71
1008,6	3,624
1009,1	6,767
1009,5	6,395
1009,9	5,824
1010,3	5,538
1010,7	0,71
1011,1	1,024
1011,6	2,11
1012	2,281
1012,4	9,081
1012,8	9,738
1013,2	17,138
1013,6	18,424
1014,1	16,595
1014,5	16,567
1014,9	16,281
1015,3	12,024
1015,7	12,224
1016,1	5,881
1016,6	2,195
1017	4,567
1017,4	1,938
1017,8	-1,548
1018,2	-3,119
1018,6	-5,576
1019,1	-8,862
1019,5	-4,69
1019,9	-4,748
1020,3	-2,405
1020,7	-0,49
1021,1	0,11
1021,6	-1,719
1022	6,767
1022,4	6,024
1022,8	3,852
1023,2	3,738
1023,6	0,424
1024,1	-0,319
1024,5	2,738
1024,9	0,938
1025,3	-2,576
1025,7	0,424
1026,1	5,052
1026,6	11,367
1027	11,395
1027,4	14,367
1027,8	10,595
1028,2	8,538
1028,6	7,31
1029	3,338
1029,5	0,281
1029,9	2,224
1030,3	2,538
1030,7	5,167
1031,1	10,624
1031,5	12,167
1032	10,567
1032,4	14,91
1032,8	15,452
1033,2	13,052
1033,6	12,71
1034	10,395
1034,4	8,795
1034,9	13,824
1035,3	9,938
1035,7	7,967
1036,1	6,538
1036,5	8,767
1036,9	10,338
1037,4	11,424
1037,8	10,224
1038,2	9,024
1038,6	10,081
1039	15,081
1039,4	15,767
1039,8	8,167
1040,3	9,71
1040,7	5,31
1041,1	4,938
1041,5	6,967
1041,9	2,281
1042,3	-0,633
1042,7	6,024
1043,2	4,052
1043,6	12,338
1044	13,138
1044,4	9,881
1044,8	13,567
1045,2	17,824
1045,6	18,538
1046,1	14,71
1046,5	8,967
1046,9	9,452
1047,3	12,481
1047,7	12,138
1048,1	7,967
1048,5	8,624
1049	14,51
1049,4	16,252
1049,8	11,967
1050,2	9,767
1050,6	6,367
1051	7,51
1051,4	5,652
1051,9	2,281
1052,3	1,081
1052,7	7,452
1053,1	4,338
1053,5	5,167
1053,9	6,595
1054,3	3,052
1054,8	1,481
1055,2	-0,919
1055,6	1,652
1056	3,195
1056,4	8,424
1056,8	8,624
1057,2	14,081
1057,6	13,824
1058,1	15,595
1058,5	7,224
1058,9	7,081
1059,3	5,252
1059,7	3,71
1060,1	2,052
1060,5	1,195
1061	-0,948
1061,4	5,452
1061,8	5,852
1062,2	2,338
1062,6	2,338
1063	3,224
1063,4	2,024
1063,8	5,252
1064,3	-1,09
1064,7	-1,09
1065,1	-1,319
1065,5	-0,462
1065,9	1,052
1066,3	1,91
1066,7	-0,776
1067,1	0,052
1067,6	-0,319
1068	3,738
1068,4	1,995
1068,8	-6,348
1069,2	-4,005
1069,6	-5,49
1070	-2,605
1070,4	-0,09
1070,9	-4,69
1071,3	0,452
1071,7	7,367
1072,1	7,967
1072,5	10,595
1072,9	7,881
1073,3	5,595
1073,7	8,367
1074,2	2,452
1074,6	0,881
1075	-0,462
1075,4	-1,948
1075,8	0,081
1076,2	2,538
1076,6	2,138
1077	-0,976
1077,5	-2,205
1077,9	-1,605
1078,3	-1,548
1078,7	-4,948
1079,1	-2,49
1079,5	-8,919
1079,9	-7,662
1080,3	-5,719
1080,7	-1,605
1081,2	0,995
1081,6	0,681
1082	-3,548
1082,4	-3,748
1082,8	-5,205
1083,2	-4,29
1083,6	-6,205
1084	-5,49
1084,5	-0,09
1084,9	-5,119
1085,3	2,11
1085,7	8,938
1086,1	8,395
1086,5	1,681
1086,9	-1,005
1087,3	-4,919
1087,7	0,624
1088,2	1,167
1088,6	-4,09
1089	-5,833
1089,4	-2,976
1089,8	-5,29
1090,2	-8,062
1090,6	-7,948
1091	-10,148
1091,4	-7,548
1091,9	-5,833
1092,3	-2,262
1092,7	0,481
1093,1	3,91
1093,5	5,024
1093,9	6,767
1094,3	6,224
1094,7	3,595
1095,1	1,767
1095,5	-1,405
1096	-0,719
1096,4	-1,176
1096,8	-2,605
1097,2	-0,348
1097,6	5,967
1098	8,224
1098,4	9,138
1098,8	9,024
1099,2	7,91
1099,6	5,452
1100,1	3,424
1100,5	-1,29
1100,9	-0,09
1101,3	0,995
1101,7	1,138
1102,1	4,195
1102,5	2,71
1102,9	1,71
1103,3	2,424
1103,7	-3,776
1104,2	-2,319
1104,6	2,795
1105	3,367
1105,4	7,681
1105,8	8,738
1106,2	8,252
1106,6	10,595
1107	10,081
1107,4	6,267
1107,8	2,247
1108,3	0,717
