Data from Subt2_00095.txt Node
Date: Mon Aug 28 13:35:16 MSK 2023
User: vat
Spectrometer: MAYP114033
Trigger mode: 0
Integration Time (sec): 1,000000E0
Scans to average: 5
Electric dark correction enabled: true
Nonlinearity correction enabled: false
Boxcar width: 3
XAxis mode: Wavelengths
Number of Pixels in Spectrum: 2068
>>>>>Begin Spectral Data<<<<<
199,4	-0,1
199,9	-2,82
200,4	-0,3
200,8	2,129
201,3	4,414
201,8	6,1
202,2	6,729
202,7	8,186
203,2	13,471
203,6	16,529
204,1	15,329
204,6	13,557
205	14,929
205,5	13,843
206	14,443
206,4	11,471
206,9	9,814
207,4	7,557
207,8	9,329
208,3	6,643
208,8	6,929
209,2	8,157
209,7	10,957
210,2	10,414
210,6	12,157
211,1	14,129
211,5	14,871
212	17,357
212,5	15,843
212,9	11,043
213,4	10,586
213,9	10,529
214,3	11,157
214,8	11,129
215,3	10,586
215,7	8,329
216,2	9,957
216,7	14,3
217,1	12,071
217,6	11,957
218,1	12,729
218,5	12,7
219	16,129
219,5	19,957
219,9	14,7
220,4	25,014
220,9	18,557
221,3	18,214
221,8	15,471
222,3	17,157
222,7	18,5
223,2	12,329
223,6	4,957
224,1	13,071
224,6	15,129
225	18,386
225,5	13,757
226	8,529
226,4	17,871
226,9	20,214
227,4	22,271
227,8	20,929
228,3	14,586
228,8	14,814
229,2	18,786
229,7	17,214
230,2	17,214
230,6	12,3
231,1	11,414
231,5	20,757
232	20,586
232,5	16,729
232,9	19,871
233,4	18,414
233,9	19,014
234,3	22,814
234,8	18,071
235,3	22,9
235,7	24,386
236,2	20,443
236,7	17,243
237,1	18,329
237,6	16,757
238,1	18,843
238,5	16,357
239	17,157
239,4	18,843
239,9	22,071
240,4	14,957
240,8	15,214
241,3	16,929
241,8	14,3
242,2	11,5
242,7	9,757
243,2	10,643
243,6	18,757
244,1	18,757
244,6	12,814
245	14,129
245,5	15,271
245,9	17,386
246,4	16,186
246,9	12,186
247,3	11,7
247,8	12,757
248,3	15,843
248,7	15,129
249,2	15,729
249,7	18,3
250,1	15,671
250,6	12,929
251	12,986
251,5	13,414
252	13,414
252,4	10,586
252,9	9,1
253,4	12,043
253,8	12,443
254,3	14,1
254,8	11,529
255,2	10,271
255,7	10,614
256,1	6,843
256,6	6,814
257,1	8,157
257,5	6,186
258	2,129
258,5	6,614
258,9	1,929
259,4	2,414
259,9	2,443
260,3	2,329
260,8	1,871
261,2	10,329
261,7	13,557
262,2	17,129
262,6	22,386
263,1	20,986
263,6	18,386
264	23,129
264,5	18,5
264,9	12,1
265,4	11,786
265,9	8,157
266,3	6,071
266,8	10,614
267,3	10,186
267,7	7,7
268,2	6,671
268,7	9,443
269,1	6,757
269,6	10,7
270	0,871
270,5	5,986
271	3,586
271,4	5,043
271,9	-2,3
272,4	3,014
272,8	1,957
273,3	8,986
273,7	3,014
274,2	4,729
274,7	8,957
275,1	15,557
275,6	16,757
276,1	14,186
276,5	13,929
277	14,786
277,4	18,671
277,9	15,586
278,4	12,157
278,8	7,729
279,3	10,871
279,8	14,414
280,2	13,843
280,7	12,671
281,1	8,843
281,6	10,843
282,1	10,757
282,5	11,3
283	8,929
283,4	8,957
283,9	7,5
284,4	9,929
284,8	8,871
285,3	8,329
285,8	5,586
286,2	3,814
286,7	6,271
287,1	5,786
287,6	5,329
288,1	6,414
288,5	6,957
289	11,471
289,5	12,871
289,9	10,043
290,4	11,043
290,8	14,471
291,3	18,786
291,8	17,786
292,2	15,243
292,7	15,186
293,1	17,957
293,6	19,243
294,1	18,443
294,5	12,071
295	16,014
295,5	14,157
295,9	10,929
296,4	7,529
296,8	7,614
297,3	8,929
297,8	12,643
298,2	12,5
298,7	15,929
299,1	17,471
299,6	15,386
300,1	16,329
300,5	14,414
301	13,5
301,5	10,329
301,9	7,929
302,4	8,443
302,8	12,671
303,3	13,957
303,8	14,5
304,2	14,129
304,7	12,614
305,1	11,671
305,6	12,871
306,1	8,843
306,5	1,843
307	-0,786
307,4	-5,443
307,9	-4,014
308,4	-6,786
308,8	-3,471
309,3	1,214
309,8	3,786
310,2	2,7
310,7	4,729
311,1	4,814
311,6	9,871
312,1	4,586
312,5	2,386
313	4,614
313,4	11,043
313,9	10,986
314,4	11,243
314,8	14,986
315,3	23,129
315,7	24,586
316,2	22,214
316,7	21,386
317,1	24,243
317,6	25,814
318	19,729
318,5	14,243
319	12,786
319,4	18,957
319,9	13,386
320,3	14,386
320,8	13,329
321,3	10,729
321,7	10,043
322,2	8,386
322,6	9,129
323,1	9,614
323,6	9,957
324	8,729
324,5	16,186
324,9	18,443
325,4	17,843
325,9	13,043
326,3	11,186
326,8	10,786
327,2	8,729
327,7	4,557
328,2	8,957
328,6	13,157
329,1	10,271
329,5	15,157
330	14,043
330,5	20,643
330,9	19,9
331,4	12,671
331,8	8,214
332,3	13,3
332,8	9,214
333,2	8,786
333,7	2,071
334,1	-2,471
334,6	-5,186
335,1	-2,786
335,5	-6,357
336	-2,414
336,4	-2,814
336,9	2,014
337,4	4,929
337,8	7,586
338,3	9,614
338,7	11,243
339,2	8,586
339,7	6,957
340,1	4,729
340,6	7,529
341	7,5
341,5	5,757
342	4,386
342,4	0,557
342,9	5,357
343,3	7,529
343,8	8,214
344,2	13,443
344,7	10,9
345,2	8,586
345,6	11,557
346,1	6,443
346,5	7,186
347	2,729
347,5	1,014
347,9	1,757
348,4	8,529
348,8	11,957
349,3	15,014
349,8	11,814
350,2	14,329
350,7	14,9
351,1	16,757
351,6	12,1
352	14,014
352,5	18,7
353	25,243
353,4	29,443
353,9	38,529
354,3	50,729
354,8	54,929
355,3	66,157
355,7	77,643
356,2	92,9
356,6	111,5
357,1	123,014
357,5	138,3
358	171,071
358,5	190,757
358,9	215,157
359,4	245,043
359,8	279,871
360,3	314,557
360,8	361,386
361,2	407,414
361,7	466,357
362,1	526,586
362,6	593,786
363	667,614
363,5	751,186
364	831,329
364,4	914,386
364,9	994,643
365,3	1078,129
365,8	1160,357
366,3	1233,3
366,7	1293,7
367,2	1346,9
367,6	1394,1
368,1	1431,614
368,5	1458,871
369	1464,729
369,5	1467,186
369,9	1465,471
370,4	1443,529
370,8	1409,929
371,3	1372,5
371,7	1320,3
372,2	1268,443
372,7	1205,529
373,1	1143,271
373,6	1079,1
374	1013,843
374,5	945,471
374,9	882,386
375,4	819,443
375,9	763,214
376,3	694,014
376,8	640,729
377,2	592,786
377,7	549,271
378,2	507,529
378,6	466,729
379,1	418,814
379,5	389,7
380	354,871
380,4	322,871
380,9	293,3
381,4	266,1
381,8	247,243
382,3	234,043
382,7	218,243
383,2	203,357
383,6	192,9
384,1	181,814
384,6	172,5
385	157,986
385,5	148,9
385,9	139,7
386,4	135,9
386,8	126,814
387,3	116,957
387,7	110,7
388,2	104,786
388,7	97,557
389,1	90,614
389,6	89,157
390	83,9
390,5	79,243
390,9	73,586
391,4	68,443
391,9	63,786
392,3	65,014
392,8	57,786
393,2	59,071
393,7	62,071
394,1	60,3
394,6	62,643
395,1	66,586
395,5	61,157
396	61,014
396,4	51,443
396,9	48,671
397,3	50,471
397,8	45,757
398,2	37,986
398,7	33,271
399,2	29,586
399,6	32,443
400,1	27,9
400,5	24,214
401	32,471
401,4	32,957
401,9	37,786
402,4	36,643
402,8	45,729
403,3	49,5
403,7	48,5
404,2	39,786
404,6	41,5
405,1	43,614
405,5	44,986
406	39,357
406,5	36,357
406,9	43,157
407,4	42,929
407,8	43,786
408,3	40,1
408,7	37,129
409,2	31,443
409,6	32,929
410,1	31,986
410,6	32,214
411	33,643
411,5	36,614
411,9	38,414
412,4	46,243
412,8	47,414
413,3	40,529
413,7	42,843
414,2	43,357
414,7	42,5
415,1	45,729
415,6	45,414
416	47,614
416,5	57,614
416,9	60,671
417,4	63,1
417,8	66,271
418,3	68,157
418,8	65,871
419,2	69,7
419,7	67,014
420,1	65,129
420,6	67,814
421	71,3
421,5	71,871
421,9	70,986
422,4	68,557
422,8	69,557
423,3	72,7
423,8	69,157
424,2	64,129
424,7	67,243
425,1	68,014
425,6	69,157
426	69,757
426,5	68,9
426,9	70,814
427,4	74,329
427,9	67,871
428,3	68,929
428,8	66,529
429,2	60,757
429,7	58,9
430,1	54,414
430,6	45,1
431	44,557
431,5	41,357
431,9	38,614
432,4	36,871
432,8	37,671
433,3	37,786
433,8	43,386
434,2	44,529
434,7	41,871
435,1	44,529
435,6	44,843
436	39,814
436,5	38,786
436,9	36,471
437,4	37,043
437,8	38,014
438,3	38,043
438,8	41,5
439,2	43,671
439,7	44,871
440,1	44,129
440,6	45,271
441	44,071
441,5	38,929
441,9	36,414
442,4	36,414
442,8	33,871
443,3	35,671
443,7	27,843
444,2	33,186
444,7	34,043
445,1	35,671
445,6	36,5
446	38,329
446,5	37,271
446,9	45,414
447,4	45,357
447,8	48,3
448,3	49,471
448,7	49,329
449,2	48,814
449,6	51,271
450,1	49,186
450,6	50,786
451	54,3
451,5	59,929
451,9	64,243
452,4	66,671
452,8	66,643
453,3	65,786
453,7	66,957
454,2	63,843
454,6	61,586
455,1	64,729
455,5	65,5
456	70,386
456,4	72,757
456,9	76,871
457,3	82,529
457,8	84,814
458,3	82,386
458,7	89,9
459,2	92,814
459,6	99,357
460,1	101,414
460,5	102,929
461	105,1
461,4	107,471
461,9	104,843
462,3	108,214
462,8	110,129
463,2	108,3
463,7	111,929
464,1	116,757
464,6	119,586
465	125,386
465,5	125,043
466	129,7
466,4	135,271
466,9	139,5
467,3	141,271
467,8	149,957
468,2	154,471
468,7	161,329
469,1	166,586
469,6	167,243
470	170,814
470,5	172,471
470,9	174,043
471,4	177,786
471,8	182,157
472,3	182,157
472,7	190,014
473,2	197,071
473,6	201,471
474,1	201,129
474,5	203,557
475	200,9
475,4	206,043
475,9	209,871
476,4	209,071
476,8	213,329
477,3	219,643
477,7	224,586
478,2	232,443
478,6	237,614
479,1	245,814
479,5	253,5
480	259,329
480,4	267,186
480,9	269,7
481,3	274,729
481,8	275,071
482,2	270,929
482,7	276,786
483,1	273,443
483,6	273,843
484	277,671
484,5	279,3
484,9	287,871
485,4	295,614
485,8	293,529
486,3	299,671
486,7	302,014
487,2	310,357
487,6	312,614
488,1	313,814
488,5	313,3
489	316,814
489,4	326,043
489,9	325,386
490,4	321,414
490,8	321,9
491,3	321,329
491,7	323,729
492,2	325,043
492,6	322,386
493,1	327,329
493,5	327,843
494	339,871
494,4	338,614
494,9	342,643
495,3	339,414
495,8	340,814
496,2	343,986
496,7	353,586
497,1	346,643
497,6	351,186
498	354,557
498,5	365,1
498,9	365,986
499,4	363,843
499,8	360,729
500,3	367,643
500,7	367,529
501,2	367,443
501,6	364,843
502,1	369,786
502,5	373,329
503	374,214
503,4	373,871
503,9	378,7
504,3	383,129
504,8	384,557
505,2	387,671
505,7	387,786
506,1	382,9
506,6	377,043
507	379,3
507,5	377,243
507,9	382,957
508,4	381,557
508,8	383,557
509,3	390,043
509,7	395,386
510,2	395,5
510,6	390,614
511,1	385,814
511,5	390,3
512	390,929
512,4	392,014
512,9	394,414
513,3	397,1
513,8	404,757
514,2	408,986
514,7	404,529
515,1	409,586
515,6	413,671
516	409,671
516,5	408,071
516,9	404,814
517,4	403,557
517,8	405,729
518,3	404,957
518,7	406,414
519,2	416,843
519,6	418,329
520,1	426,7
520,5	428,014
521	427,157
521,4	427,157
521,9	423,843
522,3	423,357
522,8	422,957
523,2	423,329
523,7	425,386
524,1	426,357
524,6	426,443
525	433,071
525,5	432,557
525,9	439,271
526,4	438,786
526,8	441,757
527,3	449,329
527,7	456,586
528,2	455,929
528,6	464,014
529,1	465,957
529,5	470,214
530	473,443
530,4	481,043
530,9	485,357
531,3	492,614
531,8	486,986
532,2	486,729
532,6	490,757
533,1	486,386
533,5	483,414
534	479,157
534,4	478,757
534,9	484,871
535,3	491,729
535,8	494,414
536,2	502,9
536,7	501,671
537,1	510,214
537,6	511,3
538	514,5
538,5	514,843
538,9	512,957
539,4	518,014
539,8	519,757
540,3	519,243
540,7	518,786
541,2	523,814
541,6	524,157
542,1	526,186
542,5	525,614
543	532,129
543,4	534,671
543,9	539,271
544,3	538,957
544,8	543,757
545,2	550,414
545,7	553,557
546,1	556,043
546,5	560,843
547	564,814
547,4	566,5
547,9	567,986
548,3	571,871
548,8	569,9
549,2	574,871
549,7	575,843
550,1	575,243
550,6	578,443
551	585,3
551,5	582,214
551,9	584,471
552,4	583,157
552,8	584,9
553,3	587,386
553,7	589,7
554,2	588,614
554,6	592,614
555,1	597,157
555,5	599,186
555,9	597,957
556,4	604,5
556,8	610,7
557,3	608,671
557,7	616,157
558,2	622,957
558,6	622,757
559,1	630,414
559,5	631,357
560	625,986
560,4	627,957
560,9	623,757
561,3	623,3
561,8	634,243
562,2	636,443
562,7	632,957
563,1	636,843
563,6	642,1
564	646,214
564,4	649,529
564,9	646,271
565,3	647,814
565,8	654,814
566,2	655,814
566,7	657,671
567,1	659,043
567,6	661,357
568	658,871
568,5	655,043
568,9	658,5
569,4	659,729
569,8	658,386
570,3	659,871
570,7	660,043
571,1	662,5
571,6	662,586
572	660,643
572,5	657,357
572,9	656,1
573,4	655,643
573,8	655,5
574,3	661,014
574,7	663,957
575,2	664,614
575,6	674,3
576,1	679,586
576,5	680,271
576,9	679,071
577,4	679,243
577,8	681,614
578,3	682,357
578,7	678,043
579,2	673,957
579,6	678,043
580,1	683,386
580,5	684,271
581	685,129
581,4	687,7
581,9	689,214
582,3	693,043
582,7	685,186
583,2	683,1
583,6	671,414
584,1	668,471
584,5	662,671
585	656,471
585,4	653,757
585,9	656,557
586,3	647,329
586,8	654,243
587,2	653,5
587,6	660,3
588,1	663,843
588,5	665,557
589	664,129
589,4	672,271
589,9	667,557
590,3	663,186
590,8	652,271
591,2	651,957
591,7	649,529
592,1	653,3
592,5	647,443
593	650,614
593,4	653,414
593,9	660,5
594,3	663,443
594,8	663,071
595,2	655,557
595,7	656,729
596,1	654,014
596,6	654,529
597	651,614
597,4	647,3
597,9	647,386
598,3	646,243
598,8	639,786
599,2	643,643
599,7	642,871
600,1	643,5
600,6	642,214
601	644,671
601,4	647,186
601,9	651,214
602,3	643,614
602,8	642,3
603,2	639,386
603,7	640,986
604,1	630,357
604,6	624,071
605	627,871
605,4	625,929
605,9	621,729
606,3	620,271
606,8	617,786
607,2	623,243
607,7	625,5
608,1	623,786
608,6	628,929
609	629,1
609,4	629,786
609,9	627,386
610,3	622,986
610,8	626,043
611,2	620,443
611,7	615,5
612,1	614,529
612,6	612,814
613	604,586
613,4	605,7
613,9	596,729
614,3	595,729
614,8	590,9
615,2	588,529
615,7	585,643
616,1	595,214
616,6	593,157
617	595,414
617,4	594,214
617,9	597,3
618,3	594,3
618,8	595,271
619,2	584,157
619,7	584,643
620,1	583,014
620,5	582,529
621	576,471
621,4	577,643
621,9	570,671
622,3	575,043
622,8	569,129
623,2	567,186
623,6	561,471
624,1	561,1
624,5	556,7
625	556,443
625,4	552,557
625,9	552,214
626,3	548,7
626,8	545,071
627,2	544,586
627,6	545,329
628,1	541,5
628,5	541,443
629	537,5
629,4	535,614
629,9	538,1
630,3	538,586
630,7	536,843
631,2	537,443
631,6	532,186
632,1	530,843
632,5	525,329
633	520,5
633,4	513,1
633,8	509,414
634,3	508,757
634,7	506,5
635,2	500,843
635,6	501,329
636,1	499,214
636,5	498,043
636,9	496,729
637,4	491,871
637,8	489,986
638,3	486,214
638,7	483,871
639,2	480,443
639,6	479,871
640	479,671
640,5	475,843
640,9	470,186
641,4	470,243
641,8	470,5
642,2	466,671
642,7	461,929
643,1	455,414
643,6	457,214
644	456,757
644,5	460,271
644,9	455,071
645,3	456,529
645,8	455,614
646,2	453,157
646,7	445,614
647,1	447,357
647,6	444,957
648	444,3
648,4	440,043
648,9	435,443
649,3	435,329
649,8	433,529
650,2	430,443
650,6	429,214
651,1	425,557
651,5	420,614
652	422,414
652,4	415,929
652,9	416,214
653,3	413,243
653,7	408,471
654,2	408,014
654,6	408,5
655,1	403,814
655,5	406,557
655,9	402,557
656,4	400,071
656,8	393,843
657,3	391,671
657,7	391,129
658,2	393,443
658,6	389,271
659	387,357
659,5	384,414
659,9	381,614
660,4	375,671
660,8	372,129
661,2	365,9
661,7	366,586
662,1	368,5
662,6	363,871
663	363,757
663,4	363,643
663,9	362,529
664,3	366,729
664,8	358,129
665,2	353,643
665,6	354,071
666,1	356,671
666,5	356,671
667	358,786
667,4	349,386
667,9	359,157
668,3	355,3
668,7	357,529
669,2	350,529
669,6	348,443
670,1	341,214
670,5	338,929
670,9	331,786
671,4	330,471
671,8	323,271
672,3	324,814
672,7	327,214
673,1	325,643
673,6	325,214
674	319,329
674,5	317,471
674,9	317,643
675,3	310,9
675,8	300,957
676,2	297,414
676,7	298,129
677,1	296,414
677,5	294,814
678	290,986
678,4	292,186
678,9	295,729
679,3	302,5
679,7	301,043
680,2	302,329
680,6	302,043
681,1	303,671
681,5	303,929
681,9	303,329
682,4	297,729
682,8	295,471
683,3	293,271
683,7	291,386
684,1	287,214
684,6	285,957
685	283,557
685,5	282,7
685,9	283,357
686,3	282,5
686,8	283,357
687,2	281,814
687,7	279,1
688,1	276,557
688,5	275,586
689	273,3
689,4	276,529
689,9	273,929
690,3	277,414
690,7	274,843
691,2	269,214
691,6	268,071
692	267,414
692,5	261,929
692,9	257,329
693,4	249,814
693,8	250,443
694,2	250,414
694,7	246,271
695,1	243,214
695,6	242,671
696	241,557
696,4	245,357
696,9	240,357
697,3	239,871
697,8	238,786
698,2	237,529
698,6	234,3
699,1	238,757
699,5	231,471
699,9	232,557
700,4	231,643
700,8	232,586
701,3	228,757
701,7	226,757
702,1	223,729
702,6	224,243
703	222,443
703,5	220,5
703,9	212,214
704,3	211,757
704,8	212,157
705,2	208,329
705,6	207,529
706,1	207,386
706,5	209,757
707	216,157
707,4	217,043
707,8	210,7
708,3	209,5
708,7	203,814
709,2	205,671
709,6	199,957
710	199,929
710,5	202,414
710,9	209,071
711,3	204,957
711,8	209,329
712,2	205,043
712,7	202,757
713,1	197,443
713,5	189,043
714	188,3
714,4	190,157
714,8	188,957
715,3	188,986
715,7	188,929
716,2	189,129
716,6	188,414
717	182,071
717,5	180,043
717,9	182,843
718,3	178,986
718,8	182,186
719,2	179,214
719,7	178,614
720,1	181,986
720,5	179,643
721	175,271
721,4	178,414
721,8	177,529
722,3	179,329
722,7	178,5
723,2	171,5
723,6	170,5
724	167,557
724,5	161,3
724,9	162,614
725,3	159,7
725,8	161,557
726,2	160,129
726,7	166,271
727,1	168,671
727,5	172,243
728	167,471
728,4	169,5
728,8	165,957
729,3	166,986
729,7	163,3
730,1	157,643
730,6	156,243
731	154,357
731,5	148,271
731,9	151,1
732,3	153,471
732,8	148,957
733,2	150,557
733,6	152,586
734,1	155,157
734,5	158,786
734,9	152,271
735,4	148,357
735,8	149,157
736,3	149,329
736,7	144,414
737,1	143,643
737,6	142,443
738	145,614
738,4	144,843
738,9	148,5
739,3	148,1
739,7	148,814
740,2	145,643
740,6	142,7
741,1	139,014
741,5	140,586
741,9	135,471
742,4	134,871
742,8	133,757
743,2	137,471
743,7	135,843
744,1	139,729
744,5	139,157
745	135,843
745,4	133,414
745,8	134,243
746,3	135,614
746,7	135,3
747,2	132,014
747,6	128,929
748	131,9
748,5	131,614
748,9	125,443
749,3	114,557
749,8	114,614
750,2	111,5
750,6	116,043
751,1	114,786
751,5	113,757
751,9	115,586
752,4	118,157
752,8	119,729
753,3	124,586
753,7	114,329
754,1	110,957
754,6	110,757
755	110,757
755,4	114,3
755,9	111,129
756,3	109,043
756,7	114,443
757,2	115,729
757,6	116,1
758	116,357
758,5	112,5
758,9	111,5
759,3	109,586
759,8	108,1
760,2	104,271
760,6	104,043
761,1	100,129
761,5	102,843
761,9	101,7
762,4	98,586
762,8	100,643
763,3	103,843
763,7	98,443
764,1	99,814
764,6	96,014
765	92,386
765,4	96,586
765,9	98,671
766,3	99,5
766,7	101,186
767,2	100,386
767,6	103,214
768	110,1
768,5	110,7
768,9	106,243
769,3	99,557
769,8	100,386
770,2	96,7
770,6	93,329
771,1	92,186
771,5	89,214
771,9	91,843
772,4	98,471
772,8	99,386
773,2	105,471
773,7	101,9
774,1	101,843
774,5	96,129
775	89,5
775,4	83,529
775,8	85,014
776,3	84,757
776,7	82,243
777,1	79,557
777,6	80,929
778	82,757
778,4	88,443
778,9	82,843
779,3	81,043
779,7	87,157
780,2	88,557
780,6	90,3
781	88,1
781,5	81,5
781,9	87,157
782,3	87,557
782,8	89,586
783,2	87,7
783,6	89,271
784,1	89,871
784,5	92,214
784,9	86,243
785,4	81,157
785,8	76,614
786,2	71,414
786,7	70,443
787,1	72,414
787,5	70,871
788	68,586
788,4	72,643
788,8	71,043
789,3	73,814
789,7	78,214
790,1	74,871
790,6	77,757
791	83,643
791,4	85,243
791,9	84,757
792,3	85,586
792,7	76,043
793,2	74,243
793,6	72,957
794	69,529
794,5	65,014
794,9	65,586
795,3	70,729
795,8	70,557
796,2	73,814
796,6	74,729
797,1	69,414
797,5	70,871
797,9	72,071
798,4	62,186
798,8	64,214
799,2	63,157
799,7	60,786
800,1	65,671
800,5	64,871
801	64,729
801,4	71,729
801,8	73,814
802,2	74,443
802,7	74,271
803,1	76,814
803,5	74,129
804	71,529
804,4	67,929
804,8	65,729
805,3	66,814
805,7	65,471
806,1	60,071
806,6	62,214
807	62,043
807,4	60,5
807,9	58,414
808,3	55,329
808,7	53,129
809,2	53,7
809,6	52,557
810	53,529
810,4	51,529
810,9	50,243
811,3	52,186
811,7	57,529
812,2	59,014
812,6	56,786
813	54,729
813,5	52,271
813,9	55,814
814,3	55,043
814,8	51,443
815,2	55,214
815,6	54,957
816,1	56,643
816,5	60,043
816,9	56,643
817,3	55,729
817,8	56,443
818,2	50,471
818,6	51,043
819,1	50,5
819,5	52,729
819,9	53,129
820,4	51,157
820,8	52,014
821,2	51,871
821,7	51,929
822,1	47,671
822,5	42,814
822,9	43,414
823,4	44,386
823,8	43,671
824,2	45,7
824,7	48,871
825,1	51,471
825,5	54,043
826	54,843
826,4	53,1
826,8	54,929
827,3	51,5
827,7	51,1
828,1	50,443
828,5	48,9
829	47,357
829,4	43,814
829,8	40,414
830,3	42,957
830,7	39,186
831,1	42,986
831,6	44,329
832	48,357
832,4	53,7
832,8	50,986
833,3	49,986
833,7	49,557
834,1	45,471
834,6	44,843
835	43,557
835,4	41,014
835,8	45,5
836,3	44,1
836,7	41,643
837,1	41,043
837,6	40,157
838	35,614
838,4	36,1
838,9	29,986
839,3	32,329
839,7	38,786
840,1	34,7
840,6	34,271
841	36,471
841,4	36,643
841,9	35,929
842,3	33,129
842,7	26,071
843,1	32,7
843,6	34,357
844	36,071
844,4	35,614
844,9	37,271
845,3	41,5
845,7	43,386
846,2	41,1
846,6	41,071
847	40,557
847,4	30,929
847,9	32,586
848,3	25,5
848,7	27,071
849,2	26,843
849,6	23,614
850	21,9
850,4	31,271
850,9	31,9
851,3	36,243
851,7	32,471
852,2	31,843
852,6	32,129
853	29,814
853,4	28,329
853,9	26,557
854,3	28,243
854,7	32,871
855,2	33,9
855,6	34,214
856	30,1
856,4	33,129
856,9	31,643
857,3	29,329
857,7	29,214
858,2	21,729
858,6	21,214
859	25,529
859,4	23,357
859,9	25,386
860,3	20,329
860,7	19,471
861,1	27,614
861,6	29,957
862	30,643
862,4	29,9
862,9	32,986
863,3	33,671
863,7	30,557
864,1	27,471
864,6	27,5
865	27,471
865,4	26,729
865,9	24,186
866,3	26,357
866,7	30,5
867,1	26,986
867,6	27,5
868	32,871
868,4	35,1
868,8	32,814
869,3	34,329
869,7	32,186
870,1	36,786
870,6	32,529
871	24,557
871,4	22,986
871,8	23,786
872,3	23,957
872,7	26,757
873,1	29,643
873,5	32,271
874	32,386
874,4	29,586
874,8	30,471
875,3	28,3
875,7	25,1
876,1	23,757
876,5	20,7
877	22,9
877,4	25,157
877,8	25,3
878,2	23,9
878,7	23,414
879,1	18,129
879,5	17,957
879,9	19,243
880,4	20,729
880,8	19,757
881,2	23,929
881,7	20,357
882,1	24,214
882,5	27,871
882,9	22,786
883,4	24,357
883,8	26,243
884,2	19,643
884,6	24,757
885,1	23,757
885,5	20,557
885,9	24,557
886,3	24,9
886,8	22,843
887,2	23,5
887,6	20,014
888	22,357
888,5	23,557
888,9	24,186
889,3	24,957
889,8	27,157
890,2	30,243
890,6	27,3
891	22,014
891,5	24,043
891,9	19,157
892,3	13,071
892,7	12,071
893,2	12,5
893,6	12,986
894	15,186
894,4	14,614
894,9	16,1
895,3	18,986
895,7	16,357
896,1	14,357
896,6	20,043
897	19,157
897,4	19,471
897,8	20,957
898,3	19,986
898,7	18,643
899,1	19,529
899,5	16,643
900	15,043
900,4	15,071
900,8	16,014
901,2	16,243
901,7	17,929
902,1	22,386
902,5	17,7
902,9	18,443
903,4	15,986
903,8	15,014
904,2	13,557
904,6	15,5
905,1	16,414
905,5	23,243
905,9	27,243
906,3	27,814
906,8	26,329
907,2	25,186
907,6	25,243
908	16,643
908,5	15,386
908,9	16,786
909,3	17,357
909,7	19,3
910,2	27,043
910,6	23,5
911	22,843
911,4	19,7
911,9	13,671
912,3	12,957
912,7	12,843
913,1	6,214
913,6	6,186
914	11,386
914,4	11,271
914,8	11,043
915,3	10,214
915,7	13,357
916,1	15,357
916,5	21,1
916,9	17,414
917,4	22,443
917,8	20,786
918,2	23,271
918,6	23,929
919,1	21,129
919,5	16,214
919,9	21,586
920,3	16,871
920,8	24,5
921,2	20,786
921,6	17,014
922	18,586
922,5	18,271
922,9	17,071
923,3	20,929
923,7	18,357
924,2	22,214
924,6	19,9
925	21,129
925,4	22,186
925,8	23,071
926,3	22,414
926,7	24,614
927,1	22,157
927,5	30,014
928	27,157
928,4	31,9
928,8	27,271
929,2	27,729
929,7	24,329
930,1	27,643
930,5	23,986
930,9	18,386
931,3	14,871
931,8	17,329
932,2	16,9
932,6	17,757
933	14,729
933,5	15,414
933,9	21,929
934,3	23,1
934,7	21,5
935,2	22,786
935,6	20,557
936	16,7
936,4	16,414
936,8	19,757
937,3	13,414
937,7	13,186
938,1	6,614
938,5	1,643
939	2,157
939,4	-0,243
939,8	-4,957
940,2	-3,643
940,6	-1,786
941,1	4,671
941,5	13,214
941,9	20,7
942,3	14,786
942,8	21,557
943,2	26,7
943,6	27,329
944	21,414
944,4	19,786
944,9	15,586
945,3	20,043
945,7	15,3
946,1	9,671
946,6	7,957
947	12,814
947,4	11,414
947,8	14,357
948,2	10,329
948,7	6,557
949,1	11,5
949,5	9,243
949,9	4,214
950,3	3,7
950,8	3,9
951,2	7,214
951,6	11,357
952	10,5
952,5	11,014
952,9	13,3
953,3	16,014
953,7	13,5
954,1	16,671
954,6	14,157
955	15,814
955,4	19,471
955,8	23,186
956,2	22,957
956,7	24,1
957,1	19,557
957,5	23,186
957,9	22,243
958,3	20,071
958,8	14,757
959,2	13,1
959,6	13,043
960	16,386
960,5	12,414
960,9	13,557
961,3	9,186
961,7	9,957
962,1	8,529
962,6	5,3
963	3,757
963,4	9,214
963,8	7,614
964,2	15,986
964,7	14,9
965,1	7,843
965,5	10,957
965,9	12,243
966,3	7,129
966,8	3,214
967,2	-2,271
967,6	2,643
968	9,586
968,4	8,643
968,9	9,357
969,3	10,329
969,7	10,871
970,1	11,614
970,5	9,129
971	10,986
971,4	9,557
971,8	7,957
972,2	10,129
972,6	13,9
973,1	13,586
973,5	14,214
973,9	13,614
974,3	12,586
974,7	15,5
975,2	12,814
975,6	13,9
976	15,1
976,4	13,5
976,8	11,786
977,3	14,986
977,7	15,9
978,1	16,814
978,5	12,586
978,9	11,986
979,4	13,271
979,8	15,157
980,2	14,071
980,6	9,557
981	5,7
981,5	5,5
981,9	7,614
982,3	10,671
982,7	9,071
983,1	4,471
983,6	6,643
984	9,1
984,4	11,843
984,8	12,871
985,2	10,7
985,6	15,471
986,1	18,986
986,5	17,557
986,9	17,329
987,3	15,243
987,7	14,5
988,2	14,043
988,6	12,471
989	10,414
989,4	18,729
989,8	20,471
990,3	22,9
990,7	23,329
991,1	24,157
991,5	22,043
991,9	25,243
992,3	15,929
992,8	14,843
993,2	11,786
993,6	8,5
994	5,443
994,4	11,271
994,9	11,186
995,3	16,757
995,7	15,529
996,1	14,129
996,5	16,357
996,9	17,786
997,4	9,671
997,8	10,357
998,2	6,843
998,6	9,957
999	12,671
999,5	9,414
999,9	9,557
1000,3	14,186
1000,7	14,614
1001,1	9,586
1001,5	12,3
1002	13,757
1002,4	16,357
1002,8	13,1
1003,2	13,386
1003,6	13,729
1004	17,1
1004,5	10,614
1004,9	9,814
1005,3	10,614
1005,7	11,643
1006,1	9,157
1006,6	2,529
1007	2,071
1007,4	2,329
1007,8	6,529
1008,2	10,529
1008,6	12,043
1009,1	14,386
1009,5	18,729
1009,9	19,957
1010,3	18,929
1010,7	15,329
1011,1	13,643
1011,6	15,929
1012	14,5
1012,4	17,129
1012,8	18,929
1013,2	22,786
1013,6	23,786
1014,1	15,386
1014,5	12,243
1014,9	14,129
1015,3	10,357
1015,7	9,871
1016,1	6,5
1016,6	2,843
1017	9,986
1017,4	10,557
1017,8	4,929
1018,2	8,271
1018,6	6,5
1019,1	11,186
1019,5	11,243
1019,9	8,129
1020,3	10,1
1020,7	13,871
1021,1	11,786
1021,6	12,7
1022	11,043
1022,4	14,243
1022,8	14,729
1023,2	10,443
1023,6	7,043
1024,1	7,414
1024,5	4,329
1024,9	8,186
1025,3	5,214
1025,7	7,186
1026,1	13,014
1026,6	16,671
1027	16,5
1027,4	22,129
1027,8	15,843
1028,2	13,186
1028,6	14,671
1029	12,1
1029,5	13,386
1029,9	16,157
1030,3	16,814
1030,7	21,157
1031,1	23,386
1031,5	22,471
1032	23,157
1032,4	22,1
1032,8	21,871
1033,2	19,157
1033,6	16,5
1034	17,7
1034,4	15,214
1034,9	17,1
1035,3	15,729
1035,7	16,129
1036,1	16,5
1036,5	18,357
1036,9	20,5
1037,4	22,9
1037,8	20,786
1038,2	21,157
1038,6	14,129
1039	14,386
1039,4	12,471
1039,8	8,271
1040,3	9,557
1040,7	7,271
1041,1	6,243
1041,5	15,871
1041,9	12,186
1042,3	12,271
1042,7	12,471
1043,2	13,5
1043,6	21,186
1044	25,614
1044,4	20,386
1044,8	20,929
1045,2	22,129
1045,6	26,214
1046,1	22,929
1046,5	13,271
1046,9	9,214
1047,3	13,586
1047,7	16,157
1048,1	14,643
1048,5	11,414
1049	15,443
1049,4	23,3
1049,8	24,214
1050,2	19,786
1050,6	15,157
1051	15,671
1051,4	17,043
1051,9	10,043
1052,3	7,786
1052,7	12,843
1053,1	15,471
1053,5	19,214
1053,9	19,671
1054,3	16,586
1054,8	17,929
1055,2	10,643
1055,6	10,614
1056	4,814
1056,4	7,186
1056,8	9,671
1057,2	12,729
1057,6	13,9
1058,1	20,986
1058,5	12,986
1058,9	13,7
1059,3	11,9
1059,7	11,443
1060,1	11,643
1060,5	9,071
1061	8,129
1061,4	8,729
1061,8	8,757
1062,2	7,329
1062,6	9,386
1063	10,471
1063,4	12,729
1063,8	11,1
1064,3	14,386
1064,7	17,586
1065,1	16,814
1065,5	16,871
1065,9	14,729
1066,3	16,414
1066,7	15,129
1067,1	12,529
1067,6	14,5
1068	15,643
1068,4	14,3
1068,8	8,929
1069,2	7,471
1069,6	8,271
1070	9,729
1070,4	12,043
1070,9	11,586
1071,3	12,1
1071,7	19,443
1072,1	17,157
1072,5	17,529
1072,9	18,071
1073,3	16,843
1073,7	20,043
1074,2	14,814
1074,6	11,814
1075	15,7
1075,4	18,843
1075,8	17,243
1076,2	12,386
1076,6	12,329
1077	9,871
1077,5	12,843
1077,9	8,557
1078,3	2,357
1078,7	0,214
1079,1	1,643
1079,5	-2,757
1079,9	3,357
1080,3	-1,443
1080,7	1,071
1081,2	6,814
1081,6	4,814
1082	6,786
1082,4	7,014
1082,8	4,957
1083,2	10,871
1083,6	8,329
1084	7,357
1084,5	16,071
1084,9	9,214
1085,3	10,871
1085,7	13,643
1086,1	10,186
1086,5	10,071
1086,9	6,929
1087,3	0,729
1087,7	1,614
1088,2	0,529
1088,6	-3,1
1089	-5,014
1089,4	-4,214
1089,8	-3,1
1090,2	-2,014
1090,6	-0,186
1091	1,671
1091,4	2,986
1091,9	6,957
1092,3	9,843
1092,7	14,1
1093,1	13,386
1093,5	13,529
1093,9	11,871
1094,3	8,5
1094,7	6,157
1095,1	8,443
1095,5	2,929
1096	4,443
1096,4	5,214
1096,8	5,843
1097,2	11,929
1097,6	13,214
1098	10,5
1098,4	9,586
1098,8	10,1
1099,2	11,071
1099,6	12,729
1100,1	10,557
1100,5	9,929
1100,9	10,157
1101,3	10,357
1101,7	8,586
1102,1	6,186
1102,5	0,586
1102,9	-2,871
1103,3	-0,786
1103,7	-0,7
1104,2	5,757
1104,6	11,7
1105	12,329
1105,4	16,557
1105,8	18,186
1106,2	14,786
1106,6	11,7
1107	7,1
1107,4	1,7
1107,8	1,66
1108,3	-0,55
