Data from Subt2_00094.txt Node
Date: Mon Aug 28 13:35:11 MSK 2023
User: vat
Spectrometer: MAYP114033
Trigger mode: 0
Integration Time (sec): 1,000000E0
Scans to average: 5
Electric dark correction enabled: true
Nonlinearity correction enabled: false
Boxcar width: 3
XAxis mode: Wavelengths
Number of Pixels in Spectrum: 2068
>>>>>Begin Spectral Data<<<<<
199,4	-0,55
199,9	-2,8
200,4	0,1
200,8	2,657
201,3	2,371
201,8	3,657
202,2	4,229
202,7	4,857
203,2	8,457
203,6	10,886
204,1	9,429
204,6	14,486
205	14,543
205,5	15,171
206	15,829
206,4	12,829
206,9	13,114
207,4	12,543
207,8	9,371
208,3	7
208,8	4,8
209,2	5,229
209,7	8,229
210,2	4,714
210,6	1,629
211,1	5,257
211,5	5,429
212	10,714
212,5	10,171
212,9	7,686
213,4	11,743
213,9	13,314
214,3	11,429
214,8	12,829
215,3	9,629
215,7	10,857
216,2	10
216,7	9,286
217,1	10,657
217,6	11,086
218,1	15,314
218,5	13,657
219	16,571
219,5	20,343
219,9	17,571
220,4	22,057
220,9	18,171
221,3	13,771
221,8	17,714
222,3	15,771
222,7	16,371
223,2	15,457
223,6	7,4
224,1	12,914
224,6	15,029
225	13,629
225,5	11,4
226	9,543
226,4	13,4
226,9	17,971
227,4	21,371
227,8	17,143
228,3	16,029
228,8	17,2
229,2	17,057
229,7	13,571
230,2	16,686
230,6	8,8
231,1	10,457
231,5	12,543
232	13,943
232,5	11,086
232,9	15,771
233,4	13,371
233,9	16,771
234,3	19,629
234,8	20,743
235,3	17,4
235,7	19,771
236,2	13,314
236,7	10,943
237,1	10,686
237,6	6,171
238,1	3,857
238,5	6,771
239	11,286
239,4	14,971
239,9	16,371
240,4	13,914
240,8	20,257
241,3	18,343
241,8	13,171
242,2	8,2
242,7	7
243,2	10
243,6	13,829
244,1	11,629
244,6	10,686
245	16,6
245,5	18,4
245,9	19
246,4	16,943
246,9	11,943
247,3	10,514
247,8	11,943
248,3	9,486
248,7	9,429
249,2	9,571
249,7	14,943
250,1	13,057
250,6	9,629
251	10,057
251,5	9,4
252	8,6
252,4	5,171
252,9	2,743
253,4	6,971
253,8	9
254,3	10,057
254,8	12
255,2	9,457
255,7	10,514
256,1	3,229
256,6	2,229
257,1	5,143
257,5	-0,457
258	-4,343
258,5	-1,457
258,9	-2,257
259,4	5,943
259,9	1
260,3	0,486
260,8	4,543
261,2	9,057
261,7	8,8
262,2	13,2
262,6	9,343
263,1	14,514
263,6	10,457
264	13
264,5	15,086
264,9	13,571
265,4	8,629
265,9	6,857
266,3	4,486
266,8	7
267,3	8,8
267,7	2,857
268,2	5,257
268,7	6,229
269,1	6,257
269,6	9,571
270	8,743
270,5	11,543
271	13,571
271,4	10,429
271,9	9,514
272,4	10,371
272,8	9,943
273,3	9,343
273,7	2,8
274,2	-0,457
274,7	3,943
275,1	2,657
275,6	6,429
276,1	2,629
276,5	7,086
277	6,543
277,4	11,257
277,9	8,657
278,4	9,857
278,8	5
279,3	7,886
279,8	9,029
280,2	12,229
280,7	9,657
281,1	8,6
281,6	10,6
282,1	12,8
282,5	11,8
283	11,371
283,4	10,771
283,9	11,829
284,4	14,686
284,8	11,657
285,3	8,857
285,8	9,571
286,2	5,114
286,7	3,914
287,1	2,371
287,6	1
288,1	6,4
288,5	9,571
289	8,457
289,5	9,057
289,9	9,143
290,4	11,714
290,8	13,143
291,3	14,914
291,8	14,514
292,2	16,029
292,7	15,457
293,1	17,143
293,6	12,514
294,1	9,257
294,5	3,429
295	0,543
295,5	2,971
295,9	3,343
296,4	1,057
296,8	7
297,3	10,771
297,8	16,771
298,2	17,657
298,7	14,314
299,1	14,771
299,6	14,514
300,1	18,2
300,5	14,057
301	12,771
301,5	13,057
301,9	11,229
302,4	14,286
302,8	15,029
303,3	11,371
303,8	18
304,2	15,371
304,7	15,343
305,1	15,457
305,6	12,114
306,1	9,314
306,5	3,571
307	-2,086
307,4	-1
307,9	-0,343
308,4	2,6
308,8	4,457
309,3	7,857
309,8	11,543
310,2	13,257
310,7	15,171
311,1	17,029
311,6	13,171
312,1	10,286
312,5	10,314
313	13,057
313,4	18,057
313,9	14,086
314,4	10,086
314,8	14,086
315,3	19,114
315,7	17,314
316,2	15,029
316,7	10,286
317,1	8,629
317,6	11,543
318	9,114
318,5	2,343
319	3,971
319,4	5,943
319,9	2,6
320,3	7,257
320,8	6,686
321,3	7,486
321,7	11,629
322,2	9,714
322,6	10,229
323,1	13,143
323,6	9,829
324	7,343
324,5	5,286
324,9	8,286
325,4	8,714
325,9	7,457
326,3	10,543
326,8	6,6
327,2	3,143
327,7	2,971
328,2	2,543
328,6	7,743
329,1	1,686
329,5	-6,057
330	-1,343
330,5	6,343
330,9	10,8
331,4	3,8
331,8	-2,6
332,3	2,857
332,8	8,257
333,2	10,229
333,7	2,4
334,1	-1,086
334,6	3,314
335,1	8,914
335,5	6,657
336	7,857
336,4	9,343
336,9	15,6
337,4	17,886
337,8	17,371
338,3	16,114
338,7	14,057
339,2	5,343
339,7	3
340,1	-0,857
340,6	-2,8
341	-1,8
341,5	-5,886
342	-6,029
342,4	-3,429
342,9	-0,829
343,3	6,943
343,8	10,114
344,2	10,686
344,7	11,857
345,2	12
345,6	16,6
346,1	10,343
346,5	11,943
347	11,086
347,5	9,857
347,9	9,229
348,4	11,914
348,8	13,171
349,3	12,486
349,8	4,743
350,2	4,6
350,7	7,686
351,1	9,257
351,6	8,943
352	10,8
352,5	18,571
353	27,514
353,4	33,971
353,9	41,029
354,3	49,086
354,8	53,457
355,3	61,029
355,7	72,457
356,2	79,543
356,6	91,371
357,1	106,571
357,5	124,514
358	155,057
358,5	177,143
358,9	204,486
359,4	240,686
359,8	278,029
360,3	311,943
360,8	354,543
361,2	400,514
361,7	459,429
362,1	516,629
362,6	577,229
363	649,8
363,5	728,429
364	809,143
364,4	888,143
364,9	965,029
365,3	1046,886
365,8	1134,057
366,3	1202,743
366,7	1265,914
367,2	1318,686
367,6	1368,914
368,1	1407,057
368,5	1433,4
369	1438,6
369,5	1442,571
369,9	1434,771
370,4	1417,6
370,8	1378,829
371,3	1338,286
371,7	1290,114
372,2	1238,057
372,7	1178,629
373,1	1120,314
373,6	1051,343
374	992,314
374,5	928,371
374,9	859,286
375,4	797,971
375,9	741,457
376,3	676,2
376,8	626,8
377,2	577,943
377,7	530,914
378,2	490,057
378,6	447,429
379,1	407,143
379,5	379,057
380	349,4
380,4	321,829
380,9	295,6
381,4	274,2
381,8	252,429
382,3	230,314
382,7	213,114
383,2	197,286
383,6	183,286
384,1	172,971
384,6	161
385	152,029
385,5	146,486
385,9	137,629
386,4	133,286
386,8	124,371
387,3	116,086
387,7	110,6
388,2	104
388,7	96,429
389,1	89,143
389,6	78,886
390	76,057
390,5	74,886
390,9	69,6
391,4	66,943
391,9	62,514
392,3	63,914
392,8	60,686
393,2	57,514
393,7	52,4
394,1	50,457
394,6	51,543
395,1	53,914
395,5	45,4
396	47,457
396,4	42,2
396,9	41,371
397,3	41,6
397,8	34,857
398,2	30,2
398,7	30,657
399,2	27,286
399,6	29,8
400,1	27,029
400,5	25,829
401	29,657
401,4	25,686
401,9	27,657
402,4	28,457
402,8	30,857
403,3	32,371
403,7	34,886
404,2	34,6
404,6	38,314
405,1	39,857
405,5	37,886
406	36,971
406,5	36,286
406,9	38,943
407,4	34,314
407,8	36,686
408,3	34,257
408,7	33,429
409,2	26,629
409,6	29,457
410,1	27,229
410,6	29,686
411	30,057
411,5	29,057
411,9	29,657
412,4	38,829
412,8	35,886
413,3	32
413,7	32,6
414,2	32,229
414,7	36,314
415,1	41,857
415,6	37,429
416	44,971
416,5	55,486
416,9	59,657
417,4	64,829
417,8	68,657
418,3	67,343
418,8	72,829
419,2	70,057
419,7	66,057
420,1	67,686
420,6	68,657
421	66,743
421,5	70,086
421,9	67,086
422,4	69,8
422,8	69,8
423,3	69,971
423,8	63,657
424,2	63,4
424,7	61,457
425,1	58,914
425,6	55,686
426	59,371
426,5	57,371
426,9	58,743
427,4	61,629
427,9	65,029
428,3	70,229
428,8	69,486
429,2	67,457
429,7	65,057
430,1	63,143
430,6	55,6
431	49,286
431,5	46,143
431,9	48,086
432,4	39,914
432,8	42,029
433,3	41,2
433,8	42,257
434,2	43,6
434,7	40,629
435,1	39,429
435,6	38,229
436	37,657
436,5	39,6
436,9	39,657
437,4	42,343
437,8	46,2
438,3	49,371
438,8	54,429
439,2	53,943
439,7	52
440,1	50,486
440,6	46,4
441	41,6
441,5	36,629
441,9	34,257
442,4	34
442,8	32,829
443,3	36,029
443,7	33,943
444,2	35,857
444,7	39,143
445,1	41,829
445,6	36,514
446	39,943
446,5	36,4
446,9	38,171
447,4	42,086
447,8	44,571
448,3	47,171
448,7	50,971
449,2	49,029
449,6	54,714
450,1	57,029
450,6	58,829
451	56,143
451,5	59,257
451,9	65,257
452,4	66,371
452,8	61,743
453,3	58,943
453,7	59,314
454,2	60,457
454,6	57,114
455,1	57,6
455,5	63,143
456	73,171
456,4	79,971
456,9	81,714
457,3	81,429
457,8	80,914
458,3	80,429
458,7	84
459,2	86,629
459,6	91,457
460,1	95,8
460,5	99,057
461	106,971
461,4	110,4
461,9	109,914
462,3	110,829
462,8	113,343
463,2	108,4
463,7	112,171
464,1	113,8
464,6	117,457
465	120,057
465,5	122,086
466	128,229
466,4	138,2
466,9	145,057
467,3	144,714
467,8	149,114
468,2	151,4
468,7	160,086
469,1	160,743
469,6	159,886
470	166,371
470,5	175,514
470,9	178,686
471,4	189,429
471,8	192,029
472,3	196,371
472,7	200,086
473,2	203,771
473,6	206,686
474,1	209,371
474,5	206,629
475	205,829
475,4	207,171
475,9	213,4
476,4	209,829
476,8	215,286
477,3	220,571
477,7	231,171
478,2	238,514
478,6	242,914
479,1	255,486
479,5	265,771
480	269,629
480,4	276,286
480,9	277,257
481,3	278,657
481,8	283,743
482,2	279,8
482,7	283,457
483,1	284,829
483,6	283,286
484	283,543
484,5	289,743
484,9	290,943
485,4	293,486
485,8	294,829
486,3	296,286
486,7	302,6
487,2	309,4
487,6	306,143
488,1	309,371
488,5	311,114
489	315,8
489,4	320,771
489,9	318,086
490,4	317,543
490,8	325,686
491,3	329,771
491,7	332,257
492,2	329,229
492,6	328,143
493,1	333,4
493,5	340,457
494	343,857
494,4	342,114
494,9	345,629
495,3	345,457
495,8	350,6
496,2	353,086
496,7	352,343
497,1	347,257
497,6	351,543
498	351,857
498,5	359,343
498,9	361,371
499,4	363,057
499,8	362,057
500,3	368,057
500,7	366,743
501,2	372,771
501,6	369,486
502,1	375,343
502,5	373,543
503	377,629
503,4	375,143
503,9	380,2
504,3	379,457
504,8	381,571
505,2	378,686
505,7	379,343
506,1	373,571
506,6	374,314
507	376
507,5	373,686
507,9	377,2
508,4	374,543
508,8	381,343
509,3	387,029
509,7	390,314
510,2	389,543
510,6	389,4
511,1	389,971
511,5	391,286
512	387,857
512,4	390,171
512,9	391,857
513,3	388,143
513,8	395,8
514,2	397,257
514,7	401,343
515,1	404,686
515,6	404,971
516	404,829
516,5	410,714
516,9	407,343
517,4	408,743
517,8	410,6
518,3	413,943
518,7	415,857
519,2	419,543
519,6	421,371
520,1	428,657
520,5	431,457
521	429
521,4	427,543
521,9	426,029
522,3	424,971
522,8	423,343
523,2	423,143
523,7	421,6
524,1	420,8
524,6	423,829
525	428,514
525,5	432,314
525,9	441,057
526,4	440
526,8	442,371
527,3	449,343
527,7	457,943
528,2	460,171
528,6	466,914
529,1	466,143
529,5	470,6
530	477,371
530,4	482,629
530,9	481,457
531,3	487,143
531,8	486
532,2	486,657
532,6	487,657
533,1	484,857
533,5	482,857
534	478,057
534,4	475,143
534,9	473,971
535,3	482,286
535,8	489,229
536,2	492,971
536,7	494,686
537,1	501,514
537,6	509,343
538	515,771
538,5	515,486
538,9	518,857
539,4	521,714
539,8	526,629
540,3	533,8
540,7	532,886
541,2	535,057
541,6	535,543
542,1	534,229
542,5	534,943
543	537,914
543,4	538,257
543,9	543,543
544,3	547,4
544,8	552,057
545,2	549,857
545,7	555,914
546,1	555,8
546,5	556,114
547	559,629
547,4	560,771
547,9	566,6
548,3	574,886
548,8	572,543
549,2	579,286
549,7	581,514
550,1	578,171
550,6	580
551	580,743
551,5	580,771
551,9	587,886
552,4	587,8
552,8	593,457
553,3	595,343
553,7	599,943
554,2	602,114
554,6	606,6
555,1	609,114
555,5	612,886
555,9	610,743
556,4	614,914
556,8	619,457
557,3	618,029
557,7	618,143
558,2	617,2
558,6	617,429
559,1	624,2
559,5	624,257
560	621
560,4	623,514
560,9	624,8
561,3	631,8
561,8	637,829
562,2	635,4
562,7	637,657
563,1	639,086
563,6	641,971
564	647,2
564,4	645,486
564,9	645,114
565,3	647
565,8	651,057
566,2	653,171
566,7	655,171
567,1	651,829
567,6	655,286
568	653,771
568,5	657,114
568,9	659,571
569,4	660,371
569,8	660,714
570,3	665,771
570,7	664,971
571,1	669,657
571,6	666,286
572	668,743
572,5	670,457
572,9	666,114
573,4	665,771
573,8	668,971
574,3	666,743
574,7	672,971
575,2	669,886
575,6	670,657
576,1	676,4
576,5	677,486
576,9	676,971
577,4	680,971
577,8	679,714
578,3	681,029
578,7	678,943
579,2	675,971
579,6	677,771
580,1	678,829
580,5	676,257
581	675,514
581,4	678,343
581,9	677,057
582,3	678,314
582,7	671,914
583,2	672,743
583,6	669,086
584,1	670,114
584,5	668,943
585	670,486
585,4	669,057
585,9	672,571
586,3	665,829
586,8	668,429
587,2	666,257
587,6	667
588,1	667,257
588,5	671,886
589	674,457
589,4	676,829
589,9	675,971
590,3	675,2
590,8	668,971
591,2	665,714
591,7	659,486
592,1	660,257
592,5	660,886
593	662,686
593,4	660,771
593,9	662,143
594,3	667,2
594,8	667,771
595,2	662,229
595,7	659,8
596,1	655,429
596,6	655,257
597	655,371
597,4	653,914
597,9	654,343
598,3	655,943
598,8	650,886
599,2	654,343
599,7	655,943
600,1	651,829
600,6	647,114
601	645,114
601,4	640,657
601,9	642,143
602,3	635,543
602,8	631,914
603,2	633,229
603,7	635,286
604,1	631,714
604,6	630,543
605	634,8
605,4	633,314
605,9	632,571
606,3	635,2
606,8	634,514
607,2	636,571
607,7	635,286
608,1	634,314
608,6	637,857
609	636,829
609,4	634,114
609,9	631,057
610,3	631,943
610,8	632,657
611,2	627,886
611,7	625,029
612,1	619,771
612,6	616,143
613	611,8
613,4	606,743
613,9	606,029
614,3	604,371
614,8	601,029
615,2	601,943
615,7	602,514
616,1	604,971
616,6	604,971
617	598,2
617,4	595,571
617,9	596,714
618,3	592,429
618,8	591,171
619,2	586,4
619,7	588,686
620,1	587,457
620,5	584,057
621	578,629
621,4	580,029
621,9	569,486
622,3	567,6
622,8	559,229
623,2	559,629
623,6	555,714
624,1	554,457
624,5	550,8
625	552,714
625,4	549,143
625,9	547,6
626,3	545,057
626,8	546,514
627,2	547,971
627,6	551,4
628,1	550,857
628,5	546,457
629	545,257
629,4	541,943
629,9	540,171
630,3	537,571
630,7	530,343
631,2	527,543
631,6	530,686
632,1	529,114
632,5	523,771
633	519,886
633,4	511,486
633,8	507,571
634,3	502,229
634,7	500,629
635,2	496,029
635,6	498,714
636,1	496,257
636,5	496
636,9	500,743
637,4	500,686
637,8	497,6
638,3	491,943
638,7	486,229
639,2	483,2
639,6	483,514
640	471,343
640,5	468,514
640,9	463,371
641,4	469,343
641,8	468,8
642,2	467,857
642,7	461,571
643,1	464,686
643,6	466,743
644	465,657
644,5	462,029
644,9	461,029
645,3	461,571
645,8	466,543
646,2	465,943
646,7	459,543
647,1	457,571
647,6	453,629
648	445,514
648,4	437,571
648,9	433,343
649,3	428,829
649,8	429,086
650,2	427,657
650,6	426,171
651,1	428,143
651,5	425,914
652	419,943
652,4	418,2
652,9	408,543
653,3	406,457
653,7	405,629
654,2	403,286
654,6	403,829
655,1	402,943
655,5	402,257
655,9	405,686
656,4	407,429
656,8	402,914
657,3	402
657,7	400,514
658,2	399,314
658,6	398,543
659	398,657
659,5	392,8
659,9	390,629
660,4	389,543
660,8	386,571
661,2	384,257
661,7	384,571
662,1	384,486
662,6	381,857
663	380,743
663,4	375,286
663,9	371,343
664,3	368,086
664,8	354,229
665,2	350,286
665,6	347,771
666,1	346,914
666,5	344,686
667	346,257
667,4	343,543
667,9	354,086
668,3	351,629
668,7	351,571
669,2	349,4
669,6	346,143
670,1	343,029
670,5	341,543
670,9	334,229
671,4	331,829
671,8	326,771
672,3	321,257
672,7	325,2
673,1	321,629
673,6	319,086
674	316,114
674,5	312,629
674,9	312,486
675,3	310,829
675,8	307,286
676,2	305,171
676,7	304,429
677,1	302,257
677,5	298,771
678	296,371
678,4	297,486
678,9	296,029
679,3	299,371
679,7	294,914
680,2	295,886
680,6	299,714
681,1	300,857
681,5	301,486
681,9	299,686
682,4	294,971
682,8	299,914
683,3	299,371
683,7	295,2
684,1	290,829
684,6	286,057
685	286,657
685,5	287,257
685,9	283,257
686,3	277,771
686,8	280,314
687,2	278,229
687,7	273,171
688,1	270,914
688,5	272,314
689	273,171
689,4	274,829
689,9	272,457
690,3	274,314
690,7	278
691,2	273,2
691,6	269,686
692	266,714
692,5	261,629
692,9	253,514
693,4	247,286
693,8	245,971
694,2	247,029
694,7	242,8
695,1	241,543
695,6	243,686
696	248,2
696,4	250,257
696,9	248,086
697,3	246,543
697,8	249
698,2	244,857
698,6	243,771
699,1	243
699,5	235,086
699,9	232,057
700,4	231,429
700,8	227,457
701,3	227,886
701,7	224,6
702,1	224,514
702,6	230,457
703	230,971
703,5	224,343
703,9	220,914
704,3	218,143
704,8	221,571
705,2	214,657
705,6	211,114
706,1	209,714
706,5	214,229
707	214,029
707,4	213,6
707,8	206,371
708,3	207
708,7	208,571
709,2	210,457
709,6	204,429
710	208
710,5	207,429
710,9	206,229
711,3	204,029
711,8	200,029
712,2	195,971
712,7	198
713,1	191,629
713,5	189,8
714	193,2
714,4	191,714
714,8	193,143
715,3	191
715,7	186,257
716,2	187,171
716,6	188,886
717	183,971
717,5	181,857
717,9	184,857
718,3	181,8
718,8	189,657
719,2	183,086
719,7	179,086
720,1	181,486
720,5	184,457
721	175,029
721,4	175,571
721,8	171,971
722,3	181,886
722,7	183,8
723,2	182,371
723,6	181,543
724	179,057
724,5	175,286
724,9	176
725,3	167,6
725,8	166,229
726,2	161,429
726,7	160,086
727,1	163,114
727,5	163,457
728	157,714
728,4	159,057
728,8	153,457
729,3	153,029
729,7	151,429
730,1	149,686
730,6	148,686
731	148,6
731,5	146,086
731,9	146,143
732,3	146,914
732,8	146,257
733,2	144,371
733,6	148,857
734,1	148
734,5	148,971
734,9	147,514
735,4	148,4
735,8	148,657
736,3	149,429
736,7	143,571
737,1	145,343
737,6	144,257
738	149,886
738,4	146,429
738,9	144,6
739,3	145,657
739,7	150,2
740,2	149,229
740,6	148,686
741,1	141,971
741,5	144,486
741,9	145,771
742,4	143,114
742,8	139,857
743,2	138,371
743,7	133,429
744,1	134,229
744,5	133,6
745	126,8
745,4	127,314
745,8	124,029
746,3	125,143
746,7	126,4
747,2	126,714
747,6	123,2
748	128,029
748,5	127,686
748,9	126,514
749,3	117,229
749,8	119,486
750,2	115
750,6	119,657
751,1	116,429
751,5	112,114
751,9	113,457
752,4	117,229
752,8	116,114
753,3	119,457
753,7	112,314
754,1	110,171
754,6	112,971
755	116,714
755,4	120,743
755,9	122,4
756,3	125,086
756,7	131,143
757,2	132,229
757,6	131,743
758	130,971
758,5	127,886
758,9	120,257
759,3	118,4
759,8	112,229
760,2	110,514
760,6	112,457
761,1	105,629
761,5	111,6
761,9	117,914
762,4	111,686
762,8	112,086
763,3	113,371
763,7	107,771
764,1	112,4
764,6	102,686
765	95,571
765,4	100,629
765,9	103,686
766,3	103,429
766,7	104,6
767,2	104
767,6	105,343
768	108,457
768,5	106,6
768,9	103,943
769,3	96,543
769,8	95,543
770,2	90,029
770,6	91,8
771,1	90,829
771,5	89,314
771,9	91,571
772,4	96,257
772,8	94,2
773,2	95,743
773,7	91,743
774,1	91,8
774,5	85,657
775	76,857
775,4	75,257
775,8	75
776,3	77,171
776,7	77,857
777,1	77,143
777,6	81,314
778	83,829
778,4	87,286
778,9	85,657
779,3	80,571
779,7	82,686
780,2	85,657
780,6	84,686
781	84,943
781,5	83,229
781,9	86,114
782,3	89,714
782,8	90,114
783,2	85,371
783,6	87,771
784,1	86,286
784,5	84,286
784,9	86,486
785,4	82,543
785,8	78,6
786,2	76,829
786,7	74,343
787,1	77,057
787,5	78,229
788	73,371
788,4	76,086
788,8	72,886
789,3	74,171
789,7	76,029
790,1	73,2
790,6	72,371
791	75,314
791,4	74,371
791,9	74,571
792,3	75,543
792,7	72,971
793,2	75,229
793,6	73,771
794	71,457
794,5	67,543
794,9	71,171
795,3	72,086
795,8	73,257
796,2	66,743
796,6	71,543
797,1	67,171
797,5	70,286
797,9	69,086
798,4	63,4
798,8	59,8
799,2	64,314
799,7	61,571
800,1	64,2
800,5	62,2
801	60,2
801,4	63,829
801,8	60,571
802,2	60,943
802,7	58,286
803,1	62,314
803,5	61,143
804	63,429
804,4	62,543
804,8	68,6
805,3	70,943
805,7	72,343
806,1	72,257
806,6	70,114
807	67,714
807,4	66,771
807,9	63,314
808,3	59,229
808,7	54,2
809,2	51,714
809,6	54,114
810	50,657
810,4	50,457
810,9	49,543
811,3	51,914
811,7	55,571
812,2	55,543
812,6	54,143
813	57,543
813,5	54,457
813,9	56,2
814,3	54,229
814,8	52,514
815,2	52,6
815,6	50,457
816,1	48
816,5	52,943
816,9	48,686
817,3	49,771
817,8	48,514
818,2	47,771
818,6	47,057
819,1	48,686
819,5	46,2
819,9	51,714
820,4	48,857
820,8	50,886
821,2	49,029
821,7	47,029
822,1	45,343
822,5	44,257
822,9	41,4
823,4	42,543
823,8	40,457
824,2	38,886
824,7	48,514
825,1	48,029
825,5	47,286
826	45,371
826,4	43,029
826,8	45,343
827,3	47,857
827,7	42,543
828,1	46,143
828,5	43
829	46,286
829,4	44,2
829,8	42,229
830,3	40,857
830,7	41,571
831,1	42,057
831,6	46,257
832	48,4
832,4	49,171
832,8	45,114
833,3	45,743
833,7	43,286
834,1	39,343
834,6	37,857
835	34,857
835,4	35,771
835,8	40,2
836,3	38,771
836,7	39,657
837,1	40,886
837,6	39,429
838	38,629
838,4	37,686
838,9	36,629
839,3	41,486
839,7	44,629
840,1	40,971
840,6	44,2
841	44,286
841,4	43,543
841,9	41,714
842,3	35,771
842,7	31,286
843,1	33,914
843,6	31,2
844	30,171
844,4	30,057
844,9	32,343
845,3	34,457
845,7	34,371
846,2	36,514
846,6	36
847	36,629
847,4	32,6
847,9	30,343
848,3	29,457
848,7	29,514
849,2	26,229
849,6	23,771
850	21,2
850,4	21,6
850,9	19,543
851,3	21,914
851,7	24,057
852,2	23,486
852,6	21,657
853	20,029
853,4	22,314
853,9	24,343
854,3	22,343
854,7	23,029
855,2	25,371
855,6	31,086
856	30,943
856,4	34,2
856,9	35,886
857,3	31,629
857,7	29,514
858,2	26,743
858,6	25,086
859	22,457
859,4	23,714
859,9	26,171
860,3	26
860,7	24,171
861,1	25,029
861,6	28,4
862	32,914
862,4	29,571
862,9	27,029
863,3	25,771
863,7	29,171
864,1	31,086
864,6	32,029
865	33,343
865,4	32,743
865,9	30,514
866,3	35,686
866,7	35,857
867,1	28,714
867,6	28,943
868	31,514
868,4	34,4
868,8	33,143
869,3	32,829
869,7	29,314
870,1	32,771
870,6	26,8
871	18,743
871,4	15,457
871,8	19,714
872,3	16,429
872,7	20,571
873,1	20,286
873,5	22,457
874	23,343
874,4	21,029
874,8	26
875,3	26,629
875,7	24,143
876,1	22,743
876,5	20,4
877	24,8
877,4	28,829
877,8	19,829
878,2	19,257
878,7	20,486
879,1	21,4
879,5	19,086
879,9	23,229
880,4	22,686
880,8	25
881,2	29,6
881,7	27,114
882,1	32,686
882,5	38,029
882,9	34,571
883,4	32,771
883,8	30,943
884,2	22
884,6	24,257
885,1	20,2
885,5	19,486
885,9	19,114
886,3	20,057
886,8	22,029
887,2	25,657
887,6	23,543
888	21,4
888,5	24,943
888,9	23,057
889,3	23,543
889,8	26,514
890,2	26,143
890,6	26,886
891	27,514
891,5	26,029
891,9	23,886
892,3	20,343
892,7	17,8
893,2	20,571
893,6	20,029
894	18,943
894,4	16,886
894,9	15,057
895,3	15,457
895,7	14,714
896,1	16,143
896,6	15,857
897	17,971
897,4	18,543
897,8	22,886
898,3	29,629
898,7	22,743
899,1	20,2
899,5	22,143
900	20,086
900,4	19,771
900,8	16,114
901,2	9,714
901,7	12,514
902,1	17,686
902,5	14,8
902,9	14,8
903,4	8,914
903,8	11,943
904,2	12,314
904,6	12,714
905,1	11,543
905,5	13,257
905,9	15,8
906,3	17,829
906,8	18,514
907,2	19,857
907,6	22,171
908	15,286
908,5	15,686
908,9	15,914
909,3	13,714
909,7	12,857
910,2	18,086
910,6	12,714
911	15,171
911,4	13,229
911,9	8,857
912,3	10,686
912,7	5,486
913,1	-5,257
913,6	-0,629
914	0,971
914,4	-1,343
914,8	0,829
915,3	1,771
915,7	8,143
916,1	16
916,5	16,857
916,9	11
917,4	13,171
917,8	14,229
918,2	16,714
918,6	16,343
919,1	12,971
919,5	12,086
919,9	18,314
920,3	21,486
920,8	22,371
921,2	16,543
921,6	18,286
922	19,714
922,5	23,857
922,9	18,971
923,3	18,914
923,7	15,914
924,2	20,4
924,6	17
925	15,457
925,4	12,829
925,8	14,971
926,3	15,229
926,7	16,343
927,1	18,486
927,5	23,457
928	22
928,4	22,486
928,8	20,4
929,2	16,171
929,7	18,029
930,1	14,257
930,5	11,743
930,9	10,314
931,3	11,257
931,8	13,143
932,2	14,286
932,6	12,2
933	12,086
933,5	10,286
933,9	10,571
934,3	11,857
934,7	12,514
935,2	15,686
935,6	15,829
936	12,543
936,4	14,457
936,8	19,2
937,3	12,571
937,7	11,143
938,1	2,829
938,5	4,057
939	11,257
939,4	13,8
939,8	12,429
940,2	16,8
940,6	17,457
941,1	23,629
941,5	24,857
941,9	24,886
942,3	17,457
942,8	22,4
943,2	23,886
943,6	24,657
944	24,314
944,4	24,086
944,9	20,914
945,3	22,286
945,7	22,114
946,1	17,914
946,6	20,657
947	18,171
947,4	13,429
947,8	13,4
948,2	13,057
948,7	2,886
949,1	3,943
949,5	0,229
949,9	3,857
950,3	5,714
950,8	5,686
951,2	7,457
951,6	13,286
952	11,314
952,5	8,686
952,9	6,171
953,3	7,343
953,7	8,371
954,1	10,286
954,6	7,029
955	8,714
955,4	14,429
955,8	16,943
956,2	21,429
956,7	19,743
957,1	15,4
957,5	15,486
957,9	17,171
958,3	14,571
958,8	13,229
959,2	7,029
959,6	7,229
960	11,771
960,5	9,571
960,9	11,571
961,3	9,886
961,7	8,943
962,1	9,2
962,6	9,371
963	8,886
963,4	15,629
963,8	12,343
964,2	14,8
964,7	15,086
965,1	12,543
965,5	14,543
965,9	15,771
966,3	11,714
966,8	11,314
967,2	7,429
967,6	9,286
968	10,714
968,4	10,571
968,9	10,343
969,3	11,286
969,7	11,2
970,1	11,371
970,5	9,429
971	8,429
971,4	6,543
971,8	2,629
972,2	3,771
972,6	3,371
973,1	1,657
973,5	0,914
973,9	2,657
974,3	2,829
974,7	4,943
975,2	4,714
975,6	6
976	10,943
976,4	11,143
976,8	12,657
977,3	13,457
977,7	13,143
978,1	15,286
978,5	15,114
978,9	12,829
979,4	10,886
979,8	9,829
980,2	8,143
980,6	5,857
981	3,543
981,5	0,686
981,9	2,286
982,3	3,629
982,7	1,686
983,1	-0,943
983,6	0,057
984	-2,143
984,4	-0,886
984,8	0,486
985,2	1
985,6	3,971
986,1	5,4
986,5	3,943
986,9	7,8
987,3	9,029
987,7	4,714
988,2	6,057
988,6	4,6
989	5,171
989,4	10,4
989,8	10,371
990,3	11,771
990,7	15,971
991,1	17,657
991,5	16,314
991,9	10,171
992,3	2,343
992,8	2,286
993,2	0,686
993,6	-1,057
994	-6,914
994,4	-3,571
994,9	4,171
995,3	16,314
995,7	13,457
996,1	13,514
996,5	9,971
996,9	10,486
997,4	7,914
997,8	12,486
998,2	1,714
998,6	3,457
999	6,429
999,5	5,657
999,9	8
1000,3	13,029
1000,7	11,257
1001,1	15,8
1001,5	13,743
1002	10,514
1002,4	15
1002,8	12,914
1003,2	14,486
1003,6	10,343
1004	9,714
1004,5	10,829
1004,9	7,086
1005,3	6,8
1005,7	9,686
1006,1	7,143
1006,6	7,2
1007	4,029
1007,4	1,143
1007,8	8,2
1008,2	10,486
1008,6	7,771
1009,1	6,229
1009,5	7,486
1009,9	14,229
1010,3	15,629
1010,7	12,371
1011,1	12,686
1011,6	15,543
1012	13,743
1012,4	16,829
1012,8	13,086
1013,2	13,571
1013,6	15,943
1014,1	10,8
1014,5	8,543
1014,9	11,571
1015,3	11,286
1015,7	13,6
1016,1	11,8
1016,6	8,971
1017	13,971
1017,4	13,2
1017,8	8,286
1018,2	8,257
1018,6	3,943
1019,1	5,229
1019,5	6,543
1019,9	6,914
1020,3	10,543
1020,7	17,8
1021,1	16,171
1021,6	16,629
1022	18,629
1022,4	20,114
1022,8	19,314
1023,2	16,771
1023,6	9,657
1024,1	8,743
1024,5	10,171
1024,9	13,114
1025,3	11,914
1025,7	12,571
1026,1	15,914
1026,6	23,486
1027	25,086
1027,4	28,629
1027,8	24,114
1028,2	19,857
1028,6	16,543
1029	13,057
1029,5	9,657
1029,9	10,171
1030,3	8,4
1030,7	9,829
1031,1	15,257
1031,5	21,8
1032	23
1032,4	23,714
1032,8	20,971
1033,2	21,057
1033,6	18,857
1034	15,371
1034,4	9,857
1034,9	13,057
1035,3	11,714
1035,7	15,114
1036,1	9,971
1036,5	14,4
1036,9	17,943
1037,4	21,2
1037,8	17,857
1038,2	16,629
1038,6	12,2
1039	15,286
1039,4	15,086
1039,8	13
1040,3	9,886
1040,7	10,114
1041,1	8,086
1041,5	10,771
1041,9	3,714
1042,3	0,629
1042,7	-0,057
1043,2	1,714
1043,6	5,029
1044	8,057
1044,4	4,286
1044,8	12,686
1045,2	13,343
1045,6	16,171
1046,1	17,571
1046,5	11,029
1046,9	11,2
1047,3	12,771
1047,7	12,314
1048,1	13,257
1048,5	10,4
1049	8,571
1049,4	12,971
1049,8	10,143
1050,2	12,057
1050,6	10,171
1051	6,257
1051,4	8,314
1051,9	8,571
1052,3	8,229
1052,7	11,314
1053,1	8,571
1053,5	8,657
1053,9	12,086
1054,3	4,857
1054,8	5,457
1055,2	1
1055,6	0,4
1056	1,543
1056,4	1,6
1056,8	2,171
1057,2	6,514
1057,6	6,457
1058,1	13,229
1058,5	11,429
1058,9	9,914
1059,3	12,771
1059,7	12,143
1060,1	11,629
1060,5	5,4
1061	0,771
1061,4	4,171
1061,8	8,314
1062,2	0,686
1062,6	1,657
1063	3,771
1063,4	5,914
1063,8	10,486
1064,3	7,857
1064,7	6,771
1065,1	12,857
1065,5	11,971
1065,9	11,886
1066,3	15,086
1066,7	7,8
1067,1	7,143
1067,6	8,114
1068	8,057
1068,4	8,514
1068,8	5
1069,2	5,314
1069,6	6,943
1070	6,086
1070,4	6
1070,9	9,114
1071,3	10,143
1071,7	11,114
1072,1	3,543
1072,5	5,4
1072,9	8,457
1073,3	9
1073,7	7,886
1074,2	7,857
1074,6	6,543
1075	13
1075,4	13,086
1075,8	11,543
1076,2	11,857
1076,6	12,343
1077	11,6
1077,5	12,743
1077,9	10,714
1078,3	8,714
1078,7	5,971
1079,1	1,857
1079,5	-1,657
1079,9	-4,371
1080,3	-4,943
1080,7	-1,171
1081,2	0,6
1081,6	1,771
1082	7,257
1082,4	4,429
1082,8	7,6
1083,2	10,143
1083,6	8,143
1084	12,4
1084,5	15,657
1084,9	8,314
1085,3	11,4
1085,7	10,429
1086,1	10,943
1086,5	6,429
1086,9	0,486
1087,3	-2,943
1087,7	-2,771
1088,2	1,257
1088,6	2,514
1089	3,514
1089,4	6,743
1089,8	5,4
1090,2	6,2
1090,6	8,4
1091	6,714
1091,4	4,886
1091,9	1,543
1092,3	3,629
1092,7	8,286
1093,1	10,343
1093,5	11,743
1093,9	8,286
1094,3	10,657
1094,7	12,8
1095,1	12,2
1095,5	7,771
1096	6,886
1096,4	4,771
1096,8	6,771
1097,2	1,657
1097,6	2,057
1098	1,371
1098,4	5,4
1098,8	2,943
1099,2	1,543
1099,6	1,029
1100,1	6,8
1100,5	7,057
1100,9	10
1101,3	7,2
1101,7	8,6
1102,1	10,914
1102,5	7,057
1102,9	1,114
1103,3	1,429
1103,7	-3,114
1104,2	0
1104,6	2,486
1105	4,457
1105,4	8,143
1105,8	10,114
1106,2	7,6
1106,6	8,457
1107	6,486
1107,4	4,7
1107,8	2,04
1108,3	0,15
