Data from Subt2_00014.txt Node
Date: Mon Aug 28 13:07:31 MSK 2023
User: vat
Spectrometer: MAYP114033
Trigger mode: 0
Integration Time (sec): 1,000000E0
Scans to average: 5
Electric dark correction enabled: true
Nonlinearity correction enabled: false
Boxcar width: 3
XAxis mode: Wavelengths
Number of Pixels in Spectrum: 2068
>>>>>Begin Spectral Data<<<<<
199,4	-0,333
199,9	-0,733
200,4	0,033
200,8	0,638
201,3	2,952
201,8	4,124
202,2	1,695
202,7	2,295
203,2	2,495
203,6	2,181
204,1	5,267
204,6	6,181
205	8,324
205,5	14,038
206	14,067
206,4	17,438
206,9	20,438
207,4	22,238
207,8	19,21
208,3	18,81
208,8	18,81
209,2	21,752
209,7	18,524
210,2	11,752
210,6	8,667
211,1	8,038
211,5	11,581
212	11,124
212,5	10,724
212,9	14,724
213,4	18,095
213,9	18,495
214,3	17,61
214,8	13,41
215,3	11,552
215,7	9,467
216,2	6,267
216,7	8,438
217,1	5,324
217,6	8,124
218,1	4,81
218,5	5,438
219	4,324
219,5	8,181
219,9	6,095
220,4	6,552
220,9	6,895
221,3	10,895
221,8	10,467
222,3	15,267
222,7	14,752
223,2	15,21
223,6	18,095
224,1	19,895
224,6	17,381
225	14,952
225,5	12,581
226	12,352
226,4	16,667
226,9	12,638
227,4	10,01
227,8	11,067
228,3	14,838
228,8	15,752
229,2	14,838
229,7	12,21
230,2	9,724
230,6	8,867
231,1	11,61
231,5	9,352
232	12,038
232,5	13,781
232,9	13,381
233,4	21,638
233,9	23,61
234,3	21,752
234,8	24,924
235,3	17,695
235,7	14,295
236,2	10,895
236,7	4,381
237,1	12,638
237,6	11,152
238,1	9,095
238,5	12,067
239	11,238
239,4	16,61
239,9	20,21
240,4	9,095
240,8	11,124
241,3	16,467
241,8	13,352
242,2	12,495
242,7	14,21
243,2	11,352
243,6	16,352
244,1	12,495
244,6	10,124
245	15,238
245,5	17,067
245,9	8,667
246,4	10,438
246,9	9,267
247,3	8,695
247,8	6,981
248,3	7,01
248,7	9,867
249,2	12,895
249,7	12,124
250,1	9,638
250,6	14,667
251	13,838
251,5	12,352
252	11,381
252,4	14,581
252,9	16,352
253,4	19,124
253,8	17,867
254,3	18,124
254,8	21,124
255,2	19,124
255,7	20,181
256,1	23,495
256,6	22,438
257,1	21,01
257,5	20,295
258	11,695
258,5	9,238
258,9	7,581
259,4	6,952
259,9	6,81
260,3	8,695
260,8	9,324
261,2	16,81
261,7	18,495
262,2	17,467
262,6	12,438
263,1	12,981
263,6	9,381
264	9,924
264,5	6,295
264,9	8,21
265,4	5,581
265,9	10,724
266,3	11,467
266,8	14,21
267,3	14,695
267,7	14,924
268,2	14,867
268,7	18,267
269,1	15,181
269,6	12,781
270	13,867
270,5	11,095
271	16,181
271,4	17,324
271,9	20,438
272,4	21,152
272,8	23,038
273,3	25,467
273,7	26,01
274,2	23,21
274,7	18,895
275,1	16,038
275,6	21,352
276,1	23,095
276,5	18,581
277	16,038
277,4	15,467
277,9	19,152
278,4	18,61
278,8	13,352
279,3	10,667
279,8	10,495
280,2	9,21
280,7	7,238
281,1	8,067
281,6	3,638
282,1	-1,19
282,5	-0,533
283	-2,733
283,4	3,01
283,9	2,695
284,4	0,981
284,8	4,61
285,3	9,324
285,8	9,81
286,2	11,867
286,7	11,981
287,1	15,124
287,6	13,381
288,1	16,895
288,5	17,152
289	20,352
289,5	22,324
289,9	22,21
290,4	21,181
290,8	21,838
291,3	20,352
291,8	22,495
292,2	20,01
292,7	19,038
293,1	18,21
293,6	15,552
294,1	17,552
294,5	13,838
295	9,552
295,5	8,381
295,9	9,61
296,4	8,924
296,8	10,21
297,3	5,038
297,8	4,981
298,2	12,667
298,7	13,552
299,1	13,095
299,6	13,267
300,1	13,267
300,5	17,724
301	20,381
301,5	11,867
301,9	11,524
302,4	9,924
302,8	10,038
303,3	8,381
303,8	10,781
304,2	4,61
304,7	7,324
305,1	7,867
305,6	9,581
306,1	10,867
306,5	16,667
307	15,724
307,4	21,41
307,9	20,438
308,4	18,381
308,8	19,524
309,3	20,867
309,8	21,467
310,2	22,095
310,7	22,01
311,1	22,038
311,6	24,124
312,1	20,667
312,5	16,467
313	11,638
313,4	11,867
313,9	9,81
314,4	12,781
314,8	10,81
315,3	16,81
315,7	17,695
316,2	23,21
316,7	17,952
317,1	19,01
317,6	17,324
318	17,867
318,5	16,467
319	18,724
319,4	16,095
319,9	17,124
320,3	17,495
320,8	19,838
321,3	20,21
321,7	17,981
322,2	15,667
322,6	12,381
323,1	13,952
323,6	14,581
324	15,81
324,5	15,181
324,9	14,81
325,4	14,638
325,9	18,667
326,3	15,21
326,8	14,324
327,2	13,81
327,7	11,752
328,2	11,524
328,6	12,61
329,1	7,152
329,5	8,667
330	10,381
330,5	4,752
330,9	5,038
331,4	5,124
331,8	5,295
332,3	7,352
332,8	8,41
333,2	7,581
333,7	6,21
334,1	11,267
334,6	10,924
335,1	14,552
335,5	16,581
336	19,867
336,4	23,01
336,9	27,01
337,4	24,038
337,8	22,524
338,3	19,152
338,7	19,438
339,2	18,952
339,7	18,695
340,1	14,895
340,6	12,438
341	11,552
341,5	13,638
342	13,01
342,4	14,124
342,9	12,752
343,3	17,352
343,8	22,81
344,2	28,924
344,7	31,152
345,2	30,495
345,6	28,667
346,1	28,838
346,5	27,295
347	23,038
347,5	19,124
347,9	11,352
348,4	11,181
348,8	9,038
349,3	12,067
349,8	12,695
350,2	14,267
350,7	12,295
351,1	16,867
351,6	20,981
352	25,695
352,5	27,495
353	29,067
353,4	37,324
353,9	45,21
354,3	51,981
354,8	58,324
355,3	67,01
355,7	73,152
356,2	89,695
356,6	104,695
357,1	123,952
357,5	145,295
358	168,924
358,5	197,438
358,9	233,067
359,4	271,438
359,8	314,01
360,3	357,867
360,8	408,924
361,2	465,895
361,7	527,01
362,1	588,267
362,6	653,038
363	721,867
363,5	808,41
364	895,41
364,4	986,324
364,9	1072,752
365,3	1164,838
365,8	1254,924
366,3	1336,152
366,7	1403,724
367,2	1460,067
367,6	1509,324
368,1	1548,61
368,5	1571,467
369	1584,038
369,5	1580,981
369,9	1565,238
370,4	1543,752
370,8	1505,467
371,3	1460,352
371,7	1412,638
372,2	1353,181
372,7	1295,724
373,1	1233,781
373,6	1164,781
374	1092,467
374,5	1021,552
374,9	950,381
375,4	881,152
375,9	808,952
376,3	748,181
376,8	689,495
377,2	637,438
377,7	589,438
378,2	542,095
378,6	496,752
379,1	460,752
379,5	418,867
380	384,038
380,4	357,267
380,9	329,752
381,4	306,581
381,8	285,01
382,3	263,667
382,7	247,21
383,2	230,952
383,6	211,81
384,1	194,152
384,6	180,352
385	171,01
385,5	161,381
385,9	156,095
386,4	148,695
386,8	142,495
387,3	135,638
387,7	125,038
388,2	115,095
388,7	106,524
389,1	91,638
389,6	88,552
390	81,467
390,5	76,352
390,9	75,638
391,4	70,267
391,9	68,695
392,3	73,724
392,8	71,124
393,2	71,267
393,7	68,124
394,1	65,838
394,6	68,038
395,1	66,724
395,5	61,81
396	54,952
396,4	52,638
396,9	57,324
397,3	57,867
397,8	52,438
398,2	55,352
398,7	56,41
399,2	62,438
399,6	61,438
400,1	56,952
400,5	56,352
401	64,067
401,4	58,01
401,9	59,038
402,4	55,895
402,8	57,524
403,3	60,924
403,7	57,638
404,2	60,524
404,6	62,152
405,1	62,552
405,5	61,352
406	61,581
406,5	59,981
406,9	68,695
407,4	67,095
407,8	78,61
408,3	81,781
408,7	91,41
409,2	98,752
409,6	110,295
410,1	115,81
410,6	125,181
411	127,467
411,5	137,552
411,9	144,267
412,4	152,61
412,8	158,724
413,3	167,724
413,7	175,895
414,2	185,438
414,7	196,924
415,1	205,752
415,6	213,181
416	226,952
416,5	238,895
416,9	261,21
417,4	280,552
417,8	293,267
418,3	312,352
418,8	339,61
419,2	362,695
419,7	388,467
420,1	403,638
420,6	418,324
421	444,581
421,5	470,695
421,9	496,181
422,4	523,895
422,8	549,81
423,3	571,752
423,8	604,724
424,2	633,552
424,7	661,61
425,1	692,41
425,6	728,381
426	760,867
426,5	809,324
426,9	859,438
427,4	906,124
427,9	954,124
428,3	1002,295
428,8	1048,21
429,2	1101,324
429,7	1153,352
430,1	1207,552
430,6	1269,952
431	1340,638
431,5	1406,438
431,9	1478,838
432,4	1556,352
432,8	1639,81
433,3	1727,181
433,8	1821,781
434,2	1912,724
434,7	2009,867
435,1	2114,667
435,6	2225,81
436	2337,724
436,5	2448,981
436,9	2563,781
437,4	2683,467
437,8	2811,581
438,3	2942,781
438,8	3080,352
439,2	3225,181
439,7	3374,867
440,1	3520,152
440,6	3687,21
441	3850,895
441,5	4020,124
441,9	4195,152
442,4	4371,952
442,8	4560,838
443,3	4760,867
443,7	4962,438
444,2	5176,438
444,7	5390,124
445,1	5609,295
445,6	5845,667
446	6074,781
446,5	6314,41
446,9	6552,324
447,4	6803,924
447,8	7065,581
448,3	7332,381
448,7	7588,01
449,2	7862,324
449,6	8144,552
450,1	8430,41
450,6	8722,095
451	9013,724
451,5	9322,467
451,9	9645,581
452,4	9968,352
452,8	10289,752
453,3	10606,752
453,7	10935,41
454,2	11282,324
454,6	11612,295
455,1	11954,952
455,5	12304,438
456	12654,752
456,4	13021,181
456,9	13385,924
457,3	13753,638
457,8	14131,124
458,3	14496,952
458,7	14866,781
459,2	15248,352
459,6	15635,924
460,1	16025,01
460,5	16404,352
461	16778,238
461,4	17173,752
461,9	17574,21
462,3	17966,752
462,8	18358,124
463,2	18743,952
463,7	19133,781
464,1	19529,295
464,6	19918,952
465	20295,495
465,5	20682,295
466	21067,61
466,4	21454,695
466,9	21832,21
467,3	22205,352
467,8	22592,552
468,2	22970,152
468,7	23346,181
469,1	23715,267
469,6	24072,581
470	24444,381
470,5	24816,552
470,9	25150,21
471,4	25502,467
471,8	25823,61
472,3	26160,81
472,7	26497,781
473,2	26818,381
473,6	27129,467
474,1	27446,181
474,5	27741,352
475	28064,038
475,4	28356,152
475,9	28646,781
476,4	28920,038
476,8	29192,81
477,3	29465,295
477,7	29731,295
478,2	29973,238
478,6	30215,381
479,1	30420,381
479,5	30651,01
480	30872,781
480,4	31063,038
480,9	31240,667
481,3	31408,924
481,8	31577,952
482,2	31761,81
482,7	31905,61
483,1	32042,781
483,6	32185,352
484	32334,295
484,5	32455,495
484,9	32560,695
485,4	32656,638
485,8	32732,581
486,3	32812,752
486,7	32867,41
487,2	32908,781
487,6	32962,524
488,1	33010,01
488,5	33023,095
489	33045,41
489,4	33050,438
489,9	33049,495
490,4	33046,724
490,8	33025,238
491,3	32980,838
491,7	32955,381
492,2	32926,467
492,6	32873,295
493,1	32811,61
493,5	32721,438
494	32634,581
494,4	32551,438
494,9	32459,81
495,3	32362,838
495,8	32257,667
496,2	32157,01
496,7	32047,695
497,1	31941,438
497,6	31819,295
498	31710,638
498,5	31571,81
498,9	31425,667
499,4	31282,324
499,8	31156,238
500,3	31001,667
500,7	30843,21
501,2	30657,552
501,6	30486,952
502,1	30331,095
502,5	30164,867
503	29988,924
503,4	29823,124
503,9	29649,267
504,3	29464,752
504,8	29271,21
505,2	29080,238
505,7	28885,495
506,1	28672,667
506,6	28462,724
507	28254,381
507,5	28049,381
507,9	27847,181
508,4	27613,495
508,8	27391,21
509,3	27181,295
509,7	26953,181
510,2	26719,152
510,6	26491,695
511,1	26276,067
511,5	26057,61
512	25829,324
512,4	25584,952
512,9	25352,438
513,3	25123,238
513,8	24878,495
514,2	24637,324
514,7	24398,238
515,1	24155,981
515,6	23930,21
516	23702,695
516,5	23464,638
516,9	23248,067
517,4	22999,81
517,8	22763,324
518,3	22533,981
518,7	22287,41
519,2	22038,438
519,6	21808,352
520,1	21567,81
520,5	21340,981
521	21115,352
521,4	20883,552
521,9	20662,638
522,3	20448,21
522,8	20215,81
523,2	19994,752
523,7	19776,638
524,1	19548,952
524,6	19325,752
525	19111,238
525,5	18885,524
525,9	18684,667
526,4	18471,41
526,8	18260,781
527,3	18061,924
527,7	17853,61
528,2	17641,467
528,6	17450,781
529,1	17244,381
529,5	17053,152
530	16860,581
530,4	16660,581
530,9	16471,41
531,3	16300,61
531,8	16101,067
532,2	15919,81
532,6	15722,152
533,1	15535,124
533,5	15365,895
534	15189,867
534,4	14995,124
534,9	14835,61
535,3	14664,095
535,8	14496,981
536,2	14324,467
536,7	14158,61
537,1	13995,181
537,6	13842,238
538	13683,095
538,5	13530,867
538,9	13384,124
539,4	13236,238
539,8	13081,752
540,3	12937,752
540,7	12794,495
541,2	12635,124
541,6	12487,895
542,1	12343,038
542,5	12207,724
543	12068,895
543,4	11928,41
543,9	11788,238
544,3	11667,952
544,8	11536,038
545,2	11405,61
545,7	11278,895
546,1	11150,038
546,5	11034,752
547	10918,581
547,4	10785,61
547,9	10665,352
548,3	10557,41
548,8	10438,381
549,2	10324,867
549,7	10200,467
550,1	10086,724
550,6	9990,438
551	9889,752
551,5	9777,667
551,9	9670,838
552,4	9570,352
552,8	9480,038
553,3	9386,295
553,7	9293,524
554,2	9196,752
554,6	9102,495
555,1	9009,181
555,5	8921,952
555,9	8832,724
556,4	8739,038
556,8	8640,095
557,3	8551,667
557,7	8470,095
558,2	8388,952
558,6	8306,495
559,1	8218,552
559,5	8147,01
560	8071,381
560,4	7997,381
560,9	7919,724
561,3	7848,381
561,8	7773,467
562,2	7692,095
562,7	7606,867
563,1	7533,41
563,6	7455,895
564	7376,41
564,4	7304,838
564,9	7230,752
565,3	7166,438
565,8	7102,667
566,2	7027,981
566,7	6970,095
567,1	6912,181
567,6	6846,124
568	6787,752
568,5	6727,295
568,9	6663,01
569,4	6609,895
569,8	6543,124
570,3	6482,667
570,7	6419,267
571,1	6360,095
571,6	6303,238
572	6251,695
572,5	6193,952
572,9	6135,81
573,4	6083,724
573,8	6035,495
574,3	5974,781
574,7	5925,981
575,2	5871,695
575,6	5828,267
576,1	5778,495
576,5	5725,867
576,9	5674,238
577,4	5632,61
577,8	5578,61
578,3	5527,81
578,7	5473,467
579,2	5418,295
579,6	5366,638
580,1	5323,21
580,5	5272,752
581	5224,381
581,4	5185,21
581,9	5145,124
582,3	5104,952
582,7	5065,867
583,2	5021,21
583,6	4984,724
584,1	4951,01
584,5	4902,552
585	4858,21
585,4	4816,724
585,9	4776,81
586,3	4733,981
586,8	4688,467
587,2	4645,181
587,6	4606,124
588,1	4566,181
588,5	4529,752
589	4487,267
589,4	4450,638
589,9	4412,381
590,3	4381,067
590,8	4348,695
591,2	4310,838
591,7	4277,81
592,1	4249,838
592,5	4216,01
593	4188,895
593,4	4152,381
593,9	4117,038
594,3	4087,352
594,8	4059,552
595,2	4031,752
595,7	4006,238
596,1	3975,038
596,6	3945,01
597	3922,438
597,4	3895,152
597,9	3869,495
598,3	3841,838
598,8	3813,695
599,2	3789,581
599,7	3768,524
600,1	3738,238
600,6	3705,438
601	3678,724
601,4	3650,238
601,9	3623,781
602,3	3599,352
602,8	3570,924
603,2	3544,095
603,7	3524,067
604,1	3497,267
604,6	3472,438
605	3449,41
605,4	3417,152
605,9	3392,495
606,3	3372,238
606,8	3352,81
607,2	3328,41
607,7	3303,524
608,1	3272,867
608,6	3250,895
609	3228,61
609,4	3205,695
609,9	3185,61
610,3	3166,01
610,8	3144,067
611,2	3126,867
611,7	3112,895
612,1	3088,867
612,6	3067,867
613	3038,067
613,4	3014,552
613,9	2995,781
614,3	2973,067
614,8	2948,095
615,2	2927,152
615,7	2903,41
616,1	2892,324
616,6	2874,667
617	2854,981
617,4	2833,124
617,9	2807,752
618,3	2790,41
618,8	2768,152
619,2	2739,952
619,7	2718,695
620,1	2698,438
620,5	2678,552
621	2666,781
621,4	2644,581
621,9	2631,067
622,3	2611,295
622,8	2587,41
623,2	2569,01
623,6	2553,181
624,1	2533,438
624,5	2520,124
625	2497,667
625,4	2482,724
625,9	2468,467
626,3	2448,895
626,8	2432,038
627,2	2414,124
627,6	2395,095
628,1	2375,438
628,5	2356,152
629	2333,952
629,4	2316,467
629,9	2298,524
630,3	2279,095
630,7	2261,295
631,2	2253,581
631,6	2237,438
632,1	2225,81
632,5	2214,724
633	2197,924
633,4	2180,81
633,8	2161,238
634,3	2139,095
634,7	2115,381
635,2	2105,838
635,6	2082,552
636,1	2066,981
636,5	2058,438
636,9	2043,467
637,4	2029,01
637,8	2028,41
638,3	2010,838
638,7	1998,21
639,2	1980,638
639,6	1965,495
640	1949,495
640,5	1939,324
640,9	1922,867
641,4	1909,952
641,8	1898,124
642,2	1888,41
642,7	1873,981
643,1	1864,381
643,6	1845,81
644	1832,581
644,5	1824,295
644,9	1810,581
645,3	1796,41
645,8	1783,152
646,2	1768,21
646,7	1755,095
647,1	1739,438
647,6	1718,381
648	1706,781
648,4	1698,752
648,9	1683,21
649,3	1673,067
649,8	1673,61
650,2	1664,41
650,6	1660,867
651,1	1647,581
651,5	1636,381
652	1631,01
652,4	1624,267
652,9	1604,895
653,3	1592,981
653,7	1574,381
654,2	1567,181
654,6	1555,867
655,1	1540,352
655,5	1530,695
655,9	1520,524
656,4	1505,867
656,8	1498,838
657,3	1488,21
657,7	1477,924
658,2	1468,552
658,6	1454,152
659	1441,095
659,5	1440,895
659,9	1432,495
660,4	1421,01
660,8	1408,324
661,2	1400,61
661,7	1389,067
662,1	1383,552
662,6	1372,781
663	1356,295
663,4	1345,495
663,9	1336,895
664,3	1320,667
664,8	1312,81
665,2	1303,524
665,6	1290,324
666,1	1284,667
666,5	1273,838
667	1265,695
667,4	1260,038
667,9	1252,467
668,3	1240,124
668,7	1233,295
669,2	1223,552
669,6	1218,067
670,1	1206,124
670,5	1203,238
670,9	1193,552
671,4	1183,438
671,8	1169,981
672,3	1161,81
672,7	1153,01
673,1	1150,152
673,6	1137,867
674	1127,952
674,5	1121,152
674,9	1113,924
675,3	1105,295
675,8	1100,952
676,2	1087,152
676,7	1081,724
677,1	1076,724
677,5	1070,152
678	1067,638
678,4	1060,01
678,9	1049,295
679,3	1046,352
679,7	1036,838
680,2	1028,467
680,6	1020,695
681,1	1010,895
681,5	1011,21
681,9	1001,981
682,4	990,124
682,8	981,324
683,3	976,695
683,7	970,638
684,1	959,981
684,6	948,381
685	940,267
685,5	929,61
685,9	919,524
686,3	910,924
686,8	907,152
687,2	903,981
687,7	896,01
688,1	891,867
688,5	890,41
689	892,724
689,4	882,81
689,9	873,781
690,3	870,295
690,7	865,495
691,2	860,181
691,6	855,667
692	848,667
692,5	840,752
692,9	833,924
693,4	822,095
693,8	816,524
694,2	809,038
694,7	800,552
695,1	794,067
695,6	792,324
696	785,667
696,4	780,924
696,9	771,21
697,3	767,752
697,8	764,124
698,2	754,838
698,6	747,695
699,1	744,952
699,5	739,324
699,9	733,381
700,4	729,638
700,8	725,41
701,3	720,638
701,7	715,295
702,1	710,638
702,6	700,81
703	695,01
703,5	682,467
703,9	676,038
704,3	670,152
704,8	664,81
705,2	659,981
705,6	662,781
706,1	660,21
706,5	661,581
707	660,752
707,4	658,924
707,8	657,524
708,3	654,267
708,7	646,924
709,2	642,438
709,6	634,152
710	625,038
710,5	622,21
710,9	619,638
711,3	610,324
711,8	602,295
712,2	596,067
712,7	592,952
713,1	587,667
713,5	584,124
714	575,61
714,4	568,581
714,8	570,895
715,3	567,981
715,7	567,181
716,2	569,381
716,6	559,21
717	554,781
717,5	550,667
717,9	543,438
718,3	543,838
718,8	536,01
719,2	530,124
719,7	524,324
720,1	523,867
720,5	523,667
721	524,352
721,4	519,724
721,8	514,467
722,3	508,981
722,7	506,352
723,2	502,667
723,6	504,067
724	495,895
724,5	489,324
724,9	484,638
725,3	479,352
725,8	477,724
726,2	471,667
726,7	461,867
727,1	457,267
727,5	452,924
728	445,21
728,4	443,667
728,8	437,524
729,3	432,524
729,7	430,238
730,1	428,067
730,6	428,438
731	432,067
731,5	431,352
731,9	431,895
732,3	436,724
732,8	434,381
733,2	437,695
733,6	434,238
734,1	428,952
734,5	426,438
734,9	418,21
735,4	410,552
735,8	406,61
736,3	392,495
736,7	388,01
737,1	388,752
737,6	384,838
738	390,781
738,4	390,352
738,9	387,895
739,3	394,067
739,7	394,895
740,2	394,095
740,6	393,181
741,1	383,981
741,5	377,981
741,9	377,095
742,4	376,781
742,8	371,638
743,2	367,524
743,7	363,81
744,1	366,81
744,5	366,01
745	361,238
745,4	356,038
745,8	354,981
746,3	351,267
746,7	345,181
747,2	338,124
747,6	335,381
748	338,724
748,5	338,495
748,9	331,381
749,3	330,61
749,8	329,41
750,2	327,667
750,6	327,924
751,1	320,952
751,5	318,067
751,9	319,152
752,4	322,752
752,8	322,667
753,3	320,152
753,7	315,552
754,1	318,467
754,6	312,41
755	309,524
755,4	304,467
755,9	304,295
756,3	306,524
756,7	309,638
757,2	304,581
757,6	304,267
758	303,467
758,5	296,124
758,9	292,838
759,3	289,952
759,8	283,324
760,2	282,81
760,6	291,095
761,1	288,352
761,5	289,324
761,9	284,038
762,4	281,467
762,8	279,981
763,3	277,295
763,7	269,438
764,1	268,752
764,6	264,438
765	268,61
765,4	271,352
765,9	271,267
766,3	271,438
766,7	266,895
767,2	266,352
767,6	270,838
768	263,752
768,5	258,81
768,9	255,352
769,3	252,095
769,8	248,01
770,2	244,895
770,6	241,924
771,1	238,724
771,5	235,752
771,9	233,981
772,4	233,238
772,8	231,867
773,2	232,41
773,7	230,924
774,1	236,01
774,5	236,981
775	236,067
775,4	237,981
775,8	239,667
776,3	235,152
776,7	231,924
777,1	226,267
777,6	221,124
778	218,695
778,4	216,324
778,9	214,295
779,3	214,695
779,7	212,895
780,2	211,238
780,6	216,181
781	216,524
781,5	210,324
781,9	210,667
782,3	208,867
782,8	208,581
783,2	204,124
783,6	201,324
784,1	201,352
784,5	201,295
784,9	201,41
785,4	201,61
785,8	198,238
786,2	199,181
786,7	194,61
787,1	195,124
787,5	192,724
788	184,067
788,4	182,895
788,8	181,21
789,3	181,324
789,7	180,152
790,1	175,952
790,6	175,924
791	179,295
791,4	176,867
791,9	176,781
792,3	178,41
792,7	176,81
793,2	178,381
793,6	175,867
794	173,495
794,5	174,067
794,9	178,124
795,3	176,724
795,8	180,324
796,2	170,552
796,6	169,781
797,1	170,124
797,5	168,295
797,9	165,181
798,4	163,467
798,8	160,095
799,2	162,124
799,7	162,581
800,1	159,924
800,5	156,295
801	151,752
801,4	151,067
801,8	147,152
802,2	147,324
802,7	147,438
803,1	146,895
803,5	147,781
804	149,438
804,4	146,152
804,8	147,124
805,3	145,41
805,7	144,667
806,1	140,524
806,6	141,381
807	140,21
807,4	140,838
807,9	142,638
808,3	142,238
808,7	142,01
809,2	145,61
809,6	144,41
810	144,81
810,4	143,21
810,9	140,952
811,3	144,867
811,7	138,438
812,2	134,267
812,6	131,752
813	131,352
813,5	132,038
813,9	133,495
814,3	126,324
814,8	128,038
815,2	130,41
815,6	127,495
816,1	125,295
816,5	125,381
816,9	125,295
817,3	127,238
817,8	129,952
818,2	127,067
818,6	128,324
819,1	122,981
819,5	119,238
819,9	115,667
820,4	119,267
820,8	115,381
821,2	112,495
821,7	112,152
822,1	111,267
822,5	111,667
822,9	110,267
823,4	105,324
823,8	105,81
824,2	110,467
824,7	110,267
825,1	113,695
825,5	112,781
826	108,295
826,4	108,181
826,8	102,752
827,3	99,295
827,7	101,581
828,1	100,21
828,5	102,524
829	106,552
829,4	104,152
829,8	108,552
830,3	108,581
830,7	103,552
831,1	100,067
831,6	96,095
832	90,267
832,4	91,067
832,8	86,581
833,3	85,438
833,7	79,81
834,1	83,152
834,6	78,781
835	83,181
835,4	80,81
835,8	79,781
836,3	79,324
836,7	85,981
837,1	85,924
837,6	88,295
838	85,952
838,4	84,724
838,9	86,552
839,3	87,61
839,7	84,895
840,1	84,438
840,6	85,581
841	80,324
841,4	81,41
841,9	82,638
842,3	79,295
842,7	75,81
843,1	75,152
843,6	71,781
844	75,038
844,4	79,181
844,9	78,067
845,3	77,924
845,7	79,81
846,2	80,124
846,6	81,467
847	81,324
847,4	79,695
847,9	77,495
848,3	71,238
848,7	70,752
849,2	65,01
849,6	66,238
850	66,867
850,4	61,924
850,9	63,295
851,3	73,352
851,7	70,838
852,2	71,838
852,6	71,81
853	72,981
853,4	72,038
853,9	70,81
854,3	67,695
854,7	73,81
855,2	74,81
855,6	69,695
856	68,324
856,4	67,495
856,9	66,095
857,3	62,267
857,7	58,838
858,2	57,752
858,6	56,667
859	55,438
859,4	60,095
859,9	59,695
860,3	61,124
860,7	58,01
861,1	58,952
861,6	63,095
862	64,524
862,4	59,095
862,9	59,324
863,3	55,21
863,7	58,667
864,1	53,924
864,6	54,724
865	49,581
865,4	50,352
865,9	47,81
866,3	54,695
866,7	48,124
867,1	48,638
867,6	46,495
868	45,867
868,4	44,724
868,8	45,21
869,3	43,01
869,7	46,867
870,1	48,924
870,6	47,895
871	92,01
871,4	90,01
871,8	92,952
872,3	91,124
872,7	85,924
873,1	79,295
873,5	78,152
874	37,324
874,4	37,295
874,8	32,152
875,3	30,267
875,7	29,924
876,1	38,495
876,5	38,01
877	34,838
877,4	36,352
877,8	38,181
878,2	43,124
878,7	47,924
879,1	43,781
879,5	43,524
879,9	44,61
880,4	42,552
880,8	46,124
881,2	40,352
881,7	40,067
882,1	41,552
882,5	42,667
882,9	43,324
883,4	45,067
883,8	42,61
884,2	42,724
884,6	39,267
885,1	35,752
885,5	31,267
885,9	30,01
886,3	31,524
886,8	32,924
887,2	31,495
887,6	31,981
888	34,238
888,5	37,181
888,9	34,181
889,3	28,295
889,8	30,41
890,2	29,61
890,6	32,41
891	32,181
891,5	29,952
891,9	31,324
892,3	38,924
892,7	31,638
893,2	36,295
893,6	31,81
894	31,324
894,4	32,781
894,9	35,038
895,3	31,01
895,7	33,067
896,1	28,067
896,6	28,152
897	31,524
897,4	29,581
897,8	29,01
898,3	33,21
898,7	32,752
899,1	36,41
899,5	40,638
900	36,267
900,4	36,581
900,8	30,781
901,2	27,41
901,7	29,952
902,1	24,924
902,5	23,41
902,9	25,324
903,4	30,124
903,8	34,81
904,2	32,924
904,6	27,152
905,1	29,695
905,5	29,067
905,9	23,695
906,3	19,838
906,8	19,267
907,2	19,181
907,6	22,724
908	22,438
908,5	16,895
908,9	18,867
909,3	18,981
909,7	15,581
910,2	13,61
910,6	13,295
911	13,238
911,4	17,21
911,9	15,981
912,3	17,152
912,7	17,324
913,1	16,781
913,6	18,124
914	21,495
914,4	24,724
914,8	28,638
915,3	26,61
915,7	29,867
916,1	33,838
916,5	28,81
916,9	21,695
917,4	21,124
917,8	15,724
918,2	20,952
918,6	17,524
919,1	12,638
919,5	18,181
919,9	22,467
920,3	21,695
920,8	29,581
921,2	24,21
921,6	25,724
922	23,495
922,5	22,295
922,9	21,752
923,3	20,867
923,7	16,981
924,2	20,581
924,6	19,01
925	24,752
925,4	24,524
925,8	20,924
926,3	16,61
926,7	15,61
927,1	11,038
927,5	17,21
928	12,724
928,4	11,181
928,8	16,838
929,2	21,495
929,7	25,352
930,1	30,638
930,5	26,752
930,9	34,067
931,3	37,095
931,8	37,61
932,2	36,581
932,6	30,267
933	23,552
933,5	21,01
933,9	16,152
934,3	8,695
934,7	8,238
935,2	3,267
935,6	5,124
936	2,295
936,4	2,524
936,8	5,552
937,3	9,267
937,7	7,524
938,1	14,095
938,5	11,61
939	12,981
939,4	17,181
939,8	11,381
940,2	11,238
940,6	8,038
941,1	4,61
941,5	9,21
941,9	12,867
942,3	13,981
942,8	15,552
943,2	7,981
943,6	10,781
944	10,381
944,4	12,038
944,9	7,61
945,3	2,267
945,7	4,724
946,1	10,152
946,6	7,352
947	9,895
947,4	0,724
947,8	8,581
948,2	10,952
948,7	11,381
949,1	15,552
949,5	14,181
949,9	12,495
950,3	14,695
950,8	13,295
951,2	12,352
951,6	9,924
952	9,524
952,5	9,352
952,9	7,381
953,3	7,924
953,7	2,81
954,1	3,381
954,6	5,867
955	6,21
955,4	9,552
955,8	15,667
956,2	17,038
956,7	19,552
957,1	23,495
957,5	24,181
957,9	22,01
958,3	21,924
958,8	18,61
959,2	24,324
959,6	28,81
960	25,181
960,5	18,924
960,9	15,752
961,3	15,124
961,7	18,124
962,1	11,267
962,6	8,181
963	11,124
963,4	17,581
963,8	16,638
964,2	20,152
964,7	16,438
965,1	21,524
965,5	22,352
965,9	16,924
966,3	15,152
966,8	18,152
967,2	18,295
967,6	16,838
968	15,781
968,4	14,781
968,9	16,895
969,3	13,495
969,7	11,981
970,1	9,238
970,5	12,81
971	13,667
971,4	12,638
971,8	11,581
972,2	11,952
972,6	12,124
973,1	12,381
973,5	12,381
973,9	8,124
974,3	9,895
974,7	9,524
975,2	11,067
975,6	10,467
976	10,467
976,4	7,695
976,8	10,41
977,3	7,067
977,7	12,21
978,1	15,095
978,5	19,981
978,9	20,552
979,4	20,581
979,8	16,095
980,2	20,867
980,6	20,724
981	18,295
981,5	11,067
981,9	12,381
982,3	10,752
982,7	13,067
983,1	7,552
983,6	-0,105
984	1,21
984,4	7,581
984,8	4,267
985,2	7,552
985,6	4,267
986,1	2,981
986,5	7,895
986,9	6,838
987,3	4,752
987,7	4,924
988,2	1,41
988,6	2,895
989	7,724
989,4	4,695
989,8	1,638
990,3	0,981
990,7	4,81
991,1	6,981
991,5	8,952
991,9	4,581
992,3	4,124
992,8	5,952
993,2	9,124
993,6	4,638
994	4,867
994,4	7,667
994,9	8,238
995,3	10,124
995,7	9,981
996,1	5,267
996,5	3,124
996,9	6,01
997,4	0,381
997,8	2,238
998,2	4,238
998,6	7,21
999	6,724
999,5	11,352
999,9	12,324
1000,3	13,381
1000,7	15,438
1001,1	12,895
1001,5	12,838
1002	15,267
1002,4	10,667
1002,8	8,295
1003,2	7,352
1003,6	8,524
1004	10,352
1004,5	8,067
1004,9	9,238
1005,3	10,295
1005,7	13,981
1006,1	15,095
1006,6	10,01
1007	7,41
1007,4	7,552
1007,8	8,552
1008,2	15,61
1008,6	12,952
1009,1	12,41
1009,5	19,467
1009,9	22,21
1010,3	25,552
1010,7	24,552
1011,1	19,41
1011,6	14,895
1012	19,981
1012,4	17,495
1012,8	10,581
1013,2	7,438
1013,6	9,238
1014,1	5,81
1014,5	7,695
1014,9	3,524
1015,3	1,267
1015,7	6,638
1016,1	11,038
1016,6	11,152
1017	18,924
1017,4	17,638
1017,8	24,552
1018,2	27,924
1018,6	25,638
1019,1	19,495
1019,5	18,638
1019,9	14,724
1020,3	12,01
1020,7	8,381
1021,1	3,724
1021,6	7,952
1022	10,467
1022,4	6,895
1022,8	4,867
1023,2	4,238
1023,6	0,981
1024,1	2,81
1024,5	2,21
1024,9	5,067
1025,3	5,952
1025,7	4,067
1026,1	8,781
1026,6	11,324
1027	8,895
1027,4	4,781
1027,8	1,152
1028,2	3,61
1028,6	8,638
1029	3,324
1029,5	0,41
1029,9	7,038
1030,3	10,61
1030,7	14,21
1031,1	14,267
1031,5	12,895
1032	16,838
1032,4	23,867
1032,8	11,838
1033,2	11,095
1033,6	6,095
1034	-3,505
1034,4	-6,076
1034,9	-1,79
1035,3	-9,505
1035,7	-3,276
1036,1	-0,676
1036,5	-1,133
1036,9	4,695
1037,4	9,038
1037,8	4,352
1038,2	9,238
1038,6	8,581
1039	7,724
1039,4	11,981
1039,8	19,181
1040,3	21,781
1040,7	22,952
1041,1	16,238
1041,5	25,381
1041,9	27,267
1042,3	22,124
1042,7	17,038
1043,2	12,895
1043,6	14,067
1044	20,438
1044,4	14,238
1044,8	9,41
1045,2	12,924
1045,6	18,552
1046,1	22,067
1046,5	17,267
1046,9	16,781
1047,3	19,038
1047,7	19,324
1048,1	14,552
1048,5	10,238
1049	6,695
1049,4	7,381
1049,8	5,981
1050,2	1,61
1050,6	-0,59
1051	4,21
1051,4	-1,362
1051,9	-2,848
1052,3	-2,248
1052,7	-1,819
1053,1	-3,448
1053,5	0,238
1053,9	0,61
1054,3	1,924
1054,8	1,581
1055,2	6,01
1055,6	6,838
1056	8,381
1056,4	8,724
1056,8	9,838
1057,2	13,924
1057,6	18,21
1058,1	18,495
1058,5	15,495
1058,9	12,981
1059,3	8,724
1059,7	9,295
1060,1	10,238
1060,5	8,01
1061	3,952
1061,4	5,895
1061,8	10,638
1062,2	13,41
1062,6	11,581
1063	10,181
1063,4	13,895
1063,8	15,41
1064,3	20,295
1064,7	19,781
1065,1	22,324
1065,5	25,01
1065,9	25,581
1066,3	21,895
1066,7	27,124
1067,1	20,295
1067,6	22,552
1068	24,467
1068,4	21,181
1068,8	20,838
1069,2	20,867
1069,6	15,495
1070	18,181
1070,4	14,21
1070,9	14,638
1071,3	16,21
1071,7	13,124
1072,1	10,61
1072,5	14,038
1072,9	13,981
1073,3	14,752
1073,7	7,838
1074,2	7,267
1074,6	8,095
1075	11,752
1075,4	14,552
1075,8	10,01
1076,2	13,267
1076,6	14,752
1077	17,667
1077,5	21,21
1077,9	12,524
1078,3	6,181
1078,7	9,467
1079,1	5,181
1079,5	6,324
1079,9	6,067
1080,3	3,21
1080,7	11,781
1081,2	12,095
1081,6	10,238
1082	17,295
1082,4	19,695
1082,8	20,124
1083,2	17,41
1083,6	13,924
1084	15,438
1084,5	20,981
1084,9	11,581
1085,3	6,41
1085,7	1,895
1086,1	4,838
1086,5	4,067
1086,9	2,781
1087,3	1,181
1087,7	9,352
1088,2	16,267
1088,6	17,095
1089	22,267
1089,4	31,724
1089,8	30,067
1090,2	26,924
1090,6	22,238
1091	13,41
1091,4	13,81
1091,9	10,581
1092,3	6,524
1092,7	10,324
1093,1	9,495
1093,5	8,61
1093,9	13,038
1094,3	13,21
1094,7	7,467
1095,1	7,381
1095,5	4,752
1096	9,41
1096,4	13,095
1096,8	15,724
1097,2	15,981
1097,6	18,552
1098	12,895
1098,4	14,924
1098,8	10,81
1099,2	8,981
1099,6	7,695
1100,1	8,324
1100,5	9,381
1100,9	9,695
1101,3	6,781
1101,7	8,067
1102,1	8,267
1102,5	6,552
1102,9	4,981
1103,3	5,724
1103,7	10,552
1104,2	11,667
1104,6	13,238
1105	10,01
1105,4	9,324
1105,8	7,838
1106,2	6,21
1106,6	2,724
1107	1,867
1107,4	-0,867
1107,8	0,307
1108,3	0,517
