Data from Subt2_00109.txt Node
Date: Mon Aug 28 13:39:26 MSK 2023
User: vat
Spectrometer: MAYP114033
Trigger mode: 0
Integration Time (sec): 1,000000E0
Scans to average: 5
Electric dark correction enabled: true
Nonlinearity correction enabled: false
Boxcar width: 3
XAxis mode: Wavelengths
Number of Pixels in Spectrum: 2068
>>>>>Begin Spectral Data<<<<<
199,4	-1,75
199,9	-4,72
200,4	-4,3
200,8	0,657
201,3	5,943
201,8	8,886
202,2	13,057
202,7	14,6
203,2	19,943
203,6	25,114
204,1	22,829
204,6	21,686
205	20,971
205,5	15,8
206	15,057
206,4	14,629
206,9	10,114
207,4	9,229
207,8	7,057
208,3	7,8
208,8	8,943
209,2	10,171
209,7	10,886
210,2	12,057
210,6	13,114
211,1	18,629
211,5	17,229
212	22,371
212,5	21,743
212,9	19,686
213,4	19,857
213,9	18,514
214,3	16,514
214,8	21,457
215,3	21,971
215,7	21,229
216,2	21,514
216,7	25,943
217,1	26,314
217,6	23,886
218,1	22,2
218,5	17,571
219	19,029
219,5	18,114
219,9	10,8
220,4	17,371
220,9	13,657
221,3	12,257
221,8	17,229
222,3	22,657
222,7	27,714
223,2	29,886
223,6	23,2
224,1	31,857
224,6	29,2
225	26,457
225,5	21,257
226	17,429
226,4	19,943
226,9	18,686
227,4	20,057
227,8	20,914
228,3	16,086
228,8	15,8
229,2	15,714
229,7	14,429
230,2	18,629
230,6	10,714
231,1	12,543
231,5	19,314
232	21,4
232,5	20,743
232,9	22,2
233,4	21,429
233,9	24,743
234,3	27,629
234,8	26,171
235,3	24,4
235,7	24,057
236,2	23,171
236,7	21,6
237,1	23,629
237,6	22,229
238,1	22,514
238,5	24,314
239	27,514
239,4	29,571
239,9	31,686
240,4	27,714
240,8	29,914
241,3	29,714
241,8	26,4
242,2	23,314
242,7	21,143
243,2	21,571
243,6	22,743
244,1	18,486
244,6	11,086
245	10,8
245,5	13,514
245,9	14,343
246,4	11,886
246,9	9,343
247,3	9,143
247,8	15,914
248,3	23,371
248,7	26,086
249,2	22,829
249,7	26,171
250,1	26,429
250,6	23,971
251	18,4
251,5	9,057
252	3,171
252,4	4,171
252,9	5,343
253,4	9,029
253,8	12,371
254,3	18,857
254,8	25,171
255,2	28,514
255,7	32,8
256,1	25,771
256,6	23
257,1	23,371
257,5	18,771
258	13,571
258,5	11,657
258,9	5,829
259,4	11,771
259,9	10,057
260,3	5,943
260,8	6,029
261,2	8,943
261,7	8,2
262,2	12,971
262,6	10,943
263,1	11,457
263,6	10,229
264	11,829
264,5	13,686
264,9	17,4
265,4	13,057
265,9	13,486
266,3	10,314
266,8	17,4
267,3	20,771
267,7	18,8
268,2	17,2
268,7	19,457
269,1	15,829
269,6	24,343
270	17,314
270,5	21,857
271	20,829
271,4	16,029
271,9	14,429
272,4	17,629
272,8	10,629
273,3	14,314
273,7	7,029
274,2	8,2
274,7	9,657
275,1	10,914
275,6	10,371
276,1	13,886
276,5	16,514
277	18
277,4	21,229
277,9	24,886
278,4	24,257
278,8	25,686
279,3	27,057
279,8	24,714
280,2	28,629
280,7	23,4
281,1	21,4
281,6	21,743
282,1	17,343
282,5	15,629
283	15,857
283,4	14,543
283,9	18,429
284,4	20,686
284,8	18,571
285,3	19,514
285,8	19,114
286,2	18,286
286,7	13,057
287,1	8,543
287,6	8
288,1	12,771
288,5	15,771
289	14,857
289,5	15
289,9	17,629
290,4	19,314
290,8	20,371
291,3	17,857
291,8	16,486
292,2	19,486
292,7	22,2
293,1	21,914
293,6	22,629
294,1	19,057
294,5	22,571
295	20,6
295,5	18,8
295,9	19,2
296,4	17,457
296,8	21,543
297,3	26,714
297,8	25,6
298,2	25,4
298,7	26,371
299,1	23,171
299,6	26,086
300,1	23,4
300,5	19,686
301	20,486
301,5	24,829
301,9	20,8
302,4	19,314
302,8	21,686
303,3	24,086
303,8	24,686
304,2	20,286
304,7	16,4
305,1	17,229
305,6	16,829
306,1	11,4
306,5	5,171
307	3,171
307,4	3,686
307,9	5,343
308,4	4,371
308,8	7,743
309,3	12,829
309,8	14,514
310,2	15,429
310,7	19,057
311,1	21,257
311,6	24,686
312,1	21,286
312,5	14
313	14,886
313,4	17,486
313,9	15,714
314,4	13,857
314,8	15
315,3	21,114
315,7	26,686
316,2	26,829
316,7	24,486
317,1	21,371
317,6	20,2
318	17,286
318,5	11,114
319	10,2
319,4	12,143
319,9	8,629
320,3	12,686
320,8	10,743
321,3	7,257
321,7	7,429
322,2	1,057
322,6	0,171
323,1	3,914
323,6	2,371
324	1,057
324,5	7,4
324,9	14,629
325,4	16,486
325,9	15,4
326,3	14,943
326,8	11,686
327,2	14,886
327,7	11,029
328,2	8,743
328,6	13
329,1	8,886
329,5	8,914
330	12,143
330,5	17,714
330,9	18,343
331,4	12,714
331,8	10,886
332,3	18,514
332,8	22,314
333,2	21,314
333,7	12,114
334,1	7,914
334,6	9,086
335,1	9,829
335,5	3,114
336	4
336,4	6,314
336,9	10,371
337,4	14,771
337,8	15,657
338,3	15,714
338,7	15,086
339,2	10,2
339,7	7,029
340,1	5,943
340,6	3,571
341	4,971
341,5	2,2
342	7,543
342,4	1,629
342,9	1,829
343,3	3,8
343,8	9,771
344,2	9,714
344,7	11,171
345,2	12,514
345,6	17,2
346,1	19,029
346,5	17,857
347	15,029
347,5	19,8
347,9	16,371
348,4	11,943
348,8	14,6
349,3	11,429
349,8	9,857
350,2	10,371
350,7	8,914
351,1	13,971
351,6	16,914
352	17,514
352,5	24,886
353	33,971
353,4	39,686
353,9	45,314
354,3	57,657
354,8	63,571
355,3	72,171
355,7	86,543
356,2	98,571
356,6	118,571
357,1	136,429
357,5	155,343
358	185,029
358,5	214,171
358,9	246,771
359,4	284,143
359,8	323,143
360,3	365,486
360,8	415,657
361,2	476,171
361,7	545,171
362,1	613,343
362,6	690,914
363	779,6
363,5	875,629
364	974,029
364,4	1068,771
364,9	1165,914
365,3	1268,229
365,8	1368,8
366,3	1453,971
366,7	1530,657
367,2	1598,171
367,6	1659,4
368,1	1710,886
368,5	1739,257
369	1755,2
369,5	1761,857
369,9	1755,314
370,4	1734,657
370,8	1695,629
371,3	1647,029
371,7	1592,6
372,2	1528,314
372,7	1454,286
373,1	1381,314
373,6	1302,286
374	1225,486
374,5	1141,6
374,9	1067,2
375,4	994,914
375,9	927,514
376,3	857,714
376,8	793,486
377,2	734,657
377,7	681,086
378,2	627,229
378,6	577,257
379,1	526,429
379,5	486,086
380	448,629
380,4	411,571
380,9	380,771
381,4	349,771
381,8	321,686
382,3	298,486
382,7	276,114
383,2	254,143
383,6	238,4
384,1	221,8
384,6	208,229
385	193,143
385,5	182,829
385,9	171,2
386,4	167,857
386,8	156,629
387,3	147,286
387,7	135,886
388,2	127,543
388,7	118,829
389,1	110
389,6	102,771
390	101,4
390,5	97,8
390,9	95,543
391,4	90,029
391,9	88,629
392,3	89,971
392,8	79,514
393,2	77,457
393,7	75,086
394,1	71,714
394,6	75,086
395,1	77,257
395,5	69,943
396	74,914
396,4	66,314
396,9	64,429
397,3	62,171
397,8	58,943
398,2	48,971
398,7	46,057
399,2	40,743
399,6	38,629
400,1	33,629
400,5	33,457
401	38,257
401,4	39,743
401,9	42,571
402,4	42,457
402,8	51,914
403,3	55,743
403,7	52,829
404,2	46,943
404,6	48,571
405,1	49,743
405,5	51,457
406	47,914
406,5	46,914
406,9	54,943
407,4	54,143
407,8	56,314
408,3	58
408,7	58,314
409,2	55,171
409,6	57,6
410,1	55,4
410,6	57,6
411	57,171
411,5	54
411,9	53,143
412,4	59,143
412,8	57,971
413,3	56,571
413,7	56,086
414,2	56,114
414,7	58,943
415,1	63,343
415,6	60,543
416	65,629
416,5	76,2
416,9	83,057
417,4	89,514
417,8	94,657
418,3	97,171
418,8	101,714
419,2	101,229
419,7	99,8
420,1	95,171
420,6	95,743
421	99,914
421,5	102,143
421,9	101,943
422,4	108,571
422,8	104,229
423,3	109
423,8	105,371
424,2	100,914
424,7	101,6
425,1	102,229
425,6	100,429
426	106,257
426,5	104,4
426,9	109,514
427,4	115,914
427,9	119,229
428,3	122,229
428,8	123,171
429,2	124,257
429,7	128,057
430,1	127,886
430,6	123,571
431	120,2
431,5	119,971
431,9	125,114
432,4	125,286
432,8	127,857
433,3	130,743
433,8	136,4
434,2	142,629
434,7	142,914
435,1	143,686
435,6	143,229
436	145,6
436,5	155,114
436,9	160,457
437,4	166,286
437,8	176,229
438,3	189,543
438,8	201,314
439,2	207,114
439,7	206,371
440,1	210,8
440,6	217,6
441	223,029
441,5	224,886
441,9	227,057
442,4	240,971
442,8	253,2
443,3	267,2
443,7	273,857
444,2	283,314
444,7	291,286
445,1	307,229
445,6	313,514
446	327,943
446,5	338,686
446,9	355,429
447,4	372,114
447,8	390,714
448,3	407,457
448,7	427,286
449,2	441,2
449,6	458,486
450,1	472,371
450,6	490,657
451	507,114
451,5	528,971
451,9	548,743
452,4	569,514
452,8	590,286
453,3	611,086
453,7	630,829
454,2	648,686
454,6	669,343
455,1	689,971
455,5	714,371
456	736,943
456,4	760,8
456,9	784,486
457,3	809,629
457,8	831
458,3	855
458,7	884,143
459,2	910,657
459,6	941,114
460,1	976,343
460,5	1005,543
461	1036,857
461,4	1064,6
461,9	1092,171
462,3	1119,4
462,8	1148,571
463,2	1176,886
463,7	1209,686
464,1	1242,6
464,6	1277,971
465	1306,914
465,5	1341,257
466	1374,257
466,4	1405,857
466,9	1444,514
467,3	1473
467,8	1511,8
468,2	1548,086
468,7	1588,086
469,1	1627,257
469,6	1662,343
470	1691,514
470,5	1729,857
470,9	1760,429
471,4	1796,229
471,8	1827,086
472,3	1856,571
472,7	1892,886
473,2	1928,629
473,6	1963,114
474,1	1993,229
474,5	2025,514
475	2063,714
475,4	2098,371
475,9	2132,343
476,4	2170,114
476,8	2207,571
477,3	2248,114
477,7	2287,314
478,2	2319,286
478,6	2354
479,1	2391,629
479,5	2428,229
480	2461,514
480,4	2495,086
480,9	2522,543
481,3	2554,371
481,8	2587,486
482,2	2620,286
482,7	2648,429
483,1	2675,457
483,6	2709,543
484	2737,686
484,5	2772,857
484,9	2799,571
485,4	2824,229
485,8	2846,886
486,3	2874,057
486,7	2900,143
487,2	2931,171
487,6	2947,771
488,1	2973,6
488,5	2994,943
489	3025,371
489,4	3054,543
489,9	3071,114
490,4	3088,286
490,8	3112,229
491,3	3135,857
491,7	3154,114
492,2	3163,829
492,6	3173,2
493,1	3189,886
493,5	3213,857
494	3234,314
494,4	3242,371
494,9	3261,686
495,3	3282,4
495,8	3295,143
496,2	3310,286
496,7	3320
497,1	3326,314
497,6	3346,029
498	3356,543
498,5	3374,286
498,9	3385,486
499,4	3397,714
499,8	3404,429
500,3	3415,686
500,7	3423,6
501,2	3441,857
501,6	3449,029
502,1	3469,229
502,5	3480,257
503	3501,857
503,4	3519,029
503,9	3532,286
504,3	3535,086
504,8	3544,943
505,2	3556,086
505,7	3568,657
506,1	3565,657
506,6	3565,857
507	3574,286
507,5	3578,457
507,9	3587,743
508,4	3595,171
508,8	3599,714
509,3	3615,171
509,7	3626,057
510,2	3630,229
510,6	3639,543
511,1	3640,057
511,5	3644,8
512	3648,4
512,4	3650,429
512,9	3654,486
513,3	3660,943
513,8	3670,371
514,2	3683,543
514,7	3687,6
515,1	3697,743
515,6	3704,743
516	3707,771
516,5	3708,4
516,9	3716,914
517,4	3719,743
517,8	3723,143
518,3	3729,743
518,7	3737,057
519,2	3750,457
519,6	3759,029
520,1	3768,657
520,5	3773,6
521	3776,914
521,4	3782
521,9	3785,486
522,3	3794,371
522,8	3802,2
523,2	3798
523,7	3802,571
524,1	3810,971
524,6	3814,771
525	3830,886
525,5	3835,171
525,9	3848,143
526,4	3861,4
526,8	3871,486
527,3	3887,543
527,7	3902,657
528,2	3904,857
528,6	3912,029
529,1	3918,686
529,5	3921,486
530	3932,857
530,4	3943,229
530,9	3946,829
531,3	3955,743
531,8	3964,429
532,2	3968,4
532,6	3974,6
533,1	3973,486
533,5	3970,886
534	3979,514
534,4	3984,4
534,9	3989,857
535,3	4006,114
535,8	4020,086
536,2	4031,571
536,7	4044,4
537,1	4052,286
537,6	4066,029
538	4075,314
538,5	4079,571
538,9	4083,486
539,4	4094,086
539,8	4102,829
540,3	4108,771
540,7	4113,543
541,2	4129,2
541,6	4135,829
542,1	4146,543
542,5	4157,657
543	4169,286
543,4	4179,8
543,9	4186,429
544,3	4191,229
544,8	4207,6
545,2	4214,343
545,7	4222,086
546,1	4231,114
546,5	4237,8
547	4249,371
547,4	4253,971
547,9	4256,114
548,3	4275,6
548,8	4281,486
549,2	4290,143
549,7	4302,571
550,1	4308,8
550,6	4314,857
551	4326
551,5	4327,571
551,9	4332,286
552,4	4333,971
552,8	4340,857
553,3	4353,114
553,7	4368,686
554,2	4374,514
554,6	4389,543
555,1	4401,629
555,5	4416,543
555,9	4424,971
556,4	4430,229
556,8	4443,257
557,3	4452,857
557,7	4457,686
558,2	4469,6
558,6	4472,2
559,1	4479,6
559,5	4488,943
560	4487,714
560,4	4487,629
560,9	4485,771
561,3	4485,029
561,8	4494,6
562,2	4503,8
562,7	4499,143
563,1	4502,171
563,6	4509,314
564	4515,943
564,4	4521
564,9	4522,171
565,3	4523,143
565,8	4537,457
566,2	4546,029
566,7	4557,886
567,1	4563,429
567,6	4572,743
568	4569,943
568,5	4571,057
568,9	4569,914
569,4	4566,771
569,8	4567,6
570,3	4568,343
570,7	4571,886
571,1	4578,2
571,6	4578,714
572	4583,314
572,5	4582,486
572,9	4576,286
573,4	4575,2
573,8	4572,486
574,3	4574,771
574,7	4576,8
575,2	4573,514
575,6	4577,486
576,1	4582,714
576,5	4584,229
576,9	4580,571
577,4	4582,2
577,8	4577,686
578,3	4572,686
578,7	4572,257
579,2	4558,457
579,6	4559,4
580,1	4553,914
580,5	4547,371
581	4544,171
581,4	4538,914
581,9	4528,2
582,3	4532,343
582,7	4517,686
583,2	4506,743
583,6	4492,914
584,1	4486,057
584,5	4479,257
585	4475,314
585,4	4467,686
585,9	4464,143
586,3	4462,743
586,8	4461,486
587,2	4456,343
587,6	4453,371
588,1	4441,829
588,5	4437,029
589	4427,457
589,4	4415,486
589,9	4403,657
590,3	4387,971
590,8	4381,8
591,2	4377,914
591,7	4366,914
592,1	4367,057
592,5	4365,971
593	4357,629
593,4	4359,571
593,9	4351,171
594,3	4350,914
594,8	4340,914
595,2	4328,686
595,7	4321,2
596,1	4317,657
596,6	4305,686
597	4302,971
597,4	4291,2
597,9	4286,171
598,3	4276,457
598,8	4267,6
599,2	4262,4
599,7	4259,657
600,1	4242,086
600,6	4225,229
601	4216,314
601,4	4207,314
601,9	4195,229
602,3	4184,314
602,8	4172,314
603,2	4166,343
603,7	4159,6
604,1	4149,143
604,6	4134,029
605	4127,257
605,4	4113,371
605,9	4101,743
606,3	4095,486
606,8	4090,429
607,2	4081,943
607,7	4074,2
608,1	4062,914
608,6	4050,4
609	4036,743
609,4	4018,086
609,9	4000,429
610,3	3983,714
610,8	3975,914
611,2	3961,171
611,7	3947,6
612,1	3938,686
612,6	3921,029
613	3907
613,4	3897,057
613,9	3883,457
614,3	3869,8
614,8	3861,686
615,2	3846,057
615,7	3841
616,1	3832,229
616,6	3817,743
617	3796,8
617,4	3777,457
617,9	3765,114
618,3	3742,314
618,8	3719,771
619,2	3703,229
619,7	3687,2
620,1	3677,771
620,5	3665,4
621	3644,257
621,4	3635,286
621,9	3617,971
622,3	3597,457
622,8	3578,057
623,2	3559,086
623,6	3538,6
624,1	3526,286
624,5	3502,943
625	3495,686
625,4	3482,114
625,9	3470,086
626,3	3454,257
626,8	3440,514
627,2	3418,2
627,6	3409,914
628,1	3390,971
628,5	3369,457
629	3350,571
629,4	3326,686
629,9	3316,314
630,3	3303,171
630,7	3286,257
631,2	3268,543
631,6	3260,057
632,1	3240,714
632,5	3226,571
633	3202,4
633,4	3186,143
633,8	3164,086
634,3	3145,886
634,7	3130,857
635,2	3114,686
635,6	3103,029
636,1	3090,971
636,5	3069,457
636,9	3055,229
637,4	3041,229
637,8	3022,457
638,3	3003,857
638,7	2987,057
639,2	2970,514
639,6	2955,6
640	2942,171
640,5	2923,686
640,9	2904,743
641,4	2894,4
641,8	2878,543
642,2	2863,771
642,7	2856,829
643,1	2836,457
643,6	2827,629
644	2819,314
644,5	2806,457
644,9	2789,114
645,3	2780,629
645,8	2757,343
646,2	2746,143
646,7	2722,686
647,1	2700,029
647,6	2680,657
648	2675,657
648,4	2654,6
648,9	2640,971
649,3	2625,4
649,8	2617,457
650,2	2610,657
650,6	2607,457
651,1	2588,171
651,5	2568,086
652	2556,629
652,4	2545,371
652,9	2534,886
653,3	2518,743
653,7	2501,543
654,2	2489,4
654,6	2479,971
655,1	2464,257
655,5	2456,257
655,9	2438,343
656,4	2425,457
656,8	2404,886
657,3	2387,571
657,7	2374,829
658,2	2365,771
658,6	2344,686
659	2332,629
659,5	2318,857
659,9	2306,314
660,4	2289,971
660,8	2277,286
661,2	2255,943
661,7	2244,6
662,1	2236,571
662,6	2222,171
663	2209,971
663,4	2202,743
663,9	2185,486
664,3	2180,486
664,8	2160,171
665,2	2138,171
665,6	2122,143
666,1	2109,857
666,5	2090,486
667	2083,657
667,4	2069,257
667,9	2066,371
668,3	2053,743
668,7	2037,257
669,2	2021,343
669,6	2010,571
670,1	1990,114
670,5	1973,514
670,9	1953,6
671,4	1938,171
671,8	1930,029
672,3	1917,857
672,7	1907,571
673,1	1899,886
673,6	1887,314
674	1876,514
674,5	1865,343
674,9	1850,686
675,3	1830,086
675,8	1816,971
676,2	1805,886
676,7	1791,829
677,1	1780,171
677,5	1772,171
678	1760,514
678,4	1760,886
678,9	1747,657
679,3	1737,486
679,7	1726,943
680,2	1714,029
680,6	1700,971
681,1	1697,143
681,5	1685,914
681,9	1678,229
682,4	1664,914
682,8	1656,829
683,3	1647,114
683,7	1637,457
684,1	1618,686
684,6	1605,829
685	1592,6
685,5	1588,371
685,9	1579,429
686,3	1571,6
686,8	1555,314
687,2	1544,171
687,7	1529,543
688,1	1517,6
688,5	1505,286
689	1490,229
689,4	1476,886
689,9	1471,457
690,3	1465,143
690,7	1455,057
691,2	1442,2
691,6	1425,886
692	1418,371
692,5	1411,029
692,9	1400,543
693,4	1387,914
693,8	1382,171
694,2	1378,771
694,7	1375,286
695,1	1368,229
695,6	1356,514
696	1346,971
696,4	1337,971
696,9	1324,6
697,3	1314,171
697,8	1303,886
698,2	1290,457
698,6	1281,686
699,1	1274,457
699,5	1260,371
699,9	1253,971
700,4	1245,686
700,8	1236,629
701,3	1233,486
701,7	1228,057
702,1	1219,571
702,6	1218,057
703	1211,543
703,5	1204,743
703,9	1190,543
704,3	1174,657
704,8	1164,829
705,2	1154,429
705,6	1146,857
706,1	1135,086
706,5	1126,571
707	1121,429
707,4	1120,543
707,8	1111,029
708,3	1103,943
708,7	1091,857
709,2	1088,543
709,6	1083,943
710	1081,4
710,5	1070,971
710,9	1067,114
711,3	1060,229
711,8	1058,029
712,2	1047,657
712,7	1035,2
713,1	1026,771
713,5	1018,971
714	1012,943
714,4	1006,629
714,8	994,629
715,3	988,229
715,7	981,743
716,2	972,771
716,6	967,029
717	955,829
717,5	947,971
717,9	947,229
718,3	941,886
718,8	939,171
719,2	932,657
719,7	924,971
720,1	920,743
720,5	911
721	899,114
721,4	894,171
721,8	886,571
722,3	881,6
722,7	877,029
723,2	869
723,6	867,657
724	863,743
724,5	854,914
724,9	848,771
725,3	836,657
725,8	831,029
726,2	823,8
726,7	817
727,1	813,714
727,5	809,771
728	801,457
728,4	800,943
728,8	792,171
729,3	786,457
729,7	782,143
730,1	770,057
730,6	763,657
731	759,971
731,5	750,143
731,9	747,057
732,3	744,429
732,8	736,457
733,2	741,029
733,6	739,914
734,1	740,029
734,5	737,114
734,9	730,143
735,4	724,571
735,8	716,943
736,3	707,657
736,7	698
737,1	693,2
737,6	691,629
738	689,8
738,4	686,743
738,9	689,057
739,3	689,686
739,7	683,086
740,2	673,771
740,6	669,629
741,1	662,914
741,5	659,229
741,9	651,971
742,4	643,343
742,8	646,971
743,2	650,486
743,7	645,629
744,1	646,343
744,5	641,429
745	633,143
745,4	630,771
745,8	624,143
746,3	614,143
746,7	610,286
747,2	603,429
747,6	596,629
748	597,571
748,5	593,629
748,9	589,743
749,3	580,8
749,8	579,371
750,2	573,029
750,6	577,257
751,1	576,257
751,5	570,571
751,9	563,457
752,4	564,486
752,8	558,657
753,3	559,229
753,7	549,143
754,1	542,543
754,6	538,114
755	537
755,4	535,486
755,9	531,257
756,3	526,971
756,7	528,057
757,2	524,771
757,6	523,029
758	519,343
758,5	511,4
758,9	502,714
759,3	496,2
759,8	487,943
760,2	485,314
760,6	479,857
761,1	477,943
761,5	482,6
761,9	484,971
762,4	484,343
762,8	480,057
763,3	474,029
763,7	471,743
764,1	467,629
764,6	458,943
765	452,486
765,4	447,714
765,9	449,657
766,3	447,8
766,7	440,457
767,2	435,743
767,6	437,143
768	439,8
768,5	439,829
768,9	436,171
769,3	429,314
769,8	434,114
770,2	429,486
770,6	423,686
771,1	417,371
771,5	416,543
771,9	416,029
772,4	419,086
772,8	412,486
773,2	410,543
773,7	405,429
774,1	404,486
774,5	397,571
775	390,229
775,4	385,971
775,8	386,171
776,3	388,571
776,7	383,771
777,1	379,8
777,6	376
778	375,343
778,4	375,657
778,9	369,286
779,3	361,686
779,7	364,657
780,2	364,114
780,6	360,514
781	355,943
781,5	353,086
781,9	354,971
782,3	353,314
782,8	350,457
783,2	345,886
783,6	346,714
784,1	345,343
784,5	342,371
784,9	337,343
785,4	336,743
785,8	334,971
786,2	330,343
786,7	329,257
787,1	327,886
787,5	328,171
788	327,371
788,4	324,286
788,8	317,743
789,3	320,657
789,7	319,543
790,1	316,771
790,6	309,914
791	310,171
791,4	311,343
791,9	311,4
792,3	304,771
792,7	299,8
793,2	297,514
793,6	295,629
794	287,857
794,5	282,029
794,9	281,171
795,3	281,457
795,8	280,886
796,2	277,714
796,6	277,029
797,1	273,543
797,5	275,857
797,9	271,457
798,4	268,257
798,8	265,514
799,2	268,171
799,7	267,086
800,1	271,514
800,5	263,086
801	263,229
801,4	264,343
801,8	261,914
802,2	257,486
802,7	252,086
803,1	251,057
803,5	251,857
804	250,171
804,4	246,971
804,8	245,743
805,3	247,886
805,7	248,886
806,1	241,914
806,6	240,286
807	240,143
807,4	237,771
807,9	237,029
808,3	232,057
808,7	231,629
809,2	229,971
809,6	231,943
810	224,029
810,4	223,057
810,9	219,829
811,3	218,657
811,7	219,343
812,2	219,743
812,6	214,057
813	211,143
813,5	205,343
813,9	203,971
814,3	201,086
814,8	194,8
815,2	193,743
815,6	190,343
816,1	191,886
816,5	196,657
816,9	193,714
817,3	193,371
817,8	191,743
818,2	188,514
818,6	191,086
819,1	191,371
819,5	188,114
819,9	189,457
820,4	189,8
820,8	184,829
821,2	185,514
821,7	184,514
822,1	182,371
822,5	178,629
822,9	180,371
823,4	178
823,8	178,886
824,2	180,257
824,7	181,114
825,1	180,571
825,5	181,543
826	174,714
826,4	167,914
826,8	167,4
827,3	163,943
827,7	156,429
828,1	154,4
828,5	150,429
829	151,6
829,4	149,771
829,8	150,8
830,3	148,4
830,7	152,029
831,1	155,914
831,6	160,257
832	161,886
832,4	164,257
832,8	157,886
833,3	158,086
833,7	155,086
834,1	151,4
834,6	147,457
835	145,029
835,4	141,543
835,8	143,514
836,3	141,114
836,7	140,4
837,1	137,114
837,6	135,886
838	131,629
838,4	136,057
838,9	137,571
839,3	141,8
839,7	144,114
840,1	141,543
840,6	141,743
841	147,771
841,4	148,486
841,9	144,8
842,3	139,029
842,7	131,914
843,1	136,686
843,6	135,229
844	127,686
844,4	124,6
844,9	120,314
845,3	121,2
845,7	120,371
846,2	115,314
846,6	108,171
847	107,314
847,4	98,029
847,9	102,829
848,3	98,229
848,7	99,857
849,2	99,8
849,6	101,143
850	100,486
850,4	101
850,9	99,486
851,3	101,171
851,7	99,286
852,2	98,457
852,6	99,943
853	98,114
853,4	99,886
853,9	96,171
854,3	98,571
854,7	103,057
855,2	106,8
855,6	107,457
856	108,829
856,4	111,714
856,9	117,971
857,3	111,229
857,7	106,714
858,2	96,029
858,6	93,714
859	90,543
859,4	87,657
859,9	85,486
860,3	85,971
860,7	84,429
861,1	91,857
861,6	94,6
862	98,771
862,4	95,257
862,9	92,457
863,3	90,971
863,7	92,229
864,1	85
864,6	83,829
865	84,4
865,4	86,286
865,9	84,171
866,3	88,629
866,7	89,086
867,1	88,286
867,6	91,857
868	94,914
868,4	95
868,8	92,514
869,3	90,657
869,7	86,771
870,1	90,629
870,6	80,714
871	129,029
871,4	125,629
871,8	129,486
872,3	124,686
872,7	122,143
873,1	120,429
873,5	126,429
874	66,2
874,4	66,2
874,8	64,857
875,3	68,857
875,7	69,343
876,1	64,371
876,5	60,514
877	65,857
877,4	69,343
877,8	69,429
878,2	62,914
878,7	66,6
879,1	72
879,5	69,229
879,9	66,486
880,4	67,286
880,8	68,286
881,2	74,086
881,7	68,943
882,1	65,429
882,5	69,314
882,9	67,771
883,4	68
883,8	62,571
884,2	56,714
884,6	59,457
885,1	61,714
885,5	64,857
885,9	66,286
886,3	63,257
886,8	65,629
887,2	64,457
887,6	62,629
888	62,571
888,5	57,543
888,9	56,086
889,3	52,571
889,8	53,371
890,2	53,943
890,6	54,171
891	50,543
891,5	49,743
891,9	50,143
892,3	49,371
892,7	49,943
893,2	52,343
893,6	50,2
894	50,029
894,4	52,2
894,9	49,686
895,3	49,657
895,7	43,629
896,1	45,829
896,6	48,371
897	48,314
897,4	44,8
897,8	47,743
898,3	48,514
898,7	50,229
899,1	51,2
899,5	49,686
900	50,886
900,4	50,543
900,8	47,771
901,2	49,429
901,7	48,571
902,1	46,029
902,5	44,314
902,9	45,171
903,4	43,343
903,8	46,886
904,2	45,857
904,6	48,429
905,1	50,743
905,5	52,714
905,9	52,486
906,3	50,714
906,8	48,686
907,2	49,286
907,6	50,686
908	44,857
908,5	41,914
908,9	39,286
909,3	40,029
909,7	40,457
910,2	44,257
910,6	40,171
911	39,171
911,4	40
911,9	40,171
912,3	40,314
912,7	35
913,1	27,657
913,6	24,6
914	27,371
914,4	23,629
914,8	26,857
915,3	26,257
915,7	32,486
916,1	34,571
916,5	40,8
916,9	37,229
917,4	43,257
917,8	37,971
918,2	40,914
918,6	39,286
919,1	37,971
919,5	36,514
919,9	40,886
920,3	40,171
920,8	43,029
921,2	40,429
921,6	41,286
922	42,771
922,5	42,686
922,9	39,486
923,3	37,257
923,7	32,143
924,2	33,971
924,6	32,543
925	33,2
925,4	33,857
925,8	37,571
926,3	38,914
926,7	43,229
927,1	44,429
927,5	44,229
928	42,114
928,4	40,6
928,8	37,486
929,2	33,857
929,7	37,143
930,1	36,057
930,5	40,714
930,9	40,371
931,3	41,371
931,8	39,571
932,2	43,571
932,6	42,057
933	38,8
933,5	36,4
933,9	35,257
934,3	33,6
934,7	29,543
935,2	32,514
935,6	28,8
936	24,286
936,4	19,029
936,8	21,8
937,3	16,914
937,7	20,086
938,1	11,8
938,5	12,286
939	16,886
939,4	17,2
939,8	14
940,2	14,743
940,6	14,2
941,1	16,914
941,5	13,8
941,9	16,857
942,3	13,6
942,8	18,943
943,2	23,257
943,6	25,343
944	22,829
944,4	29,171
944,9	27,2
945,3	27,229
945,7	20
946,1	22,543
946,6	24,114
947	29,971
947,4	25,886
947,8	25,971
948,2	30,286
948,7	29,8
949,1	29,686
949,5	27,914
949,9	23,286
950,3	24,029
950,8	26,4
951,2	25,229
951,6	27,771
952	24,029
952,5	19
952,9	18,571
953,3	19,171
953,7	17,886
954,1	18,486
954,6	17,229
955	15,229
955,4	22,543
955,8	26
956,2	28,114
956,7	24,857
957,1	18,657
957,5	20,429
957,9	23,6
958,3	20,314
958,8	14,286
959,2	9,943
959,6	7,486
960	13,886
960,5	10,657
960,9	9,657
961,3	8,829
961,7	11,743
962,1	14,314
962,6	19,2
963	18,771
963,4	24,029
963,8	24,571
964,2	29,343
964,7	31,257
965,1	23,457
965,5	25,086
965,9	24,857
966,3	18,314
966,8	16,257
967,2	6,971
967,6	8,086
968	14,6
968,4	10,914
968,9	11,057
969,3	14,086
969,7	13
970,1	19,429
970,5	21,829
971	19,829
971,4	20,143
971,8	18,371
972,2	22,486
972,6	24,543
973,1	21,114
973,5	17,143
973,9	17,486
974,3	20,086
974,7	21,514
975,2	18,686
975,6	19,429
976	21,343
976,4	15,486
976,8	17,571
977,3	17,457
977,7	17,857
978,1	17,571
978,5	14,829
978,9	13,886
979,4	19,686
979,8	21,029
980,2	18,657
980,6	16,2
981	16,457
981,5	14,886
981,9	18,086
982,3	20,229
982,7	16,771
983,1	12,029
983,6	16,114
984	11,314
984,4	14,771
984,8	13,543
985,2	8,486
985,6	7,429
986,1	11,057
986,5	10,143
986,9	13,571
987,3	13,629
987,7	14,857
988,2	16,057
988,6	19,886
989	18,571
989,4	19,857
989,8	22,343
990,3	20,2
990,7	24,514
991,1	27,2
991,5	25,543
991,9	27,229
992,3	21,514
992,8	15,8
993,2	18,229
993,6	9,943
994	6,286
994,4	12,286
994,9	14,714
995,3	20,686
995,7	25,657
996,1	25,886
996,5	27,486
996,9	28,6
997,4	21,543
997,8	21,543
998,2	18,2
998,6	22,057
999	19,829
999,5	21,086
999,9	21,686
1000,3	25,057
1000,7	24,4
1001,1	20,6
1001,5	18,2
1002	18,486
1002,4	18,943
1002,8	16
1003,2	17,514
1003,6	18,286
1004	19,286
1004,5	15
1004,9	16,4
1005,3	13,829
1005,7	14,029
1006,1	10,8
1006,6	7,343
1007	8,514
1007,4	7,2
1007,8	8,971
1008,2	7,914
1008,6	11,171
1009,1	14,771
1009,5	19,571
1009,9	21,514
1010,3	24,143
1010,7	22,229
1011,1	24,857
1011,6	26,114
1012	22,343
1012,4	19,086
1012,8	15,543
1013,2	16,286
1013,6	15,971
1014,1	14,943
1014,5	13,371
1014,9	13,143
1015,3	16,914
1015,7	16,486
1016,1	16,457
1016,6	13,171
1017	12,429
1017,4	13,486
1017,8	10,314
1018,2	9,171
1018,6	14,514
1019,1	14,629
1019,5	17,686
1019,9	24,086
1020,3	22,371
1020,7	26,171
1021,1	23,657
1021,6	20,829
1022	21,657
1022,4	26,429
1022,8	18,6
1023,2	16,686
1023,6	13,914
1024,1	15,686
1024,5	14,543
1024,9	10,457
1025,3	9,429
1025,7	16,771
1026,1	20,886
1026,6	26,2
1027	24,886
1027,4	29,686
1027,8	29,457
1028,2	23,914
1028,6	19,829
1029	18,286
1029,5	18
1029,9	20,6
1030,3	21,029
1030,7	24,286
1031,1	25,743
1031,5	27,457
1032	23,571
1032,4	20,657
1032,8	16,514
1033,2	12,743
1033,6	10,886
1034	12,629
1034,4	13,229
1034,9	17,829
1035,3	19,457
1035,7	21,571
1036,1	23,029
1036,5	27,914
1036,9	28,686
1037,4	27,343
1037,8	31,029
1038,2	27,314
1038,6	29,629
1039	25,857
1039,4	21,029
1039,8	16,257
1040,3	16,657
1040,7	10,943
1041,1	12
1041,5	10,486
1041,9	10,857
1042,3	11,171
1042,7	11,829
1043,2	10,6
1043,6	14,829
1044	17,543
1044,4	18,143
1044,8	21,629
1045,2	29,057
1045,6	32,657
1046,1	34,4
1046,5	32,057
1046,9	28,543
1047,3	24,286
1047,7	21,314
1048,1	17,086
1048,5	15,571
1049	13,114
1049,4	11,086
1049,8	7,8
1050,2	10,4
1050,6	13,171
1051	10,257
1051,4	8,857
1051,9	10,829
1052,3	11,8
1052,7	16,743
1053,1	18,4
1053,5	19,629
1053,9	18,8
1054,3	18,886
1054,8	17,286
1055,2	16,4
1055,6	19,657
1056	18,8
1056,4	15,057
1056,8	22,657
1057,2	21,114
1057,6	24,657
1058,1	27,514
1058,5	20,229
1058,9	14,057
1059,3	19,4
1059,7	14,857
1060,1	17,343
1060,5	12,714
1061	7,6
1061,4	14,714
1061,8	21,629
1062,2	18,8
1062,6	19,886
1063	18,743
1063,4	20,771
1063,8	24,143
1064,3	23,114
1064,7	24,8
1065,1	24,286
1065,5	23,771
1065,9	27,657
1066,3	28,943
1066,7	27,571
1067,1	24,029
1067,6	20,571
1068	20,429
1068,4	18,686
1068,8	12,343
1069,2	9,314
1069,6	9,229
1070	14,629
1070,4	15,4
1070,9	15,457
1071,3	22,429
1071,7	26
1072,1	24,343
1072,5	25,029
1072,9	21,486
1073,3	22,286
1073,7	26,057
1074,2	19,429
1074,6	17,971
1075	17,971
1075,4	15,229
1075,8	17,543
1076,2	16,029
1076,6	13,371
1077	10
1077,5	9,4
1077,9	10,029
1078,3	13,686
1078,7	10,829
1079,1	9,914
1079,5	8,429
1079,9	12,029
1080,3	12,6
1080,7	16,314
1081,2	15,771
1081,6	13,8
1082	15,086
1082,4	10,229
1082,8	10,143
1083,2	16,2
1083,6	11,286
1084	10,457
1084,5	14,943
1084,9	10,086
1085,3	15,857
1085,7	17,171
1086,1	8,4
1086,5	9,143
1086,9	6,914
1087,3	2,771
1087,7	5,743
1088,2	4,4
1088,6	0
1089	2,486
1089,4	2,686
1089,8	5,086
1090,2	3,714
1090,6	3
1091	5,486
1091,4	8,6
1091,9	8,343
1092,3	12,371
1092,7	13,086
1093,1	13,4
1093,5	14,486
1093,9	12,514
1094,3	11,629
1094,7	11,114
1095,1	10,371
1095,5	9,143
1096	9,686
1096,4	9,343
1096,8	12,629
1097,2	15
1097,6	19,657
1098	19,914
1098,4	21,314
1098,8	22,429
1099,2	21,057
1099,6	17,257
1100,1	14,2
1100,5	10,114
1100,9	9,686
1101,3	9
1101,7	7,943
1102,1	8,571
1102,5	7,086
1102,9	6,771
1103,3	7,429
1103,7	4,743
1104,2	5,629
1104,6	11,514
1105	13,457
1105,4	14,086
1105,8	13,886
1106,2	12,657
1106,6	11,886
1107	9,286
1107,4	3,967
1107,8	1,48
1108,3	0,35
