Data from Subt2_00017.txt Node
Date: Mon Aug 28 13:09:06 MSK 2023
User: vat
Spectrometer: MAYP114033
Trigger mode: 0
Integration Time (sec): 1,000000E0
Scans to average: 5
Electric dark correction enabled: true
Nonlinearity correction enabled: false
Boxcar width: 3
XAxis mode: Wavelengths
Number of Pixels in Spectrum: 2068
>>>>>Begin Spectral Data<<<<<
199,4	1,383
199,9	0,873
200,4	2,8
200,8	2,262
201,3	4,776
201,8	7,319
202,2	6,69
202,7	8,633
203,2	10,005
203,6	11,548
204,1	13,233
204,6	15,005
205	18,005
205,5	23,062
206	24,062
206,4	23,719
206,9	23,69
207,4	23,462
207,8	21,405
208,3	17,948
208,8	17,205
209,2	14,633
209,7	15,719
210,2	9,119
210,6	11,662
211,1	12,69
211,5	12,462
212	14,662
212,5	18,262
212,9	18,319
213,4	21,605
213,9	19,662
214,3	17,89
214,8	19,948
215,3	17,405
215,7	17,89
216,2	16,948
216,7	21,119
217,1	20,776
217,6	19,805
218,1	16,633
218,5	14,29
219	13,09
219,5	17,119
219,9	13,433
220,4	11,119
220,9	14,633
221,3	13,919
221,8	18,719
222,3	20,605
222,7	16,776
223,2	17,948
223,6	21,69
224,1	20,662
224,6	21,748
225	17,776
225,5	15,319
226	17,633
226,4	18,033
226,9	15,033
227,4	16,119
227,8	18,833
228,3	18,09
228,8	20,148
229,2	21,519
229,7	19,319
230,2	20,348
230,6	18,862
231,1	16,833
231,5	19,633
232	21,776
232,5	22,148
232,9	20,205
233,4	22,948
233,9	23,376
234,3	22,348
234,8	24,319
235,3	14,776
235,7	5,805
236,2	8,862
236,7	6,49
237,1	12,09
237,6	11,405
238,1	7,376
238,5	13,633
239	17,576
239,4	21,69
239,9	25,376
240,4	19,233
240,8	24,09
241,3	28,519
241,8	30,69
242,2	33,576
242,7	35,29
243,2	32,919
243,6	35,633
244,1	27,49
244,6	26,69
245	26,519
245,5	26,576
245,9	19,662
246,4	18,776
246,9	15,633
247,3	19,919
247,8	16,748
248,3	12,719
248,7	13,89
249,2	15,376
249,7	14,605
250,1	13,09
250,6	13,748
251	10,29
251,5	9,862
252	5,833
252,4	6,833
252,9	8,319
253,4	10,576
253,8	10,348
254,3	15,748
254,8	17,148
255,2	14,662
255,7	14,833
256,1	16,433
256,6	14,69
257,1	12,405
257,5	11,005
258	7,776
258,5	9,49
258,9	9,405
259,4	8,748
259,9	9,433
260,3	13,719
260,8	12,233
261,2	15,776
261,7	18,576
262,2	14,69
262,6	10,833
263,1	7,605
263,6	6,176
264	6,262
264,5	8,29
264,9	9,262
265,4	10,462
265,9	12,833
266,3	18,862
266,8	15,49
267,3	17,576
267,7	11,462
268,2	10,376
268,7	13,033
269,1	13,976
269,6	11,748
270	18,89
270,5	18,548
271	25,148
271,4	24,776
271,9	27,462
272,4	30,776
272,8	33,348
273,3	27,662
273,7	22,405
274,2	19,29
274,7	17,176
275,1	17,719
275,6	14,948
276,1	11,862
276,5	12,119
277	14,433
277,4	12,89
277,9	14,29
278,4	9,148
278,8	7,148
279,3	6,919
279,8	6,662
280,2	4,919
280,7	2,948
281,1	3,69
281,6	6,005
282,1	0,176
282,5	3,29
283	1,29
283,4	5,662
283,9	8,405
284,4	10,319
284,8	9,49
285,3	17,69
285,8	17,69
286,2	19,405
286,7	17,548
287,1	20,09
287,6	19,862
288,1	21,89
288,5	21,519
289	20,69
289,5	22,719
289,9	26,376
290,4	28,633
290,8	27,062
291,3	25,605
291,8	25,005
292,2	22,69
292,7	22,405
293,1	20,576
293,6	14,148
294,1	16,233
294,5	16,69
295	16,29
295,5	14,548
295,9	14,29
296,4	14,633
296,8	16,205
297,3	13,49
297,8	6,548
298,2	8,776
298,7	14,29
299,1	15,262
299,6	12,29
300,1	13,233
300,5	13,49
301	17,948
301,5	12,233
301,9	7,748
302,4	4,919
302,8	5,062
303,3	3,833
303,8	6,376
304,2	4,262
304,7	7,833
305,1	10,662
305,6	12,776
306,1	16,633
306,5	18,29
307	18,948
307,4	24,976
307,9	23,69
308,4	23,119
308,8	22,976
309,3	21,376
309,8	21,862
310,2	20,49
310,7	23,205
311,1	23,89
311,6	22,919
312,1	21,148
312,5	18,09
313	18,776
313,4	22,748
313,9	16,233
314,4	15,29
314,8	16,748
315,3	18,205
315,7	20,833
316,2	21,205
316,7	10,348
317,1	6,89
317,6	7,748
318	9,348
318,5	11,576
319	15,262
319,4	14,205
319,9	18,09
320,3	21,462
320,8	24,519
321,3	20,376
321,7	17,033
322,2	13,605
322,6	11,605
323,1	13,29
323,6	18,119
324	13,519
324,5	15,662
324,9	16,948
325,4	18,719
325,9	20,176
326,3	20,005
326,8	13,062
327,2	16,262
327,7	11,376
328,2	13,062
328,6	10,49
329,1	7,176
329,5	6,976
330	7,462
330,5	5,119
330,9	9,233
331,4	10,033
331,8	12,29
332,3	14,119
332,8	12,633
333,2	16,633
333,7	13,948
334,1	18,062
334,6	17,005
335,1	20,605
335,5	22,233
336	21,033
336,4	21,176
336,9	22,49
337,4	19,348
337,8	16,205
338,3	11,262
338,7	9,605
339,2	15,719
339,7	18,262
340,1	16,405
340,6	10,719
341	13,176
341,5	15,405
342	17,233
342,4	16,633
342,9	14,862
343,3	17,033
343,8	20,633
344,2	24,119
344,7	23,062
345,2	21,062
345,6	19,633
346,1	20,005
346,5	20,919
347	19,548
347,5	17,69
347,9	15,405
348,4	16,89
348,8	13,548
349,3	15,719
349,8	19,748
350,2	22,348
350,7	20,948
351,1	24,948
351,6	31,233
352	36,89
352,5	38,948
353	43,519
353,4	49,605
353,9	52,405
354,3	63,29
354,8	71,405
355,3	84,576
355,7	96,548
356,2	109,119
356,6	130,576
357,1	158,748
357,5	179,09
358	206,262
358,5	237,548
358,9	276,633
359,4	322,805
359,8	370,205
360,3	423,719
360,8	482,805
361,2	551,376
361,7	627,148
362,1	703,49
362,6	788,29
363	879,633
363,5	980,262
364	1086,033
364,4	1191,09
364,9	1296,319
365,3	1409,033
365,8	1512,462
366,3	1606,376
366,7	1693,862
367,2	1766,376
367,6	1834,49
368,1	1886,49
368,5	1916,633
369	1933,433
369,5	1939,719
369,9	1924,919
370,4	1898,09
370,8	1851,519
371,3	1792,148
371,7	1732,89
372,2	1663,662
372,7	1581,29
373,1	1494,862
373,6	1411,462
374	1325,976
374,5	1241,262
374,9	1153,376
375,4	1066,776
375,9	989,462
376,3	913,633
376,8	844,919
377,2	776,719
377,7	719,319
378,2	664,748
378,6	610,519
379,1	562,348
379,5	516,576
380	468,433
380,4	432,605
380,9	395,719
381,4	358,633
381,8	335,776
382,3	308,462
382,7	291,29
383,2	274,519
383,6	259,405
384,1	241,119
384,6	233,319
385	218,462
385,5	205,833
385,9	191,89
386,4	182,119
386,8	164,005
387,3	153,548
387,7	139,005
388,2	129,29
388,7	120,719
389,1	107,376
389,6	104,462
390	102,633
390,5	95,205
390,9	89,519
391,4	79,89
391,9	79,89
392,3	84,69
392,8	78,719
393,2	71,662
393,7	70,148
394,1	68,69
394,6	68,862
395,1	67,633
395,5	60,776
396	59,176
396,4	62,519
396,9	62,262
397,3	60,748
397,8	59,548
398,2	52,89
398,7	56,176
399,2	55,062
399,6	52,605
400,1	53,262
400,5	56,776
401	61,748
401,4	65,976
401,9	62,176
402,4	62,976
402,8	61,662
403,3	63,205
403,7	56,062
404,2	57,862
404,6	55,89
405,1	62,89
405,5	61,119
406	63,633
406,5	66,719
406,9	73,148
407,4	74,89
407,8	82,062
408,3	82,748
408,7	89,233
409,2	94,633
409,6	100,976
410,1	108,462
410,6	117,605
411	122,862
411,5	130,605
411,9	141,719
412,4	154,319
412,8	161,948
413,3	175,033
413,7	182,548
414,2	194,805
414,7	206,548
415,1	215,205
415,6	222,976
416	234,176
416,5	244,719
416,9	259,319
417,4	274,662
417,8	286,262
418,3	303,719
418,8	324,919
419,2	347,719
419,7	367,49
420,1	384,462
420,6	403,748
421	433,948
421,5	462,062
421,9	492,519
422,4	520,49
422,8	548,205
423,3	581,148
423,8	613,433
424,2	643,748
424,7	676,176
425,1	701,49
425,6	735,662
426	770,033
426,5	807,119
426,9	854,033
427,4	893,433
427,9	936,89
428,3	988,89
428,8	1040,862
429,2	1093,633
429,7	1149,89
430,1	1204,89
430,6	1267,376
431	1332,348
431,5	1394,776
431,9	1467,205
432,4	1541,948
432,8	1626,376
433,3	1708,805
433,8	1799,662
434,2	1886,919
434,7	1983,948
435,1	2081,662
435,6	2189,119
436	2294,376
436,5	2402,976
436,9	2519,405
437,4	2640,662
437,8	2766,119
438,3	2895,976
438,8	3034,262
439,2	3176,776
439,7	3323,519
440,1	3468,948
440,6	3629,605
441	3791,09
441,5	3958,919
441,9	4130,576
442,4	4303,976
442,8	4497,348
443,3	4688,319
443,7	4883,09
444,2	5086,862
444,7	5298,719
445,1	5516,605
445,6	5741,662
446	5964,805
446,5	6202,462
446,9	6442,29
447,4	6693,233
447,8	6936,89
448,3	7188,29
448,7	7445,033
449,2	7701,119
449,6	7974,805
450,1	8253,205
450,6	8530,09
451	8818,633
451,5	9117,662
451,9	9424,49
452,4	9733,005
452,8	10041,433
453,3	10351,576
453,7	10672,633
454,2	11002,719
454,6	11324,776
455,1	11657,205
455,5	11993,376
456	12336,405
456,4	12683,462
456,9	13032,548
457,3	13382,176
457,8	13736,662
458,3	14094,548
458,7	14464,176
459,2	14820,29
459,6	15193,919
460,1	15570,748
460,5	15941,433
461	16312,862
461,4	16691,005
461,9	17057,262
462,3	17429,948
462,8	17804,376
463,2	18165,548
463,7	18539,833
464,1	18924,405
464,6	19289,376
465	19664,09
465,5	20047,49
466	20408,205
466,4	20775,519
466,9	21129,89
467,3	21477,405
467,8	21838,348
468,2	22189,662
468,7	22547,405
469,1	22895,805
469,6	23248,405
470	23609,005
470,5	23954,176
470,9	24284,405
471,4	24624,605
471,8	24933,462
472,3	25251,69
472,7	25566,862
473,2	25868,748
473,6	26174,919
474,1	26459,462
474,5	26731,262
475	27009,576
475,4	27283,148
475,9	27537,09
476,4	27787,062
476,8	28022,233
477,3	28273,776
477,7	28528,49
478,2	28756,519
478,6	28995,49
479,1	29215,205
479,5	29419,319
480	29620,033
480,4	29814,405
480,9	29988,805
481,3	30164,319
481,8	30314,576
482,2	30450,376
482,7	30596,376
483,1	30739,976
483,6	30847,148
484	30944,062
484,5	31050,433
484,9	31143,462
485,4	31239,062
485,8	31308,205
486,3	31369,89
486,7	31431,205
487,2	31502,405
487,6	31536,433
488,1	31567,633
488,5	31613,119
489	31641,433
489,4	31642,176
489,9	31635,29
490,4	31606,233
490,8	31590,433
491,3	31553,919
491,7	31495,062
492,2	31428,719
492,6	31373,233
493,1	31309,862
493,5	31235,062
494	31143,519
494,4	31055,69
494,9	30955,062
495,3	30858,69
495,8	30751,662
496,2	30649,148
496,7	30530,005
497,1	30419,919
497,6	30297,69
498	30171,519
498,5	30046,062
498,9	29916,805
499,4	29767,862
499,8	29629,776
500,3	29487,633
500,7	29339,805
501,2	29196,09
501,6	29029,176
502,1	28870,033
502,5	28725,062
503	28575,662
503,4	28416,176
503,9	28246,033
504,3	28056,862
504,8	27877,405
505,2	27691,148
505,7	27502,29
506,1	27294,119
506,6	27079,062
507	26878,69
507,5	26686,805
507,9	26483,119
508,4	26270,519
508,8	26050,919
509,3	25847,833
509,7	25638,176
510,2	25419,405
510,6	25209,719
511,1	25011,176
511,5	24793,976
512	24581,148
512,4	24362,862
512,9	24131,09
513,3	23906,919
513,8	23681,148
514,2	23442,376
514,7	23215,948
515,1	22997,69
515,6	22771,89
516	22560,262
516,5	22350,862
516,9	22119,976
517,4	21903,605
517,8	21690,805
518,3	21459,662
518,7	21237,633
519,2	21016,319
519,6	20786,49
520,1	20573,662
520,5	20351,348
521	20120,262
521,4	19899,776
521,9	19687,433
522,3	19479,233
522,8	19271,319
523,2	19060,062
523,7	18854,719
524,1	18654,49
524,6	18462,49
525	18255,49
525,5	18055,976
525,9	17855,748
526,4	17659,605
526,8	17466,633
527,3	17281,576
527,7	17087,662
528,2	16907,119
528,6	16719,176
529,1	16526,862
529,5	16336,033
530	16150,633
530,4	15962,405
530,9	15773,748
531,3	15595,033
531,8	15413,376
532,2	15237,09
532,6	15075,462
533,1	14890,576
533,5	14723,633
534	14560,576
534,4	14390,462
534,9	14235,833
535,3	14078,005
535,8	13908,205
536,2	13771,948
536,7	13610,348
537,1	13459,662
537,6	13308,176
538	13154,262
538,5	13010,49
538,9	12864,719
539,4	12718,976
539,8	12580,433
540,3	12443,805
540,7	12299,919
541,2	12167,519
541,6	12026,348
542,1	11901,319
542,5	11768,09
543	11647,005
543,4	11517,262
543,9	11394,519
544,3	11265,576
544,8	11148,576
545,2	11028,376
545,7	10913,233
546,1	10789,748
546,5	10663,433
547	10539,09
547,4	10418,405
547,9	10311,662
548,3	10195,205
548,8	10082,576
549,2	9976,033
549,7	9878,776
550,1	9785,633
550,6	9688,29
551	9576,376
551,5	9484,633
551,9	9392,119
552,4	9300,119
552,8	9208,233
553,3	9119,033
553,7	9030,148
554,2	8942,233
554,6	8850,633
555,1	8757,176
555,5	8668,69
555,9	8585,633
556,4	8494,462
556,8	8405,576
557,3	8328,662
557,7	8245,348
558,2	8168,862
558,6	8082,376
559,1	7998,119
559,5	7921,09
560	7855,548
560,4	7774,033
560,9	7696,748
561,3	7622,148
561,8	7553,348
562,2	7479,462
562,7	7402,805
563,1	7324,348
563,6	7256,862
564	7186,833
564,4	7116,462
564,9	7048,919
565,3	6980,205
565,8	6931,119
566,2	6867,09
566,7	6810,662
567,1	6752,833
567,6	6688,148
568	6629,233
568,5	6577,348
568,9	6505,09
569,4	6444,205
569,8	6375,719
570,3	6311,433
570,7	6252,09
571,1	6197,462
571,6	6136,719
572	6084,176
572,5	6031,262
572,9	5978,319
573,4	5934,09
573,8	5888,976
574,3	5835,748
574,7	5785,148
575,2	5737,033
575,6	5687,462
576,1	5645,576
576,5	5591,662
576,9	5536,605
577,4	5491,519
577,8	5439,119
578,3	5387,519
578,7	5337,633
579,2	5283,319
579,6	5237,033
580,1	5199,776
580,5	5149,033
581	5111,519
581,4	5070,376
581,9	5030,605
582,3	4992,176
582,7	4950,29
583,2	4899,433
583,6	4855,262
584,1	4811,776
584,5	4770,49
585	4729,376
585,4	4688,376
585,9	4650,976
586,3	4613,376
586,8	4576,29
587,2	4541,062
587,6	4499,148
588,1	4465,376
588,5	4430,148
589	4390,89
589,4	4353,09
589,9	4319,29
590,3	4283,033
590,8	4257,205
591,2	4213,89
591,7	4181,119
592,1	4154,89
592,5	4137,005
593	4108,69
593,4	4077,005
593,9	4042,519
594,3	4019,862
594,8	3986,033
595,2	3948,633
595,7	3909,548
596,1	3883,176
596,6	3853,319
597	3831,462
597,4	3805,833
597,9	3783,633
598,3	3763,919
598,8	3741,405
599,2	3708,605
599,7	3687,862
600,1	3661,176
600,6	3634,69
601	3613,033
601,4	3580,376
601,9	3555,405
602,3	3536,662
602,8	3507,833
603,2	3481,548
603,7	3457,49
604,1	3430,433
604,6	3419,062
605	3393,319
605,4	3364,49
605,9	3341,033
606,3	3318,662
606,8	3294,062
607,2	3269,005
607,7	3245,062
608,1	3219,776
608,6	3196,119
609	3173,005
609,4	3150,148
609,9	3128,319
610,3	3107,69
610,8	3082,062
611,2	3063,519
611,7	3047,519
612,1	3020,233
612,6	2990,776
613	2963,09
613,4	2941,662
613,9	2912,462
614,3	2891,748
614,8	2863,976
615,2	2853,805
615,7	2841,176
616,1	2821,919
616,6	2802,062
617	2787,062
617,4	2764,49
617,9	2746,119
618,3	2724,005
618,8	2704,919
619,2	2689,976
619,7	2671,548
620,1	2657,205
620,5	2634,005
621	2619,976
621,4	2598,319
621,9	2575,005
622,3	2557,633
622,8	2537,576
623,2	2514,405
623,6	2500,09
624,1	2481,29
624,5	2464,576
625	2449,405
625,4	2431,719
625,9	2410,376
626,3	2393,833
626,8	2380,662
627,2	2360,376
627,6	2348,576
628,1	2333,176
628,5	2313,49
629	2298,29
629,4	2277,405
629,9	2256,119
630,3	2237,148
630,7	2217,948
631,2	2198,433
631,6	2178,29
632,1	2165,433
632,5	2157,119
633	2146,29
633,4	2137,833
633,8	2116,69
634,3	2097,919
634,7	2090,262
635,2	2074,862
635,6	2053,176
636,1	2025,89
636,5	2009,319
636,9	1998,29
637,4	1990,033
637,8	1972,69
638,3	1958,348
638,7	1940,519
639,2	1937,09
639,6	1919,176
640	1905,976
640,5	1895,748
640,9	1883,376
641,4	1872,405
641,8	1861,548
642,2	1842,176
642,7	1830,119
643,1	1817,176
643,6	1801,49
644	1793,176
644,5	1784,548
644,9	1780,69
645,3	1774,833
645,8	1766,433
646,2	1755,376
646,7	1737,548
647,1	1718,49
647,6	1697,005
648	1686,09
648,4	1672,776
648,9	1662,948
649,3	1651,862
649,8	1642,69
650,2	1632,262
650,6	1627,005
651,1	1608,948
651,5	1601,662
652	1593,033
652,4	1580,662
652,9	1570,776
653,3	1560,748
653,7	1546,89
654,2	1537,605
654,6	1527,776
655,1	1513,833
655,5	1499,748
655,9	1490,519
656,4	1483,319
656,8	1472,976
657,3	1466,748
657,7	1450,062
658,2	1441,433
658,6	1439,09
659	1432,519
659,5	1421,919
659,9	1416,633
660,4	1404,833
660,8	1398,605
661,2	1384,348
661,7	1373,605
662,1	1357,405
662,6	1350,805
663	1335,69
663,4	1328,205
663,9	1317,233
664,3	1303,948
664,8	1295,09
665,2	1289,348
665,6	1276,605
666,1	1266,319
666,5	1257,405
667	1250,176
667,4	1248,862
667,9	1236,662
668,3	1225,748
668,7	1215,976
669,2	1211,519
669,6	1199,319
670,1	1186,348
670,5	1180,776
670,9	1172,605
671,4	1165,576
671,8	1154,462
672,3	1147,233
672,7	1137,948
673,1	1134,805
673,6	1122,576
674	1113,519
674,5	1107,319
674,9	1100,69
675,3	1092,176
675,8	1083,148
676,2	1068,548
676,7	1065,205
677,1	1057,89
677,5	1050,862
678	1047,376
678,4	1038,633
678,9	1034,605
679,3	1029,262
679,7	1013,033
680,2	1008,205
680,6	1001,148
681,1	990,719
681,5	983,805
681,9	974,805
682,4	970,09
682,8	964,605
683,3	960,49
683,7	951,633
684,1	942,062
684,6	933,033
685	922,576
685,5	906,376
685,9	900,89
686,3	892,433
686,8	888,662
687,2	881,833
687,7	878,948
688,1	879,376
688,5	881,005
689	878,405
689,4	864,033
689,9	858,919
690,3	854,605
690,7	852,576
691,2	847,633
691,6	844,519
692	837,976
692,5	832,833
692,9	821,348
693,4	816,376
693,8	805,348
694,2	797,605
694,7	788,976
695,1	783,805
695,6	786,005
696	783,148
696,4	780,748
696,9	773,09
697,3	767,576
697,8	764,176
698,2	756,09
698,6	741,862
699,1	737,348
699,5	728,862
699,9	726,69
700,4	716,89
700,8	712,833
701,3	709,29
701,7	706,948
702,1	698,519
702,6	692,548
703	685,719
703,5	683,433
703,9	678,348
704,3	670,433
704,8	667,605
705,2	665,462
705,6	664,605
706,1	656,376
706,5	650,376
707	646,519
707,4	648,633
707,8	649,205
708,3	644,633
708,7	639,833
709,2	640,119
709,6	638,805
710	630,09
710,5	618,119
710,9	610,576
711,3	603,119
711,8	596,09
712,2	586,633
712,7	579,405
713,1	575,976
713,5	575,262
714	566,519
714,4	563,576
714,8	562,49
715,3	566,262
715,7	562,29
716,2	562,948
716,6	554,233
717	551,89
717,5	549,605
717,9	540,976
718,3	536,462
718,8	533,576
719,2	526,805
719,7	529,833
720,1	526,148
720,5	523,605
721	522,405
721,4	515,005
721,8	512,062
722,3	506,633
722,7	497,148
723,2	497,062
723,6	492,005
724	485,662
724,5	482,605
724,9	478,205
725,3	473,005
725,8	470,262
726,2	464,262
726,7	457,262
727,1	457,233
727,5	450,976
728	444,948
728,4	445,519
728,8	442,148
729,3	436,49
729,7	433,29
730,1	428,919
730,6	431,376
731	430,376
731,5	429,405
731,9	428,805
732,3	431,176
732,8	431,29
733,2	432,89
733,6	427,662
734,1	422,605
734,5	416,919
734,9	413,833
735,4	405,776
735,8	401,033
736,3	390,376
736,7	389,776
737,1	390,919
737,6	386,29
738	387,976
738,4	390,776
738,9	390,09
739,3	393,005
739,7	390,662
740,2	387,319
740,6	387,69
741,1	381,69
741,5	373,005
741,9	372,519
742,4	375,576
742,8	369,805
743,2	368,462
743,7	367,433
744,1	365,519
744,5	363,09
745	356,176
745,4	351,09
745,8	351,376
746,3	349,548
746,7	343,033
747,2	336,005
747,6	336,719
748	338,233
748,5	330,919
748,9	327,89
749,3	322,49
749,8	325,176
750,2	324,948
750,6	320,948
751,1	317,462
751,5	319,519
751,9	317,376
752,4	323,833
752,8	320,976
753,3	322,748
753,7	322,176
754,1	323,576
754,6	317,862
755	317,662
755,4	316,062
755,9	316,033
756,3	316,462
756,7	316,262
757,2	311,205
757,6	310,062
758	305,09
758,5	295,919
758,9	290,262
759,3	284,176
759,8	278,548
760,2	275,719
760,6	282,548
761,1	280,948
761,5	280,062
761,9	280,462
762,4	279,348
762,8	281,205
763,3	280,948
763,7	271,062
764,1	270,348
764,6	269,833
765	268,719
765,4	269,262
765,9	269,633
766,3	267,09
766,7	266,605
767,2	264,205
767,6	266,89
768	261,205
768,5	255,748
768,9	251,605
769,3	251,233
769,8	246,976
770,2	248,548
770,6	239,748
771,1	237,662
771,5	236,062
771,9	233,205
772,4	233,233
772,8	235,633
773,2	235,976
773,7	237,348
774,1	242,119
774,5	244,605
775	248,69
775,4	242,633
775,8	237,433
776,3	230,548
776,7	229,09
777,1	222,776
777,6	213,69
778	208,119
778,4	208,262
778,9	207,348
779,3	207,833
779,7	208,49
780,2	209,405
780,6	216,919
781	215,376
781,5	212,833
781,9	212,633
782,3	209,376
782,8	210,462
783,2	206,148
783,6	199,548
784,1	202,062
784,5	201,662
784,9	196,605
785,4	195,433
785,8	188,262
786,2	187,062
786,7	191,205
787,1	192,948
787,5	191,376
788	192,148
788,4	191,033
788,8	186,89
789,3	189,176
789,7	183,948
790,1	179,319
790,6	175,376
791	175,262
791,4	176,976
791,9	176,833
792,3	174,719
792,7	174,805
793,2	174,605
793,6	180,633
794	181,776
794,5	180,948
794,9	186,49
795,3	183,033
795,8	182,205
796,2	172,205
796,6	172,033
797,1	170,719
797,5	166,948
797,9	165,205
798,4	166,462
798,8	165,805
799,2	171,033
799,7	166,119
800,1	164,348
800,5	165,29
801	161,862
801,4	159,405
801,8	157,576
802,2	151,919
802,7	150,09
803,1	150,576
803,5	148,519
804	149,948
804,4	147,69
804,8	148,776
805,3	152,89
805,7	152,205
806,1	146,948
806,6	147,233
807	141,548
807,4	143,176
807,9	139,09
808,3	139,748
808,7	142,605
809,2	143,833
809,6	143,319
810	149,69
810,4	147,119
810,9	146,519
811,3	144,29
811,7	139,49
812,2	137,376
812,6	135,862
813	131,548
813,5	135,262
813,9	133,633
814,3	127,633
814,8	127,976
815,2	130,89
815,6	130,205
816,1	130,233
816,5	125,805
816,9	129,633
817,3	129,262
817,8	132,948
818,2	127,976
818,6	127,205
819,1	122,519
819,5	118,319
819,9	117,119
820,4	123,633
820,8	119,633
821,2	120,833
821,7	115,948
822,1	116,748
822,5	118,748
822,9	113,462
823,4	106,805
823,8	107,776
824,2	107,776
824,7	111,462
825,1	110,49
825,5	110,548
826	106,69
826,4	106,662
826,8	101,662
827,3	100,033
827,7	97,69
828,1	93,376
828,5	93,148
829	98,69
829,4	98,633
829,8	99,262
830,3	97,148
830,7	94,805
831,1	95,09
831,6	91,805
832	86,29
832,4	88,233
832,8	86,776
833,3	86,776
833,7	82,376
834,1	86,662
834,6	89,49
835	93,233
835,4	89,919
835,8	90,119
836,3	88,776
836,7	92,776
837,1	89,948
837,6	84,89
838	80,405
838,4	76,719
838,9	78,49
839,3	79,662
839,7	77,176
840,1	76,148
840,6	80,033
841	75,948
841,4	78,148
841,9	74,69
842,3	71,948
842,7	72,548
843,1	69,976
843,6	65,376
844	72,976
844,4	74,89
844,9	74,09
845,3	74,662
845,7	72,776
846,2	78,719
846,6	81,662
847	80,205
847,4	81,69
847,9	81,49
848,3	78,548
848,7	78,948
849,2	73,833
849,6	71,005
850	68,148
850,4	63,976
850,9	64,69
851,3	67,576
851,7	69,776
852,2	68,576
852,6	73,205
853	78,976
853,4	77,405
853,9	76,69
854,3	79,519
854,7	78,919
855,2	83,662
855,6	75,748
856	73,976
856,4	71,519
856,9	70,719
857,3	62,69
857,7	63,662
858,2	60,205
858,6	59,433
859	56,576
859,4	57,148
859,9	57,205
860,3	59,262
860,7	56,605
861,1	56,033
861,6	61,548
862	63,062
862,4	62,89
862,9	65,805
863,3	65,005
863,7	67,376
864,1	63,69
864,6	62,262
865	59,862
865,4	59,948
865,9	53,519
866,3	56,262
866,7	48,805
867,1	52,519
867,6	53,862
868	47,376
868,4	46,348
868,8	48,633
869,3	48,633
869,7	56,062
870,1	50,919
870,6	45,862
871	108,948
871,4	111,633
871,8	110,29
872,3	106,519
872,7	101,89
873,1	103,348
873,5	104,69
874	46,805
874,4	45,205
874,8	45,862
875,3	48,176
875,7	48,576
876,1	51,662
876,5	50,69
877	48,976
877,4	48,748
877,8	46,319
878,2	47,519
878,7	48,605
879,1	47,662
879,5	46,776
879,9	43,748
880,4	40,776
880,8	45,033
881,2	43,519
881,7	41,976
882,1	38,976
882,5	37,405
882,9	39,233
883,4	39,976
883,8	38,176
884,2	34,862
884,6	33,462
885,1	34,348
885,5	36,948
885,9	38,576
886,3	39,548
886,8	44,633
887,2	45,29
887,6	46,919
888	45,805
888,5	46,462
888,9	42,862
889,3	42,148
889,8	36,948
890,2	34,776
890,6	39,233
891	41,119
891,5	41,576
891,9	40,376
892,3	44,148
892,7	41,29
893,2	44,89
893,6	37,148
894	37,262
894,4	34,462
894,9	38,148
895,3	33,748
895,7	35,662
896,1	32,605
896,6	34,576
897	35,348
897,4	40,262
897,8	40,548
898,3	41,09
898,7	37,862
899,1	39,69
899,5	40,033
900	38,205
900,4	35,119
900,8	27,376
901,2	24,433
901,7	25,319
902,1	21,405
902,5	22,148
902,9	22,09
903,4	20,633
903,8	23,233
904,2	25,805
904,6	24,919
905,1	27,948
905,5	26,833
905,9	22,89
906,3	19,148
906,8	23,348
907,2	22,119
907,6	23,719
908	22,605
908,5	18,29
908,9	20,405
909,3	24,805
909,7	22,69
910,2	23,605
910,6	23,576
911	25,805
911,4	31,005
911,9	28,833
912,3	31,29
912,7	31,805
913,1	29,548
913,6	31,576
914	31,748
914,4	33,376
914,8	33,548
915,3	29,205
915,7	29,119
916,1	32,062
916,5	28,719
916,9	27,205
917,4	24,005
917,8	22,233
918,2	26,033
918,6	22,29
919,1	18,862
919,5	19,976
919,9	22,29
920,3	22,662
920,8	27,433
921,2	22,919
921,6	27,205
922	26,29
922,5	26,576
922,9	26,919
923,3	23,862
923,7	20,776
924,2	23,376
924,6	23,433
925	29,119
925,4	27,319
925,8	23,948
926,3	24,748
926,7	26,633
927,1	26,033
927,5	27,662
928	23,033
928,4	21,948
928,8	21,633
929,2	22,205
929,7	26,976
930,1	22,062
930,5	17,119
930,9	20,948
931,3	26,262
931,8	31,119
932,2	32,262
932,6	24,833
933	22,89
933,5	26,433
933,9	28,205
934,3	23,433
934,7	18,976
935,2	17,519
935,6	15,719
936	17,319
936,4	16,719
936,8	14,833
937,3	14,233
937,7	13,89
938,1	13,062
938,5	16,662
939	17,662
939,4	15,776
939,8	10,005
940,2	10,633
940,6	12,29
941,1	13,89
941,5	14,119
941,9	13,462
942,3	12,433
942,8	14,633
943,2	11,319
943,6	8,776
944	6,605
944,4	6,348
944,9	8,976
945,3	14,262
945,7	16,919
946,1	17,69
946,6	17,348
947	19,033
947,4	14,976
947,8	15,062
948,2	15,89
948,7	13,462
949,1	16,662
949,5	15,205
949,9	13,89
950,3	13,633
950,8	9,462
951,2	2,49
951,6	5,805
952	6,576
952,5	6,633
952,9	6,062
953,3	11,862
953,7	16,262
954,1	19,776
954,6	20,148
955	20,976
955,4	23,462
955,8	27,176
956,2	22,319
956,7	22,176
957,1	24,948
957,5	23,548
957,9	19,748
958,3	21,576
958,8	21,005
959,2	24,662
959,6	30,49
960	23,776
960,5	21,748
960,9	27,376
961,3	22,69
961,7	25,548
962,1	26,976
962,6	20,262
963	29,119
963,4	34,433
963,8	25,662
964,2	24,376
964,7	21,919
965,1	17,548
965,5	19,29
965,9	12,576
966,3	12,148
966,8	15,576
967,2	21,833
967,6	17,576
968	18,348
968,4	19,148
968,9	17,462
969,3	11,776
969,7	8,062
970,1	8,09
970,5	8,033
971	13,119
971,4	8,862
971,8	12,148
972,2	11,605
972,6	17,405
973,1	12,348
973,5	15,205
973,9	11,262
974,3	16,49
974,7	12,205
975,2	15,405
975,6	11,576
976	12,919
976,4	11,262
976,8	11,205
977,3	9,49
977,7	11,319
978,1	10,462
978,5	17,576
978,9	18,433
979,4	18,519
979,8	19,833
980,2	20,405
980,6	24,633
981	17,005
981,5	9,605
981,9	13,062
982,3	11,49
982,7	9,576
983,1	5,662
983,6	0,662
984	7,89
984,4	9,148
984,8	6,462
985,2	11,176
985,6	10,805
986,1	9,462
986,5	13,29
986,9	10,148
987,3	8,062
987,7	7,862
988,2	0,748
988,6	1,176
989	7,919
989,4	3,519
989,8	8,976
990,3	14,148
990,7	10,205
991,1	13,833
991,5	15,09
991,9	9,433
992,3	11,005
992,8	5,462
993,2	1,09
993,6	4,348
994	6,233
994,4	11,033
994,9	14,376
995,3	17,748
995,7	20,462
996,1	21,948
996,5	18,662
996,9	24,405
997,4	12,862
997,8	10,033
998,2	7,519
998,6	6,948
999	6,49
999,5	8,605
999,9	4,805
1000,3	7,09
1000,7	11,719
1001,1	10,433
1001,5	12,09
1002	14,119
1002,4	14,348
1002,8	15,69
1003,2	15,976
1003,6	17,89
1004	20,719
1004,5	18,662
1004,9	17,862
1005,3	15,69
1005,7	14,748
1006,1	14,462
1006,6	9,519
1007	3,062
1007,4	1,662
1007,8	2,033
1008,2	5,662
1008,6	1,348
1009,1	4,033
1009,5	9,519
1009,9	17,119
1010,3	17,776
1010,7	19,062
1011,1	19,805
1011,6	18,662
1012	21,176
1012,4	15,233
1012,8	9,176
1013,2	5,233
1013,6	2,319
1014,1	1,033
1014,5	5,062
1014,9	3,405
1015,3	3,519
1015,7	6,976
1016,1	13,433
1016,6	14,405
1017	13,176
1017,4	9,148
1017,8	12,49
1018,2	11,89
1018,6	10,976
1019,1	12,005
1019,5	12,005
1019,9	14,433
1020,3	15,948
1020,7	11,919
1021,1	9,433
1021,6	10,005
1022	10,062
1022,4	7,805
1022,8	6,405
1023,2	5,09
1023,6	2,319
1024,1	11,462
1024,5	10,148
1024,9	11,176
1025,3	15,605
1025,7	11,919
1026,1	11,833
1026,6	19,405
1027	12,948
1027,4	12,633
1027,8	9,319
1028,2	9,176
1028,6	10,605
1029	7,062
1029,5	3,405
1029,9	6,605
1030,3	5,033
1030,7	8,862
1031,1	6,805
1031,5	12,033
1032	17,748
1032,4	17,176
1032,8	14,119
1033,2	14,976
1033,6	9,319
1034	6,919
1034,4	4,776
1034,9	10,205
1035,3	13,89
1035,7	13,519
1036,1	22,976
1036,5	25,233
1036,9	28,09
1037,4	26,776
1037,8	18,89
1038,2	21,262
1038,6	21,776
1039	17,69
1039,4	22,919
1039,8	23,862
1040,3	27,69
1040,7	28,89
1041,1	21,062
1041,5	26,69
1041,9	25,262
1042,3	21,233
1042,7	16,205
1043,2	14,148
1043,6	19,805
1044	24,233
1044,4	18,976
1044,8	17,805
1045,2	16,462
1045,6	23,576
1046,1	23,633
1046,5	15,29
1046,9	13,033
1047,3	13,262
1047,7	10,862
1048,1	8,176
1048,5	6,233
1049	4,633
1049,4	5,148
1049,8	5,89
1050,2	5,548
1050,6	5,862
1051	15,119
1051,4	9,69
1051,9	7,976
1052,3	7,548
1052,7	10,662
1053,1	10,919
1053,5	15,948
1053,9	8,119
1054,3	7,919
1054,8	12,09
1055,2	16,605
1055,6	14,148
1056	12,948
1056,4	9,633
1056,8	10,662
1057,2	10,262
1057,6	12,862
1058,1	11,548
1058,5	4,919
1058,9	7,748
1059,3	11,919
1059,7	13,205
1060,1	19,462
1060,5	16,262
1061	16,976
1061,4	21,462
1061,8	21,576
1062,2	19,433
1062,6	17,576
1063	17,062
1063,4	15,576
1063,8	13,919
1064,3	19,748
1064,7	18,748
1065,1	16,69
1065,5	17,519
1065,9	18,376
1066,3	16,89
1066,7	25,29
1067,1	19,576
1067,6	22,748
1068	27,605
1068,4	29,262
1068,8	28,033
1069,2	32,433
1069,6	23,462
1070	24,433
1070,4	24,29
1070,9	22,176
1071,3	21,862
1071,7	20,062
1072,1	15,605
1072,5	20,433
1072,9	18,319
1073,3	12,576
1073,7	8,605
1074,2	10,976
1074,6	12,805
1075	14,919
1075,4	16,148
1075,8	14,719
1076,2	20,005
1076,6	23,49
1077	23,833
1077,5	26,719
1077,9	23,233
1078,3	19,29
1078,7	23,005
1079,1	21,262
1079,5	19,576
1079,9	21,605
1080,3	19,233
1080,7	24,405
1081,2	25,148
1081,6	22,833
1082	25,862
1082,4	27,148
1082,8	24,805
1083,2	21,348
1083,6	19,405
1084	18,119
1084,5	26,09
1084,9	20,89
1085,3	15,662
1085,7	16,49
1086,1	20,005
1086,5	17,719
1086,9	18,376
1087,3	13,776
1087,7	18,576
1088,2	25,805
1088,6	23,976
1089	27,576
1089,4	32,49
1089,8	27,919
1090,2	27,69
1090,6	21,462
1091	15,148
1091,4	13,29
1091,9	6,976
1092,3	9,69
1092,7	12,233
1093,1	9,005
1093,5	12,605
1093,9	13,919
1094,3	11,948
1094,7	13,69
1095,1	13,033
1095,5	17,49
1096	23,262
1096,4	22,348
1096,8	26,548
1097,2	27,033
1097,6	31,262
1098	26,09
1098,4	27,405
1098,8	23,205
1099,2	22,605
1099,6	23,205
1100,1	23,176
1100,5	18,433
1100,9	17,89
1101,3	12,862
1101,7	13,605
1102,1	15,005
1102,5	9,748
1102,9	6,948
1103,3	9,862
1103,7	11,69
1104,2	13,605
1104,6	14,69
1105	12,976
1105,4	16,262
1105,8	18,405
1106,2	14,148
1106,6	11,69
1107	8,376
1107,4	5,667
1107,8	4,673
1108,3	0,433
