Data from Subt2_00091.txt Node
Date: Mon Aug 28 13:34:56 MSK 2023
User: vat
Spectrometer: MAYP114033
Trigger mode: 0
Integration Time (sec): 1,000000E0
Scans to average: 5
Electric dark correction enabled: true
Nonlinearity correction enabled: false
Boxcar width: 3
XAxis mode: Wavelengths
Number of Pixels in Spectrum: 2068
>>>>>Begin Spectral Data<<<<<
199,4	-0,367
199,9	-0,227
200,4	-1,767
200,8	0,762
201,3	0,248
201,8	3,276
202,2	3,048
202,7	2,133
203,2	2,162
203,6	6,905
204,1	5,59
204,6	7,79
205	7,19
205,5	9,019
206	9,848
206,4	10,076
206,9	8,133
207,4	8,448
207,8	7,133
208,3	7,619
208,8	5,076
209,2	7,048
209,7	9,962
210,2	9,105
210,6	11,362
211,1	14,39
211,5	12,476
212	14,19
212,5	11,933
212,9	8,505
213,4	10,933
213,9	5,19
214,3	5,59
214,8	4,476
215,3	6,819
215,7	6,562
216,2	7,219
216,7	7,99
217,1	6,905
217,6	6,305
218,1	5,99
218,5	6,276
219	6,505
219,5	7,848
219,9	1,99
220,4	9,505
220,9	7,419
221,3	10,019
221,8	7,419
222,3	12,133
222,7	16,905
223,2	18,019
223,6	12,59
224,1	15,505
224,6	14,819
225	18,219
225,5	14,99
226	10,048
226,4	15,505
226,9	17,305
227,4	20,933
227,8	19,076
228,3	13,505
228,8	12,133
229,2	13,248
229,7	10,133
230,2	14,419
230,6	7,19
231,1	10,219
231,5	16,362
232	21,133
232,5	16,59
232,9	17,79
233,4	11,333
233,9	14,39
234,3	15,133
234,8	10,333
235,3	11,505
235,7	17,276
236,2	16,333
236,7	19,933
237,1	21,876
237,6	23,362
238,1	24,819
238,5	24,305
239	24,248
239,4	24,533
239,9	26,676
240,4	19,248
240,8	19,105
241,3	17,619
241,8	10,533
242,2	7,133
242,7	7,419
243,2	9,105
243,6	14,362
244,1	10,248
244,6	7,476
245	9,79
245,5	9,705
245,9	10,39
246,4	5,562
246,9	5,733
247,3	6,419
247,8	5,933
248,3	7,876
248,7	5,362
249,2	3,533
249,7	8,076
250,1	4,848
250,6	2,905
251	4,59
251,5	1,105
252	0,905
252,4	-0,61
252,9	1,276
253,4	6,419
253,8	5,705
254,3	8,819
254,8	14,162
255,2	17,048
255,7	22,448
256,1	16,733
256,6	13,162
257,1	16,419
257,5	12,59
258	10,848
258,5	14,105
258,9	9,533
259,4	9,219
259,9	5,39
260,3	5,448
260,8	7,848
261,2	7,705
261,7	5,59
262,2	4,305
262,6	5,762
263,1	10,39
263,6	8,219
264	10,362
264,5	11,248
264,9	9,705
265,4	10,448
265,9	5,733
266,3	2,219
266,8	5,219
267,3	4,99
267,7	2,048
268,2	1,133
268,7	7,333
269,1	6,962
269,6	11,962
270	6,305
270,5	6,39
271	5,019
271,4	2,476
271,9	-5,381
272,4	0,333
272,8	-1,781
273,3	0,876
273,7	-0,924
274,2	3,419
274,7	6,876
275,1	10,648
275,6	10,705
276,1	6,762
276,5	8,305
277	10,105
277,4	7,962
277,9	6,248
278,4	9,419
278,8	8,419
279,3	14,476
279,8	15,39
280,2	20,733
280,7	21,076
281,1	21,219
281,6	15,619
282,1	17,133
282,5	16,105
283	15,733
283,4	10,79
283,9	13,019
284,4	16,476
284,8	16,59
285,3	14,333
285,8	12,962
286,2	10,562
286,7	9,276
287,1	4,133
287,6	1,762
288,1	2,333
288,5	1,362
289	1,648
289,5	2,705
289,9	0,305
290,4	3,762
290,8	4,105
291,3	10,133
291,8	9,99
292,2	13,79
292,7	15,162
293,1	19,476
293,6	14,762
294,1	16,419
294,5	12,59
295	13,305
295,5	9,248
295,9	9,505
296,4	5,105
296,8	13,676
297,3	13,733
297,8	16,733
298,2	15,476
298,7	14,305
299,1	13,076
299,6	12,876
300,1	8,39
300,5	6,533
301	1,476
301,5	5,048
301,9	4,505
302,4	7,705
302,8	11,362
303,3	16,105
303,8	19,848
304,2	19,905
304,7	17,648
305,1	18,905
305,6	14,705
306,1	13,362
306,5	4,448
307	4,105
307,4	1,419
307,9	3,219
308,4	3,59
308,8	3,962
309,3	6,705
309,8	10,476
310,2	7,876
310,7	12,076
311,1	9,848
311,6	7,933
312,1	6,99
312,5	1,562
313	1,933
313,4	2,39
313,9	0,676
314,4	-4,038
314,8	-0,352
315,3	5,676
315,7	11,962
316,2	10,219
316,7	10,848
317,1	11,333
317,6	16,362
318	16,305
318,5	13,19
319	12,276
319,4	17,905
319,9	14,162
320,3	14,99
320,8	14,705
321,3	11,848
321,7	13,276
322,2	7,162
322,6	7,248
323,1	10,276
323,6	12,19
324	10,419
324,5	14,419
324,9	14,705
325,4	21,39
325,9	16,819
326,3	15,962
326,8	14,362
327,2	16,762
327,7	13,276
328,2	14,648
328,6	15,076
329,1	10,105
329,5	10,962
330	13,305
330,5	15,762
330,9	18,99
331,4	17,276
331,8	13,162
332,3	20,848
332,8	22,876
333,2	22,133
333,7	18,79
334,1	13,533
334,6	9,076
335,1	9,419
335,5	8,276
336	6,819
336,4	5,305
336,9	8,476
337,4	9,933
337,8	13,533
338,3	15,076
338,7	11,076
339,2	7,419
339,7	9,905
340,1	1,905
340,6	1,962
341	1,105
341,5	2,79
342	6,448
342,4	4,562
342,9	3,733
343,3	9,048
343,8	8,448
344,2	8,848
344,7	1,305
345,2	-0,524
345,6	3,79
346,1	1,105
346,5	2,505
347	0,819
347,5	1,476
347,9	3,448
348,4	3,133
348,8	6,276
349,3	5,019
349,8	4,819
350,2	8,562
350,7	10,048
351,1	13,219
351,6	15,676
352	12,705
352,5	19,79
353	23,733
353,4	30,448
353,9	36,562
354,3	49,962
354,8	56,99
355,3	72,533
355,7	83,333
356,2	96,305
356,6	109,619
357,1	125,248
357,5	139,848
358	170,79
358,5	195,133
358,9	223,819
359,4	260,333
359,8	300,99
360,3	343,333
360,8	395,248
361,2	448,39
361,7	511,705
362,1	582,162
362,6	652,705
363	738,105
363,5	828,705
364	919,819
364,4	1011,448
364,9	1101,733
365,3	1193,448
365,8	1286,876
366,3	1362,533
366,7	1431,39
367,2	1489,219
367,6	1543,076
368,1	1582,819
368,5	1607,305
369	1617,019
369,5	1620,39
369,9	1610,362
370,4	1593,19
370,8	1552,648
371,3	1510,39
371,7	1454,048
372,2	1394,19
372,7	1324,876
373,1	1262,676
373,6	1183,019
374	1108,676
374,5	1033,905
374,9	963,162
375,4	893,105
375,9	832,562
376,3	759,905
376,8	703,619
377,2	651,762
377,7	599,533
378,2	553,533
378,6	509,162
379,1	459,962
379,5	423,019
380	386,305
380,4	355,333
380,9	326,762
381,4	302,648
381,8	280,048
382,3	261,59
382,7	246,448
383,2	229,676
383,6	213,819
384,1	200,476
384,6	183,305
385	170,676
385,5	162,276
385,9	152,476
386,4	149,762
386,8	140,105
387,3	129,962
387,7	122,762
388,2	112,619
388,7	100,648
389,1	90,876
389,6	83,162
390	76,648
390,5	75,362
390,9	74,99
391,4	73,562
391,9	73,59
392,3	70,476
392,8	62,39
393,2	62,476
393,7	57,79
394,1	51,619
394,6	51,505
395,1	52,962
395,5	50,79
396	52,162
396,4	45,533
396,9	44,648
397,3	44,362
397,8	36,962
398,2	29,533
398,7	27,505
399,2	24,562
399,6	27,962
400,1	23,19
400,5	23,133
401	33,133
401,4	33,105
401,9	36,476
402,4	36,019
402,8	38,076
403,3	44,619
403,7	44,762
404,2	41,705
404,6	40,133
405,1	39,019
405,5	42,048
406	41,419
406,5	37,048
406,9	40,876
407,4	38,419
407,8	40,305
408,3	40,648
408,7	38,19
409,2	37,362
409,6	38,076
410,1	38,476
410,6	37,248
411	36,876
411,5	32,105
411,9	31,105
412,4	31,933
412,8	34,048
413,3	29,076
413,7	30,39
414,2	33,133
414,7	37,248
415,1	44,533
415,6	43,476
416	48,105
416,5	59,79
416,9	65,39
417,4	70,619
417,8	75,99
418,3	78,019
418,8	82,019
419,2	78,419
419,7	74,048
420,1	70,448
420,6	70,019
421	68,562
421,5	65,162
421,9	64,248
422,4	65,819
422,8	64,39
423,3	69,362
423,8	68,19
424,2	65,505
424,7	65,59
425,1	63,505
425,6	63,276
426	61,048
426,5	55,248
426,9	53,019
427,4	58,276
427,9	60,019
428,3	57,162
428,8	52,99
429,2	54,905
429,7	56,448
430,1	53,505
430,6	45,619
431	38,819
431,5	39,39
431,9	41,419
432,4	37,333
432,8	38,219
433,3	39,162
433,8	42,648
434,2	44,648
434,7	41,162
435,1	44,876
435,6	43,533
436	41,476
436,5	41,276
436,9	37,362
437,4	38,476
437,8	39,79
438,3	41,819
438,8	42,848
439,2	42,048
439,7	41,048
440,1	43,562
440,6	39,362
441	41,99
441,5	34,019
441,9	30,276
442,4	31,533
442,8	32,562
443,3	32,79
443,7	33,133
444,2	34,848
444,7	37,048
445,1	42,848
445,6	42,905
446	42,762
446,5	39,762
446,9	44,39
447,4	45,876
447,8	50,305
448,3	48,305
448,7	48,505
449,2	48,276
449,6	52,076
450,1	55,562
450,6	58,819
451	54,79
451,5	66,219
451,9	67,962
452,4	70,99
452,8	70,819
453,3	67,505
453,7	67,705
454,2	69,533
454,6	66,019
455,1	67,048
455,5	71,819
456	76,162
456,4	77,333
456,9	78,419
457,3	84,419
457,8	79,848
458,3	80,362
458,7	83,848
459,2	85,619
459,6	91,019
460,1	95,19
460,5	92,448
461	98,533
461,4	103,305
461,9	102,562
462,3	105,819
462,8	108,705
463,2	108,076
463,7	115,59
464,1	117,79
464,6	119,619
465	118,876
465,5	124,133
466	130,076
466,4	138,219
466,9	140,105
467,3	144,962
467,8	153,505
468,2	163,39
468,7	169,762
469,1	171,133
469,6	170,733
470	175,848
470,5	183,79
470,9	185,362
471,4	191,848
471,8	193,419
472,3	199,048
472,7	203,305
473,2	205,333
473,6	207,533
474,1	210,362
474,5	215,105
475	219,505
475,4	218,448
475,9	221,419
476,4	226,648
476,8	230,39
477,3	235,333
477,7	232,962
478,2	236,933
478,6	243,219
479,1	255,733
479,5	261,762
480	267,619
480,4	272,59
480,9	279,619
481,3	282,705
481,8	285,019
482,2	280,562
482,7	289,648
483,1	288,562
483,6	291,933
484	289,59
484,5	293,448
484,9	303,619
485,4	311,19
485,8	307,076
486,3	311,819
486,7	316,419
487,2	325,219
487,6	322,419
488,1	324,333
488,5	322,99
489	331,505
489,4	338,219
489,9	337,248
490,4	337,162
490,8	343,905
491,3	342,505
491,7	341,705
492,2	337,676
492,6	334,333
493,1	338,219
493,5	344,705
494	352,219
494,4	348,876
494,9	352,99
495,3	355,333
495,8	353,848
496,2	352,505
496,7	350,39
497,1	343,276
497,6	349,676
498	353,819
498,5	356,562
498,9	365,733
499,4	365,419
499,8	369,19
500,3	376,248
500,7	378,762
501,2	380,848
501,6	377,905
502,1	373,933
502,5	377,19
503	380,362
503,4	374,248
503,9	374,933
504,3	373,333
504,8	380,733
505,2	385,562
505,7	392,705
506,1	385,59
506,6	386,676
507	390,476
507,5	389,419
507,9	388,733
508,4	386,819
508,8	382,562
509,3	389,99
509,7	393,39
510,2	392,962
510,6	397,019
511,1	395,79
511,5	399,848
512	397,362
512,4	396,99
512,9	397,848
513,3	395,162
513,8	399,533
514,2	401,133
514,7	402,648
515,1	409,105
515,6	413,39
516	415,133
516,5	418,19
516,9	415,333
517,4	417,419
517,8	419,905
518,3	425,162
518,7	426,762
519,2	435,705
519,6	441,019
520,1	447,476
520,5	450,333
521	447,648
521,4	446,648
521,9	442,476
522,3	439,705
522,8	437,59
523,2	435,305
523,7	434,305
524,1	437,048
524,6	435,562
525	442,133
525,5	443,876
525,9	448,276
526,4	452,019
526,8	455,39
527,3	462,676
527,7	472,39
528,2	472,79
528,6	475,419
529,1	479,79
529,5	482,962
530	485,905
530,4	489,533
530,9	489,933
531,3	496,59
531,8	496,362
532,2	496,562
532,6	501,59
533,1	506,59
533,5	499,505
534	494,162
534,4	490,048
534,9	496,448
535,3	502,505
535,8	504,162
536,2	502,933
536,7	506,848
537,1	519,219
537,6	527,648
538	532,362
538,5	532,905
538,9	537,705
539,4	548,619
539,8	555,362
540,3	552,905
540,7	547,762
541,2	549,019
541,6	548,676
542,1	547,305
542,5	543,762
543	545,848
543,4	549,505
543,9	557,276
544,3	562,848
544,8	570,505
545,2	574,248
545,7	578,419
546,1	581,333
546,5	588,333
547	590,276
547,4	589,848
547,9	585,019
548,3	587,105
548,8	584,162
549,2	591,705
549,7	588,248
550,1	588,019
550,6	586,562
551	593,248
551,5	591,619
551,9	595,476
552,4	589,39
552,8	589,019
553,3	591,476
553,7	599,048
554,2	604,476
554,6	610,819
555,1	611,933
555,5	620,933
555,9	624,305
556,4	630,962
556,8	635,276
557,3	635,676
557,7	638,248
558,2	643,076
558,6	640,133
559,1	643,762
559,5	642,933
560	638,362
560,4	636,819
560,9	637,248
561,3	637,619
561,8	644,219
562,2	645,705
562,7	645,333
563,1	652,276
563,6	651,419
564	651,876
564,4	653,505
564,9	650,276
565,3	654,876
565,8	662,59
566,2	660,648
566,7	665,733
567,1	669,048
567,6	676,076
568	677,219
568,5	675,505
568,9	675,333
569,4	680,39
569,8	684,476
570,3	686,076
570,7	684,562
571,1	687,276
571,6	689,362
572	689,133
572,5	681,99
572,9	683,076
573,4	679,99
573,8	679,019
574,3	681,733
574,7	681,962
575,2	685,019
575,6	696,076
576,1	695,333
576,5	699,419
576,9	699,048
577,4	702,19
577,8	705,733
578,3	703,219
578,7	694,476
579,2	689,019
579,6	690,762
580,1	695,448
580,5	693,648
581	692,362
581,4	696,733
581,9	699,676
582,3	703,648
582,7	697,876
583,2	697,762
583,6	690,962
584,1	691,962
584,5	684,962
585	680,39
585,4	681,876
585,9	683,705
586,3	680,219
586,8	683,648
587,2	683,905
587,6	688,905
588,1	692,276
588,5	693,705
589	696,819
589,4	700,305
589,9	697,676
590,3	688,533
590,8	680,248
591,2	679,705
591,7	672,133
592,1	671,962
592,5	668,648
593	672,19
593,4	676,276
593,9	681,762
594,3	682,962
594,8	686,305
595,2	680,39
595,7	680,905
596,1	677,99
596,6	675,133
597	674,562
597,4	673,048
597,9	670,762
598,3	668,105
598,8	668,019
599,2	670,305
599,7	671,105
600,1	669,676
600,6	664,162
601	660,276
601,4	663,248
601,9	660,819
602,3	653,819
602,8	651,762
603,2	653,733
603,7	656,619
604,1	657,533
604,6	656,705
605	655,733
605,4	655,219
605,9	653,962
606,3	655,562
606,8	655,39
607,2	658,133
607,7	653,276
608,1	653,676
608,6	661,076
609	665,076
609,4	660,79
609,9	658,533
610,3	656,705
610,8	660,19
611,2	656,533
611,7	649,733
612,1	645,819
612,6	638,962
613	634,876
613,4	630,762
613,9	627,248
614,3	625,562
614,8	624,476
615,2	621,99
615,7	622,762
616,1	625,533
616,6	625,648
617	622,59
617,4	617,905
617,9	614,905
618,3	606,99
618,8	605,39
619,2	601,562
619,7	599,99
620,1	601,619
620,5	599,59
621	595,162
621,4	603,162
621,9	600,99
622,3	595,419
622,8	592,333
623,2	586,505
623,6	583,819
624,1	579,848
624,5	570,362
625	566,905
625,4	567,248
625,9	567,048
626,3	566,933
626,8	564,762
627,2	564,848
627,6	565,876
628,1	563,276
628,5	562,619
629	557,362
629,4	548,962
629,9	550,676
630,3	551,019
630,7	546,448
631,2	546,99
631,6	540,848
632,1	538,79
632,5	538,048
633	534,848
633,4	528,505
633,8	524,162
634,3	520,19
634,7	522,733
635,2	518,333
635,6	521,162
636,1	514,533
636,5	513,162
636,9	513,362
637,4	510,676
637,8	504,219
638,3	500,962
638,7	496,933
639,2	493,648
639,6	494,39
640	492,562
640,5	488,648
640,9	484,648
641,4	483,79
641,8	482,733
642,2	482,276
642,7	476,962
643,1	473,99
643,6	475,476
644	473,59
644,5	473,562
644,9	469,048
645,3	469,848
645,8	468,562
646,2	464,762
646,7	457,162
647,1	454,076
647,6	448,219
648	445,276
648,4	443,333
648,9	443,419
649,3	443,819
649,8	444,533
650,2	446,39
650,6	449,819
651,1	450,305
651,5	444,59
652	440,362
652,4	435,762
652,9	431,419
653,3	429,133
653,7	426,933
654,2	422,79
654,6	420,562
655,1	416,562
655,5	413,99
655,9	412,048
656,4	411,848
656,8	406,133
657,3	406,848
657,7	407,19
658,2	404,305
658,6	409,276
659	407,933
659,5	405,905
659,9	403,962
660,4	397,619
660,8	397,076
661,2	394,705
661,7	392,162
662,1	398,848
662,6	394,048
663	391,59
663,4	388,819
663,9	383,705
664,3	385,59
664,8	373,905
665,2	364,133
665,6	362,248
666,1	364,162
666,5	363,619
667	363,562
667,4	360,619
667,9	368,048
668,3	367,39
668,7	363,133
669,2	359,39
669,6	358,448
670,1	354,876
670,5	352,333
670,9	351,162
671,4	347,419
671,8	344,133
672,3	341,762
672,7	340,962
673,1	341,105
673,6	335,962
674	328,762
674,5	323,476
674,9	328,219
675,3	322,448
675,8	318,533
676,2	312,848
676,7	309,676
677,1	309,448
677,5	306,79
678	300,733
678,4	303,705
678,9	302,762
679,3	306,619
679,7	310,19
680,2	307,048
680,6	312,59
681,1	314,762
681,5	309,448
681,9	307,59
682,4	303,505
682,8	302,79
683,3	304,505
683,7	302,362
684,1	300,133
684,6	301,305
685	301,162
685,5	301,105
685,9	298,333
686,3	293,876
686,8	293,762
687,2	288,905
687,7	284,905
688,1	283,048
688,5	284,048
689	281,676
689,4	280,276
689,9	277,476
690,3	282,848
690,7	281,276
691,2	273,248
691,6	267,619
692	266,305
692,5	262,848
692,9	258,305
693,4	250,562
693,8	253,905
694,2	258,562
694,7	252,876
695,1	259,733
695,6	261,933
696	262,705
696,4	261,219
696,9	256,648
697,3	252,933
697,8	255,133
698,2	245,448
698,6	238,648
699,1	238,476
699,5	234,648
699,9	235,962
700,4	234,733
700,8	233,99
701,3	235,59
701,7	237,59
702,1	234,448
702,6	234,362
703	229,019
703,5	227,019
703,9	223,19
704,3	221,79
704,8	220,99
705,2	218,99
705,6	220,99
706,1	220,105
706,5	226,048
707	225,39
707,4	221,648
707,8	217,276
708,3	217,305
708,7	213,048
709,2	213,762
709,6	205,762
710	205,962
710,5	204,39
710,9	207,419
711,3	201,705
711,8	203,876
712,2	200,819
712,7	201,648
713,1	199,99
713,5	197,962
714	196,533
714,4	199,019
714,8	192,162
715,3	193,876
715,7	191,59
716,2	191,79
716,6	192,39
717	189,676
717,5	183,219
717,9	186,762
718,3	183,048
718,8	184,219
719,2	182,962
719,7	181,333
720,1	180,876
720,5	183,676
721	177,533
721,4	177,59
721,8	176,762
722,3	180,248
722,7	182,419
723,2	179,333
723,6	178,619
724	179,048
724,5	175,676
724,9	178,362
725,3	171,048
725,8	165,248
726,2	164,533
726,7	167,476
727,1	165,59
727,5	164,676
728	158,79
728,4	159,533
728,8	158,133
729,3	157,933
729,7	155,705
730,1	157,076
730,6	158,333
731	156,162
731,5	152,933
731,9	157,362
732,3	159,59
732,8	159,048
733,2	157,619
733,6	158,448
734,1	161,819
734,5	163,676
734,9	156,562
735,4	158,562
735,8	155,676
736,3	156,59
736,7	152,505
737,1	153,705
737,6	151,876
738	155,762
738,4	151,019
738,9	150,305
739,3	151,476
739,7	150,99
740,2	147,762
740,6	147,333
741,1	142,39
741,5	143,162
741,9	141,676
742,4	138,962
742,8	139,562
743,2	140,876
743,7	142,133
744,1	145,133
744,5	144,305
745	142,076
745,4	141,848
745,8	141,876
746,3	138,905
746,7	137,133
747,2	135,59
747,6	134,362
748	131,59
748,5	132,133
748,9	131,79
749,3	124,39
749,8	125,219
750,2	124,419
750,6	124,79
751,1	131,105
751,5	127,99
751,9	128,448
752,4	133,019
752,8	129,99
753,3	130,305
753,7	122,533
754,1	120,562
754,6	121,59
755	120,048
755,4	121,648
755,9	121,99
756,3	124,248
756,7	128,533
757,2	126,619
757,6	123,648
758	123,39
758,5	121,076
758,9	117,79
759,3	110,533
759,8	109,162
760,2	106,162
760,6	106,59
761,1	103,248
761,5	107,248
761,9	108,419
762,4	112,562
762,8	111,39
763,3	110,562
763,7	109,333
764,1	114,505
764,6	106,962
765	103,019
765,4	100,305
765,9	101,648
766,3	102,048
766,7	102,476
767,2	96,476
767,6	99,476
768	98,276
768,5	98,59
768,9	96,819
769,3	95,219
769,8	98,676
770,2	99,905
770,6	97,419
771,1	99,476
771,5	100,019
771,9	105,276
772,4	109,105
772,8	104,905
773,2	106,048
773,7	104,848
774,1	108,705
774,5	102,39
775	91,276
775,4	89,162
775,8	90,562
776,3	85,848
776,7	84,59
777,1	82,333
777,6	84,105
778	89,848
778,4	88,019
778,9	84,619
779,3	82,419
779,7	82,933
780,2	82,962
780,6	83,248
781	78,305
781,5	75,933
781,9	77,362
782,3	79,448
782,8	82,048
783,2	78,076
783,6	81,676
784,1	86,219
784,5	88,419
784,9	87,076
785,4	87,733
785,8	88,79
786,2	90,19
786,7	86,79
787,1	86,733
787,5	88,562
788	84,79
788,4	82,19
788,8	76,362
789,3	75,876
789,7	76,562
790,1	71,362
790,6	69,162
791	69,219
791,4	71,619
791,9	69,99
792,3	71,79
792,7	65,419
793,2	69,39
793,6	68,219
794	69,476
794,5	69,419
794,9	73,876
795,3	74,99
795,8	78,819
796,2	79,505
796,6	82,333
797,1	76,933
797,5	80,533
797,9	78,619
798,4	72,876
798,8	72,419
799,2	71,848
799,7	68,59
800,1	72,505
800,5	67,305
801	67,276
801,4	67,876
801,8	64,362
802,2	64,076
802,7	65,933
803,1	68,876
803,5	65,19
804	64,505
804,4	61,276
804,8	63,305
805,3	65,762
805,7	62,562
806,1	63,705
806,6	61,39
807	60,162
807,4	62,39
807,9	65,076
808,3	61,905
808,7	59,79
809,2	58,676
809,6	62,848
810	61,219
810,4	60,99
810,9	58,276
811,3	55,819
811,7	63,048
812,2	60,99
812,6	58,819
813	58,076
813,5	56,533
813,9	54,019
814,3	54,99
814,8	48,219
815,2	47,905
815,6	49,333
816,1	48,705
816,5	48,219
816,9	48,59
817,3	49,276
817,8	52,99
818,2	50,276
818,6	49,333
819,1	52,333
819,5	53,448
819,9	54,819
820,4	51,448
820,8	49,248
821,2	50,19
821,7	50,848
822,1	47,676
822,5	47,39
822,9	46,762
823,4	47,362
823,8	45,933
824,2	48,333
824,7	51,019
825,1	48,933
825,5	51,105
826	52,733
826,4	55,362
826,8	54,133
827,3	50,79
827,7	49,562
828,1	50,476
828,5	44,505
829	44,762
829,4	38,448
829,8	40,19
830,3	39,648
830,7	39,248
831,1	43,648
831,6	44,876
832	44,762
832,4	46,305
832,8	42,705
833,3	45,048
833,7	42,419
834,1	39,79
834,6	41,276
835	41,448
835,4	41,276
835,8	45,19
836,3	44,476
836,7	46,248
837,1	47,648
837,6	47,619
838	42,762
838,4	44,39
838,9	42,762
839,3	47,619
839,7	48,705
840,1	43,648
840,6	44,276
841	49,99
841,4	50,933
841,9	47,333
842,3	40,619
842,7	39,162
843,1	42,19
843,6	41,219
844	39,333
844,4	36,448
844,9	37,19
845,3	39,562
845,7	37,876
846,2	38,333
846,6	38,133
847	37,419
847,4	29,79
847,9	33,076
848,3	30,448
848,7	29,99
849,2	29,505
849,6	24,848
850	27,419
850,4	36,848
850,9	32,362
851,3	31,676
851,7	28,59
852,2	32,59
852,6	34,933
853	28,705
853,4	25,79
853,9	29,676
854,3	30,133
854,7	34,133
855,2	30,648
855,6	30,505
856	33,019
856,4	33,505
856,9	32,019
857,3	30,476
857,7	29,905
858,2	26,305
858,6	26,819
859	22,705
859,4	22,733
859,9	23,905
860,3	24,705
860,7	21,762
861,1	24,876
861,6	32,333
862	30,648
862,4	27,905
862,9	26,276
863,3	21,905
863,7	25,133
864,1	24,019
864,6	18,876
865	23,162
865,4	26,648
865,9	27,219
866,3	31,733
866,7	31,876
867,1	26,762
867,6	26,333
868	31,876
868,4	29,048
868,8	26,962
869,3	26,79
869,7	25,619
870,1	29,676
870,6	24,79
871	71,476
871,4	67,676
871,8	71,048
872,3	70,762
872,7	73,933
873,1	74,505
873,5	82,419
874	25,248
874,4	27,219
874,8	30,876
875,3	31,99
875,7	25,19
876,1	21,133
876,5	15,99
877	20,619
877,4	26,99
877,8	23,019
878,2	21,962
878,7	27,476
879,1	34,162
879,5	32,733
879,9	35,59
880,4	34,248
880,8	31,905
881,2	32,676
881,7	30,162
882,1	29,362
882,5	34,762
882,9	31,762
883,4	28,819
883,8	28,933
884,2	23,448
884,6	25,962
885,1	22,848
885,5	20,505
885,9	20,019
886,3	22,533
886,8	23,848
887,2	24,819
887,6	17,848
888	21,962
888,5	17,733
888,9	19,419
889,3	16,79
889,8	20,99
890,2	22,79
890,6	24,333
891	20,905
891,5	27,705
891,9	27,276
892,3	31,219
892,7	27,619
893,2	29,705
893,6	29,248
894	25,419
894,4	21,705
894,9	18,276
895,3	15,848
895,7	14,133
896,1	15,133
896,6	17,476
897	19,59
897,4	20,562
897,8	24,333
898,3	28,19
898,7	25,562
899,1	23,533
899,5	21,762
900	24,39
900,4	26,248
900,8	23,476
901,2	20,619
901,7	21,648
902,1	28,562
902,5	28,019
902,9	23,276
903,4	18,39
903,8	18,105
904,2	13,619
904,6	12,476
905,1	9,562
905,5	11,048
905,9	12,133
906,3	12,305
906,8	13,533
907,2	16,048
907,6	20,505
908	17,219
908,5	16,076
908,9	20,019
909,3	17,848
909,7	18,39
910,2	23,79
910,6	18,562
911	15,705
911,4	12,019
911,9	11,076
912,3	10,762
912,7	7,305
913,1	-0,981
913,6	0,048
914	3,476
914,4	8,962
914,8	8,39
915,3	9,648
915,7	18,019
916,1	21,305
916,5	24,99
916,9	17,162
917,4	15,448
917,8	12,762
918,2	15,99
918,6	12,048
919,1	10,333
919,5	6,419
919,9	11,59
920,3	10,476
920,8	11,305
921,2	9,019
921,6	9,162
922	8,819
922,5	10,39
922,9	9,19
923,3	13,333
923,7	14,905
924,2	16,648
924,6	12,076
925	14,333
925,4	18,305
925,8	22,19
926,3	19,819
926,7	19,19
927,1	19,219
927,5	25,333
928	21,99
928,4	21,848
928,8	19,819
929,2	18,248
929,7	18,305
930,1	17,848
930,5	16,848
930,9	11,505
931,3	8,99
931,8	8,305
932,2	11,876
932,6	8,505
933	5,962
933,5	4,533
933,9	8,619
934,3	11,705
934,7	10,419
935,2	11,962
935,6	14,562
936	13,876
936,4	16,19
936,8	20,333
937,3	13,876
937,7	12,648
938,1	6,305
938,5	4,248
939	6,19
939,4	3,448
939,8	2,19
940,2	0,762
940,6	6,362
941,1	8,733
941,5	14,562
941,9	16,276
942,3	15,219
942,8	17,419
943,2	20,419
943,6	17,276
944	16,219
944,4	15,705
944,9	13,705
945,3	13,362
945,7	12,019
946,1	10,705
946,6	13,248
947	17,848
947,4	16,562
947,8	19,219
948,2	21,476
948,7	17,105
949,1	22,819
949,5	21,676
949,9	17,533
950,3	15,362
950,8	14,848
951,2	11,448
951,6	13,619
952	11,39
952,5	8,076
952,9	9,533
953,3	14,133
953,7	11,648
954,1	14,076
954,6	16,733
955	14,533
955,4	23,076
955,8	22,505
956,2	23,019
956,7	22,419
957,1	16,248
957,5	15,762
957,9	19,248
958,3	12,105
958,8	12,59
959,2	10,448
959,6	9,133
960	14,848
960,5	12,39
960,9	12,133
961,3	11,276
961,7	10,048
962,1	7,848
962,6	7,39
963	5,305
963,4	7,733
963,8	7,276
964,2	11,219
964,7	9,533
965,1	6,333
965,5	12,419
965,9	12,648
966,3	9,133
966,8	6,219
967,2	2,076
967,6	6,19
968	8,305
968,4	3,705
968,9	6,39
969,3	9,333
969,7	7,448
970,1	7,19
970,5	4,019
971	2,448
971,4	4,219
971,8	3,076
972,2	5,162
972,6	7,848
973,1	8,305
973,5	11,019
973,9	15,676
974,3	16,362
974,7	15,819
975,2	15,133
975,6	15,762
976	16,819
976,4	13,048
976,8	10,819
977,3	8,219
977,7	9,819
978,1	7,19
978,5	7,848
978,9	9,248
979,4	11,505
979,8	9,105
980,2	10,533
980,6	8,79
981	11,048
981,5	7,248
981,9	6,219
982,3	7,59
982,7	8,019
983,1	4,819
983,6	6,333
984	1,276
984,4	3,705
984,8	2,676
985,2	3,59
985,6	4,762
986,1	6,419
986,5	7,533
986,9	9,048
987,3	8,705
987,7	6,733
988,2	6,505
988,6	9,19
989	10,876
989,4	9,076
989,8	11,533
990,3	9,533
990,7	16,048
991,1	12,733
991,5	9,876
991,9	8,876
992,3	6,933
992,8	3,505
993,2	6,39
993,6	-1,81
994	-0,067
994,4	7,448
994,9	11,619
995,3	20,619
995,7	20,019
996,1	17,048
996,5	17,99
996,9	15,248
997,4	11,533
997,8	12,505
998,2	5,676
998,6	9,276
999	12,419
999,5	18,19
999,9	19,219
1000,3	16,79
1000,7	12,39
1001,1	11,19
1001,5	13,848
1002	14,39
1002,4	12,248
1002,8	11,962
1003,2	14,762
1003,6	15,676
1004	16,133
1004,5	12,59
1004,9	9,933
1005,3	12,248
1005,7	9,905
1006,1	9,248
1006,6	6,876
1007	8,362
1007,4	8,305
1007,8	12,219
1008,2	13,248
1008,6	17,505
1009,1	15,962
1009,5	19,19
1009,9	17,19
1010,3	18,99
1010,7	19,79
1011,1	15,648
1011,6	17,848
1012	16,705
1012,4	19,933
1012,8	20,962
1013,2	22,19
1013,6	18,819
1014,1	17,648
1014,5	15,819
1014,9	17,533
1015,3	13,305
1015,7	14,019
1016,1	9,305
1016,6	6,448
1017	7,762
1017,4	8,619
1017,8	3,962
1018,2	0,19
1018,6	0,533
1019,1	5,819
1019,5	8,505
1019,9	12,562
1020,3	7,733
1020,7	10,99
1021,1	19,133
1021,6	14,019
1022	14,476
1022,4	15,648
1022,8	14,648
1023,2	16,619
1023,6	14,019
1024,1	10,39
1024,5	15,39
1024,9	13,876
1025,3	14,59
1025,7	11,133
1026,1	14,59
1026,6	20,448
1027	20,505
1027,4	23,762
1027,8	17,933
1028,2	16,333
1028,6	19,048
1029	12,79
1029,5	10,276
1029,9	10,076
1030,3	8,39
1030,7	6,248
1031,1	8,019
1031,5	8,648
1032	11,733
1032,4	12,333
1032,8	9,076
1033,2	8,762
1033,6	13,476
1034	12,562
1034,4	6,848
1034,9	9,333
1035,3	7,705
1035,7	9,676
1036,1	5,848
1036,5	12,905
1036,9	9,362
1037,4	14,876
1037,8	18,448
1038,2	20,933
1038,6	18,676
1039	18,105
1039,4	12,705
1039,8	13,762
1040,3	15,962
1040,7	7,419
1041,1	1,848
1041,5	6,162
1041,9	6,276
1042,3	4,676
1042,7	1,79
1043,2	-1,095
1043,6	8,219
1044	14,448
1044,4	14,276
1044,8	19,248
1045,2	19,79
1045,6	23,705
1046,1	23,962
1046,5	16,162
1046,9	13,133
1047,3	11,505
1047,7	9,276
1048,1	13,705
1048,5	13,19
1049	13,648
1049,4	14,305
1049,8	15,019
1050,2	18,219
1050,6	15,905
1051	8,59
1051,4	9,248
1051,9	7,848
1052,3	5,305
1052,7	2,79
1053,1	1,076
1053,5	1,819
1053,9	8,305
1054,3	6,79
1054,8	7,733
1055,2	9,448
1055,6	11,99
1056	8,733
1056,4	7,619
1056,8	4,333
1057,2	8,39
1057,6	9,305
1058,1	14,819
1058,5	11,448
1058,9	10,562
1059,3	15,762
1059,7	16,676
1060,1	12,276
1060,5	4,133
1061	-0,724
1061,4	5,333
1061,8	8,819
1062,2	3,133
1062,6	3,476
1063	1,79
1063,4	5,248
1063,8	9,876
1064,3	5,59
1064,7	6,39
1065,1	8,99
1065,5	8,79
1065,9	15,076
1066,3	16,819
1066,7	12,905
1067,1	11,619
1067,6	13,448
1068	11,733
1068,4	10,419
1068,8	4,476
1069,2	5,219
1069,6	5,248
1070	9,019
1070,4	7,705
1070,9	10,819
1071,3	12,248
1071,7	15,105
1072,1	14,133
1072,5	18,276
1072,9	16,848
1073,3	16,733
1073,7	18,362
1074,2	16,648
1074,6	15,505
1075	15,533
1075,4	12,248
1075,8	11,19
1076,2	10,505
1076,6	8,705
1077	8,162
1077,5	11,819
1077,9	10,848
1078,3	6,905
1078,7	4,99
1079,1	7,79
1079,5	4,419
1079,9	2,876
1080,3	-4,467
1080,7	-0,21
1081,2	4,276
1081,6	4,39
1082	-0,752
1082,4	-0,581
1082,8	0,19
1083,2	7,076
1083,6	1,219
1084	-0,324
1084,5	5,562
1084,9	1,59
1085,3	1,59
1085,7	3,79
1086,1	1,819
1086,5	1,962
1086,9	1,533
1087,3	-5,038
1087,7	-2,324
1088,2	-1,124
1088,6	-3,067
1089	-3,752
1089,4	-0,895
1089,8	-0,21
1090,2	1,648
1090,6	3,905
1091	6,676
1091,4	8,905
1091,9	11,59
1092,3	14,762
1092,7	13,905
1093,1	12,219
1093,5	13,819
1093,9	9,448
1094,3	9,905
1094,7	10,505
1095,1	6,133
1095,5	8,39
1096	9,99
1096,4	9,248
1096,8	13,762
1097,2	12,219
1097,6	11,419
1098	15,076
1098,4	10,819
1098,8	11,962
1099,2	8,705
1099,6	6,133
1100,1	5,048
1100,5	4,048
1100,9	4,019
1101,3	6,733
1101,7	5,162
1102,1	8,476
1102,5	4,248
1102,9	4,39
1103,3	5,305
1103,7	1,105
1104,2	2,905
1104,6	5,448
1105	5,99
1105,4	9,648
1105,8	10,505
1106,2	7,39
1106,6	7,819
1107	5,619
1107,4	3,9
1107,8	1,253
1108,3	-0,267
