Data from Subt2_00026.txt Node
Date: Mon Aug 28 13:12:41 MSK 2023
User: vat
Spectrometer: MAYP114033
Trigger mode: 0
Integration Time (sec): 1,000000E0
Scans to average: 5
Electric dark correction enabled: true
Nonlinearity correction enabled: false
Boxcar width: 3
XAxis mode: Wavelengths
Number of Pixels in Spectrum: 2068
>>>>>Begin Spectral Data<<<<<
199,4	-0,317
199,9	2,233
200,4	1,367
200,8	2,633
201,3	3,062
201,8	5,376
202,2	6,948
202,7	10,148
203,2	11,09
203,6	11,462
204,1	15,319
204,6	17,976
205	19,348
205,5	23,548
206	21,748
206,4	21,405
206,9	22,576
207,4	19,633
207,8	18,262
208,3	18,862
208,8	17,548
209,2	24,49
209,7	21,805
210,2	20,462
210,6	18,976
211,1	19,49
211,5	18,748
212	19,776
212,5	16,148
212,9	20,033
213,4	22,062
213,9	25,176
214,3	25,319
214,8	23,49
215,3	17,49
215,7	17,633
216,2	15,405
216,7	18,176
217,1	13,748
217,6	10,148
218,1	7,005
218,5	9,662
219	10,433
219,5	12,062
219,9	6,748
220,4	9,89
220,9	12,548
221,3	16,719
221,8	20,119
222,3	20,148
222,7	19,49
223,2	23,748
223,6	25,205
224,1	26,319
224,6	25,548
225	24,548
225,5	21,319
226	23,862
226,4	21,833
226,9	19,49
227,4	22,348
227,8	24,033
228,3	19,033
228,8	21,633
229,2	25,29
229,7	27,462
230,2	27,348
230,6	25,348
231,1	26,833
231,5	34,262
232	33,233
232,5	28,205
232,9	24,148
233,4	24,69
233,9	27,233
234,3	22,662
234,8	18,776
235,3	14,29
235,7	12,69
236,2	14,49
236,7	12,062
237,1	14,748
237,6	17,376
238,1	18,49
238,5	24,919
239	25,462
239,4	26,062
239,9	31,519
240,4	20,633
240,8	22,805
241,3	28,405
241,8	27,976
242,2	31,719
242,7	34,519
243,2	30,89
243,6	40,948
244,1	35,605
244,6	31,119
245	28,633
245,5	27,09
245,9	24,233
246,4	26,205
246,9	20,376
247,3	22,09
247,8	18,719
248,3	21,49
248,7	21,69
249,2	21,062
249,7	22,09
250,1	22,833
250,6	22,548
251	22,748
251,5	24,748
252	20,919
252,4	23,833
252,9	24,09
253,4	25,605
253,8	27,29
254,3	26,262
254,8	24,748
255,2	28,062
255,7	27,805
256,1	26,49
256,6	26,662
257,1	26,462
257,5	27,633
258	20,49
258,5	16,462
258,9	14,462
259,4	14,89
259,9	13,662
260,3	14,805
260,8	14,433
261,2	17,948
261,7	23,348
262,2	27,033
262,6	23,662
263,1	29,033
263,6	25,433
264	29,148
264,5	28,119
264,9	23,748
265,4	19,605
265,9	21,69
266,3	17,748
266,8	21,548
267,3	20,033
267,7	22,948
268,2	22,005
268,7	24,833
269,1	28,576
269,6	31,348
270	29,748
270,5	26,148
271	26,348
271,4	29,633
271,9	31,462
272,4	29,719
272,8	28,976
273,3	28,405
273,7	28,605
274,2	29,233
274,7	25,976
275,1	24,119
275,6	23,776
276,1	20,319
276,5	23,233
277	25,662
277,4	23,89
277,9	25,69
278,4	20,976
278,8	20,976
279,3	18,433
279,8	12,09
280,2	8,719
280,7	5,033
281,1	4,862
281,6	5,148
282,1	3,948
282,5	3,976
283	8,262
283,4	13,719
283,9	17,205
284,4	19,119
284,8	20,576
285,3	23,433
285,8	25,433
286,2	21,576
286,7	16,776
287,1	16,033
287,6	16,148
288,1	19,776
288,5	15,576
289	18,119
289,5	20,776
289,9	28,776
290,4	31,548
290,8	29,919
291,3	31,348
291,8	34,833
292,2	34,005
292,7	33,719
293,1	27,376
293,6	24,176
294,1	26,69
294,5	22,976
295	22,519
295,5	21,405
295,9	19,576
296,4	19,662
296,8	19,69
297,3	18,262
297,8	15,148
298,2	15,119
298,7	12,862
299,1	16,69
299,6	15,976
300,1	18,148
300,5	17,662
301	21,719
301,5	17,09
301,9	21,262
302,4	15,119
302,8	14,348
303,3	12,776
303,8	12,862
304,2	6,89
304,7	9,948
305,1	9,062
305,6	16,233
306,1	19,148
306,5	24,119
307	25,605
307,4	29,29
307,9	26,148
308,4	27,776
308,8	27,633
309,3	30,748
309,8	26,805
310,2	26,519
310,7	29,49
311,1	32,119
311,6	27,548
312,1	24,833
312,5	18,976
313	17,519
313,4	20,805
313,9	18,176
314,4	18,376
314,8	17,405
315,3	19,033
315,7	21,862
316,2	25,005
316,7	15,776
317,1	15,033
317,6	12,948
318	16,062
318,5	14,862
319	16,262
319,4	14,748
319,9	16,976
320,3	17,09
320,8	21,262
321,3	21,748
321,7	22,49
322,2	21,29
322,6	19,319
323,1	20,348
323,6	22,405
324	21,576
324,5	20,062
324,9	20,49
325,4	18,719
325,9	22,89
326,3	25,319
326,8	23,033
327,2	20,776
327,7	20,548
328,2	18,862
328,6	19,862
329,1	15,748
329,5	12,119
330	16,833
330,5	18,319
330,9	17,805
331,4	19,919
331,8	23,148
332,3	22,89
332,8	24,49
333,2	23,405
333,7	21,976
334,1	27,833
334,6	27,033
335,1	26,976
335,5	24,348
336	25,033
336,4	28,776
336,9	25,09
337,4	22,719
337,8	23,348
338,3	18,29
338,7	20,748
339,2	25,976
339,7	20,719
340,1	20,748
340,6	15,548
341	13,319
341,5	16,148
342	18,805
342,4	18,633
342,9	18,805
343,3	20,976
343,8	22,033
344,2	24,862
344,7	23,89
345,2	22,462
345,6	17,605
346,1	17,548
346,5	21,348
347	25,09
347,5	25,919
347,9	26,062
348,4	26,662
348,8	24,776
349,3	31,605
349,8	34,49
350,2	35,033
350,7	33,062
351,1	38,49
351,6	42,262
352	48,976
352,5	52,862
353	57,005
353,4	66,348
353,9	73,462
354,3	83,262
354,8	92,862
355,3	106,205
355,7	112,462
356,2	122,633
356,6	138,748
357,1	161,976
357,5	183,919
358	214,233
358,5	246,919
358,9	289,176
359,4	342,89
359,8	398,376
360,3	456,376
360,8	521,862
361,2	592,262
361,7	672,776
362,1	754,376
362,6	844,09
363	936,548
363,5	1041,29
364	1151,09
364,4	1267,719
364,9	1379,833
365,3	1497,033
365,8	1605,462
366,3	1708,176
366,7	1802,662
367,2	1883,062
367,6	1945,119
368,1	1997,176
368,5	2035,348
369	2054,233
369,5	2052,548
369,9	2032,49
370,4	2003,033
370,8	1960,519
371,3	1900,69
371,7	1830,119
372,2	1752,833
372,7	1675,662
373,1	1594,348
373,6	1499,005
374	1400,948
374,5	1310,148
374,9	1220,233
375,4	1127,776
375,9	1034,262
376,3	952,348
376,8	882,633
377,2	819,776
377,7	755,376
378,2	694,662
378,6	646,433
379,1	602,805
379,5	554,29
380	506,09
380,4	464,176
380,9	427,576
381,4	395,862
381,8	362,519
382,3	333,633
382,7	309,119
383,2	287,805
383,6	270,976
384,1	253,262
384,6	236,519
385	224,262
385,5	211,033
385,9	201,662
386,4	192,862
386,8	179,405
387,3	169,89
387,7	157,605
388,2	145,833
388,7	137,29
389,1	126,262
389,6	120,862
390	117,262
390,5	111,405
390,9	106,348
391,4	98,862
391,9	96,09
392,3	95,319
392,8	90,662
393,2	86,548
393,7	77,662
394,1	78,262
394,6	77,976
395,1	78,119
395,5	72,433
396	67,233
396,4	63,662
396,9	65,433
397,3	62,319
397,8	59,633
398,2	55,862
398,7	55,433
399,2	57,376
399,6	55,776
400,1	58,633
400,5	62,176
401	67,405
401,4	67,89
401,9	72,462
402,4	71,548
402,8	73,005
403,3	77,576
403,7	76,09
404,2	75,205
404,6	76,633
405,1	76,976
405,5	78,948
406	80,29
406,5	79,519
406,9	79,576
407,4	85,233
407,8	88,748
408,3	90,748
408,7	96,89
409,2	104,548
409,6	110,462
410,1	117,176
410,6	123,662
411	130,833
411,5	141,462
411,9	154,005
412,4	163,69
412,8	169,89
413,3	182,176
413,7	192,376
414,2	200,005
414,7	212,748
415,1	220,262
415,6	228,776
416	245,49
416,5	263,319
416,9	277,548
417,4	305,719
417,8	317,69
418,3	333,69
418,8	353,605
419,2	372,09
419,7	393,433
420,1	414,433
420,6	426,319
421	455,633
421,5	487,69
421,9	515,405
422,4	546,176
422,8	571,776
423,3	600,348
423,8	633,005
424,2	663,776
424,7	692,09
425,1	726,519
425,6	759,605
426	796,005
426,5	838,319
426,9	888,948
427,4	936,348
427,9	985,89
428,3	1040,519
428,8	1093,348
429,2	1151,976
429,7	1206,233
430,1	1263,262
430,6	1325,29
431	1392,776
431,5	1459,548
431,9	1537,09
432,4	1616,662
432,8	1707,633
433,3	1795,976
433,8	1894,09
434,2	1987,205
434,7	2086,862
435,1	2196,719
435,6	2306,205
436	2418,348
436,5	2534,805
436,9	2656,148
437,4	2790,376
437,8	2929,833
438,3	3064,89
438,8	3215,376
439,2	3373,976
439,7	3534,376
440,1	3691,49
440,6	3859,062
441	4030,833
441,5	4210,033
441,9	4389,405
442,4	4573,233
442,8	4773,948
443,3	4985,748
443,7	5195,948
444,2	5414,948
444,7	5644,605
445,1	5877,433
445,6	6114,719
446	6355,862
446,5	6609,576
446,9	6857,062
447,4	7130,748
447,8	7391,776
448,3	7668,633
448,7	7944,376
449,2	8230,805
449,6	8512,519
450,1	8817,862
450,6	9109,376
451	9422,776
451,5	9735,548
451,9	10066,119
452,4	10401,462
452,8	10743,119
453,3	11086,376
453,7	11440,433
454,2	11789,919
454,6	12141,176
455,1	12504,69
455,5	12860,148
456	13214,09
456,4	13581,148
456,9	13957,548
457,3	14349,233
457,8	14742,119
458,3	15130,405
458,7	15526,205
459,2	15932,69
459,6	16340,376
460,1	16732,89
460,5	17129,062
461	17528,976
461,4	17921,662
461,9	18324,119
462,3	18726,605
462,8	19132,948
463,2	19544,605
463,7	19942,09
464,1	20343,519
464,6	20761,319
465	21174,833
465,5	21578,176
466	21979,262
466,4	22372,919
466,9	22782,862
467,3	23178,776
467,8	23573,519
468,2	23961,919
468,7	24350,976
469,1	24728,348
469,6	25104,719
470	25469,319
470,5	25842,748
470,9	26211,548
471,4	26558,233
471,8	26904,176
472,3	27264,119
472,7	27614,405
473,2	27974,033
473,6	28306,348
474,1	28615,262
474,5	28939,633
475	29262,805
475,4	29556,919
475,9	29847,69
476,4	30115,119
476,8	30399,119
477,3	30683,633
477,7	30955,89
478,2	31209,862
478,6	31460,433
479,1	31691,89
479,5	31912,833
480	32119,119
480,4	32310,348
480,9	32504,319
481,3	32686,833
481,8	32868,919
482,2	33046,405
482,7	33211,433
483,1	33356,29
483,6	33507,862
484	33626,862
484,5	33733,576
484,9	33822,062
485,4	33914,148
485,8	33982,462
486,3	34063,776
486,7	34112,69
487,2	34182,233
487,6	34236,176
488,1	34275,405
488,5	34296,233
489	34328,348
489,4	34330,405
489,9	34329,919
490,4	34306,176
490,8	34284,29
491,3	34256,748
491,7	34215,262
492,2	34165,805
492,6	34093,833
493,1	34026,062
493,5	33922,148
494	33839,205
494,4	33732,233
494,9	33632,976
495,3	33518,69
495,8	33413,462
496,2	33296,776
496,7	33183,862
497,1	33056,005
497,6	32939,033
498	32803,519
498,5	32672,176
498,9	32541,09
499,4	32390,805
499,8	32240,205
500,3	32093,805
500,7	31932,033
501,2	31757,262
501,6	31573,833
502,1	31389,005
502,5	31213,233
503	31040,233
503,4	30846,833
503,9	30647,919
504,3	30452,462
504,8	30243,919
505,2	30042,719
505,7	29816,376
506,1	29593,833
506,6	29353,862
507	29143,29
507,5	28930,405
507,9	28717,576
508,4	28491,319
508,8	28288,262
509,3	28057,833
509,7	27831,262
510,2	27582,319
510,6	27341,862
511,1	27120,233
511,5	26885,405
512	26630,29
512,4	26384,262
512,9	26148,119
513,3	25897,49
513,8	25658,319
514,2	25395,662
514,7	25135,748
515,1	24884,09
515,6	24655,69
516	24393,033
516,5	24148,89
516,9	23898,176
517,4	23654,919
517,8	23419,29
518,3	23196,805
518,7	22949,09
519,2	22721,405
519,6	22490,69
520,1	22253,919
520,5	22016,119
521	21767,776
521,4	21514,576
521,9	21269,09
522,3	21028,09
522,8	20793,662
523,2	20559,805
523,7	20324,376
524,1	20105,69
524,6	19866,89
525	19644,319
525,5	19424,376
525,9	19201,119
526,4	18985,176
526,8	18770,348
527,3	18547,033
527,7	18352,69
528,2	18141,233
528,6	17940,148
529,1	17728,233
529,5	17512,548
530	17311,405
530,4	17115,519
530,9	16907,205
531,3	16713,919
531,8	16518,062
532,2	16320,719
532,6	16137,862
533,1	15945,062
533,5	15758,033
534	15574,233
534,4	15389,09
534,9	15205,119
535,3	15032,49
535,8	14859,976
536,2	14689,148
536,7	14510,576
537,1	14333,919
537,6	14167,348
538	14016,262
538,5	13856,976
538,9	13685,433
539,4	13522,633
539,8	13366,976
540,3	13225,919
540,7	13068,319
541,2	12900,119
541,6	12753,319
542,1	12611,262
542,5	12470,376
543	12330,548
543,4	12183,719
543,9	12052,062
544,3	11918,205
544,8	11789,776
545,2	11657,176
545,7	11533,862
546,1	11400,433
546,5	11277,719
547	11154,119
547,4	11019,519
547,9	10895,862
548,3	10777,005
548,8	10645,919
549,2	10535,09
549,7	10420,09
550,1	10302,148
550,6	10200,948
551	10087,719
551,5	9980,633
551,9	9884,062
552,4	9785,519
552,8	9689,49
553,3	9591,005
553,7	9499,89
554,2	9400,49
554,6	9299,948
555,1	9198,519
555,5	9101,319
555,9	8998,776
556,4	8909,89
556,8	8812,719
557,3	8719,69
557,7	8631,805
558,2	8551,319
558,6	8466,576
559,1	8386,205
559,5	8297,719
560	8220,49
560,4	8140,776
560,9	8066,233
561,3	7979,519
561,8	7899,033
562,2	7813,976
562,7	7732,29
563,1	7653,033
563,6	7575,519
564	7497,262
564,4	7431,748
564,9	7355,462
565,3	7286,89
565,8	7226,605
566,2	7157,548
566,7	7094,376
567,1	7029,89
567,6	6952,262
568	6897,176
568,5	6836,319
568,9	6770,519
569,4	6705,148
569,8	6637,776
570,3	6570,719
570,7	6516,548
571,1	6452,462
571,6	6392,148
572	6337,633
572,5	6279,433
572,9	6225,662
573,4	6172,662
573,8	6125,09
574,3	6064,062
574,7	6013,176
575,2	5959,405
575,6	5908,605
576,1	5859,005
576,5	5801,548
576,9	5738,262
577,4	5698,205
577,8	5643,319
578,3	5589,662
578,7	5537,748
579,2	5486,862
579,6	5440,862
580,1	5399,119
580,5	5349,519
581	5305,662
581,4	5251,148
581,9	5203,348
582,3	5159,919
582,7	5117,405
583,2	5067,919
583,6	5026,09
584,1	4981,462
584,5	4946,005
585	4905,119
585,4	4863,948
585,9	4824,776
586,3	4787,776
586,8	4739,662
587,2	4698,519
587,6	4656,633
588,1	4619,433
588,5	4574,433
589	4532,548
589,4	4491,748
589,9	4455,976
590,3	4416,748
590,8	4382,748
591,2	4345,233
591,7	4308,29
592,1	4273,062
592,5	4239,633
593	4210,062
593,4	4178,662
593,9	4146,89
594,3	4118,748
594,8	4095,033
595,2	4074,262
595,7	4041,633
596,1	4012,776
596,6	3982,633
597	3954,805
597,4	3922,49
597,9	3894,976
598,3	3857,319
598,8	3831,062
599,2	3800,719
599,7	3781,49
600,1	3750,633
600,6	3723,89
601	3700,89
601,4	3677,148
601,9	3656,948
602,3	3630,919
602,8	3602,262
603,2	3577,662
603,7	3554,719
604,1	3525,176
604,6	3499,148
605	3474,576
605,4	3445,262
605,9	3414,462
606,3	3391,748
606,8	3366,205
607,2	3338,805
607,7	3320,576
608,1	3293,919
608,6	3273,605
609	3255,29
609,4	3236,119
609,9	3211,748
610,3	3193,348
610,8	3166,033
611,2	3144,576
611,7	3115,862
612,1	3089,633
612,6	3062,662
613	3041,519
613,4	3015,89
613,9	2997,262
614,3	2976,033
614,8	2956,09
615,2	2940,605
615,7	2920,462
616,1	2901,805
616,6	2885,29
617	2858,09
617,4	2834,29
617,9	2816,89
618,3	2790,176
618,8	2766,748
619,2	2748,576
619,7	2721,89
620,1	2713,462
620,5	2690,948
621	2678,833
621,4	2665,148
621,9	2647,29
622,3	2628,376
622,8	2613,405
623,2	2589,576
623,6	2572,033
624,1	2548,205
624,5	2526,748
625	2508,948
625,4	2488,462
625,9	2470,462
626,3	2455,262
626,8	2435,605
627,2	2421,233
627,6	2404,205
628,1	2386,576
628,5	2368,948
629	2351,976
629,4	2331,005
629,9	2315,748
630,3	2293,433
630,7	2280,376
631,2	2267,719
631,6	2246,833
632,1	2227,376
632,5	2213,462
633	2200,576
633,4	2187,233
633,8	2168,862
634,3	2150,805
634,7	2132,748
635,2	2118,976
635,6	2099,776
636,1	2084,633
636,5	2070,776
636,9	2052,662
637,4	2035,119
637,8	2026,862
638,3	2016,005
638,7	2001,805
639,2	1985,376
639,6	1965,919
640	1956,29
640,5	1943,976
640,9	1929,719
641,4	1918,119
641,8	1906,519
642,2	1896,519
642,7	1884,919
643,1	1870,719
643,6	1854,862
644	1848,633
644,5	1836,862
644,9	1824,633
645,3	1812,176
645,8	1798,119
646,2	1783,09
646,7	1771,233
647,1	1751,662
647,6	1734,69
648	1722,662
648,4	1711,205
648,9	1700,176
649,3	1686,89
649,8	1678,862
650,2	1669,662
650,6	1659,033
651,1	1648,148
651,5	1635,09
652	1627,176
652,4	1620,576
652,9	1605,776
653,3	1593,233
653,7	1585,09
654,2	1570,09
654,6	1562,662
655,1	1550,09
655,5	1537,719
655,9	1527,405
656,4	1516,405
656,8	1501,319
657,3	1496,605
657,7	1481,062
658,2	1474,69
658,6	1468,576
659	1458,805
659,5	1453,919
659,9	1447,776
660,4	1436,176
660,8	1426,605
661,2	1412,49
661,7	1398,033
662,1	1394,69
662,6	1385,89
663	1373,062
663,4	1361,319
663,9	1353,719
664,3	1346,29
664,8	1332,919
665,2	1321,09
665,6	1308,805
666,1	1299,262
666,5	1291,805
667	1283,919
667,4	1274,862
667,9	1269,976
668,3	1261,89
668,7	1248,89
669,2	1237,205
669,6	1227,548
670,1	1220,29
670,5	1213,005
670,9	1207,719
671,4	1189,29
671,8	1181,176
672,3	1176,662
672,7	1168,862
673,1	1159,462
673,6	1150,69
674	1138,29
674,5	1138,519
674,9	1131,033
675,3	1119,748
675,8	1109,262
676,2	1099,548
676,7	1093,376
677,1	1089,005
677,5	1079,062
678	1074,176
678,4	1067,033
678,9	1061,348
679,3	1050,948
679,7	1040,862
680,2	1031,662
680,6	1023,805
681,1	1013,748
681,5	1009,89
681,9	998,348
682,4	997,148
682,8	984,748
683,3	982,519
683,7	980,433
684,1	971,69
684,6	965,319
685	960,033
685,5	942,29
685,9	936,776
686,3	924,805
686,8	918,719
687,2	916,662
687,7	908,319
688,1	907,748
688,5	908,519
689	910,062
689,4	899,719
689,9	891,119
690,3	878,748
690,7	875,29
691,2	866,662
691,6	859,748
692	853,09
692,5	847,748
692,9	839,09
693,4	837,948
693,8	829,548
694,2	818,862
694,7	814,605
695,1	805,176
695,6	803,233
696	798,805
696,4	797,233
696,9	793,862
697,3	796,576
697,8	790,29
698,2	785,662
698,6	780,005
699,1	778,633
699,5	767,176
699,9	761,062
700,4	749,919
700,8	739,89
701,3	734,748
701,7	726,89
702,1	716,262
702,6	709,119
703	703,29
703,5	701,69
703,9	704,948
704,3	698,89
704,8	697,748
705,2	697,319
705,6	698,376
706,1	690,319
706,5	687,519
707	682,519
707,4	683,433
707,8	679,348
708,3	673,719
708,7	667,89
709,2	665,633
709,6	657,233
710	646,09
710,5	637,748
710,9	634,348
711,3	629,633
711,8	621,119
712,2	618,233
712,7	612,633
713,1	613,119
713,5	611,319
714	602,519
714,4	591,09
714,8	596,119
715,3	591,548
715,7	586,519
716,2	582,348
716,6	572,176
717	571,605
717,5	573,633
717,9	564,776
718,3	558,148
718,8	556,148
719,2	553,405
719,7	553,719
720,1	546,833
720,5	544,948
721	539,062
721,4	538,148
721,8	531,976
722,3	526,862
722,7	519,576
723,2	517,176
723,6	512,205
724	508,09
724,5	506,69
724,9	503,319
725,3	497,49
725,8	491,576
726,2	484,176
726,7	473,976
727,1	472,262
727,5	462,948
728	454,233
728,4	455,176
728,8	453,005
729,3	451,119
729,7	453,748
730,1	445,633
730,6	447,119
731	450,062
731,5	447,148
731,9	448,719
732,3	449,748
732,8	446,89
733,2	450,633
733,6	447,319
734,1	443,605
734,5	438,805
734,9	430,776
735,4	423,805
735,8	418,976
736,3	411,119
736,7	407,205
737,1	407,948
737,6	405,348
738	405,89
738,4	408,033
738,9	404,919
739,3	408,033
739,7	408,09
740,2	406,69
740,6	402,719
741,1	400,376
741,5	398,662
741,9	399,69
742,4	402,748
742,8	396,776
743,2	392,948
743,7	392,233
744,1	392,548
744,5	387,576
745	385,519
745,4	374,148
745,8	378,319
746,3	375,748
746,7	373,033
747,2	363,69
747,6	363,005
748	363,233
748,5	363,862
748,9	356,29
749,3	359,119
749,8	355,633
750,2	355,776
750,6	352,719
751,1	343,748
751,5	342,09
751,9	339,662
752,4	337,748
752,8	338,233
753,3	334,919
753,7	329,348
754,1	327,548
754,6	321,348
755	319,976
755,4	316,376
755,9	313,862
756,3	316,776
756,7	320,348
757,2	320,09
757,6	319,405
758	315,433
758,5	309,776
758,9	306,005
759,3	300,519
759,8	294,605
760,2	293,69
760,6	296,033
761,1	298,462
761,5	291,805
761,9	290,548
762,4	294,233
762,8	295,262
763,3	292,69
763,7	288,119
764,1	281,862
764,6	280,89
765	277,862
765,4	274,662
765,9	273,462
766,3	272,376
766,7	271,376
767,2	270,348
767,6	279,376
768	278,319
768,5	273,89
768,9	265,319
769,3	266,548
769,8	260,176
770,2	260,119
770,6	251,719
771,1	250,576
771,5	248,405
771,9	252,09
772,4	247,319
772,8	249,89
773,2	248,862
773,7	246,633
774,1	247,433
774,5	244,633
775	241,433
775,4	240,862
775,8	240,69
776,3	241,09
776,7	241,548
777,1	238,69
777,6	235,576
778	235,033
778,4	234,262
778,9	231,176
779,3	227,405
779,7	225,462
780,2	225,09
780,6	230,519
781	229,348
781,5	225,69
781,9	225,462
782,3	223,548
782,8	222,033
783,2	217,576
783,6	213,348
784,1	213,005
784,5	215,262
784,9	215,233
785,4	216,262
785,8	214,719
786,2	215,262
786,7	214,148
787,1	217,09
787,5	213,09
788	208,69
788,4	207,119
788,8	203,033
789,3	203,205
789,7	201,862
790,1	196,405
790,6	194,033
791	194,776
791,4	193,119
791,9	192,862
792,3	189,062
792,7	189,919
793,2	192,948
793,6	194,69
794	192,205
794,5	191,519
794,9	192,262
795,3	194,376
795,8	192,69
796,2	182,348
796,6	182,862
797,1	183,662
797,5	181,29
797,9	181,319
798,4	182,89
798,8	181,49
799,2	184,005
799,7	182,605
800,1	180,69
800,5	182,748
801	181,348
801,4	176,29
801,8	171,148
802,2	170,262
802,7	162,462
803,1	161,919
803,5	154,405
804	149,462
804,4	146,205
804,8	150,605
805,3	153,205
805,7	153,49
806,1	150,062
806,6	154,49
807	154,376
807,4	153,462
807,9	146,776
808,3	142,833
808,7	145,348
809,2	142,776
809,6	140,033
810	143,09
810,4	144,233
810,9	146,576
811,3	143,576
811,7	139,548
812,2	140,319
812,6	140,919
813	139,719
813,5	138,376
813,9	136,262
814,3	136,233
814,8	137,005
815,2	135,976
815,6	133,519
816,1	130,976
816,5	130,376
816,9	133,633
817,3	133,205
817,8	138,719
818,2	134,662
818,6	140,948
819,1	136,49
819,5	133,805
819,9	128,69
820,4	134,119
820,8	128,633
821,2	128,176
821,7	117,205
822,1	119,633
822,5	124,062
822,9	129,976
823,4	123,49
823,8	122,348
824,2	127,49
824,7	127,176
825,1	123,462
825,5	116,805
826	104,576
826,4	103,548
826,8	96,776
827,3	93,776
827,7	94,948
828,1	96,348
828,5	99,948
829	106,548
829,4	102,862
829,8	107,205
830,3	105,348
830,7	104,29
831,1	106,433
831,6	102,005
832	103,09
832,4	106,89
832,8	103,319
833,3	102,605
833,7	98,719
834,1	95,462
834,6	96,319
835	95,748
835,4	90,576
835,8	95,062
836,3	94,948
836,7	95,948
837,1	92,976
837,6	89,862
838	83,062
838,4	78,719
838,9	77,69
839,3	77,005
839,7	76,49
840,1	83,748
840,6	83,005
841	80,89
841,4	86,833
841,9	86,662
842,3	82,09
842,7	80,833
843,1	74,776
843,6	76,09
844	77,405
844,4	79,033
844,9	79,119
845,3	81,033
845,7	81,89
846,2	81,89
846,6	83,69
847	88,29
847,4	84,719
847,9	80,862
848,3	79,148
848,7	77,405
849,2	72,462
849,6	70,176
850	69,062
850,4	72,262
850,9	72,29
851,3	77,719
851,7	77,662
852,2	80,062
852,6	79,662
853	77,69
853,4	73,776
853,9	75,89
854,3	75,233
854,7	75,176
855,2	75,919
855,6	72,833
856	76,49
856,4	75,605
856,9	69,776
857,3	64,948
857,7	69,405
858,2	68,062
858,6	70,976
859	67,319
859,4	69,205
859,9	71,233
860,3	70,405
860,7	65,862
861,1	68,576
861,6	65,519
862	63,119
862,4	60,005
862,9	64,976
863,3	64,09
863,7	63,176
864,1	61,69
864,6	61,976
865	61,205
865,4	64,862
865,9	60,576
866,3	62,605
866,7	62,176
867,1	59,776
867,6	62,262
868	59,719
868,4	56,49
868,8	54,033
869,3	54,519
869,7	58,062
870,1	56,948
870,6	53,29
871	61,433
871,4	63,776
871,8	65,605
872,3	65,89
872,7	60,405
873,1	59,033
873,5	60,062
874	59,005
874,4	57,119
874,8	56,233
875,3	53,49
875,7	55,748
876,1	60,576
876,5	62,433
877	59,262
877,4	58,548
877,8	56,605
878,2	60,633
878,7	59,862
879,1	58,376
879,5	55,576
879,9	49,576
880,4	46,89
880,8	50,519
881,2	48,433
881,7	49,405
882,1	48,033
882,5	49,49
882,9	55,748
883,4	55,519
883,8	53,09
884,2	47,833
884,6	45,548
885,1	43,919
885,5	41,09
885,9	41,033
886,3	43,176
886,8	46,862
887,2	49,09
887,6	47,833
888	48,348
888,5	46,633
888,9	36,748
889,3	31,69
889,8	25,948
890,2	24,433
890,6	27,148
891	28,576
891,5	30,148
891,9	32,862
892,3	40,062
892,7	38,776
893,2	40,148
893,6	37,148
894	36,633
894,4	35,262
894,9	36,033
895,3	33,862
895,7	34,49
896,1	35,348
896,6	33,605
897	36,748
897,4	37,805
897,8	42,033
898,3	41,548
898,7	41,776
899,1	40,976
899,5	44,29
900	38,605
900,4	36,548
900,8	27,148
901,2	28,033
901,7	30,576
902,1	28,719
902,5	24,948
902,9	22,976
903,4	26,69
903,8	29,605
904,2	29,89
904,6	28,119
905,1	31,605
905,5	30,119
905,9	30,148
906,3	28,976
906,8	33,119
907,2	28,49
907,6	23,548
908	23,205
908,5	23,062
908,9	30,176
909,3	28,519
909,7	28,519
910,2	25,576
910,6	30,605
911	30,576
911,4	34,062
911,9	31,148
912,3	35,776
912,7	36,776
913,1	38,748
913,6	38,49
914	40,805
914,4	43,462
914,8	42,176
915,3	36,005
915,7	38,062
916,1	40,262
916,5	36,776
916,9	31,576
917,4	27,319
917,8	19,519
918,2	24,09
918,6	17,09
919,1	17,119
919,5	23,376
919,9	26,89
920,3	29,605
920,8	39,433
921,2	35,148
921,6	38,519
922	36,348
922,5	32,176
922,9	31,319
923,3	30,033
923,7	28,148
924,2	29,89
924,6	30,719
925	33,605
925,4	36,548
925,8	34,633
926,3	32,948
926,7	33,462
927,1	32,776
927,5	31,548
928	27,633
928,4	19,148
928,8	17,805
929,2	20,233
929,7	23,49
930,1	24,748
930,5	22,805
930,9	27,119
931,3	35,49
931,8	37,176
932,2	33,662
932,6	27,09
933	21,062
933,5	21,205
933,9	19,462
934,3	16,69
934,7	18,433
935,2	17,862
935,6	18,69
936	20,062
936,4	18,748
936,8	23,176
937,3	25,833
937,7	20,748
938,1	22,233
938,5	22,319
939	29,119
939,4	34,948
939,8	28,233
940,2	22,033
940,6	22,576
941,1	23,862
941,5	24,176
941,9	20,576
942,3	14,062
942,8	19,948
943,2	17,176
943,6	20,262
944	20,348
944,4	19,548
944,9	17,033
945,3	19,548
945,7	16,348
946,1	19,348
946,6	15,433
947	14,062
947,4	9,776
947,8	10,862
948,2	14,405
948,7	13,205
949,1	15,805
949,5	17,862
949,9	20,633
950,3	19,49
950,8	22,633
951,2	18,462
951,6	18,976
952	20,662
952,5	18,719
952,9	17,176
953,3	21,319
953,7	17,033
954,1	21,576
954,6	24,69
955	24,548
955,4	24,319
955,8	24,805
956,2	20,719
956,7	21,948
957,1	20,148
957,5	17,433
957,9	16,49
958,3	20,719
958,8	23,09
959,2	29,919
959,6	36,576
960	34,748
960,5	30,805
960,9	33,148
961,3	28,719
961,7	28,662
962,1	25,062
962,6	21,69
963	23,033
963,4	31,148
963,8	24,89
964,2	27,29
964,7	24,062
965,1	26,919
965,5	26,776
965,9	24,519
966,3	21,405
966,8	18,919
967,2	16,719
967,6	12,433
968	7,262
968,4	9,405
968,9	8,633
969,3	6,405
969,7	10,576
970,1	10,833
970,5	12,433
971	22,233
971,4	17,433
971,8	20,405
972,2	20,062
972,6	18,576
973,1	19,548
973,5	23,833
973,9	13,062
974,3	16,662
974,7	14,433
975,2	18,376
975,6	20,062
976	21,49
976,4	18,605
976,8	20,319
977,3	11,062
977,7	16,119
978,1	13,519
978,5	16,862
978,9	17,49
979,4	17,433
979,8	19,948
980,2	29,119
980,6	27,119
981	24,319
981,5	20,262
981,9	18,948
982,3	19,633
982,7	20,462
983,1	17,433
983,6	11,29
984	12,633
984,4	12,062
984,8	11,348
985,2	12,29
985,6	12,49
986,1	7,519
986,5	14,976
986,9	14,433
987,3	15,576
987,7	15,719
988,2	12,776
988,6	10,462
989	18,348
989,4	13,119
989,8	14,29
990,3	12,119
990,7	13,976
991,1	15,89
991,5	18,576
991,9	9,005
992,3	5,348
992,8	2,633
993,2	4,805
993,6	4,433
994	7,205
994,4	8,29
994,9	16,205
995,3	24,005
995,7	22,633
996,1	20,605
996,5	15,605
996,9	19,233
997,4	12,348
997,8	11,033
998,2	9,662
998,6	12,005
999	12,405
999,5	17,776
999,9	10,833
1000,3	14,719
1000,7	14,833
1001,1	12,748
1001,5	15,376
1002	16,176
1002,4	11,176
1002,8	15,233
1003,2	13,29
1003,6	13,005
1004	18,005
1004,5	15,633
1004,9	13,919
1005,3	18,348
1005,7	17,09
1006,1	14,205
1006,6	13,833
1007	6,462
1007,4	8,348
1007,8	12,005
1008,2	13,233
1008,6	13,605
1009,1	20,376
1009,5	25,576
1009,9	26,319
1010,3	26,662
1010,7	28,005
1011,1	24,976
1011,6	17,176
1012	18,49
1012,4	11,69
1012,8	12,89
1013,2	8,69
1013,6	5,119
1014,1	4,976
1014,5	9,748
1014,9	6,805
1015,3	6,748
1015,7	9,09
1016,1	10,719
1016,6	15,005
1017	15,576
1017,4	14,005
1017,8	14,176
1018,2	16,605
1018,6	13,919
1019,1	15,262
1019,5	13,148
1019,9	14,862
1020,3	16,033
1020,7	19,176
1021,1	13,233
1021,6	15,262
1022	15,033
1022,4	14,776
1022,8	9,919
1023,2	11,719
1023,6	9,919
1024,1	17,062
1024,5	16,176
1024,9	18,548
1025,3	19,176
1025,7	21,262
1026,1	18,233
1026,6	22,462
1027	22,605
1027,4	21,29
1027,8	17,948
1028,2	17,89
1028,6	17,262
1029	16,519
1029,5	12,348
1029,9	11,062
1030,3	9,919
1030,7	14,719
1031,1	16,376
1031,5	19,205
1032	22,119
1032,4	24,033
1032,8	23,148
1033,2	23,633
1033,6	17,862
1034	11,948
1034,4	11,148
1034,9	12,948
1035,3	13,148
1035,7	9,376
1036,1	14,148
1036,5	16,176
1036,9	19,719
1037,4	20,29
1037,8	17,062
1038,2	17,833
1038,6	21,09
1039	19,376
1039,4	24,576
1039,8	31,519
1040,3	31,748
1040,7	32,976
1041,1	24,519
1041,5	28,062
1041,9	34,405
1042,3	25,662
1042,7	16,062
1043,2	17,662
1043,6	21,605
1044	25,919
1044,4	28,405
1044,8	20,49
1045,2	25,376
1045,6	36,576
1046,1	35,405
1046,5	31,262
1046,9	30,919
1047,3	28,548
1047,7	30,062
1048,1	24,662
1048,5	16,262
1049	13,748
1049,4	12,633
1049,8	14,176
1050,2	10,348
1050,6	9,576
1051	18,119
1051,4	14,405
1051,9	17,719
1052,3	19,233
1052,7	21,033
1053,1	18,433
1053,5	18,748
1053,9	16,033
1054,3	18,519
1054,8	14,005
1055,2	13,748
1055,6	15,49
1056	21,948
1056,4	19,433
1056,8	20,176
1057,2	18,433
1057,6	23,005
1058,1	29,033
1058,5	23,062
1058,9	21,633
1059,3	22,49
1059,7	21,519
1060,1	23,89
1060,5	21,319
1061	12,376
1061,4	14,205
1061,8	16,348
1062,2	23,519
1062,6	21,976
1063	22,348
1063,4	23,348
1063,8	27,719
1064,3	33,233
1064,7	29,833
1065,1	23,062
1065,5	24,776
1065,9	24,49
1066,3	21,833
1066,7	24,205
1067,1	16,948
1067,6	17,09
1068	21,376
1068,4	21,119
1068,8	22,49
1069,2	24,89
1069,6	19,548
1070	22,776
1070,4	22,205
1070,9	19,376
1071,3	18,862
1071,7	16,49
1072,1	10,776
1072,5	18,262
1072,9	18,748
1073,3	19,633
1073,7	16,09
1074,2	18,633
1074,6	23,005
1075	33,49
1075,4	32,433
1075,8	29,033
1076,2	30,205
1076,6	34,919
1077	34,233
1077,5	31,49
1077,9	23,09
1078,3	17,919
1078,7	20,119
1079,1	18,262
1079,5	17,348
1079,9	19,462
1080,3	21,662
1080,7	24,69
1081,2	25,319
1081,6	22,49
1082	28,262
1082,4	27,319
1082,8	27,49
1083,2	22,576
1083,6	17,348
1084	15,319
1084,5	17,29
1084,9	8,519
1085,3	8,119
1085,7	3,948
1086,1	8,233
1086,5	11,033
1086,9	12,176
1087,3	14,29
1087,7	19,462
1088,2	22,719
1088,6	21,862
1089	19,519
1089,4	24,033
1089,8	27,005
1090,2	23,005
1090,6	20,29
1091	19,005
1091,4	18,348
1091,9	17,605
1092,3	17,548
1092,7	12,576
1093,1	12,262
1093,5	11,833
1093,9	9,205
1094,3	12,919
1094,7	16,89
1095,1	17,605
1095,5	23,319
1096	26,948
1096,4	28,49
1096,8	31,176
1097,2	31,205
1097,6	29,833
1098	24,148
1098,4	23,919
1098,8	25,662
1099,2	25,976
1099,6	26,948
1100,1	26,89
1100,5	24,062
1100,9	24,662
1101,3	21,176
1101,7	17,633
1102,1	17,548
1102,5	12,49
1102,9	9,69
1103,3	10,462
1103,7	11,748
1104,2	12,205
1104,6	11,119
1105	7,319
1105,4	9,69
1105,8	7,919
1106,2	6,033
1106,6	4,748
1107	2,576
1107,4	1,767
1107,8	2,953
1108,3	0,783
