Data from Subt2_00050.txt Node
Date: Mon Aug 28 13:19:51 MSK 2023
User: vat
Spectrometer: MAYP114033
Trigger mode: 0
Integration Time (sec): 1,000000E0
Scans to average: 5
Electric dark correction enabled: true
Nonlinearity correction enabled: false
Boxcar width: 3
XAxis mode: Wavelengths
Number of Pixels in Spectrum: 2068
>>>>>Begin Spectral Data<<<<<
199,4	-0,533
199,9	2,407
200,4	3,833
200,8	6,424
201,3	7,567
201,8	11,452
202,2	13,995
202,7	19,052
203,2	16,024
203,6	15,91
204,1	17,11
204,6	20,367
205	20,395
205,5	21,395
206	18,052
206,4	21,31
206,9	24,395
207,4	22,595
207,8	20,595
208,3	18,538
208,8	20,481
209,2	23,824
209,7	26,338
210,2	20,538
210,6	23,252
211,1	24,395
211,5	27,795
212	24,31
212,5	25,395
212,9	24,138
213,4	31,51
213,9	33,367
214,3	31,538
214,8	28,252
215,3	30,51
215,7	29,395
216,2	30,252
216,7	29,481
217,1	29,338
217,6	27,338
218,1	26,71
218,5	24,595
219	22,824
219,5	21,11
219,9	21,481
220,4	17,51
220,9	21,281
221,3	23,224
221,8	25,652
222,3	28,367
222,7	29,338
223,2	30,052
223,6	32,938
224,1	33,252
224,6	31,281
225	31,995
225,5	32,11
226	33,11
226,4	32,91
226,9	30,11
227,4	32,252
227,8	35,938
228,3	32,224
228,8	32,081
229,2	34,395
229,7	30,681
230,2	26,567
230,6	22,624
231,1	21,138
231,5	23,395
232	21,138
232,5	16,967
232,9	16,167
233,4	20,395
233,9	25,024
234,3	27,824
234,8	29,138
235,3	27,538
235,7	26,995
236,2	24,881
236,7	21,738
237,1	26,167
237,6	26,367
238,1	20,767
238,5	24,252
239	24,852
239,4	30,967
239,9	36,138
240,4	27,538
240,8	25,481
241,3	34,452
241,8	32,71
242,2	29,567
242,7	30,881
243,2	29,395
243,6	35,252
244,1	33,195
244,6	31,91
245	35,91
245,5	40,338
245,9	34,652
246,4	35,138
246,9	31,367
247,3	26,852
247,8	20,795
248,3	18,224
248,7	20,938
249,2	21,138
249,7	21,681
250,1	21,681
250,6	27,452
251	28,424
251,5	30,11
252	25,71
252,4	28,138
252,9	29,395
253,4	31,224
253,8	30,624
254,3	31,224
254,8	31,824
255,2	31,11
255,7	35,052
256,1	34,71
256,6	37,367
257,1	37,795
257,5	37,31
258	32,452
258,5	29,452
258,9	24,852
259,4	23,481
259,9	17,567
260,3	19,338
260,8	18,252
261,2	19,767
261,7	23,11
262,2	22,852
262,6	20,824
263,1	23,738
263,6	20,938
264	26,452
264,5	26,795
264,9	32,195
265,4	33,824
265,9	36,824
266,3	36,91
266,8	38,167
267,3	35,738
267,7	33,91
268,2	30,281
268,7	29,624
269,1	28,881
269,6	33,11
270	33,881
270,5	31,452
271	35,395
271,4	36,452
271,9	39,31
272,4	36,91
272,8	34,538
273,3	35,51
273,7	34,481
274,2	35,91
274,7	34,652
275,1	33,452
275,6	37,595
276,1	34,367
276,5	32,081
277	37,767
277,4	35,252
277,9	39,252
278,4	36,395
278,8	32,195
279,3	26,11
279,8	24,138
280,2	18,767
280,7	14,167
281,1	7,338
281,6	7,681
282,1	12,167
282,5	18,681
283	17,024
283,4	20,595
283,9	24,881
284,4	30,081
284,8	30,51
285,3	27,795
285,8	28,624
286,2	31,052
286,7	32,138
287,1	30,481
287,6	28,624
288,1	32,767
288,5	31,424
289	32,281
289,5	31,31
289,9	34,31
290,4	36,595
290,8	35,995
291,3	33,624
291,8	37,881
292,2	31,338
292,7	36,281
293,1	30,938
293,6	25,281
294,1	29,91
294,5	29,852
295	23,567
295,5	24,167
295,9	19,424
296,4	20,852
296,8	26,338
297,3	19,395
297,8	15,081
298,2	18,224
298,7	25,024
299,1	29,567
299,6	28,367
300,1	26,652
300,5	27,795
301	33,424
301,5	28,281
301,9	21,595
302,4	17,081
302,8	13,967
303,3	15,281
303,8	17,995
304,2	11,995
304,7	17,624
305,1	21,281
305,6	23,881
306,1	24,938
306,5	25,252
307	21,167
307,4	25,681
307,9	24,91
308,4	28,31
308,8	27,338
309,3	33,652
309,8	33,967
310,2	37,738
310,7	40,052
311,1	39,51
311,6	34,138
312,1	34,652
312,5	29,167
313	26,452
313,4	30,252
313,9	23,452
314,4	27,11
314,8	26,452
315,3	30,31
315,7	30,481
316,2	31,91
316,7	24,052
317,1	26,024
317,6	22,824
318	25,967
318,5	21,424
319	24,224
319,4	24,652
319,9	24,052
320,3	27,167
320,8	28,51
321,3	26,852
321,7	30,138
322,2	29,795
322,6	25,167
323,1	29,452
323,6	27,538
324	23,51
324,5	23,538
324,9	21,624
325,4	22,481
325,9	27,681
326,3	27,681
326,8	27,138
327,2	32,252
327,7	32,595
328,2	33,052
328,6	32,681
329,1	28,195
329,5	26,995
330	25,91
330,5	25,167
330,9	24,852
331,4	27,538
331,8	29,681
332,3	33,652
332,8	35,195
333,2	35,652
333,7	33,481
334,1	37,852
334,6	37,052
335,1	34,538
335,5	34,338
336	32,167
336,4	36,967
336,9	42,195
337,4	40,31
337,8	37,138
338,3	35,138
338,7	35,567
339,2	37,538
339,7	36,681
340,1	29,452
340,6	23,91
341	22,91
341,5	27,195
342	28,424
342,4	29,795
342,9	25,71
343,3	25,795
343,8	29,881
344,2	34,367
344,7	35,31
345,2	33,881
345,6	34,767
346,1	36,452
346,5	37,795
347	39,024
347,5	38,11
347,9	31,967
348,4	29,31
348,8	24,252
349,3	28,081
349,8	30,452
350,2	31,252
350,7	31,852
351,1	40,481
351,6	50,452
352	59,51
352,5	64,195
353	72,167
353,4	78,424
353,9	87,995
354,3	96,252
354,8	104,595
355,3	120,195
355,7	126,852
356,2	142,281
356,6	163,052
357,1	187,852
357,5	213,338
358	241,795
358,5	273,338
358,9	317,281
359,4	362,081
359,8	412,824
360,3	468,31
360,8	529,338
361,2	604,967
361,7	681,652
362,1	769,338
362,6	866,995
363	969,167
363,5	1078,795
364	1201,71
364,4	1320,052
364,9	1439,395
365,3	1557,51
365,8	1666,452
366,3	1770,967
366,7	1865,567
367,2	1945,167
367,6	2005,995
368,1	2064,995
368,5	2098,595
369	2117,252
369,5	2118,824
369,9	2101,024
370,4	2063,624
370,8	2021,681
371,3	1956,538
371,7	1888,424
372,2	1811,052
372,7	1728,367
373,1	1641,224
373,6	1546,452
374	1448,31
374,5	1349,738
374,9	1256,052
375,4	1164,052
375,9	1074,367
376,3	987,767
376,8	915,567
377,2	846,11
377,7	783,567
378,2	724,31
378,6	669,11
379,1	613,024
379,5	562,652
380	515,681
380,4	475,11
380,9	436,624
381,4	401,024
381,8	373,224
382,3	351,852
382,7	329,481
383,2	306,938
383,6	286,167
384,1	269,395
384,6	254,052
385	238,967
385,5	216,624
385,9	206,995
386,4	196,767
386,8	187,738
387,3	176,11
387,7	165,938
388,2	152,052
388,7	143,767
389,1	127,081
389,6	120,967
390	113,938
390,5	106,824
390,9	101,71
391,4	94,081
391,9	95,481
392,3	101,452
392,8	98,91
393,2	95,681
393,7	92,852
394,1	85,395
394,6	87,195
395,1	85,024
395,5	80,938
396	73,795
396,4	70,167
396,9	71,681
397,3	75,71
397,8	67,824
398,2	67,138
398,7	65,567
399,2	67,367
399,6	66,795
400,1	64,138
400,5	64,852
401	75,681
401,4	72,767
401,9	71,824
402,4	74,624
402,8	79,224
403,3	82,824
403,7	81,91
404,2	79,538
404,6	83,852
405,1	87,452
405,5	85,967
406	83,51
406,5	79,224
406,9	82,624
407,4	84,367
407,8	86,538
408,3	88,71
408,7	91,595
409,2	96,481
409,6	105,31
410,1	108,767
410,6	114,167
411	116,224
411,5	125,481
411,9	133,967
412,4	144,024
412,8	151,51
413,3	164,367
413,7	177,681
414,2	189,538
414,7	197,052
415,1	210,338
415,6	213,395
416	229,024
416,5	237,224
416,9	252,395
417,4	271,395
417,8	284,081
418,3	297,881
418,8	322,338
419,2	336,995
419,7	357,824
420,1	372,71
420,6	385,252
421	412,338
421,5	433,367
421,9	459,51
422,4	488,567
422,8	514,31
423,3	540,452
423,8	569,681
424,2	598,595
424,7	630,138
425,1	655,995
425,6	688,31
426	718,138
426,5	754,281
426,9	798,481
427,4	831,11
427,9	869,138
428,3	915,967
428,8	959,195
429,2	1010,595
429,7	1057,91
430,1	1105,71
430,6	1167,452
431	1229,738
431,5	1291,567
431,9	1356,967
432,4	1425,538
432,8	1504,967
433,3	1587,281
433,8	1669,938
434,2	1755,538
434,7	1844,138
435,1	1935,367
435,6	2037,252
436	2139,452
436,5	2242,938
436,9	2354,91
437,4	2463,338
437,8	2580,767
438,3	2705,338
438,8	2837,224
439,2	2971,881
439,7	3109,881
440,1	3250,767
440,6	3406,767
441	3561,367
441,5	3723,224
441,9	3882,167
442,4	4047,538
442,8	4226,024
443,3	4405,338
443,7	4597,71
444,2	4789,167
444,7	4987,881
445,1	5190,452
445,6	5403,252
446	5623,738
446,5	5849,281
446,9	6073,281
447,4	6312,167
447,8	6556,281
448,3	6805,395
448,7	7047,624
449,2	7291,11
449,6	7549,71
450,1	7819,195
450,6	8085,338
451	8356,51
451,5	8639,224
451,9	8944,081
452,4	9254,452
452,8	9564,51
453,3	9861,081
453,7	10179,595
454,2	10502,738
454,6	10831,624
455,1	11156,167
455,5	11478,738
456	11810,452
456,4	12157,11
456,9	12501,11
457,3	12840,967
457,8	13195,481
458,3	13547,624
458,7	13904,395
459,2	14261,395
459,6	14619,224
460,1	14983,281
460,5	15350,938
461	15701,338
461,4	16066,224
461,9	16429,424
462,3	16792,652
462,8	17162,967
463,2	17531,51
463,7	17895,252
464,1	18273,738
464,6	18644,052
465	19017,138
465,5	19394,452
466	19769,624
466,4	20120,452
466,9	20490,11
467,3	20849,281
467,8	21214,338
468,2	21572,824
468,7	21934,167
469,1	22281,652
469,6	22644,424
470	22996,167
470,5	23333,367
470,9	23655,138
471,4	23982,767
471,8	24296,652
472,3	24614,024
472,7	24930,024
473,2	25247,138
473,6	25548,738
474,1	25843,538
474,5	26150,881
475	26428,195
475,4	26704,281
475,9	26971,995
476,4	27223,681
476,8	27480,481
477,3	27746,081
477,7	27971,138
478,2	28215,71
478,6	28455,881
479,1	28669,852
479,5	28883,795
480	29087,624
480,4	29274,567
480,9	29476,71
481,3	29641,938
481,8	29801,767
482,2	29967,195
482,7	30106,681
483,1	30263,481
483,6	30398,938
484	30523,452
484,5	30645,681
484,9	30745,795
485,4	30831,052
485,8	30918,91
486,3	30979,881
486,7	31045,138
487,2	31080,538
487,6	31114,424
488,1	31162,167
488,5	31212,167
489	31239,51
489,4	31255,624
489,9	31251,881
490,4	31262,367
490,8	31253,824
491,3	31227,224
491,7	31186,367
492,2	31138,024
492,6	31078,367
493,1	31028,881
493,5	30952,024
494	30889,51
494,4	30803,081
494,9	30714,167
495,3	30642,138
495,8	30553,51
496,2	30429,881
496,7	30333,31
497,1	30222,252
497,6	30112,024
498	29999,91
498,5	29859,367
498,9	29732,967
499,4	29622,395
499,8	29497,881
500,3	29363,424
500,7	29238,967
501,2	29091,881
501,6	28939,538
502,1	28799,195
502,5	28648,91
503	28481,395
503,4	28324,31
503,9	28137,052
504,3	27962,31
504,8	27791,224
505,2	27595,567
505,7	27398,967
506,1	27198,081
506,6	26987,11
507	26797,31
507,5	26595,367
507,9	26401,567
508,4	26194,795
508,8	25996,852
509,3	25794,195
509,7	25586,938
510,2	25374,224
510,6	25158,281
511,1	24943,138
511,5	24729,595
512	24518,967
512,4	24285,71
512,9	24075,281
513,3	23849,224
513,8	23627,138
514,2	23401,881
514,7	23175,367
515,1	22941,31
515,6	22735,081
516	22508,367
516,5	22289,452
516,9	22068,452
517,4	21841,024
517,8	21635,538
518,3	21422,91
518,7	21193,995
519,2	20971,224
519,6	20744,024
520,1	20531,71
520,5	20313,938
521	20071,081
521,4	19850,852
521,9	19642,567
522,3	19422,538
522,8	19215,367
523,2	18995,824
523,7	18793,652
524,1	18599,595
524,6	18381,681
525	18165,281
525,5	17979,138
525,9	17777,052
526,4	17582,167
526,8	17375,738
527,3	17177,338
527,7	16992,995
528,2	16810,138
528,6	16616,767
529,1	16429,367
529,5	16241,852
530	16059,767
530,4	15878,11
530,9	15692,224
531,3	15508,681
531,8	15324,024
532,2	15142,595
532,6	14958,71
533,1	14783,195
533,5	14607,052
534	14446,824
534,4	14281,681
534,9	14115,281
535,3	13956,367
535,8	13804,138
536,2	13656,824
536,7	13499,91
537,1	13335,652
537,6	13182,195
538	13034,224
538,5	12889,881
538,9	12734,024
539,4	12571,081
539,8	12427,424
540,3	12285,195
540,7	12144,738
541,2	12002,738
541,6	11860,024
542,1	11729,052
542,5	11603,538
543	11480,081
543,4	11355,91
543,9	11237,452
544,3	11110,281
544,8	10985,852
545,2	10870,852
545,7	10748,795
546,1	10628,624
546,5	10506,452
547	10381,195
547,4	10264,195
547,9	10151,252
548,3	10039,652
548,8	9928,824
549,2	9818,081
549,7	9712,424
550,1	9610,595
550,6	9512,681
551	9411,081
551,5	9311,567
551,9	9216,852
552,4	9129,881
552,8	9041,71
553,3	8948,338
553,7	8852,938
554,2	8762,91
554,6	8670,91
555,1	8573,967
555,5	8482,681
555,9	8397,252
556,4	8313,395
556,8	8233,452
557,3	8150,11
557,7	8068,938
558,2	7999,338
558,6	7919,681
559,1	7835,51
559,5	7756,452
560	7681,052
560,4	7597,738
560,9	7533,51
561,3	7457,624
561,8	7381,167
562,2	7307,195
562,7	7229,395
563,1	7156,252
563,6	7089,681
564	7017,624
564,4	6949,767
564,9	6888,395
565,3	6823,138
565,8	6764,252
566,2	6705,795
566,7	6652,281
567,1	6588,081
567,6	6519,395
568	6454,738
568,5	6396,738
568,9	6342,081
569,4	6280,681
569,8	6212,567
570,3	6147,767
570,7	6102,31
571,1	6048,252
571,6	5993,481
572	5937,195
572,5	5881,138
572,9	5835,595
573,4	5781,538
573,8	5734,31
574,3	5677,31
574,7	5626,995
575,2	5576,681
575,6	5527,452
576,1	5481,91
576,5	5441,081
576,9	5386,424
577,4	5352,595
577,8	5305,824
578,3	5257,881
578,7	5208,338
579,2	5159,538
579,6	5111,481
580,1	5066,824
580,5	5019,567
581	4976,767
581,4	4932,767
581,9	4893,71
582,3	4849,081
582,7	4807,91
583,2	4767,452
583,6	4717,767
584,1	4678,795
584,5	4638,881
585	4602,452
585,4	4561,138
585,9	4523,024
586,3	4486,681
586,8	4447,224
587,2	4410,252
587,6	4368,824
588,1	4332,767
588,5	4300,252
589	4262,052
589,4	4221,91
589,9	4194,367
590,3	4159,51
590,8	4133,052
591,2	4094,995
591,7	4066,938
592,1	4043,995
592,5	4016,71
593	3986,652
593,4	3958,224
593,9	3927,595
594,3	3910,138
594,8	3879,052
595,2	3850,624
595,7	3813,452
596,1	3791,138
596,6	3764,052
597	3738,852
597,4	3703,367
597,9	3677,852
598,3	3648,481
598,8	3630,281
599,2	3591,567
599,7	3567,938
600,1	3544,024
600,6	3522,081
601	3503,281
601,4	3479,11
601,9	3454,424
602,3	3443,252
602,8	3419,167
603,2	3392,395
603,7	3364,652
604,1	3341,452
604,6	3320,081
605	3304,024
605,4	3271,138
605,9	3245,595
606,3	3226,424
606,8	3204,51
607,2	3178,338
607,7	3152,71
608,1	3121,081
608,6	3100,51
609	3081,367
609,4	3057,367
609,9	3040,252
610,3	3023,652
610,8	3002,881
611,2	2987,367
611,7	2968,938
612,1	2947,338
612,6	2929,967
613	2906,824
613,4	2876,424
613,9	2856,652
614,3	2838,367
614,8	2815,881
615,2	2792,138
615,7	2769,995
616,1	2753,11
616,6	2740,481
617	2718,138
617,4	2696,224
617,9	2676,995
618,3	2657,052
618,8	2639,681
619,2	2618,595
619,7	2597,881
620,1	2585,91
620,5	2561,51
621	2548,481
621,4	2536,624
621,9	2512,595
622,3	2501,795
622,8	2484,51
623,2	2465,167
623,6	2456,71
624,1	2437,795
624,5	2420,281
625	2403,395
625,4	2383,052
625,9	2368,281
626,3	2353,681
626,8	2336,767
627,2	2314,938
627,6	2295,595
628,1	2279,652
628,5	2260,367
629	2239,652
629,4	2213,652
629,9	2194,424
630,3	2181,852
630,7	2171,024
631,2	2160,395
631,6	2143,967
632,1	2126,252
632,5	2119,652
633	2105,567
633,4	2090,081
633,8	2069,11
634,3	2049,11
634,7	2037,224
635,2	2030,195
635,6	2008,881
636,1	1988,995
636,5	1981,224
636,9	1968,738
637,4	1959,595
637,8	1943,481
638,3	1927,881
638,7	1917,767
639,2	1910,624
639,6	1894,052
640	1885,024
640,5	1872,995
640,9	1861,852
641,4	1847,481
641,8	1832,595
642,2	1821,31
642,7	1810,081
643,1	1792,081
643,6	1780,281
644	1772,51
644,5	1765,938
644,9	1761,138
645,3	1746,938
645,8	1729,31
646,2	1717,795
646,7	1697,652
647,1	1677,852
647,6	1662,167
648	1648,11
648,4	1638,281
648,9	1631,224
649,3	1620,738
649,8	1620,195
650,2	1611,71
650,6	1603,567
651,1	1590,738
651,5	1582,91
652	1576,681
652,4	1570,452
652,9	1559,024
653,3	1553,052
653,7	1537,367
654,2	1528,31
654,6	1516,938
655,1	1503,481
655,5	1487,367
655,9	1475,195
656,4	1463,567
656,8	1454,452
657,3	1448,195
657,7	1438,195
658,2	1428,767
658,6	1418,767
659	1410,624
659,5	1407,51
659,9	1401,881
660,4	1396,224
660,8	1382,395
661,2	1372,11
661,7	1365,367
662,1	1359,395
662,6	1348,51
663	1337,195
663,4	1326,195
663,9	1319,081
664,3	1307,795
664,8	1302,681
665,2	1292,31
665,6	1279,452
666,1	1268,538
666,5	1255,167
667	1247,91
667,4	1242,138
667,9	1229,167
668,3	1217,881
668,7	1209,795
669,2	1202,452
669,6	1196,11
670,1	1187,652
670,5	1183,11
670,9	1179,852
671,4	1170,938
671,8	1158,424
672,3	1151,281
672,7	1143,424
673,1	1133,995
673,6	1124,538
674	1108,567
674,5	1107,138
674,9	1102,338
675,3	1099,51
675,8	1088,767
676,2	1078,138
676,7	1071,081
677,1	1068,852
677,5	1055,995
678	1049,424
678,4	1039,595
678,9	1027,481
679,3	1026,395
679,7	1019,11
680,2	1017,71
680,6	1007,824
681,1	998,138
681,5	991,624
681,9	992,824
682,4	985,538
682,8	974,052
683,3	963,424
683,7	959,795
684,1	953,51
684,6	944,338
685	932,881
685,5	923,795
685,9	914,738
686,3	910,538
686,8	905,91
687,2	902,538
687,7	901,281
688,1	899,338
688,5	893,195
689	896,995
689,4	882,824
689,9	880,281
690,3	873,738
690,7	868,138
691,2	864,481
691,6	857,852
692	849,824
692,5	849,681
692,9	839,395
693,4	831,195
693,8	821,138
694,2	812,052
694,7	812,024
695,1	807,852
695,6	804,824
696	796,652
696,4	792,795
696,9	788,452
697,3	787,681
697,8	781,452
698,2	766,252
698,6	758,195
699,1	761,195
699,5	754,71
699,9	748,338
700,4	738,681
700,8	729,795
701,3	728,252
701,7	722,881
702,1	714,795
702,6	711,481
703	709,481
703,5	708,252
703,9	709,652
704,3	708,967
704,8	705,395
705,2	701,624
705,6	700,938
706,1	689,452
706,5	684,767
707	679,224
707,4	677,252
707,8	673,71
708,3	667,167
708,7	658,481
709,2	661,938
709,6	661,452
710	653,138
710,5	646,452
710,9	641,51
711,3	634,224
711,8	629,167
712,2	623,081
712,7	612,31
713,1	606,824
713,5	602,938
714	599,281
714,4	592,938
714,8	593,481
715,3	592,195
715,7	588,081
716,2	590,852
716,6	585,51
717	577,424
717,5	577,11
717,9	569,481
718,3	563,595
718,8	562,967
719,2	557,424
719,7	555,252
720,1	554,195
720,5	554,824
721	555,624
721,4	550,167
721,8	540,538
722,3	535,567
722,7	528,595
723,2	524,938
723,6	521,452
724	516,795
724,5	517,224
724,9	514,167
725,3	508,538
725,8	508,881
726,2	503,595
726,7	496,338
727,1	494,367
727,5	487,167
728	479,652
728,4	476,11
728,8	468,224
729,3	466,71
729,7	466,738
730,1	458,652
730,6	456,281
731	460,195
731,5	460,481
731,9	457,681
732,3	457,395
732,8	450,938
733,2	452,881
733,6	453,967
734,1	446,395
734,5	441,967
734,9	438,91
735,4	430,481
735,8	425,31
736,3	415,595
736,7	406,881
737,1	406,795
737,6	404,081
738	408,052
738,4	409,567
738,9	411,538
739,3	418,081
739,7	419,938
740,2	422,91
740,6	421,481
741,1	412,567
741,5	409,395
741,9	407,567
742,4	401,71
742,8	397,881
743,2	393,31
743,7	391,824
744,1	395,281
744,5	395,224
745	392,938
745,4	394,881
745,8	393,338
746,3	390,167
746,7	384,652
747,2	373,881
747,6	371,91
748	371,424
748,5	363,881
748,9	359,395
749,3	359,738
749,8	357,138
750,2	359,31
750,6	355,11
751,1	350,338
751,5	351,11
751,9	349,681
752,4	348,081
752,8	348,795
753,3	346,595
753,7	343,424
754,1	345,224
754,6	339,538
755	335,795
755,4	333,452
755,9	334,51
756,3	338,852
756,7	336,538
757,2	329,424
757,6	326,938
758	326,481
758,5	319,852
758,9	317,881
759,3	309,652
759,8	304,481
760,2	306,795
760,6	310,081
761,1	308,367
761,5	307,91
761,9	295,567
762,4	299,081
762,8	304,852
763,3	302,395
763,7	296,881
764,1	293,081
764,6	287,938
765	291,424
765,4	284,852
765,9	279,938
766,3	274,881
766,7	272,567
767,2	273,167
767,6	277,081
768	275,652
768,5	275,195
768,9	271,281
769,3	267,538
769,8	262,252
770,2	258,081
770,6	253,51
771,1	252,824
771,5	251,767
771,9	249,624
772,4	250,824
772,8	250,938
773,2	254,852
773,7	254,424
774,1	257,31
774,5	253,538
775	257,052
775,4	258,452
775,8	257,881
776,3	257,567
776,7	259,081
777,1	254,738
777,6	249,967
778	242,224
778,4	236,824
778,9	234,795
779,3	227,881
779,7	224,852
780,2	222,424
780,6	226,967
781	229,367
781,5	229,881
781,9	233,624
782,3	229,824
782,8	227,51
783,2	226,252
783,6	222,938
784,1	222,967
784,5	219,338
784,9	214,824
785,4	216,824
785,8	216,795
786,2	212,281
786,7	212,481
787,1	218,367
787,5	217,881
788	214,767
788,4	215,824
788,8	211,31
789,3	214,738
789,7	214,852
790,1	209,138
790,6	208,538
791	206,395
791,4	205,452
791,9	207,51
792,3	204,538
792,7	203,652
793,2	202,024
793,6	199,852
794	204,367
794,5	202,224
794,9	201,652
795,3	202,281
795,8	200,824
796,2	191,538
796,6	190,652
797,1	186,024
797,5	183,052
797,9	180,167
798,4	176,652
798,8	172,167
799,2	176,11
799,7	174,395
800,1	176,195
800,5	177,652
801	177,91
801,4	177,452
801,8	176,167
802,2	174,224
802,7	174,681
803,1	172,424
803,5	168,338
804	168,195
804,4	171,224
804,8	173,652
805,3	172,852
805,7	172,31
806,1	167,31
806,6	169,024
807	166,338
807,4	162,481
807,9	160,081
808,3	160,767
808,7	162,024
809,2	166,595
809,6	164,024
810	164,195
810,4	162,252
810,9	163,681
811,3	163,624
811,7	158,052
812,2	154,567
812,6	153,052
813	155,252
813,5	156,138
813,9	154,167
814,3	144,595
814,8	144,824
815,2	145,081
815,6	147,538
816,1	145,395
816,5	144,167
816,9	142,538
817,3	148,367
817,8	152,052
818,2	148,681
818,6	142,11
819,1	137,995
819,5	131,938
819,9	132,624
820,4	132,31
820,8	124,795
821,2	126,595
821,7	124,91
822,1	125,567
822,5	129,224
822,9	126,71
823,4	125,195
823,8	129,252
824,2	126,938
824,7	130,024
825,1	125,967
825,5	122,938
826	115,852
826,4	117,195
826,8	110,795
827,3	111,652
827,7	110,51
828,1	112,824
828,5	115,367
829	119,252
829,4	114,138
829,8	120,452
830,3	115,052
830,7	115,681
831,1	112,71
831,6	109,11
832	109,195
832,4	109,081
832,8	105,081
833,3	104,938
833,7	102,424
834,1	101,081
834,6	104,052
835	106,338
835,4	105,51
835,8	102,881
836,3	101,738
836,7	101,681
837,1	103,967
837,6	98,938
838	92,652
838,4	91,995
838,9	92,195
839,3	94,852
839,7	94,481
840,1	94,567
840,6	95,11
841	95,481
841,4	95,538
841,9	96,881
842,3	94,395
842,7	89,852
843,1	82,624
843,6	84,024
844	83,938
844,4	86,595
844,9	85,024
845,3	83,367
845,7	85,11
846,2	90,71
846,6	89,595
847	89,024
847,4	88,252
847,9	85,024
848,3	83,31
848,7	86,538
849,2	82,938
849,6	80,681
850	82,081
850,4	78,367
850,9	77,624
851,3	82,624
851,7	78,024
852,2	75,51
852,6	75,51
853	80,195
853,4	79,51
853,9	80,652
854,3	78,367
854,7	79,338
855,2	85,481
855,6	84,424
856	81,138
856,4	80,138
856,9	79,881
857,3	78,538
857,7	79,91
858,2	78,138
858,6	75,481
859	71,195
859,4	72,31
859,9	74,481
860,3	74,167
860,7	67,395
861,1	71,11
861,6	75,91
862	77,138
862,4	73,91
862,9	73,395
863,3	70,852
863,7	74,795
864,1	65,024
864,6	65,824
865	66,052
865,4	70,252
865,9	68,795
866,3	75,767
866,7	73,767
867,1	78,795
867,6	77,51
868	72,338
868,4	70,738
868,8	67,567
869,3	66,738
869,7	69,91
870,1	67,795
870,6	66,652
871	110,938
871,4	109,452
871,8	112,824
872,3	106,195
872,7	97,395
873,1	90,595
873,5	87,338
874	45,195
874,4	46,852
874,8	46,281
875,3	46,052
875,7	51,967
876,1	58,795
876,5	60,195
877	60,424
877,4	60,252
877,8	59,224
878,2	65,938
878,7	66,024
879,1	63,024
879,5	62,195
879,9	62,91
880,4	57,852
880,8	61,652
881,2	56,281
881,7	58,795
882,1	57,881
882,5	58,938
882,9	57,938
883,4	61,881
883,8	54,224
884,2	53,224
884,6	49,11
885,1	49,081
885,5	46,538
885,9	45,424
886,3	45,052
886,8	52,281
887,2	48,852
887,6	52,624
888	52,167
888,5	54,252
888,9	54,081
889,3	51,652
889,8	48,567
890,2	47,652
890,6	43,938
891	44,367
891,5	44,338
891,9	44,052
892,3	47,595
892,7	47,367
893,2	49,681
893,6	47,11
894	49,881
894,4	44,881
894,9	43,481
895,3	42,224
895,7	41,881
896,1	43,71
896,6	47,11
897	49,595
897,4	51,367
897,8	57,424
898,3	58,938
898,7	55,681
899,1	53,31
899,5	54,481
900	47,195
900,4	44,595
900,8	34,024
901,2	27,91
901,7	31,538
902,1	31,024
902,5	29,052
902,9	31,624
903,4	37,91
903,8	40,881
904,2	45,081
904,6	42,281
905,1	45,081
905,5	44,795
905,9	42,224
906,3	40,681
906,8	41,795
907,2	36,738
907,6	37,51
908	33,424
908,5	31,167
908,9	34,681
909,3	31,795
909,7	31,824
910,2	37,481
910,6	36,167
911	42,51
911,4	43,195
911,9	41,195
912,3	43,767
912,7	46,91
913,1	44,11
913,6	43,71
914	48,795
914,4	50,11
914,8	50,567
915,3	44,51
915,7	40,767
916,1	40,852
916,5	36,881
916,9	27,081
917,4	26,938
917,8	23,51
918,2	31,71
918,6	30,567
919,1	28,738
919,5	34,738
919,9	39,767
920,3	41,31
920,8	49,367
921,2	44,252
921,6	45,824
922	43,452
922,5	38,938
922,9	36,224
923,3	37,595
923,7	35,195
924,2	36,138
924,6	34,11
925	37,681
925,4	37,738
925,8	39,395
926,3	36,652
926,7	35,567
927,1	36,995
927,5	38,71
928	37,938
928,4	43,424
928,8	41,767
929,2	39,481
929,7	39,281
930,1	36,938
930,5	34,395
930,9	39,51
931,3	40,31
931,8	41,024
932,2	40,824
932,6	36,395
933	31,452
933,5	31,052
933,9	29,624
934,3	25,824
934,7	25,452
935,2	25,995
935,6	26,881
936	30,967
936,4	34,395
936,8	31,081
937,3	33,367
937,7	32,795
938,1	34,567
938,5	35,995
939	34,51
939,4	33,795
939,8	33,481
940,2	30,938
940,6	27,452
941,1	25,795
941,5	26,567
941,9	30,91
942,3	33,852
942,8	31,052
943,2	26,767
943,6	26,052
944	26,795
944,4	24,395
944,9	18,995
945,3	16,881
945,7	23,252
946,1	22,852
946,6	24,624
947	24,252
947,4	23,71
947,8	30,195
948,2	31,481
948,7	27,338
949,1	30,11
949,5	27,71
949,9	28,167
950,3	26,795
950,8	21,881
951,2	22,652
951,6	20,224
952	22,11
952,5	23,967
952,9	22,024
953,3	24,424
953,7	21,91
954,1	20,71
954,6	25,281
955	27,852
955,4	26,452
955,8	29,538
956,2	28,481
956,7	31,367
957,1	30,995
957,5	30,71
957,9	27,824
958,3	29,938
958,8	27,624
959,2	32,11
959,6	37,167
960	35,595
960,5	31,652
960,9	33,167
961,3	33,024
961,7	35,367
962,1	36,538
962,6	32,138
963	34,081
963,4	37,138
963,8	32,224
964,2	29,652
964,7	27,024
965,1	24,11
965,5	28,51
965,9	23,91
966,3	27,652
966,8	30,567
967,2	35,681
967,6	31,767
968	28,881
968,4	28,138
968,9	30,138
969,3	27,024
969,7	26,852
970,1	23,967
970,5	28,995
971	34,452
971,4	29,967
971,8	32,395
972,2	28,681
972,6	28,71
973,1	27,624
973,5	28,91
973,9	23,767
974,3	25,995
974,7	23,795
975,2	26,224
975,6	25,367
976	27,767
976,4	25,195
976,8	28,624
977,3	26,481
977,7	26,024
978,1	28,11
978,5	30,167
978,9	32,224
979,4	31,224
979,8	25,538
980,2	27,481
980,6	32,538
981	28,767
981,5	26,281
981,9	25,024
982,3	27,31
982,7	32,567
983,1	28,852
983,6	23,138
984	25,167
984,4	23,852
984,8	25,138
985,2	22,738
985,6	17,51
986,1	15,195
986,5	18,052
986,9	17,338
987,3	17,51
987,7	16,681
988,2	18,195
988,6	18,91
989	21,424
989,4	18,738
989,8	19,195
990,3	22,71
990,7	20,338
991,1	21,052
991,5	22,024
991,9	20,967
992,3	16,481
992,8	14,824
993,2	13,595
993,6	15,852
994	18,567
994,4	24,481
994,9	27,224
995,3	32,91
995,7	32,595
996,1	36,738
996,5	33,252
996,9	36,967
997,4	30,224
997,8	28,652
998,2	29,595
998,6	32,167
999	28,767
999,5	30,281
999,9	23,738
1000,3	21,567
1000,7	26,424
1001,1	25,681
1001,5	28,224
1002	27,024
1002,4	22,738
1002,8	25,395
1003,2	27,167
1003,6	26,052
1004	27,881
1004,5	25,081
1004,9	24,795
1005,3	29,624
1005,7	29,824
1006,1	31,424
1006,6	28,31
1007	22,481
1007,4	21,538
1007,8	26,024
1008,2	29,995
1008,6	29,424
1009,1	30,71
1009,5	39,652
1009,9	45,024
1010,3	46,167
1010,7	41,852
1011,1	38,31
1011,6	29,881
1012	30,624
1012,4	24,452
1012,8	21,852
1013,2	17,224
1013,6	17,195
1014,1	16,624
1014,5	23,081
1014,9	21,595
1015,3	15,91
1015,7	16,367
1016,1	20,51
1016,6	20,081
1017	18,681
1017,4	23,31
1017,8	24,11
1018,2	26,795
1018,6	28,252
1019,1	27,595
1019,5	27,595
1019,9	28,281
1020,3	22,395
1020,7	25,195
1021,1	23,624
1021,6	20,452
1022	18,281
1022,4	23,652
1022,8	19,367
1023,2	18,167
1023,6	11,281
1024,1	16,652
1024,5	19,91
1024,9	25,052
1025,3	21,767
1025,7	25,195
1026,1	25,938
1026,6	33,31
1027	29,11
1027,4	35,338
1027,8	32,338
1028,2	31,538
1028,6	34,11
1029	32,938
1029,5	28,852
1029,9	34,052
1030,3	29,167
1030,7	31,567
1031,1	34,538
1031,5	33,595
1032	34,252
1032,4	37,538
1032,8	30,71
1033,2	22,967
1033,6	16,681
1034	12,281
1034,4	6,738
1034,9	11,31
1035,3	17,11
1035,7	17,424
1036,1	28,224
1036,5	32,595
1036,9	32,11
1037,4	38,91
1037,8	32,195
1038,2	28,424
1038,6	29,967
1039	27,538
1039,4	31,824
1039,8	39,167
1040,3	38,538
1040,7	46,795
1041,1	36,024
1041,5	43,795
1041,9	43,967
1042,3	42,995
1042,7	35,11
1043,2	40,024
1043,6	36,71
1044	40,481
1044,4	34,91
1044,8	33,395
1045,2	26,91
1045,6	34,71
1046,1	28,91
1046,5	26,481
1046,9	34,024
1047,3	36,338
1047,7	32,938
1048,1	34,395
1048,5	29,567
1049	25,71
1049,4	24,767
1049,8	21,967
1050,2	21,024
1050,6	22,795
1051	26,138
1051,4	24,738
1051,9	28,881
1052,3	27,024
1052,7	27,624
1053,1	20,767
1053,5	19,138
1053,9	18,767
1054,3	14,795
1054,8	13,024
1055,2	15,967
1055,6	16,195
1056	21,167
1056,4	22,195
1056,8	25,967
1057,2	30,31
1057,6	35,681
1058,1	40,395
1058,5	35,252
1058,9	33,995
1059,3	31,852
1059,7	30,767
1060,1	34,881
1060,5	31,081
1061	22,681
1061,4	25,138
1061,8	26,938
1062,2	31,795
1062,6	27,081
1063	21,538
1063,4	22,31
1063,8	28,224
1064,3	31,738
1064,7	34,681
1065,1	34,395
1065,5	35,395
1065,9	43,824
1066,3	40,624
1066,7	47,51
1067,1	45,852
1067,6	46,224
1068	49,081
1068,4	49,767
1068,8	43,567
1069,2	47,481
1069,6	34,481
1070	37,224
1070,4	35,51
1070,9	29,424
1071,3	29,995
1071,7	25,71
1072,1	22,338
1072,5	29,767
1072,9	23,31
1073,3	19,824
1073,7	22,024
1074,2	21,052
1074,6	25,595
1075	29,252
1075,4	30,167
1075,8	29,767
1076,2	34,795
1076,6	34,081
1077	36,51
1077,5	37,652
1077,9	30,91
1078,3	25,281
1078,7	25,167
1079,1	24,71
1079,5	23,852
1079,9	26,452
1080,3	26,91
1080,7	33,424
1081,2	34,081
1081,6	34,881
1082	32,738
1082,4	33,31
1082,8	28,224
1083,2	21,595
1083,6	19,595
1084	23,138
1084,5	25,852
1084,9	21,795
1085,3	22,595
1085,7	22,938
1086,1	26,395
1086,5	23,567
1086,9	24,081
1087,3	22,452
1087,7	30,081
1088,2	31,881
1088,6	32,595
1089	36,252
1089,4	40,852
1089,8	34,481
1090,2	29,938
1090,6	25,738
1091	25,138
1091,4	18,31
1091,9	14,338
1092,3	15,624
1092,7	17,51
1093,1	24,081
1093,5	23,081
1093,9	17,424
1094,3	21,481
1094,7	18,31
1095,1	18,967
1095,5	22,824
1096	22,738
1096,4	24,595
1096,8	30,052
1097,2	29,538
1097,6	34,881
1098	26,624
1098,4	25,995
1098,8	22,167
1099,2	19,824
1099,6	21,11
1100,1	20,338
1100,5	17,795
1100,9	20,252
1101,3	18,424
1101,7	15,767
1102,1	16,395
1102,5	13,138
1102,9	13,824
1103,3	14,195
1103,7	15,024
1104,2	13,11
1104,6	18,138
1105	17,567
1105,4	18,395
1105,8	17,052
1106,2	14,367
1106,6	11,767
1107	10,195
1107,4	7,033
1107,8	5,287
1108,3	0,117
