Data from Subt2_00002.txt Node
Date: Mon Aug 28 13:04:12 MSK 2023
User: vat
Spectrometer: MAYP114033
Trigger mode: 0
Integration Time (sec): 1,000000E0
Scans to average: 5
Electric dark correction enabled: true
Nonlinearity correction enabled: false
Boxcar width: 3
XAxis mode: Wavelengths
Number of Pixels in Spectrum: 2068
>>>>>Begin Spectral Data<<<<<
199,4	-0,7
199,9	-0,86
200,4	-2,3
200,8	-0,586
201,3	-0,814
201,8	2,271
202,2	0,871
202,7	3,129
203,2	4,757
203,6	7,157
204,1	8,843
204,6	10,843
205	11,443
205,5	13,843
206	9,729
206,4	11,871
206,9	11,814
207,4	11,043
207,8	9,329
208,3	6,329
208,8	6,214
209,2	11,814
209,7	12,614
210,2	6,614
210,6	3,786
211,1	3,586
211,5	6,5
212	9,129
212,5	7,9
212,9	7,443
213,4	13,7
213,9	15,871
214,3	14,329
214,8	11,871
215,3	9,386
215,7	9,186
216,2	5,357
216,7	3,157
217,1	3,243
217,6	4,843
218,1	1,729
218,5	-0,129
219	-1,529
219,5	0,386
219,9	2,214
220,4	1,814
220,9	4,129
221,3	5,986
221,8	5,357
222,3	11,643
222,7	10,443
223,2	10,729
223,6	13,214
224,1	13,557
224,6	14,9
225	19,643
225,5	16,386
226	19,243
226,4	20,871
226,9	16,586
227,4	15,7
227,8	15,957
228,3	11,414
228,8	7,814
229,2	8,157
229,7	7,271
230,2	10,643
230,6	12,5
231,1	13,843
231,5	18,9
232	21,129
232,5	18,1
232,9	15,271
233,4	15,986
233,9	14,929
234,3	13,329
234,8	12,071
235,3	8,186
235,7	5,214
236,2	4,014
236,7	-1,129
237,1	1,014
237,6	1,071
238,1	-2,071
238,5	1,043
239	3,271
239,4	6,986
239,9	8,557
240,4	5,671
240,8	3,986
241,3	12,957
241,8	12,786
242,2	13,643
242,7	13,986
243,2	11,3
243,6	14,729
244,1	10,614
244,6	3,643
245	5,986
245,5	10,386
245,9	3,014
246,4	4,843
246,9	3,671
247,3	6,957
247,8	3,129
248,3	2,9
248,7	-0,271
249,2	5,271
249,7	5,929
250,1	4,157
250,6	5,271
251	8,586
251,5	9,757
252	6,1
252,4	8,929
252,9	7,786
253,4	14,386
253,8	18,729
254,3	16,986
254,8	13,357
255,2	17,671
255,7	19,786
256,1	26,929
256,6	18,557
257,1	12,671
257,5	16,3
258	11,014
258,5	7,1
258,9	4,071
259,4	-1,986
259,9	-1,529
260,3	-0,471
260,8	-0,757
261,2	7,557
261,7	9,957
262,2	10,986
262,6	10,757
263,1	10,9
263,6	11,043
264	10,586
264,5	7,957
264,9	8,986
265,4	5,757
265,9	8,243
266,3	10,9
266,8	12,786
267,3	13,957
267,7	12,043
268,2	12,586
268,7	12,5
269,1	12,214
269,6	15,671
270	14,986
270,5	12,929
271	18,1
271,4	19,014
271,9	21,757
272,4	23,157
272,8	18,929
273,3	19,814
273,7	18,814
274,2	15,7
274,7	9,5
275,1	11,443
275,6	13,014
276,1	8,786
276,5	11,243
277	13,214
277,4	14,557
277,9	16,414
278,4	11,929
278,8	7,043
279,3	9,557
279,8	3,586
280,2	0,414
280,7	-2,214
281,1	-1,957
281,6	0,1
282,1	-0,386
282,5	0,786
283	2,614
283,4	5,271
283,9	7,243
284,4	6,929
284,8	7,814
285,3	8,671
285,8	11,157
286,2	11,557
286,7	8,529
287,1	8,786
287,6	10,5
288,1	12,957
288,5	12,843
289	12,157
289,5	8,129
289,9	12,757
290,4	12,271
290,8	11,729
291,3	8,871
291,8	9,214
292,2	6,529
292,7	11,243
293,1	7,129
293,6	3,557
294,1	7,157
294,5	6,1
295	5,5
295,5	3,671
295,9	4,7
296,4	7,186
296,8	10,9
297,3	7,929
297,8	-0,5
298,2	0,786
298,7	2,129
299,1	2,357
299,6	2,557
300,1	0,786
300,5	0,9
301	7,414
301,5	8,386
301,9	8,586
302,4	5,9
302,8	3,471
303,3	6,929
303,8	5,414
304,2	3,757
304,7	2,471
305,1	3,329
305,6	6,071
306,1	7,7
306,5	8,557
307	9,586
307,4	13,9
307,9	14,214
308,4	14,586
308,8	14,614
309,3	17,929
309,8	18,129
310,2	18,386
310,7	16,5
311,1	15,214
311,6	17,043
312,1	15,814
312,5	12,1
313	7,957
313,4	12,443
313,9	12,529
314,4	17,014
314,8	16,329
315,3	17,9
315,7	17,043
316,2	20,7
316,7	12,186
317,1	14,071
317,6	11,843
318	12,871
318,5	11,271
319	16,757
319,4	14,871
319,9	15,729
320,3	15,1
320,8	19,5
321,3	17,1
321,7	17,471
322,2	15,243
322,6	14,043
323,1	17,929
323,6	17,986
324	15,843
324,5	15,014
324,9	12,843
325,4	13,3
325,9	13,529
326,3	11,529
326,8	10,186
327,2	10,757
327,7	10,186
328,2	11,9
328,6	12,7
329,1	11,186
329,5	10,957
330	11,471
330,5	8,814
330,9	8,871
331,4	14,014
331,8	11,871
332,3	13,614
332,8	15,986
333,2	17,729
333,7	16,1
334,1	20,043
334,6	17,129
335,1	18,643
335,5	17,471
336	18,1
336,4	16,986
336,9	17,871
337,4	20,9
337,8	20,843
338,3	18,557
338,7	20,014
339,2	21,814
339,7	23,3
340,1	22,557
340,6	13,014
341	11,614
341,5	12,843
342	11,529
342,4	12,014
342,9	14,014
343,3	15,5
343,8	18,014
344,2	20,7
344,7	21,786
345,2	23,586
345,6	20,7
346,1	18,129
346,5	14,3
347	16,814
347,5	11,5
347,9	10,671
348,4	9,157
348,8	7,271
349,3	7,586
349,8	11,443
350,2	12,929
350,7	15,671
351,1	18,071
351,6	22,814
352	32,671
352,5	37,871
353	43,414
353,4	49,5
353,9	58,3
354,3	69,557
354,8	81,186
355,3	87,7
355,7	100,929
356,2	120,186
356,6	142,357
357,1	170,529
357,5	196,529
358	230,1
358,5	273,671
358,9	322,3
359,4	370,871
359,8	429,9
360,3	487,471
360,8	552,157
361,2	630,3
361,7	716,443
362,1	802,129
362,6	905,9
363	1006,014
363,5	1129,757
364	1255,3
364,4	1380,443
364,9	1499,871
365,3	1621,9
365,8	1736,643
366,3	1850,357
366,7	1947,729
367,2	2034,7
367,6	2102,129
368,1	2158,471
368,5	2201,9
369	2219,5
369,5	2219,671
369,9	2200,529
370,4	2161,786
370,8	2112,786
371,3	2047,043
371,7	1980,871
372,2	1904,329
372,7	1815,157
373,1	1719,929
373,6	1626,729
374	1523,9
374,5	1427,529
374,9	1320,471
375,4	1216,386
375,9	1122,529
376,3	1032,529
376,8	953,443
377,2	882,757
377,7	815,671
378,2	750,329
378,6	695,529
379,1	642,5
379,5	588,614
380	536,7
380,4	486,357
380,9	444,386
381,4	404,043
381,8	373,557
382,3	344,1
382,7	319,357
383,2	294,671
383,6	277,843
384,1	259,557
384,6	247,214
385	228,871
385,5	211,614
385,9	201,386
386,4	191,214
386,8	178,443
387,3	166,443
387,7	153,329
388,2	143,214
388,7	134,586
389,1	122,186
389,6	116,7
390	111,671
390,5	99,271
390,9	91,871
391,4	83,214
391,9	81,043
392,3	81,786
392,8	77,443
393,2	75,186
393,7	71,3
394,1	73,186
394,6	74,871
395,1	70,843
395,5	65,414
396	61,014
396,4	53,414
396,9	54,729
397,3	51,071
397,8	44,157
398,2	45,043
398,7	42,186
399,2	44,957
399,6	48,843
400,1	51,757
400,5	53,129
401	58,5
401,4	61,157
401,9	65,7
402,4	62,443
402,8	62,871
403,3	61,814
403,7	62,243
404,2	61,586
404,6	54,9
405,1	54,529
405,5	53,129
406	53,271
406,5	56,214
406,9	60,929
407,4	65,5
407,8	76,243
408,3	79,7
408,7	87,186
409,2	96,271
409,6	99,157
410,1	101,471
410,6	110,843
411	115,357
411,5	122,957
411,9	131,614
412,4	141,186
412,8	153,014
413,3	164,1
413,7	173,729
414,2	184,214
414,7	196,329
415,1	210,7
415,6	219,329
416	232,871
416,5	249,814
416,9	265,071
417,4	280,329
417,8	294,871
418,3	310,729
418,8	336,5
419,2	360,757
419,7	379,043
420,1	397,443
420,6	418,186
421	446,614
421,5	470,586
421,9	495,1
422,4	522,214
422,8	555,1
423,3	582,9
423,8	614,814
424,2	642,1
424,7	675,7
425,1	706,871
425,6	739,043
426	771,129
426,5	810,843
426,9	857,843
427,4	906,729
427,9	957,7
428,3	1003,243
428,8	1061,5
429,2	1117,071
429,7	1179,014
430,1	1232,129
430,6	1296,014
431	1365,671
431,5	1438,671
431,9	1508,957
432,4	1588,643
432,8	1677,129
433,3	1770,471
433,8	1868,243
434,2	1951,5
434,7	2053,471
435,1	2157,186
435,6	2265,729
436	2374,071
436,5	2491,443
436,9	2605,9
437,4	2742,529
437,8	2869,471
438,3	3002,786
438,8	3150,186
439,2	3298,643
439,7	3452,929
440,1	3610,529
440,6	3779,7
441	3954,014
441,5	4134,271
441,9	4308,871
442,4	4494,271
442,8	4690,271
443,3	4900,386
443,7	5103,443
444,2	5310,929
444,7	5529,186
445,1	5759,786
445,6	5994,043
446	6236,1
446,5	6473,929
446,9	6720,957
447,4	6989,443
447,8	7252,014
448,3	7521,957
448,7	7789,843
449,2	8053,014
449,6	8343,243
450,1	8642,557
450,6	8937,986
451	9250,557
451,5	9552,757
451,9	9872,386
452,4	10208,129
452,8	10538,271
453,3	10856,129
453,7	11196,729
454,2	11538,3
454,6	11893,7
455,1	12249,814
455,5	12602,729
456	12962,529
456,4	13331,329
456,9	13706,643
457,3	14079,614
457,8	14473,1
458,3	14864,929
458,7	15263,243
459,2	15646,9
459,6	16042,9
460,1	16433,529
460,5	16827,586
461	17213,957
461,4	17616,757
461,9	17998,871
462,3	18412,5
462,8	18826,443
463,2	19232,557
463,7	19633,957
464,1	20029,214
464,6	20414,5
465	20825,786
465,5	21211,071
466	21603,329
466,4	21978,271
466,9	22381,014
467,3	22770,3
467,8	23156,157
468,2	23530,043
468,7	23904,929
469,1	24283,671
469,6	24676,5
470	25043,157
470,5	25400,671
470,9	25762,9
471,4	26130,214
471,8	26478,043
472,3	26816,271
472,7	27144,614
473,2	27473,471
473,6	27792,957
474,1	28120,157
474,5	28430,671
475	28739,843
475,4	29039,186
475,9	29329,786
476,4	29607,329
476,8	29890,414
477,3	30154,871
477,7	30424,7
478,2	30687,1
478,6	30943,471
479,1	31180,671
479,5	31411,157
480	31631,529
480,4	31831,329
480,9	32020,814
481,3	32192,243
481,8	32365,1
482,2	32527,3
482,7	32687,614
483,1	32853,729
483,6	32990,243
484	33113,671
484,5	33244,786
484,9	33344,014
485,4	33447,129
485,8	33531,957
486,3	33600,271
486,7	33667,586
487,2	33734,329
487,6	33790,586
488,1	33829,243
488,5	33858,5
489	33877,7
489,4	33877,014
489,9	33872,471
490,4	33837,671
490,8	33819,214
491,3	33796,214
491,7	33748,957
492,2	33694,329
492,6	33645,957
493,1	33584,243
493,5	33515,9
494	33417,214
494,4	33324,529
494,9	33235,557
495,3	33141,986
495,8	33033,071
496,2	32927,3
496,7	32810,586
497,1	32697,271
497,6	32567,157
498	32436,7
498,5	32300,157
498,9	32164,529
499,4	32014,671
499,8	31880,786
500,3	31735,814
500,7	31572,271
501,2	31415,557
501,6	31253,786
502,1	31088,729
502,5	30920,786
503	30740,643
503,4	30543,671
503,9	30373,871
504,3	30180,757
504,8	29977,643
505,2	29781,443
505,7	29579,243
506,1	29369,786
506,6	29163,529
507	28943,3
507,5	28735,471
507,9	28528,443
508,4	28295,1
508,8	28070,786
509,3	27842,586
509,7	27618,443
510,2	27382,129
510,6	27150,814
511,1	26920,329
511,5	26667,414
512	26432,814
512,4	26199,9
512,9	25960,557
513,3	25725,243
513,8	25467,9
514,2	25219,757
514,7	25002,071
515,1	24756,7
515,6	24536,557
516	24294,357
516,5	24053,986
516,9	23822,614
517,4	23568,271
517,8	23321,1
518,3	23086,729
518,7	22825,414
519,2	22592,643
519,6	22359,329
520,1	22121,586
520,5	21899,529
521	21660,214
521,4	21434,329
521,9	21214,186
522,3	20979,357
522,8	20744,3
523,2	20512,529
523,7	20270,014
524,1	20053,557
524,6	19818,1
525	19587,386
525,5	19368,557
525,9	19151,643
526,4	18939,729
526,8	18740,986
527,3	18529,043
527,7	18315,071
528,2	18105,5
528,6	17894,814
529,1	17690,071
529,5	17483,414
530	17287,186
530,4	17091,614
530,9	16907,957
531,3	16718,014
531,8	16536,557
532,2	16351,871
532,6	16177,671
533,1	15982,929
533,5	15793,643
534	15613,729
534,4	15430,986
534,9	15239,871
535,3	15073,5
535,8	14898,014
536,2	14734,329
536,7	14570,443
537,1	14391,157
537,6	14221,957
538	14071,929
538,5	13898,614
538,9	13729,729
539,4	13565,929
539,8	13412,043
540,3	13265,729
540,7	13120,071
541,2	12970,5
541,6	12829,186
542,1	12691,871
542,5	12560,414
543	12430,243
543,4	12294,414
543,9	12163,271
544,3	12023,843
544,8	11892,786
545,2	11756,986
545,7	11623,129
546,1	11488,1
546,5	11356,643
547	11230,814
547,4	11109,157
547,9	10986,414
548,3	10878,586
548,8	10762,643
549,2	10637,471
549,7	10527,271
550,1	10409,014
550,6	10304,757
551	10198,357
551,5	10077,271
551,9	9968,443
552,4	9870,786
552,8	9775,729
553,3	9684,529
553,7	9579,157
554,2	9478,014
554,6	9387,843
555,1	9291,557
555,5	9198,614
555,9	9097,043
556,4	8999,5
556,8	8898,271
557,3	8810,357
557,7	8724,957
558,2	8639,5
558,6	8557,1
559,1	8477,329
559,5	8391,014
560	8319,986
560,4	8235,957
560,9	8156,957
561,3	8081,329
561,8	8000,443
562,2	7919,786
562,7	7844,786
563,1	7771,957
563,6	7700,671
564	7620,271
564,4	7546,443
564,9	7479,5
565,3	7402,214
565,8	7335,157
566,2	7263,586
566,7	7194,3
567,1	7136,986
567,6	7072,586
568	7003,014
568,5	6941,986
568,9	6873,5
569,4	6812,929
569,8	6749,414
570,3	6684,043
570,7	6618,3
571,1	6555,071
571,6	6492,843
572	6439,557
572,5	6381,357
572,9	6325,729
573,4	6267,843
573,8	6218,186
574,3	6163,386
574,7	6119,214
575,2	6066,786
575,6	6018,557
576,1	5964,443
576,5	5914,957
576,9	5856,443
577,4	5805,443
577,8	5745,014
578,3	5688,3
578,7	5630,7
579,2	5585,243
579,6	5529,329
580,1	5485,729
580,5	5443,414
581	5406,186
581,4	5363,386
581,9	5322,329
582,3	5271,329
582,7	5234,071
583,2	5184,386
583,6	5138,871
584,1	5096,014
584,5	5052,271
585	5007,929
585,4	4968,014
585,9	4919,386
586,3	4883,443
586,8	4841,243
587,2	4797,586
587,6	4755,814
588,1	4717,643
588,5	4669,414
589	4632,614
589,4	4591,214
589,9	4553,843
590,3	4522,643
590,8	4484,7
591,2	4447,214
591,7	4423,129
592,1	4394,129
592,5	4366,186
593	4337,9
593,4	4299,786
593,9	4271,557
594,3	4241,757
594,8	4205,871
595,2	4168,929
595,7	4133,471
596,1	4103,986
596,6	4074,043
597	4041,9
597,4	4013,671
597,9	3993,929
598,3	3969,614
598,8	3942,986
599,2	3907,757
599,7	3884,414
600,1	3858,9
600,6	3829,214
601	3804,329
601,4	3784,843
601,9	3757,529
602,3	3739,1
602,8	3710,014
603,2	3685,1
603,7	3659,1
604,1	3628,843
604,6	3598,1
605	3581,471
605,4	3554,1
605,9	3526,814
606,3	3499,586
606,8	3474,7
607,2	3449,757
607,7	3424,243
608,1	3392,386
608,6	3360,871
609	3336,5
609,4	3317,557
609,9	3298,414
610,3	3273,329
610,8	3253,871
611,2	3231,9
611,7	3212,214
612,1	3194,414
612,6	3172,1
613	3141,186
613,4	3116,786
613,9	3097,7
614,3	3076,986
614,8	3053,471
615,2	3029,871
615,7	3006,3
616,1	2995,271
616,6	2983,014
617	2954,814
617,4	2933,471
617,9	2910,443
618,3	2898,529
618,8	2878,214
619,2	2854,586
619,7	2826,871
620,1	2809,357
620,5	2782,3
621	2770,614
621,4	2744,271
621,9	2723,214
622,3	2702,729
622,8	2682,7
623,2	2658,043
623,6	2643,329
624,1	2625,529
624,5	2606,271
625	2587,5
625,4	2567,729
625,9	2549,471
626,3	2536,9
626,8	2521,071
627,2	2492,986
627,6	2478,271
628,1	2462,071
628,5	2441,786
629	2423,129
629,4	2398,7
629,9	2373,786
630,3	2354,814
630,7	2334,786
631,2	2319,7
631,6	2302,1
632,1	2289,929
632,5	2275,1
633	2266,1
633,4	2253,557
633,8	2235,414
634,3	2216,014
634,7	2201,1
635,2	2182,129
635,6	2167,871
636,1	2146,557
636,5	2133,3
636,9	2116,043
637,4	2102,5
637,8	2094,471
638,3	2077,043
638,7	2058,186
639,2	2046,243
639,6	2034,157
640	2024,243
640,5	2008,129
640,9	1994,386
641,4	1986,5
641,8	1971,7
642,2	1958,243
642,7	1944,014
643,1	1927,643
643,6	1914,871
644	1900,5
644,5	1888,871
644,9	1880,929
645,3	1866,271
645,8	1852,529
646,2	1841,243
646,7	1825,186
647,1	1808,557
647,6	1790,243
648	1775,471
648,4	1772,471
648,9	1760,757
649,3	1745,243
649,8	1740,1
650,2	1729,186
650,6	1717,471
651,1	1704,929
651,5	1688,7
652	1680,386
652,4	1673,586
652,9	1660,7
653,3	1646,986
653,7	1636,729
654,2	1625,929
654,6	1614,471
655,1	1597,5
655,5	1584,386
655,9	1569,786
656,4	1567,186
656,8	1557,386
657,3	1550,929
657,7	1540,871
658,2	1531,671
658,6	1521,814
659	1518,271
659,5	1503,1
659,9	1493,329
660,4	1483,214
660,8	1470,071
661,2	1460,586
661,7	1446,357
662,1	1433,329
662,6	1422,3
663	1410,671
663,4	1399,414
663,9	1388,814
664,3	1373,757
664,8	1364,814
665,2	1357,243
665,6	1344,414
666,1	1333,7
666,5	1326,414
667	1318,443
667,4	1312,014
667,9	1301,871
668,3	1291,271
668,7	1280,357
669,2	1266,643
669,6	1253,471
670,1	1241,843
670,5	1237,357
670,9	1230,7
671,4	1216,557
671,8	1212,386
672,3	1209,443
672,7	1194,814
673,1	1189,214
673,6	1175,929
674	1163,729
674,5	1158,5
674,9	1146,586
675,3	1137,586
675,8	1135,243
676,2	1123,986
676,7	1118,014
677,1	1114,357
677,5	1106,071
678	1102,471
678,4	1096,529
678,9	1088,471
679,3	1081,443
679,7	1070,129
680,2	1060,3
680,6	1054,1
681,1	1044,729
681,5	1038,557
681,9	1028,529
682,4	1021,271
682,8	1012,957
683,3	1006,671
683,7	997,871
684,1	986,9
684,6	978,014
685	969,786
685,5	954,614
685,9	949,929
686,3	946,414
686,8	939,129
687,2	937,329
687,7	929,186
688,1	920,557
688,5	917,386
689	914,386
689,4	901,614
689,9	892,186
690,3	878,071
690,7	874,557
691,2	875,129
691,6	871,586
692	865,271
692,5	859,3
692,9	855,729
693,4	852,986
693,8	842,729
694,2	832,414
694,7	824,529
695,1	821,357
695,6	821,957
696	814,014
696,4	810,043
696,9	800,814
697,3	799,957
697,8	799,729
698,2	785,529
698,6	774,443
699,1	769,986
699,5	764,329
699,9	762,3
700,4	755,329
700,8	747,986
701,3	744,529
701,7	734,814
702,1	732,129
702,6	725,586
703	722,071
703,5	718,614
703,9	715,614
704,3	709,843
704,8	707,1
705,2	696,957
705,6	692,986
706,1	685,157
706,5	678,3
707	670,329
707,4	667,957
707,8	664,643
708,3	664,614
708,7	654,957
709,2	650,7
709,6	648,9
710	642,786
710,5	632,814
710,9	632,271
711,3	623,614
711,8	623,014
712,2	620,1
712,7	612,671
713,1	606,843
713,5	613,529
714	605,986
714,4	595,757
714,8	597,214
715,3	593,671
715,7	587,3
716,2	589,871
716,6	573,786
717	572,243
717,5	572,243
717,9	562,957
718,3	558,357
718,8	554,957
719,2	548,414
719,7	551,529
720,1	544,186
720,5	544,129
721	539,414
721,4	532,843
721,8	529,786
722,3	527,957
722,7	518,329
723,2	513,214
723,6	510,271
724	506,614
724,5	506,729
724,9	502,043
725,3	490,929
725,8	487,586
726,2	486,5
726,7	479,129
727,1	476,357
727,5	468,814
728	460,871
728,4	459,929
728,8	456,386
729,3	449,471
729,7	447,386
730,1	441,186
730,6	440,929
731	442,214
731,5	439,729
731,9	439,757
732,3	442,414
732,8	438,957
733,2	440,957
733,6	440,157
734,1	434,7
734,5	435,014
734,9	428,986
735,4	425,157
735,8	418,643
736,3	406,843
736,7	400,871
737,1	398,814
737,6	394,757
738	400,643
738,4	397,9
738,9	398,871
739,3	403,757
739,7	399,3
740,2	400,157
740,6	399,586
741,1	390,557
741,5	383,243
741,9	382,671
742,4	383,7
742,8	382,043
743,2	379,129
743,7	372,529
744,1	373,729
744,5	375,557
745	368,986
745,4	359,843
745,8	361,529
746,3	356,843
746,7	353,471
747,2	346,586
747,6	343,043
748	348,843
748,5	349,729
748,9	343,243
749,3	344,271
749,8	345,557
750,2	348,357
750,6	344,471
751,1	338,186
751,5	336,157
751,9	337,129
752,4	340,014
752,8	334,5
753,3	325,9
753,7	324,586
754,1	323,871
754,6	322,786
755	322,414
755,4	313,186
755,9	314,757
756,3	318,843
756,7	322,843
757,2	315,671
757,6	312,329
758	304,129
758,5	300,643
758,9	297,071
759,3	292,757
759,8	283,014
760,2	286,071
760,6	287,671
761,1	291,786
761,5	290,843
761,9	289,043
762,4	286,329
762,8	289,214
763,3	287,5
763,7	283,614
764,1	275,871
764,6	274,071
765	272,271
765,4	274,786
765,9	273,129
766,3	271,271
766,7	266,443
767,2	269,871
767,6	274,357
768	270,729
768,5	265,9
768,9	259,414
769,3	256,357
769,8	254,243
770,2	247,014
770,6	243,1
771,1	241,814
771,5	241,9
771,9	241,9
772,4	235,043
772,8	237,043
773,2	239,9
773,7	233,757
774,1	236,471
774,5	232,443
775	233,814
775,4	236,071
775,8	231,786
776,3	226,957
776,7	225,443
777,1	224,643
777,6	219,357
778	214,843
778,4	214,786
778,9	213,471
779,3	215,214
779,7	216,329
780,2	210,614
780,6	217,957
781	219,843
781,5	217,986
781,9	222,386
782,3	222,786
782,8	220,843
783,2	220,357
783,6	213,871
784,1	209,014
784,5	207,671
784,9	199,729
785,4	196,843
785,8	196,471
786,2	194,071
786,7	192,929
787,1	198,3
787,5	195,557
788	196,214
788,4	195,471
788,8	192,443
789,3	197,443
789,7	196,586
790,1	193,671
790,6	191,186
791	188,214
791,4	189,7
791,9	190,929
792,3	187,157
792,7	187,014
793,2	182,5
793,6	183,329
794	184,529
794,5	175,043
794,9	175,729
795,3	170,471
795,8	172,243
796,2	166,243
796,6	167,186
797,1	165,386
797,5	167,7
797,9	164,757
798,4	166,7
798,8	161,929
799,2	167,1
799,7	161,129
800,1	163,014
800,5	163,014
801	163,329
801,4	161,1
801,8	161,871
802,2	156,243
802,7	158,414
803,1	157,071
803,5	154,357
804	148,271
804,4	149,471
804,8	152,214
805,3	153,271
805,7	152,957
806,1	146,643
806,6	147,843
807	149,329
807,4	147,014
807,9	143,729
808,3	145,443
808,7	144,757
809,2	147,471
809,6	145,271
810	144,043
810,4	142,7
810,9	141,414
811,3	135,9
811,7	131,643
812,2	128,1
812,6	129,1
813	131,7
813,5	133,814
813,9	129,986
814,3	131,757
814,8	132,1
815,2	133,843
815,6	132,043
816,1	127,129
816,5	123,786
816,9	126,414
817,3	123,357
817,8	127,9
818,2	126,871
818,6	128,643
819,1	128,757
819,5	125,7
819,9	123,357
820,4	128,414
820,8	125,043
821,2	121,414
821,7	115,414
822,1	112,871
822,5	115,7
822,9	110,129
823,4	102,5
823,8	100,814
824,2	102,5
824,7	104,471
825,1	102,071
825,5	101,843
826	102,671
826,4	104,7
826,8	103,386
827,3	103,929
827,7	103,529
828,1	106,329
828,5	101,186
829	102,214
829,4	97,471
829,8	100,671
830,3	98,443
830,7	98,071
831,1	98,3
831,6	96,3
832	95,643
832,4	100,1
832,8	93,443
833,3	91,271
833,7	86,443
834,1	85,557
834,6	85,243
835	86,471
835,4	81,443
835,8	82,271
836,3	81,129
836,7	83,414
837,1	80,186
837,6	77,957
838	73,243
838,4	73,843
838,9	78,271
839,3	80,5
839,7	76,786
840,1	80,786
840,6	84,729
841	78,614
841,4	80,386
841,9	76,814
842,3	72,871
842,7	71,157
843,1	66,529
843,6	60,614
844	68,814
844,4	69,729
844,9	66,843
845,3	69,471
845,7	71,957
846,2	73,9
846,6	79,186
847	79,043
847,4	78,3
847,9	77,071
848,3	69,614
848,7	67,786
849,2	66,043
849,6	63,671
850	58,929
850,4	56,529
850,9	57,986
851,3	63,529
851,7	62,814
852,2	59,043
852,6	58,529
853	62,386
853,4	60,357
853,9	60,929
854,3	63,757
854,7	65,129
855,2	65,929
855,6	63,157
856	65,471
856,4	67,1
856,9	62,1
857,3	61,043
857,7	58,671
858,2	60,614
858,6	64,643
859	57,929
859,4	55,3
859,9	55,643
860,3	49,757
860,7	50,529
861,1	55,443
861,6	52,986
862	53,9
862,4	53,157
862,9	56,929
863,3	57,329
863,7	58,671
864,1	51,5
864,6	57,5
865	57,986
865,4	61,043
865,9	59,986
866,3	61,557
866,7	59,929
867,1	61,357
867,6	59,357
868	55,243
868,4	56,329
868,8	53,471
869,3	55,5
869,7	59,786
870,1	59,157
870,6	52,443
871	54,271
871,4	50,043
871,8	49,3
872,3	45,9
872,7	38,671
873,1	36,386
873,5	34,871
874	36,357
874,4	40,3
874,8	40,271
875,3	38,529
875,7	38,557
876,1	39,557
876,5	43,757
877	40,214
877,4	38,529
877,8	37,214
878,2	41,157
878,7	44,471
879,1	47,129
879,5	44,329
879,9	41,729
880,4	35,729
880,8	41,471
881,2	40,9
881,7	42,443
882,1	38,271
882,5	42,1
882,9	43,986
883,4	48,814
883,8	45,271
884,2	39,043
884,6	33,243
885,1	30,186
885,5	22,357
885,9	25,357
886,3	23,957
886,8	27,557
887,2	26,157
887,6	26,043
888	29,729
888,5	33,757
888,9	29,671
889,3	27,871
889,8	23,357
890,2	26,129
890,6	26,329
891	22,9
891,5	24,7
891,9	24,414
892,3	29,529
892,7	27,614
893,2	29,414
893,6	29,043
894	30,557
894,4	26,614
894,9	28,014
895,3	19,957
895,7	22,043
896,1	22,157
896,6	23,157
897	27,9
897,4	30,729
897,8	31,271
898,3	34,386
898,7	33,729
899,1	33,071
899,5	32,586
900	28,129
900,4	23,214
900,8	16,014
901,2	14,871
901,7	14,986
902,1	13,786
902,5	13,071
902,9	10,071
903,4	16,157
903,8	20,357
904,2	23,843
904,6	23,1
905,1	21,157
905,5	22,186
905,9	20,9
906,3	19,443
906,8	18,586
907,2	16,129
907,6	16,643
908	19,643
908,5	17,443
908,9	18,214
909,3	17,5
909,7	18,671
910,2	17,614
910,6	17,129
911	13,7
911,4	15,1
911,9	16,386
912,3	17,843
912,7	23,957
913,1	23,157
913,6	25,814
914	29,871
914,4	32,043
914,8	34,786
915,3	34,014
915,7	30,757
916,1	29,671
916,5	22,3
916,9	16,529
917,4	12,614
917,8	7,329
918,2	7,186
918,6	2,9
919,1	3,243
919,5	10,1
919,9	15,671
920,3	17,357
920,8	22,757
921,2	19,129
921,6	21,7
922	20,271
922,5	17,214
922,9	18,1
923,3	18,3
923,7	16,557
924,2	18,9
924,6	19,214
925	23,1
925,4	24,529
925,8	21,5
926,3	20,3
926,7	16,1
927,1	13,186
927,5	16,271
928	17,1
928,4	14,1
928,8	15,271
929,2	15,986
929,7	19,386
930,1	22,9
930,5	17,557
930,9	18,643
931,3	26,443
931,8	27,957
932,2	25,214
932,6	24,729
933	19,586
933,5	18,443
933,9	16,329
934,3	6,843
934,7	5,5
935,2	3,757
935,6	2,071
936	0,757
936,4	3,357
936,8	6,614
937,3	10,671
937,7	10,271
938,1	16,271
938,5	14,1
939	15,814
939,4	16,357
939,8	7,9
940,2	8,243
940,6	5,957
941,1	1,671
941,5	4,1
941,9	6,643
942,3	5,757
942,8	9,043
943,2	1,329
943,6	2,414
944	3,643
944,4	3,157
944,9	1,1
945,3	4,071
945,7	-0,1
946,1	1,9
946,6	2,557
947	1,3
947,4	0,643
947,8	7,471
948,2	4,957
948,7	5,357
949,1	9,986
949,5	5,871
949,9	7,671
950,3	8,043
950,8	2,071
951,2	0,243
951,6	7,557
952	8,386
952,5	7,871
952,9	8,357
953,3	8,5
953,7	7,9
954,1	13,357
954,6	9,557
955	7,643
955,4	10,614
955,8	16,871
956,2	17,557
956,7	22,5
957,1	19,329
957,5	23,7
957,9	19,129
958,3	18,614
958,8	12,471
959,2	16,186
959,6	18,786
960	15,757
960,5	12,986
960,9	18,186
961,3	21,529
961,7	24,929
962,1	24,729
962,6	16,929
963	22,1
963,4	25,071
963,8	22,757
964,2	18,529
964,7	14,3
965,1	15,157
965,5	19,386
965,9	17,1
966,3	16,443
966,8	16,529
967,2	18,814
967,6	20,386
968	16,1
968,4	17,043
968,9	14,729
969,3	10,786
969,7	8,614
970,1	8,271
970,5	6,5
971	8,929
971,4	3,786
971,8	7,043
972,2	5,1
972,6	6,071
973,1	5,271
973,5	2,929
973,9	-6,071
974,3	-4,814
974,7	-6,957
975,2	-1,5
975,6	-0,814
976	-2,529
976,4	-4,614
976,8	3,271
977,3	1,043
977,7	-0,186
978,1	-0,757
978,5	4,5
978,9	8,329
979,4	12,871
979,8	9,786
980,2	15,014
980,6	17,443
981	11,214
981,5	8,3
981,9	7,386
982,3	5,729
982,7	6,757
983,1	3,7
983,6	0,529
984	4,986
984,4	0,614
984,8	0,414
985,2	4,729
985,6	5,5
986,1	5,1
986,5	9,814
986,9	4,271
987,3	5,129
987,7	5,986
988,2	3,1
988,6	2,729
989	4,214
989,4	-0,271
989,8	3,357
990,3	5,3
990,7	4,186
991,1	1,214
991,5	1,214
991,9	-0,957
992,3	-2,329
992,8	-0,871
993,2	-3,129
993,6	-4,414
994	3,557
994,4	6,814
994,9	6,986
995,3	13,3
995,7	11,586
996,1	15,5
996,5	12,329
996,9	15,1
997,4	11,843
997,8	13,3
998,2	11,157
998,6	10,071
999	10,243
999,5	15,871
999,9	8,014
1000,3	9,1
1000,7	9,843
1001,1	12,043
1001,5	17,129
1002	15,271
1002,4	14,243
1002,8	19,386
1003,2	12,071
1003,6	10,043
1004	8,329
1004,5	4,957
1004,9	5,214
1005,3	1,7
1005,7	0,643
1006,1	5,5
1006,6	4,643
1007	-1,957
1007,4	-1,729
1007,8	4,7
1008,2	7,529
1008,6	5,243
1009,1	6,214
1009,5	6,614
1009,9	11,786
1010,3	14,414
1010,7	9,471
1011,1	8,014
1011,6	4,071
1012	5,186
1012,4	9,357
1012,8	7,071
1013,2	4,5
1013,6	4,5
1014,1	3,243
1014,5	7,386
1014,9	6,186
1015,3	0,043
1015,7	0,329
1016,1	-0,071
1016,6	0,157
1017	2,1
1017,4	0,986
1017,8	0,757
1018,2	0,043
1018,6	0,643
1019,1	3,186
1019,5	3,471
1019,9	1,986
1020,3	-1,043
1020,7	1,7
1021,1	2,129
1021,6	1,1
1022	1,643
1022,4	1,1
1022,8	3,329
1023,2	5,043
1023,6	5,5
1024,1	8,071
1024,5	12,214
1024,9	14,929
1025,3	15,471
1025,7	15,357
1026,1	13,843
1026,6	13,329
1027	9,814
1027,4	7,614
1027,8	1,443
1028,2	-1,5
1028,6	-1,386
1029	-5,729
1029,5	-4,5
1029,9	2,157
1030,3	1,014
1030,7	7,786
1031,1	8,814
1031,5	7,9
1032	13,729
1032,4	15,957
1032,8	8,329
1033,2	11,014
1033,6	2,5
1034	1,243
1034,4	2,014
1034,9	7,014
1035,3	6,357
1035,7	8,471
1036,1	15,157
1036,5	17,443
1036,9	17,043
1037,4	18,957
1037,8	14,614
1038,2	12,014
1038,6	13,3
1039	6,671
1039,4	14,043
1039,8	20,557
1040,3	19,386
1040,7	20,414
1041,1	16,586
1041,5	22,757
1041,9	23,929
1042,3	13,471
1042,7	8,414
1043,2	7,814
1043,6	9,443
1044	13,271
1044,4	11,414
1044,8	10,186
1045,2	11,243
1045,6	15,214
1046,1	15,471
1046,5	12,329
1046,9	12,986
1047,3	11,7
1047,7	9,157
1048,1	8,129
1048,5	2,557
1049	0,871
1049,4	-2,157
1049,8	-2,9
1050,2	-5,586
1050,6	-4,729
1051	-1,386
1051,4	-4,329
1051,9	-1,614
1052,3	-4,471
1052,7	-5,614
1053,1	-5,957
1053,5	-10,071
1053,9	-10,643
1054,3	-9,414
1054,8	-11,043
1055,2	-7,671
1055,6	-8,214
1056	-7,9
1056,4	-4,757
1056,8	-4,271
1057,2	-1,1
1057,6	3,243
1058,1	7,871
1058,5	2,929
1058,9	4,243
1059,3	2,414
1059,7	0,957
1060,1	1,014
1060,5	-7,471
1061	-11,557
1061,4	-6,957
1061,8	-5,157
1062,2	-2,9
1062,6	-1,529
1063	0,557
1063,4	6,9
1063,8	9,357
1064,3	14,043
1064,7	15,1
1065,1	17,357
1065,5	18,957
1065,9	15,929
1066,3	15,557
1066,7	19,414
1067,1	15,157
1067,6	16,357
1068	22,329
1068,4	21,843
1068,8	21,071
1069,2	19,214
1069,6	14,5
1070	13,757
1070,4	10,471
1070,9	4,386
1071,3	5,929
1071,7	9,329
1072,1	3,3
1072,5	5,529
1072,9	8,043
1073,3	6,929
1073,7	2,329
1074,2	4,271
1074,6	0,757
1075	14,186
1075,4	17,757
1075,8	15,271
1076,2	19,214
1076,6	24,1
1077	23,557
1077,5	27,5
1077,9	17,786
1078,3	9,557
1078,7	7,643
1079,1	6,014
1079,5	5,471
1079,9	4,243
1080,3	-0,614
1080,7	5,357
1081,2	8,129
1081,6	11,7
1082	14,443
1082,4	12,871
1082,8	12,014
1083,2	11,471
1083,6	7,186
1084	7,529
1084,5	6,643
1084,9	0,014
1085,3	-2,071
1085,7	-3,614
1086,1	1,586
1086,5	-0,471
1086,9	-0,1
1087,3	0,1
1087,7	3,929
1088,2	9,814
1088,6	11,7
1089	11,671
1089,4	17,414
1089,8	16,929
1090,2	16,014
1090,6	13,3
1091	7,7
1091,4	4,614
1091,9	1,671
1092,3	1,843
1092,7	0,929
1093,1	0,557
1093,5	0,9
1093,9	2,786
1094,3	2,843
1094,7	5,443
1095,1	3,386
1095,5	1,5
1096	5,071
1096,4	3,1
1096,8	5,986
1097,2	5,843
1097,6	3,957
1098	0,929
1098,4	3,757
1098,8	1,5
1099,2	2,186
1099,6	4,014
1100,1	8,271
1100,5	10,129
1100,9	11,871
1101,3	11,529
1101,7	9,986
1102,1	11,814
1102,5	6,3
1102,9	1,3
1103,3	2,786
1103,7	4,5
1104,2	6,957
1104,6	8,014
1105	5,786
1105,4	7,557
1105,8	9,157
1106,2	5,643
1106,6	3,557
1107	0,757
1107,4	0,067
1107,8	2,18
1108,3	0,65
