Data from Subt2_00009.txt Node
Date: Mon Aug 28 13:05:46 MSK 2023
User: vat
Spectrometer: MAYP114033
Trigger mode: 0
Integration Time (sec): 1,000000E0
Scans to average: 5
Electric dark correction enabled: true
Nonlinearity correction enabled: false
Boxcar width: 3
XAxis mode: Wavelengths
Number of Pixels in Spectrum: 2068
>>>>>Begin Spectral Data<<<<<
199,4	0,433
199,9	2,453
200,4	3,267
200,8	3,019
201,3	2,39
201,8	1,933
202,2	2,619
202,7	3,733
203,2	4,39
203,6	4,476
204,1	7,59
204,6	11,59
205	15,076
205,5	16,962
206	17,59
206,4	15,476
206,9	17,476
207,4	18,162
207,8	15,448
208,3	15,105
208,8	13,619
209,2	17,562
209,7	19,248
210,2	12,448
210,6	11,848
211,1	12,59
211,5	15,962
212	16,905
212,5	12,048
212,9	11,562
213,4	15,105
213,9	14,905
214,3	13,876
214,8	11,676
215,3	12,19
215,7	11,39
216,2	14,762
216,7	16,848
217,1	14,648
217,6	16,848
218,1	11,59
218,5	8,562
219	12,619
219,5	5,562
219,9	7,905
220,4	6,562
220,9	5,705
221,3	8,048
221,8	9,476
222,3	9,133
222,7	14,59
223,2	12,876
223,6	15,248
224,1	15,476
224,6	13,276
225	14,305
225,5	10,019
226	7,333
226,4	7,59
226,9	7,19
227,4	7,476
227,8	9,362
228,3	10,39
228,8	12,533
229,2	16,276
229,7	15,533
230,2	12,733
230,6	9,962
231,1	11,619
231,5	13,076
232	17,105
232,5	14,419
232,9	11,133
233,4	11,876
233,9	15,276
234,3	12,305
234,8	9,076
235,3	-0,438
235,7	-3,924
236,2	-3,038
236,7	-7,267
237,1	-3,895
237,6	-0,781
238,1	-1,01
238,5	7,733
239	9,619
239,4	10,876
239,9	18,933
240,4	16,048
240,8	17,848
241,3	22,448
241,8	17,905
242,2	23,533
242,7	27,248
243,2	25,333
243,6	28,848
244,1	23,19
244,6	22,648
245	26,19
245,5	21,533
245,9	17,619
246,4	14,99
246,9	10,562
247,3	12,505
247,8	7,248
248,3	8,933
248,7	11,59
249,2	12,248
249,7	16,076
250,1	13,676
250,6	14,419
251	14,505
251,5	12,562
252	8,962
252,4	9,162
252,9	5,305
253,4	7,99
253,8	9,276
254,3	10,819
254,8	10,162
255,2	10,619
255,7	14,533
256,1	15,476
256,6	17,276
257,1	16,19
257,5	13,162
258	8,419
258,5	9,333
258,9	5,133
259,4	6,39
259,9	1,362
260,3	3,333
260,8	6,419
261,2	11,619
261,7	11,962
262,2	13,19
262,6	11,848
263,1	14,99
263,6	13,333
264	13,448
264,5	8,505
264,9	9,048
265,4	5,819
265,9	10,419
266,3	11,105
266,8	8,362
267,3	10,105
267,7	11,505
268,2	11,076
268,7	14,505
269,1	13,276
269,6	13,162
270	17,619
270,5	13,276
271	18,79
271,4	19,419
271,9	21,762
272,4	21,048
272,8	18,133
273,3	17,133
273,7	13,876
274,2	8,962
274,7	4,962
275,1	0,048
275,6	0,962
276,1	1,848
276,5	0,362
277	9,305
277,4	8,248
277,9	13,362
278,4	10,019
278,8	8,848
279,3	10,219
279,8	4,848
280,2	-0,924
280,7	-3,038
281,1	-4,61
281,6	-0,267
282,1	-2,524
282,5	-2,695
283	3,419
283,4	6,419
283,9	11,048
284,4	12,505
284,8	11,933
285,3	18,333
285,8	20,648
286,2	17,819
286,7	13,848
287,1	11,905
287,6	14,248
288,1	14,476
288,5	8,476
289	6,562
289,5	7,248
289,9	16,333
290,4	16,648
290,8	13,79
291,3	13,905
291,8	22,419
292,2	21,933
292,7	22,79
293,1	17,505
293,6	15,19
294,1	15,933
294,5	12,59
295	6,619
295,5	6,276
295,9	7,876
296,4	8,79
296,8	11,505
297,3	7,276
297,8	4,562
298,2	3,048
298,7	5,476
299,1	5,19
299,6	3,276
300,1	6,333
300,5	9,019
301	15,305
301,5	13,419
301,9	10,762
302,4	8,476
302,8	6,505
303,3	1,848
303,8	3,876
304,2	0,59
304,7	3,362
305,1	2,248
305,6	2,105
306,1	5,133
306,5	13,133
307	12,019
307,4	17,762
307,9	16,276
308,4	20,733
308,8	24,476
309,3	25,79
309,8	20,933
310,2	20,562
310,7	17,619
311,1	15,876
311,6	11,505
312,1	8,505
312,5	6,105
313	5,848
313,4	9,562
313,9	9,505
314,4	13,305
314,8	14,905
315,3	19,162
315,7	19,905
316,2	18,562
316,7	10,79
317,1	7,648
317,6	3,276
318	6,79
318,5	3,419
319	8,962
319,4	11,848
319,9	12,79
320,3	18,448
320,8	24,99
321,3	17,962
321,7	18,248
322,2	14,39
322,6	8,705
323,1	8,305
323,6	5,676
324	3,105
324,5	7,19
324,9	6,162
325,4	3,419
325,9	9,905
326,3	10,448
326,8	8,305
327,2	8,219
327,7	9,533
328,2	9,19
328,6	10,905
329,1	6,676
329,5	8,933
330	12,733
330,5	9,305
330,9	5,676
331,4	10,248
331,8	12,619
332,3	15,648
332,8	13,99
333,2	12,219
333,7	14,876
334,1	18,39
334,6	16,048
335,1	15,333
335,5	13,733
336	13,933
336,4	18,076
336,9	15,476
337,4	13,848
337,8	13,505
338,3	13,019
338,7	13,133
339,2	16,819
339,7	16,505
340,1	18,105
340,6	17,105
341	15,676
341,5	19,276
342	20,333
342,4	21,305
342,9	19,705
343,3	20,133
343,8	19,505
344,2	22,59
344,7	20,648
345,2	18,905
345,6	17,648
346,1	17,105
346,5	14,819
347	18,19
347,5	16,99
347,9	14,162
348,4	16,876
348,8	12,676
349,3	15,848
349,8	20,276
350,2	17,505
350,7	19,248
351,1	23,619
351,6	29,162
352	34,676
352,5	38,333
353	44,533
353,4	52,79
353,9	56,219
354,3	66,876
354,8	75,933
355,3	88,962
355,7	99,848
356,2	115,19
356,6	136,848
357,1	164,648
357,5	184,762
358	208,619
358,5	241,448
358,9	282,648
359,4	324,505
359,8	374,619
360,3	428,333
360,8	490,99
361,2	563,676
361,7	638,019
362,1	717,676
362,6	808,276
363	896,876
363,5	999,333
364	1104,933
364,4	1218,048
364,9	1330,933
365,3	1439,676
365,8	1541,876
366,3	1643,105
366,7	1731,99
367,2	1807,99
367,6	1866,39
368,1	1915,019
368,5	1949,362
369	1972,305
369,5	1971,676
369,9	1954,476
370,4	1924,419
370,8	1882,219
371,3	1826,133
371,7	1761,619
372,2	1683,333
372,7	1602,905
373,1	1523,219
373,6	1436,562
374	1340,648
374,5	1246,79
374,9	1158,505
375,4	1073,476
375,9	991,648
376,3	908,248
376,8	835,762
377,2	773,162
377,7	711,219
378,2	651,276
378,6	596,533
379,1	545,419
379,5	500,162
380	457,562
380,4	416,762
380,9	385,733
381,4	358,333
381,8	334,305
382,3	314,476
382,7	295,676
383,2	274,676
383,6	256,933
384,1	237,162
384,6	219,276
385	206,19
385,5	191,105
385,9	178,333
386,4	167,59
386,8	155,562
387,3	149,076
387,7	138,933
388,2	127,533
388,7	117,99
389,1	110,476
389,6	107,562
390	107,819
390,5	99,333
390,9	95,476
391,4	88,876
391,9	89,276
392,3	83,39
392,8	79,533
393,2	73,848
393,7	69,219
394,1	66,448
394,6	65,505
395,1	60,476
395,5	58,562
396	53,533
396,4	50,362
396,9	54,533
397,3	52,848
397,8	46,59
398,2	47,99
398,7	46,533
399,2	48,962
399,6	52,305
400,1	52,276
400,5	54,905
401	63,619
401,4	62,933
401,9	62,933
402,4	65,619
402,8	64,419
403,3	64,962
403,7	62,99
404,2	62,362
404,6	62,59
405,1	63,619
405,5	62,019
406	63,848
406,5	62,876
406,9	68,019
407,4	70,276
407,8	75,448
408,3	77,505
408,7	80,648
409,2	84,219
409,6	92,933
410,1	95,848
410,6	101,648
411	103,276
411,5	114,219
411,9	126,133
412,4	136,648
412,8	142,248
413,3	153,133
413,7	164,905
414,2	174,39
414,7	185,79
415,1	196,276
415,6	204,19
416	217,79
416,5	232,39
416,9	243,419
417,4	263,39
417,8	276,048
418,3	287,133
418,8	309,533
419,2	331,133
419,7	347,619
420,1	367,733
420,6	383,048
421	406,733
421,5	431,762
421,9	455,648
422,4	479,248
422,8	503,762
423,3	528,876
423,8	559,876
424,2	589,305
424,7	616,048
425,1	646,019
425,6	676,276
426	713,962
426,5	753,762
426,9	792,99
427,4	834,276
427,9	883,619
428,3	934,505
428,8	981,79
429,2	1028,419
429,7	1078,905
430,1	1132,705
430,6	1191,848
431	1253,619
431,5	1311,19
431,9	1380,019
432,4	1453,533
432,8	1528,59
433,3	1613,79
433,8	1697,133
434,2	1784,762
434,7	1877,905
435,1	1975,019
435,6	2077,305
436	2184,333
436,5	2291,048
436,9	2405,19
437,4	2519,19
437,8	2638,705
438,3	2764,905
438,8	2895,476
439,2	3036,076
439,7	3175,248
440,1	3316,248
440,6	3471,076
441	3631,99
441,5	3792,162
441,9	3959,619
442,4	4135,219
442,8	4317,733
443,3	4507,648
443,7	4697,962
444,2	4889,676
444,7	5098,848
445,1	5304,876
445,6	5518,076
446	5747,362
446,5	5971,39
446,9	6205,19
447,4	6456,962
447,8	6700,848
448,3	6961,448
448,7	7215,905
449,2	7458,076
449,6	7729,048
450,1	7999,819
450,6	8272,733
451	8551,276
451,5	8844,905
451,9	9150,276
452,4	9461,79
452,8	9778,705
453,3	10087,705
453,7	10402,733
454,2	10735,59
454,6	11056,648
455,1	11388,276
455,5	11725,59
456	12054,333
456,4	12408,733
456,9	12753,876
457,3	13103,048
457,8	13458,305
458,3	13808,876
458,7	14170,248
459,2	14538,962
459,6	14899,733
460,1	15287,248
460,5	15664,648
461	16038,648
461,4	16410,819
461,9	16780,133
462,3	17169,933
462,8	17562,99
463,2	17932,39
463,7	18296,933
464,1	18678,905
464,6	19055,762
465	19443,733
465,5	19809,105
466	20180,333
466,4	20534,762
466,9	20913,276
467,3	21277,419
467,8	21645,476
468,2	22013,133
468,7	22384,79
469,1	22742,419
469,6	23120,59
470	23471,248
470,5	23827,048
470,9	24168,019
471,4	24502,533
471,8	24823,619
472,3	25139,819
472,7	25449,133
473,2	25772,648
473,6	26069,676
474,1	26377,19
474,5	26687,99
475	26975,476
475,4	27270,39
475,9	27553,905
476,4	27821,933
476,8	28090,39
477,3	28365,905
477,7	28611,848
478,2	28871,39
478,6	29104,905
479,1	29325,219
479,5	29544,562
480	29753,019
480,4	29938,705
480,9	30122,505
481,3	30288,476
481,8	30464,962
482,2	30642,905
482,7	30794,533
483,1	30939,219
483,6	31066,019
484	31181,505
484,5	31299,99
484,9	31406,619
485,4	31498,248
485,8	31563,59
486,3	31649,962
486,7	31714,848
487,2	31777,162
487,6	31819,333
488,1	31847,762
488,5	31881,19
489	31919,619
489,4	31907,848
489,9	31918,676
490,4	31920,562
490,8	31902,562
491,3	31885,219
491,7	31836,705
492,2	31803,762
492,6	31767,876
493,1	31703,933
493,5	31630,19
494	31563,99
494,4	31462,419
494,9	31383,876
495,3	31279,705
495,8	31175,876
496,2	31086,905
496,7	30977,533
497,1	30871,162
497,6	30767,733
498	30642,533
498,5	30524,848
498,9	30398,476
499,4	30256,819
499,8	30122,533
500,3	29979,562
500,7	29840,905
501,2	29689,333
501,6	29535,019
502,1	29373,79
502,5	29213,933
503	29051,933
503,4	28880,648
503,9	28695,876
504,3	28525,59
504,8	28339,79
505,2	28162,733
505,7	27987,733
506,1	27791,733
506,6	27598,019
507	27414,219
507,5	27211,819
507,9	27001,905
508,4	26787,019
508,8	26556,733
509,3	26356,99
509,7	26142,905
510,2	25919,219
510,6	25713,219
511,1	25521,533
511,5	25298,333
512	25091,99
512,4	24853,99
512,9	24619,876
513,3	24383,676
513,8	24146,876
514,2	23901,676
514,7	23688,19
515,1	23450,362
515,6	23219,076
516	22997,619
516,5	22775,076
516,9	22537,79
517,4	22307,076
517,8	22074,933
518,3	21842,419
518,7	21618,876
519,2	21393,276
519,6	21175,676
520,1	20960,59
520,5	20738,933
521	20517,59
521,4	20305,648
521,9	20092,219
522,3	19877,048
522,8	19662,39
523,2	19444,962
523,7	19230,162
524,1	19009,19
524,6	18792,876
525	18585,533
525,5	18373,276
525,9	18168,505
526,4	17980,676
526,8	17784,505
527,3	17591,705
527,7	17399,676
528,2	17204,305
528,6	17004,676
529,1	16813,133
529,5	16606,362
530	16418,305
530,4	16234,019
530,9	16046,705
531,3	15865,848
531,8	15700,99
532,2	15515,99
532,6	15343,162
533,1	15163,505
533,5	14995,648
534	14828,962
534,4	14650,362
534,9	14481,305
535,3	14322,105
535,8	14162,19
536,2	14005,819
536,7	13839,819
537,1	13670,705
537,6	13523,133
538	13365,562
538,5	13208,705
538,9	13047,076
539,4	12890,562
539,8	12744,533
540,3	12607,533
540,7	12464,762
541,2	12324,219
541,6	12190,876
542,1	12062,619
542,5	11933,933
543	11807,648
543,4	11678,59
543,9	11552,476
544,3	11427,762
544,8	11309,248
545,2	11181,505
545,7	11056,533
546,1	10928,705
546,5	10798,362
547	10677,533
547,4	10553,848
547,9	10434,362
548,3	10320,59
548,8	10218,448
549,2	10113,705
549,7	10013,762
550,1	9903,762
550,6	9800,276
551	9694,219
551,5	9601,39
551,9	9495,733
552,4	9397,248
552,8	9301,362
553,3	9209,676
553,7	9118,505
554,2	9030,505
554,6	8938,219
555,1	8856,876
555,5	8774,133
555,9	8695,048
556,4	8614,505
556,8	8537,59
557,3	8449,019
557,7	8366,248
558,2	8276,876
558,6	8193,762
559,1	8105,276
559,5	8019,99
560	7937,848
560,4	7860,19
560,9	7787,933
561,3	7718,448
561,8	7643,705
562,2	7576,333
562,7	7499,076
563,1	7429,619
563,6	7361,19
564	7287,19
564,4	7213,162
564,9	7146,933
565,3	7072,476
565,8	7008,533
566,2	6939,048
566,7	6879,533
567,1	6819,733
567,6	6759,248
568	6695,876
568,5	6644,362
568,9	6587,333
569,4	6526,705
569,8	6459,562
570,3	6400,533
570,7	6342,648
571,1	6283,362
571,6	6235,848
572	6183,419
572,5	6129,505
572,9	6082,705
573,4	6025,905
573,8	5976,962
574,3	5934,333
574,7	5868,533
575,2	5818,076
575,6	5775,419
576,1	5724,962
576,5	5678,705
576,9	5627,019
577,4	5571,79
577,8	5519,048
578,3	5473,219
578,7	5423,619
579,2	5368,39
579,6	5325,019
580,1	5281,676
580,5	5237,648
581	5203,276
581,4	5156,876
581,9	5114,476
582,3	5087,162
582,7	5042,619
583,2	5003,933
583,6	4965,905
584,1	4926,105
584,5	4890,762
585	4848,333
585,4	4797,448
585,9	4757,162
586,3	4720,79
586,8	4679,019
587,2	4638,448
587,6	4591,762
588,1	4555,076
588,5	4516,333
589	4474,59
589,4	4431,762
589,9	4396,848
590,3	4361,448
590,8	4331,933
591,2	4296,533
591,7	4271,276
592,1	4244,648
592,5	4218,305
593	4183,219
593,4	4154,362
593,9	4123,762
594,3	4099,762
594,8	4070,133
595,2	4043,133
595,7	4006,305
596,1	3987,905
596,6	3959,105
597	3929,79
597,4	3904,39
597,9	3873,676
598,3	3850,476
598,8	3832,448
599,2	3803,505
599,7	3782,133
600,1	3762,019
600,6	3729,219
601	3707,905
601,4	3674,676
601,9	3643,448
602,3	3617,762
602,8	3592,59
603,2	3563,905
603,7	3539,305
604,1	3511,419
604,6	3488,219
605	3467,162
605,4	3440,305
605,9	3413,333
606,3	3393,562
606,8	3375,79
607,2	3359,562
607,7	3337,333
608,1	3308,705
608,6	3286,905
609	3264,248
609,4	3242,076
609,9	3218,876
610,3	3194,933
610,8	3173,562
611,2	3156,905
611,7	3134,448
612,1	3111,733
612,6	3084,533
613	3057,933
613,4	3030,962
613,9	3007,705
614,3	2985,762
614,8	2964,419
615,2	2946,562
615,7	2924,762
616,1	2904,933
616,6	2884,762
617	2865,905
617,4	2837,305
617,9	2816,419
618,3	2792,19
618,8	2779,305
619,2	2757,962
619,7	2734,248
620,1	2717,076
620,5	2703,333
621	2687,705
621,4	2673,705
621,9	2647,248
622,3	2637,79
622,8	2623,676
623,2	2605,762
623,6	2591,505
624,1	2572,105
624,5	2555,505
625	2540,305
625,4	2524,133
625,9	2506,819
626,3	2492,219
626,8	2475,819
627,2	2452,848
627,6	2429,39
628,1	2410,505
628,5	2388,905
629	2372,476
629,4	2345,79
629,9	2322,133
630,3	2307,133
630,7	2293,219
631,2	2275,076
631,6	2250,019
632,1	2236,362
632,5	2230,333
633	2216,276
633,4	2201,476
633,8	2182,276
634,3	2167,648
634,7	2153,39
635,2	2135,762
635,6	2111,676
636,1	2092,362
636,5	2075,133
636,9	2060,648
637,4	2046,876
637,8	2038,933
638,3	2025,048
638,7	2013,876
639,2	2005,162
639,6	1994,276
640	1979,819
640,5	1969,362
640,9	1953,619
641,4	1940,933
641,8	1924,733
642,2	1909,448
642,7	1897,933
643,1	1887,019
643,6	1870,762
644	1854,19
644,5	1846,219
644,9	1836,048
645,3	1824,505
645,8	1811,476
646,2	1793,733
646,7	1781,533
647,1	1770,59
647,6	1753,619
648	1743,648
648,4	1733,619
648,9	1723,219
649,3	1715,562
649,8	1708,19
650,2	1696,619
650,6	1683,219
651,1	1669,305
651,5	1655,105
652	1645,848
652,4	1634,533
652,9	1618,59
653,3	1606,305
653,7	1596,048
654,2	1586,848
654,6	1577,505
655,1	1563,362
655,5	1552,19
655,9	1538,648
656,4	1530,333
656,8	1520,133
657,3	1511,048
657,7	1498,676
658,2	1486,848
658,6	1474,362
659	1471,59
659,5	1460,048
659,9	1448,076
660,4	1437,819
660,8	1424,99
661,2	1413,276
661,7	1405,219
662,1	1393,39
662,6	1387,048
663	1375,705
663,4	1367,419
663,9	1363,219
664,3	1348,076
664,8	1337,762
665,2	1328,762
665,6	1314,619
666,1	1307,905
666,5	1298,133
667	1285,876
667,4	1281,848
667,9	1271,933
668,3	1258,905
668,7	1249,676
669,2	1234,162
669,6	1222,333
670,1	1212,19
670,5	1206,048
670,9	1197,762
671,4	1185,648
671,8	1179,733
672,3	1175,733
672,7	1160,19
673,1	1155,848
673,6	1147,933
674	1142,019
674,5	1136,905
674,9	1125,248
675,3	1114,876
675,8	1114,276
676,2	1102,248
676,7	1093,362
677,1	1080,99
677,5	1076,105
678	1071,476
678,4	1061,819
678,9	1050,333
679,3	1044,933
679,7	1034,305
680,2	1031,076
680,6	1020,39
681,1	1012,505
681,5	1010,248
681,9	1004,848
682,4	995,619
682,8	987,962
683,3	982,19
683,7	976,048
684,1	967,276
684,6	957,533
685	946,276
685,5	929,876
685,9	921,905
686,3	915,219
686,8	910,105
687,2	907,305
687,7	903,248
688,1	897,562
688,5	900,476
689	898,276
689,4	889,19
689,9	884,333
690,3	873,876
690,7	869,105
691,2	870,305
691,6	867,533
692	858,133
692,5	849,705
692,9	845,733
693,4	843,505
693,8	835,505
694,2	823,019
694,7	811,733
695,1	812,99
695,6	813,476
696	801,762
696,4	795,648
696,9	786,848
697,3	788,276
697,8	782,905
698,2	770,705
698,6	758,39
699,1	753,562
699,5	743,448
699,9	738,448
700,4	731,99
700,8	730,79
701,3	726,562
701,7	721,276
702,1	717,676
702,6	710,819
703	707,762
703,5	695,562
703,9	689,59
704,3	683,048
704,8	682,99
705,2	674,505
705,6	677,276
706,1	671,648
706,5	670,99
707	667,276
707,4	666,762
707,8	656,905
708,3	655,019
708,7	645,676
709,2	643,505
709,6	638,39
710	629,105
710,5	619,419
710,9	617,962
711,3	613,476
711,8	606,105
712,2	597,362
712,7	586,162
713,1	579,705
713,5	577,79
714	572,076
714,4	562,476
714,8	560,019
715,3	556,876
715,7	560,933
716,2	566,019
716,6	560,505
717	556,648
717,5	554,476
717,9	549,933
718,3	546,505
718,8	540,705
719,2	534,39
719,7	533,819
720,1	529,133
720,5	528,648
721	524,105
721,4	520,39
721,8	516,048
722,3	509,648
722,7	500,933
723,2	494,562
723,6	490,705
724	490,619
724,5	487,762
724,9	480,162
725,3	473,733
725,8	469,39
726,2	468,162
726,7	460,733
727,1	451,105
727,5	446,705
728	443,276
728,4	442,448
728,8	440,59
729,3	437,762
729,7	436,505
730,1	436,619
730,6	435,133
731	431,733
731,5	429,333
731,9	429,219
732,3	433,39
732,8	431,133
733,2	432,219
733,6	430,19
734,1	431,79
734,5	430,419
734,9	422,505
735,4	414,562
735,8	412,333
736,3	400,648
736,7	395,39
737,1	390,276
737,6	385,648
738	388,133
738,4	381,876
738,9	379,79
739,3	385,39
739,7	380,39
740,2	378,705
740,6	378,59
741,1	373,133
741,5	371,248
741,9	368,762
742,4	368,219
742,8	365,848
743,2	363,019
743,7	358,733
744,1	361,448
744,5	361,333
745	359,562
745,4	355,419
745,8	357,962
746,3	357,248
746,7	351,762
747,2	342,876
747,6	339,39
748	337,59
748,5	333,276
748,9	326,505
749,3	324,648
749,8	327,419
750,2	328,676
750,6	325,105
751,1	319,59
751,5	319,562
751,9	323,505
752,4	325,333
752,8	322,305
753,3	318,79
753,7	318,762
754,1	319,076
754,6	310,562
755	307,676
755,4	306,048
755,9	304,533
756,3	306,848
756,7	303,305
757,2	298,79
757,6	299,733
758	294,048
758,5	285,219
758,9	282,762
759,3	276,105
759,8	273,848
760,2	275,562
760,6	280,762
761,1	283,419
761,5	284,59
761,9	281,733
762,4	282,076
762,8	280,276
763,3	277,19
763,7	272,79
764,1	265,933
764,6	259,79
765	254,79
765,4	255,248
765,9	259,533
766,3	258,39
766,7	256,276
767,2	258,39
767,6	263,133
768	260,762
768,5	254,333
768,9	247,619
769,3	247,676
769,8	245,505
770,2	240,933
770,6	237,019
771,1	240,276
771,5	239,619
771,9	238,448
772,4	233,133
772,8	228,962
773,2	231,848
773,7	229,19
774,1	230,105
774,5	227,39
775	224,39
775,4	226,876
775,8	227,219
776,3	223,19
776,7	221,962
777,1	216,733
777,6	218,648
778	219,648
778,4	217,105
778,9	217,162
779,3	214,676
779,7	215,933
780,2	215,276
780,6	215,962
781	216,362
781,5	213,476
781,9	213,848
782,3	210,248
782,8	208,105
783,2	208,648
783,6	205,048
784,1	205,533
784,5	201,133
784,9	199,476
785,4	200,733
785,8	194,933
786,2	190,505
786,7	192,276
787,1	191,876
787,5	190,505
788	185,105
788,4	184,962
788,8	183,848
789,3	184,99
789,7	181,248
790,1	177,305
790,6	178,162
791	175,59
791,4	175,848
791,9	179,019
792,3	178,848
792,7	179,905
793,2	179,676
793,6	177,876
794	180,219
794,5	175,933
794,9	172,133
795,3	166,219
795,8	167,333
796,2	162,962
796,6	164,276
797,1	158,876
797,5	156,876
797,9	159,676
798,4	160,59
798,8	154,876
799,2	152,476
799,7	149,79
800,1	155,076
800,5	158,848
801	155,419
801,4	155,248
801,8	154,419
802,2	156,419
802,7	157,276
803,1	155,59
803,5	152,705
804	150,048
804,4	149,076
804,8	154,19
805,3	152,505
805,7	149,362
806,1	141,419
806,6	142,619
807	141,962
807,4	141,248
807,9	130,419
808,3	130,019
808,7	133,105
809,2	136,876
809,6	132,133
810	136,619
810,4	137,248
810,9	145,648
811,3	143,305
811,7	139,362
812,2	137,162
812,6	136,79
813	133,076
813,5	130,476
813,9	130,59
814,3	126,562
814,8	126,333
815,2	125,476
815,6	128,248
816,1	130,505
816,5	128,819
816,9	127,333
817,3	130,076
817,8	133,276
818,2	131,305
818,6	125,962
819,1	119,733
819,5	116,162
819,9	111,876
820,4	114,276
820,8	107,733
821,2	108,59
821,7	109,448
822,1	110,876
822,5	117,648
822,9	111,79
823,4	106,733
823,8	109,876
824,2	110,648
824,7	108,505
825,1	103,505
825,5	96,276
826	92,19
826,4	94,79
826,8	92,848
827,3	90,333
827,7	90,562
828,1	93,476
828,5	98,905
829	102,19
829,4	96,333
829,8	96,105
830,3	97,705
830,7	95,648
831,1	95,162
831,6	89,848
832	88,219
832,4	90,933
832,8	86,933
833,3	83,648
833,7	80,876
834,1	78,276
834,6	81,448
835	83,962
835,4	77,962
835,8	79,476
836,3	79,648
836,7	80,105
837,1	82,162
837,6	74,448
838	74,019
838,4	76,99
838,9	76,79
839,3	78,305
839,7	81,219
840,1	78,676
840,6	84,076
841	79,019
841,4	80,562
841,9	80,133
842,3	76,076
842,7	75,676
843,1	73,133
843,6	70,419
844	73,762
844,4	73,276
844,9	74,562
845,3	72,762
845,7	69,505
846,2	73,733
846,6	72,162
847	75,476
847,4	75,848
847,9	73,333
848,3	71,505
848,7	70,933
849,2	67,933
849,6	68,019
850	63,362
850,4	60,99
850,9	61,476
851,3	69,476
851,7	70,733
852,2	68,219
852,6	69,962
853	72,533
853,4	73,076
853,9	72,619
854,3	70,048
854,7	72,248
855,2	77,219
855,6	74,476
856	77,133
856,4	74,648
856,9	73,048
857,3	68,476
857,7	66,105
858,2	60,39
858,6	61,333
859	55,476
859,4	56,705
859,9	55,848
860,3	55,333
860,7	49,676
861,1	55,648
861,6	58,648
862	55,819
862,4	52,305
862,9	53,076
863,3	51,99
863,7	56,419
864,1	53,133
864,6	51,333
865	51,362
865,4	53,19
865,9	52,79
866,3	55,19
866,7	53,419
867,1	52,819
867,6	53,59
868	52,276
868,4	50,962
868,8	46,533
869,3	48,619
869,7	49,419
870,1	47,419
870,6	43,819
871	84,305
871,4	84,762
871,8	89,819
872,3	87,648
872,7	85,762
873,1	81,419
873,5	79,905
874	43,733
874,4	42,905
874,8	38,99
875,3	37,39
875,7	33,076
876,1	38,333
876,5	36,333
877	33,448
877,4	36,819
877,8	36,933
878,2	36,99
878,7	42,448
879,1	42,619
879,5	44,99
879,9	44,333
880,4	41,333
880,8	42,676
881,2	38,619
881,7	38,133
882,1	36,79
882,5	34,562
882,9	35,933
883,4	36,705
883,8	33,362
884,2	40,219
884,6	35,876
885,1	34,333
885,5	34,276
885,9	34,619
886,3	35,248
886,8	38,99
887,2	32,248
887,6	33,905
888	34,99
888,5	36,362
888,9	28,476
889,3	23,705
889,8	22,19
890,2	21,962
890,6	24,848
891	25,505
891,5	25,819
891,9	29,219
892,3	30,476
892,7	27,305
893,2	30,99
893,6	27,676
894	27,733
894,4	25,362
894,9	25,39
895,3	24,448
895,7	27,99
896,1	25,819
896,6	27,105
897	28,419
897,4	29,705
897,8	33,219
898,3	39,676
898,7	37,733
899,1	39,962
899,5	41,362
900	37,762
900,4	34,476
900,8	28,933
901,2	18,962
901,7	22,476
902,1	22,248
902,5	21,305
902,9	21,39
903,4	29,162
903,8	28,848
904,2	34,019
904,6	31,248
905,1	29,533
905,5	29,133
905,9	30,448
906,3	25,048
906,8	24,705
907,2	23,905
907,6	21,733
908	22,533
908,5	17,733
908,9	18,819
909,3	20,219
909,7	22,819
910,2	21,276
910,6	22,133
911	21,733
911,4	23,79
911,9	19,905
912,3	21,819
912,7	22,676
913,1	23,048
913,6	25,819
914	29,99
914,4	33,133
914,8	33,905
915,3	32,305
915,7	35,819
916,1	36,476
916,5	30,076
916,9	24,162
917,4	22,133
917,8	20,476
918,2	20,276
918,6	11,276
919,1	8,676
919,5	11,733
919,9	14,105
920,3	15,962
920,8	22,762
921,2	22,048
921,6	25,019
922	29,076
922,5	28,505
922,9	32,219
923,3	31,333
923,7	26,105
924,2	27,705
924,6	29,448
925	28,39
925,4	31,219
925,8	26,79
926,3	27,248
926,7	27,448
927,1	25,276
927,5	27,905
928	28,79
928,4	22,276
928,8	25,105
929,2	23,533
929,7	25,333
930,1	25,362
930,5	23,448
930,9	24,505
931,3	29,248
931,8	26,219
932,2	25,59
932,6	24,419
933	18,076
933,5	17,933
933,9	16,448
934,3	13,105
934,7	14,619
935,2	15,276
935,6	13,876
936	16,048
936,4	20,448
936,8	19,276
937,3	22,419
937,7	20,333
938,1	18,248
938,5	16,476
939	18,105
939,4	11,19
939,8	9,876
940,2	9,305
940,6	6,733
941,1	9,219
941,5	10,476
941,9	9,99
942,3	10,762
942,8	11,162
943,2	3,59
943,6	5,99
944	3,505
944,4	-0,067
944,9	0,219
945,3	1,648
945,7	0,162
946,1	5,705
946,6	4,79
947	5,99
947,4	6,819
947,8	10,99
948,2	12,876
948,7	12,276
949,1	15,248
949,5	14,105
949,9	16,162
950,3	14,533
950,8	14,448
951,2	11,905
951,6	15,419
952	13,876
952,5	13,905
952,9	11,59
953,3	14,905
953,7	7,533
954,1	4,619
954,6	1,733
955	2,676
955,4	4,248
955,8	8,962
956,2	8,333
956,7	13,962
957,1	19,562
957,5	23,162
957,9	22,99
958,3	18,448
958,8	14,505
959,2	14,676
959,6	19,19
960	17,39
960,5	13,248
960,9	14,533
961,3	16,476
961,7	18,19
962,1	21,733
962,6	14,619
963	15,219
963,4	21,048
963,8	18,133
964,2	18,562
964,7	13,876
965,1	17,105
965,5	21,505
965,9	18,905
966,3	18,705
966,8	15,962
967,2	17,876
967,6	16,79
968	11,133
968,4	11,905
968,9	12,333
969,3	11,019
969,7	12,619
970,1	12,676
970,5	14,476
971	16,79
971,4	13,562
971,8	15,248
972,2	12,59
972,6	13,105
973,1	8,248
973,5	9,19
973,9	1,505
974,3	1,019
974,7	0,733
975,2	3,248
975,6	4,276
976	7,676
976,4	7,962
976,8	10,819
977,3	8,219
977,7	5,733
978,1	6,076
978,5	5,276
978,9	8,305
979,4	8,819
979,8	10,648
980,2	15,962
980,6	18,219
981	13,219
981,5	15,505
981,9	15,048
982,3	12,048
982,7	12,362
983,1	6,105
983,6	3,619
984	3,562
984,4	0,19
984,8	-3,724
985,2	2,876
985,6	1,905
986,1	2,79
986,5	5,105
986,9	4,419
987,3	4,448
987,7	3,39
988,2	-5,267
988,6	-5,61
989	-5,781
989,4	-8,581
989,8	-7,124
990,3	-7,152
990,7	-4,067
991,1	-2,267
991,5	-0,41
991,9	-2,295
992,3	0,648
992,8	2,476
993,2	3,219
993,6	1,476
994	2,448
994,4	4,448
994,9	10,533
995,3	12,962
995,7	13,962
996,1	17,276
996,5	15,99
996,9	20,305
997,4	16,248
997,8	9,962
998,2	9,105
998,6	3,476
999	-0,152
999,5	5,076
999,9	2,39
1000,3	2,762
1000,7	7,048
1001,1	3,962
1001,5	9,762
1002	9,448
1002,4	5,076
1002,8	7,562
1003,2	5,562
1003,6	6,219
1004	8,448
1004,5	5,419
1004,9	3,848
1005,3	3,99
1005,7	1,705
1006,1	0,362
1006,6	0,819
1007	-5,924
1007,4	-7,667
1007,8	-1,01
1008,2	6,105
1008,6	3,762
1009,1	7,476
1009,5	11,333
1009,9	17,59
1010,3	24,933
1010,7	24,133
1011,1	18,705
1011,6	21,39
1012	19,133
1012,4	14,562
1012,8	12,59
1013,2	6,505
1013,6	4,562
1014,1	4,819
1014,5	4,79
1014,9	5,248
1015,3	5,59
1015,7	5,133
1016,1	6,533
1016,6	7,419
1017	4,819
1017,4	2,705
1017,8	4,99
1018,2	4,476
1018,6	4,762
1019,1	10,248
1019,5	8,448
1019,9	12,676
1020,3	16,733
1020,7	20,79
1021,1	21,562
1021,6	20,333
1022	15,019
1022,4	15,619
1022,8	11,733
1023,2	8,076
1023,6	-0,295
1024,1	1,876
1024,5	5,362
1024,9	5,762
1025,3	4,133
1025,7	4,076
1026,1	3,962
1026,6	13,048
1027	8,162
1027,4	6,705
1027,8	6,99
1028,2	8,676
1028,6	13,39
1029	12,105
1029,5	7,79
1029,9	8,533
1030,3	6,133
1030,7	6,733
1031,1	9,848
1031,5	7,39
1032	9,305
1032,4	15,962
1032,8	15,019
1033,2	16,99
1033,6	15,505
1034	9,505
1034,4	9,39
1034,9	14,848
1035,3	10,762
1035,7	13,99
1036,1	16,876
1036,5	12,99
1036,9	14,676
1037,4	16,876
1037,8	8,476
1038,2	5,762
1038,6	2,79
1039	0,219
1039,4	10,819
1039,8	19,305
1040,3	20,133
1040,7	27,133
1041,1	24,248
1041,5	28,076
1041,9	34,133
1042,3	27,419
1042,7	16,448
1043,2	12,876
1043,6	12,276
1044	14,848
1044,4	15,505
1044,8	10,419
1045,2	13,276
1045,6	19,419
1046,1	23,333
1046,5	17,533
1046,9	19,705
1047,3	17,162
1047,7	17,076
1048,1	14,162
1048,5	15,219
1049	10,448
1049,4	11,048
1049,8	7,248
1050,2	6,333
1050,6	1,933
1051	5,876
1051,4	-0,238
1051,9	3,562
1052,3	6,362
1052,7	8,39
1053,1	8,819
1053,5	11,276
1053,9	10,819
1054,3	4,99
1054,8	1,676
1055,2	2,619
1055,6	1,105
1056	-0,067
1056,4	-0,695
1056,8	0,133
1057,2	10,219
1057,6	16,19
1058,1	16,819
1058,5	13,819
1058,9	14,362
1059,3	14,962
1059,7	10,79
1060,1	10,905
1060,5	8,819
1061	5,333
1061,4	10,533
1061,8	12,705
1062,2	17,448
1062,6	15,619
1063	15,019
1063,4	9,848
1063,8	10,333
1064,3	12,276
1064,7	15,333
1065,1	13,448
1065,5	14,419
1065,9	15,705
1066,3	15,076
1066,7	21,276
1067,1	17,705
1067,6	16,448
1068	18,676
1068,4	21,705
1068,8	17,876
1069,2	22,19
1069,6	16,105
1070	16,848
1070,4	13,105
1070,9	8,162
1071,3	10,705
1071,7	12,933
1072,1	10,333
1072,5	12,448
1072,9	13,048
1073,3	13,505
1073,7	13,219
1074,2	9,219
1074,6	6,505
1075	10,476
1075,4	13,276
1075,8	8,933
1076,2	11,905
1076,6	16,019
1077	17,533
1077,5	21,162
1077,9	13,962
1078,3	7,819
1078,7	11,19
1079,1	8,019
1079,5	5,59
1079,9	10,476
1080,3	9,905
1080,7	15,019
1081,2	13,619
1081,6	10,048
1082	15,533
1082,4	14,219
1082,8	11,476
1083,2	8,048
1083,6	6,248
1084	9,476
1084,5	13,048
1084,9	6,133
1085,3	6,019
1085,7	5,419
1086,1	6,99
1086,5	3,533
1086,9	4,019
1087,3	8,648
1087,7	15,019
1088,2	18,419
1088,6	20,505
1089	19,99
1089,4	29,076
1089,8	26,419
1090,2	21,705
1090,6	17,076
1091	10,962
1091,4	4,276
1091,9	3,076
1092,3	1,819
1092,7	0,79
1093,1	1,876
1093,5	4,219
1093,9	6,79
1094,3	9,219
1094,7	7,533
1095,1	7,762
1095,5	14,533
1096	15,476
1096,4	11,962
1096,8	14,39
1097,2	11,819
1097,6	16,562
1098	11,848
1098,4	9,905
1098,8	9,962
1099,2	11,962
1099,6	11,962
1100,1	18,533
1100,5	15,219
1100,9	16,533
1101,3	15,333
1101,7	12,705
1102,1	13,848
1102,5	11,276
1102,9	5,562
1103,3	7,79
1103,7	9,848
1104,2	9,419
1104,6	11,133
1105	8,019
1105,4	9,333
1105,8	9,076
1106,2	7,79
1106,6	5,048
1107	3,39
1107,4	1,633
1107,8	2,133
1108,3	0,383
