Data from Subt2_00100.txt Node
Date: Mon Aug 28 13:36:56 MSK 2023
User: vat
Spectrometer: MAYP114033
Trigger mode: 0
Integration Time (sec): 1,000000E0
Scans to average: 5
Electric dark correction enabled: true
Nonlinearity correction enabled: false
Boxcar width: 3
XAxis mode: Wavelengths
Number of Pixels in Spectrum: 2068
>>>>>Begin Spectral Data<<<<<
199,4	-0,233
199,9	-6,333
200,4	-4,967
200,8	-1,219
201,3	0,667
201,8	4,867
202,2	6,495
202,7	7,038
203,2	15,61
203,6	17,867
204,1	14,952
204,6	15,924
205	13,695
205,5	14,352
206	14,21
206,4	10,438
206,9	11,295
207,4	13,438
207,8	14,295
208,3	12,41
208,8	8,61
209,2	13,495
209,7	14,981
210,2	13,41
210,6	13,81
211,1	18,067
211,5	18,41
212	23,381
212,5	19,81
212,9	19,781
213,4	20,724
213,9	19,352
214,3	15,181
214,8	20,181
215,3	17,524
215,7	17,495
216,2	19,581
216,7	21,667
217,1	17,61
217,6	18,152
218,1	15,867
218,5	17,581
219	18,61
219,5	20,781
219,9	15,581
220,4	25,381
220,9	23,781
221,3	22,981
221,8	23,21
222,3	24,21
222,7	23,581
223,2	22,981
223,6	13,238
224,1	15,238
224,6	18,295
225	16,781
225,5	13,152
226	9,695
226,4	14,381
226,9	22,838
227,4	25,095
227,8	21,238
228,3	19,695
228,8	20,552
229,2	21,724
229,7	20,638
230,2	19,924
230,6	13,238
231,1	12,467
231,5	17,038
232	17,781
232,5	15,667
232,9	19,552
233,4	16,381
233,9	22,752
234,3	24,01
234,8	21,01
235,3	20,81
235,7	21,067
236,2	18,381
236,7	18,067
237,1	19,095
237,6	18,41
238,1	19,924
238,5	22,238
239	22,181
239,4	23,81
239,9	22,952
240,4	16,381
240,8	21,981
241,3	22,324
241,8	22,667
242,2	19,724
242,7	13,324
243,2	17,467
243,6	20,41
244,1	18,581
244,6	13,438
245	8,124
245,5	13,152
245,9	17,638
246,4	15,781
246,9	15,067
247,3	15,152
247,8	20,152
248,3	25,181
248,7	24,695
249,2	25,724
249,7	27,438
250,1	23,81
250,6	18,752
251	16,324
251,5	14,324
252	12,952
252,4	9,324
252,9	8,695
253,4	11,552
253,8	11,581
254,3	15,867
254,8	16,124
255,2	16,21
255,7	17,267
256,1	13,381
256,6	11,667
257,1	13,895
257,5	9,324
258	8,61
258,5	9,981
258,9	7,438
259,4	9,152
259,9	6,81
260,3	3,581
260,8	4,667
261,2	10,181
261,7	12,495
262,2	17,552
262,6	18,638
263,1	21,067
263,6	16,752
264	17,695
264,5	12,41
264,9	7,295
265,4	2,524
265,9	0,295
266,3	-0,333
266,8	8,524
267,3	4,238
267,7	3,752
268,2	6,181
268,7	7,152
269,1	7,781
269,6	10,067
270	3,21
270,5	10,467
271	8,61
271,4	3,781
271,9	2,352
272,4	1,181
272,8	-1,905
273,3	1,038
273,7	-4,562
274,2	-3,362
274,7	-1,276
275,1	1,21
275,6	5,638
276,1	4,924
276,5	4,524
277	8,352
277,4	11,41
277,9	9,638
278,4	10,438
278,8	9,724
279,3	14,524
279,8	18,495
280,2	19,724
280,7	16,81
281,1	20,924
281,6	22,552
282,1	22,238
282,5	22,581
283	19,838
283,4	17,038
283,9	18,095
284,4	17,752
284,8	17,981
285,3	14,152
285,8	11,781
286,2	9,152
286,7	9,524
287,1	10,952
287,6	12,667
288,1	9,81
288,5	12,381
289	11,61
289,5	16,01
289,9	15,267
290,4	13,695
290,8	13,41
291,3	15,667
291,8	13,581
292,2	16,981
292,7	16,524
293,1	17,21
293,6	13,181
294,1	13,238
294,5	12,81
295	15,238
295,5	12,981
295,9	10,924
296,4	10,667
296,8	15,038
297,3	17,667
297,8	18,638
298,2	18,952
298,7	18,952
299,1	19,467
299,6	19,781
300,1	18,895
300,5	15,724
301	14,095
301,5	12,295
301,9	13,238
302,4	15,695
302,8	15,352
303,3	22,238
303,8	22,695
304,2	22,724
304,7	21,867
305,1	19,867
305,6	19,581
306,1	18,781
306,5	9,038
307	6,267
307,4	2,352
307,9	3,867
308,4	0,552
308,8	1,752
309,3	5,324
309,8	8,352
310,2	9,638
310,7	11,724
311,1	12,381
311,6	15,952
312,1	9,667
312,5	4,01
313	4,152
313,4	4,495
313,9	4,81
314,4	4,124
314,8	6,867
315,3	13,781
315,7	20,095
316,2	19,495
316,7	18,838
317,1	17,981
317,6	15,61
318	13,981
318,5	9,152
319	6,438
319,4	12,238
319,9	6,952
320,3	11,495
320,8	12,552
321,3	12,124
321,7	12,552
322,2	8,838
322,6	6,61
323,1	10,981
323,6	7,381
324	5,981
324,5	3,952
324,9	10,867
325,4	14,352
325,9	10,352
326,3	14,438
326,8	13,495
327,2	15,61
327,7	16,267
328,2	15,581
328,6	17,01
329,1	16,41
329,5	11,438
330	15,638
330,5	21,581
330,9	22,01
331,4	16,038
331,8	13,41
332,3	17,21
332,8	21,638
333,2	20,952
333,7	12,324
334,1	13,181
334,6	13,152
335,1	15,095
335,5	12,295
336	11,981
336,4	9,61
336,9	13,61
337,4	11,467
337,8	11,667
338,3	12,238
338,7	12,238
339,2	10,752
339,7	11,552
340,1	10,581
340,6	10,495
341	12,21
341,5	10,267
342	8,095
342,4	2,581
342,9	4,01
343,3	4,81
343,8	11,695
344,2	12,267
344,7	11,924
345,2	16,438
345,6	21,524
346,1	17,81
346,5	18,152
347	12,095
347,5	13,152
347,9	10,552
348,4	9,81
348,8	10,838
349,3	7,124
349,8	8,152
350,2	10,581
350,7	11,41
351,1	19,638
351,6	18,41
352	21,067
352,5	30,981
353	37,467
353,4	45,01
353,9	57,038
354,3	66,724
354,8	79,267
355,3	97,638
355,7	114,41
356,2	131,095
356,6	149,752
357,1	170,781
357,5	195,524
358	232,981
358,5	263,638
358,9	308,81
359,4	357,81
359,8	417,381
360,3	475,838
360,8	545,295
361,2	620,352
361,7	707,552
362,1	796,667
362,6	896,552
363	1003,695
363,5	1122,41
364	1242,438
364,4	1364,352
364,9	1483,381
365,3	1604,238
365,8	1729,924
366,3	1834,524
366,7	1929,181
367,2	2014,381
367,6	2087,838
368,1	2144,895
368,5	2182,21
369	2192,695
369,5	2199,01
369,9	2183,01
370,4	2150,524
370,8	2095,724
371,3	2034,781
371,7	1965,038
372,2	1879,838
372,7	1788,952
373,1	1698,695
373,6	1604,867
374	1509,838
374,5	1411,467
374,9	1315,41
375,4	1219,581
375,9	1131,781
376,3	1040,238
376,8	953,838
377,2	882,81
377,7	812,152
378,2	745,152
378,6	689,295
379,1	624,01
379,5	571,981
380	525,324
380,4	475,867
380,9	438,581
381,4	399,581
381,8	365,695
382,3	344,667
382,7	321,01
383,2	296,067
383,6	279,781
384,1	259,238
384,6	244,638
385	229,267
385,5	214,181
385,9	201,238
386,4	192,124
386,8	174,124
387,3	162,095
387,7	150,524
388,2	142,352
388,7	130,724
389,1	120,638
389,6	115,495
390	113,895
390,5	109,41
390,9	102,21
391,4	96,124
391,9	90,752
392,3	92,01
392,8	87,038
393,2	84,067
393,7	75,952
394,1	74,867
394,6	71,638
395,1	74,181
395,5	67,524
396	63,095
396,4	55,752
396,9	58,638
397,3	58,41
397,8	53,124
398,2	47,267
398,7	44,724
399,2	41,467
399,6	44,01
400,1	33,838
400,5	32,581
401	40,724
401,4	39,61
401,9	42,724
402,4	44,781
402,8	50,124
403,3	57,952
403,7	56,41
404,2	57,695
404,6	61,21
405,1	63,181
405,5	62,324
406	58,724
406,5	59,638
406,9	63,638
407,4	57,324
407,8	58,952
408,3	56,095
408,7	57,381
409,2	52,238
409,6	55,038
410,1	54,295
410,6	54,867
411	52,352
411,5	52,495
411,9	52,067
412,4	58,495
412,8	56,381
413,3	56,667
413,7	60,524
414,2	60,152
414,7	61,01
415,1	65,41
415,6	63,381
416	68,495
416,5	77,495
416,9	79,81
417,4	82,352
417,8	88,21
418,3	91,01
418,8	96,638
419,2	96,467
419,7	89,352
420,1	89,838
420,6	99,438
421	102,21
421,5	106,124
421,9	106,095
422,4	108,095
422,8	111,295
423,3	114,381
423,8	106,981
424,2	105,095
424,7	102,81
425,1	101,01
425,6	101,667
426	105,581
426,5	104,095
426,9	106,181
427,4	112,524
427,9	116,352
428,3	122,638
428,8	125,438
429,2	127,781
429,7	130,781
430,1	132,838
430,6	125,695
431	122,438
431,5	123,981
431,9	125,524
432,4	119,324
432,8	124,267
433,3	126,467
433,8	135,61
434,2	142,895
434,7	148,295
435,1	153,724
435,6	160,552
436	162,895
436,5	173,438
436,9	178,438
437,4	183,695
437,8	186,867
438,3	195,552
438,8	207,467
439,2	215,552
439,7	222,438
440,1	229,124
440,6	235,038
441	243,81
441,5	246,495
441,9	251,81
442,4	258,381
442,8	269,981
443,3	282,038
443,7	291,952
444,2	302,495
444,7	320,581
445,1	337,61
445,6	355,438
446	368,924
446,5	384,438
446,9	406,124
447,4	427,267
447,8	445,552
448,3	462,21
448,7	475,781
449,2	492,181
449,6	507,952
450,1	524,295
450,6	545,381
451	559,524
451,5	584,152
451,9	607,981
452,4	627,581
452,8	651,552
453,3	669,095
453,7	683,952
454,2	709,667
454,6	729,21
455,1	756,067
455,5	785,438
456	814,267
456,4	841,267
456,9	872,81
457,3	899,267
457,8	924,638
458,3	953,152
458,7	984,21
459,2	1013,895
459,6	1052,552
460,1	1088,324
460,5	1120,638
461	1158,381
461,4	1190,295
461,9	1221,01
462,3	1255,838
462,8	1287,095
463,2	1320,21
463,7	1358,667
464,1	1392,267
464,6	1430,124
465	1464,295
465,5	1500,21
466	1544,581
466,4	1583,467
466,9	1623,752
467,3	1661,152
467,8	1702,152
468,2	1749,981
468,7	1795,21
469,1	1834,01
469,6	1866,952
470	1907,495
470,5	1952,981
470,9	1991,952
471,4	2030,181
471,8	2066,124
472,3	2102,495
472,7	2153,267
473,2	2189,581
473,6	2227,295
474,1	2269,781
474,5	2303,381
475	2343,81
475,4	2384,21
475,9	2420,238
476,4	2464,724
476,8	2508,295
477,3	2547,552
477,7	2596,01
478,2	2630,21
478,6	2670,495
479,1	2712,695
479,5	2751,724
480	2791,038
480,4	2833,981
480,9	2866,324
481,3	2905,324
481,8	2934,867
482,2	2970,381
482,7	3002,981
483,1	3027,467
483,6	3057,095
484	3090,61
484,5	3129,238
484,9	3165,952
485,4	3195,181
485,8	3227,524
486,3	3257,752
486,7	3281,124
487,2	3314,238
487,6	3336,267
488,1	3360,552
488,5	3382,952
489	3405,267
489,4	3438,038
489,9	3461,581
490,4	3472,838
490,8	3494,381
491,3	3514,61
491,7	3530,552
492,2	3550,638
492,6	3569,01
493,1	3586,724
493,5	3614,438
494	3636,438
494,4	3652,667
494,9	3676,038
495,3	3686,838
495,8	3699,981
496,2	3722,295
496,7	3738,067
497,1	3751,124
497,6	3768,838
498	3779,61
498,5	3802,01
498,9	3819,238
499,4	3826,01
499,8	3832,467
500,3	3844,581
500,7	3853,324
501,2	3866,638
501,6	3878,895
502,1	3890,552
502,5	3903,21
503	3919,152
503,4	3928,524
503,9	3938,095
504,3	3949,81
504,8	3954,61
505,2	3963,181
505,7	3973,61
506,1	3975,838
506,6	3982,21
507	3996,095
507,5	3999,524
507,9	4009,181
508,4	4017,524
508,8	4022,867
509,3	4037,352
509,7	4046,667
510,2	4052,838
510,6	4058,924
511,1	4067,467
511,5	4067,61
512	4070,867
512,4	4071,952
512,9	4073,638
513,3	4079,038
513,8	4094,181
514,2	4104,667
514,7	4109,638
515,1	4119,238
515,6	4126,41
516	4133,552
516,5	4139,181
516,9	4140,41
517,4	4139,638
517,8	4152,695
518,3	4154,581
518,7	4163,781
519,2	4172,924
519,6	4180,724
520,1	4186,21
520,5	4195,324
521	4194,61
521,4	4206,695
521,9	4211,924
522,3	4217,181
522,8	4217,552
523,2	4221,095
523,7	4220,667
524,1	4224,495
524,6	4229,581
525	4232,295
525,5	4239,152
525,9	4254,981
526,4	4261,352
526,8	4272,095
527,3	4286,752
527,7	4299,124
528,2	4308,381
528,6	4320,895
529,1	4329,21
529,5	4341,238
530	4347,438
530,4	4357,667
530,9	4367,552
531,3	4376,61
531,8	4385,124
532,2	4387,81
532,6	4398,552
533,1	4402,924
533,5	4405,781
534	4410,524
534,4	4410,895
534,9	4415,638
535,3	4428,695
535,8	4439,667
536,2	4452,352
536,7	4460,067
537,1	4468,524
537,6	4488,438
538	4500,695
538,5	4504,924
538,9	4513,952
539,4	4527,124
539,8	4540,295
540,3	4551,724
540,7	4560,238
541,2	4563,61
541,6	4574,41
542,1	4580,61
542,5	4588,181
543	4602,581
543,4	4611,495
543,9	4619,238
544,3	4631,01
544,8	4641,752
545,2	4648,267
545,7	4664,552
546,1	4669,895
546,5	4682,895
547	4692,581
547,4	4701,924
547,9	4711,638
548,3	4724,838
548,8	4725,667
549,2	4738,724
549,7	4741,01
550,1	4747,981
550,6	4760,638
551	4767,01
551,5	4777,867
551,9	4784,095
552,4	4787,038
552,8	4798,01
553,3	4812,067
553,7	4818,21
554,2	4829,238
554,6	4840,495
555,1	4851,724
555,5	4865,152
555,9	4870,552
556,4	4875,01
556,8	4883,21
557,3	4897,21
557,7	4900,952
558,2	4915,895
558,6	4918,638
559,1	4932,438
559,5	4943,524
560	4951,01
560,4	4949,524
560,9	4955,495
561,3	4957,124
561,8	4969,352
562,2	4972,41
562,7	4974,752
563,1	4981,438
563,6	4987,381
564	4990,352
564,4	5000,181
564,9	5004,038
565,3	5006,781
565,8	5015,038
566,2	5019,238
566,7	5026,952
567,1	5033,895
567,6	5036,324
568	5036,124
568,5	5039,124
568,9	5039,838
569,4	5040,324
569,8	5045,724
570,3	5051,267
570,7	5045,695
571,1	5046,981
571,6	5056,152
572	5060,21
572,5	5063,095
572,9	5056,01
573,4	5050,124
573,8	5054,752
574,3	5052,01
574,7	5045,467
575,2	5040,21
575,6	5043,752
576,1	5051,781
576,5	5056,181
576,9	5048,724
577,4	5051,724
577,8	5053,21
578,3	5046,695
578,7	5037,01
579,2	5025,438
579,6	5017,381
580,1	5023,495
580,5	5025,124
581	5010,41
581,4	5019,067
581,9	5015,181
582,3	5013,152
582,7	5003,924
583,2	4995,81
583,6	4983,581
584,1	4980,524
584,5	4967,067
585	4959,181
585,4	4950,924
585,9	4955,61
586,3	4940,067
586,8	4928,838
587,2	4927,324
587,6	4911,895
588,1	4906,61
588,5	4898,952
589	4882,124
589,4	4877,981
589,9	4867,067
590,3	4851,438
590,8	4847,21
591,2	4841,981
591,7	4834,467
592,1	4831,524
592,5	4825,438
593	4823,295
593,4	4818,981
593,9	4819,61
594,3	4812,238
594,8	4802,124
595,2	4793,267
595,7	4788,924
596,1	4776,638
596,6	4765,638
597	4754,038
597,4	4744,552
597,9	4737,695
598,3	4728,638
598,8	4717,381
599,2	4716,61
599,7	4721,438
600,1	4708,838
600,6	4693,21
601	4686,895
601,4	4675,695
601,9	4656,095
602,3	4639,638
602,8	4625,667
603,2	4620,724
603,7	4614,952
604,1	4597,152
604,6	4581,781
605	4582,724
605,4	4569,21
605,9	4551,038
606,3	4539,038
606,8	4524,495
607,2	4518,324
607,7	4503,467
608,1	4490,752
608,6	4491,895
609	4477,838
609,4	4463,238
609,9	4452,638
610,3	4437,781
610,8	4428,352
611,2	4412,352
611,7	4385,838
612,1	4369,867
612,6	4346,352
613	4328,981
613,4	4315,838
613,9	4300,952
614,3	4286,067
614,8	4270,981
615,2	4258,41
615,7	4255,038
616,1	4243,752
616,6	4228,124
617	4210,295
617,4	4192,552
617,9	4180,381
618,3	4164,238
618,8	4139,981
619,2	4123,981
619,7	4110,981
620,1	4096,152
620,5	4078,724
621	4060,924
621,4	4042,01
621,9	4025,038
622,3	4002,467
622,8	3978,952
623,2	3963,495
623,6	3947,61
624,1	3925,324
624,5	3908,238
625	3890,01
625,4	3871,895
625,9	3855,124
626,3	3838,181
626,8	3816,324
627,2	3805,267
627,6	3793,981
628,1	3774,124
628,5	3759,295
629	3740,152
629,4	3720,981
629,9	3710,01
630,3	3690,867
630,7	3669,267
631,2	3653,324
631,6	3635,238
632,1	3615,981
632,5	3594,838
633	3570,295
633,4	3547,324
633,8	3531,895
634,3	3511,295
634,7	3496,01
635,2	3480,095
635,6	3466,095
636,1	3450,152
636,5	3436,724
636,9	3414,295
637,4	3400,724
637,8	3381,924
638,3	3363,381
638,7	3344,381
639,2	3324,438
639,6	3304,238
640	3286,895
640,5	3260,438
640,9	3237,524
641,4	3217,181
641,8	3201,581
642,2	3184,381
642,7	3161,724
643,1	3146,238
643,6	3151,41
644	3141,21
644,5	3134,581
644,9	3119,295
645,3	3106,924
645,8	3093,467
646,2	3076,267
646,7	3047,038
647,1	3027,067
647,6	3003,581
648	2981,524
648,4	2965,095
648,9	2961,438
649,3	2952,067
649,8	2938,467
650,2	2924,924
650,6	2917,581
651,1	2908,438
651,5	2892,267
652	2875,724
652,4	2854,267
652,9	2837,752
653,3	2821,924
653,7	2804,838
654,2	2791,552
654,6	2778,895
655,1	2760,095
655,5	2749,552
655,9	2735,238
656,4	2723,152
656,8	2705,124
657,3	2689,267
657,7	2673,552
658,2	2657,781
658,6	2643,181
659	2624,495
659,5	2607,495
659,9	2590,867
660,4	2571,495
660,8	2555,981
661,2	2536,981
661,7	2517,695
662,1	2505,495
662,6	2490,267
663	2473,067
663,4	2457,61
663,9	2438,924
664,3	2432,467
664,8	2412,381
665,2	2398,724
665,6	2384,381
666,1	2371,181
666,5	2359,467
667	2347,61
667,4	2325,581
667,9	2319,381
668,3	2299,724
668,7	2284,924
669,2	2275,467
669,6	2257,067
670,1	2240,181
670,5	2227,752
670,9	2207,352
671,4	2195,295
671,8	2180,381
672,3	2165,61
672,7	2157,667
673,1	2144,867
673,6	2129,838
674	2116,124
674,5	2102,695
674,9	2087,21
675,3	2071,924
675,8	2057,724
676,2	2038,552
676,7	2023,867
677,1	2009,781
677,5	1998,638
678	1986,552
678,4	1970,581
678,9	1955,41
679,3	1950,352
679,7	1939,152
680,2	1930,381
680,6	1918,838
681,1	1905,41
681,5	1892,495
681,9	1880,581
682,4	1867,41
682,8	1856,152
683,3	1844,495
683,7	1829,381
684,1	1819,095
684,6	1805,181
685	1791,924
685,5	1780,324
685,9	1767,695
686,3	1755,181
686,8	1744,981
687,2	1733,41
687,7	1722,352
688,1	1710,438
688,5	1703,924
689	1692,381
689,4	1681,41
689,9	1669,81
690,3	1660,067
690,7	1647,267
691,2	1632,438
691,6	1616,467
692	1601,781
692,5	1590,01
692,9	1578,21
693,4	1564,552
693,8	1561,295
694,2	1551,781
694,7	1538,981
695,1	1539,81
695,6	1533,495
696	1522,581
696,4	1510,952
696,9	1495,638
697,3	1485,81
697,8	1480,352
698,2	1459,81
698,6	1441,41
699,1	1435,952
699,5	1419,381
699,9	1410,867
700,4	1404,781
700,8	1394,324
701,3	1388,21
701,7	1381,21
702,1	1370,838
702,6	1371,038
703	1366,01
703,5	1351,295
703,9	1339,381
704,3	1328,067
704,8	1321,838
705,2	1310,924
705,6	1300,238
706,1	1287,324
706,5	1285,695
707	1278,81
707,4	1274,381
707,8	1262,152
708,3	1253,895
708,7	1249,467
709,2	1244,352
709,6	1230,352
710	1222,324
710,5	1214,295
710,9	1207,581
711,3	1199,067
711,8	1184,21
712,2	1171,552
712,7	1161,924
713,1	1150,467
713,5	1136,381
714	1129,124
714,4	1119,752
714,8	1112,267
715,3	1107,638
715,7	1100,238
716,2	1098,41
716,6	1091,21
717	1081,381
717,5	1072,695
717,9	1070,352
718,3	1061,81
718,8	1060,267
719,2	1051,267
719,7	1049,21
720,1	1042,781
720,5	1035,667
721	1018,238
721,4	1015,895
721,8	1002,695
722,3	991,924
722,7	979,895
723,2	967,295
723,6	961,067
724	958,21
724,5	945,467
724,9	942,724
725,3	934,295
725,8	924,952
726,2	919,695
726,7	916,61
727,1	910,124
727,5	902,181
728	889,495
728,4	883,152
728,8	876,867
729,3	874,61
729,7	865,81
730,1	856,581
730,6	852,838
731	850,981
731,5	846,867
731,9	847,981
732,3	845,524
732,8	842,267
733,2	842,352
733,6	838,867
734,1	835,581
734,5	829,524
734,9	819,067
735,4	812,752
735,8	800,01
736,3	794,495
736,7	785,152
737,1	777,667
737,6	774,324
738	774,01
738,4	767,81
738,9	769,181
739,3	766,038
739,7	765,067
740,2	762,781
740,6	758,01
741,1	749,295
741,5	741,124
741,9	737,724
742,4	731,467
742,8	727,01
743,2	722,81
743,7	718,41
744,1	718,038
744,5	718,438
745	707,467
745,4	701,724
745,8	696,495
746,3	691,067
746,7	686,524
747,2	676,952
747,6	670,952
748	673,295
748,5	668,695
748,9	662,638
749,3	651,581
749,8	647,324
750,2	643,381
750,6	639,01
751,1	629,952
751,5	627,01
751,9	621,21
752,4	620,981
752,8	615,667
753,3	611,524
753,7	599,067
754,1	594,152
754,6	591,638
755	590,01
755,4	590,095
755,9	587,324
756,3	584,724
756,7	586,981
757,2	581,552
757,6	576,181
758	571,324
758,5	566,181
758,9	560,181
759,3	553,781
759,8	547,952
760,2	545,181
760,6	544,181
761,1	536,095
761,5	532,61
761,9	530,095
762,4	527,524
762,8	524,61
763,3	526,61
763,7	514,124
764,1	515,067
764,6	509,467
765	499,838
765,4	495,752
765,9	493,724
766,3	488,295
766,7	490,581
767,2	490,21
767,6	490,81
768	494,295
768,5	492,295
768,9	490,638
769,3	483,267
769,8	482,638
770,2	477,21
770,6	472,038
771,1	468,21
771,5	464,381
771,9	464,21
772,4	462,867
772,8	457,324
773,2	450,267
773,7	442,724
774,1	440,467
774,5	433,838
775	424,981
775,4	421,181
775,8	415,667
776,3	417,695
776,7	419,21
777,1	413,21
777,6	413,067
778	415,495
778,4	413,381
778,9	414,467
779,3	407,752
779,7	404,895
780,2	407,552
780,6	401,095
781	395,438
781,5	396,524
781,9	391,867
782,3	388,495
782,8	386,181
783,2	378,124
783,6	380,638
784,1	375,952
784,5	371,21
784,9	368,867
785,4	370,124
785,8	366,267
786,2	366,038
786,7	362,952
787,1	365,552
787,5	361,895
788	355,638
788,4	351,067
788,8	343,552
789,3	337,724
789,7	337,981
790,1	330,238
790,6	330,095
791	333,467
791,4	331,495
791,9	332,867
792,3	334,467
792,7	329,152
793,2	330,324
793,6	326,667
794	320,495
794,5	315,981
794,9	314,981
795,3	312,495
795,8	312,238
796,2	306,638
796,6	303,838
797,1	292,495
797,5	293,467
797,9	289,324
798,4	283,381
798,8	281,781
799,2	283,581
799,7	278,867
800,1	285,067
800,5	280,41
801	278,81
801,4	284,752
801,8	278,667
802,2	274,781
802,7	276,067
803,1	276,981
803,5	276,238
804	276,324
804,4	267,238
804,8	269,667
805,3	270,952
805,7	265,438
806,1	264,781
806,6	257,81
807	257,124
807,4	257,095
807,9	255,21
808,3	250,124
808,7	250,124
809,2	247,552
809,6	251,581
810	250,238
810,4	245,752
810,9	239,181
811,3	234,638
811,7	236,781
812,2	233,095
812,6	228,667
813	218,895
813,5	212,838
813,9	209,752
814,3	211,781
814,8	206,381
815,2	207,381
815,6	205,838
816,1	207,124
816,5	211,895
816,9	208,638
817,3	205,124
817,8	201,381
818,2	191,952
818,6	191,01
819,1	193,41
819,5	186,267
819,9	188,352
820,4	185,41
820,8	183,495
821,2	189,981
821,7	187,924
822,1	182,81
822,5	187,895
822,9	184,667
823,4	188,952
823,8	188,981
824,2	185,495
824,7	187,61
825,1	187,01
825,5	181,01
826	182,124
826,4	178,41
826,8	180,067
827,3	179,267
827,7	176,752
828,1	177,952
828,5	176,724
829	177,895
829,4	172,781
829,8	170,238
830,3	167,124
830,7	166,038
831,1	165,038
831,6	169,067
832	165,838
832,4	164,81
832,8	157,981
833,3	155,752
833,7	152,324
834,1	145,981
834,6	141,695
835	141,895
835,4	142,838
835,8	146,781
836,3	147,81
836,7	147,295
837,1	149,352
837,6	148,095
838	145,524
838,4	144,752
838,9	139,81
839,3	145,038
839,7	144,895
840,1	141,038
840,6	141,095
841	142,038
841,4	137,324
841,9	140,038
842,3	131,552
842,7	126,552
843,1	129,552
843,6	131,638
844	129,695
844,4	130,552
844,9	125,438
845,3	126,724
845,7	127,981
846,2	124,981
846,6	119,838
847	115,667
847,4	109,21
847,9	111,495
848,3	108,124
848,7	105,381
849,2	105,524
849,6	103,61
850	106,952
850,4	108,867
850,9	107,952
851,3	109,952
851,7	110,01
852,2	109,495
852,6	104,181
853	100,324
853,4	99,638
853,9	101,895
854,3	101,152
854,7	101,01
855,2	104,781
855,6	109,124
856	107,924
856,4	113,095
856,9	113,895
857,3	107,638
857,7	108,924
858,2	101,724
858,6	99,867
859	99,895
859,4	96,952
859,9	95,01
860,3	98,638
860,7	97,781
861,1	98,01
861,6	101,781
862	100,667
862,4	97,067
862,9	93,552
863,3	89,895
863,7	88,267
864,1	86,467
864,6	85,238
865	88,381
865,4	89,01
865,9	86,724
866,3	93,152
866,7	90,324
867,1	83,41
867,6	85,352
868	86,952
868,4	85,381
868,8	85,295
869,3	79,952
869,7	80,41
870,1	87,781
870,6	79,895
871	147,238
871,4	145,695
871,8	147,81
872,3	142,152
872,7	144,01
873,1	139,581
873,5	143,552
874	65,524
874,4	65,01
874,8	65,781
875,3	72,638
875,7	66,21
876,1	67,838
876,5	66,752
877	71,61
877,4	74,467
877,8	72,381
878,2	67,467
878,7	75,552
879,1	75,952
879,5	75,01
879,9	75,724
880,4	77,867
880,8	76,067
881,2	78,295
881,7	71,867
882,1	75,752
882,5	78,981
882,9	73,181
883,4	73,581
883,8	75,324
884,2	68,295
884,6	70,667
885,1	65,438
885,5	61,61
885,9	67,095
886,3	62,01
886,8	59,152
887,2	62,324
887,6	58,667
888	58,638
888,5	55,61
888,9	53,067
889,3	55,981
889,8	54,667
890,2	52,895
890,6	52,81
891	52,067
891,5	55,352
891,9	55,467
892,3	51,781
892,7	56,724
893,2	59,638
893,6	63,095
894	62,238
894,4	60,552
894,9	56,61
895,3	58,181
895,7	52,81
896,1	52,01
896,6	49,581
897	45,752
897,4	48,381
897,8	49,752
898,3	48,981
898,7	44,152
899,1	44,724
899,5	43,552
900	44,124
900,4	41,41
900,8	41,581
901,2	38,981
901,7	42,924
902,1	45,638
902,5	44,181
902,9	45,267
903,4	44,61
903,8	47,752
904,2	46,467
904,6	44,952
905,1	44,61
905,5	46,267
905,9	45,924
906,3	43,438
906,8	40,467
907,2	41,81
907,6	46,581
908	38,752
908,5	40,695
908,9	43,067
909,3	43,724
909,7	41,724
910,2	46,81
910,6	38,01
911	38,467
911,4	36,524
911,9	32,81
912,3	31,867
912,7	30,238
913,1	20,438
913,6	23,781
914	29,21
914,4	27,181
914,8	27,81
915,3	24,981
915,7	30,495
916,1	39,838
916,5	44,781
916,9	41,781
917,4	42,238
917,8	40,952
918,2	43,21
918,6	41,352
919,1	35,752
919,5	34,581
919,9	36,352
920,3	36,267
920,8	39,838
921,2	38,095
921,6	38,724
922	38,438
922,5	34,124
922,9	29,152
923,3	29,038
923,7	29,41
924,2	30,324
924,6	27,61
925	27,867
925,4	27,038
925,8	33,41
926,3	39,181
926,7	36,981
927,1	36,467
927,5	38,838
928	37,895
928,4	39,667
928,8	33,952
929,2	26,81
929,7	29,01
930,1	31,324
930,5	30,41
930,9	30,667
931,3	29,152
931,8	30,638
932,2	33,41
932,6	29,067
933	27,495
933,5	29,524
933,9	27,41
934,3	28,695
934,7	27,41
935,2	28,61
935,6	28,838
936	25,752
936,4	27,524
936,8	30,438
937,3	30,638
937,7	29,438
938,1	19,324
938,5	16,895
939	22,381
939,4	17,467
939,8	17,295
940,2	16,21
940,6	16,467
941,1	24,81
941,5	28,61
941,9	27,21
942,3	26,524
942,8	30,924
943,2	32,381
943,6	37,038
944	33,295
944,4	34,581
944,9	34,924
945,3	31,981
945,7	26,438
946,1	28,181
946,6	26,41
947	28,952
947,4	24,638
947,8	27,838
948,2	28,924
948,7	23,667
949,1	23,867
949,5	22,438
949,9	23,295
950,3	21,981
950,8	20,838
951,2	22,581
951,6	28,952
952	25,067
952,5	20,124
952,9	17,495
953,3	19,267
953,7	16,352
954,1	13,552
954,6	8,781
955	8,581
955,4	15,352
955,8	17,81
956,2	22,095
956,7	20,695
957,1	20,781
957,5	19,41
957,9	23,667
958,3	19,124
958,8	19,038
959,2	17,552
959,6	19,581
960	21,095
960,5	20,295
960,9	19,838
961,3	23,467
961,7	21,752
962,1	21,01
962,6	16,752
963	16,838
963,4	23,981
963,8	21,295
964,2	21,61
964,7	21,324
965,1	15,752
965,5	18,895
965,9	22,152
966,3	18,324
966,8	20,267
967,2	14,41
967,6	17,381
968	21,838
968,4	17,695
968,9	19,124
969,3	19,81
969,7	17,381
970,1	19,467
970,5	14,352
971	11,752
971,4	16,495
971,8	10,41
972,2	13,981
972,6	14,295
973,1	14,838
973,5	17,552
973,9	20,81
974,3	17,867
974,7	18,895
975,2	17,695
975,6	20,381
976	19,895
976,4	20,495
976,8	18,524
977,3	17,41
977,7	17,524
978,1	18,752
978,5	14,01
978,9	13,238
979,4	9,952
979,8	11,952
980,2	13,867
980,6	14,095
981	13,381
981,5	12,267
981,9	15,752
982,3	19,867
982,7	18,581
983,1	17,438
983,6	16,981
984	9,695
984,4	15,552
984,8	17,924
985,2	13,952
985,6	16,438
986,1	17,952
986,5	13,352
986,9	19,01
987,3	12,781
987,7	8,61
988,2	12,781
988,6	13,381
989	12,01
989,4	18,924
989,8	17,752
990,3	20,438
990,7	23,81
991,1	21,667
991,5	18,495
991,9	19,61
992,3	17,81
992,8	21,352
993,2	22,695
993,6	16,61
994	12,495
994,4	19,152
994,9	20,038
995,3	24,838
995,7	22,724
996,1	20,124
996,5	22,124
996,9	24,295
997,4	16,495
997,8	17,895
998,2	11,438
998,6	11,867
999	14,724
999,5	15,181
999,9	16,981
1000,3	22,295
1000,7	21,552
1001,1	20,495
1001,5	20,21
1002	20,238
1002,4	21,181
1002,8	20,581
1003,2	19,81
1003,6	22,01
1004	19,581
1004,5	17,724
1004,9	12,924
1005,3	11,61
1005,7	12,038
1006,1	14,067
1006,6	8,352
1007	11,895
1007,4	8,781
1007,8	16,295
1008,2	17,895
1008,6	20,21
1009,1	15,324
1009,5	17,01
1009,9	21,581
1010,3	19,495
1010,7	17,095
1011,1	18,181
1011,6	17,181
1012	17,924
1012,4	20,181
1012,8	16,524
1013,2	21,952
1013,6	22,152
1014,1	18,724
1014,5	14,038
1014,9	12,352
1015,3	8,952
1015,7	9,752
1016,1	8,467
1016,6	4,038
1017	11,038
1017,4	13,981
1017,8	14,324
1018,2	12,467
1018,6	15,867
1019,1	15,381
1019,5	18,381
1019,9	14,695
1020,3	12,381
1020,7	11,781
1021,1	13,524
1021,6	9,095
1022	11,41
1022,4	10,667
1022,8	8,124
1023,2	8,181
1023,6	7,181
1024,1	3,495
1024,5	4,267
1024,9	4,667
1025,3	6,952
1025,7	13,352
1026,1	19,981
1026,6	26,838
1027	32,181
1027,4	36,181
1027,8	32,924
1028,2	29,41
1028,6	26,667
1029	17,467
1029,5	14,61
1029,9	16,152
1030,3	15,295
1030,7	19,524
1031,1	21,581
1031,5	19,01
1032	20,781
1032,4	17,41
1032,8	15,924
1033,2	10,667
1033,6	8,181
1034	9,267
1034,4	11,181
1034,9	13,895
1035,3	15,924
1035,7	18,181
1036,1	22,81
1036,5	24,952
1036,9	26,81
1037,4	26,695
1037,8	27,01
1038,2	21,867
1038,6	19,352
1039	16,838
1039,4	19,838
1039,8	16,295
1040,3	19,838
1040,7	18,724
1041,1	19,981
1041,5	23,295
1041,9	21,152
1042,3	17,238
1042,7	12,267
1043,2	7,552
1043,6	12,324
1044	16,524
1044,4	13,81
1044,8	15,752
1045,2	15,438
1045,6	22,781
1046,1	22,01
1046,5	19,267
1046,9	18,867
1047,3	20,952
1047,7	23,781
1048,1	18,238
1048,5	17,21
1049	22,267
1049,4	24,324
1049,8	25,181
1050,2	26,638
1050,6	24,352
1051	25,581
1051,4	22,924
1051,9	13,095
1052,3	11,038
1052,7	13,638
1053,1	10,638
1053,5	9,524
1053,9	14,61
1054,3	14,495
1054,8	17,438
1055,2	15,61
1055,6	12,124
1056	13,438
1056,4	12,067
1056,8	16,381
1057,2	17,01
1057,6	21,152
1058,1	21,924
1058,5	19,638
1058,9	17,438
1059,3	20,038
1059,7	15,01
1060,1	16,152
1060,5	12,152
1061	11,981
1061,4	17,295
1061,8	18,895
1062,2	19,552
1062,6	21,038
1063	19,524
1063,4	21,924
1063,8	22,552
1064,3	19,181
1064,7	20,295
1065,1	18,695
1065,5	18,895
1065,9	20,581
1066,3	20,752
1066,7	18,695
1067,1	16,924
1067,6	14,267
1068	15,381
1068,4	11,638
1068,8	10,038
1069,2	9,21
1069,6	8,438
1070	11,181
1070,4	11,552
1070,9	10,381
1071,3	14,581
1071,7	15,81
1072,1	12,724
1072,5	13,381
1072,9	12,21
1073,3	15,381
1073,7	15,752
1074,2	10,952
1074,6	6,438
1075	7,667
1075,4	6,467
1075,8	5,552
1076,2	5,181
1076,6	5,895
1077	5,295
1077,5	9,838
1077,9	7,638
1078,3	6,124
1078,7	2,724
1079,1	3,21
1079,5	0,467
1079,9	3,581
1080,3	1,924
1080,7	6,924
1081,2	14,438
1081,6	17,524
1082	17,924
1082,4	14,61
1082,8	14,61
1083,2	18,038
1083,6	16,295
1084	11,781
1084,5	14,152
1084,9	6,638
1085,3	7,238
1085,7	7,867
1086,1	4,952
1086,5	5,038
1086,9	8,495
1087,3	5,695
1087,7	6,781
1088,2	11,838
1088,6	8,61
1089	4,267
1089,4	3,981
1089,8	3,238
1090,2	3,152
1090,6	3,01
1091	4,524
1091,4	5,638
1091,9	12,495
1092,3	14,124
1092,7	14,467
1093,1	14,61
1093,5	16,667
1093,9	17,638
1094,3	16,752
1094,7	13,581
1095,1	14,467
1095,5	8,295
1096	12,067
1096,4	9,667
1096,8	6,095
1097,2	12,124
1097,6	14,238
1098	15,467
1098,4	19,952
1098,8	19,152
1099,2	17,324
1099,6	15,524
1100,1	12,581
1100,5	12,21
1100,9	10,667
1101,3	12,01
1101,7	6,752
1102,1	11,61
1102,5	9,381
1102,9	3,981
1103,3	1,124
1103,7	0,124
1104,2	-0,076
1104,6	9,295
1105	8,81
1105,4	13,638
1105,8	16,238
1106,2	16,267
1106,6	14,152
1107	11,01
1107,4	4,167
1107,8	2,867
1108,3	-0,783
