Data from Subt2_00107.txt Node
Date: Mon Aug 28 13:39:16 MSK 2023
User: vat
Spectrometer: MAYP114033
Trigger mode: 0
Integration Time (sec): 1,000000E0
Scans to average: 5
Electric dark correction enabled: true
Nonlinearity correction enabled: false
Boxcar width: 3
XAxis mode: Wavelengths
Number of Pixels in Spectrum: 2068
>>>>>Begin Spectral Data<<<<<
199,4	-1,383
199,9	-2,153
200,4	-1,433
200,8	0,367
201,3	1,338
201,8	5,795
202,2	8,081
202,7	9,138
203,2	14,081
203,6	17,195
204,1	19,281
204,6	21,395
205	18,51
205,5	19,367
206	23,052
206,4	20,338
206,9	21,824
207,4	18,624
207,8	16,024
208,3	16,967
208,8	14,167
209,2	14,081
209,7	14,481
210,2	10,595
210,6	12,652
211,1	17,852
211,5	14,995
212	18,481
212,5	14,567
212,9	13,367
213,4	14,824
213,9	12,852
214,3	10,481
214,8	14,624
215,3	15,452
215,7	15,281
216,2	15,538
216,7	17,995
217,1	15,138
217,6	13,424
218,1	13,91
218,5	10,738
219	11,31
219,5	16,595
219,9	13,195
220,4	22,31
220,9	22,338
221,3	19,138
221,8	18,71
222,3	23,967
222,7	22,51
223,2	22,938
223,6	16,967
224,1	24,395
224,6	29,31
225	31,138
225,5	27,624
226	23,938
226,4	27,224
226,9	29,624
227,4	28,881
227,8	26,195
228,3	19,71
228,8	17,938
229,2	21,11
229,7	17,938
230,2	20,195
230,6	13,824
231,1	14,795
231,5	22,595
232	24,31
232,5	19,424
232,9	26,367
233,4	22,252
233,9	26,652
234,3	27,91
234,8	26,881
235,3	31,938
235,7	37,795
236,2	27,652
236,7	25,081
237,1	24,938
237,6	21,567
238,1	21,024
238,5	16,795
239	16,967
239,4	22,852
239,9	24,138
240,4	22,538
240,8	23,167
241,3	22,967
241,8	18,71
242,2	12,938
242,7	10,995
243,2	14,824
243,6	18,767
244,1	16,767
244,6	13,795
245	18,567
245,5	21,338
245,9	23,795
246,4	19,567
246,9	15,224
247,3	18,195
247,8	20,652
248,3	22,567
248,7	23,767
249,2	21,138
249,7	25,51
250,1	23,224
250,6	18,995
251	17,052
251,5	10,567
252	8,31
252,4	9,081
252,9	6,71
253,4	10,11
253,8	14,252
254,3	15,967
254,8	20,795
255,2	20,081
255,7	16,138
256,1	19,338
256,6	16,51
257,1	17,938
257,5	16,252
258	10,138
258,5	13,538
258,9	14,767
259,4	15,052
259,9	17,081
260,3	13,852
260,8	14,595
261,2	23,281
261,7	19,052
262,2	19,338
262,6	21,852
263,1	19,367
263,6	17,424
264	22,167
264,5	19,281
264,9	23,938
265,4	24,595
265,9	17,195
266,3	13,738
266,8	15,51
267,3	10,738
267,7	9,71
268,2	7,567
268,7	10,31
269,1	10,595
269,6	15,995
270	11,824
270,5	16,595
271	13,595
271,4	11,595
271,9	5,738
272,4	5,91
272,8	4,738
273,3	10,538
273,7	9,595
274,2	11,11
274,7	12,681
275,1	17,681
275,6	22,338
276,1	21,481
276,5	20,138
277	16,938
277,4	18,195
277,9	15,281
278,4	12,138
278,8	10,138
279,3	13,224
279,8	15,652
280,2	20,652
280,7	19,91
281,1	21,824
281,6	23,424
282,1	22,195
282,5	18,967
283	16,824
283,4	11,481
283,9	9,595
284,4	8,138
284,8	6,938
285,3	5,281
285,8	6,367
286,2	5,167
286,7	4,395
287,1	5,995
287,6	7,138
288,1	5,51
288,5	9,424
289	6,281
289,5	6,452
289,9	7,881
290,4	7,881
290,8	12,452
291,3	19,338
291,8	17,538
292,2	22,652
292,7	24,281
293,1	25,51
293,6	22,452
294,1	20,452
294,5	16,595
295	14,681
295,5	14,824
295,9	16,452
296,4	17,681
296,8	20,938
297,3	24,424
297,8	24,252
298,2	27,767
298,7	23,738
299,1	21,538
299,6	19,395
300,1	23,167
300,5	19,795
301	22,538
301,5	22,91
301,9	22,167
302,4	18,024
302,8	19,167
303,3	20,681
303,8	23,167
304,2	22,395
304,7	21,71
305,1	21,852
305,6	28,252
306,1	24,51
306,5	16,281
307	12,138
307,4	7,652
307,9	8,795
308,4	9,91
308,8	6,081
309,3	10,367
309,8	11,995
310,2	10,795
310,7	14,91
311,1	10,767
311,6	9,338
312,1	7,938
312,5	8,367
313	10,624
313,4	13,91
313,9	12,081
314,4	10,51
314,8	17,424
315,3	21,767
315,7	21,281
316,2	20,052
316,7	17,195
317,1	20,395
317,6	21,424
318	16,252
318,5	14,71
319	16,91
319,4	19,395
319,9	18,167
320,3	14,51
320,8	16,224
321,3	15,938
321,7	16,367
322,2	9,138
322,6	9,738
323,1	10,224
323,6	12,281
324	10,481
324,5	13,167
324,9	20,452
325,4	23,024
325,9	21,138
326,3	21,795
326,8	20,881
327,2	23,681
327,7	20,367
328,2	18,424
328,6	20,51
329,1	17,91
329,5	20,795
330	20,081
330,5	22,31
330,9	22,567
331,4	15,138
331,8	11,452
332,3	17,652
332,8	17,424
333,2	20,71
333,7	15,195
334,1	11,024
334,6	10,452
335,1	14,852
335,5	9,252
336	9,567
336,4	6,71
336,9	8,767
337,4	14,395
337,8	13,995
338,3	12,995
338,7	11,31
339,2	6,167
339,7	8,052
340,1	7,11
340,6	7,681
341	7,738
341,5	5,624
342	10,824
342,4	8,881
342,9	11,024
343,3	11,595
343,8	10,31
344,2	15,652
344,7	16,538
345,2	14,852
345,6	21,024
346,1	16,881
346,5	21,738
347	21,138
347,5	20,967
347,9	18,081
348,4	18,452
348,8	19,71
349,3	16,767
349,8	10,681
350,2	15,252
350,7	13,652
351,1	19,681
351,6	19,595
352	17,738
352,5	28,824
353	35,51
353,4	36,424
353,9	44,795
354,3	55,395
354,8	59,881
355,3	75,938
355,7	86,138
356,2	99,852
356,6	115,481
357,1	133,595
357,5	155,424
358	188,995
358,5	216,624
358,9	253,424
359,4	296,881
359,8	341,681
360,3	389,881
360,8	442,195
361,2	501,367
361,7	572,195
362,1	644,11
362,6	720,11
363	811,738
363,5	907,338
364	1002,081
364,4	1102,024
364,9	1199,052
365,3	1301,31
365,8	1404,367
366,3	1488,595
366,7	1562,767
367,2	1636,138
367,6	1698,795
368,1	1744,052
368,5	1767,167
369	1773,31
369,5	1782,967
369,9	1781,795
370,4	1756,224
370,8	1711,195
371,3	1662,71
371,7	1610,052
372,2	1551,281
372,7	1475,11
373,1	1394,652
373,6	1316,452
374	1237,767
374,5	1156,11
374,9	1078,338
375,4	999,624
375,9	932,452
376,3	858,738
376,8	792,71
377,2	736,281
377,7	683,395
378,2	627,338
378,6	578,824
379,1	522,51
379,5	480,91
380	439,852
380,4	400,224
380,9	365,081
381,4	338,738
381,8	312,567
382,3	293,024
382,7	275,767
383,2	257,024
383,6	245,052
384,1	232,024
384,6	218,081
385	206,367
385,5	193,452
385,9	180,538
386,4	175,224
386,8	162,881
387,3	150,167
387,7	141,681
388,2	130,51
388,7	121,91
389,1	113,71
389,6	102,967
390	94,652
390,5	91,367
390,9	81,452
391,4	76,024
391,9	71,881
392,3	70,824
392,8	68,767
393,2	66,052
393,7	61,795
394,1	60,624
394,6	61,852
395,1	67,224
395,5	66,481
396	64,338
396,4	62,652
396,9	60,31
397,3	61,881
397,8	55,824
398,2	43,71
398,7	39,367
399,2	34,738
399,6	35,652
400,1	32,652
400,5	31,281
401	38,595
401,4	43,252
401,9	45,91
402,4	45,452
402,8	51,795
403,3	53,624
403,7	52,652
404,2	47,938
404,6	50,11
405,1	51,195
405,5	55,052
406	51,624
406,5	51,795
406,9	55,538
407,4	55,967
407,8	55,11
408,3	53,624
408,7	52,652
409,2	51,31
409,6	54,995
410,1	55,567
410,6	54,138
411	53,167
411,5	49,11
411,9	52,281
412,4	56,281
412,8	58,281
413,3	54,738
413,7	62,367
414,2	68,31
414,7	75,338
415,1	78,967
415,6	74,852
416	79,652
416,5	91,681
416,9	94,281
417,4	97,852
417,8	100,224
418,3	101,624
418,8	110,424
419,2	109,224
419,7	104,938
420,1	100,195
420,6	101,224
421	107,424
421,5	110,424
421,9	106,681
422,4	109,424
422,8	110,538
423,3	117,995
423,8	117,824
424,2	115,738
424,7	118,681
425,1	118,338
425,6	119,767
426	120,481
426,5	120,024
426,9	119,11
427,4	123,452
427,9	122,681
428,3	127,91
428,8	126,624
429,2	127,71
429,7	129,595
430,1	127,452
430,6	122,11
431	120,881
431,5	120,938
431,9	125,71
432,4	125,852
432,8	128,452
433,3	135,081
433,8	139,11
434,2	144,938
434,7	146,652
435,1	151,767
435,6	158,252
436	160,452
436,5	167,338
436,9	171,652
437,4	176,91
437,8	185,452
438,3	192,252
438,8	195,995
439,2	203,024
439,7	207,652
440,1	214,852
440,6	218,338
441	224,767
441,5	229,881
441,9	236,767
442,4	247,881
442,8	257,852
443,3	270,167
443,7	277,052
444,2	289,595
444,7	300,052
445,1	316,138
445,6	327,024
446	342,052
446,5	357,995
446,9	377,938
447,4	388,424
447,8	403,081
448,3	417,967
448,7	429,91
449,2	440,31
449,6	453,367
450,1	467,538
450,6	487,224
451	506,481
451,5	525,252
451,9	544,824
452,4	563,767
452,8	581,138
453,3	604,652
453,7	624,481
454,2	644,024
454,6	665,852
455,1	692,338
455,5	719,195
456	744,138
456,4	765,595
456,9	794,881
457,3	817,367
457,8	839,31
458,3	861,167
458,7	891,167
459,2	919,224
459,6	949,195
460,1	973,852
460,5	1003,452
461	1032,538
461,4	1063,652
461,9	1093,795
462,3	1128,738
462,8	1157,652
463,2	1189,11
463,7	1224,567
464,1	1255,167
464,6	1289,252
465	1313,281
465,5	1337,795
466	1375,538
466,4	1410,424
466,9	1443,281
467,3	1477,738
467,8	1511,767
468,2	1547,51
468,7	1589,31
469,1	1619,852
469,6	1650,881
470	1686,424
470,5	1721,767
470,9	1754,938
471,4	1793,795
471,8	1826,824
472,3	1863,967
472,7	1903,681
473,2	1938,424
473,6	1975,395
474,1	2010,424
474,5	2043,652
475	2078,31
475,4	2111,281
475,9	2143,824
476,4	2176,138
476,8	2211,624
477,3	2245,938
477,7	2285,938
478,2	2324,71
478,6	2353,024
479,1	2390,767
479,5	2432,052
480	2464,195
480,4	2497,51
480,9	2525,852
481,3	2555,71
481,8	2593,652
482,2	2623,195
482,7	2649,481
483,1	2672,652
483,6	2706,167
484	2732,11
484,5	2762,652
484,9	2791,852
485,4	2823,31
485,8	2851,881
486,3	2889,795
486,7	2913,024
487,2	2949,795
487,6	2964,51
488,1	2987,681
488,5	3005,452
489	3029,195
489,4	3052,052
489,9	3071,024
490,4	3086,938
490,8	3108,967
491,3	3123,681
491,7	3138,481
492,2	3155,567
492,6	3168,738
493,1	3193,51
493,5	3207,824
494	3229,595
494,4	3249,852
494,9	3266,967
495,3	3280,91
495,8	3298,367
496,2	3313,91
496,7	3333,567
497,1	3347,338
497,6	3367,195
498	3383,224
498,5	3397,938
498,9	3412,738
499,4	3415,738
499,8	3428,595
500,3	3439,081
500,7	3446,51
501,2	3458,567
501,6	3467,11
502,1	3471,224
502,5	3485,367
503	3493,481
503,4	3506,081
503,9	3517,224
504,3	3528,738
504,8	3540,738
505,2	3556,767
505,7	3563,424
506,1	3565,224
506,6	3566,11
507	3572,852
507,5	3574,081
507,9	3577,538
508,4	3578,652
508,8	3587,367
509,3	3598,167
509,7	3602,738
510,2	3614,652
510,6	3625,081
511,1	3636,967
511,5	3647,567
512	3651,338
512,4	3656,91
512,9	3675,452
513,3	3674,481
513,8	3687,052
514,2	3689,624
514,7	3694,224
515,1	3707,252
515,6	3716,338
516	3716,195
516,5	3723,595
516,9	3724,538
517,4	3728,938
517,8	3735,395
518,3	3740,652
518,7	3749,367
519,2	3762,252
519,6	3767,567
520,1	3778,767
520,5	3782,538
521	3789,738
521,4	3791,767
521,9	3795,395
522,3	3791,652
522,8	3795,195
523,2	3789,31
523,7	3799,024
524,1	3799,681
524,6	3809,938
525	3821,167
525,5	3834,481
525,9	3849,424
526,4	3863,681
526,8	3870,967
527,3	3886,91
527,7	3892,967
528,2	3894,881
528,6	3906,51
529,1	3914,11
529,5	3923,595
530	3937,595
530,4	3946,452
530,9	3953,052
531,3	3960,024
531,8	3961,767
532,2	3964,995
532,6	3971,338
533,1	3968,938
533,5	3965,852
534	3971,624
534,4	3979,081
534,9	3990,452
535,3	4004,195
535,8	4026,281
536,2	4036,024
536,7	4052,91
537,1	4070,852
537,6	4079,395
538	4088,91
538,5	4098,395
538,9	4094,91
539,4	4110,624
539,8	4112,795
540,3	4117,367
540,7	4128,138
541,2	4133,252
541,6	4138,31
542,1	4150,452
542,5	4150,995
543	4162,338
543,4	4164,824
543,9	4174,567
544,3	4183,71
544,8	4199,167
545,2	4205,852
545,7	4225,567
546,1	4239,138
546,5	4254,167
547	4263,995
547,4	4275,452
547,9	4272,538
548,3	4279,652
548,8	4282,367
549,2	4293,767
549,7	4297,995
550,1	4297,167
550,6	4308,052
551	4324,167
551,5	4333,31
551,9	4342,71
552,4	4342,11
552,8	4360,624
553,3	4375,138
553,7	4379,481
554,2	4386,024
554,6	4398,052
555,1	4401,995
555,5	4416,738
555,9	4409,824
556,4	4415,081
556,8	4429,052
557,3	4439,367
557,7	4441,738
558,2	4452,795
558,6	4455,595
559,1	4472,795
559,5	4481,338
560	4481,795
560,4	4480,452
560,9	4491,481
561,3	4499,11
561,8	4501,252
562,2	4512,51
562,7	4513,11
563,1	4520,567
563,6	4530,681
564	4537,167
564,4	4544,252
564,9	4556,567
565,3	4555,395
565,8	4564,481
566,2	4564,452
566,7	4569,31
567,1	4565,967
567,6	4563,938
568	4567,881
568,5	4569,767
568,9	4579,024
569,4	4583,395
569,8	4583,881
570,3	4588,481
570,7	4591,995
571,1	4591,824
571,6	4594,024
572	4591,081
572,5	4587,538
572,9	4583,681
573,4	4581,11
573,8	4584,652
574,3	4582,767
574,7	4579,624
575,2	4579,795
575,6	4584,081
576,1	4584,995
576,5	4588,338
576,9	4582,252
577,4	4580,824
577,8	4579,338
578,3	4574,995
578,7	4568,567
579,2	4561,395
579,6	4561,338
580,1	4560,795
580,5	4560,367
581	4550,824
581,4	4543,167
581,9	4533,338
582,3	4533,167
582,7	4515,024
583,2	4504,338
583,6	4491,252
584,1	4488,11
584,5	4480,081
585	4472,824
585,4	4467,652
585,9	4467,51
586,3	4454,595
586,8	4448,11
587,2	4442,481
587,6	4441,138
588,1	4444,424
588,5	4435,852
589	4422,681
589,4	4419,595
589,9	4416,567
590,3	4405,052
590,8	4394,624
591,2	4381,252
591,7	4369,452
592,1	4366,024
592,5	4362,938
593	4356,795
593,4	4345,967
593,9	4336,452
594,3	4329,91
594,8	4329,195
595,2	4323,138
595,7	4316,51
596,1	4310,824
596,6	4308,824
597	4305,338
597,4	4297,995
597,9	4287,824
598,3	4278,395
598,8	4267,052
599,2	4258,681
599,7	4252,938
600,1	4240,795
600,6	4232,167
601	4228,081
601,4	4219,338
601,9	4215,224
602,3	4198,195
602,8	4189,252
603,2	4183,795
603,7	4182,481
604,1	4164,538
604,6	4152,081
605	4145,081
605,4	4136,567
605,9	4127,167
606,3	4117,938
606,8	4103,967
607,2	4096,51
607,7	4087,51
608,1	4075,938
608,6	4064,767
609	4057,081
609,4	4038,367
609,9	4020,024
610,3	4004,881
610,8	3986,91
611,2	3964,938
611,7	3948,652
612,1	3926,595
612,6	3914,167
613	3898,338
613,4	3888,91
613,9	3872,624
614,3	3863,767
614,8	3847,452
615,2	3829,567
615,7	3819,767
616,1	3809,624
616,6	3793,538
617	3785,252
617,4	3767,681
617,9	3763,224
618,3	3752,395
618,8	3736,11
619,2	3720,395
619,7	3703,91
620,1	3691,767
620,5	3675,481
621	3656,481
621,4	3641,51
621,9	3626,738
622,3	3609,51
622,8	3592,224
623,2	3571,395
623,6	3555,195
624,1	3537,252
624,5	3511,395
625	3494,11
625,4	3479,881
625,9	3463,824
626,3	3448,624
626,8	3429,595
627,2	3414,338
627,6	3411,224
628,1	3395,481
628,5	3379,767
629	3361,824
629,4	3344,367
629,9	3337,595
630,3	3322,852
630,7	3303,195
631,2	3287,367
631,6	3274,081
632,1	3256,195
632,5	3244,024
633	3221,224
633,4	3200,652
633,8	3186,052
634,3	3161,195
634,7	3142,681
635,2	3125,51
635,6	3110,31
636,1	3091,224
636,5	3072,338
636,9	3055,167
637,4	3050,452
637,8	3025,424
638,3	3012,31
638,7	2988,31
639,2	2971,081
639,6	2959,767
640	2938,481
640,5	2913,252
640,9	2903,995
641,4	2888,881
641,8	2877,281
642,2	2861,795
642,7	2845,538
643,1	2832,367
643,6	2824,081
644	2805,824
644,5	2791,595
644,9	2778,395
645,3	2769,367
645,8	2753,11
646,2	2742,995
646,7	2722,338
647,1	2710,595
647,6	2694,167
648	2680,281
648,4	2660,595
648,9	2649,652
649,3	2635,567
649,8	2621,138
650,2	2605,224
650,6	2595,281
651,1	2581,081
651,5	2568,595
652	2556,567
652,4	2538,967
652,9	2530,681
653,3	2523,652
653,7	2510,452
654,2	2494,31
654,6	2477,795
655,1	2456,995
655,5	2444,767
655,9	2432,31
656,4	2416,881
656,8	2399,738
657,3	2382,767
657,7	2378,567
658,2	2367,91
658,6	2351,024
659	2330,624
659,5	2309,652
659,9	2294,738
660,4	2282,652
660,8	2265,91
661,2	2250,224
661,7	2237,138
662,1	2229,967
662,6	2219,71
663	2208,652
663,4	2199,367
663,9	2179,967
664,3	2167,71
664,8	2152,081
665,2	2130,31
665,6	2113,824
666,1	2102,424
666,5	2080,91
667	2074,081
667,4	2060,338
667,9	2055,595
668,3	2043,51
668,7	2035,11
669,2	2016,595
669,6	2003,281
670,1	1985,138
670,5	1969,824
670,9	1949,081
671,4	1937,71
671,8	1925,281
672,3	1913,738
672,7	1907,195
673,1	1894,595
673,6	1883,767
674	1873,652
674,5	1860,024
674,9	1850,11
675,3	1838,081
675,8	1824,081
676,2	1810,595
676,7	1797,281
677,1	1788,11
677,5	1775,252
678	1760,595
678,4	1753,252
678,9	1743,252
679,3	1734,881
679,7	1724,681
680,2	1712,624
680,6	1703,852
681,1	1694,652
681,5	1682,824
681,9	1671,595
682,4	1659,681
682,8	1652,881
683,3	1643,052
683,7	1629,881
684,1	1615,367
684,6	1604,681
685	1598,138
685,5	1587,995
685,9	1572,995
686,3	1566,081
686,8	1558,624
687,2	1541,995
687,7	1529,395
688,1	1517,595
688,5	1511,452
689	1501,11
689,4	1486,424
689,9	1479,367
690,3	1478,567
690,7	1467,195
691,2	1450,024
691,6	1436,995
692	1429,11
692,5	1419,281
692,9	1406,052
693,4	1391,51
693,8	1384,338
694,2	1378,424
694,7	1366,795
695,1	1359,824
695,6	1349,138
696	1343,167
696,4	1338,795
696,9	1325,852
697,3	1320,938
697,8	1315,224
698,2	1302,852
698,6	1296,852
699,1	1293,224
699,5	1277,424
699,9	1271,91
700,4	1260,138
700,8	1251,652
701,3	1248,338
701,7	1239,138
702,1	1220,595
702,6	1216,081
703	1205,167
703,5	1196,252
703,9	1185,595
704,3	1169,338
704,8	1163,652
705,2	1157,595
705,6	1150,938
706,1	1145,024
706,5	1140,624
707	1130,167
707,4	1127,481
707,8	1114,767
708,3	1109,31
708,7	1100,795
709,2	1098,11
709,6	1085,338
710	1086,252
710,5	1081,224
710,9	1074,367
711,3	1063,595
711,8	1057,595
712,2	1048,195
712,7	1043,995
713,1	1032,367
713,5	1024,452
714	1019,938
714,4	1019,052
714,8	1011,51
715,3	1001,538
715,7	993,538
716,2	989,824
716,6	979,995
717	973,11
717,5	961,024
717,9	952,738
718,3	945,51
718,8	941,567
719,2	929,595
719,7	924,424
720,1	914,281
720,5	906,681
721	899,652
721,4	894,852
721,8	885,281
722,3	885,052
722,7	877,938
723,2	871,281
723,6	864,424
724	858,195
724,5	849,852
724,9	843,967
725,3	830,424
725,8	822,338
726,2	815,224
726,7	809,995
727,1	803,681
727,5	799,167
728	795,167
728,4	792,967
728,8	783,624
729,3	779,738
729,7	776,481
730,1	771,081
730,6	763,767
731	757,795
731,5	752,681
731,9	758,167
732,3	751,71
732,8	749,795
733,2	751,024
733,6	748,795
734,1	747,71
734,5	746,395
734,9	735,795
735,4	733,024
735,8	725,281
736,3	716,167
736,7	712,881
737,1	706,024
737,6	699,51
738	695,452
738,4	687,624
738,9	684,224
739,3	676,538
739,7	670,138
740,2	667,195
740,6	659,31
741,1	651,138
741,5	650,624
741,9	647,424
742,4	646,367
742,8	639,252
743,2	634,081
743,7	627,91
744,1	632,71
744,5	631,538
745	624,652
745,4	619,738
745,8	617,852
746,3	612,367
746,7	615,91
747,2	607,281
747,6	600,052
748	596,195
748,5	593,624
748,9	587,224
749,3	580,51
749,8	571,767
750,2	570,224
750,6	571,052
751,1	572,138
751,5	569,91
751,9	569,767
752,4	566,424
752,8	564,767
753,3	561,795
753,7	552,881
754,1	547,11
754,6	540,71
755	534,538
755,4	535,624
755,9	533,481
756,3	531,71
756,7	530,824
757,2	522,281
757,6	520,052
758	521,995
758,5	516,024
758,9	513,195
759,3	503,681
759,8	498,367
760,2	497,481
760,6	493,51
761,1	488,681
761,5	490,081
761,9	486,024
762,4	485,138
762,8	482,395
763,3	478,567
763,7	472,052
764,1	470,024
764,6	463,824
765	458,91
765,4	456,738
765,9	456,224
766,3	454,738
766,7	455,652
767,2	447,681
767,6	446,052
768	444,852
768,5	442,567
768,9	440,281
769,3	435,081
769,8	433,081
770,2	430,967
770,6	428,338
771,1	422,224
771,5	421,338
771,9	421,91
772,4	423,824
772,8	420,052
773,2	420,852
773,7	412,281
774,1	409,567
774,5	399,681
775	388,11
775,4	383,11
775,8	380,252
776,3	375,852
776,7	376,081
777,1	375,338
777,6	374,224
778	373,51
778,4	373,995
778,9	373,452
779,3	370,452
779,7	372,424
780,2	378,481
780,6	374,424
781	371,795
781,5	367,367
781,9	365,681
782,3	362,138
782,8	359,795
783,2	346,31
783,6	348,252
784,1	345,224
784,5	340,767
784,9	337,081
785,4	335,481
785,8	331,052
786,2	330,795
786,7	331,424
787,1	335,052
787,5	337,138
788	332,081
788,4	330,452
788,8	325,967
789,3	325,367
789,7	322,224
790,1	314,824
790,6	308,224
791	306,052
791,4	309,852
791,9	306,652
792,3	305,738
792,7	294,481
793,2	292,424
793,6	291,51
794	290,51
794,5	282,138
794,9	283,538
795,3	285,967
795,8	286,938
796,2	285,681
796,6	284,338
797,1	279,224
797,5	282,252
797,9	278,995
798,4	270,881
798,8	271,91
799,2	274,967
799,7	271,881
800,1	276,938
800,5	266,995
801	264,767
801,4	263,624
801,8	258,567
802,2	251,252
802,7	254,681
803,1	252,624
803,5	257,224
804	253,852
804,4	252,195
804,8	256,881
805,3	261,738
805,7	253,195
806,1	249,224
806,6	243,852
807	243,395
807,4	239,538
807,9	234,767
808,3	228,338
808,7	228,281
809,2	227,624
809,6	230,538
810	224,595
810,4	223,452
810,9	223,624
811,3	223,195
811,7	221,167
812,2	215,424
812,6	209,081
813	209,452
813,5	205,167
813,9	200,595
814,3	197,024
814,8	191,824
815,2	194,652
815,6	191,338
816,1	190,967
816,5	197,024
816,9	194,738
817,3	194,938
817,8	201,424
818,2	196,081
818,6	197,367
819,1	197,71
819,5	194,367
819,9	192,024
820,4	187,138
820,8	180,538
821,2	185,338
821,7	183,652
822,1	184,652
822,5	183,595
822,9	186,367
823,4	190,481
823,8	187,881
824,2	186,567
824,7	189,281
825,1	181,424
825,5	176,91
826	172,681
826,4	166,51
826,8	171,852
827,3	166,938
827,7	164,167
828,1	166,652
828,5	163,081
829	162,11
829,4	157,395
829,8	147,967
830,3	146,652
830,7	142,624
831,1	140,595
831,6	144,195
832	145,51
832,4	146,824
832,8	144,081
833,3	144,481
833,7	146,824
834,1	149,452
834,6	144,395
835	144,567
835,4	145,624
835,8	150,11
836,3	145,767
836,7	144,852
837,1	141,452
837,6	138,167
838	138,281
838,4	141,195
838,9	140,71
839,3	148,024
839,7	146,567
840,1	142,11
840,6	149,481
841	149,11
841,4	144,881
841,9	143,224
842,3	137,452
842,7	136,71
843,1	141,567
843,6	137,538
844	134,995
844,4	134,881
844,9	131,967
845,3	129,167
845,7	123,681
846,2	121,967
846,6	119,224
847	117,995
847,4	108,767
847,9	108,852
848,3	108,052
848,7	109,224
849,2	106,367
849,6	104,652
850	101,195
850,4	107,281
850,9	110,852
851,3	111,538
851,7	111,195
852,2	109,624
852,6	108,138
853	104,567
853,4	103,052
853,9	97,424
854,3	96,852
854,7	92,824
855,2	97,138
855,6	97,652
856	96,167
856,4	97,452
856,9	98,31
857,3	96,281
857,7	100,395
858,2	93,367
858,6	92,052
859	90,795
859,4	92,452
859,9	95,481
860,3	94,424
860,7	90,31
861,1	94,395
861,6	99,767
862	102,11
862,4	94,167
862,9	90,538
863,3	87,652
863,7	88,681
864,1	84,938
864,6	80,252
865	82,338
865,4	84,167
865,9	83,567
866,3	87,995
866,7	86,338
867,1	84,31
867,6	85,281
868	88,652
868,4	90,138
868,8	93,224
869,3	93,995
869,7	94,281
870,1	97,681
870,6	89,91
871	138,424
871,4	133,852
871,8	128,024
872,3	120,281
872,7	123,252
873,1	120,338
873,5	127,824
874	70,852
874,4	69,11
874,8	72,881
875,3	72,881
875,7	67,795
876,1	69,995
876,5	65,567
877	66,738
877,4	71,11
877,8	67,481
878,2	67,252
878,7	70,767
879,1	65,967
879,5	65,138
879,9	67,395
880,4	66,938
880,8	67,395
881,2	70,481
881,7	68,224
882,1	69,995
882,5	75,538
882,9	72,167
883,4	71,452
883,8	71,595
884,2	67,481
884,6	65,367
885,1	62,424
885,5	57,852
885,9	62,11
886,3	61,11
886,8	59,081
887,2	58,481
887,6	55,252
888	59,052
888,5	61,567
888,9	60,138
889,3	61,052
889,8	63,624
890,2	62,595
890,6	63,624
891	57,767
891,5	55,567
891,9	52,852
892,3	49,91
892,7	49,595
893,2	53,367
893,6	55,11
894	56,11
894,4	58,338
894,9	56,424
895,3	54,624
895,7	49,967
896,1	49,738
896,6	49,481
897	49,224
897,4	43,852
897,8	43,11
898,3	48,881
898,7	49,51
899,1	48,91
899,5	51,452
900	51,424
900,4	51,252
900,8	52,738
901,2	52,367
901,7	51,338
902,1	51,91
902,5	45,167
902,9	43,51
903,4	42,51
903,8	42,195
904,2	38,795
904,6	39,052
905,1	38,652
905,5	41,795
905,9	43,567
906,3	41,967
906,8	41,481
907,2	41,11
907,6	42,71
908	36,367
908,5	35,31
908,9	35,795
909,3	36,224
909,7	37,195
910,2	40,824
910,6	37,681
911	36,624
911,4	34,31
911,9	30,252
912,3	31,881
912,7	24,595
913,1	17,452
913,6	17,481
914	25,681
914,4	23,681
914,8	29,224
915,3	30,281
915,7	36,881
916,1	41,395
916,5	42,91
916,9	38,481
917,4	42,138
917,8	39,052
918,2	40,738
918,6	37,452
919,1	38,31
919,5	38,338
919,9	41,252
920,3	45,081
920,8	44,31
921,2	39,11
921,6	42,281
922	39,738
922,5	38,624
922,9	39,938
923,3	37,481
923,7	38,824
924,2	38,481
924,6	37,967
925	40,081
925,4	40,624
925,8	35,481
926,3	39,395
926,7	37,681
927,1	38,281
927,5	38,824
928	34,967
928,4	35,538
928,8	36,71
929,2	31,738
929,7	34,367
930,1	37,824
930,5	38,424
930,9	36,767
931,3	34,081
931,8	32,824
932,2	36,567
932,6	32,824
933	27,624
933,5	27,538
933,9	27,624
934,3	31,738
934,7	28,824
935,2	27,081
935,6	31,767
936	34,224
936,4	34,452
936,8	38,652
937,3	36,567
937,7	37,452
938,1	33,11
938,5	26,538
939	28,252
939,4	24,595
939,8	20,852
940,2	20,738
940,6	22,367
941,1	22,795
941,5	25,195
941,9	24,881
942,3	23,852
942,8	26,738
943,2	32,167
943,6	32,624
944	30,538
944,4	33,852
944,9	31,195
945,3	32,138
945,7	34,567
946,1	29,224
946,6	28,081
947	31,452
947,4	24,481
947,8	29,51
948,2	26,881
948,7	18,595
949,1	22,624
949,5	23,881
949,9	22,795
950,3	28,281
950,8	27,31
951,2	27,367
951,6	28,51
952	22,395
952,5	20,281
952,9	20,881
953,3	20,51
953,7	18,11
954,1	20,595
954,6	24,481
955	23,567
955,4	30,452
955,8	27,967
956,2	29,71
956,7	27,767
957,1	28,538
957,5	29,652
957,9	37,11
958,3	31,195
958,8	32,995
959,2	31,452
959,6	31,452
960	33,395
960,5	28,281
960,9	24,881
961,3	23,538
961,7	24,11
962,1	20,767
962,6	20,452
963	18,681
963,4	22,11
963,8	19,652
964,2	21,452
964,7	21,138
965,1	16,538
965,5	18,738
965,9	18,052
966,3	12,681
966,8	14,767
967,2	10,938
967,6	11,852
968	19,252
968,4	19,995
968,9	20,938
969,3	25,767
969,7	23,281
970,1	28,281
970,5	29,081
971	26,195
971,4	25,367
971,8	20,195
972,2	21,538
972,6	23,424
973,1	18,995
973,5	14,481
973,9	15,71
974,3	17,11
974,7	20,452
975,2	17,31
975,6	15,281
976	19,452
976,4	20,738
976,8	18,167
977,3	21,367
977,7	23,967
978,1	25,795
978,5	27,795
978,9	25,367
979,4	29,767
979,8	33,338
980,2	26,195
980,6	24,024
981	22,595
981,5	21,252
981,9	23,281
982,3	20,51
982,7	19,395
983,1	17,91
983,6	16,91
984	14,681
984,4	15,252
984,8	16,31
985,2	16,71
985,6	17,052
986,1	18,481
986,5	17,224
986,9	20,852
987,3	17,795
987,7	18,052
988,2	14,167
988,6	14,681
989	12,138
989,4	15,624
989,8	14,652
990,3	17,224
990,7	18,167
991,1	22,081
991,5	22,138
991,9	25,31
992,3	24,71
992,8	27,367
993,2	27,624
993,6	22,395
994	23,681
994,4	28,338
994,9	27,452
995,3	31,11
995,7	27,481
996,1	26,995
996,5	27,481
996,9	21,281
997,4	14,595
997,8	16,681
998,2	11,938
998,6	15,424
999	17,281
999,5	21,424
999,9	25,024
1000,3	28,452
1000,7	31,395
1001,1	27,252
1001,5	27,138
1002	24,424
1002,4	23,424
1002,8	22,195
1003,2	26,452
1003,6	23,424
1004	27,767
1004,5	23,367
1004,9	28,195
1005,3	25,51
1005,7	25,567
1006,1	22,795
1006,6	20,481
1007	18,424
1007,4	17,538
1007,8	15,481
1008,2	14,852
1008,6	18,481
1009,1	18,024
1009,5	19,91
1009,9	21,91
1010,3	21,995
1010,7	23,967
1011,1	28,395
1011,6	24,652
1012	21,938
1012,4	19,252
1012,8	17,681
1013,2	20,367
1013,6	18,11
1014,1	15,51
1014,5	17,052
1014,9	18,138
1015,3	16,967
1015,7	19,852
1016,1	18,91
1016,6	12,881
1017	17,51
1017,4	16,11
1017,8	11,881
1018,2	14,995
1018,6	16,71
1019,1	17,681
1019,5	19,595
1019,9	17,138
1020,3	18,624
1020,7	20,995
1021,1	24,11
1021,6	18,281
1022	18,367
1022,4	22,795
1022,8	18,91
1023,2	16,195
1023,6	13,624
1024,1	12,224
1024,5	12,395
1024,9	11,795
1025,3	9,081
1025,7	11,595
1026,1	19,538
1026,6	24,338
1027	19,71
1027,4	24,938
1027,8	21,395
1028,2	19,71
1028,6	18,081
1029	12,71
1029,5	9,367
1029,9	9,11
1030,3	8,767
1030,7	14,367
1031,1	17,052
1031,5	20,395
1032	19,424
1032,4	19,11
1032,8	21,824
1033,2	20,91
1033,6	18,395
1034	17,281
1034,4	16,51
1034,9	18,024
1035,3	18,795
1035,7	19,338
1036,1	17,91
1036,5	20,195
1036,9	20,024
1037,4	21,71
1037,8	22,967
1038,2	22,938
1038,6	22,252
1039	23,51
1039,4	26,252
1039,8	26,71
1040,3	27,281
1040,7	24,795
1041,1	24,71
1041,5	30,11
1041,9	23,281
1042,3	17,167
1042,7	15,681
1043,2	10,338
1043,6	16,852
1044	18,052
1044,4	13,51
1044,8	21,11
1045,2	25,824
1045,6	28,138
1046,1	31,167
1046,5	23,252
1046,9	23,595
1047,3	28,452
1047,7	28,852
1048,1	26,338
1048,5	24,995
1049	27,967
1049,4	31,538
1049,8	28,567
1050,2	22,138
1050,6	19,967
1051	14,995
1051,4	15,281
1051,9	8,338
1052,3	8,624
1052,7	12,824
1053,1	15,824
1053,5	15,167
1053,9	21,71
1054,3	16,024
1054,8	21,195
1055,2	17,31
1055,6	17,081
1056	17,995
1056,4	19,595
1056,8	20,224
1057,2	26,195
1057,6	24,681
1058,1	29,481
1058,5	30,338
1058,9	24,538
1059,3	24,767
1059,7	19,795
1060,1	19,395
1060,5	18,51
1061	15,338
1061,4	14,652
1061,8	21,367
1062,2	19,767
1062,6	25,738
1063	24,681
1063,4	26,052
1063,8	26,367
1064,3	24,738
1064,7	23,738
1065,1	24,881
1065,5	23,795
1065,9	27,081
1066,3	24,138
1066,7	23,11
1067,1	19,11
1067,6	19,281
1068	19,338
1068,4	17,224
1068,8	11,624
1069,2	12,024
1069,6	13,881
1070	17,824
1070,4	16,652
1070,9	16,567
1071,3	19,681
1071,7	28,31
1072,1	26,195
1072,5	25,367
1072,9	23,881
1073,3	26,767
1073,7	29,252
1074,2	25,395
1074,6	18,11
1075	20,595
1075,4	20,195
1075,8	22,652
1076,2	21,338
1076,6	20,538
1077	20,681
1077,5	22,138
1077,9	19,71
1078,3	18,452
1078,7	15,338
1079,1	13,824
1079,5	12,767
1079,9	10,338
1080,3	9,51
1080,7	14,967
1081,2	20,738
1081,6	20,995
1082	20,424
1082,4	14,138
1082,8	15,624
1083,2	18,824
1083,6	15,824
1084	13,252
1084,5	18,538
1084,9	14,024
1085,3	20,224
1085,7	22,224
1086,1	20,881
1086,5	18,081
1086,9	15,881
1087,3	9,252
1087,7	12,51
1088,2	12,624
1088,6	10,624
1089	11,738
1089,4	13,967
1089,8	13,91
1090,2	14,938
1090,6	19,138
1091	17,91
1091,4	17,395
1091,9	16,881
1092,3	17,881
1092,7	22,167
1093,1	25,31
1093,5	22,567
1093,9	22,91
1094,3	23,338
1094,7	22,481
1095,1	20,824
1095,5	16,824
1096	16,852
1096,4	13,852
1096,8	11,052
1097,2	10,51
1097,6	11,967
1098	12,824
1098,4	10,138
1098,8	9,31
1099,2	4,967
1099,6	5,795
1100,1	6,595
1100,5	7,881
1100,9	9,824
1101,3	11,881
1101,7	11,967
1102,1	20,195
1102,5	16,824
1102,9	10,681
1103,3	8,481
1103,7	5,91
1104,2	7,195
1104,6	10,138
1105	8,31
1105,4	11,738
1105,8	16,481
1106,2	13,595
1106,6	12,338
1107	9,738
1107,4	5,033
1107,8	2,447
1108,3	0,417
