Data from Subt2_00071.txt Node
Date: Mon Aug 28 13:28:41 MSK 2023
User: vat
Spectrometer: MAYP114033
Trigger mode: 0
Integration Time (sec): 1,000000E0
Scans to average: 5
Electric dark correction enabled: true
Nonlinearity correction enabled: false
Boxcar width: 3
XAxis mode: Wavelengths
Number of Pixels in Spectrum: 2068
>>>>>Begin Spectral Data<<<<<
199,4	-0,467
199,9	-1,847
200,4	1,467
200,8	5,148
201,3	4,862
201,8	5,605
202,2	8,519
202,7	8,462
203,2	13,319
203,6	11,976
204,1	7,548
204,6	11,119
205	11,519
205,5	8,148
206	9,633
206,4	5,176
206,9	3,919
207,4	5,548
207,8	4,69
208,3	6,119
208,8	5,976
209,2	5,805
209,7	9,519
210,2	8,348
210,6	9,462
211,1	10,462
211,5	5,833
212	7,662
212,5	4,605
212,9	1,376
213,4	5,719
213,9	1,176
214,3	0,433
214,8	3,09
215,3	3,319
215,7	5,719
216,2	6,119
216,7	8,662
217,1	9,148
217,6	10,776
218,1	9,605
218,5	9,376
219	9,919
219,5	13,062
219,9	4,319
220,4	12,519
220,9	10,662
221,3	9,919
221,8	9,548
222,3	12,519
222,7	12,29
223,2	15,89
223,6	9,69
224,1	12,348
224,6	15,233
225	15,376
225,5	9,548
226	4,919
226,4	9,776
226,9	9,29
227,4	9,862
227,8	6,89
228,3	1,49
228,8	4,433
229,2	8,176
229,7	3,462
230,2	9,176
230,6	4,262
231,1	7,033
231,5	13,976
232	14,176
232,5	10,805
232,9	14,405
233,4	9,605
233,9	10,662
234,3	13,205
234,8	12,548
235,3	14,89
235,7	18,09
236,2	15,719
236,7	12,519
237,1	14,148
237,6	11,633
238,1	12,319
238,5	8,348
239	9,976
239,4	12,576
239,9	16,519
240,4	12,462
240,8	16,719
241,3	15,633
241,8	14,805
242,2	11,719
242,7	8,49
243,2	8,319
243,6	11,89
244,1	4,29
244,6	-0,052
245	3,319
245,5	2,176
245,9	5,462
246,4	1,376
246,9	-0,71
247,3	6,662
247,8	8,833
248,3	8,005
248,7	8,605
249,2	4,148
249,7	9,062
250,1	2,49
250,6	-0,824
251	1,976
251,5	-3,081
252	-7,081
252,4	-5,938
252,9	-4,452
253,4	3,462
253,8	3,49
254,3	2,033
254,8	6,862
255,2	11,262
255,7	8,005
256,1	3,833
256,6	3,605
257,1	3,233
257,5	-0,624
258	-3,424
258,5	-0,624
258,9	1,09
259,4	5,69
259,9	-0,71
260,3	-3,424
260,8	-2,024
261,2	5,633
261,7	3,005
262,2	4,833
262,6	0,233
263,1	6,519
263,6	6,062
264	12,233
264,5	9,433
264,9	7,976
265,4	6,662
265,9	8,119
266,3	6,319
266,8	8,89
267,3	5,462
267,7	5,262
268,2	3,062
268,7	2,519
269,1	1,176
269,6	5,576
270	-1,967
270,5	0,748
271	-1,71
271,4	-0,481
271,9	-1,91
272,4	-0,538
272,8	-3,338
273,3	2,519
273,7	0,348
274,2	2,062
274,7	4,319
275,1	6,033
275,6	8,519
276,1	7,576
276,5	10,662
277	11,462
277,4	9,776
277,9	10,176
278,4	11,519
278,8	10,462
279,3	12,69
279,8	9,176
280,2	12,348
280,7	10,09
281,1	6,119
281,6	3,976
282,1	3,005
282,5	3,605
283	5,662
283,4	3,662
283,9	6,119
284,4	10,719
284,8	11,862
285,3	10,605
285,8	8,405
286,2	3,748
286,7	1,805
287,1	-1,195
287,6	-1,824
288,1	-2,395
288,5	-0,224
289	1,748
289,5	5,548
289,9	3,576
290,4	9,519
290,8	11,49
291,3	14,29
291,8	14,405
292,2	13,49
292,7	9,548
293,1	11,319
293,6	6,719
294,1	4,89
294,5	6,405
295	5,148
295,5	4,919
295,9	9,262
296,4	8,09
296,8	10,033
297,3	10,348
297,8	10,29
298,2	10,462
298,7	11,09
299,1	11,576
299,6	14,262
300,1	14,576
300,5	13,462
301	14,89
301,5	14,662
301,9	11,49
302,4	6,376
302,8	4,29
303,3	9,005
303,8	13,348
304,2	10,49
304,7	9,776
305,1	11,948
305,6	12,262
306,1	8,605
306,5	-2,91
307	-7,167
307,4	-11,624
307,9	-11,024
308,4	-12,824
308,8	-5,938
309,3	0,462
309,8	6,205
310,2	6,148
310,7	10,719
311,1	10,262
311,6	10,062
312,1	5,176
312,5	3,348
313	5,348
313,4	8,462
313,9	5,205
314,4	4,29
314,8	5,89
315,3	7,49
315,7	5,176
316,2	3,405
316,7	3,833
317,1	4,576
317,6	4,176
318	6,576
318,5	5,49
319	7,576
319,4	13,319
319,9	8,919
320,3	11,319
320,8	9,119
321,3	3,719
321,7	7,348
322,2	4,033
322,6	3,176
323,1	3,719
323,6	1,719
324	5,005
324,5	7,09
324,9	6,69
325,4	11,748
325,9	7,719
326,3	8,919
326,8	9,49
327,2	11,862
327,7	13,376
328,2	15,233
328,6	18,519
329,1	12,09
329,5	13,976
330	15,205
330,5	18,462
330,9	14,09
331,4	10,262
331,8	4,662
332,3	10,89
332,8	8,09
333,2	9,262
333,7	0,119
334,1	-1,338
334,6	-2,538
335,1	-3,11
335,5	-2,995
336	-1,224
336,4	-1,567
336,9	2,348
337,4	6,519
337,8	6,119
338,3	8,833
338,7	6,976
339,2	0,748
339,7	-3,024
340,1	-7,138
340,6	-7,138
341	-2,71
341,5	-5,852
342	-6,11
342,4	-6,71
342,9	-2,652
343,3	0,948
343,8	5,005
344,2	4,605
344,7	5,405
345,2	7,233
345,6	13,576
346,1	6,719
346,5	7,69
347	2,748
347,5	5,262
347,9	4,233
348,4	4,605
348,8	7,062
349,3	8,348
349,8	6,519
350,2	11,29
350,7	7,205
351,1	10,49
351,6	12,605
352	13,176
352,5	26,319
353	35,376
353,4	42,719
353,9	61,233
354,3	77,976
354,8	89,119
355,3	111,176
355,7	129,462
356,2	151,176
356,6	178,948
357,1	204,862
357,5	237,89
358	286,948
358,5	329,976
358,9	384,205
359,4	451,976
359,8	520,576
360,3	595,89
360,8	690,005
361,2	787,633
361,7	900,119
362,1	1023,919
362,6	1154,433
363	1301,662
363,5	1462,348
364	1619,69
364,4	1787,862
364,9	1954,148
365,3	2120,633
365,8	2290,548
366,3	2442,519
366,7	2575,09
367,2	2695,29
367,6	2802,976
368,1	2885,09
368,5	2941,862
369	2966,433
369,5	2972,405
369,9	2958,862
370,4	2923,576
370,8	2856,348
371,3	2779,233
371,7	2681,148
372,2	2569,319
372,7	2452,062
373,1	2328,948
373,6	2192,805
374	2057,833
374,5	1922,433
374,9	1790,805
375,4	1665,519
375,9	1541,005
376,3	1416,148
376,8	1301,033
377,2	1198,719
377,7	1097,462
378,2	1007,405
378,6	921,062
379,1	839,119
379,5	768,548
380	705,433
380,4	645,776
380,9	594,09
381,4	543,519
381,8	498,776
382,3	460,805
382,7	429,69
383,2	397,376
383,6	369,719
384,1	345,405
384,6	323,29
385	305,748
385,5	289,205
385,9	267,405
386,4	253,519
386,8	233,176
387,3	215,176
387,7	194,976
388,2	177,005
388,7	160,519
389,1	147,69
389,6	142,548
390	132,605
390,5	124,548
390,9	115,405
391,4	110,005
391,9	102,633
392,3	100,062
392,8	86,548
393,2	87,348
393,7	82,862
394,1	84,976
394,6	84,062
395,1	84,948
395,5	81,376
396	79,633
396,4	68,062
396,9	64,976
397,3	62,719
397,8	54,033
398,2	47,576
398,7	39,348
399,2	36,462
399,6	37,89
400,1	31,605
400,5	30,09
401	34,148
401,4	31,262
401,9	34,69
402,4	28,519
402,8	31,576
403,3	35,205
403,7	33,405
404,2	30,948
404,6	34,776
405,1	37,405
405,5	45,09
406	42,605
406,5	45,69
406,9	49,119
407,4	47,119
407,8	47,119
408,3	45,948
408,7	40,862
409,2	40,719
409,6	43,662
410,1	41,948
410,6	41,348
411	41,919
411,5	41,748
411,9	45,319
412,4	49,662
412,8	46,69
413,3	45,548
413,7	50,405
414,2	51,948
414,7	50,519
415,1	56,919
415,6	53,662
416	54,405
416,5	67,262
416,9	74,319
417,4	75,233
417,8	80,49
418,3	79,262
418,8	85,233
419,2	87,262
419,7	80,548
420,1	74,348
420,6	78,89
421	84,148
421,5	90,033
421,9	87,748
422,4	92,776
422,8	93,948
423,3	98,09
423,8	97,262
424,2	94,405
424,7	93,862
425,1	95,233
425,6	89,719
426	95,376
426,5	97,89
426,9	101,719
427,4	108,776
427,9	109,49
428,3	115,319
428,8	119,69
429,2	120,348
429,7	123,033
430,1	119,833
430,6	114,976
431	117,062
431,5	115,433
431,9	116,205
432,4	112,29
432,8	116,576
433,3	119,976
433,8	124,805
434,2	126,662
434,7	129,462
435,1	138,262
435,6	143,948
436	145,805
436,5	153,776
436,9	158,89
437,4	164,148
437,8	169,462
438,3	176,576
438,8	183,262
439,2	190,348
439,7	193,176
440,1	200,033
440,6	209,862
441	221,09
441,5	225,662
441,9	234,805
442,4	245,919
442,8	263,062
443,3	275,09
443,7	282,29
444,2	293,605
444,7	311,548
445,1	331,319
445,6	342,576
446	353,005
446,5	367,633
446,9	390,005
447,4	409,548
447,8	425,09
448,3	437,69
448,7	456,548
449,2	474,862
449,6	495,462
450,1	510,062
450,6	532,69
451	549,148
451,5	574,348
451,9	594,69
452,4	616,862
452,8	637,119
453,3	655,919
453,7	674,462
454,2	698,262
454,6	716,29
455,1	744,062
455,5	767,605
456	796,605
456,4	829,09
456,9	854,833
457,3	891,319
457,8	919,69
458,3	946,005
458,7	979,719
459,2	1008,719
459,6	1038,005
460,1	1071,148
460,5	1093,519
461	1129,948
461,4	1163,719
461,9	1194,49
462,3	1228,633
462,8	1265,633
463,2	1298,862
463,7	1336,405
464,1	1371,062
464,6	1405,033
465	1443,262
465,5	1478,005
466	1517,748
466,4	1558,319
466,9	1593,09
467,3	1632,719
467,8	1675,376
468,2	1713,205
468,7	1760,062
469,1	1802,062
469,6	1840,29
470	1890,548
470,5	1929,376
470,9	1969,719
471,4	2015,005
471,8	2048,262
472,3	2077,376
472,7	2115,748
473,2	2151,69
473,6	2192,833
474,1	2230,29
474,5	2264,862
475	2307,033
475,4	2351,262
475,9	2388,49
476,4	2427,09
476,8	2466,205
477,3	2501,548
477,7	2542,348
478,2	2581,862
478,6	2621,776
479,1	2661,262
479,5	2700,005
480	2741,605
480,4	2783,376
480,9	2823,405
481,3	2856,09
481,8	2889,319
482,2	2928,005
482,7	2961,233
483,1	2986,719
483,6	3018,405
484	3044,662
484,5	3078,662
484,9	3114,833
485,4	3143,748
485,8	3168,948
486,3	3192,548
486,7	3225,719
487,2	3259,119
487,6	3279,719
488,1	3296,262
488,5	3322,548
489	3351,719
489,4	3389,948
489,9	3407,348
490,4	3424,033
490,8	3451,576
491,3	3477,776
491,7	3495,89
492,2	3514,433
492,6	3524,919
493,1	3543,548
493,5	3563,862
494	3585,205
494,4	3604,148
494,9	3621,005
495,3	3638,49
495,8	3660,633
496,2	3678,262
496,7	3695,662
497,1	3702,49
497,6	3717,69
498	3737,976
498,5	3751,062
498,9	3760,005
499,4	3770,205
499,8	3786,976
500,3	3806,748
500,7	3814,948
501,2	3821,09
501,6	3834,776
502,1	3847,576
502,5	3861,176
503	3864,262
503,4	3866,605
503,9	3878,176
504,3	3887,062
504,8	3893,233
505,2	3907,348
505,7	3916,719
506,1	3921,919
506,6	3932,176
507	3943,233
507,5	3953,919
507,9	3964,976
508,4	3968,376
508,8	3973,833
509,3	3987,462
509,7	3992,348
510,2	3996,433
510,6	4005,233
511,1	4010,405
511,5	4015,833
512	4022,719
512,4	4031,405
512,9	4039,605
513,3	4047,605
513,8	4055,433
514,2	4063,062
514,7	4065,405
515,1	4073,605
515,6	4075,033
516	4081,119
516,5	4086,948
516,9	4087,033
517,4	4089,005
517,8	4098,376
518,3	4105,148
518,7	4110,776
519,2	4115,405
519,6	4122,29
520,1	4131,205
520,5	4133,119
521	4136,576
521,4	4134,862
521,9	4139,576
522,3	4149,862
522,8	4152,462
523,2	4161,09
523,7	4174,176
524,1	4178,405
524,6	4193,862
525	4207,548
525,5	4218,519
525,9	4231,262
526,4	4234,062
526,8	4240,605
527,3	4253,348
527,7	4261,319
528,2	4263,576
528,6	4268,576
529,1	4278,49
529,5	4290,062
530	4305,805
530,4	4317,805
530,9	4326,433
531,3	4335,605
531,8	4347,119
532,2	4352,119
532,6	4358,319
533,1	4360,576
533,5	4363,433
534	4366,205
534,4	4369,462
534,9	4378,948
535,3	4391,233
535,8	4406,89
536,2	4417,633
536,7	4434,033
537,1	4455,005
537,6	4476,062
538	4487,805
538,5	4498,148
538,9	4510,49
539,4	4526,776
539,8	4536,49
540,3	4539,833
540,7	4542,519
541,2	4554,205
541,6	4559,548
542,1	4564,462
542,5	4576,348
543	4587,348
543,4	4598,005
543,9	4612,205
544,3	4622,148
544,8	4636,805
545,2	4645,976
545,7	4653,519
546,1	4664,976
546,5	4672,062
547	4687,233
547,4	4690,948
547,9	4698,09
548,3	4712,776
548,8	4710,662
549,2	4723,09
549,7	4740,748
550,1	4746,69
550,6	4764,205
551	4775,29
551,5	4782,29
551,9	4804,433
552,4	4807,662
552,8	4811,09
553,3	4817,205
553,7	4819,433
554,2	4830,719
554,6	4843,205
555,1	4852,948
555,5	4867,09
555,9	4880,119
556,4	4895,805
556,8	4913,633
557,3	4919,976
557,7	4922,548
558,2	4926,033
558,6	4926,033
559,1	4932,576
559,5	4934,176
560	4932,833
560,4	4940,262
560,9	4952,29
561,3	4965,662
561,8	4982,69
562,2	4995,776
562,7	5004,033
563,1	5012,976
563,6	5016,69
564	5019,119
564,4	5021,919
564,9	5019,69
565,3	5018,576
565,8	5031,433
566,2	5038,948
566,7	5046,776
567,1	5051,805
567,6	5058,576
568	5062,005
568,5	5073,233
568,9	5069,176
569,4	5072,262
569,8	5081,576
570,3	5089,605
570,7	5093,233
571,1	5099,976
571,6	5096,233
572	5099,919
572,5	5097,662
572,9	5092,69
573,4	5087,205
573,8	5081,119
574,3	5082,005
574,7	5083,005
575,2	5080,49
575,6	5089,548
576,1	5088,948
576,5	5084,09
576,9	5087,176
577,4	5087,376
577,8	5089,148
578,3	5090,233
578,7	5084,89
579,2	5083,948
579,6	5092,49
580,1	5092,605
580,5	5082,833
581	5075,948
581,4	5075,548
581,9	5060,462
582,3	5058,433
582,7	5044,205
583,2	5032,033
583,6	5021,662
584,1	5014,205
584,5	4999,548
585	4997,49
585,4	4993,748
585,9	4996,062
586,3	4982,205
586,8	4985,148
587,2	4980,862
587,6	4975,605
588,1	4975,605
588,5	4959,89
589	4944,748
589,4	4945,833
589,9	4931,348
590,3	4911,033
590,8	4902,462
591,2	4886,119
591,7	4879,662
592,1	4880,119
592,5	4871,376
593	4863,69
593,4	4864,49
593,9	4863,948
594,3	4863,405
594,8	4852,805
595,2	4837,519
595,7	4830,976
596,1	4827,376
596,6	4820,119
597	4809,033
597,4	4795,576
597,9	4791,148
598,3	4779,633
598,8	4766,433
599,2	4758,062
599,7	4748,948
600,1	4740,805
600,6	4730,548
601	4720,748
601,4	4720,405
601,9	4715,233
602,3	4698,405
602,8	4686,69
603,2	4671,49
603,7	4667,262
604,1	4658,29
604,6	4640,09
605	4630,09
605,4	4629,919
605,9	4618,948
606,3	4611,319
606,8	4593,633
607,2	4580,233
607,7	4569,348
608,1	4560,405
608,6	4539,49
609	4525,49
609,4	4505,719
609,9	4491,205
610,3	4475,148
610,8	4462,348
611,2	4434,719
611,7	4420,776
612,1	4405,062
612,6	4398,69
613	4382,519
613,4	4371,919
613,9	4352,948
614,3	4346,976
614,8	4335,176
615,2	4318,205
615,7	4298,376
616,1	4290,833
616,6	4266,919
617	4250,148
617,4	4234,49
617,9	4216,319
618,3	4204,319
618,8	4191,462
619,2	4164,605
619,7	4149,805
620,1	4140,09
620,5	4117,176
621	4098,576
621,4	4088,862
621,9	4069,548
622,3	4058,062
622,8	4043,833
623,2	4023,89
623,6	4005,405
624,1	3993,319
624,5	3971,605
625	3952,005
625,4	3933,948
625,9	3908,062
626,3	3893,062
626,8	3877,548
627,2	3857,176
627,6	3835,948
628,1	3820,119
628,5	3801,49
629	3788,662
629,4	3768,033
629,9	3753,319
630,3	3734,748
630,7	3718,233
631,2	3700,89
631,6	3682,205
632,1	3666,976
632,5	3647,49
633	3627,205
633,4	3607,776
633,8	3585,833
634,3	3564,233
634,7	3543,205
635,2	3521,433
635,6	3507,233
636,1	3485,176
636,5	3466,633
636,9	3453,519
637,4	3437,405
637,8	3420,148
638,3	3402,205
638,7	3377,548
639,2	3361,605
639,6	3345,633
640	3327,776
640,5	3309,69
640,9	3297,148
641,4	3279,633
641,8	3269,948
642,2	3255,148
642,7	3234,433
643,1	3215,09
643,6	3209,205
644	3189,148
644,5	3180,862
644,9	3159,09
645,3	3140,319
645,8	3126,376
646,2	3107,233
646,7	3074,662
647,1	3062,205
647,6	3045,062
648	3032,376
648,4	3019,89
648,9	3003,833
649,3	2987,719
649,8	2981,776
650,2	2970,176
650,6	2955,89
651,1	2937,49
651,5	2922,462
652	2911,176
652,4	2899,719
652,9	2881,548
653,3	2860,348
653,7	2845,862
654,2	2831,69
654,6	2811,576
655,1	2792,376
655,5	2778,605
655,9	2765,833
656,4	2749,69
656,8	2731,548
657,3	2715,148
657,7	2705,49
658,2	2690,519
658,6	2676,033
659	2654,862
659,5	2640,948
659,9	2619,09
660,4	2602,919
660,8	2584,262
661,2	2568,376
661,7	2552,662
662,1	2544,176
662,6	2525,319
663	2513,719
663,4	2501,062
663,9	2488,348
664,3	2478,49
664,8	2458,49
665,2	2437,319
665,6	2427,262
666,1	2410,062
666,5	2398,662
667	2380,833
667,4	2358,205
667,9	2354,69
668,3	2343,148
668,7	2327,833
669,2	2315,033
669,6	2292,605
670,1	2277,433
670,5	2266,976
670,9	2240,062
671,4	2222,976
671,8	2205,376
672,3	2189,09
672,7	2181,862
673,1	2169,49
673,6	2156,205
674	2143,405
674,5	2124,748
674,9	2112,69
675,3	2095,605
675,8	2077,805
676,2	2064,633
676,7	2050,376
677,1	2042,262
677,5	2034,405
678	2019,49
678,4	2016,376
678,9	2004,862
679,3	1991,833
679,7	1978,833
680,2	1965,976
680,6	1953,433
681,1	1943,376
681,5	1925,433
681,9	1913,633
682,4	1903,233
682,8	1891,433
683,3	1874,205
683,7	1862,262
684,1	1846,033
684,6	1834,09
685	1817,948
685,5	1803,09
685,9	1792,948
686,3	1784,29
686,8	1772,605
687,2	1760,49
687,7	1748,605
688,1	1739,09
688,5	1731,005
689	1717,405
689,4	1712,176
689,9	1700,862
690,3	1700,176
690,7	1689,29
691,2	1677,576
691,6	1662,948
692	1650,205
692,5	1632,119
692,9	1616,005
693,4	1593,719
693,8	1583,205
694,2	1572,719
694,7	1563,833
695,1	1560,462
695,6	1549,919
696	1550,233
696,4	1545,548
696,9	1537,29
697,3	1524,89
697,8	1511,719
698,2	1494,976
698,6	1481,776
699,1	1467,948
699,5	1456,176
699,9	1444,89
700,4	1440,119
700,8	1432,49
701,3	1427,462
701,7	1423,519
702,1	1413,062
702,6	1403,89
703	1395,062
703,5	1381,776
703,9	1367,405
704,3	1353,69
704,8	1343,262
705,2	1332,69
705,6	1324,09
706,1	1313,319
706,5	1311,748
707	1309,205
707,4	1301,29
707,8	1286,376
708,3	1280,205
708,7	1273,462
709,2	1263,719
709,6	1245,319
710	1235,976
710,5	1227,49
710,9	1221,348
711,3	1207,862
711,8	1197,49
712,2	1189,805
712,7	1182,148
713,1	1171,176
713,5	1162,519
714	1156,548
714,4	1151,948
714,8	1140,976
715,3	1135,09
715,7	1128,119
716,2	1125,776
716,6	1116,148
717	1109,176
717,5	1102,805
717,9	1096,033
718,3	1087,433
718,8	1082,748
719,2	1065,633
719,7	1058,548
720,1	1049,948
720,5	1038,033
721	1026,919
721,4	1022,319
721,8	1010,119
722,3	1012,062
722,7	999,519
723,2	990,69
723,6	989,09
724	980,262
724,5	967,29
724,9	961,69
725,3	948,205
725,8	947,719
726,2	935,748
726,7	924,233
727,1	922,462
727,5	918,233
728	906,948
728,4	903,89
728,8	892,605
729,3	883,176
729,7	877,548
730,1	866,833
730,6	860,033
731	860,862
731,5	852,433
731,9	849,376
732,3	852,09
732,8	849,348
733,2	847,119
733,6	844,662
734,1	839,548
734,5	836,89
734,9	831,148
735,4	827,262
735,8	818,148
736,3	813,976
736,7	804,976
737,1	799,09
737,6	794,033
738	790,633
738,4	785,605
738,9	783,376
739,3	781,062
739,7	775,948
740,2	771,662
740,6	766,119
741,1	756,176
741,5	750,833
741,9	745,519
742,4	736,119
742,8	737,605
743,2	737,462
743,7	731,433
744,1	733,605
744,5	731,348
745	719,805
745,4	718,576
745,8	713,405
746,3	703,376
746,7	698,49
747,2	688,662
747,6	676,205
748	680,119
748,5	678,148
748,9	667,548
749,3	657,176
749,8	655,262
750,2	651,033
750,6	656,548
751,1	649,89
751,5	642,576
751,9	638,576
752,4	639,262
752,8	629,09
753,3	627,09
753,7	616,405
754,1	612,119
754,6	608,176
755	605,833
755,4	609,148
755,9	610,119
756,3	608,576
756,7	607,262
757,2	601,49
757,6	596,633
758	591,69
758,5	584,09
758,9	575,576
759,3	565,376
759,8	560,862
760,2	555,919
760,6	550,148
761,1	543,348
761,5	537,719
761,9	536,005
762,4	534,033
762,8	528,548
763,3	525,405
763,7	520,09
764,1	521,205
764,6	514,805
765	507,833
765,4	506,062
765,9	504,233
766,3	502,49
766,7	498,605
767,2	490,948
767,6	488,776
768	493,148
768,5	492,605
768,9	488,033
769,3	480,519
769,8	482,89
770,2	479,405
770,6	477,205
771,1	473,29
771,5	464,69
771,9	467,205
772,4	470,205
772,8	466,976
773,2	466,348
773,7	460,005
774,1	453,919
774,5	449,948
775	440,319
775,4	428,548
775,8	419,69
776,3	414,748
776,7	410,919
777,1	403,862
777,6	399,576
778	397,262
778,4	404,605
778,9	405,205
779,3	404,033
779,7	404,519
780,2	408,348
780,6	408,662
781	405,805
781,5	397,119
781,9	396,576
782,3	392,919
782,8	391,89
783,2	387,319
783,6	388,662
784,1	383,005
784,5	381,69
784,9	374,09
785,4	369,605
785,8	365,176
786,2	359,919
786,7	357,576
787,1	357,748
787,5	353,348
788	351,49
788,4	349,49
788,8	347,005
789,3	344,748
789,7	340,976
790,1	338,948
790,6	337,433
791	336,89
791,4	339,005
791,9	336,205
792,3	336,69
792,7	329,805
793,2	326,662
793,6	324,833
794	321,062
794,5	315,548
794,9	312,119
795,3	308,862
795,8	306,033
796,2	302,948
796,6	302,033
797,1	295,176
797,5	293,805
797,9	294,405
798,4	286,633
798,8	286,605
799,2	285,605
799,7	277,919
800,1	281,205
800,5	276,262
801	272,462
801,4	276,976
801,8	273,976
802,2	274,262
802,7	280,119
803,1	281,49
803,5	279,033
804	277,976
804,4	270,833
804,8	271,948
805,3	268,205
805,7	259,948
806,1	257,519
806,6	255,576
807	253,576
807,4	254,405
807,9	248,462
808,3	240,576
808,7	236,405
809,2	232,862
809,6	235,29
810	231,319
810,4	230,119
810,9	226,148
811,3	229,805
811,7	235,062
812,2	230,862
812,6	222,576
813	218,919
813,5	209,405
813,9	209,633
814,3	208,062
814,8	203,405
815,2	205,548
815,6	211,348
816,1	209,062
816,5	214,176
816,9	211,719
817,3	212,633
817,8	213,519
818,2	209,205
818,6	200,662
819,1	203,862
819,5	202,405
819,9	203,576
820,4	200,462
820,8	192,29
821,2	190,09
821,7	191,405
822,1	184,405
822,5	182,433
822,9	180,605
823,4	177,376
823,8	179,833
824,2	177,462
824,7	179,948
825,1	181,433
825,5	178,405
826	174,433
826,4	170,062
826,8	169,148
827,3	167,148
827,7	163,119
828,1	164,176
828,5	161,233
829	163,09
829,4	161,348
829,8	156,862
830,3	156,576
830,7	154,062
831,1	152,719
831,6	155,005
832	157,433
832,4	157,233
832,8	157,776
833,3	160,176
833,7	156,433
834,1	156,433
834,6	152,062
835	150,176
835,4	146,176
835,8	145,919
836,3	139,519
836,7	138,89
837,1	134,148
837,6	131,805
838	128,548
838,4	133,605
838,9	129,576
839,3	137,262
839,7	142,233
840,1	138,205
840,6	142,719
841	143,89
841,4	140,89
841,9	140,976
842,3	132,405
842,7	125,49
843,1	126,233
843,6	125,376
844	116,148
844,4	117,005
844,9	113,605
845,3	114,262
845,7	113,919
846,2	110,89
846,6	104,748
847	109,719
847,4	101,948
847,9	108,405
848,3	105,948
848,7	107,405
849,2	110,376
849,6	107,262
850	105,09
850,4	108,09
850,9	103,976
851,3	105,033
851,7	101,89
852,2	101,49
852,6	105,176
853	103,719
853,4	103,576
853,9	99,262
854,3	97,605
854,7	98,976
855,2	103,262
855,6	104,319
856	104,262
856,4	102,405
856,9	108,976
857,3	106,09
857,7	105,376
858,2	93,976
858,6	92,605
859	91,719
859,4	93,119
859,9	88,548
860,3	86,776
860,7	83,119
861,1	86,748
861,6	88,033
862	86,576
862,4	84,633
862,9	79,462
863,3	77,119
863,7	79,148
864,1	78,09
864,6	75,576
865	79,233
865,4	77,633
865,9	81,919
866,3	85,748
866,7	86,576
867,1	83,862
867,6	86,719
868	87,205
868,4	87,662
868,8	85,348
869,3	85,376
869,7	79,49
870,1	85,462
870,6	81,033
871	91,548
871,4	90,005
871,8	92,09
872,3	88,119
872,7	89,576
873,1	84,948
873,5	83,69
874	62,005
874,4	62,89
874,8	62,805
875,3	67,119
875,7	64,776
876,1	62,405
876,5	60,233
877	63,49
877,4	62,748
877,8	58,719
878,2	53,062
878,7	60,262
879,1	61,062
879,5	64,262
879,9	65,833
880,4	68,948
880,8	67,262
881,2	73,033
881,7	64,948
882,1	64,89
882,5	63,519
882,9	60,976
883,4	57,576
883,8	59,119
884,2	50,29
884,6	51,605
885,1	49,748
885,5	47,062
885,9	47,976
886,3	48,09
886,8	46,033
887,2	45,605
887,6	45,205
888	46,662
888,5	50,805
888,9	51,833
889,3	47,805
889,8	51,69
890,2	51,976
890,6	50,89
891	47,69
891,5	45,205
891,9	39,948
892,3	40,033
892,7	37,205
893,2	41,748
893,6	43,919
894	44,062
894,4	42,976
894,9	44,348
895,3	45,29
895,7	41,233
896,1	39,948
896,6	40,662
897	41,176
897,4	39,062
897,8	43,548
898,3	46,976
898,7	46,948
899,1	48,462
899,5	44,433
900	45,49
900,4	48,519
900,8	45,319
901,2	45,062
901,7	49,319
902,1	51,262
902,5	47,176
902,9	43,319
903,4	41,49
903,8	42,033
904,2	37,605
904,6	33,633
905,1	33,919
905,5	37,405
905,9	37,719
906,3	32,89
906,8	32,976
907,2	31,29
907,6	35,319
908	28,405
908,5	30,805
908,9	34,462
909,3	36,205
909,7	36,148
910,2	41,948
910,6	37,948
911	35,633
911,4	35,748
911,9	31,719
912,3	29,833
912,7	21,719
913,1	18,405
913,6	18,205
914	21,89
914,4	16,605
914,8	20,062
915,3	24,719
915,7	33,376
916,1	33,719
916,5	34,405
916,9	30,833
917,4	37,005
917,8	34,662
918,2	32,462
918,6	29,805
919,1	28,348
919,5	26,29
919,9	31,176
920,3	26,319
920,8	23,033
921,2	20,919
921,6	22,233
922	21,148
922,5	26,662
922,9	25,89
923,3	26,433
923,7	30,719
924,2	31,033
924,6	25,462
925	22,348
925,4	21,119
925,8	20,862
926,3	25,548
926,7	26,976
927,1	30,376
927,5	38,49
928	40,805
928,4	37,405
928,8	30,776
929,2	25,833
929,7	21,862
930,1	17,576
930,5	12,462
930,9	13,776
931,3	13,405
931,8	19,233
932,2	22,405
932,6	21,833
933	23,033
933,5	26,776
933,9	24,805
934,3	25,919
934,7	21,805
935,2	21,49
935,6	22,205
936	21,233
936,4	19,719
936,8	22,205
937,3	19,576
937,7	21,89
938,1	15,576
938,5	13,833
939	16,776
939,4	15,548
939,8	12,776
940,2	14,462
940,6	12,348
941,1	14,29
941,5	16,233
941,9	15,69
942,3	13,376
942,8	16,062
943,2	17,119
943,6	16,776
944	15,519
944,4	16,09
944,9	15,005
945,3	14,062
945,7	11,49
946,1	11,29
946,6	14,033
947	18,376
947,4	15,633
947,8	15,919
948,2	16,319
948,7	13,862
949,1	14,119
949,5	12,462
949,9	11,005
950,3	11,348
950,8	11,462
951,2	11,89
951,6	17,662
952	16,405
952,5	15,09
952,9	13,633
953,3	14,548
953,7	14,319
954,1	14,948
954,6	12,519
955	12,576
955,4	19,719
955,8	19,348
956,2	23,005
956,7	18,462
957,1	16,148
957,5	17,462
957,9	17,462
958,3	10,09
958,8	9,233
959,2	6,09
959,6	6,776
960	9,69
960,5	5,719
960,9	6,49
961,3	10,719
961,7	10,976
962,1	8,176
962,6	10,176
963	6,833
963,4	9,662
963,8	10,405
964,2	8,519
964,7	8,148
965,1	5,062
965,5	6,548
965,9	9,319
966,3	8,948
966,8	8,09
967,2	2,233
967,6	5,148
968	9,205
968,4	9,205
968,9	6,005
969,3	8,09
969,7	6,49
970,1	13,233
970,5	6,833
971	5,376
971,4	7,005
971,8	12,748
972,2	11,462
972,6	13,233
973,1	11,348
973,5	15,348
973,9	17,119
974,3	14,033
974,7	9,576
975,2	8,176
975,6	9,576
976	9,033
976,4	9,862
976,8	7,233
977,3	6,662
977,7	10,433
978,1	10,805
978,5	4,805
978,9	3,205
979,4	5,605
979,8	9,633
980,2	9,348
980,6	3,69
981	3,348
981,5	7,262
981,9	12,662
982,3	8,662
982,7	7,348
983,1	5,233
983,6	7,319
984	10,033
984,4	9,176
984,8	7,862
985,2	8,776
985,6	9,062
986,1	12,119
986,5	12,119
986,9	11,176
987,3	8,89
987,7	7,233
988,2	7,548
988,6	9,119
989	7,776
989,4	9,89
989,8	6,776
990,3	4,605
990,7	7,148
991,1	7,776
991,5	8,69
991,9	6,29
992,3	3,748
992,8	3,033
993,2	5,262
993,6	-0,51
994	-6,795
994,4	-4,538
994,9	-2,138
995,3	3,462
995,7	4,719
996,1	8,633
996,5	10,576
996,9	13,09
997,4	9,776
997,8	12,205
998,2	8,748
998,6	12,319
999	12,633
999,5	12,462
999,9	15,862
1000,3	18,833
1000,7	18,262
1001,1	12,748
1001,5	10,233
1002	5,348
1002,4	8,49
1002,8	8,033
1003,2	1,862
1003,6	0,09
1004	4,548
1004,5	2,748
1004,9	5,376
1005,3	3,605
1005,7	5,176
1006,1	6,176
1006,6	4,29
1007	2,805
1007,4	0,605
1007,8	2,205
1008,2	0,148
1008,6	1,262
1009,1	1,89
1009,5	0,433
1009,9	1,462
1010,3	3,062
1010,7	3,462
1011,1	8,919
1011,6	4,748
1012	4,348
1012,4	8,233
1012,8	6,89
1013,2	8,005
1013,6	4,719
1014,1	-0,881
1014,5	-2,538
1014,9	-0,11
1015,3	-3,281
1015,7	-3,824
1016,1	-6,71
1016,6	-9,052
1017	-4,281
1017,4	-4,138
1017,8	-8,967
1018,2	-1,995
1018,6	1,976
1019,1	4,948
1019,5	11,176
1019,9	9,805
1020,3	10,205
1020,7	14,633
1021,1	12,719
1021,6	13,233
1022	14,948
1022,4	16,433
1022,8	15,776
1023,2	17,09
1023,6	11,033
1024,1	5,405
1024,5	4,719
1024,9	7,205
1025,3	5,89
1025,7	7,776
1026,1	12,862
1026,6	19,862
1027	23,748
1027,4	26,319
1027,8	17,576
1028,2	14,233
1028,6	14,605
1029	7,205
1029,5	4,776
1029,9	7,005
1030,3	0,376
1030,7	5,805
1031,1	3,233
1031,5	3,805
1032	4,319
1032,4	8,862
1032,8	8,205
1033,2	11,49
1033,6	9,833
1034	14,748
1034,4	12,462
1034,9	16,348
1035,3	14,633
1035,7	12,805
1036,1	13,433
1036,5	19,576
1036,9	19,062
1037,4	22,405
1037,8	23,376
1038,2	16,748
1038,6	18,29
1039	21,29
1039,4	16,576
1039,8	14,29
1040,3	11,49
1040,7	8,948
1041,1	7,319
1041,5	11,176
1041,9	3,176
1042,3	4,605
1042,7	4,119
1043,2	5,919
1043,6	9,49
1044	16,976
1044,4	10,776
1044,8	13,919
1045,2	14,805
1045,6	16,119
1046,1	12,919
1046,5	10,062
1046,9	8,005
1047,3	10,948
1047,7	13,09
1048,1	10,205
1048,5	11,462
1049	14,462
1049,4	13,605
1049,8	13,119
1050,2	12,633
1050,6	10,719
1051	7,205
1051,4	6,862
1051,9	1,548
1052,3	1,662
1052,7	5,862
1053,1	4,633
1053,5	7,119
1053,9	13,119
1054,3	12,09
1054,8	12,376
1055,2	8,862
1055,6	6,862
1056	5,319
1056,4	4,176
1056,8	1,976
1057,2	2,662
1057,6	4,976
1058,1	11,005
1058,5	9,548
1058,9	9,948
1059,3	9,719
1059,7	6,833
1060,1	3,919
1060,5	-1,681
1061	-2,51
1061,4	-0,11
1061,8	-0,538
1062,2	-1,795
1062,6	4,948
1063	8,576
1063,4	14,719
1063,8	14,433
1064,3	12,033
1064,7	15,948
1065,1	17,69
1065,5	17,148
1065,9	16,976
1066,3	16,89
1066,7	14,462
1067,1	13,205
1067,6	13,519
1068	11,548
1068,4	7,833
1068,8	3,976
1069,2	4,405
1069,6	6,89
1070	9,69
1070,4	8,176
1070,9	10,005
1071,3	11,005
1071,7	17,519
1072,1	16,862
1072,5	15,805
1072,9	13,633
1073,3	17,633
1073,7	18,205
1074,2	17,519
1074,6	10,748
1075	10,062
1075,4	9,062
1075,8	7,833
1076,2	2,862
1076,6	1,205
1077	1,176
1077,5	1,376
1077,9	0,805
1078,3	-1,367
1078,7	-1,824
1079,1	0,89
1079,5	0,49
1079,9	-2,91
1080,3	-1,281
1080,7	2,69
1081,2	9,233
1081,6	8,719
1082	6,519
1082,4	3,805
1082,8	5,262
1083,2	8,548
1083,6	6,605
1084	3,033
1084,5	7,29
1084,9	-0,367
1085,3	0,948
1085,7	6,49
1086,1	2,005
1086,5	2,29
1086,9	5,576
1087,3	2,633
1087,7	5,405
1088,2	9,376
1088,6	6,033
1089	6,948
1089,4	2,719
1089,8	-1,538
1090,2	-5,424
1090,6	-0,938
1091	-4,652
1091,4	-2,852
1091,9	-0,51
1092,3	4,662
1092,7	4,49
1093,1	7,89
1093,5	6,205
1093,9	6,319
1094,3	3,633
1094,7	2,805
1095,1	0,919
1095,5	-0,567
1096	0,205
1096,4	1,09
1096,8	2,262
1097,2	3,976
1097,6	7,205
1098	7,376
1098,4	9,176
1098,8	9,862
1099,2	8,748
1099,6	9,433
1100,1	9,433
1100,5	7,605
1100,9	7,89
1101,3	6,405
1101,7	7,148
1102,1	11,376
1102,5	4,776
1102,9	0,062
1103,3	-0,995
1103,7	-1,967
1104,2	3,633
1104,6	4,262
1105	2,49
1105,4	6,89
1105,8	9,719
1106,2	8,348
1106,6	7,205
1107	3,748
1107,4	1,767
1107,8	-0,247
1108,3	0,383
