Data from Subt2_00101.txt Node
Date: Mon Aug 28 13:37:41 MSK 2023
User: vat
Spectrometer: MAYP114033
Trigger mode: 0
Integration Time (sec): 1,000000E0
Scans to average: 5
Electric dark correction enabled: true
Nonlinearity correction enabled: false
Boxcar width: 3
XAxis mode: Wavelengths
Number of Pixels in Spectrum: 2068
>>>>>Begin Spectral Data<<<<<
199,4	-0,217
199,9	-4,827
200,4	-3,367
200,8	1,476
201,3	2,276
201,8	7,876
202,2	9,133
202,7	10,448
203,2	17,79
203,6	21,905
204,1	18,305
204,6	21,048
205	15,819
205,5	15,476
206	17,219
206,4	14,419
206,9	9,219
207,4	11,676
207,8	10,905
208,3	11,876
208,8	12,076
209,2	10,79
209,7	11,476
210,2	14,448
210,6	11,705
211,1	11,648
211,5	12,562
212	13,99
212,5	15,162
212,9	13,819
213,4	15,448
213,9	15,99
214,3	17,676
214,8	21,448
215,3	22,162
215,7	20,505
216,2	18,59
216,7	21,648
217,1	19,876
217,6	17,476
218,1	14,305
218,5	13,533
219	12,59
219,5	21,305
219,9	13,562
220,4	22,533
220,9	21,39
221,3	22,705
221,8	22,362
222,3	25,333
222,7	22,705
223,2	22,505
223,6	13,79
224,1	21,876
224,6	21,762
225	21,905
225,5	19,362
226	14,162
226,4	21,162
226,9	23,019
227,4	21,219
227,8	18,99
228,3	17,476
228,8	16,305
229,2	23,99
229,7	22,476
230,2	28,019
230,6	23,162
231,1	22,619
231,5	26,076
232	31,705
232,5	25,448
232,9	25,99
233,4	22,362
233,9	22,333
234,3	24,819
234,8	24,933
235,3	21,819
235,7	22,705
236,2	19,19
236,7	15,848
237,1	16,19
237,6	16,848
238,1	15,476
238,5	17,762
239	19,848
239,4	20,248
239,9	23,533
240,4	21,476
240,8	23,362
241,3	21,79
241,8	17,562
242,2	13,505
242,7	12,105
243,2	13,562
243,6	17,105
244,1	12,619
244,6	10,848
245	15,076
245,5	17,448
245,9	21,19
246,4	16,333
246,9	18,533
247,3	20,248
247,8	17,19
248,3	15,362
248,7	15,019
249,2	13,276
249,7	20,733
250,1	14,933
250,6	12,162
251	13,39
251,5	13,59
252	9,39
252,4	7,019
252,9	4,305
253,4	6,676
253,8	7,905
254,3	14,419
254,8	14,762
255,2	16,648
255,7	17,305
256,1	10,676
256,6	9,819
257,1	13,276
257,5	6,905
258	2,305
258,5	4,59
258,9	5,19
259,4	10,733
259,9	6,505
260,3	2,476
260,8	4,733
261,2	9,705
261,7	12,076
262,2	12,39
262,6	10,59
263,1	15,305
263,6	13,105
264	17,39
264,5	17,048
264,9	14,105
265,4	13,676
265,9	13,333
266,3	11,219
266,8	14,733
267,3	13,533
267,7	14,448
268,2	14,419
268,7	15,505
269,1	16,419
269,6	19,048
270	13,59
270,5	14,619
271	8,905
271,4	3,533
271,9	4,048
272,4	3,133
272,8	3,619
273,3	6,419
273,7	5,305
274,2	7,162
274,7	15,276
275,1	13,048
275,6	18,419
276,1	17,648
276,5	22,019
277	18,819
277,4	22,419
277,9	16,99
278,4	14,848
278,8	8,962
279,3	9,705
279,8	7,762
280,2	11,876
280,7	9,419
281,1	7,99
281,6	12,305
282,1	13,933
282,5	12,933
283	12,19
283,4	10,133
283,9	11,048
284,4	14,276
284,8	13,162
285,3	8,619
285,8	5,99
286,2	5,448
286,7	9,448
287,1	6,476
287,6	7,505
288,1	10,99
288,5	16,419
289	15,562
289,5	18,819
289,9	12,905
290,4	14,648
290,8	15,362
291,3	12,562
291,8	10,962
292,2	13,619
292,7	10,962
293,1	15,99
293,6	13,648
294,1	13,848
294,5	16,733
295	16,39
295,5	16,676
295,9	15,533
296,4	10,419
296,8	12,019
297,3	17,276
297,8	18,762
298,2	15,505
298,7	14,905
299,1	14,762
299,6	15,19
300,1	22,933
300,5	15,648
301	10,648
301,5	13,733
301,9	14,619
302,4	17,676
302,8	19,819
303,3	17,819
303,8	20,39
304,2	19,905
304,7	21,905
305,1	22,076
305,6	13,648
306,1	11,076
306,5	3,39
307	1,419
307,4	-1,238
307,9	-3,495
308,4	-4,952
308,8	3,419
309,3	5,733
309,8	8,076
310,2	5,276
310,7	8,219
311,1	7,419
311,6	9,562
312,1	4,762
312,5	3,962
313	6,876
313,4	13,133
313,9	14,048
314,4	12,619
314,8	13,076
315,3	18,048
315,7	20,276
316,2	16,105
316,7	14,648
317,1	12,562
317,6	17,79
318	16,933
318,5	14,076
319	12,819
319,4	18,848
319,9	13,533
320,3	13,933
320,8	8,819
321,3	4,819
321,7	6,105
322,2	4,105
322,6	5,505
323,1	6,99
323,6	6,819
324	6,933
324,5	9,248
324,9	13,162
325,4	16,219
325,9	13,876
326,3	17,876
326,8	18,505
327,2	18,533
327,7	18,505
328,2	16,533
328,6	17,562
329,1	13,048
329,5	13,362
330	13,448
330,5	22,705
330,9	22,562
331,4	22,476
331,8	20,648
332,3	23,505
332,8	23,419
333,2	25,79
333,7	15,562
334,1	11,076
334,6	8,476
335,1	10,533
335,5	9,733
336	12,762
336,4	15,333
336,9	19,562
337,4	25,39
337,8	24,505
338,3	20,733
338,7	19,762
339,2	16,019
339,7	12,99
340,1	9,276
340,6	10,048
341	11,362
341,5	9,333
342	11,533
342,4	5,448
342,9	7,076
343,3	12,79
343,8	15,019
344,2	15,533
344,7	17,476
345,2	18,019
345,6	24,819
346,1	19,648
346,5	19,762
347	14,333
347,5	16,962
347,9	15,305
348,4	14,248
348,8	14,848
349,3	15,333
349,8	16,333
350,2	19,562
350,7	20,105
351,1	24,905
351,6	26,276
352	27,733
352,5	38,562
353	46,476
353,4	56,476
353,9	66,648
354,3	82,162
354,8	93,676
355,3	113,105
355,7	132,048
356,2	150,619
356,6	174,019
357,1	206,562
357,5	240,019
358	289,448
358,5	333,076
358,9	387,648
359,4	448,733
359,8	518,276
360,3	593,076
360,8	680,705
361,2	769,99
361,7	876,962
362,1	987,105
362,6	1113,39
363	1252,905
363,5	1401,105
364	1549,162
364,4	1707,762
364,9	1868,076
365,3	2025,848
365,8	2183,105
366,3	2319,705
366,7	2432,219
367,2	2543,019
367,6	2628,448
368,1	2693,876
368,5	2736,419
369	2750,619
369,5	2749,79
369,9	2735,276
370,4	2689,648
370,8	2625,39
371,3	2546,762
371,7	2456,705
372,2	2351,533
372,7	2235,105
373,1	2120,076
373,6	2001,133
374	1878,448
374,5	1751,905
374,9	1632,276
375,4	1518,248
375,9	1415,876
376,3	1302,705
376,8	1199,905
377,2	1109,533
377,7	1023,819
378,2	940,676
378,6	862,419
379,1	780,762
379,5	720,048
380	660,619
380,4	608,562
380,9	558,39
381,4	516,819
381,8	476,79
382,3	448,848
382,7	415,59
383,2	384,133
383,6	359,762
384,1	339,133
384,6	309,133
385	289,848
385,5	268,876
385,9	249,733
386,4	242,048
386,8	221,076
387,3	202,048
387,7	194,39
388,2	179,676
388,7	169,105
389,1	158,048
389,6	143,933
390	137,248
390,5	135,419
390,9	123,048
391,4	119,676
391,9	109,39
392,3	109,762
392,8	104,762
393,2	99,705
393,7	90,676
394,1	88,848
394,6	85,79
395,1	89,162
395,5	82,248
396	75,419
396,4	69,562
396,9	67,533
397,3	67,476
397,8	59,905
398,2	50,533
398,7	43,505
399,2	44,019
399,6	44,562
400,1	37,133
400,5	39,248
401	44,962
401,4	41,99
401,9	49,705
402,4	47,219
402,8	52,219
403,3	59,676
403,7	58,219
404,2	54,333
404,6	58,133
405,1	57,99
405,5	57,733
406	57,276
406,5	55,448
406,9	53,133
407,4	51,619
407,8	54,476
408,3	50,076
408,7	50,419
409,2	46,848
409,6	47,848
410,1	47,762
410,6	47,533
411	48,476
411,5	48,105
411,9	45,962
412,4	47,362
412,8	51,476
413,3	52,762
413,7	57,848
414,2	60,105
414,7	64,39
415,1	74,59
415,6	74,876
416	77,162
416,5	84,219
416,9	89,762
417,4	92,162
417,8	95,248
418,3	94,476
418,8	97,333
419,2	98,162
419,7	99,19
420,1	94,419
420,6	93,333
421	99,048
421,5	101,105
421,9	105,505
422,4	106,962
422,8	106,448
423,3	110,105
423,8	111,99
424,2	109,99
424,7	113,79
425,1	111,076
425,6	109,562
426	112,505
426,5	112,105
426,9	114,905
427,4	117,505
427,9	117,505
428,3	120,933
428,8	124,276
429,2	126,276
429,7	132,276
430,1	130,876
430,6	125,333
431	121,848
431,5	121,762
431,9	121,676
432,4	118,99
432,8	122,362
433,3	124,505
433,8	131,848
434,2	135,876
434,7	137,476
435,1	143,276
435,6	148,705
436	148,076
436,5	155,19
436,9	162,048
437,4	168,448
437,8	174,533
438,3	183,676
438,8	191,762
439,2	200,819
439,7	209,133
440,1	213,39
440,6	223,676
441	232,619
441,5	240,162
441,9	246,533
442,4	255,562
442,8	266,505
443,3	279,676
443,7	287,905
444,2	301,819
444,7	312,019
445,1	325,962
445,6	338,562
446	351,219
446,5	363,048
446,9	379,305
447,4	397,733
447,8	415,076
448,3	432,419
448,7	449,39
449,2	466,133
449,6	486,59
450,1	502,276
450,6	521,819
451	546,648
451,5	569,705
451,9	591,019
452,4	609,305
452,8	627,933
453,3	652,705
453,7	675,248
454,2	688,79
454,6	710,048
455,1	738,019
455,5	771,162
456	800,105
456,4	826,733
456,9	853,819
457,3	889,59
457,8	915,676
458,3	944,076
458,7	969,619
459,2	1000,962
459,6	1029,448
460,1	1063,676
460,5	1086,505
461	1122,248
461,4	1152,905
461,9	1185,419
462,3	1221,905
462,8	1257,505
463,2	1285,905
463,7	1326,476
464,1	1358,619
464,6	1394,219
465	1427,39
465,5	1458,019
466	1503,99
466,4	1542,448
466,9	1579,105
467,3	1617,248
467,8	1657,933
468,2	1699,19
468,7	1745,59
469,1	1776,762
469,6	1814,505
470	1854,648
470,5	1900,676
470,9	1933,733
471,4	1975,362
471,8	2010,305
472,3	2044,305
472,7	2086,562
473,2	2130,419
473,6	2164,162
474,1	2206,762
474,5	2245,476
475	2284,905
475,4	2333,79
475,9	2374,076
476,4	2408,476
476,8	2456,933
477,3	2495,505
477,7	2533,905
478,2	2578,59
478,6	2612,162
479,1	2647,048
479,5	2688,59
480	2721,59
480,4	2759,676
480,9	2797,19
481,3	2829,848
481,8	2865,076
482,2	2902,019
482,7	2936,962
483,1	2964,733
483,6	2998,79
484	3023,962
484,5	3055,819
484,9	3087,133
485,4	3115,39
485,8	3143,19
486,3	3171,276
486,7	3200,533
487,2	3238,39
487,6	3256,59
488,1	3284,762
488,5	3306,162
489	3328,876
489,4	3359,562
489,9	3376,019
490,4	3392,476
490,8	3415,99
491,3	3436,448
491,7	3458,59
492,2	3478,448
492,6	3491,019
493,1	3513,305
493,5	3533,362
494	3557,505
494,4	3573,133
494,9	3590,162
495,3	3599,962
495,8	3615,848
496,2	3630,933
496,7	3643,248
497,1	3655,305
497,6	3672,19
498	3691,99
498,5	3708,876
498,9	3720,305
499,4	3732,733
499,8	3744,848
500,3	3757,562
500,7	3766,219
501,2	3767,733
501,6	3779,076
502,1	3791,219
502,5	3801,99
503	3814,019
503,4	3820,19
503,9	3830,619
504,3	3842,133
504,8	3855,162
505,2	3868,676
505,7	3875,99
506,1	3880,39
506,6	3883,619
507	3892,19
507,5	3897,362
507,9	3900,819
508,4	3907,619
508,8	3918,533
509,3	3930,533
509,7	3936,362
510,2	3949,562
510,6	3962,105
511,1	3965,705
511,5	3969,248
512	3972,248
512,4	3974,105
512,9	3984,219
513,3	3978,419
513,8	3984,876
514,2	3997,048
514,7	3999,762
515,1	4004,562
515,6	4012,762
516	4012,819
516,5	4016,79
516,9	4014,905
517,4	4017,076
517,8	4024,448
518,3	4031,219
518,7	4032,619
519,2	4043,105
519,6	4046,505
520,1	4061,762
520,5	4058,819
521	4063,048
521,4	4064,676
521,9	4068,39
522,3	4075,448
522,8	4083,848
523,2	4082,819
523,7	4091,562
524,1	4094,276
524,6	4101,762
525	4111,133
525,5	4116,219
525,9	4124,819
526,4	4130,619
526,8	4142,619
527,3	4154,676
527,7	4166,048
528,2	4173,362
528,6	4186,819
529,1	4199,905
529,5	4215,105
530	4222,476
530,4	4228,39
530,9	4231,59
531,3	4241,562
531,8	4239,676
532,2	4243,133
532,6	4247,733
533,1	4246,59
533,5	4248,305
534	4256,533
534,4	4260,705
534,9	4272,076
535,3	4283,133
535,8	4294,362
536,2	4306,533
536,7	4313,933
537,1	4323,99
537,6	4337,962
538	4349,448
538,5	4359,476
538,9	4362,962
539,4	4376,305
539,8	4389,019
540,3	4395,105
540,7	4398,333
541,2	4403,762
541,6	4404,562
542,1	4412,19
542,5	4420,333
543	4434,505
543,4	4439,676
543,9	4449,533
544,3	4464,305
544,8	4481,305
545,2	4488,162
545,7	4498,562
546,1	4510,19
546,5	4518,562
547	4531,105
547,4	4533,733
547,9	4539,933
548,3	4550,762
548,8	4555,648
549,2	4562,79
549,7	4574,248
550,1	4575,819
550,6	4584,676
551	4594,105
551,5	4597,876
551,9	4606,59
552,4	4608,133
552,8	4620,39
553,3	4629,733
553,7	4637,162
554,2	4642,305
554,6	4659,59
555,1	4671,362
555,5	4682,476
555,9	4689,848
556,4	4702,133
556,8	4712,362
557,3	4723,962
557,7	4726,333
558,2	4733,819
558,6	4739,59
559,1	4746,905
559,5	4751,533
560	4755,905
560,4	4751,419
560,9	4752,362
561,3	4753,333
561,8	4761,276
562,2	4769,219
562,7	4769,133
563,1	4774,076
563,6	4783,933
564	4798,933
564,4	4809,133
564,9	4812,962
565,3	4818,99
565,8	4831,648
566,2	4834,248
566,7	4844,733
567,1	4843,333
567,6	4843,676
568	4847,619
568,5	4843,248
568,9	4843,162
569,4	4847,99
569,8	4843,39
570,3	4843,79
570,7	4848,79
571,1	4851,848
571,6	4858,333
572	4862,733
572,5	4859,962
572,9	4864,276
573,4	4867,419
573,8	4868,105
574,3	4867,79
574,7	4869,99
575,2	4866,362
575,6	4874,19
576,1	4872,876
576,5	4879,505
576,9	4876,219
577,4	4875,333
577,8	4869,876
578,3	4858,79
578,7	4845,819
579,2	4839,076
579,6	4831,59
580,1	4825,505
580,5	4817,676
581	4811,933
581,4	4817,505
581,9	4820,362
582,3	4813,333
582,7	4799,762
583,2	4796,448
583,6	4788,676
584,1	4778,476
584,5	4774,448
585	4764,505
585,4	4756,19
585,9	4753,533
586,3	4744,562
586,8	4742,133
587,2	4738,162
587,6	4725,676
588,1	4721,933
588,5	4718,305
589	4712,79
589,4	4706,819
589,9	4695,733
590,3	4684,248
590,8	4670,505
591,2	4663,705
591,7	4652,79
592,1	4651,448
592,5	4646,733
593	4641,905
593,4	4636,505
593,9	4640,076
594,3	4638,105
594,8	4637,162
595,2	4625,133
595,7	4611,962
596,1	4601,476
596,6	4596,733
597	4589,19
597,4	4571,105
597,9	4561,819
598,3	4551,476
598,8	4544,933
599,2	4541,019
599,7	4537,105
600,1	4536,762
600,6	4531,79
601	4523,79
601,4	4511,905
601,9	4503,733
602,3	4488,99
602,8	4473,905
603,2	4447,419
603,7	4436,962
604,1	4426,933
604,6	4411,048
605	4401,79
605,4	4394,619
605,9	4378,419
606,3	4376,333
606,8	4371,333
607,2	4356,705
607,7	4354,876
608,1	4337,733
608,6	4327,962
609	4322,133
609,4	4297,305
609,9	4273,762
610,3	4259,99
610,8	4249,105
611,2	4235,476
611,7	4207,962
612,1	4189,19
612,6	4180,276
613	4164,762
613,4	4151,333
613,9	4130,305
614,3	4122,79
614,8	4113,305
615,2	4099,676
615,7	4091,733
616,1	4079,219
616,6	4064,648
617	4047,733
617,4	4023,905
617,9	4016,819
618,3	4005,276
618,8	3986,648
619,2	3970,076
619,7	3955,448
620,1	3942,133
620,5	3931,505
621	3907,19
621,4	3894,419
621,9	3874,505
622,3	3854,305
622,8	3835,333
623,2	3819,562
623,6	3806,505
624,1	3795,448
624,5	3771,076
625	3756,248
625,4	3745,476
625,9	3731,79
626,3	3715,676
626,8	3692,962
627,2	3672,876
627,6	3658,219
628,1	3643,59
628,5	3620,362
629	3600,99
629,4	3579,133
629,9	3569,848
630,3	3562,048
630,7	3542,076
631,2	3518,79
631,6	3504,705
632,1	3484,876
632,5	3469,533
633	3439,419
633,4	3407,419
633,8	3390,819
634,3	3371,962
634,7	3356,905
635,2	3340,99
635,6	3323,333
636,1	3313,276
636,5	3299,962
636,9	3284,933
637,4	3277,076
637,8	3258,905
638,3	3241,876
638,7	3225,019
639,2	3207,905
639,6	3195,99
640	3181,39
640,5	3157,962
640,9	3135,133
641,4	3121,648
641,8	3111,676
642,2	3094,648
642,7	3075,99
643,1	3056,733
643,6	3048,733
644	3042,105
644,5	3029,333
644,9	3011,419
645,3	2994,848
645,8	2979,248
646,2	2962,733
646,7	2937,733
647,1	2918,39
647,6	2899,619
648	2881,619
648,4	2871,619
648,9	2854,762
649,3	2842,362
649,8	2831,762
650,2	2819,962
650,6	2805,705
651,1	2793,219
651,5	2774,905
652	2763,762
652,4	2746,048
652,9	2731,59
653,3	2716,99
653,7	2712,79
654,2	2702,476
654,6	2687,476
655,1	2674,276
655,5	2666,048
655,9	2654,276
656,4	2643,676
656,8	2618,048
657,3	2597,276
657,7	2582,533
658,2	2570,362
658,6	2549,705
659	2534,019
659,5	2518,562
659,9	2499,933
660,4	2479,819
660,8	2466,362
661,2	2444,762
661,7	2432,39
662,1	2422,905
662,6	2406,733
663	2397,933
663,4	2385,905
663,9	2367,105
664,3	2355,848
664,8	2340,762
665,2	2323,133
665,6	2307,79
666,1	2292,59
666,5	2285,048
667	2274,933
667,4	2257,59
667,9	2250,733
668,3	2231,076
668,7	2215,79
669,2	2200,619
669,6	2181,219
670,1	2167,562
670,5	2151,219
670,9	2127,962
671,4	2116,276
671,8	2103,99
672,3	2089,762
672,7	2081,448
673,1	2065,276
673,6	2057,876
674	2051,076
674,5	2035,705
674,9	2018,59
675,3	2004,876
675,8	1987,276
676,2	1974,733
676,7	1953,676
677,1	1938,219
677,5	1925,733
678	1910,219
678,4	1897,905
678,9	1885,219
679,3	1876,705
679,7	1872,39
680,2	1857,619
680,6	1847,962
681,1	1845,933
681,5	1839,276
681,9	1832,848
682,4	1817,962
682,8	1808,248
683,3	1797,762
683,7	1788,133
684,1	1773,762
684,6	1758,105
685	1738,105
685,5	1726,019
685,9	1711,99
686,3	1703,59
686,8	1686,333
687,2	1674,448
687,7	1663,562
688,1	1654,048
688,5	1651,305
689	1640,619
689,4	1624,562
689,9	1620,562
690,3	1613,333
690,7	1604,962
691,2	1596,305
691,6	1577,305
692	1569,619
692,5	1563,276
692,9	1547,419
693,4	1531,848
693,8	1524,019
694,2	1514,019
694,7	1504,733
695,1	1494,962
695,6	1481,39
696	1470,648
696,4	1463,448
696,9	1444,905
697,3	1433,733
697,8	1425,733
698,2	1414,533
698,6	1406,333
699,1	1405,562
699,5	1391,019
699,9	1388,619
700,4	1382,305
700,8	1371,819
701,3	1361,305
701,7	1353,019
702,1	1340,219
702,6	1334,962
703	1323,619
703,5	1311,619
703,9	1303,076
704,3	1290,59
704,8	1289,962
705,2	1275,562
705,6	1265,848
706,1	1255,305
706,5	1251,362
707	1242,076
707,4	1242,562
707,8	1220,79
708,3	1219,505
708,7	1208,362
709,2	1207,59
709,6	1194,562
710	1186,248
710,5	1177,105
710,9	1174,133
711,3	1159,676
711,8	1154,448
712,2	1142,133
712,7	1134,105
713,1	1127,219
713,5	1115,562
714	1112,276
714,4	1109,619
714,8	1101,533
715,3	1096,019
715,7	1088,048
716,2	1083,562
716,6	1078,676
717	1066,276
717,5	1054,99
717,9	1050,133
718,3	1037,362
718,8	1035,99
719,2	1026,362
719,7	1013,276
720,1	1009,076
720,5	1002,648
721	991,848
721,4	983,162
721,8	975,533
722,3	970,219
722,7	967,162
723,2	956,648
723,6	948,962
724	940,219
724,5	932,448
724,9	922,048
725,3	908,105
725,8	897,933
726,2	888,362
726,7	886,59
727,1	882,79
727,5	878,962
728	875,962
728,4	874,048
728,8	869,705
729,3	866,105
729,7	857,219
730,1	847,162
730,6	839,048
731	831,248
731,5	825,019
731,9	820,59
732,3	818,648
732,8	815,619
733,2	814,276
733,6	817,019
734,1	815,876
734,5	814,362
734,9	805,419
735,4	799,476
735,8	790,648
736,3	785,105
736,7	774,019
737,1	765,133
737,6	757,933
738	759,762
738,4	755,219
738,9	754,019
739,3	752,99
739,7	753,733
740,2	752,476
740,6	743,448
741,1	734,362
741,5	725,076
741,9	717,933
742,4	710,276
742,8	706,476
743,2	696,79
743,7	694,162
744,1	694,048
744,5	693,419
745	685,962
745,4	683,562
745,8	675,133
746,3	673,476
746,7	669,99
747,2	661,562
747,6	657,162
748	657,362
748,5	654,048
748,9	648,333
749,3	638,448
749,8	638,19
750,2	632,876
750,6	633,419
751,1	632,962
751,5	626,562
751,9	624,933
752,4	623,162
752,8	616,333
753,3	615,362
753,7	604,733
754,1	590,762
754,6	589,648
755	582,733
755,4	583,39
755,9	580,39
756,3	575,448
756,7	573,59
757,2	576,733
757,6	568,819
758	566,876
758,5	558,848
758,9	553,59
759,3	547,419
759,8	541,819
760,2	537,248
760,6	532,562
761,1	525,362
761,5	521,333
761,9	519,905
762,4	519,819
762,8	511,533
763,3	505,705
763,7	501,59
764,1	503,305
764,6	500,905
765	496,819
765,4	490,419
765,9	497,19
766,3	495,19
766,7	493,305
767,2	489,819
767,6	492,705
768	487,19
768,5	485,162
768,9	480,362
769,3	474,105
769,8	474,133
770,2	468,419
770,6	461,99
771,1	456,105
771,5	450,876
771,9	447,705
772,4	452,819
772,8	447,533
773,2	443,248
773,7	435,305
774,1	439,219
774,5	434,305
775	426,59
775,4	417,762
775,8	414,076
776,3	414,933
776,7	411,39
777,1	406,905
777,6	403,076
778	401,99
778,4	401,162
778,9	401,59
779,3	394,448
779,7	394,362
780,2	392,19
780,6	389,076
781	387,905
781,5	386,676
781,9	382,133
782,3	382,419
782,8	383,048
783,2	379,419
783,6	384,648
784,1	381,876
784,5	376,105
784,9	375,505
785,4	368,762
785,8	364,562
786,2	358,648
786,7	355,019
787,1	351,962
787,5	353,019
788	346,305
788,4	348,99
788,8	343,505
789,3	338,019
789,7	334,076
790,1	327,99
790,6	318,762
791	320,648
791,4	319,876
791,9	316,533
792,3	317,676
792,7	314,762
793,2	313,59
793,6	316,505
794	317,79
794,5	313,505
794,9	315,848
795,3	318,876
795,8	316,648
796,2	313,962
796,6	310,419
797,1	298,305
797,5	296,533
797,9	294,105
798,4	285,933
798,8	282,705
799,2	284,819
799,7	283,076
800,1	280,619
800,5	273,448
801	271,676
801,4	274,705
801,8	272,333
802,2	269,733
802,7	269,048
803,1	272,133
803,5	272,59
804	269,476
804,4	266,59
804,8	267,705
805,3	267,019
805,7	260,619
806,1	257,905
806,6	255,705
807	255,505
807,4	249,962
807,9	245,676
808,3	243,419
808,7	243,362
809,2	241,419
809,6	242,562
810	236,79
810,4	237,276
810,9	235,762
811,3	230,705
811,7	230,362
812,2	227,676
812,6	222,705
813	221,99
813,5	214,905
813,9	212,419
814,3	208,533
814,8	204,79
815,2	203,962
815,6	202,562
816,1	201,39
816,5	204,448
816,9	200,79
817,3	205,19
817,8	201,333
818,2	198,219
818,6	199,505
819,1	203,448
819,5	200,619
819,9	205,305
820,4	199,533
820,8	199,333
821,2	199,076
821,7	195,105
822,1	184,619
822,5	182,99
822,9	178,533
823,4	181,476
823,8	179,219
824,2	178,105
824,7	178,019
825,1	179,648
825,5	179,705
826	174,076
826,4	170,333
826,8	171,019
827,3	169,448
827,7	171,59
828,1	174,248
828,5	170,362
829	175,648
829,4	168,933
829,8	166,59
830,3	166,676
830,7	162,476
831,1	161,276
831,6	162,676
832	164,248
832,4	166,076
832,8	162,419
833,3	161,419
833,7	153,905
834,1	152,133
834,6	150,105
835	144,848
835,4	142,39
835,8	146,19
836,3	144,476
836,7	151,705
837,1	149,333
837,6	148,705
838	145,305
838,4	146,076
838,9	141,533
839,3	142,933
839,7	140,59
840,1	133,076
840,6	130,933
841	130,276
841,4	132,019
841,9	133,048
842,3	132,248
842,7	125,162
843,1	130,905
843,6	130,733
844	130,79
844,4	127,019
844,9	123,476
845,3	118,933
845,7	122,219
846,2	120,219
846,6	117,162
847	113,819
847,4	112,105
847,9	110,59
848,3	110,505
848,7	107,219
849,2	106,79
849,6	107,562
850	108,448
850,4	108,419
850,9	107,648
851,3	108,219
851,7	112,133
852,2	106,905
852,6	103,876
853	98,676
853,4	98,848
853,9	95,99
854,3	94,19
854,7	92,505
855,2	97,362
855,6	98,105
856	103,676
856,4	102,819
856,9	107,933
857,3	104,19
857,7	105,105
858,2	97,333
858,6	95,648
859	92,133
859,4	92,905
859,9	94,562
860,3	94,848
860,7	90,876
861,1	95,19
861,6	103,619
862	103,562
862,4	102,19
862,9	96,648
863,3	95,99
863,7	96,933
864,1	93,733
864,6	89,419
865	89,19
865,4	89,533
865,9	91,276
866,3	92,448
866,7	95,048
867,1	93,876
867,6	90,276
868	94,705
868,4	91,905
868,8	91,619
869,3	95,19
869,7	90,505
870,1	94,133
870,6	89,276
871	96,99
871,4	94,219
871,8	91,248
872,3	83,048
872,7	81,962
873,1	77,905
873,5	82,562
874	60,362
874,4	58,305
874,8	59,876
875,3	63,905
875,7	63,733
876,1	63,448
876,5	59,419
877	66,762
877,4	69,933
877,8	69,733
878,2	66,562
878,7	65,048
879,1	62,962
879,5	63,819
879,9	66,019
880,4	66,333
880,8	65,533
881,2	65,962
881,7	66,848
882,1	71,076
882,5	72,905
882,9	72,419
883,4	72,705
883,8	72,848
884,2	69,048
884,6	68,19
885,1	65,248
885,5	63,59
885,9	63,933
886,3	63,019
886,8	58,848
887,2	56,705
887,6	55,362
888	56,905
888,5	57,333
888,9	54,048
889,3	50,333
889,8	51,733
890,2	52,562
890,6	51,305
891	51,59
891,5	53,648
891,9	52,276
892,3	55,248
892,7	56,562
893,2	64,105
893,6	63,648
894	62,39
894,4	55,733
894,9	55,19
895,3	54,619
895,7	55,762
896,1	55,076
896,6	57,39
897	58,705
897,4	61,019
897,8	59,162
898,3	58,876
898,7	54,648
899,1	50,619
899,5	50,076
900	44,905
900,4	43,133
900,8	42,248
901,2	43,219
901,7	43,39
902,1	47,476
902,5	40,819
902,9	43,476
903,4	42,048
903,8	45,619
904,2	42,162
904,6	40,133
905,1	41,19
905,5	45,79
905,9	45,562
906,3	42,819
906,8	42,219
907,2	41,476
907,6	46,019
908	39,333
908,5	37,933
908,9	37,39
909,3	42,333
909,7	43,562
910,2	51,876
910,6	45,505
911	43,476
911,4	39,905
911,9	36,019
912,3	32,619
912,7	27,276
913,1	17,876
913,6	20,39
914	22,476
914,4	21,905
914,8	23,705
915,3	22,819
915,7	31,276
916,1	35,133
916,5	36,419
916,9	31,19
917,4	34,019
917,8	33,162
918,2	38,762
918,6	34,876
919,1	33,362
919,5	31,419
919,9	35,105
920,3	35,705
920,8	40,362
921,2	38,905
921,6	40,562
922	44,39
922,5	44,819
922,9	45,705
923,3	45,276
923,7	41,333
924,2	40,19
924,6	34,533
925	31,59
925,4	31,933
925,8	31,019
926,3	33,133
926,7	34,505
927,1	33,362
927,5	39,905
928	37,648
928,4	38,505
928,8	36,905
929,2	32,105
929,7	33,733
930,1	34,733
930,5	31,505
930,9	27,848
931,3	28,219
931,8	31,276
932,2	36,048
932,6	32,133
933	29,533
933,5	26,305
933,9	28,019
934,3	26,962
934,7	24,105
935,2	26,533
935,6	30,19
936	29,105
936,4	32,39
936,8	31,876
937,3	30,962
937,7	28,048
938,1	21,333
938,5	16,19
939	20,048
939,4	16,819
939,8	21,276
940,2	18,619
940,6	20,99
941,1	24,962
941,5	27,333
941,9	28,048
942,3	27,876
942,8	27,105
943,2	35,133
943,6	35,876
944	30,048
944,4	29,476
944,9	26,819
945,3	27,076
945,7	23,305
946,1	17,905
946,6	19,448
947	24,362
947,4	24,676
947,8	29,219
948,2	24,476
948,7	21,105
949,1	22,219
949,5	21,419
949,9	21,276
950,3	22,133
950,8	21,162
951,2	26,762
951,6	27,848
952	27,533
952,5	25,762
952,9	23,448
953,3	22,105
953,7	20,733
954,1	19,505
954,6	22,762
955	22,705
955,4	27,219
955,8	30,076
956,2	29,648
956,7	30,162
957,1	28,076
957,5	28,933
957,9	26,79
958,3	21,276
958,8	16,648
959,2	13,505
959,6	10,076
960	14,162
960,5	11,105
960,9	15,848
961,3	18,19
961,7	21,962
962,1	26,105
962,6	28,276
963	26,219
963,4	27,105
963,8	20,676
964,2	20,619
964,7	18,762
965,1	9,59
965,5	6,733
965,9	4,619
966,3	2,848
966,8	7,305
967,2	5,648
967,6	5,819
968	11,362
968,4	14,219
968,9	18,848
969,3	19,648
969,7	18,219
970,1	18,362
970,5	21,79
971	20,848
971,4	16,962
971,8	14,533
972,2	18,962
972,6	18,419
973,1	13,99
973,5	11,819
973,9	16,105
974,3	18,933
974,7	18,276
975,2	17,39
975,6	17,133
976	20,933
976,4	19,162
976,8	18,619
977,3	15,848
977,7	14,048
978,1	13,162
978,5	11,333
978,9	9,019
979,4	12,133
979,8	8,133
980,2	11,533
980,6	11,362
981	10,362
981,5	11,276
981,9	14,448
982,3	10,133
982,7	12,219
983,1	8,733
983,6	14,019
984	12,048
984,4	16,676
984,8	18,076
985,2	20,505
985,6	20,876
986,1	22,048
986,5	21,219
986,9	23,648
987,3	19,448
987,7	19,676
988,2	22,762
988,6	26,905
989	26,933
989,4	28,419
989,8	24,39
990,3	22,476
990,7	26,219
991,1	27,419
991,5	22,962
991,9	22,505
992,3	17,619
992,8	20,162
993,2	22,79
993,6	15,133
994	9,276
994,4	15,79
994,9	18,962
995,3	26,105
995,7	24,448
996,1	19,048
996,5	21,876
996,9	21,905
997,4	16,733
997,8	16,848
998,2	9,162
998,6	15,248
999	21,162
999,5	20,819
999,9	20,162
1000,3	21,39
1000,7	18,905
1001,1	17,99
1001,5	17,248
1002	17,962
1002,4	18,962
1002,8	20,648
1003,2	19,105
1003,6	19,219
1004	20,962
1004,5	19,619
1004,9	17,105
1005,3	16,733
1005,7	15,619
1006,1	17,733
1006,6	16,619
1007	19,905
1007,4	19,619
1007,8	22,79
1008,2	26,019
1008,6	28,562
1009,1	24,99
1009,5	26,476
1009,9	26,362
1010,3	26,676
1010,7	25,905
1011,1	24,819
1011,6	25,876
1012	24,219
1012,4	25,933
1012,8	22,248
1013,2	22,733
1013,6	21,448
1014,1	14,819
1014,5	10,333
1014,9	14,533
1015,3	12,933
1015,7	15,562
1016,1	11,733
1016,6	7,705
1017	11,505
1017,4	14,105
1017,8	10,533
1018,2	8,933
1018,6	10,476
1019,1	10,933
1019,5	15,505
1019,9	14,705
1020,3	11,19
1020,7	12,448
1021,1	15,105
1021,6	12,333
1022	14,99
1022,4	16,819
1022,8	16,848
1023,2	17,819
1023,6	15,962
1024,1	14,305
1024,5	13,905
1024,9	13,848
1025,3	13,562
1025,7	13,19
1026,1	19,676
1026,6	27,019
1027	26,162
1027,4	29,59
1027,8	27,619
1028,2	23,276
1028,6	23,562
1029	17,962
1029,5	16,448
1029,9	17,933
1030,3	18,019
1030,7	18,305
1031,1	23,476
1031,5	28,676
1032	29,39
1032,4	29,276
1032,8	29,59
1033,2	27,362
1033,6	26,733
1034	23,933
1034,4	17,762
1034,9	23,476
1035,3	23,105
1035,7	22,648
1036,1	22,019
1036,5	25,276
1036,9	27,562
1037,4	33,076
1037,8	28,619
1038,2	26,676
1038,6	25,933
1039	29,676
1039,4	26,276
1039,8	25,39
1040,3	25,419
1040,7	25,276
1041,1	22,533
1041,5	23,305
1041,9	19,59
1042,3	22,305
1042,7	16,962
1043,2	14,162
1043,6	18,562
1044	24,79
1044,4	24,076
1044,8	27,419
1045,2	23,648
1045,6	26,048
1046,1	27,819
1046,5	25,933
1046,9	20,219
1047,3	25,248
1047,7	21,762
1048,1	26,019
1048,5	27,562
1049	26,562
1049,4	24,733
1049,8	22,533
1050,2	17,562
1050,6	20,219
1051	15,533
1051,4	15,219
1051,9	9,962
1052,3	8,762
1052,7	14,962
1053,1	14,562
1053,5	12,59
1053,9	18,876
1054,3	13,276
1054,8	19,162
1055,2	16,305
1055,6	16,19
1056	14,648
1056,4	15,79
1056,8	14,762
1057,2	22,619
1057,6	23,362
1058,1	29,19
1058,5	26,305
1058,9	26,933
1059,3	27,876
1059,7	26,305
1060,1	20,648
1060,5	15,762
1061	9,905
1061,4	11,99
1061,8	15,105
1062,2	9,848
1062,6	10,019
1063	12,105
1063,4	15,762
1063,8	16,933
1064,3	17,79
1064,7	17,19
1065,1	19,876
1065,5	18,619
1065,9	21,476
1066,3	19,99
1066,7	19,848
1067,1	14,905
1067,6	17,448
1068	16,933
1068,4	14,133
1068,8	8,762
1069,2	8,448
1069,6	8,905
1070	14,533
1070,4	12,105
1070,9	15,39
1071,3	20,39
1071,7	22,905
1072,1	21,39
1072,5	23,276
1072,9	18,133
1073,3	19,933
1073,7	18,705
1074,2	16,305
1074,6	12,19
1075	14,79
1075,4	11,705
1075,8	15,562
1076,2	12,676
1076,6	8,905
1077	8,476
1077,5	18,19
1077,9	18,048
1078,3	18,933
1078,7	16,076
1079,1	19,562
1079,5	20,276
1079,9	17,762
1080,3	10,676
1080,7	11,648
1081,2	15,876
1081,6	13,619
1082	11,048
1082,4	9,019
1082,8	12,305
1083,2	15,505
1083,6	12,276
1084	6,39
1084,5	8,619
1084,9	5,162
1085,3	11,362
1085,7	13,362
1086,1	13,019
1086,5	10,705
1086,9	15,59
1087,3	15,305
1087,7	14,733
1088,2	12,248
1088,6	8,533
1089	5,019
1089,4	6,99
1089,8	5,676
1090,2	4,962
1090,6	9,219
1091	10,648
1091,4	13,876
1091,9	13,962
1092,3	18,019
1092,7	18,333
1093,1	19,819
1093,5	16,705
1093,9	14,705
1094,3	12,19
1094,7	14,448
1095,1	9,105
1095,5	4,819
1096	5,933
1096,4	9,99
1096,8	7,162
1097,2	9,705
1097,6	10,819
1098	15,19
1098,4	15,762
1098,8	15,676
1099,2	10,048
1099,6	10,962
1100,1	8,648
1100,5	8,962
1100,9	9,848
1101,3	13,619
1101,7	10,448
1102,1	16,276
1102,5	14,876
1102,9	14,648
1103,3	12,762
1103,7	9,219
1104,2	4,419
1104,6	9,933
1105	8,648
1105,4	12,448
1105,8	11,419
1106,2	10,133
1106,6	9,162
1107	10,648
1107,4	6,8
1107,8	3,653
1108,3	-0,267
