Data from Subt2_00085.txt Node
Date: Mon Aug 28 13:32:31 MSK 2023
User: vat
Spectrometer: MAYP114033
Trigger mode: 0
Integration Time (sec): 1,000000E0
Scans to average: 5
Electric dark correction enabled: true
Nonlinearity correction enabled: false
Boxcar width: 3
XAxis mode: Wavelengths
Number of Pixels in Spectrum: 2068
>>>>>Begin Spectral Data<<<<<
199,4	-0,367
199,9	-2,087
200,4	1,367
200,8	3,09
201,3	4,776
201,8	6,376
202,2	8,062
202,7	9,09
203,2	12,09
203,6	11,805
204,1	10,519
204,6	7,662
205	5,719
205,5	5,062
206	5,462
206,4	3,748
206,9	1,719
207,4	2,633
207,8	3,405
208,3	4,176
208,8	6,348
209,2	8,49
209,7	9,376
210,2	11,805
210,6	10,662
211,1	16,233
211,5	16,005
212	12,005
212,5	11,033
212,9	10,662
213,4	11,348
213,9	13,548
214,3	12,548
214,8	13,29
215,3	16,748
215,7	16,262
216,2	14,89
216,7	16,919
217,1	13,29
217,6	9,148
218,1	7,833
218,5	3,29
219	4,033
219,5	6,548
219,9	-1,51
220,4	5,033
220,9	4,748
221,3	6,862
221,8	7,205
222,3	7,576
222,7	7,348
223,2	9,148
223,6	0,948
224,1	6,062
224,6	7,862
225	10,833
225,5	7,605
226	6,462
226,4	13,262
226,9	15,148
227,4	17,205
227,8	17,948
228,3	18,719
228,8	21,49
229,2	21,976
229,7	19,433
230,2	25,062
230,6	18,633
231,1	15,233
231,5	15,605
232	14,405
232,5	13,948
232,9	16,005
233,4	14,605
233,9	14,976
234,3	17,005
234,8	14,69
235,3	15,662
235,7	17,348
236,2	13,319
236,7	8,262
237,1	11,005
237,6	10,462
238,1	16,805
238,5	16,662
239	18,062
239,4	18,09
239,9	21,89
240,4	18,833
240,8	22,69
241,3	18,462
241,8	18,119
242,2	13,719
242,7	14,405
243,2	16,862
243,6	18,033
244,1	11,462
244,6	5,348
245	5,148
245,5	7,005
245,9	9,633
246,4	4,976
246,9	3,89
247,3	7,748
247,8	9,119
248,3	10,462
248,7	11,662
249,2	10,919
249,7	17,29
250,1	15,805
250,6	14,576
251	18,376
251,5	15,376
252	11,09
252,4	11,119
252,9	8,89
253,4	13,662
253,8	10,548
254,3	10,319
254,8	14,462
255,2	16,005
255,7	11,005
256,1	7,976
256,6	4,862
257,1	8,319
257,5	6,49
258	1,805
258,5	7,033
258,9	6,976
259,4	9,405
259,9	7,433
260,3	6,233
260,8	2,948
261,2	7,719
261,7	3,176
262,2	4,662
262,6	4,29
263,1	6,348
263,6	1,405
264	5,89
264,5	8,033
264,9	10,319
265,4	12,576
265,9	10,09
266,3	8,89
266,8	11,405
267,3	11,033
267,7	6,69
268,2	4,948
268,7	5,005
269,1	2,005
269,6	4,576
270	5,09
270,5	12,833
271	10,176
271,4	5,719
271,9	3,405
272,4	4,176
272,8	1,29
273,3	0,548
273,7	-6,567
274,2	-7,595
274,7	-2,824
275,1	-0,91
275,6	2,376
276,1	3,633
276,5	5,319
277	6,405
277,4	14,205
277,9	12,605
278,4	8,205
278,8	7,462
279,3	10,49
279,8	13,433
280,2	18,633
280,7	14,776
281,1	11,833
281,6	15,719
282,1	17,405
282,5	17,833
283	13,29
283,4	6,176
283,9	5,633
284,4	13,062
284,8	12,405
285,3	9,776
285,8	7,462
286,2	8,348
286,7	10,605
287,1	9,062
287,6	7,005
288,1	7,29
288,5	10,233
289	9,233
289,5	10,633
289,9	11,148
290,4	13,148
290,8	11,405
291,3	10,005
291,8	5,976
292,2	6,662
292,7	4,262
293,1	2,119
293,6	-1,567
294,1	-3,11
294,5	-1,424
295	-0,881
295,5	0,09
295,9	2,376
296,4	3,319
296,8	4,405
297,3	9,776
297,8	15,148
298,2	15,776
298,7	16,09
299,1	13,548
299,6	13,205
300,1	18,205
300,5	14,233
301	7,462
301,5	10,462
301,9	5,548
302,4	5,633
302,8	9,348
303,3	11,776
303,8	15,033
304,2	16,29
304,7	12,148
305,1	14,662
305,6	14,833
306,1	8,805
306,5	-1,31
307	-3,595
307,4	-6,252
307,9	-3,595
308,4	-2,31
308,8	1,805
309,3	6,519
309,8	11,29
310,2	9,69
310,7	11,205
311,1	9,948
311,6	6,519
312,1	3,519
312,5	1,719
313	3,176
313,4	6,633
313,9	5,09
314,4	3,862
314,8	7,033
315,3	12,633
315,7	14,062
316,2	9,69
316,7	9,319
317,1	13,262
317,6	15,576
318	16,062
318,5	9,719
319	8,519
319,4	11,462
319,9	3,548
320,3	3,776
320,8	3,062
321,3	-2,481
321,7	0,548
322,2	-3,681
322,6	0,09
323,1	5,262
323,6	3,719
324	3,69
324,5	8,776
324,9	8,89
325,4	11,062
325,9	6,948
326,3	6,405
326,8	6,548
327,2	5,262
327,7	4,433
328,2	3,919
328,6	8,69
329,1	4,519
329,5	7,805
330	5,748
330,5	14,462
330,9	12,976
331,4	12,862
331,8	6,976
332,3	10,033
332,8	10,719
333,2	13,262
333,7	4,462
334,1	5,462
334,6	2,233
335,1	5,833
335,5	6,605
336	7,09
336,4	8,462
336,9	11,433
337,4	7,748
337,8	8,719
338,3	8,348
338,7	8,176
339,2	5,09
339,7	3,405
340,1	-1,167
340,6	2,519
341	6,033
341,5	6,205
342	5,748
342,4	1,748
342,9	2,433
343,3	10,005
343,8	12,062
344,2	11,805
344,7	12,348
345,2	13,548
345,6	20,233
346,1	22,348
346,5	22,719
347	23,005
347,5	23,233
347,9	21,262
348,4	20,405
348,8	20,776
349,3	14,376
349,8	9,776
350,2	10,89
350,7	9,405
351,1	11,49
351,6	14,176
352	16,433
352,5	26,519
353	36,148
353,4	41,433
353,9	55,405
354,3	71,005
354,8	80,519
355,3	92,576
355,7	108,262
356,2	122,49
356,6	142,633
357,1	162,576
357,5	183,348
358	222,633
358,5	256,719
358,9	294,176
359,4	342,205
359,8	393,205
360,3	448,262
360,8	512,69
361,2	577,233
361,7	659,576
362,1	741,862
362,6	832,319
363	936,548
363,5	1037,148
364	1148,29
364,4	1259,405
364,9	1367,519
365,3	1477,176
365,8	1584,462
366,3	1672,776
366,7	1761,348
367,2	1828,233
367,6	1896,605
368,1	1939,605
368,5	1973,262
369	1977,49
369,5	1985,833
369,9	1972,233
370,4	1942,062
370,8	1887,548
371,3	1838,005
371,7	1771,948
372,2	1707,09
372,7	1620,662
373,1	1538,833
373,6	1458,833
374	1373,49
374,5	1283,948
374,9	1199,062
375,4	1116,69
375,9	1042,148
376,3	965,148
376,8	894,576
377,2	835,662
377,7	774,748
378,2	718,948
378,6	667,633
379,1	612,148
379,5	570,919
380	529,005
380,4	489,319
380,9	456,519
381,4	424,605
381,8	400,148
382,3	384,433
382,7	363,519
383,2	342,776
383,6	327,148
384,1	314,49
384,6	300,89
385	287,376
385,5	272,633
385,9	257,576
386,4	250,976
386,8	237,69
387,3	223,233
387,7	214,062
388,2	197,719
388,7	188,29
389,1	183,262
389,6	173,233
390	167,69
390,5	164,433
390,9	156,433
391,4	150,519
391,9	144,662
392,3	137,605
392,8	133,976
393,2	129,433
393,7	123,319
394,1	118,348
394,6	117,862
395,1	117,262
395,5	116,719
396	112,148
396,4	105,005
396,9	100,833
397,3	103,719
397,8	99,233
398,2	95,948
398,7	88,433
399,2	85,176
399,6	84,09
400,1	79,776
400,5	77,262
401	82,919
401,4	77,519
401,9	81,09
402,4	77,833
402,8	81,69
403,3	83,919
403,7	80,719
404,2	77,405
404,6	77,519
405,1	80,262
405,5	81,69
406	82,433
406,5	82,348
406,9	84,062
407,4	78,519
407,8	80,405
408,3	72,748
408,7	73,548
409,2	67,462
409,6	66,576
410,1	66,776
410,6	68,29
411	70,433
411,5	67,719
411,9	67,148
412,4	70,233
412,8	69,29
413,3	70,89
413,7	73,319
414,2	71,833
414,7	77,262
415,1	82,633
415,6	83,948
416	91,576
416,5	99,005
416,9	103,005
417,4	106,405
417,8	112,405
418,3	113,748
418,8	114,576
419,2	116,976
419,7	111,462
420,1	107,976
420,6	110,576
421	113,09
421,5	116,919
421,9	120,405
422,4	119,719
422,8	119,205
423,3	123,633
423,8	120,09
424,2	114,89
424,7	115,662
425,1	112,89
425,6	110,319
426	116,662
426,5	119,062
426,9	122,176
427,4	127,119
427,9	126,09
428,3	129,662
428,8	132,348
429,2	129,948
429,7	131,519
430,1	130,605
430,6	123,833
431	125,062
431,5	128,548
431,9	130,462
432,4	131,862
432,8	129,576
433,3	132,748
433,8	144,605
434,2	148,805
434,7	148,576
435,1	154,29
435,6	158,033
436	163,719
436,5	170,148
436,9	175,119
437,4	178,776
437,8	185,833
438,3	192,205
438,8	199,005
439,2	206,376
439,7	216,062
440,1	223,119
440,6	236,433
441	245,948
441,5	254,005
441,9	263,433
442,4	275,833
442,8	287,605
443,3	302,319
443,7	307,348
444,2	319,49
444,7	334,005
445,1	350,948
445,6	366,776
446	382,262
446,5	392,576
446,9	411,862
447,4	428,319
447,8	443,576
448,3	459,148
448,7	476,033
449,2	491,519
449,6	512,519
450,1	527,176
450,6	550,119
451	575,405
451,5	602,633
451,9	623,976
452,4	648,548
452,8	670,005
453,3	697,548
453,7	721,49
454,2	741,348
454,6	760,062
455,1	789,805
455,5	814,433
456	846,29
456,4	877,205
456,9	908,09
457,3	937,748
457,8	968,519
458,3	996,319
458,7	1028,748
459,2	1057,376
459,6	1091,548
460,1	1122,148
460,5	1152,519
461	1185,462
461,4	1222,319
461,9	1254,005
462,3	1291,719
462,8	1320,605
463,2	1359,262
463,7	1404,748
464,1	1442,948
464,6	1479,319
465	1515,376
465,5	1550,519
466	1602,319
466,4	1646,376
466,9	1686,805
467,3	1723,719
467,8	1766,005
468,2	1814,719
468,7	1856,919
469,1	1891,862
469,6	1923,09
470	1963,576
470,5	2011,662
470,9	2048,319
471,4	2091,805
471,8	2139,262
472,3	2179,348
472,7	2229,405
473,2	2269,719
473,6	2316,919
474,1	2365,376
474,5	2400,519
475	2442,319
475,4	2489,662
475,9	2528,605
476,4	2576,662
476,8	2621,976
477,3	2661,69
477,7	2709,69
478,2	2749,233
478,6	2785,376
479,1	2828,119
479,5	2861,89
480	2893,89
480,4	2936,233
480,9	2975,519
481,3	3016,233
481,8	3054,119
482,2	3093,633
482,7	3138,576
483,1	3170,748
483,6	3203,805
484	3234,605
484,5	3271,605
484,9	3307,69
485,4	3333,605
485,8	3353,976
486,3	3381,005
486,7	3413,176
487,2	3450,89
487,6	3471,605
488,1	3498,833
488,5	3528,205
489	3563,348
489,4	3602,005
489,9	3628,262
490,4	3648,405
490,8	3677,776
491,3	3703,805
491,7	3726,919
492,2	3748,633
492,6	3769,262
493,1	3787,862
493,5	3810,09
494	3828,719
494,4	3842,262
494,9	3862,519
495,3	3875,033
495,8	3889,919
496,2	3906,262
496,7	3920,605
497,1	3929,748
497,6	3947,633
498	3963,776
498,5	3983,833
498,9	4003,433
499,4	4014,976
499,8	4024,433
500,3	4046,233
500,7	4060,805
501,2	4072,348
501,6	4079,748
502,1	4086,29
502,5	4099,49
503	4120,033
503,4	4127,805
503,9	4143,433
504,3	4153,205
504,8	4164,776
505,2	4175,89
505,7	4184,719
506,1	4187,433
506,6	4189,09
507	4190,233
507,5	4194,662
507,9	4208,948
508,4	4220,176
508,8	4227,49
509,3	4239,119
509,7	4251,148
510,2	4266,29
510,6	4275,519
511,1	4277,119
511,5	4280,776
512	4292,348
512,4	4292,862
512,9	4304,976
513,3	4305,348
513,8	4317,119
514,2	4322,69
514,7	4325,919
515,1	4327,662
515,6	4336,433
516	4338,176
516,5	4345,405
516,9	4348,376
517,4	4356,148
517,8	4358,576
518,3	4364,833
518,7	4375,948
519,2	4382,69
519,6	4384,805
520,1	4394,89
520,5	4399,519
521	4403,233
521,4	4412,776
521,9	4410,719
522,3	4417,49
522,8	4425,89
523,2	4433,948
523,7	4441,205
524,1	4452,919
524,6	4453,433
525	4463,548
525,5	4465,89
525,9	4481,005
526,4	4480,69
526,8	4483,29
527,3	4495,433
527,7	4508,919
528,2	4518,262
528,6	4535,69
529,1	4534,576
529,5	4545,433
530	4561,519
530,4	4570,233
530,9	4577,033
531,3	4590,519
531,8	4593,148
532,2	4598,09
532,6	4611,519
533,1	4615,119
533,5	4622,69
534	4625,062
534,4	4632,633
534,9	4646,662
535,3	4667,976
535,8	4679,462
536,2	4691,119
536,7	4697,405
537,1	4721,062
537,6	4732,605
538	4744,348
538,5	4750,09
538,9	4752,119
539,4	4765,433
539,8	4775,976
540,3	4776,462
540,7	4782,519
541,2	4789,005
541,6	4793,633
542,1	4804,262
542,5	4812,976
543	4825,833
543,4	4839,205
543,9	4841,633
544,3	4854,976
544,8	4866,233
545,2	4873,862
545,7	4884,862
546,1	4893,462
546,5	4903,09
547	4915,69
547,4	4918,69
547,9	4926,405
548,3	4934,633
548,8	4939,005
549,2	4949,89
549,7	4962,519
550,1	4967,548
550,6	4978,262
551	4987,09
551,5	4994,262
551,9	5005,09
552,4	5012,462
552,8	5018,69
553,3	5031,319
553,7	5043,748
554,2	5058,205
554,6	5072,433
555,1	5081,148
555,5	5089,862
555,9	5096,605
556,4	5107,519
556,8	5113,748
557,3	5124,776
557,7	5132,805
558,2	5155,462
558,6	5162,062
559,1	5165,033
559,5	5170,548
560	5181,005
560,4	5183,119
560,9	5186,49
561,3	5182,262
561,8	5189,005
562,2	5201,233
562,7	5198,205
563,1	5196,719
563,6	5202,376
564	5208,662
564,4	5215,462
564,9	5226,49
565,3	5226,405
565,8	5244,005
566,2	5251,776
566,7	5258,719
567,1	5266,519
567,6	5272,605
568	5270,719
568,5	5276,69
568,9	5273,89
569,4	5271,719
569,8	5274,548
570,3	5273,776
570,7	5274,548
571,1	5278,719
571,6	5278,176
572	5279,49
572,5	5283,919
572,9	5281,462
573,4	5274,348
573,8	5269,805
574,3	5261,919
574,7	5264,976
575,2	5261,719
575,6	5269,776
576,1	5271,462
576,5	5279,462
576,9	5271,205
577,4	5274,49
577,8	5268,548
578,3	5266,09
578,7	5250,348
579,2	5236,233
579,6	5236,176
580,1	5232,89
580,5	5228,89
581	5226,033
581,4	5231,748
581,9	5228,919
582,3	5233,062
582,7	5215,548
583,2	5210,319
583,6	5199,09
584,1	5185,862
584,5	5167,69
585	5155,319
585,4	5141,062
585,9	5139,576
586,3	5122,805
586,8	5114,348
587,2	5112,49
587,6	5111,148
588,1	5108,49
588,5	5102,176
589	5087,29
589,4	5091,233
589,9	5081,576
590,3	5067,576
590,8	5051,348
591,2	5040,033
591,7	5028,205
592,1	5026,348
592,5	5013,376
593	5007,576
593,4	5004,548
593,9	4997,148
594,3	4996,205
594,8	4989,148
595,2	4975,919
595,7	4965,09
596,1	4959,062
596,6	4944,833
597	4940,062
597,4	4917,976
597,9	4912,633
598,3	4904,319
598,8	4894,148
599,2	4882,405
599,7	4876,09
600,1	4863,605
600,6	4856,976
601	4847,062
601,4	4839,29
601,9	4829,119
602,3	4814,119
602,8	4806,09
603,2	4793,862
603,7	4786,919
604,1	4769,176
604,6	4749,09
605	4738,49
605,4	4728,633
605,9	4707,976
606,3	4701,29
606,8	4686,919
607,2	4679,262
607,7	4668,605
608,1	4656,69
608,6	4646,005
609	4641,89
609,4	4620,005
609,9	4604,148
610,3	4584,062
610,8	4577,433
611,2	4559,605
611,7	4541,662
612,1	4521,233
612,6	4504,805
613	4483,462
613,4	4469,605
613,9	4448,662
614,3	4431,748
614,8	4411,176
615,2	4394,462
615,7	4380,233
616,1	4368,576
616,6	4355,319
617	4343,776
617,4	4329,433
617,9	4321,519
618,3	4304,719
618,8	4292,376
619,2	4277,805
619,7	4261,405
620,1	4242,862
620,5	4222,862
621	4202,833
621,4	4188,776
621,9	4160,919
622,3	4139,29
622,8	4116,433
623,2	4097,348
623,6	4081,062
624,1	4057,976
624,5	4035,919
625	4024,748
625,4	4008,776
625,9	3990,09
626,3	3968,49
626,8	3948,748
627,2	3927,862
627,6	3913,805
628,1	3895,719
628,5	3874,576
629	3855,776
629,4	3831,976
629,9	3811,09
630,3	3795,605
630,7	3770,09
631,2	3751,605
631,6	3736,405
632,1	3718,919
632,5	3700,462
633	3678,233
633,4	3656,89
633,8	3642,719
634,3	3621,833
634,7	3599,748
635,2	3580,89
635,6	3574,805
636,1	3561,148
636,5	3543,748
636,9	3517,89
637,4	3499,719
637,8	3479,462
638,3	3457,176
638,7	3431,576
639,2	3413,976
639,6	3392,348
640	3375,948
640,5	3352,062
640,9	3329,519
641,4	3307,262
641,8	3294,776
642,2	3275,633
642,7	3263,919
643,1	3246,348
643,6	3240,405
644	3233,548
644,5	3229,348
644,9	3206,576
645,3	3191,976
645,8	3172,176
646,2	3160,433
646,7	3138,719
647,1	3121,633
647,6	3099,348
648	3080,233
648,4	3066,433
648,9	3051,89
649,3	3033,69
649,8	3016,748
650,2	3003,348
650,6	2988,976
651,1	2975,633
651,5	2955,719
652	2940,29
652,4	2928,348
652,9	2913,776
653,3	2893,29
653,7	2885,09
654,2	2864,633
654,6	2851,462
655,1	2840,09
655,5	2819,033
655,9	2802,948
656,4	2787,805
656,8	2763,233
657,3	2750,005
657,7	2736,89
658,2	2718,519
658,6	2705,633
659	2686,576
659,5	2673,033
659,9	2657,205
660,4	2643,662
660,8	2619,576
661,2	2601,062
661,7	2585,805
662,1	2576,033
662,6	2559,633
663	2542,633
663,4	2526,29
663,9	2517,319
664,3	2507,233
664,8	2486,776
665,2	2467,862
665,6	2446,69
666,1	2433,062
666,5	2417,462
667	2403,748
667,4	2387,69
667,9	2384,548
668,3	2371,49
668,7	2360,176
669,2	2344,405
669,6	2329,405
670,1	2309,319
670,5	2288,462
670,9	2263,49
671,4	2243,233
671,8	2225,833
672,3	2213,319
672,7	2199,49
673,1	2187,719
673,6	2170,005
674	2158,919
674,5	2149,776
674,9	2135,49
675,3	2115,462
675,8	2098,805
676,2	2079,319
676,7	2069,033
677,1	2057,176
677,5	2040,976
678	2032,548
678,4	2027,776
678,9	2017,805
679,3	2011,148
679,7	2000,09
680,2	1981,462
680,6	1973,433
681,1	1962,69
681,5	1944,69
681,9	1929,633
682,4	1915,633
682,8	1906,805
683,3	1895,805
683,7	1882,776
684,1	1865,633
684,6	1853,748
685	1845,376
685,5	1833,319
685,9	1821,919
686,3	1809,69
686,8	1794,348
687,2	1781,119
687,7	1766,948
688,1	1751,405
688,5	1747,119
689	1731,348
689,4	1723,719
689,9	1709,433
690,3	1701,976
690,7	1692,09
691,2	1678,548
691,6	1660,29
692	1647,576
692,5	1634,519
692,9	1621,976
693,4	1608,033
693,8	1600,29
694,2	1593,176
694,7	1578,376
695,1	1571,776
695,6	1559,833
696	1556,262
696,4	1545,862
696,9	1533,576
697,3	1521,519
697,8	1520,519
698,2	1508,29
698,6	1494,662
699,1	1484,405
699,5	1468,576
699,9	1460,005
700,4	1452,49
700,8	1435,662
701,3	1428,605
701,7	1421,49
702,1	1409,662
702,6	1407,176
703	1395,948
703,5	1385,519
703,9	1377,119
704,3	1360,976
704,8	1355,462
705,2	1344,09
705,6	1331,319
706,1	1318,805
706,5	1311,862
707	1302,29
707,4	1300,433
707,8	1283,29
708,3	1275,005
708,7	1265,376
709,2	1259,09
709,6	1249,119
710	1241,576
710,5	1228,833
710,9	1228,148
711,3	1217,233
711,8	1212,376
712,2	1201,09
712,7	1188,976
713,1	1175,29
713,5	1164,49
714	1153,89
714,4	1150,605
714,8	1137,862
715,3	1133,719
715,7	1123,633
716,2	1121,348
716,6	1119,49
717	1108,719
717,5	1098,776
717,9	1094,262
718,3	1084,033
718,8	1084,376
719,2	1076,262
719,7	1064,148
720,1	1056,319
720,5	1049,69
721	1034,776
721,4	1028,919
721,8	1016,09
722,3	1007,89
722,7	1002,89
723,2	992,262
723,6	984,262
724	983,433
724,5	971,405
724,9	966,69
725,3	959,719
725,8	946,719
726,2	938,748
726,7	933,49
727,1	928,29
727,5	923,09
728	911,976
728,4	899,948
728,8	896,348
729,3	894,776
729,7	882,548
730,1	874,776
730,6	869,633
731	867,662
731,5	861,119
731,9	858,348
732,3	852,433
732,8	852,662
733,2	847,29
733,6	844,433
734,1	839,633
734,5	839,748
734,9	833,062
735,4	828,576
735,8	817,605
736,3	814,233
736,7	807,005
737,1	803,605
737,6	799,319
738	796,605
738,4	790,09
738,9	788,348
739,3	782,319
739,7	776,233
740,2	767,119
740,6	763,319
741,1	753,348
741,5	748,09
741,9	744,605
742,4	738,205
742,8	736,262
743,2	733,519
743,7	725,862
744,1	726,462
744,5	725,833
745	712,519
745,4	710,033
745,8	703,69
746,3	699,862
746,7	696,033
747,2	685,919
747,6	681,548
748	683,462
748,5	680,119
748,9	674,348
749,3	662,033
749,8	658,033
750,2	653,262
750,6	647,176
751,1	642,462
751,5	634,976
751,9	632,348
752,4	632,748
752,8	627,376
753,3	624,919
753,7	617,605
754,1	614,662
754,6	611,033
755	606,519
755,4	607,348
755,9	604,633
756,3	600,776
756,7	600,948
757,2	598,576
757,6	590,376
758	587,633
758,5	577,776
758,9	571,062
759,3	564,776
759,8	561,062
760,2	552,69
760,6	554,062
761,1	543,319
761,5	539,69
761,9	539,09
762,4	536,805
762,8	526,376
763,3	526,462
763,7	516,719
764,1	521,433
764,6	514,719
765	505,776
765,4	503,148
765,9	506,176
766,3	499,405
766,7	500,148
767,2	493,033
767,6	493,862
768	495,433
768,5	490,862
768,9	484,69
769,3	478,405
769,8	475,662
770,2	472,919
770,6	468,348
771,1	464,262
771,5	462,033
771,9	464,062
772,4	469,748
772,8	466,005
773,2	465,433
773,7	460,405
774,1	459,919
774,5	454,176
775	441,176
775,4	430,319
775,8	428,062
776,3	423,948
776,7	420,576
777,1	412,519
777,6	408,29
778	413,376
778,4	414,433
778,9	407,633
779,3	401,662
779,7	398,833
780,2	403,576
780,6	404,233
781	395,805
781,5	392,119
781,9	391,919
782,3	390,833
782,8	393,833
783,2	382,69
783,6	378,976
784,1	375,69
784,5	371,062
784,9	367,433
785,4	364,405
785,8	356,49
786,2	357,805
786,7	356,748
787,1	360,433
787,5	358,548
788	359,348
788,4	353,033
788,8	350,205
789,3	345,29
789,7	343,148
790,1	333,69
790,6	332,376
791	328,148
791,4	329,005
791,9	327,233
792,3	325,948
792,7	318,862
793,2	319,376
793,6	319,833
794	315,005
794,5	313,319
794,9	316,119
795,3	315,69
795,8	315,033
796,2	314,805
796,6	307,776
797,1	301,805
797,5	306,519
797,9	302,348
798,4	293,29
798,8	293,09
799,2	288,548
799,7	288,405
800,1	290,519
800,5	282,948
801	282,862
801,4	288,49
801,8	285,348
802,2	285,119
802,7	287,09
803,1	287,348
803,5	281,576
804	274,262
804,4	267,833
804,8	265,662
805,3	263,69
805,7	256,948
806,1	254,862
806,6	252,833
807	254,89
807,4	256,633
807,9	253,89
808,3	251,062
808,7	247,948
809,2	246,119
809,6	248,119
810	240,376
810,4	235,519
810,9	236,09
811,3	238,09
811,7	240,29
812,2	237,262
812,6	229,576
813	234,033
813,5	229,262
813,9	225,033
814,3	216,776
814,8	210,833
815,2	212,433
815,6	217,319
816,1	214,719
816,5	217,719
816,9	213,119
817,3	214,348
817,8	216,976
818,2	211,148
818,6	208,776
819,1	207,89
819,5	199,833
819,9	199,633
820,4	197,633
820,8	193,748
821,2	191,576
821,7	189,348
822,1	181,405
822,5	185,062
822,9	185,662
823,4	186,233
823,8	186,833
824,2	187,89
824,7	185,405
825,1	186,748
825,5	182,748
826	180,519
826,4	173,519
826,8	170,148
827,3	168,205
827,7	166,776
828,1	168,29
828,5	162,348
829	163,976
829,4	161,148
829,8	157,462
830,3	156,176
830,7	149,89
831,1	147,89
831,6	152,49
832	149,748
832,4	152,719
832,8	149,662
833,3	147,433
833,7	146,119
834,1	147,062
834,6	145,548
835	147,548
835,4	146,605
835,8	150,062
836,3	148,033
836,7	155,29
837,1	147,719
837,6	150,319
838	148,233
838,4	149,233
838,9	145,776
839,3	148,548
839,7	146,005
840,1	143,176
840,6	139,605
841	137,719
841,4	136,89
841,9	134,033
842,3	130,348
842,7	128,576
843,1	132,833
843,6	131,662
844	130,433
844,4	126,519
844,9	126,862
845,3	127,062
845,7	124,319
846,2	124,262
846,6	121,576
847	118,205
847,4	112,633
847,9	110,948
848,3	110,862
848,7	109,833
849,2	109,233
849,6	107,376
850	110,205
850,4	115,29
850,9	116,062
851,3	110,005
851,7	109,519
852,2	107,776
852,6	109,948
853	108,405
853,4	103,748
853,9	100,662
854,3	101,348
854,7	103,49
855,2	100,776
855,6	99,748
856	97,119
856,4	101,119
856,9	103,719
857,3	102,919
857,7	99,576
858,2	97,119
858,6	97,205
859	95,062
859,4	92,49
859,9	94,976
860,3	95,89
860,7	93,919
861,1	96,633
861,6	96,319
862	96,833
862,4	94,176
862,9	88,205
863,3	81,49
863,7	85,09
864,1	83,062
864,6	81,548
865	80,405
865,4	83,919
865,9	85,176
866,3	90,005
866,7	88,948
867,1	86,09
867,6	87,405
868	92,49
868,4	88,148
868,8	86,262
869,3	88,205
869,7	86,948
870,1	92,233
870,6	87,176
871	82,748
871,4	83,376
871,8	82,605
872,3	80,519
872,7	80,633
873,1	77,862
873,5	78,633
874	72,262
874,4	69,833
874,8	71,805
875,3	70,09
875,7	68,205
876,1	64,262
876,5	61,033
877	63,29
877,4	65,605
877,8	65,433
878,2	61,062
878,7	62,348
879,1	62,605
879,5	62,805
879,9	62,948
880,4	64,005
880,8	59,09
881,2	64,662
881,7	60,205
882,1	59,748
882,5	63,033
882,9	64,976
883,4	61,262
883,8	62,976
884,2	58,033
884,6	60,462
885,1	59,376
885,5	56,319
885,9	56,033
886,3	57,605
886,8	56,348
887,2	58,805
887,6	51,948
888	56,919
888,5	57,433
888,9	55,519
889,3	54,919
889,8	56,348
890,2	51,033
890,6	54,519
891	52,548
891,5	54,519
891,9	49,49
892,3	46,919
892,7	44,062
893,2	49,148
893,6	47,176
894	47,976
894,4	45,348
894,9	48,119
895,3	48,176
895,7	46,948
896,1	45,29
896,6	45,376
897	41,405
897,4	40,719
897,8	41,033
898,3	42,833
898,7	44,148
899,1	46,405
899,5	46,919
900	45,719
900,4	47,376
900,8	49,49
901,2	49,376
901,7	49,405
902,1	55,233
902,5	52,262
902,9	50,548
903,4	50,376
903,8	46,49
904,2	44,348
904,6	44,433
905,1	38,233
905,5	42,033
905,9	42,833
906,3	38,69
906,8	38,09
907,2	35,005
907,6	36,89
908	32,348
908,5	30,233
908,9	34,29
909,3	37,09
909,7	40,605
910,2	46,633
910,6	41,576
911	38,662
911,4	36,348
911,9	32,233
912,3	31,548
912,7	28,348
913,1	23,405
913,6	22,776
914	30,576
914,4	25,433
914,8	25,748
915,3	21,09
915,7	28,005
916,1	30,633
916,5	35,119
916,9	27,748
917,4	35,062
917,8	29,833
918,2	33,862
918,6	31,176
919,1	29,348
919,5	24,748
919,9	28,376
920,3	29,948
920,8	35,376
921,2	33,262
921,6	29,805
922	31,348
922,5	32,09
922,9	32,319
923,3	30,519
923,7	29,49
924,2	30,662
924,6	30,005
925	27,262
925,4	28,29
925,8	28,119
926,3	32,605
926,7	32,119
927,1	29,433
927,5	33,29
928	31,662
928,4	33,833
928,8	32,576
929,2	26,205
929,7	27,09
930,1	29,319
930,5	27,005
930,9	28,405
931,3	27,09
931,8	28,69
932,2	34,033
932,6	32,376
933	29,176
933,5	29,605
933,9	31,776
934,3	31,633
934,7	26,69
935,2	28,462
935,6	27,233
936	28,376
936,4	27,033
936,8	25,405
937,3	23,148
937,7	23,233
938,1	10,948
938,5	10,89
939	13,862
939,4	14,062
939,8	13,405
940,2	13,519
940,6	18,833
941,1	27,262
941,5	31,033
941,9	31,805
942,3	31,405
942,8	32,776
943,2	37,576
943,6	36,205
944	33,176
944,4	30,748
944,9	28,176
945,3	24,119
945,7	24,462
946,1	20,662
946,6	18,976
947	19,233
947,4	18,348
947,8	20,462
948,2	23,148
948,7	16,262
949,1	17,662
949,5	13,548
949,9	17,005
950,3	17,776
950,8	19,462
951,2	20,548
951,6	26,033
952	23,262
952,5	24,719
952,9	21,262
953,3	22,862
953,7	18,205
954,1	17,976
954,6	15,176
955	15,976
955,4	23,005
955,8	23,919
956,2	23,805
956,7	23,29
957,1	19,262
957,5	19,805
957,9	18,49
958,3	11,576
958,8	11,262
959,2	7,148
959,6	4,776
960	10,062
960,5	7,49
960,9	11,576
961,3	12,919
961,7	9,29
962,1	10,548
962,6	13,376
963	11,69
963,4	17,062
963,8	15,09
964,2	17,405
964,7	20,119
965,1	17,376
965,5	18,776
965,9	19,976
966,3	17,09
966,8	17,376
967,2	14,119
967,6	16,748
968	17,462
968,4	17,405
968,9	15,062
969,3	12,233
969,7	12,062
970,1	8,805
970,5	7,576
971	7,548
971,4	5,805
971,8	8,633
972,2	15,548
972,6	13,376
973,1	17,605
973,5	13,776
973,9	15,29
974,3	13,005
974,7	6,49
975,2	1,662
975,6	1,605
976	1,919
976,4	3,633
976,8	2,033
977,3	5,462
977,7	8,633
978,1	10,262
978,5	10,205
978,9	6,776
979,4	6,319
979,8	11,462
980,2	9,176
980,6	11,919
981	8,462
981,5	7,69
981,9	13,405
982,3	10,176
982,7	7,319
983,1	4,148
983,6	3,576
984	3,776
984,4	5,576
984,8	5,205
985,2	11,262
985,6	12,776
986,1	13,776
986,5	14,29
986,9	17,319
987,3	13,805
987,7	12,405
988,2	8,405
988,6	7,748
989	5,748
989,4	6,605
989,8	2,433
990,3	6,348
990,7	7,919
991,1	12,89
991,5	13,29
991,9	15,29
992,3	11,29
992,8	15,262
993,2	15,548
993,6	8,605
994	5,119
994,4	10,119
994,9	13,69
995,3	16,948
995,7	16,062
996,1	14,89
996,5	16,633
996,9	16,319
997,4	10,948
997,8	11,376
998,2	7,348
998,6	7,09
999	8,576
999,5	10,062
999,9	10,176
1000,3	13,033
1000,7	12,833
1001,1	12,833
1001,5	14,462
1002	10,662
1002,4	11,062
1002,8	11,148
1003,2	11,976
1003,6	13,29
1004	12,519
1004,5	12,119
1004,9	13,69
1005,3	18,176
1005,7	16,633
1006,1	14,948
1006,6	9,49
1007	8,919
1007,4	2,719
1007,8	6,719
1008,2	4,405
1008,6	3,748
1009,1	1,148
1009,5	4,605
1009,9	4,805
1010,3	7,862
1010,7	7,89
1011,1	9,605
1011,6	13,833
1012	11,205
1012,4	14,49
1012,8	16,005
1013,2	20,433
1013,6	16,862
1014,1	12,29
1014,5	9,662
1014,9	14,719
1015,3	9,148
1015,7	10,576
1016,1	5,205
1016,6	-0,167
1017	0,405
1017,4	-0,767
1017,8	-3,938
1018,2	-2,51
1018,6	-3,452
1019,1	-0,824
1019,5	4,519
1019,9	8,862
1020,3	11,29
1020,7	12,205
1021,1	13,576
1021,6	16,033
1022	17,833
1022,4	17,862
1022,8	12,262
1023,2	9,633
1023,6	5,976
1024,1	4,09
1024,5	0,405
1024,9	1,976
1025,3	1,319
1025,7	4,576
1026,1	7,005
1026,6	13,519
1027	16,033
1027,4	19,805
1027,8	12,662
1028,2	11,205
1028,6	10,376
1029	8,519
1029,5	6,433
1029,9	3,319
1030,3	2,005
1030,7	12,719
1031,1	14,633
1031,5	18,148
1032	21,948
1032,4	22,176
1032,8	27,176
1033,2	27,062
1033,6	21,062
1034	20,576
1034,4	19,719
1034,9	20,519
1035,3	17,89
1035,7	10,376
1036,1	8,833
1036,5	12,119
1036,9	13,29
1037,4	13,09
1037,8	13,833
1038,2	11,948
1038,6	15,49
1039	13,119
1039,4	13,348
1039,8	10,805
1040,3	11,262
1040,7	9,233
1041,1	12,862
1041,5	15,033
1041,9	18,49
1042,3	12,576
1042,7	15,319
1043,2	15,348
1043,6	17,49
1044	17,833
1044,4	16,176
1044,8	17,348
1045,2	18,662
1045,6	19,29
1046,1	16,29
1046,5	11,833
1046,9	10,919
1047,3	14,148
1047,7	10,919
1048,1	9,348
1048,5	6,748
1049	12,805
1049,4	14,148
1049,8	13,89
1050,2	11,233
1050,6	10,519
1051	12,548
1051,4	12,233
1051,9	3,262
1052,3	3,89
1052,7	6,805
1053,1	4,576
1053,5	7,205
1053,9	9,69
1054,3	7,376
1054,8	11,119
1055,2	6,09
1055,6	7,319
1056	9,033
1056,4	9,748
1056,8	9,662
1057,2	14,405
1057,6	13,748
1058,1	21,119
1058,5	16,376
1058,9	18,119
1059,3	19,319
1059,7	16,948
1060,1	16,176
1060,5	12,69
1061	8,376
1061,4	16,005
1061,8	13,919
1062,2	9,29
1062,6	14,319
1063	16,805
1063,4	23,033
1063,8	22,348
1064,3	17,005
1064,7	18,148
1065,1	23,29
1065,5	20,405
1065,9	19,433
1066,3	15,862
1066,7	16,233
1067,1	14,462
1067,6	13,319
1068	11,405
1068,4	8,548
1068,8	3,033
1069,2	3,462
1069,6	3,69
1070	6,376
1070,4	7,176
1070,9	4,033
1071,3	12,49
1071,7	16,176
1072,1	15,833
1072,5	19,148
1072,9	18,262
1073,3	20,005
1073,7	25,919
1074,2	17,29
1074,6	15,062
1075	16,919
1075,4	13,748
1075,8	13,633
1076,2	12,376
1076,6	10,033
1077	8,09
1077,5	10,719
1077,9	10,233
1078,3	8,09
1078,7	6,233
1079,1	8,005
1079,5	3,776
1079,9	6,833
1080,3	6,29
1080,7	6,576
1081,2	8,862
1081,6	6,176
1082	5,062
1082,4	3,348
1082,8	4,519
1083,2	7,005
1083,6	5,405
1084	7,748
1084,5	13,89
1084,9	8,205
1085,3	14,405
1085,7	13,49
1086,1	12,719
1086,5	11,433
1086,9	9,233
1087,3	1,919
1087,7	5,948
1088,2	6,919
1088,6	6,633
1089	4,89
1089,4	6,748
1089,8	12,205
1090,2	16,49
1090,6	17,29
1091	14,833
1091,4	18,776
1091,9	20,776
1092,3	22,548
1092,7	17,519
1093,1	18,576
1093,5	16,233
1093,9	19,09
1094,3	15,605
1094,7	13,262
1095,1	12,833
1095,5	8,662
1096	7,005
1096,4	7,176
1096,8	6,376
1097,2	5,176
1097,6	7,433
1098	5,719
1098,4	7,376
1098,8	8,633
1099,2	8,119
1099,6	5,033
1100,1	7,633
1100,5	7,833
1100,9	11,462
1101,3	14,69
1101,7	15,833
1102,1	18,662
1102,5	16,376
1102,9	11,633
1103,3	9,748
1103,7	6,49
1104,2	5,89
1104,6	5,548
1105	4,69
1105,4	7,805
1105,8	9,662
1106,2	8,262
1106,6	7,233
1107	5,776
1107,4	3,9
1107,8	2,633
1108,3	0,883
