Data from Subt2_00092.txt Node
Date: Mon Aug 28 13:35:01 MSK 2023
User: vat
Spectrometer: MAYP114033
Trigger mode: 0
Integration Time (sec): 1,000000E0
Scans to average: 5
Electric dark correction enabled: true
Nonlinearity correction enabled: false
Boxcar width: 3
XAxis mode: Wavelengths
Number of Pixels in Spectrum: 2068
>>>>>Begin Spectral Data<<<<<
199,4	-0,883
199,9	-6,513
200,4	-3,667
200,8	-0,062
201,3	1,938
201,8	6,11
202,2	6,852
202,7	7,395
203,2	13,938
203,6	13,252
204,1	8,567
204,6	9,452
205	5,824
205,5	5,738
206	5,795
206,4	2,367
206,9	5,024
207,4	8,224
207,8	7,195
208,3	8,91
208,8	6,881
209,2	10,338
209,7	11,852
210,2	10,224
210,6	9,452
211,1	14,31
211,5	11,71
212	16,795
212,5	14,338
212,9	12,138
213,4	15,138
213,9	14,852
214,3	13,195
214,8	16,281
215,3	15,767
215,7	13,367
216,2	17,452
216,7	17,567
217,1	18,224
217,6	15,824
218,1	13,624
218,5	8,338
219	10,967
219,5	12,138
219,9	7,938
220,4	10,881
220,9	10,881
221,3	9,938
221,8	15,938
222,3	20,881
222,7	21,452
223,2	19,052
223,6	13,538
224,1	14,938
224,6	20,167
225	17,424
225,5	10,795
226	7,367
226,4	14,395
226,9	16,338
227,4	17,852
227,8	16,51
228,3	15,024
228,8	17,824
229,2	19,338
229,7	17,224
230,2	20,881
230,6	15,824
231,1	12,424
231,5	16,938
232	15,167
232,5	11,052
232,9	13,795
233,4	8,138
233,9	13,51
234,3	18,71
234,8	17,252
235,3	21,167
235,7	25,881
236,2	20,567
236,7	23,024
237,1	21,31
237,6	21,11
238,1	20,938
238,5	19,367
239	18,738
239,4	21,51
239,9	22,538
240,4	18,167
240,8	21,11
241,3	23,652
241,8	17,738
242,2	17,738
242,7	16,395
243,2	16,767
243,6	24,567
244,1	16,938
244,6	11,167
245	14,881
245,5	17,367
245,9	18,367
246,4	17,91
246,9	11,738
247,3	14,824
247,8	16,11
248,3	19,51
248,7	15,081
249,2	13,967
249,7	17,738
250,1	17,481
250,6	14,338
251	13,938
251,5	10,395
252	9,71
252,4	7,367
252,9	6,824
253,4	9,052
253,8	11,167
254,3	11,624
254,8	14,681
255,2	15,652
255,7	15,338
256,1	11,767
256,6	10,31
257,1	11,767
257,5	8,852
258	3,652
258,5	5,824
258,9	6,824
259,4	7,424
259,9	2,652
260,3	-2,148
260,8	-2,69
261,2	1,967
261,7	0,167
262,2	2,852
262,6	5,081
263,1	8,281
263,6	6,195
264	11,11
264,5	9,338
264,9	11,024
265,4	6,167
265,9	2,738
266,3	-0,548
266,8	6,224
267,3	3,31
267,7	2,652
268,2	-0,29
268,7	4,652
269,1	1,195
269,6	8,538
270	2,567
270,5	6,595
271	5,167
271,4	2,824
271,9	-2,89
272,4	0,738
272,8	-3,862
273,3	-0,148
273,7	-3,405
274,2	-4,919
274,7	-0,119
275,1	2,767
275,6	5,881
276,1	8,567
276,5	9,481
277	11,224
277,4	15,767
277,9	11,481
278,4	12,052
278,8	8,824
279,3	8,91
279,8	9,681
280,2	14,424
280,7	12,824
281,1	12,738
281,6	14,51
282,1	16,252
282,5	16,481
283	14,767
283,4	11,938
283,9	11,595
284,4	15,824
284,8	12,11
285,3	9,452
285,8	11,652
286,2	10,424
286,7	8,081
287,1	7,452
287,6	5,738
288,1	10,852
288,5	15,138
289	11,51
289,5	9,738
289,9	8,795
290,4	11,824
290,8	11,852
291,3	10,51
291,8	8,452
292,2	12,481
292,7	13,967
293,1	13,252
293,6	8,452
294,1	11,852
294,5	11,71
295	9,224
295,5	7,081
295,9	9,567
296,4	11,595
296,8	16,167
297,3	15,167
297,8	16,995
298,2	19,452
298,7	17,252
299,1	17,795
299,6	18,252
300,1	16,595
300,5	16,081
301	14,481
301,5	13,024
301,9	12,567
302,4	10,538
302,8	11,081
303,3	13,481
303,8	16,852
304,2	17,224
304,7	14,281
305,1	12,881
305,6	13,052
306,1	11,738
306,5	5,024
307	-2,605
307,4	-8,633
307,9	-1,833
308,4	1,138
308,8	4,538
309,3	5,481
309,8	7,595
310,2	9,424
310,7	15,052
311,1	9,824
311,6	8,424
312,1	3,195
312,5	-0,49
313	4,367
313,4	8,138
313,9	3,91
314,4	3,652
314,8	6,881
315,3	12,338
315,7	15,91
316,2	13,138
316,7	10,71
317,1	15,395
317,6	18,367
318	17,281
318,5	10,595
319	11,51
319,4	12,91
319,9	10,224
320,3	8,424
320,8	7,652
321,3	5,824
321,7	5,91
322,2	2,367
322,6	7,767
323,1	8,11
323,6	11,281
324	8,91
324,5	11,338
324,9	20,367
325,4	23,567
325,9	14,881
326,3	19,681
326,8	14,652
327,2	16,395
327,7	13,367
328,2	9,338
328,6	10,71
329,1	8,224
329,5	7,881
330	9,852
330,5	16,252
330,9	18,024
331,4	12,652
331,8	6,824
332,3	15,167
332,8	10,595
333,2	10,424
333,7	1,995
334,1	-5,605
334,6	-1,548
335,1	2,252
335,5	-0,719
336	4,338
336,4	3,167
336,9	11,138
337,4	19,567
337,8	19,538
338,3	20,224
338,7	19,138
339,2	13,738
339,7	14,852
340,1	6,452
340,6	3,081
341	-0,119
341,5	0,395
342	-1,405
342,4	-3,519
342,9	1,452
343,3	6,081
343,8	11,224
344,2	15,138
344,7	11,567
345,2	12,71
345,6	18,338
346,1	10,767
346,5	7,795
347	2,081
347,5	2,767
347,9	3,195
348,4	3,595
348,8	4,481
349,3	4,081
349,8	4,052
350,2	7,052
350,7	0,195
351,1	2,024
351,6	2,024
352	4,024
352,5	12,767
353	21,024
353,4	25,052
353,9	39,967
354,3	53,395
354,8	58,424
355,3	69,11
355,7	80,281
356,2	91,681
356,6	103,081
357,1	118,138
357,5	131,138
358	165,71
358,5	189,824
358,9	220,595
359,4	255,51
359,8	299,167
360,3	338,395
360,8	390,424
361,2	438,11
361,7	501,595
362,1	561,738
362,6	631,367
363	710,852
363,5	802,738
364	885,338
364,4	973,481
364,9	1057,938
365,3	1147,881
365,8	1235,595
366,3	1309,024
366,7	1370,338
367,2	1429,138
367,6	1485,91
368,1	1523,224
368,5	1548,081
369	1554,967
369,5	1555,881
369,9	1548,795
370,4	1528,167
370,8	1486,31
371,3	1444,081
371,7	1392,424
372,2	1337,052
372,7	1275,51
373,1	1213,024
373,6	1144,052
374	1071,452
374,5	1002,71
374,9	936,538
375,4	871,195
375,9	809,795
376,3	741,281
376,8	683,138
377,2	634,624
377,7	583,395
378,2	535,881
378,6	492,052
379,1	447,224
379,5	408,881
380	374,91
380,4	344,652
380,9	317,481
381,4	294,51
381,8	273,995
382,3	254,338
382,7	239,424
383,2	219,195
383,6	205,424
384,1	196,367
384,6	182,481
385	171,452
385,5	162,51
385,9	155,281
386,4	151,767
386,8	140,967
387,3	126,31
387,7	119,767
388,2	109,31
388,7	100,652
389,1	90,252
389,6	86,281
390	81,767
390,5	82,11
390,9	77,538
391,4	72,11
391,9	69,167
392,3	69,881
392,8	62,51
393,2	62,652
393,7	59,51
394,1	57,481
394,6	58,395
395,1	62,595
395,5	60,91
396	61,195
396,4	51,852
396,9	49,624
397,3	48,452
397,8	44,967
398,2	37,624
398,7	30,338
399,2	26,995
399,6	32,138
400,1	23,938
400,5	19,338
401	23,624
401,4	21,967
401,9	26,567
402,4	25,938
402,8	29,567
403,3	33,195
403,7	32,967
404,2	32,281
404,6	33,452
405,1	36,795
405,5	40,624
406	39,11
406,5	40,224
406,9	47,338
407,4	44,281
407,8	48,11
408,3	44,624
408,7	37,538
409,2	33,738
409,6	35,795
410,1	31,795
410,6	34,167
411	30,538
411,5	27,767
411,9	35,252
412,4	37,31
412,8	36,567
413,3	36,31
413,7	35,538
414,2	37,138
414,7	41,024
415,1	44,252
415,6	45,795
416	54,052
416,5	61,195
416,9	66,024
417,4	71,452
417,8	72,91
418,3	72,967
418,8	74,91
419,2	74,31
419,7	73,195
420,1	68,281
420,6	67,395
421	73,852
421,5	74,481
421,9	72,395
422,4	73,595
422,8	72,281
423,3	75,452
423,8	75,795
424,2	69,852
424,7	74,452
425,1	74,652
425,6	69,338
426	70,024
426,5	68,795
426,9	66,395
427,4	68,738
427,9	63,052
428,3	62,967
428,8	60,938
429,2	59,767
429,7	56,167
430,1	53,967
430,6	46,567
431	45,51
431,5	43,567
431,9	44,738
432,4	39,652
432,8	42,195
433,3	41,167
433,8	42,681
434,2	39,338
434,7	34,71
435,1	33,338
435,6	32,452
436	30,91
436,5	34,31
436,9	36,652
437,4	36,51
437,8	37,738
438,3	41,938
438,8	42,824
439,2	43,052
439,7	39,852
440,1	36,567
440,6	37,138
441	37,481
441,5	32,938
441,9	35,338
442,4	34,252
442,8	36,824
443,3	37,11
443,7	32,795
444,2	33,252
444,7	33,624
445,1	35,395
445,6	35,71
446	34,452
446,5	34,567
446,9	42,052
447,4	46,395
447,8	51,224
448,3	49,767
448,7	56,681
449,2	55,195
449,6	57,767
450,1	55,852
450,6	57,652
451	57,195
451,5	66,881
451,9	63,167
452,4	68,824
452,8	67,938
453,3	70,595
453,7	69,652
454,2	70,195
454,6	62,538
455,1	66,938
455,5	70,367
456	76,195
456,4	77,538
456,9	83,481
457,3	85,281
457,8	84,652
458,3	81,395
458,7	84,538
459,2	86,138
459,6	90,024
460,1	90,71
460,5	90,367
461	97,652
461,4	103,081
461,9	102,081
462,3	108,767
462,8	110,538
463,2	111,995
463,7	117,481
464,1	121,281
464,6	124,424
465	127,224
465,5	124,252
466	134,452
466,4	140,452
466,9	145,052
467,3	143,595
467,8	150,938
468,2	153,71
468,7	167,081
469,1	167,138
469,6	166,452
470	175,024
470,5	185,195
470,9	184,51
471,4	195,252
471,8	192,11
472,3	191,624
472,7	198,081
473,2	196,767
473,6	196,367
474,1	204,424
474,5	204,367
475	210,138
475,4	214,167
475,9	222,395
476,4	227,652
476,8	235,852
477,3	238,452
477,7	246,852
478,2	252,681
478,6	257,424
479,1	261,452
479,5	267,138
480	272,91
480,4	275,224
480,9	273,31
481,3	270,938
481,8	276,881
482,2	276,824
482,7	278,995
483,1	278,11
483,6	282,824
484	285,967
484,5	292,595
484,9	296,11
485,4	297,967
485,8	299,338
486,3	298,71
486,7	302,967
487,2	308,481
487,6	304,424
488,1	305,452
488,5	303,167
489	306,824
489,4	315,195
489,9	314,51
490,4	316,881
490,8	322,767
491,3	323,538
491,7	329,395
492,2	331,224
492,6	331,367
493,1	339,252
493,5	343,024
494	353,052
494,4	358,424
494,9	360,967
495,3	361,167
495,8	361,51
496,2	360,281
496,7	358,624
497,1	350,224
497,6	353,995
498	354,738
498,5	359,624
498,9	365,938
499,4	366,795
499,8	368,738
500,3	374,681
500,7	372,224
501,2	373,967
501,6	371,31
502,1	374,567
502,5	372,31
503	374,11
503,4	373,824
503,9	374,052
504,3	375,195
504,8	380,11
505,2	377,081
505,7	382,567
506,1	380,652
506,6	380,995
507	383,481
507,5	387,052
507,9	387,452
508,4	388,738
508,8	389,681
509,3	395,824
509,7	397,967
510,2	399,395
510,6	397,195
511,1	395,367
511,5	394,51
512	390,424
512,4	392,224
512,9	400,195
513,3	401,31
513,8	408,681
514,2	413,738
514,7	415,367
515,1	421,452
515,6	420,31
516	415,824
516,5	417,795
516,9	412,167
517,4	416,224
517,8	417,652
518,3	422,681
518,7	423,595
519,2	424,681
519,6	425,967
520,1	437,195
520,5	432,938
521	433,424
521,4	432,195
521,9	432,881
522,3	436,91
522,8	434,395
523,2	432,052
523,7	433,91
524,1	432,681
524,6	433,852
525	440,11
525,5	439,938
525,9	452,11
526,4	451,881
526,8	457,31
527,3	466,281
527,7	469,852
528,2	468,081
528,6	473,538
529,1	471,71
529,5	474,395
530	477,738
530,4	481,224
530,9	481,281
531,3	488,224
531,8	490,881
532,2	490,052
532,6	496,31
533,1	493,167
533,5	489,338
534	490,824
534,4	490,195
534,9	492,081
535,3	504,138
535,8	508,71
536,2	514,967
536,7	517,91
537,1	529,252
537,6	530,681
538	536,195
538,5	535,681
538,9	535,852
539,4	537,138
539,8	546,452
540,3	543,481
540,7	545,481
541,2	545,138
541,6	541,195
542,1	539,452
542,5	544,824
543	541,024
543,4	545,195
543,9	548,138
544,3	554,567
544,8	564,224
545,2	569,652
545,7	569,938
546,1	574,138
546,5	574,538
547	575,652
547,4	574,024
547,9	572,51
548,3	577,852
548,8	575,881
549,2	585,852
549,7	587,881
550,1	591,081
550,6	590,452
551	591,452
551,5	586,167
551,9	593,081
552,4	588,967
552,8	594,795
553,3	600,452
553,7	605,824
554,2	609,538
554,6	619,052
555,1	622,11
555,5	626,567
555,9	623,31
556,4	623,395
556,8	631,795
557,3	638,052
557,7	639,995
558,2	645,538
558,6	643,224
559,1	650,367
559,5	652,367
560	645,795
560,4	642,138
560,9	641,881
561,3	640,538
561,8	646,881
562,2	644,052
562,7	645,738
563,1	652,967
563,6	656,995
564	658,767
564,4	660,652
564,9	657,681
565,3	659,852
565,8	663,652
566,2	659,595
566,7	659,367
567,1	658,452
567,6	661,795
568	662,481
568,5	663,338
568,9	663,795
569,4	667,424
569,8	673,624
570,3	675,795
570,7	678,624
571,1	686,052
571,6	684,995
572	686,195
572,5	682,452
572,9	673,967
573,4	675,252
573,8	673,624
574,3	671,824
574,7	676,052
575,2	675,281
575,6	683,281
576,1	690,767
576,5	694,31
576,9	690,967
577,4	696,738
577,8	696,681
578,3	695,767
578,7	691,31
579,2	689,967
579,6	688,11
580,1	691,595
580,5	687,538
581	686,681
581,4	687,824
581,9	690,424
582,3	689,767
582,7	682,052
583,2	681,652
583,6	681,852
584,1	683,081
584,5	682,281
585	679,224
585,4	678,167
585,9	685,252
586,3	676,71
586,8	675,167
587,2	671,51
587,6	672,367
588,1	672,224
588,5	676,71
589	675,452
589,4	682,824
589,9	680,681
590,3	681,338
590,8	676,252
591,2	674,367
591,7	669,567
592,1	670,252
592,5	670,767
593	670,91
593,4	671,452
593,9	677,081
594,3	686,795
594,8	686,481
595,2	683,795
595,7	682,681
596,1	682,424
596,6	680,081
597	676,91
597,4	672,138
597,9	674,452
598,3	672,852
598,8	665,167
599,2	666,224
599,7	670,367
600,1	665,51
600,6	665,024
601	657,91
601,4	657,452
601,9	664,738
602,3	655,11
602,8	651,338
603,2	651,51
603,7	645,11
604,1	646,681
604,6	642,995
605	641,11
605,4	642,281
605,9	640,824
606,3	646,252
606,8	645,595
607,2	647,795
607,7	649,738
608,1	647,595
608,6	649,195
609	648,652
609,4	645,338
609,9	644,138
610,3	639,052
610,8	640,481
611,2	635,738
611,7	637,024
612,1	629,138
612,6	626,567
613	620,538
613,4	618,395
613,9	614,424
614,3	614,595
614,8	608,338
615,2	611,824
615,7	609,052
616,1	614,567
616,6	615,967
617	612,595
617,4	607,138
617,9	608,967
618,3	607,967
618,8	604,652
619,2	599,481
619,7	594,31
620,1	594,138
620,5	593,91
621	586,681
621,4	583,224
621,9	581,252
622,3	578,11
622,8	575,71
623,2	573,852
623,6	568,938
624,1	567,767
624,5	564,452
625	562,052
625,4	560,31
625,9	559,052
626,3	556,252
626,8	554,224
627,2	558,31
627,6	557,51
628,1	557,167
628,5	555,224
629	554,31
629,4	553,338
629,9	552,538
630,3	546,281
630,7	546,138
631,2	543,281
631,6	541,71
632,1	536,252
632,5	529,595
633	528,167
633,4	524,167
633,8	521,224
634,3	517,652
634,7	515,624
635,2	515,995
635,6	515,395
636,1	515,567
636,5	514,852
636,9	511,167
637,4	512,681
637,8	509,167
638,3	504,081
638,7	502,395
639,2	497,681
639,6	501,595
640	500,281
640,5	493,081
640,9	489,195
641,4	487,024
641,8	486,824
642,2	484,967
642,7	473,424
643,1	466,852
643,6	465,567
644	467,538
644,5	467,91
644,9	464,024
645,3	462,052
645,8	464,252
646,2	464,195
646,7	458,995
647,1	452,51
647,6	447,024
648	443,681
648,4	438,481
648,9	436,31
649,3	432,052
649,8	433,624
650,2	431,652
650,6	431,71
651,1	427,424
651,5	426,481
652	421,367
652,4	421,624
652,9	417,481
653,3	416,31
653,7	416,452
654,2	415,224
654,6	412,71
655,1	410,281
655,5	412,852
655,9	415,138
656,4	416,595
656,8	412,967
657,3	413,31
657,7	412,967
658,2	414,452
658,6	408,195
659	405,224
659,5	400,824
659,9	395,967
660,4	391,338
660,8	390,024
661,2	383,138
661,7	384,51
662,1	382,595
662,6	381,081
663	381,481
663,4	380,967
663,9	383,138
664,3	386,738
664,8	380,71
665,2	376,995
665,6	372,967
666,1	373,481
666,5	372,71
667	366,224
667,4	359,367
667,9	362,052
668,3	362,024
668,7	362,195
669,2	357,252
669,6	352,452
670,1	351,995
670,5	352,995
670,9	344,452
671,4	338,538
671,8	336,995
672,3	332,338
672,7	334,195
673,1	331,367
673,6	326,824
674	327,738
674,5	326,224
674,9	322,167
675,3	318,967
675,8	315,51
676,2	309,538
676,7	309,31
677,1	306,395
677,5	306,052
678	306,395
678,4	311,052
678,9	309,338
679,3	312,938
679,7	311,852
680,2	311,595
680,6	312,738
681,1	316,481
681,5	309,452
681,9	306,538
682,4	303,881
682,8	304,195
683,3	301,624
683,7	295,938
684,1	286,624
684,6	289,624
685	287,138
685,5	286,652
685,9	285,767
686,3	284,51
686,8	286,424
687,2	284,367
687,7	278,995
688,1	276,71
688,5	278,167
689	274,91
689,4	274,91
689,9	273,91
690,3	275,452
690,7	274,367
691,2	273,424
691,6	268,11
692	266,595
692,5	261,624
692,9	255,652
693,4	255,367
693,8	258,252
694,2	256,31
694,7	253,167
695,1	253,738
695,6	254,652
696	256,852
696,4	255,795
696,9	252,652
697,3	253,052
697,8	250,281
698,2	246,624
698,6	242,252
699,1	240,738
699,5	234,395
699,9	233,91
700,4	233,481
700,8	238,338
701,3	239,824
701,7	240,367
702,1	237,938
702,6	235,481
703	235,31
703,5	232,595
703,9	223,11
704,3	216,624
704,8	216,195
705,2	215,652
705,6	213,595
706,1	206,681
706,5	208,167
707	215,881
707,4	219,252
707,8	216,138
708,3	215,138
708,7	217,624
709,2	219,652
709,6	214,167
710	211,281
710,5	209,624
710,9	215,195
711,3	208,995
711,8	208,367
712,2	210,11
712,7	211,224
713,1	204,881
713,5	201,481
714	199,452
714,4	204,938
714,8	200,91
715,3	197,938
715,7	196,224
716,2	200,081
716,6	199,567
717	193,395
717,5	186,71
717,9	191,31
718,3	187,395
718,8	189,424
719,2	182,91
719,7	180,995
720,1	181,395
720,5	180,024
721	172,052
721,4	176,195
721,8	174,452
722,3	177,338
722,7	177,652
723,2	170,71
723,6	174,71
724	172,538
724,5	166,567
724,9	168,795
725,3	167,624
725,8	165,395
726,2	165,652
726,7	169,138
727,1	174,91
727,5	175,081
728	169,224
728,4	170,938
728,8	168,281
729,3	169,681
729,7	166,91
730,1	163,595
730,6	162,11
731	162,795
731,5	158,252
731,9	162,938
732,3	164,881
732,8	158,424
733,2	157,481
733,6	158,538
734,1	157,395
734,5	155,624
734,9	149,367
735,4	147,252
735,8	145,367
736,3	142,938
736,7	142,681
737,1	144,138
737,6	146,71
738	150,424
738,4	148,767
738,9	152,567
739,3	151,51
739,7	149,71
740,2	147,567
740,6	146,71
741,1	140,538
741,5	143,481
741,9	139,938
742,4	140,11
742,8	141,31
743,2	143,852
743,7	142,595
744,1	146,795
744,5	147,138
745	145,052
745,4	147,538
745,8	142,424
746,3	142,11
746,7	139,767
747,2	139,31
747,6	134,738
748	136,995
748,5	135,824
748,9	136,567
749,3	127,681
749,8	128,71
750,2	126,71
750,6	129,767
751,1	125,567
751,5	126,338
751,9	126,224
752,4	126,252
752,8	123,995
753,3	122,024
753,7	116,967
754,1	115,852
754,6	112,795
755	109,11
755,4	113,367
755,9	113,938
756,3	117,395
756,7	120,652
757,2	124,91
757,6	125,167
758	128,852
758,5	125,795
758,9	122,91
759,3	118,881
759,8	115,71
760,2	111,738
760,6	111,195
761,1	107,938
761,5	111,167
761,9	113,767
762,4	112,967
762,8	110,481
763,3	112,167
763,7	106,681
764,1	106,681
764,6	100,624
765	97,024
765,4	98,567
765,9	104,138
766,3	105,395
766,7	106,995
767,2	109,795
767,6	114,824
768	115,967
768,5	114,738
768,9	109,31
769,3	104,824
769,8	103,452
770,2	100,024
770,6	95,595
771,1	93,281
771,5	91,681
771,9	96,481
772,4	100,538
772,8	104,167
773,2	102,481
773,7	100,967
774,1	103,452
774,5	98,91
775	91,224
775,4	90,281
775,8	89,795
776,3	92,91
776,7	92,31
777,1	88,338
777,6	87,795
778	92,938
778,4	94,595
778,9	92,167
779,3	88,795
779,7	87,167
780,2	89,31
780,6	91,11
781	85,595
781,5	80,452
781,9	79,252
782,3	79,31
782,8	86,252
783,2	83,424
783,6	84,538
784,1	85,767
784,5	80,795
784,9	85,195
785,4	83,91
785,8	77,081
786,2	77,281
786,7	77,395
787,1	78,481
787,5	84,852
788	82,624
788,4	80,681
788,8	81,424
789,3	81,995
789,7	83,224
790,1	81,795
790,6	79,024
791	77,424
791,4	82,51
791,9	82,738
792,3	84,595
792,7	77,567
793,2	74,795
793,6	73,824
794	71,195
794,5	67,738
794,9	68,424
795,3	67,567
795,8	70,824
796,2	70,881
796,6	75,31
797,1	71,652
797,5	76,481
797,9	78,31
798,4	71,424
798,8	72,51
799,2	76,538
799,7	71,652
800,1	75,824
800,5	70,138
801	62,91
801,4	70,367
801,8	69,652
802,2	66,967
802,7	71,91
803,1	73,252
803,5	73,824
804	75,71
804,4	70,852
804,8	72,138
805,3	77,852
805,7	74,852
806,1	71,91
806,6	68,595
807	69,31
807,4	69,538
807,9	66,367
808,3	55,652
808,7	50,881
809,2	51,938
809,6	53,91
810	52,538
810,4	50,71
810,9	48,167
811,3	53,51
811,7	57,31
812,2	56,481
812,6	54,11
813	55,395
813,5	50,995
813,9	51,338
814,3	49,367
814,8	44,252
815,2	41,138
815,6	40,738
816,1	39,31
816,5	47,167
816,9	49,795
817,3	52,395
817,8	58,881
818,2	61,081
818,6	62,995
819,1	64,31
819,5	59,31
819,9	56,767
820,4	54,995
820,8	49,367
821,2	48,481
821,7	45,338
822,1	41,852
822,5	42,824
822,9	43,824
823,4	42,795
823,8	42,452
824,2	43,595
824,7	48,224
825,1	50,538
825,5	50,738
826	49,395
826,4	50,024
826,8	54,395
827,3	55,024
827,7	52,167
828,1	51,624
828,5	48,595
829	50,795
829,4	46,424
829,8	43,195
830,3	42,167
830,7	43,481
831,1	47,052
831,6	49,024
832	52,252
832,4	53,452
832,8	49,567
833,3	49,452
833,7	45,652
834,1	39,852
834,6	42,51
835	39,081
835,4	40,338
835,8	42,224
836,3	37,281
836,7	40,452
837,1	39,967
837,6	37,338
838	34,567
838,4	33,167
838,9	34,538
839,3	40,195
839,7	42,852
840,1	38,281
840,6	38,281
841	41,281
841,4	42,624
841,9	40,681
842,3	37,995
842,7	33,167
843,1	38,081
843,6	36,652
844	35,767
844,4	33,51
844,9	32,052
845,3	31,367
845,7	31,938
846,2	30,052
846,6	32,738
847	31,538
847,4	26,395
847,9	26,995
848,3	26,681
848,7	24,395
849,2	27,31
849,6	22,91
850	25,367
850,4	28,538
850,9	28,881
851,3	27,824
851,7	26,281
852,2	25,138
852,6	28,224
853	24,481
853,4	25,624
853,9	24,024
854,3	27,738
854,7	32,824
855,2	37,252
855,6	37,224
856	37,738
856,4	40,538
856,9	43,767
857,3	36,338
857,7	35,538
858,2	29,224
858,6	27,767
859	21,624
859,4	22,224
859,9	20,71
860,3	22,024
860,7	20,595
861,1	23,938
861,6	26,31
862	29,71
862,4	26,024
862,9	24,538
863,3	21,681
863,7	20,91
864,1	17,252
864,6	16,995
865	21,138
865,4	22,452
865,9	23,824
866,3	30,052
866,7	32,795
867,1	28,681
867,6	29,052
868	31,052
868,4	31,71
868,8	31,852
869,3	33,51
869,7	28,138
870,1	35,938
870,6	27,795
871	76,767
871,4	68,424
871,8	68,538
872,3	65,081
872,7	66,795
873,1	66,338
873,5	71,681
874	15,338
874,4	19,91
874,8	25,91
875,3	28,367
875,7	28,481
876,1	23,995
876,5	23,738
877	25,91
877,4	27,081
877,8	18,738
878,2	17,395
878,7	18,795
879,1	20,624
879,5	17,224
879,9	17,995
880,4	20,795
880,8	24,652
881,2	26,367
881,7	23,424
882,1	23,652
882,5	30,252
882,9	26,852
883,4	27,052
883,8	23,881
884,2	18,252
884,6	20,224
885,1	19,938
885,5	16,452
885,9	23,51
886,3	18,31
886,8	16,11
887,2	16,424
887,6	14,538
888	13,624
888,5	17,852
888,9	11,795
889,3	15,738
889,8	19,881
890,2	21,31
890,6	21,338
891	21,252
891,5	22,795
891,9	22,795
892,3	23,367
892,7	25,538
893,2	30,11
893,6	30,795
894	30,195
894,4	24,452
894,9	28,424
895,3	26,224
895,7	23,481
896,1	22,767
896,6	23,71
897	23,338
897,4	26,224
897,8	20,71
898,3	20,481
898,7	19,138
899,1	18,224
899,5	17,338
900	15,652
900,4	11,938
900,8	10,71
901,2	12,195
901,7	11,91
902,1	14,424
902,5	13,51
902,9	14,567
903,4	16,852
903,8	23,31
904,2	22,481
904,6	21,767
905,1	22,567
905,5	28,767
905,9	31,252
906,3	28,167
906,8	26,081
907,2	24,081
907,6	28,195
908	19,938
908,5	12,91
908,9	14,167
909,3	15,11
909,7	14,91
910,2	18,767
910,6	12,424
911	12,51
911,4	12,595
911,9	10,91
912,3	6,281
912,7	0,738
913,1	-2,033
913,6	-1,862
914	5,652
914,4	1,481
914,8	0,71
915,3	2,738
915,7	14,767
916,1	14,938
916,5	14,081
916,9	7,11
917,4	11,138
917,8	9,795
918,2	13,367
918,6	5,538
919,1	4,91
919,5	7,567
919,9	11,824
920,3	13,824
920,8	17,281
921,2	13,481
921,6	16,938
922	16,967
922,5	18,024
922,9	15,795
923,3	15,824
923,7	15,567
924,2	18,452
924,6	16,624
925	17,51
925,4	17,281
925,8	20,024
926,3	23,081
926,7	27,081
927,1	27,624
927,5	28,338
928	24,624
928,4	26,081
928,8	22,652
929,2	16,71
929,7	10,881
930,1	7,481
930,5	7,738
930,9	9,995
931,3	7,252
931,8	7,795
932,2	12,081
932,6	12,967
933	14,71
933,5	18,481
933,9	16,252
934,3	17,624
934,7	14,31
935,2	17,71
935,6	17,252
936	16,481
936,4	7,51
936,8	11,567
937,3	8,738
937,7	11,338
938,1	1,195
938,5	-1,833
939	0,91
939,4	2,224
939,8	-0,862
940,2	3,252
940,6	1,367
941,1	8,424
941,5	11,681
941,9	10,367
942,3	9,71
942,8	13,338
943,2	14,738
943,6	19,51
944	15,224
944,4	15,652
944,9	11,51
945,3	11,195
945,7	8,138
946,1	6,367
946,6	4,967
947	6,195
947,4	3,567
947,8	9,767
948,2	12,91
948,7	11,91
949,1	11,424
949,5	10,024
949,9	10,567
950,3	12,052
950,8	11,71
951,2	10,51
951,6	12,081
952	12,252
952,5	10,51
952,9	10,081
953,3	9,367
953,7	5,624
954,1	7,681
954,6	5,624
955	1,367
955,4	7,395
955,8	10,681
956,2	16,71
956,7	20,052
957,1	18,567
957,5	21,795
957,9	27,367
958,3	17,852
958,8	14,367
959,2	8,767
959,6	9,167
960	13,138
960,5	7,681
960,9	9,11
961,3	10,738
961,7	10,738
962,1	9,852
962,6	6,052
963	3,31
963,4	10,081
963,8	6,795
964,2	11,024
964,7	10,11
965,1	3,281
965,5	5,052
965,9	3,967
966,3	-0,519
966,8	0,424
967,2	0,138
967,6	2,738
968	7,338
968,4	7,11
968,9	6,938
969,3	8,138
969,7	8,652
970,1	8,31
970,5	8,224
971	11,538
971,4	12,795
971,8	11,595
972,2	13,11
972,6	10,481
973,1	8,71
973,5	8,481
973,9	6,424
974,3	3,938
974,7	2,852
975,2	2,595
975,6	5,538
976	6,424
976,4	5,452
976,8	7,624
977,3	9,452
977,7	9,824
978,1	9,652
978,5	8,538
978,9	8,281
979,4	7,538
979,8	6,538
980,2	6,395
980,6	5,824
981	4,795
981,5	3,91
981,9	7,824
982,3	8,224
982,7	7,452
983,1	4,395
983,6	7,51
984	4,081
984,4	3,224
984,8	0,51
985,2	-0,09
985,6	3,51
986,1	3,452
986,5	5,31
986,9	10,567
987,3	8,138
987,7	10,281
988,2	10,367
988,6	9,338
989	12,995
989,4	11,881
989,8	8,852
990,3	11,881
990,7	14,738
991,1	19,081
991,5	21,252
991,9	15,681
992,3	11,481
992,8	15,995
993,2	18,338
993,6	15,395
994	11,31
994,4	10,567
994,9	16,024
995,3	21,767
995,7	19,395
996,1	16,624
996,5	15,195
996,9	14,652
997,4	12,738
997,8	13,71
998,2	10,224
998,6	12,624
999	8,395
999,5	8,195
999,9	11,024
1000,3	13,595
1000,7	14,795
1001,1	11,91
1001,5	9,595
1002	13,652
1002,4	14,195
1002,8	11,824
1003,2	7,367
1003,6	7,252
1004	9,167
1004,5	9,71
1004,9	8,424
1005,3	8,452
1005,7	6,224
1006,1	6,138
1006,6	0,824
1007	1,281
1007,4	-3,919
1007,8	2,31
1008,2	4,138
1008,6	7,767
1009,1	6,824
1009,5	9,195
1009,9	11,31
1010,3	16,881
1010,7	18,424
1011,1	15,224
1011,6	17,424
1012	21,538
1012,4	27,167
1012,8	23,967
1013,2	23,167
1013,6	17,824
1014,1	17,481
1014,5	16,967
1014,9	15,452
1015,3	11,395
1015,7	17,195
1016,1	13,567
1016,6	11,195
1017	12,395
1017,4	9,052
1017,8	5,681
1018,2	5,767
1018,6	4,338
1019,1	5,881
1019,5	6,567
1019,9	3,367
1020,3	5,081
1020,7	8,91
1021,1	5,881
1021,6	2,738
1022	4,11
1022,4	5,138
1022,8	7,595
1023,2	6,338
1023,6	3,795
1024,1	5,167
1024,5	7,681
1024,9	9,052
1025,3	10,538
1025,7	14,052
1026,1	19,452
1026,6	21,51
1027	20,938
1027,4	21,91
1027,8	18,024
1028,2	14,052
1028,6	13,881
1029	4,31
1029,5	5,281
1029,9	5,338
1030,3	4,938
1030,7	10,424
1031,1	13,738
1031,5	13,367
1032	18,938
1032,4	20,195
1032,8	21,252
1033,2	21,11
1033,6	20,652
1034	23,995
1034,4	20,538
1034,9	23,481
1035,3	20,624
1035,7	23,052
1036,1	20,91
1036,5	23,252
1036,9	16,31
1037,4	21,138
1037,8	21,395
1038,2	19,91
1038,6	15,91
1039	16,367
1039,4	11,795
1039,8	10,252
1040,3	11,395
1040,7	6,367
1041,1	10,167
1041,5	11,852
1041,9	13,252
1042,3	13,624
1042,7	16,767
1043,2	13,195
1043,6	20,652
1044	20,795
1044,4	21,367
1044,8	19,338
1045,2	18,624
1045,6	21,452
1046,1	22,052
1046,5	17,938
1046,9	15,624
1047,3	15,71
1047,7	20,681
1048,1	20,852
1048,5	22,395
1049	24,424
1049,4	18,138
1049,8	16,595
1050,2	12,652
1050,6	8,738
1051	2,395
1051,4	-4,89
1051,9	-10,519
1052,3	-9,662
1052,7	-7,005
1053,1	-3,119
1053,5	-3,976
1053,9	4,195
1054,3	4,91
1054,8	8,91
1055,2	5,795
1055,6	7,252
1056	5,738
1056,4	6,938
1056,8	7,567
1057,2	12,595
1057,6	14,567
1058,1	20,281
1058,5	16,024
1058,9	15,052
1059,3	18,51
1059,7	15,252
1060,1	13,567
1060,5	6,31
1061	9,567
1061,4	15,624
1061,8	15,967
1062,2	11,595
1062,6	14,224
1063	13,252
1063,4	14,481
1063,8	13,538
1064,3	10,881
1064,7	13,052
1065,1	14,252
1065,5	16,367
1065,9	18,738
1066,3	22,738
1066,7	22,281
1067,1	19,281
1067,6	19,91
1068	19,481
1068,4	16,195
1068,8	10,881
1069,2	8,938
1069,6	9,967
1070	11,738
1070,4	10,081
1070,9	12,71
1071,3	15,595
1071,7	23,424
1072,1	20,167
1072,5	16,31
1072,9	13,338
1073,3	18,024
1073,7	18,938
1074,2	18,281
1074,6	11,681
1075	16,795
1075,4	15,824
1075,8	17,538
1076,2	15,081
1076,6	11,881
1077	7,138
1077,5	11,681
1077,9	9,538
1078,3	9,224
1078,7	8,252
1079,1	10,481
1079,5	8,024
1079,9	9,424
1080,3	5,852
1080,7	10,138
1081,2	14,567
1081,6	13,824
1082	10,938
1082,4	7,452
1082,8	6,852
1083,2	10,138
1083,6	5,538
1084	4,767
1084,5	6,281
1084,9	0,395
1085,3	3,595
1085,7	6,481
1086,1	3,367
1086,5	3,681
1086,9	0,967
1087,3	2,652
1087,7	6,252
1088,2	10,224
1088,6	4,881
1089	7,852
1089,4	2,738
1089,8	5,452
1090,2	2,367
1090,6	4,081
1091	1,681
1091,4	6,938
1091,9	7,195
1092,3	15,081
1092,7	17,252
1093,1	18,767
1093,5	14,252
1093,9	15,338
1094,3	14,738
1094,7	10,652
1095,1	9,395
1095,5	4,281
1096	5,11
1096,4	7,681
1096,8	6,224
1097,2	5,852
1097,6	11,024
1098	8,595
1098,4	8,281
1098,8	5,481
1099,2	4,538
1099,6	4,281
1100,1	4,424
1100,5	1,51
1100,9	4,224
1101,3	6,567
1101,7	9,595
1102,1	10,652
1102,5	7,11
1102,9	2,738
1103,3	3,052
1103,7	2,338
1104,2	1,138
1104,6	3,51
1105	7,938
1105,4	11,595
1105,8	14,281
1106,2	12,424
1106,6	9,767
1107	10,11
1107,4	7
1107,8	1,407
1108,3	-0,233
