Data from Subt2_00022.txt Node
Date: Mon Aug 28 13:10:41 MSK 2023
User: vat
Spectrometer: MAYP114033
Trigger mode: 0
Integration Time (sec): 1,000000E0
Scans to average: 5
Electric dark correction enabled: true
Nonlinearity correction enabled: false
Boxcar width: 3
XAxis mode: Wavelengths
Number of Pixels in Spectrum: 2068
>>>>>Begin Spectral Data<<<<<
199,4	-0,7
199,9	-0,58
200,4	-1,2
200,8	1,614
201,3	1,443
201,8	3,443
202,2	4,471
202,7	5,129
203,2	7,043
203,6	11,557
204,1	13,157
204,6	15,329
205	16,471
205,5	18,643
206	17,843
206,4	17,157
206,9	17,443
207,4	13,329
207,8	12,614
208,3	12,386
208,8	13,157
209,2	15,443
209,7	13,643
210,2	4,9
210,6	7,957
211,1	4,557
211,5	5,471
212	6,414
212,5	5,386
212,9	10,329
213,4	15,757
213,9	19,757
214,3	24,557
214,8	25,129
215,3	20,357
215,7	19,386
216,2	19,186
216,7	21,986
217,1	12,9
217,6	11,757
218,1	6,986
218,5	5,757
219	8,186
219,5	6,843
219,9	4,214
220,4	4,329
220,9	3,786
221,3	5,729
221,8	9,386
222,3	14,243
222,7	13,014
223,2	13,843
223,6	18,071
224,1	19,814
224,6	20,1
225	20,3
225,5	14,5
226	15,729
226,4	17,871
226,9	16,043
227,4	15,786
227,8	16,871
228,3	18,243
228,8	17,671
229,2	19,557
229,7	17,243
230,2	18,614
230,6	18,386
231,1	19,7
231,5	20,5
232	25,671
232,5	23,129
232,9	19,614
233,4	20,414
233,9	21,729
234,3	17,871
234,8	17,043
235,3	11,529
235,7	10,186
236,2	11,386
236,7	11,757
237,1	15,414
237,6	19,014
238,1	15,671
238,5	20,5
239	16,357
239,4	15,471
239,9	15,871
240,4	10,071
240,8	8,014
241,3	14,157
241,8	8,7
242,2	12,671
242,7	18,786
243,2	20,986
243,6	25,929
244,1	20,157
244,6	20,986
245	25,1
245,5	29,614
245,9	23,957
246,4	15,471
246,9	11,957
247,3	17,986
247,8	11,129
248,3	10,129
248,7	11,671
249,2	13,3
249,7	15,786
250,1	11,186
250,6	10,471
251	7,986
251,5	9,271
252	-1,929
252,4	-0,186
252,9	4,186
253,4	9,643
253,8	12,043
254,3	15,614
254,8	17,271
255,2	24,186
255,7	24,7
256,1	27,1
256,6	27,471
257,1	27,529
257,5	25,557
258	17,871
258,5	15,071
258,9	13,729
259,4	8,014
259,9	2,7
260,3	1,671
260,8	5,929
261,2	12,786
261,7	16,1
262,2	18,957
262,6	18,929
263,1	22,5
263,6	22,357
264	22,3
264,5	21,357
264,9	19,214
265,4	16,129
265,9	16,243
266,3	19,557
266,8	17,757
267,3	19,786
267,7	15,243
268,2	13,757
268,7	11,786
269,1	12,729
269,6	7,557
270	7,814
270,5	1,986
271	8,214
271,4	12,814
271,9	19,014
272,4	20,843
272,8	25,814
273,3	23,643
273,7	23,9
274,2	22,129
274,7	19,814
275,1	16,5
275,6	19,386
276,1	17,957
276,5	19,5
277	22,157
277,4	20,843
277,9	19,871
278,4	16,871
278,8	12,929
279,3	9,986
279,8	12,243
280,2	7,586
280,7	2,929
281,1	3,9
281,6	5,129
282,1	3,157
282,5	4,014
283	-1,014
283,4	4,557
283,9	11,129
284,4	15,157
284,8	14,5
285,3	14,414
285,8	15,7
286,2	21,214
286,7	19,757
287,1	18,071
287,6	15,014
288,1	17,843
288,5	21,957
289	21,357
289,5	17,929
289,9	19,357
290,4	20,186
290,8	21,186
291,3	24,071
291,8	23,671
292,2	24,557
292,7	26,5
293,1	25,414
293,6	18,9
294,1	18,186
294,5	14,157
295	11,957
295,5	11,043
295,9	8,614
296,4	5,614
296,8	9,3
297,3	8,071
297,8	3,671
298,2	2,9
298,7	3,871
299,1	7,643
299,6	8,043
300,1	10,157
300,5	9,271
301	15,5
301,5	13,329
301,9	10,214
302,4	5,071
302,8	6,357
303,3	6,414
303,8	8,043
304,2	2,5
304,7	5,214
305,1	7,529
305,6	10,243
306,1	11,671
306,5	13,129
307	9,3
307,4	11,529
307,9	13,586
308,4	12,3
308,8	15,214
309,3	14,014
309,8	13,986
310,2	15,7
310,7	19,1
311,1	17,557
311,6	18,9
312,1	16,214
312,5	15,871
313	11,443
313,4	15,529
313,9	12,557
314,4	14,671
314,8	9,643
315,3	11,414
315,7	10,329
316,2	15,7
316,7	13,7
317,1	14,443
317,6	11,786
318	17,357
318,5	16,243
319	22,386
319,4	18,757
319,9	16,071
320,3	16,5
320,8	20,014
321,3	16,214
321,7	16,014
322,2	12,014
322,6	11,586
323,1	15,357
323,6	16,043
324	12,386
324,5	18,071
324,9	20,186
325,4	19,157
325,9	21,929
326,3	17,014
326,8	13,186
327,2	12,557
327,7	10,014
328,2	8,757
328,6	6,357
329,1	5,157
329,5	6,186
330	8,129
330,5	7,271
330,9	8,529
331,4	6,929
331,8	11,843
332,3	9,357
332,8	13,871
333,2	15,471
333,7	14,757
334,1	14,414
334,6	17,014
335,1	16,986
335,5	17,329
336	13,243
336,4	16,643
336,9	15,9
337,4	14,586
337,8	12,643
338,3	10,814
338,7	12,414
339,2	16,557
339,7	17,043
340,1	17,071
340,6	14,586
341	14,386
341,5	12,814
342	11,071
342,4	10,614
342,9	10,1
343,3	13,043
343,8	14,5
344,2	16,957
344,7	21,3
345,2	21,814
345,6	19,071
346,1	16,443
346,5	15,357
347	11,129
347,5	9,043
347,9	5,757
348,4	7,214
348,8	4,529
349,3	3,271
349,8	3,814
350,2	6,814
350,7	4,729
351,1	6,557
351,6	10,671
352	9,986
352,5	12,786
353	10,957
353,4	16,757
353,9	18,357
354,3	17,1
354,8	12,129
355,3	16,7
355,7	12,843
356,2	15,329
356,6	16,786
357,1	20,129
357,5	21,014
358	23,471
358,5	27,471
358,9	28,929
359,4	35,443
359,8	39,157
360,3	45,5
360,8	49,9
361,2	57,529
361,7	61,043
362,1	66,986
362,6	71,871
363	76,014
363,5	83,843
364	95,471
364,4	107,414
364,9	118,9
365,3	134,386
365,8	142,471
366,3	150,586
366,7	158,986
367,2	167,929
367,6	171,586
368,1	180,643
368,5	184,471
369	192,014
369,5	194,043
369,9	191,271
370,4	192,243
370,8	192,014
371,3	185,586
371,7	186,729
372,2	183,357
372,7	180,271
373,1	178,3
373,6	167,014
374	159,014
374,5	151,071
374,9	142,329
375,4	130,386
375,9	123,214
376,3	118,129
376,8	117,414
377,2	111,529
377,7	110,9
378,2	106,757
378,6	103,214
379,1	95,871
379,5	86,471
380	75,7
380,4	70,271
380,9	64,271
381,4	58,586
381,8	57,814
382,3	59,957
382,7	57,671
383,2	55,729
383,6	55,157
384,1	54,671
384,6	52,586
385	48,957
385,5	43,614
385,9	46,671
386,4	47,5
386,8	44,814
387,3	37,357
387,7	34,9
388,2	34,5
388,7	30,186
389,1	24,1
389,6	21,529
390	23,471
390,5	25,7
390,9	24,129
391,4	20,186
391,9	24,443
392,3	30,443
392,8	31,957
393,2	26,214
393,7	22,386
394,1	24,814
394,6	26,729
395,1	24,729
395,5	17,843
396	16,586
396,4	17,1
396,9	20,986
397,3	17,071
397,8	12,043
398,2	12,7
398,7	14,3
399,2	13,471
399,6	15,043
400,1	11,671
400,5	16,614
401	23,186
401,4	24,414
401,9	23,557
402,4	26,786
402,8	29,071
403,3	32,5
403,7	31,071
404,2	32,557
404,6	28,5
405,1	31,586
405,5	27,643
406	20,5
406,5	18,3
406,9	15,157
407,4	14,329
407,8	20,1
408,3	17,786
408,7	19,1
409,2	25,386
409,6	28,214
410,1	25,986
410,6	27,014
411	23,957
411,5	26,786
411,9	32,243
412,4	33,843
412,8	31,871
413,3	37,643
413,7	39,443
414,2	40,586
414,7	38,843
415,1	35,9
415,6	38,843
416	44,9
416,5	49,529
416,9	54,157
417,4	59,043
417,8	63,014
418,3	66,271
418,8	67,671
419,2	69,586
419,7	69,471
420,1	66,614
420,6	62,786
421	68,986
421,5	70,814
421,9	76,5
422,4	84,586
422,8	85,614
423,3	88,843
423,8	96,014
424,2	94,929
424,7	98,586
425,1	99,214
425,6	101,329
426	106,643
426,5	108,643
426,9	114,786
427,4	119,843
427,9	122,1
428,3	127,243
428,8	128,9
429,2	132,529
429,7	140,214
430,1	142,986
430,6	148,357
431	158,586
431,5	161,757
431,9	165,729
432,4	174,471
432,8	180,186
433,3	192,414
433,8	204,986
434,2	210,014
434,7	218,929
435,1	229,329
435,6	236,9
436	249,157
436,5	252,643
436,9	259,929
437,4	271,871
437,8	283,243
438,3	292,9
438,8	307,586
439,2	320,471
439,7	336,357
440,1	347,214
440,6	363,329
441	376,1
441,5	389,1
441,9	403,014
442,4	414,786
442,8	433,614
443,3	452,929
443,7	465,5
444,2	483,586
444,7	503,729
445,1	524,557
445,6	547,729
446	563,043
446,5	579,443
446,9	600,5
447,4	620,271
447,8	638,9
448,3	655,071
448,7	667,843
449,2	681,014
449,6	702,5
450,1	724,843
450,6	742,529
451	759,957
451,5	778,414
451,9	801,357
452,4	827,357
452,8	850,3
453,3	863,014
453,7	883,414
454,2	902,9
454,6	919,786
455,1	941,9
455,5	962,214
456	976,957
456,4	1003,129
456,9	1028,186
457,3	1053,986
457,8	1080,929
458,3	1103,386
458,7	1124,386
459,2	1147,9
459,6	1169,357
460,1	1192,386
460,5	1212,071
461	1229,357
461,4	1247,157
461,9	1270,214
462,3	1290,357
462,8	1305,929
463,2	1323,271
463,7	1340,843
464,1	1358,1
464,6	1376,243
465	1393,443
465,5	1408,671
466	1427,786
466,4	1443,986
466,9	1462,557
467,3	1481,214
467,8	1502,843
468,2	1519,7
468,7	1539,929
469,1	1557,871
469,6	1577,843
470	1593,814
470,5	1610,986
470,9	1620,643
471,4	1634,329
471,8	1644,214
472,3	1655,7
472,7	1663,071
473,2	1681,843
473,6	1695,871
474,1	1704,843
474,5	1716,814
475	1731,757
475,4	1743,557
475,9	1749,957
476,4	1750,929
476,8	1754,357
477,3	1767,3
477,7	1770,786
478,2	1775,186
478,6	1783,957
479,1	1787,557
479,5	1792,357
480	1797,986
480,4	1799,786
480,9	1803,786
481,3	1810,557
481,8	1810,557
482,2	1813,186
482,7	1815,814
483,1	1823,3
483,6	1823,3
484	1826,586
484,5	1823,414
484,9	1822,643
485,4	1824,843
485,8	1825,443
486,3	1814,729
486,7	1812,471
487,2	1812,1
487,6	1807,843
488,1	1803,214
488,5	1800,014
489	1799,643
489,4	1794,186
489,9	1787,729
490,4	1779,871
490,8	1775,471
491,3	1775,014
491,7	1765,1
492,2	1751,757
492,6	1749,7
493,1	1741,986
493,5	1731,014
494	1721,786
494,4	1704,043
494,9	1697,471
495,3	1690,729
495,8	1682,614
496,2	1675,014
496,7	1670,9
497,1	1666,357
497,6	1658,871
498	1652,929
498,5	1639,329
498,9	1628,386
499,4	1622,5
499,8	1609,671
500,3	1597,671
500,7	1587,643
501,2	1573,7
501,6	1562,157
502,1	1548,357
502,5	1534,843
503	1525,529
503,4	1512,129
503,9	1501,386
504,3	1492,729
504,8	1488,814
505,2	1482,757
505,7	1471,871
506,1	1456,957
506,6	1444,843
507	1433,186
507,5	1425,071
507,9	1412,614
508,4	1395,529
508,8	1379,643
509,3	1373,357
509,7	1363,9
510,2	1351,157
510,6	1333,386
511,1	1321,5
511,5	1314,014
512	1302,986
512,4	1284,071
512,9	1267,386
513,3	1254,5
513,8	1242,443
514,2	1232,214
514,7	1216,643
515,1	1208,043
515,6	1196,271
516	1191,129
516,5	1183,129
516,9	1172,214
517,4	1154,814
517,8	1146,157
518,3	1131,3
518,7	1121,614
519,2	1106,786
519,6	1093,471
520,1	1082,271
520,5	1072,586
521	1057,5
521,4	1046,929
521,9	1034,471
522,3	1022,071
522,8	1009,614
523,2	997,7
523,7	985,671
524,1	976,329
524,6	966,529
525	959,529
525,5	950,329
525,9	943,529
526,4	932,586
526,8	921,9
527,3	907,786
527,7	896,386
528,2	885,986
528,6	872,7
529,1	861,529
529,5	850,357
530	840,386
530,4	833,9
530,9	822,043
531,3	814,271
531,8	805,9
532,2	794,643
532,6	783,414
533,1	770,071
533,5	755,586
534	749,043
534,4	732,871
534,9	720,386
535,3	712,329
535,8	706,529
536,2	702,386
536,7	696,957
537,1	686,786
537,6	679,871
538	675,671
538,5	667,643
538,9	659,243
539,4	652,214
539,8	648,043
540,3	639,471
540,7	630,786
541,2	620,7
541,6	615,614
542,1	603,443
542,5	595,986
543	588,757
543,4	583,271
543,9	575,1
544,3	567,529
544,8	559,414
545,2	559,5
545,7	551,129
546,1	543,386
546,5	535,3
547	535,214
547,4	524,186
547,9	518,5
548,3	511,386
548,8	505,014
549,2	496,386
549,7	494,186
550,1	482,043
550,6	483,014
551	473,529
551,5	465,071
551,9	460,729
552,4	454,414
552,8	447,157
553,3	444,443
553,7	441,129
554,2	436,786
554,6	433,214
555,1	423,786
555,5	423,586
555,9	420,757
556,4	415,614
556,8	409,586
557,3	405,1
557,7	400,929
558,2	399,643
558,6	393,557
559,1	386,529
559,5	383,071
560	377,1
560,4	371,014
560,9	369,357
561,3	361,986
561,8	354,414
562,2	346,814
562,7	342,529
563,1	336,957
563,6	334,529
564	326,614
564,4	328,529
564,9	325,529
565,3	321,9
565,8	319,071
566,2	315,043
566,7	310,529
567,1	312,357
567,6	303,586
568	300,1
568,5	298,129
568,9	291,786
569,4	290,157
569,8	288,757
570,3	279,843
570,7	278,129
571,1	275,5
571,6	272,129
572	272,129
572,5	265,671
572,9	263,129
573,4	264,129
573,8	264,214
574,3	259,414
574,7	259,043
575,2	258,7
575,6	261,214
576,1	258,129
576,5	251,986
576,9	244,014
577,4	246,071
577,8	238,157
578,3	231,386
578,7	224,186
579,2	219,529
579,6	218,929
580,1	221,386
580,5	215,843
581	218,3
581,4	216,5
581,9	219,386
582,3	221,471
582,7	218,9
583,2	217,843
583,6	217,071
584,1	216,786
584,5	217,5
585	212,871
585,4	207,5
585,9	202,3
586,3	199,586
586,8	194,614
587,2	188,614
587,6	177,957
588,1	177,414
588,5	170,9
589	168,357
589,4	161,129
589,9	163,271
590,3	161,243
590,8	163,014
591,2	153,243
591,7	157,786
592,1	155,614
592,5	156,786
593	151,129
593,4	146,757
593,9	143,871
594,3	147,357
594,8	139,186
595,2	141,243
595,7	136,786
596,1	138,786
596,6	139,5
597	139,186
597,4	139,557
597,9	138,7
598,3	137,329
598,8	137,214
599,2	133,443
599,7	136,014
600,1	133,1
600,6	131,157
601	136,386
601,4	132,786
601,9	130,986
602,3	133,957
602,8	126,7
603,2	128,957
603,7	126,386
604,1	121,957
604,6	123,071
605	123,043
605,4	116,386
605,9	117,614
606,3	114,929
606,8	113,957
607,2	116,786
607,7	117,671
608,1	115,5
608,6	113,643
609	111,071
609,4	110,814
609,9	112,443
610,3	110,586
610,8	107,129
611,2	109,843
611,7	112,414
612,1	113,814
612,6	111,157
613	103,786
613,4	99,157
613,9	100,871
614,3	98,7
614,8	93,043
615,2	94,729
615,7	96,643
616,1	102,871
616,6	104,386
617	99,357
617,4	96,9
617,9	99,786
618,3	97,357
618,8	95,843
619,2	92,9
619,7	89,557
620,1	90,586
620,5	88,986
621	89,1
621,4	87,157
621,9	84,214
622,3	86,5
622,8	84,643
623,2	80,643
623,6	81,671
624,1	82,129
624,5	83,043
625	82,014
625,4	81,7
625,9	84,129
626,3	84,843
626,8	84,614
627,2	83,9
627,6	84,786
628,1	87,586
628,5	85,129
629	84,157
629,4	81,757
629,9	78,471
630,3	73,443
630,7	69,986
631,2	70,5
631,6	64,357
632,1	63,729
632,5	70,986
633	76,1
633,4	80,786
633,8	81,043
634,3	75,557
634,7	76,357
635,2	76,643
635,6	70,529
636,1	63,157
636,5	60,186
636,9	61,643
637,4	63,186
637,8	63,157
638,3	61,929
638,7	62,186
639,2	63,3
639,6	63,443
640	59,471
640,5	60,386
640,9	62,929
641,4	66,643
641,8	67,186
642,2	68,786
642,7	68,243
643,1	70,757
643,6	70,614
644	70,671
644,5	66,871
644,9	64,9
645,3	64,586
645,8	62,586
646,2	62,386
646,7	58,529
647,1	56,471
647,6	52,471
648	53,843
648,4	55,014
648,9	53,214
649,3	48,471
649,8	51,929
650,2	47,157
650,6	49,414
651,1	45,757
651,5	42,586
652	51,186
652,4	52,557
652,9	50,414
653,3	51,814
653,7	51,586
654,2	52,129
654,6	55,814
655,1	51,443
655,5	50,557
655,9	48,043
656,4	51,014
656,8	51,071
657,3	59,071
657,7	53,843
658,2	50,586
658,6	53,843
659	56,929
659,5	59,529
659,9	62,586
660,4	56,471
660,8	58,757
661,2	57,643
661,7	55,843
662,1	57,557
662,6	56,929
663	51,7
663,4	51,786
663,9	50,586
664,3	48,9
664,8	50,5
665,2	49,071
665,6	47,071
666,1	49,614
666,5	47,3
667	47,157
667,4	53,929
667,9	50,557
668,3	46,614
668,7	44,186
669,2	37,557
669,6	35,386
670,1	36,614
670,5	35,7
670,9	38,157
671,4	36,9
671,8	37,357
672,3	45,5
672,7	47,929
673,1	48,757
673,6	47,271
674	44,729
674,5	50,7
674,9	49,271
675,3	45,386
675,8	45,443
676,2	42,471
676,7	41,129
677,1	43,557
677,5	41,843
678	43,271
678,4	47,186
678,9	47,986
679,3	47,157
679,7	45,614
680,2	45,157
680,6	42,786
681,1	40,529
681,5	39,786
681,9	40,614
682,4	41,986
682,8	42,586
683,3	41,729
683,7	42,043
684,1	43,529
684,6	40,443
685	34,157
685,5	27,357
685,9	24,014
686,3	24,414
686,8	24,957
687,2	25,271
687,7	26,129
688,1	28,586
688,5	32,871
689	42,414
689,4	39,129
689,9	38,614
690,3	40,271
690,7	41,586
691,2	43,7
691,6	45,271
692	40,014
692,5	39,043
692,9	41,014
693,4	39,329
693,8	37,929
694,2	34,786
694,7	29,986
695,1	31,671
695,6	34,014
696	32,471
696,4	32,043
696,9	31,557
697,3	33,671
697,8	39,386
698,2	35,386
698,6	32,3
699,1	33,729
699,5	30,786
699,9	27,643
700,4	24,271
700,8	21,414
701,3	22,7
701,7	22,7
702,1	20,529
702,6	20,671
703	19,871
703,5	21,729
703,9	27,557
704,3	23,129
704,8	26,271
705,2	23,986
705,6	27,414
706,1	29,843
706,5	35,214
707	32,786
707,4	39,3
707,8	38,7
708,3	42,386
708,7	39,357
709,2	40,557
709,6	42,957
710	41,014
710,5	37,157
710,9	37,929
711,3	34,586
711,8	36,443
712,2	33,757
712,7	28,014
713,1	23,843
713,5	28,3
714	27,671
714,4	25,386
714,8	26,043
715,3	26,329
715,7	22,5
716,2	29,729
716,6	26,786
717	27,186
717,5	25,871
717,9	22,614
718,3	26,3
718,8	28,1
719,2	24,7
719,7	24,957
720,1	22,157
720,5	30,757
721	34,214
721,4	32,814
721,8	36,443
722,3	38,129
722,7	36,557
723,2	40,071
723,6	40,129
724	39,157
724,5	38,157
724,9	34,7
725,3	33,186
725,8	33,929
726,2	30,414
726,7	27,814
727,1	27,757
727,5	29,671
728	23,843
728,4	22,986
728,8	22,586
729,3	21,929
729,7	21,529
730,1	20,1
730,6	17,414
731	22,843
731,5	22,786
731,9	21,1
732,3	25,214
732,8	22,843
733,2	28,386
733,6	27,071
734,1	24,3
734,5	27,3
734,9	25,214
735,4	21,7
735,8	20,5
736,3	9,843
736,7	14,586
737,1	15,957
737,6	13,957
738	23,071
738,4	26,7
738,9	28,443
739,3	39,071
739,7	38,386
740,2	44,014
740,6	43,243
741,1	35,186
741,5	33,1
741,9	32,1
742,4	29,614
742,8	26,843
743,2	22,071
743,7	22,443
744,1	21,729
744,5	23,386
745	23,529
745,4	22,929
745,8	24,786
746,3	26,671
746,7	21,643
747,2	24,129
747,6	21,986
748	22,243
748,5	23,614
748,9	22,986
749,3	25,043
749,8	27,586
750,2	25,243
750,6	22,557
751,1	25,157
751,5	22,014
751,9	21,729
752,4	24,643
752,8	26,814
753,3	25,7
753,7	29,757
754,1	29,1
754,6	25,986
755	25,929
755,4	23,071
755,9	23,357
756,3	27,929
756,7	28,271
757,2	25,071
757,6	29,843
758	31,557
758,5	23,843
758,9	27,557
759,3	26,071
759,8	25,671
760,2	28,043
760,6	29,071
761,1	26,957
761,5	30,386
761,9	24,1
762,4	26,271
762,8	25,271
763,3	27,214
763,7	24,329
764,1	23,186
764,6	26,014
765	27,214
765,4	28,529
765,9	31,129
766,3	30,957
766,7	34,557
767,2	37,443
767,6	35,671
768	31,929
768,5	24,729
768,9	21,071
769,3	17,243
769,8	9,071
770,2	9,986
770,6	7,929
771,1	9,957
771,5	15,757
771,9	14,5
772,4	13,529
772,8	19,786
773,2	19,3
773,7	17,1
774,1	21,186
774,5	14,9
775	14,757
775,4	18,071
775,8	15,671
776,3	13,614
776,7	19,214
777,1	17,071
777,6	16,357
778	16,9
778,4	16,986
778,9	21,186
779,3	20,614
779,7	20,786
780,2	18,414
780,6	25,729
781	25,957
781,5	23,443
781,9	19,414
782,3	19,386
782,8	19,471
783,2	21,614
783,6	19,414
784,1	21,414
784,5	21,129
784,9	21,271
785,4	21,014
785,8	21,557
786,2	18,043
786,7	20,271
787,1	25,643
787,5	27,557
788	25,786
788,4	29,557
788,8	25,986
789,3	27,671
789,7	24,643
790,1	21,471
790,6	20,443
791	20,929
791,4	17,957
791,9	19,614
792,3	22,671
792,7	21,9
793,2	20,214
793,6	20,443
794	23,271
794,5	25,071
794,9	28,329
795,3	26,557
795,8	28,557
796,2	22,871
796,6	25,843
797,1	22,614
797,5	21,129
797,9	20,671
798,4	21,671
798,8	23,014
799,2	29,014
799,7	25,443
800,1	26,843
800,5	25,3
801	25,214
801,4	26,157
801,8	25,1
802,2	22,586
802,7	23,786
803,1	22,643
803,5	24,614
804	18,814
804,4	15,129
804,8	16,929
805,3	19,043
805,7	21,329
806,1	21,414
806,6	24,814
807	26,614
807,4	26,586
807,9	22,471
808,3	21,1
808,7	18,729
809,2	20,1
809,6	14,386
810	14,871
810,4	17,329
810,9	18,986
811,3	17,729
811,7	13,214
812,2	10,557
812,6	11,643
813	13,7
813,5	14,271
813,9	12,414
814,3	11,3
814,8	13,9
815,2	16,871
815,6	16,786
816,1	17,071
816,5	16,729
816,9	22,557
817,3	24,414
817,8	26,986
818,2	25,814
818,6	24,129
819,1	19,043
819,5	17,986
819,9	17,129
820,4	21,871
820,8	21,043
821,2	18,357
821,7	14,557
822,1	18,557
822,5	20,957
822,9	18,014
823,4	14,757
823,8	16,129
824,2	18,129
824,7	22,129
825,1	21,014
825,5	19,014
826	15,786
826,4	16,243
826,8	10,214
827,3	12,957
827,7	15,7
828,1	15,157
828,5	19,357
829	22,7
829,4	18,557
829,8	24,271
830,3	23,214
830,7	22,386
831,1	21,986
831,6	17,814
832	16,157
832,4	18,129
832,8	11,357
833,3	9,5
833,7	5,986
834,1	7,614
834,6	7,186
835	9,186
835,4	8,186
835,8	12,7
836,3	11,586
836,7	13,814
837,1	12,814
837,6	10,5
838	10,986
838,4	9,757
838,9	10,157
839,3	12,186
839,7	12,814
840,1	15,986
840,6	16,843
841	11,414
841,4	12,929
841,9	16,214
842,3	16,757
842,7	13,386
843,1	9,414
843,6	11,729
844	13,5
844,4	16,414
844,9	13,1
845,3	12,186
845,7	13,671
846,2	14,586
846,6	16,9
847	19,129
847,4	20,157
847,9	19,386
848,3	14,843
848,7	15,157
849,2	19,157
849,6	14,471
850	18,329
850,4	14,986
850,9	16,7
851,3	24,129
851,7	22,871
852,2	18,729
852,6	21,757
853	21,271
853,4	21,271
853,9	21,329
854,3	20,729
854,7	24,129
855,2	26,129
855,6	21,586
856	21,357
856,4	22,214
856,9	21,786
857,3	19,157
857,7	20,814
858,2	17,614
858,6	21,643
859	15,957
859,4	15,843
859,9	15,643
860,3	16,014
860,7	13,929
861,1	17,757
861,6	18,214
862	22,157
862,4	19,471
862,9	19,729
863,3	18,214
863,7	16,471
864,1	15,071
864,6	13,129
865	10,557
865,4	10,529
865,9	10,357
866,3	14,786
866,7	11,614
867,1	9,814
867,6	10,957
868	11,729
868,4	13,843
868,8	12,7
869,3	15,471
869,7	21,843
870,1	22,157
870,6	20,3
871	82,986
871,4	83,957
871,8	85,271
872,3	81,329
872,7	72,871
873,1	69,329
873,5	70,871
874	5,357
874,4	2,871
874,8	0,814
875,3	-2,9
875,7	1,3
876,1	7,957
876,5	6,043
877	8,929
877,4	10,843
877,8	11,3
878,2	11,557
878,7	14,7
879,1	9,043
879,5	9,5
879,9	7,243
880,4	4,271
880,8	10,1
881,2	14,329
881,7	13,929
882,1	15,3
882,5	15,929
882,9	19,757
883,4	21,471
883,8	16,586
884,2	13,871
884,6	10,986
885,1	13,071
885,5	11,586
885,9	12,157
886,3	10,643
886,8	16,214
887,2	13,786
887,6	13,757
888	13,786
888,5	16,757
888,9	10,529
889,3	9,729
889,8	6,014
890,2	8,614
890,6	12,157
891	12,7
891,5	10,986
891,9	13,729
892,3	19,843
892,7	16,986
893,2	19,671
893,6	15,843
894	16,814
894,4	15,157
894,9	15,014
895,3	10,5
895,7	12,786
896,1	9,557
896,6	9,1
897	10,929
897,4	15,557
897,8	18,9
898,3	21,471
898,7	19,986
899,1	19,471
899,5	21,871
900	14,814
900,4	7,986
900,8	1,843
901,2	3,386
901,7	7,014
902,1	3,814
902,5	6,986
902,9	13,357
903,4	18,5
903,8	18,786
904,2	15,129
904,6	12,586
905,1	18,386
905,5	14,186
905,9	8,071
906,3	6,471
906,8	10,243
907,2	11,586
907,6	12,186
908	8,986
908,5	4,871
908,9	7,1
909,3	8,471
909,7	7,3
910,2	6,529
910,6	4,786
911	10,614
911,4	15,129
911,9	15,671
912,3	19,186
912,7	20,014
913,1	18,557
913,6	22,986
914	21,7
914,4	24,186
914,8	24,7
915,3	20,471
915,7	22,014
916,1	22,5
916,5	17,014
916,9	10,243
917,4	9,157
917,8	8,186
918,2	15,243
918,6	12,871
919,1	13,643
919,5	16,414
919,9	23,357
920,3	22,329
920,8	26,443
921,2	19,986
921,6	19,3
922	17,1
922,5	17,643
922,9	17,557
923,3	18,843
923,7	14,414
924,2	15,986
924,6	17,557
925	19,871
925,4	19,7
925,8	17,643
926,3	13,671
926,7	15,557
927,1	12,357
927,5	12,929
928	14,3
928,4	7,071
928,8	7,786
929,2	9,929
929,7	13,157
930,1	16,214
930,5	13,757
930,9	16,186
931,3	23,529
931,8	23,471
932,2	23,3
932,6	16,071
933	10,186
933,5	14,843
933,9	8,757
934,3	8,186
934,7	7,129
935,2	4,414
935,6	4,986
936	4,186
936,4	0,957
936,8	4,414
937,3	5,271
937,7	3,957
938,1	5,7
938,5	7,986
939	11,129
939,4	10,443
939,8	9,043
940,2	7,729
940,6	10,729
941,1	14,071
941,5	14,157
941,9	14,614
942,3	16,214
942,8	19,786
943,2	13,986
943,6	12,157
944	11,729
944,4	8,757
944,9	8,214
945,3	7,871
945,7	2,357
946,1	9,614
946,6	8,957
947	7,3
947,4	9,814
947,8	13,5
948,2	14,271
948,7	16,243
949,1	14,443
949,5	15,757
949,9	15,214
950,3	12,586
950,8	9,1
951,2	8,729
951,6	9,729
952	10,671
952,5	10,357
952,9	9,671
953,3	7,986
953,7	7,214
954,1	8,586
954,6	10,529
955	9,814
955,4	7,614
955,8	14,643
956,2	17,757
956,7	21,357
957,1	19,557
957,5	19,9
957,9	21,271
958,3	20,957
958,8	15,5
959,2	18,1
959,6	22,386
960	21,843
960,5	15,443
960,9	10,214
961,3	10,757
961,7	14,043
962,1	13,414
962,6	9,243
963	13,186
963,4	20,814
963,8	20,757
964,2	18,129
964,7	14,729
965,1	15,014
965,5	16,043
965,9	13,871
966,3	11,357
966,8	11,071
967,2	14,671
967,6	13,014
968	9,757
968,4	9,986
968,9	9,386
969,3	11,071
969,7	14,1
970,1	10,386
970,5	11,757
971	15,271
971,4	12,557
971,8	8,414
972,2	4,557
972,6	5,729
973,1	9,3
973,5	10,043
973,9	6,3
974,3	7,557
974,7	6,986
975,2	4,243
975,6	0,414
976	3,7
976,4	1,671
976,8	4,471
977,3	-0,043
977,7	3,929
978,1	9,7
978,5	13,5
978,9	10,729
979,4	10,871
979,8	8,214
980,2	14,871
980,6	20,043
981	12,529
981,5	13,157
981,9	11,9
982,3	11,157
982,7	12,814
983,1	7,014
983,6	-0,757
984	7,129
984,4	4,957
984,8	5,814
985,2	9,357
985,6	11,471
986,1	8,7
986,5	14,186
986,9	13,586
987,3	13,786
987,7	15,014
988,2	11,386
988,6	7,471
989	15,9
989,4	11,329
989,8	8,843
990,3	8,671
990,7	8,471
991,1	7,557
991,5	9,043
991,9	3,071
992,3	6,557
992,8	1,9
993,2	0,3
993,6	-4,529
994	-1,957
994,4	2,929
994,9	3,5
995,3	3,3
995,7	5,414
996,1	11,586
996,5	13,1
996,9	14,957
997,4	7,243
997,8	9,157
998,2	5,5
998,6	6,814
999	-0,871
999,5	2,414
999,9	0,671
1000,3	4,757
1000,7	5,129
1001,1	5,757
1001,5	8,129
1002	12,071
1002,4	11,929
1002,8	14,414
1003,2	12,129
1003,6	10,214
1004	17,9
1004,5	18,643
1004,9	16,871
1005,3	16,071
1005,7	18,071
1006,1	17,729
1006,6	19,443
1007	9,3
1007,4	5,043
1007,8	4,014
1008,2	6,043
1008,6	4,071
1009,1	6,186
1009,5	10,357
1009,9	13,9
1010,3	17,271
1010,7	23,9
1011,1	19,014
1011,6	15,329
1012	14,757
1012,4	9,5
1012,8	5,871
1013,2	5,129
1013,6	2,786
1014,1	3,357
1014,5	8,214
1014,9	5,5
1015,3	6,386
1015,7	13,7
1016,1	12,729
1016,6	9,643
1017	10,1
1017,4	6,5
1017,8	12,614
1018,2	10,5
1018,6	5,814
1019,1	9,5
1019,5	9,814
1019,9	12,214
1020,3	12,3
1020,7	9,157
1021,1	5,986
1021,6	7,386
1022	1,9
1022,4	5,614
1022,8	6,1
1023,2	4,814
1023,6	4,557
1024,1	11,186
1024,5	15,357
1024,9	20,814
1025,3	21,729
1025,7	19,586
1026,1	17,1
1026,6	19,643
1027	15,186
1027,4	14,557
1027,8	4,9
1028,2	2,3
1028,6	5,014
1029	5,586
1029,5	2,471
1029,9	7,757
1030,3	3,529
1030,7	13,1
1031,1	15,614
1031,5	13,386
1032	18,871
1032,4	25,1
1032,8	21,186
1033,2	20,529
1033,6	14,043
1034	6,643
1034,4	7,729
1034,9	10,186
1035,3	2,614
1035,7	5,157
1036,1	7,157
1036,5	12,786
1036,9	20,243
1037,4	23,3
1037,8	20,586
1038,2	27,586
1038,6	23,586
1039	26,214
1039,4	26,529
1039,8	30,443
1040,3	29,386
1040,7	30,443
1041,1	24,586
1041,5	32,986
1041,9	33,443
1042,3	29,557
1042,7	19,329
1043,2	15,957
1043,6	20,586
1044	24,386
1044,4	23,5
1044,8	21,929
1045,2	23,443
1045,6	32,043
1046,1	33,671
1046,5	27,871
1046,9	27,414
1047,3	24,7
1047,7	21,986
1048,1	20,214
1048,5	16,386
1049	13,529
1049,4	9,214
1049,8	7,671
1050,2	4,157
1050,6	3,357
1051	7,757
1051,4	2,9
1051,9	6,614
1052,3	8,214
1052,7	11,7
1053,1	13,3
1053,5	11,843
1053,9	9,871
1054,3	7,986
1054,8	3,729
1055,2	4,986
1055,6	2,3
1056	4,386
1056,4	3,614
1056,8	4,586
1057,2	5,757
1057,6	12,414
1058,1	13,357
1058,5	8,1
1058,9	4,014
1059,3	6,729
1059,7	4,443
1060,1	10,357
1060,5	10,157
1061	9,043
1061,4	13,3
1061,8	14,843
1062,2	10,586
1062,6	15,729
1063	13,014
1063,4	10,5
1063,8	9,5
1064,3	15,1
1064,7	17,871
1065,1	23,043
1065,5	18,986
1065,9	18,729
1066,3	17,814
1066,7	25,271
1067,1	20,529
1067,6	21,557
1068	21,129
1068,4	20,586
1068,8	23,271
1069,2	26,1
1069,6	20,529
1070	22,329
1070,4	16,729
1070,9	16,557
1071,3	20,7
1071,7	17,5
1072,1	13,843
1072,5	14,986
1072,9	12,957
1073,3	13,871
1073,7	13,186
1074,2	14,014
1074,6	14,671
1075	18,471
1075,4	18,814
1075,8	15,471
1076,2	21,186
1076,6	21,843
1077	19,671
1077,5	19,929
1077,9	15,443
1078,3	14,3
1078,7	12,529
1079,1	8,9
1079,5	10,157
1079,9	10,786
1080,3	10,529
1080,7	14,9
1081,2	12,671
1081,6	14,329
1082	18,271
1082,4	16,071
1082,8	13,014
1083,2	8,586
1083,6	7,243
1084	7,414
1084,5	9,157
1084,9	3,357
1085,3	0,157
1085,7	1,071
1086,1	6,357
1086,5	4,529
1086,9	7,329
1087,3	10,243
1087,7	14,357
1088,2	21,7
1088,6	21,5
1089	25,471
1089,4	27,786
1089,8	22,671
1090,2	18,986
1090,6	15,471
1091	13,529
1091,4	10,529
1091,9	4,843
1092,3	8,129
1092,7	9,929
1093,1	9,271
1093,5	8,871
1093,9	6,014
1094,3	10,671
1094,7	7,243
1095,1	7,929
1095,5	11,071
1096	14,814
1096,4	14,814
1096,8	18,7
1097,2	16,214
1097,6	20,986
1098	10,986
1098,4	8,786
1098,8	8,871
1099,2	12,786
1099,6	10,929
1100,1	12,014
1100,5	12,1
1100,9	15,557
1101,3	13,729
1101,7	9,443
1102,1	7,843
1102,5	5,957
1102,9	2,271
1103,3	2,071
1103,7	1,329
1104,2	2,071
1104,6	7,386
1105	7,071
1105,4	10,357
1105,8	11,671
1106,2	10,129
1106,6	9,814
1107	9,757
1107,4	6,5
1107,8	4,82
1108,3	0,85
