Data from Subt2_00012.txt Node
Date: Mon Aug 28 13:07:21 MSK 2023
User: vat
Spectrometer: MAYP114033
Trigger mode: 0
Integration Time (sec): 1,000000E0
Scans to average: 5
Electric dark correction enabled: true
Nonlinearity correction enabled: false
Boxcar width: 3
XAxis mode: Wavelengths
Number of Pixels in Spectrum: 2068
>>>>>Begin Spectral Data<<<<<
199,4	0,517
199,9	3,947
200,4	2,2
200,8	4,724
201,3	3,638
201,8	6,438
202,2	8,352
202,7	9,781
203,2	6,752
203,6	8,495
204,1	9,067
204,6	12,81
205	10,495
205,5	13,495
206	12,01
206,4	12,581
206,9	16,124
207,4	13,638
207,8	11,295
208,3	14,01
208,8	14,724
209,2	22,438
209,7	20,924
210,2	12,181
210,6	12,838
211,1	11,181
211,5	11,067
212	8,724
212,5	6,981
212,9	9,495
213,4	16,41
213,9	14,152
214,3	16,581
214,8	15,467
215,3	14,752
215,7	9,838
216,2	11,867
216,7	8,838
217,1	9,352
217,6	9,01
218,1	3,867
218,5	5,181
219	5,295
219,5	6,21
219,9	8,752
220,4	8,467
220,9	9,638
221,3	13,838
221,8	10,124
222,3	15,838
222,7	12,381
223,2	13,095
223,6	17,838
224,1	19,952
224,6	19,838
225	21,552
225,5	18,381
226	20,724
226,4	20,838
226,9	16,695
227,4	13,381
227,8	15,695
228,3	15,952
228,8	13,524
229,2	16,952
229,7	15,41
230,2	14,095
230,6	15,381
231,1	13,695
231,5	14,752
232	18,981
232,5	14,495
232,9	10,067
233,4	13,667
233,9	14,552
234,3	16,667
234,8	15,581
235,3	7,267
235,7	8,124
236,2	11,467
236,7	10,067
237,1	12,952
237,6	12,781
238,1	12,01
238,5	14,781
239	11,438
239,4	14,552
239,9	14,724
240,4	9,152
240,8	7,695
241,3	12,524
241,8	14,21
242,2	16,781
242,7	16,552
243,2	15,124
243,6	21,981
244,1	22,267
244,6	19,895
245	23,695
245,5	27,038
245,9	23,038
246,4	23,724
246,9	20,581
247,3	19,724
247,8	16,152
248,3	14,952
248,7	16,267
249,2	17,781
249,7	20,267
250,1	15,438
250,6	17,724
251	16,981
251,5	15,867
252	7,981
252,4	11,41
252,9	11,581
253,4	20,038
253,8	18,638
254,3	20,01
254,8	22,752
255,2	26,095
255,7	27,295
256,1	27,267
256,6	23,838
257,1	22,495
257,5	21,41
258	16,524
258,5	15,038
258,9	10,552
259,4	8,981
259,9	6,41
260,3	9,581
260,8	11,495
261,2	15,895
261,7	15,695
262,2	18,067
262,6	19,524
263,1	18,981
263,6	13,095
264	13,724
264,5	9,838
264,9	9,495
265,4	6,838
265,9	4,438
266,3	4,838
266,8	7,124
267,3	7,41
267,7	10,838
268,2	12,067
268,7	16,267
269,1	17,438
269,6	21,267
270	23,41
270,5	20,638
271	22,381
271,4	20,695
271,9	21,381
272,4	21,924
272,8	16,895
273,3	19,01
273,7	21,581
274,2	16,181
274,7	13,781
275,1	11,952
275,6	11,152
276,1	10,41
276,5	8,21
277	12,095
277,4	18,41
277,9	22,267
278,4	20,01
278,8	19,752
279,3	23,381
279,8	19,495
280,2	14,467
280,7	7,067
281,1	8,152
281,6	7,495
282,1	8,981
282,5	6,495
283	8,924
283,4	13,01
283,9	20,667
284,4	21,238
284,8	21,924
285,3	24,41
285,8	27,924
286,2	24,41
286,7	20,895
287,1	19,638
287,6	17,067
288,1	20,467
288,5	19,667
289	19,667
289,5	23,095
289,9	24,324
290,4	23,781
290,8	26,095
291,3	26,038
291,8	26,895
292,2	21,267
292,7	18,952
293,1	19,581
293,6	13,352
294,1	13,61
294,5	6,81
295	5,524
295,5	7,667
295,9	12,752
296,4	12,467
296,8	16,952
297,3	17,324
297,8	16,867
298,2	16,781
298,7	22,781
299,1	23,952
299,6	21,381
300,1	22,324
300,5	19,981
301	25,952
301,5	21,095
301,9	18,038
302,4	11,524
302,8	11,81
303,3	7,981
303,8	9,41
304,2	3,838
304,7	5,552
305,1	2,924
305,6	7,981
306,1	6,467
306,5	9,038
307	7,21
307,4	10,295
307,9	11,895
308,4	12,381
308,8	10,01
309,3	11,638
309,8	9,724
310,2	13,381
310,7	15,924
311,1	12,181
311,6	12,981
312,1	9,924
312,5	7,695
313	9,838
313,4	14,61
313,9	12,724
314,4	17,838
314,8	17,124
315,3	21,867
315,7	24,838
316,2	24,552
316,7	14,781
317,1	15,752
317,6	14,21
318	13,667
318,5	15,781
319	16,238
319,4	14,095
319,9	12,752
320,3	11,952
320,8	18,238
321,3	18,181
321,7	11,352
322,2	11,067
322,6	10,638
323,1	12,981
323,6	12,181
324	8,695
324,5	11,295
324,9	13,038
325,4	15,095
325,9	17,152
326,3	19,895
326,8	20,067
327,2	18,581
327,7	12,838
328,2	17,41
328,6	15,695
329,1	16,095
329,5	15,41
330	16,038
330,5	15,781
330,9	18,381
331,4	13,495
331,8	16,438
332,3	14,41
332,8	14,895
333,2	16,038
333,7	12,638
334,1	15,552
334,6	18,581
335,1	20,524
335,5	22,81
336	18,41
336,4	20,981
336,9	25,01
337,4	27,752
337,8	26,81
338,3	21,324
338,7	22,781
339,2	32,552
339,7	30,495
340,1	26,467
340,6	17,867
341	20,867
341,5	22,324
342	20,895
342,4	19,838
342,9	18,581
343,3	22,981
343,8	23,352
344,2	23,781
344,7	22,581
345,2	21,295
345,6	19,581
346,1	20,638
346,5	18,724
347	21,324
347,5	17,067
347,9	15,438
348,4	15,267
348,8	11,552
349,3	16,295
349,8	19,838
350,2	19,838
350,7	23,152
351,1	27,495
351,6	33,924
352	38,638
352,5	39,81
353	41,667
353,4	53,61
353,9	56,01
354,3	64,81
354,8	71,381
355,3	80,724
355,7	86,952
356,2	96,524
356,6	108,867
357,1	131,124
357,5	150,095
358	169,752
358,5	200,895
358,9	236,324
359,4	274,895
359,8	315,695
360,3	357,21
360,8	407,981
361,2	471,695
361,7	531,467
362,1	592,838
362,6	663,495
363	742,124
363,5	829,924
364	922,838
364,4	1012,61
364,9	1104,695
365,3	1201,067
365,8	1293,895
366,3	1376,352
366,7	1449,752
367,2	1512,124
367,6	1566,524
368,1	1606,752
368,5	1635,638
369	1650,181
369,5	1646,067
369,9	1632,581
370,4	1604,924
370,8	1567,838
371,3	1517,295
371,7	1464,781
372,2	1407,152
372,7	1345,895
373,1	1281,924
373,6	1211,124
374	1132,21
374,5	1061,181
374,9	988,895
375,4	911,267
375,9	838,438
376,3	769,81
376,8	710,41
377,2	654,21
377,7	606,41
378,2	555,21
378,6	513,124
379,1	473,324
379,5	430,524
380	391,267
380,4	358,952
380,9	327,324
381,4	300,381
381,8	278,838
382,3	259,467
382,7	246,152
383,2	232,552
383,6	220,552
384,1	202,724
384,6	194,181
385	181,181
385,5	171,924
385,9	159,61
386,4	148,267
386,8	138,895
387,3	136,41
387,7	124,638
388,2	116,981
388,7	107,524
389,1	96,467
389,6	93,524
390	88,267
390,5	81,524
390,9	72,638
391,4	65,724
391,9	66,152
392,3	68,41
392,8	63,781
393,2	62,095
393,7	58,981
394,1	61,581
394,6	63,781
395,1	61,267
395,5	59,324
396	55,638
396,4	52,552
396,9	51,495
397,3	51,181
397,8	43,21
398,2	41,438
398,7	41,924
399,2	44,438
399,6	45,21
400,1	45,267
400,5	45,838
401	53,381
401,4	53,924
401,9	54,895
402,4	57,981
402,8	57,295
403,3	59,952
403,7	59,581
404,2	62,095
404,6	63,038
405,1	69,067
405,5	67,524
406	70,295
406,5	69,152
406,9	74,952
407,4	76,067
407,8	85,01
408,3	84,895
408,7	91,238
409,2	95,324
409,6	104,724
410,1	109,724
410,6	117,952
411	118,952
411,5	127,495
411,9	139,895
412,4	153,495
412,8	159,181
413,3	169,381
413,7	180,61
414,2	194,295
414,7	207,067
415,1	216,524
415,6	224,152
416	240,867
416,5	255,61
416,9	267,638
417,4	283,438
417,8	299,181
418,3	310,124
418,8	336,981
419,2	356,381
419,7	379,867
420,1	400,381
420,6	416,952
421	443,581
421,5	475,895
421,9	496,41
422,4	527,467
422,8	552,01
423,3	581,038
423,8	615,181
424,2	643,095
424,7	670,638
425,1	709,095
425,6	739,524
426	776,467
426,5	815,381
426,9	861,981
427,4	903,724
427,9	952,61
428,3	998,752
428,8	1050,095
429,2	1104,638
429,7	1162,838
430,1	1217,01
430,6	1280,267
431	1345,61
431,5	1411,495
431,9	1483,495
432,4	1557,267
432,8	1641,438
433,3	1731,867
433,8	1825,067
434,2	1913,21
434,7	2014,01
435,1	2119,152
435,6	2232,381
436	2338,81
436,5	2446,41
436,9	2565,981
437,4	2692,924
437,8	2815,295
438,3	2943,781
438,8	3078,295
439,2	3223,238
439,7	3379,352
440,1	3529,867
440,6	3694,438
441	3865,038
441,5	4037,067
441,9	4217,552
442,4	4399,838
442,8	4588,524
443,3	4786,952
443,7	4987,238
444,2	5195,667
444,7	5419,352
445,1	5640,238
445,6	5877,752
446	6113,638
446,5	6352,038
446,9	6603,695
447,4	6861,924
447,8	7116,352
448,3	7378,724
448,7	7646,352
449,2	7917,381
449,6	8196,895
450,1	8488,952
450,6	8778,01
451	9070,781
451,5	9380,695
451,9	9683,467
452,4	9998,295
452,8	10325,381
453,3	10633,124
453,7	10964,752
454,2	11313,952
454,6	11648,924
455,1	12002,667
455,5	12359,352
456	12705,667
456,4	13070,581
456,9	13440,581
457,3	13794,01
457,8	14173,21
458,3	14540,038
458,7	14915,01
459,2	15306,152
459,6	15695,381
460,1	16085,952
460,5	16491,524
461	16873,467
461,4	17276,981
461,9	17671,238
462,3	18069,552
462,8	18462,467
463,2	18843,381
463,7	19232,267
464,1	19638,438
464,6	20019,038
465	20412,838
465,5	20798,067
466	21199,238
466,4	21578,295
466,9	21952,067
467,3	22321,867
467,8	22708,952
468,2	23081,381
468,7	23450,981
469,1	23813,324
469,6	24195,038
470	24567,152
470,5	24930,981
470,9	25280,61
471,4	25638,152
471,8	25983,038
472,3	26309,01
472,7	26629,21
473,2	26950,638
473,6	27271,667
474,1	27584,467
474,5	27897,124
475	28193,01
475,4	28495,552
475,9	28793,295
476,4	29073,038
476,8	29332,095
477,3	29607,352
477,7	29861,524
478,2	30104,181
478,6	30338,467
479,1	30570,981
479,5	30802,238
480	31010,095
480,4	31201,924
480,9	31394,781
481,3	31579,638
481,8	31763,324
482,2	31915,295
482,7	32070,981
483,1	32232,21
483,6	32371,295
484	32470,81
484,5	32590,181
484,9	32690,181
485,4	32792,752
485,8	32862,324
486,3	32947,552
486,7	33013,895
487,2	33085,124
487,6	33151,038
488,1	33178,781
488,5	33209,695
489	33235,552
489,4	33240,267
489,9	33224,238
490,4	33208,124
490,8	33179,838
491,3	33152,695
491,7	33118,752
492,2	33064,924
492,6	33004,21
493,1	32950,124
493,5	32889,867
494	32801,495
494,4	32719,524
494,9	32623,038
495,3	32529,095
495,8	32423,267
496,2	32320,524
496,7	32201,438
497,1	32098,01
497,6	31965,524
498	31822,724
498,5	31693,238
498,9	31565,152
499,4	31418,781
499,8	31283,981
500,3	31125,752
500,7	30986,667
501,2	30844,21
501,6	30689,41
502,1	30505,924
502,5	30343,724
503	30156,752
503,4	29982,438
503,9	29798,724
504,3	29613,152
504,8	29407,61
505,2	29224,524
505,7	29021,152
506,1	28832,067
506,6	28619,981
507	28416,867
507,5	28200,724
507,9	27989,61
508,4	27759,01
508,8	27543,267
509,3	27314,267
509,7	27097,81
510,2	26871,952
510,6	26640,01
511,1	26421,41
511,5	26185,61
512	25952,124
512,4	25718,638
512,9	25481,181
513,3	25247,724
513,8	25011,095
514,2	24780,41
514,7	24561,552
515,1	24320,695
515,6	24086,667
516	23840,895
516,5	23584,067
516,9	23352,352
517,4	23099,581
517,8	22858,524
518,3	22626,952
518,7	22378,695
519,2	22139,667
519,6	21908,695
520,1	21670,81
520,5	21434,352
521	21207,467
521,4	20966,01
521,9	20739,467
522,3	20512,181
522,8	20295,21
523,2	20068,152
523,7	19856,752
524,1	19618,381
524,6	19402,867
525	19184,61
525,5	18971,038
525,9	18763,41
526,4	18553,61
526,8	18345,124
527,3	18142,41
527,7	17936,952
528,2	17732,581
528,6	17530,581
529,1	17313,638
529,5	17114,495
530	16908,638
530,4	16721,295
530,9	16532,467
531,3	16350,895
531,8	16162,695
532,2	15987,724
532,6	15802,667
533,1	15621,152
533,5	15442,181
534	15255,667
534,4	15072,724
534,9	14897,61
535,3	14720,495
535,8	14556,067
536,2	14391,524
536,7	14225,181
537,1	14060,152
537,6	13898,438
538	13750,952
538,5	13593,867
538,9	13437,495
539,4	13273,295
539,8	13119,81
540,3	12977,095
540,7	12836,81
541,2	12685,752
541,6	12546,324
542,1	12401,638
542,5	12271,752
543	12135,352
543,4	11995,438
543,9	11847,781
544,3	11717,981
544,8	11593,267
545,2	11458,41
545,7	11336,181
546,1	11211,981
546,5	11085,124
547	10971,495
547,4	10839,724
547,9	10717,181
548,3	10610,124
548,8	10491,01
549,2	10369,724
549,7	10269,495
550,1	10156,724
550,6	10059,095
551	9945,867
551,5	9836,124
551,9	9732,324
552,4	9633,467
552,8	9525,867
553,3	9436,924
553,7	9338,124
554,2	9243,895
554,6	9149,667
555,1	9058,781
555,5	8966,924
555,9	8881,21
556,4	8779,781
556,8	8695,238
557,3	8606,095
557,7	8526,524
558,2	8434,267
558,6	8351,952
559,1	8269,61
559,5	8201,181
560	8113,667
560,4	8034,267
560,9	7957,295
561,3	7892,781
561,8	7819,781
562,2	7732,524
562,7	7643,495
563,1	7563,495
563,6	7493,181
564	7413,667
564,4	7338,067
564,9	7263,381
565,3	7200,952
565,8	7138,981
566,2	7075,924
566,7	7008,381
567,1	6942,295
567,6	6874,781
568	6810,495
568,5	6750,01
568,9	6690,038
569,4	6622,867
569,8	6555,352
570,3	6498,21
570,7	6438,781
571,1	6382,381
571,6	6324,838
572	6266,181
572,5	6213,438
572,9	6161,267
573,4	6104,095
573,8	6053,01
574,3	6003,295
574,7	5954,781
575,2	5906,61
575,6	5864,752
576,1	5819,895
576,5	5774,81
576,9	5712,724
577,4	5664,724
577,8	5602,295
578,3	5546,21
578,7	5494,467
579,2	5442,267
579,6	5389,552
580,1	5344,438
580,5	5293,095
581	5259,638
581,4	5223,895
581,9	5175,524
582,3	5132,181
582,7	5085,581
583,2	5042,81
583,6	4992,324
584,1	4944,352
584,5	4894,695
585	4852,524
585,4	4808,21
585,9	4766,524
586,3	4726,438
586,8	4688,438
587,2	4652,667
587,6	4610,324
588,1	4573,238
588,5	4535,667
589	4498,667
589,4	4457,838
589,9	4424,495
590,3	4391,781
590,8	4355,381
591,2	4325,495
591,7	4297,81
592,1	4268,867
592,5	4245,495
593	4222,267
593,4	4181,381
593,9	4151,581
594,3	4118,667
594,8	4088,724
595,2	4057,552
595,7	4020,01
596,1	3987,21
596,6	3958,124
597	3934,238
597,4	3902,895
597,9	3868,981
598,3	3847,781
598,8	3824,352
599,2	3790,467
599,7	3771,095
600,1	3742,238
600,6	3721,067
601	3700,495
601,4	3666,181
601,9	3646,152
602,3	3626,81
602,8	3598,638
603,2	3573,381
603,7	3544,038
604,1	3520,324
604,6	3503,352
605	3479,81
605,4	3454,324
605,9	3429,752
606,3	3406,552
606,8	3382,352
607,2	3355,095
607,7	3330,324
608,1	3302,695
608,6	3274,781
609	3251,038
609,4	3227,41
609,9	3210,61
610,3	3192,067
610,8	3169,267
611,2	3145,238
611,7	3124,752
612,1	3101,524
612,6	3077,752
613	3051,295
613,4	3023,667
613,9	3002,752
614,3	2978,01
614,8	2954,895
615,2	2934,41
615,7	2911,952
616,1	2888,752
616,6	2873,467
617	2848,867
617,4	2836,524
617,9	2812,867
618,3	2797,467
618,8	2777,495
619,2	2762,695
619,7	2740,295
620,1	2718,752
620,5	2695,01
621	2680,152
621,4	2665,952
621,9	2647,638
622,3	2629,867
622,8	2609,81
623,2	2603,181
623,6	2583,41
624,1	2567,867
624,5	2540,838
625	2519,524
625,4	2499,124
625,9	2481,838
626,3	2458,724
626,8	2444,124
627,2	2426,295
627,6	2407,81
628,1	2394,61
628,5	2377,152
629	2354,667
629,4	2327,381
629,9	2303,638
630,3	2284,552
630,7	2271,724
631,2	2261,838
631,6	2237,752
632,1	2227,181
632,5	2215,667
633	2202,61
633,4	2187,981
633,8	2165,981
634,3	2138,238
634,7	2119,21
635,2	2104,181
635,6	2090,067
636,1	2075,895
636,5	2062,352
636,9	2046,152
637,4	2035,095
637,8	2032,324
638,3	2013,838
638,7	1996,581
639,2	1979,467
639,6	1964,61
640	1954,295
640,5	1942,61
640,9	1926,124
641,4	1915,695
641,8	1903,381
642,2	1895,352
642,7	1881,552
643,1	1870,41
643,6	1858,238
644	1848,838
644,5	1834,667
644,9	1821,952
645,3	1807,667
645,8	1794,152
646,2	1780,981
646,7	1764,667
647,1	1749,838
647,6	1741,01
648	1730,381
648,4	1721,467
648,9	1713,924
649,3	1702,067
649,8	1693,752
650,2	1683,238
650,6	1668,21
651,1	1654,724
651,5	1640,352
652	1625,81
652,4	1613,381
652,9	1602,724
653,3	1585,924
653,7	1572,667
654,2	1563,667
654,6	1555,381
655,1	1549,552
655,5	1540,181
655,9	1528,752
656,4	1524,324
656,8	1518,467
657,3	1512,238
657,7	1494,524
658,2	1480,724
658,6	1471,524
659	1461,952
659,5	1447,295
659,9	1436,495
660,4	1422,667
660,8	1417,952
661,2	1403,381
661,7	1392,01
662,1	1376,41
662,6	1371,152
663	1356,867
663,4	1350,01
663,9	1340,152
664,3	1327,467
664,8	1315,781
665,2	1309,952
665,6	1296,095
666,1	1289,552
666,5	1279,467
667	1268,152
667,4	1265,524
667,9	1257,381
668,3	1248,752
668,7	1238,838
669,2	1227,952
669,6	1214,467
670,1	1209,695
670,5	1203,152
670,9	1193,095
671,4	1183,552
671,8	1174,124
672,3	1169,552
672,7	1162,667
673,1	1156,467
673,6	1146,667
674	1137,524
674,5	1131,838
674,9	1127,638
675,3	1116,41
675,8	1109,21
676,2	1093,552
676,7	1083,21
677,1	1079,181
677,5	1070,781
678	1061,61
678,4	1055,867
678,9	1046,495
679,3	1046,638
679,7	1036,524
680,2	1028,21
680,6	1019,695
681,1	1014,038
681,5	1007,724
681,9	1004,952
682,4	991,552
682,8	986,724
683,3	982,552
683,7	975,124
684,1	961,067
684,6	949,781
685	938,238
685,5	925,695
685,9	916,352
686,3	907,695
686,8	901,067
687,2	899,295
687,7	895,41
688,1	885,267
688,5	884,981
689	883,238
689,4	871,038
689,9	865,238
690,3	860,981
690,7	855,438
691,2	854,238
691,6	851,01
692	842,781
692,5	837,295
692,9	833,181
693,4	823,524
693,8	818,238
694,2	810,752
694,7	797,781
695,1	797,695
695,6	797,467
696	789,838
696,4	785,61
696,9	778,752
697,3	776,267
697,8	775,295
698,2	761,61
698,6	753,267
699,1	750,895
699,5	744,638
699,9	740,867
700,4	734,238
700,8	724,181
701,3	721,095
701,7	715,952
702,1	709,095
702,6	701,124
703	697,895
703,5	690,295
703,9	693,495
704,3	688,267
704,8	683,524
705,2	678,867
705,6	682,895
706,1	669,924
706,5	667,952
707	659,952
707,4	660,667
707,8	658,038
708,3	649,867
708,7	642,524
709,2	646,01
709,6	641,838
710	635,667
710,5	624,41
710,9	621,152
711,3	617,895
711,8	610,61
712,2	603,152
712,7	597,695
713,1	592,352
713,5	591,638
714	586,752
714,4	579,867
714,8	576,895
715,3	573,924
715,7	572,067
716,2	573,81
716,6	566,867
717	562,41
717,5	562,238
717,9	553,638
718,3	547,267
718,8	542,638
719,2	530,695
719,7	528,667
720,1	523,238
720,5	521,895
721	521,695
721,4	518,181
721,8	510,124
722,3	511,752
722,7	508,238
723,2	505,524
723,6	501,61
724	496,724
724,5	489,924
724,9	487,038
725,3	478,61
725,8	475,924
726,2	470,038
726,7	465,038
727,1	461,581
727,5	462,238
728	454,952
728,4	455,124
728,8	446,295
729,3	441,695
729,7	436,352
730,1	434,495
730,6	434,981
731	436,324
731,5	435,01
731,9	436,552
732,3	437,61
732,8	435,895
733,2	433,238
733,6	426,924
734,1	424,41
734,5	423,524
734,9	418,867
735,4	413,381
735,8	412,267
736,3	404,952
736,7	402,41
737,1	401,781
737,6	393,981
738	394,581
738,4	397,695
738,9	394,867
739,3	403,524
739,7	400,581
740,2	397,124
740,6	401,895
741,1	396,381
741,5	387,838
741,9	385,438
742,4	381,838
742,8	380,81
743,2	378,438
743,7	372,295
744,1	375,781
744,5	376,752
745	374,752
745,4	367,924
745,8	363,781
746,3	358,267
746,7	353,21
747,2	342,867
747,6	337,695
748	335,152
748,5	333,638
748,9	331,524
749,3	334,095
749,8	334,438
750,2	333,638
750,6	334,095
751,1	328,924
751,5	326,352
751,9	323,324
752,4	327,095
752,8	324,267
753,3	321,324
753,7	318,095
754,1	319,695
754,6	316,095
755	314,067
755,4	308,638
755,9	307,238
756,3	311,124
756,7	311,095
757,2	305,895
757,6	304,21
758	300,695
758,5	298,067
758,9	295,238
759,3	289,752
759,8	281,581
760,2	281,295
760,6	284,952
761,1	285,124
761,5	282,095
761,9	280,21
762,4	284,81
762,8	291,038
763,3	289,524
763,7	284,181
764,1	281,124
764,6	277,81
765	275,295
765,4	267,295
765,9	262,352
766,3	259,438
766,7	260,61
767,2	261,095
767,6	264,095
768	261,781
768,5	258,124
768,9	255,781
769,3	254,381
769,8	244,581
770,2	243,238
770,6	235,038
771,1	231,752
771,5	234,152
771,9	232,81
772,4	232,838
772,8	238,495
773,2	238,667
773,7	234,581
774,1	240,667
774,5	238,838
775	238,01
775,4	236,01
775,8	233,01
776,3	230,238
776,7	234,667
777,1	230,152
777,6	223,981
778	219,695
778,4	219,095
778,9	217,324
779,3	217,61
779,7	213,781
780,2	213,124
780,6	219,238
781	220,095
781,5	215,238
781,9	213,01
782,3	209,438
782,8	211,095
783,2	205,524
783,6	200,067
784,1	199,724
784,5	201,467
784,9	197,695
785,4	196,41
785,8	194,181
786,2	193,21
786,7	194,981
787,1	197,21
787,5	192,181
788	190,495
788,4	190,638
788,8	185,238
789,3	188,981
789,7	189,238
790,1	183,552
790,6	185,467
791	185,838
791,4	181,381
791,9	184,495
792,3	181,524
792,7	177,524
793,2	179,01
793,6	178,124
794	179,181
794,5	180,152
794,9	182,238
795,3	179,981
795,8	181,352
796,2	172,152
796,6	172,61
797,1	171,438
797,5	171,095
797,9	167,267
798,4	167,952
798,8	163,667
799,2	169,124
799,7	165,095
800,1	166,467
800,5	165,781
801	163,038
801,4	162,067
801,8	159,181
802,2	153,21
802,7	148,667
803,1	146,981
803,5	144,467
804	142,667
804,4	141,295
804,8	144,124
805,3	146,667
805,7	150,61
806,1	148,038
806,6	147,267
807	147,21
807,4	146,981
807,9	144,295
808,3	145,552
808,7	143,352
809,2	140,61
809,6	142,924
810	144,981
810,4	144,638
810,9	144,181
811,3	144,638
811,7	140,552
812,2	143,238
812,6	139,01
813	139,267
813,5	137,781
813,9	136,781
814,3	130,952
814,8	132,61
815,2	131,581
815,6	132,838
816,1	133,381
816,5	132,324
816,9	135,181
817,3	136,238
817,8	139,21
818,2	133,238
818,6	133,038
819,1	125,124
819,5	122,467
819,9	118,924
820,4	121,095
820,8	116,267
821,2	115,181
821,7	110,752
822,1	108,895
822,5	110,352
822,9	107,238
823,4	102,81
823,8	106,095
824,2	106,01
824,7	104,867
825,1	106,952
825,5	104,267
826	99,01
826,4	94,895
826,8	88,41
827,3	90,067
827,7	89,21
828,1	90,01
828,5	94,638
829	102,81
829,4	100,438
829,8	106,381
830,3	108,438
830,7	107,152
831,1	104,524
831,6	95,238
832	92,61
832,4	97,438
832,8	92,124
833,3	84,924
833,7	83,781
834,1	84,295
834,6	89,61
835	87,01
835,4	82,01
835,8	81,438
836,3	86,324
836,7	85,41
837,1	83,61
837,6	75,267
838	72,695
838,4	74,238
838,9	75,438
839,3	74,61
839,7	77,181
840,1	77,581
840,6	82,124
841	81,41
841,4	80,867
841,9	82,038
842,3	77,124
842,7	73,781
843,1	74,01
843,6	72,781
844	75,038
844,4	80,924
844,9	79,924
845,3	82,41
845,7	83,524
846,2	85,267
846,6	86,552
847	87,352
847,4	82,895
847,9	81,724
848,3	75,152
848,7	73,181
849,2	68,238
849,6	67,238
850	68,61
850,4	66,752
850,9	64,267
851,3	72,152
851,7	70,067
852,2	67,295
852,6	69,781
853	65,438
853,4	65,152
853,9	63,81
854,3	63,581
854,7	69,981
855,2	75,238
855,6	69,752
856	72,01
856,4	70,124
856,9	72,352
857,3	70,381
857,7	68,267
858,2	64,067
858,6	64,41
859	63,952
859,4	65,352
859,9	65,238
860,3	61,924
860,7	61,552
861,1	63,124
861,6	64,667
862	62,981
862,4	60,952
862,9	58,067
863,3	55,352
863,7	56,61
864,1	57,524
864,6	58,267
865	57,295
865,4	60,381
865,9	60,724
866,3	64,038
866,7	59,267
867,1	57,638
867,6	56,895
868	52,352
868,4	50,41
868,8	50,952
869,3	53,752
869,7	55,838
870,1	54,267
870,6	49,524
871	114,581
871,4	116,61
871,8	116,724
872,3	114,695
872,7	110,552
873,1	109,61
873,5	109,924
874	49,381
874,4	48,781
874,8	49,924
875,3	48,838
875,7	49,838
876,1	54,467
876,5	53,41
877	48,381
877,4	48,324
877,8	43,038
878,2	48,038
878,7	47,895
879,1	43,581
879,5	43,838
879,9	46,21
880,4	40,238
880,8	45,838
881,2	38,724
881,7	40,381
882,1	40,067
882,5	41,867
882,9	40,952
883,4	42,61
883,8	38,552
884,2	37,61
884,6	33,524
885,1	31,295
885,5	33,01
885,9	34,924
886,3	35,352
886,8	41,095
887,2	37,467
887,6	39,295
888	40,895
888,5	35,124
888,9	29,667
889,3	28,41
889,8	26,495
890,2	27,981
890,6	27,724
891	28,095
891,5	32,238
891,9	35,067
892,3	40,295
892,7	33,352
893,2	37,095
893,6	35,552
894	35,667
894,4	30,295
894,9	33,638
895,3	30,267
895,7	34,381
896,1	27,524
896,6	29,81
897	31,41
897,4	33,781
897,8	31,867
898,3	33,41
898,7	32,095
899,1	39,895
899,5	39,181
900	35,695
900,4	36,21
900,8	28,695
901,2	21,552
901,7	24,81
902,1	22,095
902,5	19,638
902,9	17,61
903,4	20,495
903,8	23,867
904,2	32,01
904,6	25,552
905,1	23,895
905,5	21,438
905,9	21,952
906,3	17,467
906,8	17,695
907,2	10,552
907,6	13,895
908	13,838
908,5	15,181
908,9	14,895
909,3	18,895
909,7	19,295
910,2	21,952
910,6	22,952
911	23,295
911,4	27,381
911,9	30,267
912,3	30,067
912,7	29,21
913,1	26,981
913,6	24,238
914	25,895
914,4	23,295
914,8	22,581
915,3	17,324
915,7	24,095
916,1	27,581
916,5	29,095
916,9	26,638
917,4	28,924
917,8	27,467
918,2	31,581
918,6	22,552
919,1	17,752
919,5	17,467
919,9	20,238
920,3	20,838
920,8	23,924
921,2	25,667
921,6	29,21
922	30,21
922,5	29,467
922,9	29,152
923,3	31,61
923,7	29,095
924,2	22,467
924,6	25,895
925	27,381
925,4	23,895
925,8	22,124
926,3	17,552
926,7	17,61
927,1	18,781
927,5	16,295
928	13,21
928,4	13,095
928,8	20,924
929,2	19,21
929,7	19,924
930,1	25,41
930,5	21,552
930,9	28,295
931,3	31,724
931,8	24,067
932,2	22,781
932,6	17,467
933	12,981
933,5	15,581
933,9	12,067
934,3	9,552
934,7	10,095
935,2	13,467
935,6	15,467
936	9,724
936,4	8,581
936,8	7,981
937,3	14,895
937,7	17,181
938,1	16,895
938,5	16,495
939	25,467
939,4	28,181
939,8	27,981
940,2	23,981
940,6	20,295
941,1	19,581
941,5	22,467
941,9	23,152
942,3	19,752
942,8	20,724
943,2	12,638
943,6	13,124
944	15,21
944,4	13,695
944,9	4,924
945,3	10,267
945,7	8,752
946,1	10,381
946,6	9,267
947	5,781
947,4	2,952
947,8	11,381
948,2	11,524
948,7	9,01
949,1	12,952
949,5	12,667
949,9	13,81
950,3	15,467
950,8	9,638
951,2	0,981
951,6	4,41
952	8,352
952,5	10,152
952,9	8,695
953,3	7,752
953,7	8,238
954,1	12,981
954,6	12,895
955	12,524
955,4	11,181
955,8	16,124
956,2	18,781
956,7	22,238
957,1	24,781
957,5	24,181
957,9	23,438
958,3	25,895
958,8	24,124
959,2	27,552
959,6	31,438
960	28,21
960,5	29,495
960,9	29,981
961,3	26,667
961,7	28,267
962,1	26,152
962,6	21,867
963	25,867
963,4	29,61
963,8	24,924
964,2	26,352
964,7	23,124
965,1	21,895
965,5	24,924
965,9	20,467
966,3	17,695
966,8	18,095
967,2	18,267
967,6	16,21
968	13,952
968,4	14,867
968,9	12,724
969,3	8,552
969,7	7,238
970,1	7,981
970,5	9,638
971	12,581
971,4	8,095
971,8	9,895
972,2	12,924
972,6	14,981
973,1	9,695
973,5	15,61
973,9	12,981
974,3	10,952
974,7	10,352
975,2	10,152
975,6	9,124
976	13,638
976,4	4,752
976,8	4,838
977,3	5,952
977,7	7,524
978,1	7,467
978,5	11,181
978,9	13,781
979,4	17,181
979,8	16,381
980,2	17,267
980,6	21,181
981	16,21
981,5	14,152
981,9	10,438
982,3	11,095
982,7	14,095
983,1	13,267
983,6	6,895
984	12,981
984,4	9,924
984,8	11,067
985,2	9,152
985,6	6,181
986,1	2,152
986,5	6,552
986,9	1,41
987,3	3,924
987,7	5,467
988,2	1,838
988,6	1,238
989	3,895
989,4	-1,905
989,8	3,438
990,3	0,152
990,7	-1,105
991,1	3,524
991,5	4,952
991,9	1,924
992,3	3,124
992,8	0,695
993,2	6,267
993,6	5,81
994	5,295
994,4	6,867
994,9	9,695
995,3	15,067
995,7	12,352
996,1	11,695
996,5	12,238
996,9	16,21
997,4	12,838
997,8	14,238
998,2	12,667
998,6	17,724
999	15,438
999,5	13,895
999,9	8,324
1000,3	9,21
1000,7	13,667
1001,1	13,581
1001,5	14,238
1002	16,267
1002,4	14,724
1002,8	19,61
1003,2	18,895
1003,6	11,181
1004	13,752
1004,5	10,095
1004,9	9,495
1005,3	10,41
1005,7	12,695
1006,1	12,952
1006,6	19,181
1007	13,095
1007,4	11,838
1007,8	13,038
1008,2	12,781
1008,6	8,981
1009,1	8,438
1009,5	10,467
1009,9	14,41
1010,3	17,124
1010,7	17,495
1011,1	19,095
1011,6	13,781
1012	16,81
1012,4	11,838
1012,8	9,581
1013,2	6,695
1013,6	6,41
1014,1	4,21
1014,5	8,495
1014,9	5,038
1015,3	4,524
1015,7	3,038
1016,1	4,438
1016,6	4,695
1017	7,552
1017,4	7,81
1017,8	15,695
1018,2	14,438
1018,6	19,581
1019,1	19,638
1019,5	19,81
1019,9	20,038
1020,3	20,952
1020,7	19,124
1021,1	14,667
1021,6	11,581
1022	14,61
1022,4	12,667
1022,8	14,181
1023,2	11,895
1023,6	4,495
1024,1	12,21
1024,5	14,381
1024,9	14,238
1025,3	17,124
1025,7	11,295
1026,1	10,038
1026,6	16,524
1027	15,067
1027,4	14,81
1027,8	8,467
1028,2	10,095
1028,6	14,381
1029	11,695
1029,5	8,838
1029,9	11,552
1030,3	7,981
1030,7	13,867
1031,1	9,924
1031,5	6,524
1032	11,267
1032,4	18,21
1032,8	13,238
1033,2	16,067
1033,6	11,467
1034	8,667
1034,4	10,581
1034,9	13,438
1035,3	7,981
1035,7	8,61
1036,1	9,752
1036,5	6,867
1036,9	7,581
1037,4	6,21
1037,8	1,467
1038,2	1,324
1038,6	2,61
1039	0,21
1039,4	9,181
1039,8	16,324
1040,3	18,21
1040,7	21,81
1041,1	18,352
1041,5	17,981
1041,9	18,41
1042,3	14,352
1042,7	5,181
1043,2	8,41
1043,6	10,381
1044	11,952
1044,4	18,352
1044,8	22,152
1045,2	22,238
1045,6	32,724
1046,1	28,267
1046,5	22,095
1046,9	24,067
1047,3	17,981
1047,7	12,495
1048,1	9,895
1048,5	3,267
1049	4,895
1049,4	6,495
1049,8	7,267
1050,2	8,295
1050,6	10,552
1051	14,895
1051,4	10,895
1051,9	11,238
1052,3	10,21
1052,7	12,81
1053,1	9,21
1053,5	4,61
1053,9	6,267
1054,3	2,752
1054,8	0,667
1055,2	3,295
1055,6	4,067
1056	6,324
1056,4	7,01
1056,8	6,295
1057,2	9,352
1057,6	11,981
1058,1	10,438
1058,5	4,924
1058,9	5,124
1059,3	7,095
1059,7	7,667
1060,1	13,895
1060,5	10,838
1061	11,752
1061,4	11,838
1061,8	12,267
1062,2	14,524
1062,6	10,867
1063	11,124
1063,4	15,381
1063,8	14,181
1064,3	23,524
1064,7	27,981
1065,1	28,924
1065,5	31,267
1065,9	28,238
1066,3	28,095
1066,7	34,238
1067,1	21,152
1067,6	17,838
1068	18,724
1068,4	20,038
1068,8	19,152
1069,2	18,438
1069,6	14,352
1070	19,924
1070,4	18,095
1070,9	17,495
1071,3	18,781
1071,7	17,41
1072,1	13,181
1072,5	12,695
1072,9	10,695
1073,3	8,981
1073,7	8,095
1074,2	6,295
1074,6	5,895
1075	13,295
1075,4	12,495
1075,8	11,495
1076,2	18,324
1076,6	15,724
1077	16,01
1077,5	20,324
1077,9	9,267
1078,3	6,524
1078,7	8,924
1079,1	3,638
1079,5	7,467
1079,9	11,324
1080,3	10,552
1080,7	16,01
1081,2	17,267
1081,6	12,581
1082	18,41
1082,4	13,438
1082,8	12,467
1083,2	5,324
1083,6	5,295
1084	5,41
1084,5	7,267
1084,9	-0,048
1085,3	1,724
1085,7	-1,505
1086,1	4,495
1086,5	2,667
1086,9	2,495
1087,3	8,581
1087,7	15,152
1088,2	17,21
1088,6	16,095
1089	16,724
1089,4	22,638
1089,8	23,238
1090,2	17,581
1090,6	11,352
1091	7,467
1091,4	8,095
1091,9	6,781
1092,3	5,524
1092,7	3,324
1093,1	5,81
1093,5	7,267
1093,9	9,981
1094,3	8,038
1094,7	4,752
1095,1	7,924
1095,5	10,038
1096	10,181
1096,4	14,01
1096,8	17,952
1097,2	20,495
1097,6	26,381
1098	22,01
1098,4	20,638
1098,8	19,552
1099,2	18,781
1099,6	15,695
1100,1	12,495
1100,5	12,267
1100,9	9,01
1101,3	13,838
1101,7	12,638
1102,1	11,724
1102,5	9,495
1102,9	10,981
1103,3	11,124
1103,7	16,21
1104,2	11,724
1104,6	14,067
1105	11,924
1105,4	14,838
1105,8	13,752
1106,2	10,895
1106,6	6,752
1107	7,038
1107,4	5,233
1107,8	5,187
1108,3	0,867
