Data from Subt2_00042.txt Node
Date: Mon Aug 28 13:18:31 MSK 2023
User: vat
Spectrometer: MAYP114033
Trigger mode: 0
Integration Time (sec): 1,000000E0
Scans to average: 5
Electric dark correction enabled: true
Nonlinearity correction enabled: false
Boxcar width: 3
XAxis mode: Wavelengths
Number of Pixels in Spectrum: 2068
>>>>>Begin Spectral Data<<<<<
199,4	-0,367
199,9	6,853
200,4	2,333
200,8	4,819
201,3	8,733
201,8	11,019
202,2	10,733
202,7	13,676
203,2	11,933
203,6	17,762
204,1	17,676
204,6	18,048
205	18,733
205,5	22,505
206	21,99
206,4	24,219
206,9	23,962
207,4	22,648
207,8	19,105
208,3	21,305
208,8	24,019
209,2	28,019
209,7	28,133
210,2	23,619
210,6	27,276
211,1	27,219
211,5	24,19
212	22,619
212,5	18,562
212,9	18,276
213,4	22,19
213,9	24,905
214,3	26,476
214,8	28,848
215,3	26,019
215,7	28,562
216,2	27,962
216,7	28,505
217,1	27,219
217,6	29,219
218,1	25,99
218,5	26,048
219	26,79
219,5	28,305
219,9	28,762
220,4	24,876
220,9	25,962
221,3	30,562
221,8	34,533
222,3	34,505
222,7	31,933
223,2	30,819
223,6	31,276
224,1	29,19
224,6	24,99
225	20,876
225,5	21,248
226	19,933
226,4	20,305
226,9	19,048
227,4	23,276
227,8	22,705
228,3	22,59
228,8	20,076
229,2	30,562
229,7	31,619
230,2	30,048
230,6	26,505
231,1	25,162
231,5	28,705
232	29,705
232,5	19,39
232,9	15,19
233,4	20,219
233,9	19,476
234,3	23,562
234,8	20,448
235,3	15,819
235,7	15,962
236,2	18,19
236,7	15,105
237,1	24,162
237,6	24,619
238,1	27,676
238,5	35,333
239	32,048
239,4	31,848
239,9	33,448
240,4	22,99
240,8	20,933
241,3	25,933
241,8	22,019
242,2	27,99
242,7	34,59
243,2	34,962
243,6	38,99
244,1	38,076
244,6	35,419
245	36,505
245,5	36,048
245,9	30,733
246,4	29,59
246,9	26,505
247,3	27,419
247,8	22,505
248,3	20,19
248,7	23,362
249,2	20,648
249,7	19,962
250,1	21,59
250,6	25,533
251	24,876
251,5	28,19
252	24,019
252,4	30,933
252,9	29,876
253,4	34,962
253,8	30,076
254,3	29,933
254,8	29,99
255,2	28,39
255,7	26,905
256,1	32,733
256,6	31,733
257,1	30,905
257,5	33,133
258	30,448
258,5	28,219
258,9	27,248
259,4	24,39
259,9	19,59
260,3	22,962
260,8	20,762
261,2	23,562
261,7	25,448
262,2	25,048
262,6	24,505
263,1	29,59
263,6	28,276
264	27,59
264,5	28,505
264,9	29,676
265,4	30,076
265,9	30,019
266,3	25,219
266,8	25,876
267,3	31,562
267,7	27,105
268,2	26,448
268,7	24,705
269,1	23,133
269,6	23,933
270	23,505
270,5	19,162
271	21,705
271,4	25,19
271,9	29,505
272,4	33,876
272,8	33,133
273,3	35,876
273,7	34,648
274,2	34,448
274,7	29,133
275,1	25,305
275,6	24,333
276,1	19,676
276,5	19,562
277	18,99
277,4	17,419
277,9	20,562
278,4	18,448
278,8	20,905
279,3	24,533
279,8	19,962
280,2	21,076
280,7	20,619
281,1	21,819
281,6	23,933
282,1	19,162
282,5	18,705
283	21,048
283,4	23,733
283,9	28,99
284,4	30,39
284,8	29,905
285,3	30,505
285,8	32,505
286,2	30,505
286,7	32,419
287,1	28,39
287,6	24,619
288,1	27,705
288,5	25,648
289	23,448
289,5	25,419
289,9	26,59
290,4	27,133
290,8	29,476
291,3	27,162
291,8	29,362
292,2	32,448
292,7	32,076
293,1	27,762
293,6	23,933
294,1	27,705
294,5	26,19
295	27,619
295,5	28,048
295,9	28,562
296,4	30,876
296,8	33,562
297,3	28,19
297,8	23,79
298,2	25,79
298,7	22,676
299,1	21,848
299,6	20,619
300,1	22,276
300,5	22,39
301	32,79
301,5	27,476
301,9	27,448
302,4	26,333
302,8	26,276
303,3	23,962
303,8	26,505
304,2	21,19
304,7	19,305
305,1	19,619
305,6	23,648
306,1	20,476
306,5	24,59
307	20,019
307,4	20,762
307,9	21,019
308,4	19,848
308,8	19,733
309,3	26,105
309,8	25,105
310,2	27,648
310,7	25,133
311,1	30,048
311,6	33,762
312,1	30,048
312,5	26,476
313	21,705
313,4	23,59
313,9	25,276
314,4	26,505
314,8	24,962
315,3	26,905
315,7	25,762
316,2	30,448
316,7	24,876
317,1	24,533
317,6	20,79
318	20,562
318,5	20,362
319	25,048
319,4	26,219
319,9	28,619
320,3	30,819
320,8	35,476
321,3	33,905
321,7	33,933
322,2	34,305
322,6	29,619
323,1	28,705
323,6	29,333
324	25,59
324,5	29,476
324,9	29,733
325,4	29,362
325,9	32,619
326,3	34,133
326,8	30,905
327,2	33,533
327,7	31,79
328,2	29,476
328,6	25,105
329,1	23,019
329,5	24,505
330	28,162
330,5	26,933
330,9	24,219
331,4	30,019
331,8	34,419
332,3	36,619
332,8	34,99
333,2	34,905
333,7	31,876
334,1	37,448
334,6	32,248
335,1	29,705
335,5	31,276
336	29,448
336,4	30,019
336,9	31,105
337,4	26,076
337,8	27,048
338,3	27,133
338,7	24,019
339,2	29,648
339,7	28,019
340,1	24,79
340,6	25,733
341	25,705
341,5	28,705
342	30,733
342,4	29,762
342,9	31,933
343,3	35,705
343,8	37,333
344,2	39,105
344,7	37,59
345,2	36,819
345,6	34,333
346,1	32,648
346,5	32,362
347	32,59
347,5	29,59
347,9	28,076
348,4	26,933
348,8	22,619
349,3	28,248
349,8	28,619
350,2	30,705
350,7	34,762
351,1	38,962
351,6	47,276
352	58,333
352,5	58,076
353	64,105
353,4	69,276
353,9	77,99
354,3	88,59
354,8	97,648
355,3	112,476
355,7	126,162
356,2	143,876
356,6	169,676
357,1	198,819
357,5	226,648
358	258,848
358,5	297,705
358,9	345,19
359,4	401,39
359,8	461,276
360,3	521,219
360,8	595,076
361,2	681,419
361,7	773,876
362,1	872,876
362,6	982,99
363	1095,648
363,5	1224,048
364	1361,19
364,4	1497,019
364,9	1635,276
365,3	1773,876
365,8	1903,076
366,3	2032,819
366,7	2145,562
367,2	2240,362
367,6	2323,505
368,1	2390,133
368,5	2438,848
369	2470,905
369,5	2472,848
369,9	2458,905
370,4	2423,333
370,8	2374,79
371,3	2305,619
371,7	2230,105
372,2	2141,19
372,7	2045,048
373,1	1945,362
373,6	1846,819
374	1731,962
374,5	1619,705
374,9	1513,362
375,4	1406,419
375,9	1303,219
376,3	1202,819
376,8	1109,99
377,2	1026,733
377,7	951,648
378,2	874,39
378,6	805,133
379,1	748,533
379,5	691,333
380	631,733
380,4	585,476
380,9	541,619
381,4	499,39
381,8	464,505
382,3	428,819
382,7	402,619
383,2	374,762
383,6	350,676
384,1	325,99
384,6	310,448
385	292,333
385,5	270,762
385,9	254,819
386,4	244,562
386,8	228,648
387,3	217,305
387,7	202,676
388,2	187,533
388,7	177,276
389,1	161,619
389,6	154,105
390	149,39
390,5	139,505
390,9	132,333
391,4	120,562
391,9	118,648
392,3	120,248
392,8	114,076
393,2	110,79
393,7	107,19
394,1	101,505
394,6	104,133
395,1	103,19
395,5	94,676
396	90,105
396,4	86,876
396,9	88,076
397,3	85,733
397,8	82,105
398,2	78,276
398,7	81,533
399,2	82,819
399,6	78,905
400,1	77,562
400,5	81,59
401	83,533
401,4	81,848
401,9	84,19
402,4	87,019
402,8	86,733
403,3	83,848
403,7	80,476
404,2	82,676
404,6	83,39
405,1	79,619
405,5	74,676
406	77,705
406,5	82,619
406,9	85,962
407,4	89,219
407,8	97,562
408,3	101,048
408,7	107,99
409,2	112,562
409,6	119,676
410,1	123,933
410,6	131,162
411	136,505
411,5	146,162
411,9	156,705
412,4	166,933
412,8	172,819
413,3	187,048
413,7	198,048
414,2	206,162
414,7	217,019
415,1	229,133
415,6	235,876
416	249,419
416,5	263,162
416,9	277,562
417,4	299,476
417,8	317,219
418,3	332,476
418,8	355,133
419,2	376,876
419,7	391,048
420,1	410,133
420,6	420,733
421	447,876
421,5	476,705
421,9	500,305
422,4	529,248
422,8	559,533
423,3	585,419
423,8	622,819
424,2	648,933
424,7	672,962
425,1	710,048
425,6	743,619
426	779,59
426,5	823,962
426,9	867,133
427,4	909,562
427,9	960,019
428,3	1009,648
428,8	1055,648
429,2	1110,076
429,7	1165,248
430,1	1222,733
430,6	1290,219
431	1356,019
431,5	1422,562
431,9	1501,076
432,4	1576,333
432,8	1654,048
433,3	1741,076
433,8	1826,762
434,2	1916,476
434,7	2015,276
435,1	2115,362
435,6	2224,248
436	2340,562
436,5	2453,19
436,9	2574,133
437,4	2704,99
437,8	2830,333
438,3	2964,362
438,8	3104,105
439,2	3248,162
439,7	3394,133
440,1	3533,962
440,6	3691,933
441	3857,162
441,5	4027,39
441,9	4198,876
442,4	4372,505
442,8	4565,619
443,3	4775,933
443,7	4975,39
444,2	5181,762
444,7	5397,59
445,1	5622,333
445,6	5857,533
446	6094,533
446,5	6333,333
446,9	6582,019
447,4	6835,676
447,8	7081,333
448,3	7335,905
448,7	7600,905
449,2	7863,019
449,6	8138,562
450,1	8419,305
450,6	8717,962
451	9019,248
451,5	9334,219
451,9	9644,59
452,4	9955,848
452,8	10279,676
453,3	10597,933
453,7	10913,333
454,2	11253,905
454,6	11583,419
455,1	11930,333
455,5	12281,819
456	12627,876
456,4	12975,533
456,9	13341,248
457,3	13707,248
457,8	14080,505
458,3	14458,276
458,7	14838,019
459,2	15215,619
459,6	15615,076
460,1	16004,305
460,5	16379,99
461	16764,276
461,4	17143,733
461,9	17529,619
462,3	17912,619
462,8	18301,505
463,2	18692,133
463,7	19079,733
464,1	19461,933
464,6	19838,876
465	20228,848
465,5	20619,362
466	20990,876
466,4	21359,562
466,9	21742,019
467,3	22120,419
467,8	22510,876
468,2	22875,876
468,7	23245,962
469,1	23618,619
469,6	23982,876
470	24345,876
470,5	24712,648
470,9	25056,162
471,4	25400,562
471,8	25728,048
472,3	26065,905
472,7	26397,676
473,2	26731,676
473,6	27050,59
474,1	27354,276
474,5	27658,848
475	27969,305
475,4	28255,533
475,9	28538,219
476,4	28801,19
476,8	29054,39
477,3	29323,648
477,7	29580,819
478,2	29822,819
478,6	30060,876
479,1	30273,79
479,5	30480,362
480	30700,476
480,4	30884,59
480,9	31073,162
481,3	31253,105
481,8	31417,962
482,2	31579,419
482,7	31751,505
483,1	31884,448
483,6	32016,133
484	32128,333
484,5	32243,79
484,9	32348,648
485,4	32449,905
485,8	32507,619
486,3	32574,448
486,7	32641,076
487,2	32714,733
487,6	32753,133
488,1	32781,362
488,5	32808,819
489	32830,619
489,4	32843,562
489,9	32837,362
490,4	32816,933
490,8	32793,99
491,3	32778,505
491,7	32739,848
492,2	32712,248
492,6	32651,848
493,1	32602,933
493,5	32524,19
494	32453,59
494,4	32355,848
494,9	32269,419
495,3	32162,305
495,8	32074,876
496,2	31962,819
496,7	31854,59
497,1	31719,705
497,6	31610,276
498	31496,533
498,5	31355,533
498,9	31200,876
499,4	31065,333
499,8	30909,533
500,3	30780,276
500,7	30622,019
501,2	30445,848
501,6	30300,819
502,1	30137,905
502,5	29965,562
503	29793,162
503,4	29610,819
503,9	29423,648
504,3	29246,39
504,8	29044,133
505,2	28858,819
505,7	28660,876
506,1	28470,562
506,6	28267,876
507	28062,733
507,5	27855,933
507,9	27645,076
508,4	27438,733
508,8	27221,933
509,3	27014,276
509,7	26800,648
510,2	26588,105
510,6	26354,648
511,1	26135,248
511,5	25890,876
512	25661,705
512,4	25414,076
512,9	25185,648
513,3	24940,162
513,8	24725,248
514,2	24493,562
514,7	24267,362
515,1	24028,133
515,6	23806,419
516	23574,905
516,5	23349,333
516,9	23097,648
517,4	22864,762
517,8	22635,162
518,3	22397,905
518,7	22152,419
519,2	21909,762
519,6	21675,276
520,1	21456,962
520,5	21220,505
521	20980,876
521,4	20756,819
521,9	20539,305
522,3	20322,733
522,8	20100,79
523,2	19870,933
523,7	19660,248
524,1	19442,733
524,6	19231,248
525	19023,076
525,5	18802,533
525,9	18591,533
526,4	18388,79
526,8	18175,505
527,3	17979,933
527,7	17783,933
528,2	17573,648
528,6	17376,79
529,1	17177,419
529,5	16973,676
530	16785,676
530,4	16596,962
530,9	16399,705
531,3	16226,448
531,8	16041,362
532,2	15861,676
532,6	15678,79
533,1	15486,933
533,5	15306,533
534	15138,162
534,4	14953,105
534,9	14778,333
535,3	14613,419
535,8	14450,419
536,2	14296,248
536,7	14136,276
537,1	13967,276
537,6	13810,533
538	13661,076
538,5	13508,076
538,9	13342,733
539,4	13189,79
539,8	13038,476
540,3	12894,962
540,7	12751,59
541,2	12609,162
541,6	12462,476
542,1	12328,933
542,5	12189,19
543	12053,505
543,4	11915,276
543,9	11784,476
544,3	11647,619
544,8	11525,419
545,2	11397,676
545,7	11274,476
546,1	11148,076
546,5	11025,362
547	10903,848
547,4	10776,019
547,9	10651,162
548,3	10540,162
548,8	10420,905
549,2	10302,048
549,7	10195,133
550,1	10078,733
550,6	9979,905
551	9875,733
551,5	9772,705
551,9	9678,448
552,4	9583,505
552,8	9482,219
553,3	9399,105
553,7	9303,505
554,2	9201,619
554,6	9104,19
555,1	9003,19
555,5	8912,333
555,9	8821,705
556,4	8731,448
556,8	8638,79
557,3	8561,048
557,7	8486,905
558,2	8412,076
558,6	8331,19
559,1	8254,19
559,5	8167,362
560	8096,362
560,4	8010,333
560,9	7927,162
561,3	7843,362
561,8	7767,705
562,2	7691,019
562,7	7610,533
563,1	7537,933
563,6	7470,248
564	7394,848
564,4	7328,59
564,9	7259,076
565,3	7190,59
565,8	7126,562
566,2	7052,248
566,7	6993,162
567,1	6932,59
567,6	6871,79
568	6812,39
568,5	6748,819
568,9	6686,305
569,4	6632,79
569,8	6564,905
570,3	6498,448
570,7	6436,705
571,1	6379,905
571,6	6324,476
572	6271,105
572,5	6212,648
572,9	6159,562
573,4	6108,333
573,8	6056,876
574,3	6001,676
574,7	5949,848
575,2	5896,162
575,6	5849,876
576,1	5800,276
576,5	5754,362
576,9	5693,905
577,4	5643,419
577,8	5592,819
578,3	5545,448
578,7	5485,476
579,2	5431,476
579,6	5380,048
580,1	5344,619
580,5	5298,59
581	5257,59
581,4	5213,39
581,9	5174,305
582,3	5139,533
582,7	5094,219
583,2	5043,019
583,6	5002,648
584,1	4959,933
584,5	4910,705
585	4863,133
585,4	4813,39
585,9	4778,648
586,3	4748,619
586,8	4698,133
587,2	4655,162
587,6	4615,705
588,1	4585,219
588,5	4544,162
589	4496,648
589,4	4450,162
589,9	4420,19
590,3	4386,39
590,8	4360,733
591,2	4325,733
591,7	4296,105
592,1	4263,905
592,5	4231,676
593	4200,99
593,4	4163,648
593,9	4132,848
594,3	4105,19
594,8	4073,962
595,2	4051,448
595,7	4020,39
596,1	3993,133
596,6	3965,79
597	3936,19
597,4	3902,448
597,9	3875,562
598,3	3853,619
598,8	3827,105
599,2	3797,39
599,7	3778,362
600,1	3750,476
600,6	3722,905
601	3699,276
601,4	3668,362
601,9	3645,105
602,3	3624,59
602,8	3594,905
603,2	3568,019
603,7	3543,333
604,1	3521,59
604,6	3490,933
605	3468,476
605,4	3434,762
605,9	3405,819
606,3	3379,248
606,8	3357,705
607,2	3330,905
607,7	3318,162
608,1	3291,39
608,6	3269,219
609	3248,448
609,4	3233,505
609,9	3213,048
610,3	3193,533
610,8	3169,305
611,2	3150,362
611,7	3129,848
612,1	3104,733
612,6	3077,905
613	3049,59
613,4	3021,276
613,9	2996,19
614,3	2979,133
614,8	2958,362
615,2	2942,39
615,7	2921,248
616,1	2904,476
616,6	2887,39
617	2864,962
617,4	2836,79
617,9	2822,076
618,3	2801,333
618,8	2783,905
619,2	2764,562
619,7	2744,19
620,1	2729,933
620,5	2713,448
621	2692,533
621,4	2671,905
621,9	2644,59
622,3	2626,533
622,8	2607,962
623,2	2587,533
623,6	2570,133
624,1	2552,133
624,5	2536,448
625	2519,133
625,4	2504,105
625,9	2491,076
626,3	2470,048
626,8	2450,562
627,2	2426,619
627,6	2405,019
628,1	2393,419
628,5	2368,762
629	2347,648
629,4	2331,705
629,9	2315,876
630,3	2298,476
630,7	2288,648
631,2	2278,19
631,6	2252,562
632,1	2233,79
632,5	2224,619
633	2208,905
633,4	2191,99
633,8	2173,419
634,3	2147,076
634,7	2140,076
635,2	2131,562
635,6	2110,19
636,1	2091,448
636,5	2083,39
636,9	2062,762
637,4	2047,905
637,8	2034,276
638,3	2019,705
638,7	2005,048
639,2	1987,59
639,6	1971,019
640	1961,276
640,5	1952,276
640,9	1946,59
641,4	1929,419
641,8	1916,79
642,2	1909,905
642,7	1896,762
643,1	1882,19
643,6	1871,505
644	1856,562
644,5	1850,505
644,9	1839,362
645,3	1826,676
645,8	1814,105
646,2	1801,019
646,7	1784,79
647,1	1768,133
647,6	1745,19
648	1731,333
648,4	1725,876
648,9	1713,133
649,3	1703,962
649,8	1695,762
650,2	1687,876
650,6	1679,19
651,1	1664,533
651,5	1645,762
652	1642,419
652,4	1629,962
652,9	1615,676
653,3	1595,876
653,7	1582,762
654,2	1573,648
654,6	1562,505
655,1	1546,276
655,5	1535,362
655,9	1525,076
656,4	1518,133
656,8	1512,562
657,3	1504,876
657,7	1490,733
658,2	1477,962
658,6	1469,019
659	1459,105
659,5	1453,733
659,9	1441,076
660,4	1433,79
660,8	1427,59
661,2	1413,733
661,7	1404,333
662,1	1394,076
662,6	1382,048
663	1370,99
663,4	1358,419
663,9	1349,733
664,3	1339,676
664,8	1327,59
665,2	1319,962
665,6	1307,648
666,1	1296,19
666,5	1287,733
667	1275,876
667,4	1272,562
667,9	1265,219
668,3	1252,905
668,7	1245,905
669,2	1237,933
669,6	1225,648
670,1	1217,019
670,5	1206,705
670,9	1195,733
671,4	1181,933
671,8	1170,276
672,3	1165,962
672,7	1156,333
673,1	1153,59
673,6	1143,962
674	1134,333
674,5	1133,705
674,9	1127,648
675,3	1120,019
675,8	1114,99
676,2	1098,276
676,7	1093,505
677,1	1090,533
677,5	1082,848
678	1076,476
678,4	1067,619
678,9	1061,276
679,3	1058,619
679,7	1050,79
680,2	1042,39
680,6	1033,505
681,1	1025,362
681,5	1018,59
681,9	1010,448
682,4	1002,362
682,8	994,105
683,3	989,933
683,7	981,59
684,1	973,048
684,6	963,562
685	950,99
685,5	941,39
685,9	927,619
686,3	918,905
686,8	913,676
687,2	910,59
687,7	907,705
688,1	907,076
688,5	901,076
689	906,19
689,4	897,219
689,9	890,962
690,3	880,819
690,7	874,562
691,2	869,562
691,6	862,79
692	851,448
692,5	845,276
692,9	841,219
693,4	833,133
693,8	826,076
694,2	815,019
694,7	815,076
695,1	813,419
695,6	811,019
696	803,848
696,4	804,876
696,9	797,305
697,3	794,819
697,8	785,533
698,2	777,048
698,6	767,362
699,1	762,505
699,5	754,705
699,9	747,619
700,4	739,933
700,8	736,276
701,3	726,962
701,7	720,448
702,1	712,276
702,6	703,819
703	699,305
703,5	696,105
703,9	691,876
704,3	691,276
704,8	688,705
705,2	686,819
705,6	683,305
706,1	677,733
706,5	675,048
707	672,905
707,4	666,419
707,8	664,848
708,3	660,619
708,7	658,105
709,2	656,105
709,6	649,876
710	639,276
710,5	637,333
710,9	631,962
711,3	624,648
711,8	617,076
712,2	611,562
712,7	606,933
713,1	603,819
713,5	598,133
714	592,705
714,4	585,733
714,8	589,419
715,3	587,676
715,7	582,162
716,2	577,905
716,6	571,99
717	569,59
717,5	569,048
717,9	558,648
718,3	551,133
718,8	553,076
719,2	550,79
719,7	550,448
720,1	544,648
720,5	545,133
721	540,99
721,4	540,105
721,8	531,419
722,3	531,133
722,7	522,905
723,2	517,19
723,6	506,905
724	506,648
724,5	502,019
724,9	496,819
725,3	488,448
725,8	484,333
726,2	481,619
726,7	476,076
727,1	469,048
727,5	462,676
728	455,933
728,4	451,162
728,8	454,648
729,3	451,79
729,7	449,762
730,1	447,305
730,6	445,619
731	446,762
731,5	444,533
731,9	435,848
732,3	434,019
732,8	433,705
733,2	435,876
733,6	437,19
734,1	430,562
734,5	432,39
734,9	431,133
735,4	423,362
735,8	419,99
736,3	408,99
736,7	401,276
737,1	402,79
737,6	396,505
738	397,562
738,4	398,848
738,9	398,048
739,3	403,533
739,7	406,648
740,2	405,048
740,6	400,419
741,1	390,105
741,5	388,19
741,9	386,733
742,4	385,19
742,8	377,99
743,2	375,933
743,7	377,676
744,1	386,619
744,5	381,762
745	376,676
745,4	369,362
745,8	372,848
746,3	368,79
746,7	364,705
747,2	354,59
747,6	354,79
748	355,248
748,5	354,505
748,9	345,276
749,3	347,162
749,8	343,533
750,2	340,648
750,6	337,476
751,1	334,99
751,5	335,905
751,9	337,876
752,4	339,99
752,8	340,219
753,3	341,305
753,7	341,276
754,1	340,105
754,6	331,99
755	328,762
755,4	322,848
755,9	324,476
756,3	322,733
756,7	318,876
757,2	313,648
757,6	311,648
758	309,933
758,5	304,819
758,9	300,162
759,3	298,705
759,8	294,619
760,2	293,533
760,6	303,876
761,1	300,705
761,5	298,162
761,9	291,019
762,4	288,962
762,8	289,762
763,3	288,505
763,7	279,733
764,1	276,762
764,6	277,448
765	281,79
765,4	277,905
765,9	276,333
766,3	272,133
766,7	272,048
767,2	272,333
767,6	270,933
768	263,676
768,5	260,705
768,9	260,19
769,3	258,019
769,8	249,933
770,2	247,59
770,6	243,619
771,1	242,905
771,5	246,962
771,9	246,133
772,4	248,79
772,8	251,848
773,2	253,648
773,7	251,848
774,1	251,476
774,5	245,19
775	244,133
775,4	241,476
775,8	240,419
776,3	237,448
776,7	236,762
777,1	237,819
777,6	234,419
778	231,59
778,4	230,762
778,9	226,162
779,3	223,848
779,7	220,905
780,2	220,362
780,6	228,105
781	228,276
781,5	226,248
781,9	227,733
782,3	226,762
782,8	231,876
783,2	226,819
783,6	220,133
784,1	218,219
784,5	220,448
784,9	220,076
785,4	218,19
785,8	208,933
786,2	209,762
786,7	211,733
787,1	212,448
787,5	208,99
788	204,333
788,4	205,19
788,8	202,248
789,3	203,162
789,7	196,676
790,1	197,39
790,6	194,905
791	191,019
791,4	188,248
791,9	189,419
792,3	187,276
792,7	189,59
793,2	186,305
793,6	186,905
794	189,619
794,5	187,219
794,9	191,105
795,3	190,876
795,8	190,333
796,2	181,333
796,6	181,676
797,1	181,533
797,5	180,848
797,9	176,848
798,4	174,848
798,8	169,59
799,2	175,619
799,7	171,876
800,1	173,105
800,5	174,505
801	174,076
801,4	172,19
801,8	173,219
802,2	170,133
802,7	169,219
803,1	168,99
803,5	167,562
804	164,733
804,4	166,019
804,8	168,533
805,3	168,848
805,7	167,248
806,1	158,59
806,6	160,105
807	159,333
807,4	157,533
807,9	151,676
808,3	149,533
808,7	149,333
809,2	154,933
809,6	152,676
810	149,676
810,4	149,733
810,9	152,733
811,3	153,962
811,7	148,048
812,2	139,39
812,6	138,619
813	142,59
813,5	140,333
813,9	139,99
814,3	131,876
814,8	136,448
815,2	140,219
815,6	137,019
816,1	138,962
816,5	139,419
816,9	136,905
817,3	141,076
817,8	143,19
818,2	140,276
818,6	141,362
819,1	134,076
819,5	131,533
819,9	130,248
820,4	135,705
820,8	127,99
821,2	128,133
821,7	122,733
822,1	123,219
822,5	124,333
822,9	125,276
823,4	116,248
823,8	118,705
824,2	116,876
824,7	121,048
825,1	122,076
825,5	119,276
826	113,248
826,4	114,419
826,8	112,333
827,3	114,076
827,7	109,762
828,1	109,162
828,5	110,419
829	112,133
829,4	111,362
829,8	112,362
830,3	112,933
830,7	113,076
831,1	112,905
831,6	107,419
832	105,276
832,4	104,162
832,8	103,276
833,3	99,848
833,7	96,162
834,1	95,248
834,6	96,848
835	99,419
835,4	98,876
835,8	97,476
836,3	98,333
836,7	99,562
837,1	97,705
837,6	92,048
838	91,105
838,4	90,962
838,9	92,705
839,3	92,762
839,7	95,933
840,1	99,676
840,6	107,333
841	104,876
841,4	102,762
841,9	100,619
842,3	95,705
842,7	92,133
843,1	86,933
843,6	83,105
844	83,076
844,4	83,762
844,9	85,305
845,3	89,733
845,7	87,99
846,2	88,648
846,6	91,39
847	91,905
847,4	95,905
847,9	94,133
848,3	86,276
848,7	91,333
849,2	89,362
849,6	87,39
850	86,676
850,4	83,619
850,9	84,333
851,3	89,619
851,7	86,362
852,2	83,019
852,6	80,248
853	81,248
853,4	77,933
853,9	77,59
854,3	79,762
854,7	79,59
855,2	80,305
855,6	77,076
856	75,333
856,4	74,99
856,9	73,505
857,3	70,648
857,7	72,276
858,2	72,79
858,6	72,876
859	74,019
859,4	75,619
859,9	73,248
860,3	70,648
860,7	66,105
861,1	73,162
861,6	80,19
862	77,248
862,4	75,305
862,9	79,762
863,3	78,448
863,7	77,39
864,1	69,59
864,6	65,848
865	63,619
865,4	62,876
865,9	60,305
866,3	64,848
866,7	65,076
867,1	65,59
867,6	67,79
868	66,305
868,4	68,962
868,8	64,619
869,3	64,848
869,7	68,39
870,1	66,905
870,6	64,048
871	53,762
871,4	52,448
871,8	56,819
872,3	51,819
872,7	45,933
873,1	43,162
873,5	43,333
874	60,276
874,4	59,848
874,8	56,305
875,3	56,562
875,7	59,276
876,1	62,705
876,5	59,819
877	56,276
877,4	56,048
877,8	55,762
878,2	59,905
878,7	59,933
879,1	59,676
879,5	58,562
879,9	53,819
880,4	48,219
880,8	52,562
881,2	46,676
881,7	45,19
882,1	46,476
882,5	46,705
882,9	51,819
883,4	53,533
883,8	49,79
884,2	50,333
884,6	49,019
885,1	46,505
885,5	45,162
885,9	42,476
886,3	42,39
886,8	45,905
887,2	43,648
887,6	47,305
888	49,562
888,5	46,19
888,9	43,19
889,3	41,333
889,8	37,419
890,2	39,105
890,6	35,933
891	35,448
891,5	40,162
891,9	40,505
892,3	48,533
892,7	45,59
893,2	48,99
893,6	50,105
894	51,476
894,4	52,133
894,9	55,619
895,3	47,648
895,7	51,562
896,1	50,962
896,6	47,648
897	46,933
897,4	47,276
897,8	50,848
898,3	57,305
898,7	55,905
899,1	53,59
899,5	55,676
900	50,705
900,4	44,476
900,8	34,533
901,2	29,505
901,7	32,505
902,1	31,59
902,5	31,876
902,9	35,619
903,4	42,076
903,8	45,705
904,2	45,648
904,6	39,79
905,1	40,876
905,5	38,819
905,9	34,79
906,3	32,848
906,8	33,019
907,2	31,219
907,6	33,619
908	31,305
908,5	25,848
908,9	28,219
909,3	27,819
909,7	28,819
910,2	34,048
910,6	31,076
911	33,762
911,4	39,162
911,9	39,59
912,3	41,648
912,7	41,648
913,1	36,819
913,6	39,933
914	42,962
914,4	41,019
914,8	40,019
915,3	41,076
915,7	44,762
916,1	44,79
916,5	42,705
916,9	38,19
917,4	41,848
917,8	38,076
918,2	40,333
918,6	31,019
919,1	32,648
919,5	35,39
919,9	37,848
920,3	36,562
920,8	44,705
921,2	37,419
921,6	40,733
922	38,79
922,5	36,933
922,9	36,076
923,3	37,648
923,7	35,533
924,2	37,59
924,6	37,248
925	40,276
925,4	39,933
925,8	39,105
926,3	35,933
926,7	32,39
927,1	34,933
927,5	39,248
928	35,048
928,4	34,876
928,8	35,676
929,2	38,962
929,7	40,19
930,1	40,905
930,5	34,419
930,9	38,705
931,3	40,876
931,8	40,819
932,2	35,962
932,6	32,848
933	24,019
933,5	26,248
933,9	25,733
934,3	19,448
934,7	15,905
935,2	14,705
935,6	18,305
936	18,99
936,4	21,076
936,8	22,705
937,3	27,562
937,7	29,59
938,1	34,733
938,5	33,276
939	37,333
939,4	33,448
939,8	27,876
940,2	26,933
940,6	24,219
941,1	22,048
941,5	22,505
941,9	23,076
942,3	25,219
942,8	28,248
943,2	19,962
943,6	21,733
944	20,448
944,4	19,933
944,9	14,933
945,3	15,19
945,7	12,533
946,1	19,762
946,6	18,705
947	21,133
947,4	17,59
947,8	21,762
948,2	26,362
948,7	25,419
949,1	26,248
949,5	22,676
949,9	21,448
950,3	19,876
950,8	17,476
951,2	8,676
951,6	11,476
952	13,105
952,5	16,59
952,9	15,962
953,3	19,59
953,7	20,276
954,1	23,476
954,6	23,305
955	22,248
955,4	24,048
955,8	28,705
956,2	28,99
956,7	31,705
957,1	34,305
957,5	37,905
957,9	35,019
958,3	34,305
958,8	31,505
959,2	33,505
959,6	35,362
960	35,505
960,5	29,39
960,9	33,876
961,3	33,248
961,7	36,076
962,1	36,533
962,6	30,933
963	31,533
963,4	37,705
963,8	35,248
964,2	35,219
964,7	29,39
965,1	29,905
965,5	34,648
965,9	30,648
966,3	30,105
966,8	30,019
967,2	31,533
967,6	30,79
968	27,419
968,4	31,19
968,9	29,133
969,3	24,905
969,7	25,79
970,1	24,276
970,5	26,905
971	32,419
971,4	25,619
971,8	30,533
972,2	30,79
972,6	29,676
973,1	30,676
973,5	31,79
973,9	25,048
974,3	24,99
974,7	21,962
975,2	23,448
975,6	22,076
976	20,419
976,4	19,562
976,8	22,905
977,3	21,505
977,7	19,533
978,1	19,076
978,5	21,848
978,9	24,362
979,4	28,248
979,8	25,562
980,2	30,619
980,6	34,705
981	30,59
981,5	29,848
981,9	28,248
982,3	25,448
982,7	24,619
983,1	20,019
983,6	17,933
984	21,248
984,4	17,19
984,8	15,476
985,2	14,848
985,6	11,79
986,1	11,562
986,5	14,019
986,9	12,676
987,3	14,933
987,7	15,79
988,2	12,705
988,6	17,905
989	21,505
989,4	18,048
989,8	21,905
990,3	20,39
990,7	19,676
991,1	20,619
991,5	18,733
991,9	11,219
992,3	9,962
992,8	4,619
993,2	6,048
993,6	9,362
994	11,962
994,4	13,733
994,9	20,19
995,3	28,162
995,7	31,762
996,1	29,276
996,5	27,019
996,9	31,333
997,4	32,79
997,8	30,962
998,2	30,019
998,6	28,705
999	31,105
999,5	31,162
999,9	26,533
1000,3	24,019
1000,7	26,276
1001,1	23,105
1001,5	27,448
1002	26,762
1002,4	26,733
1002,8	28,448
1003,2	27,162
1003,6	25,219
1004	25,505
1004,5	18,219
1004,9	18,762
1005,3	16,219
1005,7	15,876
1006,1	15,79
1006,6	14,733
1007	12,905
1007,4	16,933
1007,8	18,276
1008,2	25,619
1008,6	24,905
1009,1	26,962
1009,5	29,562
1009,9	31,876
1010,3	36,79
1010,7	37,219
1011,1	32,905
1011,6	26,019
1012	27,448
1012,4	25,905
1012,8	20,79
1013,2	11,79
1013,6	14,448
1014,1	11,819
1014,5	19,162
1014,9	15,362
1015,3	13,39
1015,7	18,248
1016,1	23,79
1016,6	19,476
1017	23,39
1017,4	19,562
1017,8	25,162
1018,2	25,533
1018,6	20,876
1019,1	20,733
1019,5	22,705
1019,9	21,505
1020,3	20,133
1020,7	19,933
1021,1	20,648
1021,6	21,933
1022	20,733
1022,4	19,79
1022,8	17,105
1023,2	18,476
1023,6	15,19
1024,1	19,99
1024,5	24,219
1024,9	26,619
1025,3	30,705
1025,7	34,533
1026,1	33,819
1026,6	37,305
1027	31,733
1027,4	29,848
1027,8	22,019
1028,2	18,248
1028,6	16,648
1029	15,248
1029,5	9,219
1029,9	14,705
1030,3	17,162
1030,7	21,133
1031,1	21,105
1031,5	23,533
1032	28,933
1032,4	36,419
1032,8	28,99
1033,2	22,476
1033,6	20,762
1034	19,19
1034,4	16,419
1034,9	19,448
1035,3	16,362
1035,7	16,476
1036,1	28,905
1036,5	29,105
1036,9	32,333
1037,4	35,676
1037,8	31,933
1038,2	36,048
1038,6	38,219
1039	32,876
1039,4	37,219
1039,8	39,99
1040,3	45,39
1040,7	44,962
1041,1	37,905
1041,5	42,819
1041,9	41,162
1042,3	38,962
1042,7	33,762
1043,2	23,819
1043,6	30,59
1044	32,362
1044,4	31,676
1044,8	29,619
1045,2	27,905
1045,6	32,562
1046,1	35,99
1046,5	29,105
1046,9	28,048
1047,3	23,19
1047,7	21,733
1048,1	21,419
1048,5	19,99
1049	16,848
1049,4	15,848
1049,8	19,733
1050,2	24,248
1050,6	27,79
1051	32,905
1051,4	31,619
1051,9	34,362
1052,3	36,048
1052,7	39,419
1053,1	35,362
1053,5	31,762
1053,9	30,476
1054,3	22,962
1054,8	25,733
1055,2	26,419
1055,6	21,505
1056	24,076
1056,4	25,733
1056,8	25,59
1057,2	26,876
1057,6	26,762
1058,1	29,848
1058,5	24,048
1058,9	22,476
1059,3	21,648
1059,7	18,733
1060,1	23,905
1060,5	23,248
1061	17,305
1061,4	20,819
1061,8	18,762
1062,2	21,448
1062,6	21,705
1063	21,876
1063,4	21,562
1063,8	23,476
1064,3	29,59
1064,7	30,819
1065,1	31,876
1065,5	34,305
1065,9	37,133
1066,3	35,019
1066,7	38,79
1067,1	32,79
1067,6	40,105
1068	42,533
1068,4	45,705
1068,8	41,248
1069,2	42,533
1069,6	37,248
1070	40,762
1070,4	32,248
1070,9	27,762
1071,3	23,162
1071,7	25,99
1072,1	24,362
1072,5	29,362
1072,9	26,99
1073,3	28,133
1073,7	25,905
1074,2	30,533
1074,6	30,105
1075	33,876
1075,4	33,562
1075,8	29,533
1076,2	37,333
1076,6	38,105
1077	37,362
1077,5	38,705
1077,9	32,362
1078,3	25,248
1078,7	31,333
1079,1	24,076
1079,5	26,819
1079,9	30,019
1080,3	27,819
1080,7	31,99
1081,2	36,305
1081,6	30,562
1082	34,476
1082,4	32,048
1082,8	31,076
1083,2	23,419
1083,6	18,762
1084	16,619
1084,5	18,448
1084,9	14,048
1085,3	13,162
1085,7	7,848
1086,1	15,248
1086,5	19,219
1086,9	22,105
1087,3	22,762
1087,7	27,333
1088,2	31,048
1088,6	32,619
1089	32,333
1089,4	33,676
1089,8	27,819
1090,2	30,733
1090,6	26,705
1091	20,79
1091,4	18,59
1091,9	16,362
1092,3	16,162
1092,7	14,619
1093,1	12,962
1093,5	11,39
1093,9	15,676
1094,3	13,933
1094,7	15,133
1095,1	14,705
1095,5	20,19
1096	21,362
1096,4	22,876
1096,8	27,848
1097,2	28,533
1097,6	29,819
1098	25,59
1098,4	26,305
1098,8	23,105
1099,2	22,99
1099,6	18,848
1100,1	20,333
1100,5	16,848
1100,9	16,076
1101,3	16,19
1101,7	15,248
1102,1	17,933
1102,5	16,419
1102,9	14,533
1103,3	16,219
1103,7	19,962
1104,2	18,419
1104,6	21,105
1105	16,962
1105,4	14,705
1105,8	13,676
1106,2	11,562
1106,6	7,419
1107	4,79
1107,4	1,6
1107,8	1,213
1108,3	0,383
