Data from Subt2_00018.txt Node
Date: Mon Aug 28 13:09:11 MSK 2023
User: vat
Spectrometer: MAYP114033
Trigger mode: 0
Integration Time (sec): 1,000000E0
Scans to average: 5
Electric dark correction enabled: true
Nonlinearity correction enabled: false
Boxcar width: 3
XAxis mode: Wavelengths
Number of Pixels in Spectrum: 2068
>>>>>Begin Spectral Data<<<<<
199,4	1,033
199,9	2,713
200,4	2,167
200,8	1,148
201,3	0,976
201,8	1,89
202,2	1,462
202,7	5,719
203,2	7,205
203,6	9,376
204,1	12,176
204,6	14,262
205	14,548
205,5	19,319
206	19,776
206,4	18,062
206,9	16,805
207,4	15,433
207,8	12,376
208,3	13,662
208,8	12,319
209,2	12,862
209,7	13,433
210,2	10,976
210,6	12,919
211,1	12,319
211,5	13,919
212	14,633
212,5	12,033
212,9	12,262
213,4	13,89
213,9	14,719
214,3	15,49
214,8	12,919
215,3	10,119
215,7	8,662
216,2	9,119
216,7	12,748
217,1	9,405
217,6	10,576
218,1	10,548
218,5	12,205
219	15,348
219,5	16,262
219,9	13,062
220,4	13,862
220,9	14,862
221,3	13,462
221,8	15,148
222,3	14,805
222,7	13,976
223,2	16,948
223,6	24,005
224,1	21,748
224,6	19,205
225	16,262
225,5	14,576
226	15,49
226,4	15,633
226,9	8,09
227,4	11,719
227,8	20,262
228,3	21,405
228,8	24,119
229,2	25,119
229,7	22,633
230,2	22,233
230,6	22,09
231,1	15,919
231,5	21,319
232	20,176
232,5	19,09
232,9	14,29
233,4	20,805
233,9	22,405
234,3	26,005
234,8	22,89
235,3	17,233
235,7	13,805
236,2	18,833
236,7	10,576
237,1	14,89
237,6	13,148
238,1	6,805
238,5	13,576
239	14,09
239,4	14,805
239,9	18,433
240,4	8,348
240,8	12,805
241,3	21,376
241,8	21,376
242,2	25,09
242,7	29,319
243,2	28,833
243,6	34,919
244,1	27,348
244,6	26,176
245	24,519
245,5	23,348
245,9	15,119
246,4	15,348
246,9	12,948
247,3	11,633
247,8	7,833
248,3	9,033
248,7	11,205
249,2	15,033
249,7	14,262
250,1	12,548
250,6	16,633
251	14,405
251,5	14,89
252	9,376
252,4	8,89
252,9	6,833
253,4	8,69
253,8	9,319
254,3	11,805
254,8	11,748
255,2	14,548
255,7	16,919
256,1	22,633
256,6	22,519
257,1	19,919
257,5	20,805
258	12,833
258,5	13,919
258,9	11,919
259,4	13,148
259,9	12,69
260,3	14,89
260,8	13,948
261,2	19,319
261,7	17,09
262,2	12,976
262,6	8,29
263,1	7,576
263,6	6,29
264	7,405
264,5	8,176
264,9	10,376
265,4	12,262
265,9	12,805
266,3	14,062
266,8	12,805
267,3	15,748
267,7	13,862
268,2	12,319
268,7	15,033
269,1	13,69
269,6	16,462
270	16,49
270,5	8,805
271	8,862
271,4	8,833
271,9	11,119
272,4	14,548
272,8	14,976
273,3	19,033
273,7	19,776
274,2	21,319
274,7	19,262
275,1	18,005
275,6	15,176
276,1	8,462
276,5	7,548
277	11,976
277,4	12,205
277,9	11,833
278,4	10,776
278,8	13,262
279,3	15,833
279,8	14,09
280,2	6,662
280,7	4,633
281,1	7,833
281,6	10,605
282,1	8,776
282,5	12,176
283	10,576
283,4	15,976
283,9	15,805
284,4	19,29
284,8	16,176
285,3	19,062
285,8	20,319
286,2	21,833
286,7	20,605
287,1	25,976
287,6	19,348
288,1	22,976
288,5	20,805
289	18,948
289,5	21,005
289,9	26,29
290,4	22,233
290,8	22,033
291,3	20,119
291,8	19,348
292,2	21,033
292,7	20,005
293,1	15,662
293,6	14,89
294,1	17,605
294,5	17,976
295	19,576
295,5	15,862
295,9	18,633
296,4	19,89
296,8	18,833
297,3	18,148
297,8	11,376
298,2	11,548
298,7	10,662
299,1	9,176
299,6	8,69
300,1	13,405
300,5	15,033
301	20,462
301,5	15,319
301,9	14,319
302,4	9,005
302,8	7,319
303,3	6,805
303,8	5,49
304,2	3,776
304,7	8,719
305,1	13,405
305,6	20,09
306,1	20,805
306,5	19,633
307	20,519
307,4	21,433
307,9	20,233
308,4	16,633
308,8	17,119
309,3	21,833
309,8	22,376
310,2	22,948
310,7	24,119
311,1	24,89
311,6	30,319
312,1	27,49
312,5	21,319
313	18,633
313,4	20,09
313,9	16,09
314,4	19,176
314,8	13,319
315,3	14,862
315,7	16,948
316,2	17,405
316,7	12,348
317,1	12,805
317,6	9,205
318	10,433
318,5	9,976
319	10,748
319,4	8,462
319,9	6,805
320,3	8,319
320,8	11,148
321,3	11,633
321,7	10,548
322,2	7,519
322,6	6,948
323,1	8,805
323,6	7,748
324	6,69
324,5	5,176
324,9	4,605
325,4	11,462
325,9	19,548
326,3	20,89
326,8	22,405
327,2	22,462
327,7	23,948
328,2	23,348
328,6	18,662
329,1	13,948
329,5	16,719
330	16,205
330,5	17,148
330,9	15,976
331,4	18,319
331,8	23,062
332,3	22,348
332,8	21,348
333,2	21,89
333,7	19,319
334,1	22,69
334,6	21,433
335,1	19,262
335,5	21,519
336	17,519
336,4	21,833
336,9	19,462
337,4	14,319
337,8	15,69
338,3	16,005
338,7	14,748
339,2	20,29
339,7	17,833
340,1	17,89
340,6	16,262
341	14,462
341,5	13,462
342	13,605
342,4	16,776
342,9	18,833
343,3	19,462
343,8	22,976
344,2	23,09
344,7	24,69
345,2	27,062
345,6	21,776
346,1	15,805
346,5	18,033
347	17,576
347,5	15,89
347,9	12,433
348,4	8,633
348,8	7,205
349,3	16,376
349,8	15,69
350,2	16,948
350,7	19,69
351,1	23,376
351,6	32,433
352	35,948
352,5	35,976
353	42,862
353,4	53,348
353,9	57,405
354,3	66,319
354,8	68,49
355,3	81,633
355,7	91,433
356,2	105,29
356,6	121,548
357,1	145,148
357,5	170,148
358	202,976
358,5	235,033
358,9	280,119
359,4	327,576
359,8	379,433
360,3	439,205
360,8	499,605
361,2	572,09
361,7	654,319
362,1	731,319
362,6	817,262
363	909,033
363,5	1010,805
364	1116,662
364,4	1230,148
364,9	1336,062
365,3	1445,833
365,8	1554,776
366,3	1656,862
366,7	1748,862
367,2	1831,576
367,6	1887,348
368,1	1939,948
368,5	1975,948
369	1994,29
369,5	1997,176
369,9	1984,148
370,4	1952,976
370,8	1912,033
371,3	1852,89
371,7	1790,833
372,2	1719,576
372,7	1635,719
373,1	1549,948
373,6	1464,005
374	1370,519
374,5	1284,89
374,9	1193,833
375,4	1103,89
375,9	1018,233
376,3	937,89
376,8	865,005
377,2	801,719
377,7	738,148
378,2	681,862
378,6	628,576
379,1	582,348
379,5	533,376
380	489,262
380,4	449,748
380,9	414,348
381,4	380,862
381,8	356,948
382,3	329,748
382,7	308,376
383,2	287,205
383,6	271,748
384,1	254,09
384,6	242,49
385	227,605
385,5	216,833
385,9	204,976
386,4	188,176
386,8	172,776
387,3	160,748
387,7	143,033
388,2	129,605
388,7	119,405
389,1	106,09
389,6	108,776
390	105,519
390,5	96,89
390,9	93,176
391,4	84,662
391,9	83,348
392,3	87,662
392,8	78,919
393,2	76,348
393,7	72,633
394,1	72,376
394,6	72,833
395,1	70,462
395,5	63,29
396	63,376
396,4	58,262
396,9	59,719
397,3	60,148
397,8	56,348
398,2	52,205
398,7	53,062
399,2	52,805
399,6	54,033
400,1	56,633
400,5	59,833
401	64,719
401,4	70,462
401,9	74,633
402,4	72,348
402,8	74,176
403,3	75,376
403,7	70,119
404,2	72,462
404,6	71,748
405,1	68,576
405,5	72,548
406	70,862
406,5	72,319
406,9	77,148
407,4	79,776
407,8	87,348
408,3	96,09
408,7	99,062
409,2	109,062
409,6	116,805
410,1	117,862
410,6	121,776
411	124,033
411,5	131,576
411,9	141,548
412,4	147,69
412,8	152,948
413,3	169,862
413,7	181,005
414,2	189,262
414,7	197,348
415,1	211,319
415,6	222,433
416	235,862
416,5	249,062
416,9	264,433
417,4	285,376
417,8	299,09
418,3	310,576
418,8	330,69
419,2	351,519
419,7	369,062
420,1	386,548
420,6	400,49
421	429,633
421,5	456,148
421,9	483,005
422,4	513,119
422,8	540,719
423,3	574,148
423,8	605,462
424,2	633,748
424,7	667,005
425,1	699,148
425,6	731,919
426	771,548
426,5	808,548
426,9	856,976
427,4	899,519
427,9	945,119
428,3	995,748
428,8	1044,833
429,2	1090,376
429,7	1148,148
430,1	1198,976
430,6	1260,376
431	1327,576
431,5	1393,633
431,9	1468,548
432,4	1548,148
432,8	1626,119
433,3	1717,462
433,8	1806,433
434,2	1893,69
434,7	1986,633
435,1	2085,319
435,6	2192,748
436	2302,805
436,5	2408,062
436,9	2523,233
437,4	2648,748
437,8	2777,433
438,3	2905,719
438,8	3034,376
439,2	3173,633
439,7	3319,405
440,1	3467,176
440,6	3620,833
441	3780,776
441,5	3941,919
441,9	4117,348
442,4	4289,633
442,8	4478,233
443,3	4679,548
443,7	4874,49
444,2	5078,633
444,7	5303,719
445,1	5521,805
445,6	5745,805
446	5977,576
446,5	6201,433
446,9	6443,233
447,4	6687,548
447,8	6929,662
448,3	7177,148
448,7	7441,062
449,2	7691,176
449,6	7961,919
450,1	8233,69
450,6	8511,348
451	8793,605
451,5	9102,148
451,9	9396,176
452,4	9711,205
452,8	10023,576
453,3	10337,605
453,7	10654,862
454,2	10983,49
454,6	11306,862
455,1	11655,462
455,5	11993,376
456	12331,862
456,4	12677,148
456,9	13029,89
457,3	13376,348
457,8	13728,319
458,3	14076,919
458,7	14441,062
459,2	14813,433
459,6	15182,005
460,1	15561,69
460,5	15938,176
461	16307,462
461,4	16675,605
461,9	17050,719
462,3	17415,348
462,8	17782,748
463,2	18145,49
463,7	18516,605
464,1	18888,976
464,6	19258,005
465	19618,976
465,5	19995,405
466	20371,919
466,4	20734,376
466,9	21105,49
467,3	21467,748
467,8	21831,119
468,2	22192,233
468,7	22530,262
469,1	22863,176
469,6	23226,548
470	23558,376
470,5	23906,576
470,9	24228,548
471,4	24556,119
471,8	24876,519
472,3	25202,862
472,7	25491,148
473,2	25797,69
473,6	26092,605
474,1	26388,948
474,5	26689,976
475	26986,805
475,4	27278,148
475,9	27552,548
476,4	27814,119
476,8	28056,462
477,3	28310,462
477,7	28533,005
478,2	28741,633
478,6	28957,662
479,1	29164,605
479,5	29361,433
480	29556,233
480,4	29741,09
480,9	29902,548
481,3	30076,405
481,8	30226,748
482,2	30379,548
482,7	30517,576
483,1	30663,69
483,6	30779,548
484	30916,805
484,5	31036,433
484,9	31147,833
485,4	31237,633
485,8	31319,919
486,3	31370,148
486,7	31423,205
487,2	31474,633
487,6	31505,233
488,1	31523,319
488,5	31546,89
489	31568,205
489,4	31572,348
489,9	31584,519
490,4	31557,633
490,8	31541,433
491,3	31495,69
491,7	31446,776
492,2	31386,605
492,6	31338,033
493,1	31255,405
493,5	31164,348
494	31071,462
494,4	30994,09
494,9	30908,262
495,3	30810,119
495,8	30700,205
496,2	30591,89
496,7	30494,976
497,1	30384,033
497,6	30263,262
498	30137,69
498,5	30025,919
498,9	29892,348
499,4	29776,776
499,8	29628,262
500,3	29492,633
500,7	29348,862
501,2	29192,29
501,6	29035,29
502,1	28879,662
502,5	28711,433
503	28561,319
503,4	28393,69
503,9	28215,633
504,3	28042,748
504,8	27847,862
505,2	27670,719
505,7	27479,233
506,1	27281,605
506,6	27071,148
507	26866,09
507,5	26667,319
507,9	26471,005
508,4	26258,433
508,8	26044,005
509,3	25820,833
509,7	25622,662
510,2	25412,405
510,6	25199,805
511,1	24986,29
511,5	24762,005
512	24552,405
512,4	24337,69
512,9	24110,205
513,3	23896,919
513,8	23665,548
514,2	23429,262
514,7	23209,862
515,1	22981,348
515,6	22759,062
516	22531,262
516,5	22295,033
516,9	22067,776
517,4	21844,319
517,8	21627,89
518,3	21400,005
518,7	21177,605
519,2	20968,233
519,6	20748,176
520,1	20540,919
520,5	20321,69
521	20093,776
521,4	19879,376
521,9	19658,348
522,3	19426,233
522,8	19224,89
523,2	19003,719
523,7	18812,405
524,1	18599,29
524,6	18376,29
525	18184,148
525,5	17993,233
525,9	17799,833
526,4	17602,119
526,8	17399,862
527,3	17215,233
527,7	17040,348
528,2	16858,49
528,6	16669,348
529,1	16464,348
529,5	16293,805
530	16110,576
530,4	15928,433
530,9	15749,319
531,3	15568,205
531,8	15402,548
532,2	15239,833
532,6	15057,576
533,1	14877,005
533,5	14703,776
534	14543,719
534,4	14374,033
534,9	14209,69
535,3	14045,576
535,8	13897,576
536,2	13752,033
536,7	13604,976
537,1	13446,233
537,6	13299,605
538	13150,233
538,5	13011,89
538,9	12854,519
539,4	12700,119
539,8	12557,833
540,3	12417,862
540,7	12282,548
541,2	12142,748
541,6	11999,719
542,1	11866,005
542,5	11744,948
543	11630,662
543,4	11515,633
543,9	11394,548
544,3	11264,176
544,8	11144,69
545,2	11020,29
545,7	10897,462
546,1	10768,319
546,5	10637,576
547	10519,605
547,4	10410,09
547,9	10308,805
548,3	10203,405
548,8	10107,005
549,2	9997,348
549,7	9892,548
550,1	9780,119
550,6	9678,319
551	9559,29
551,5	9461,548
551,9	9360,205
552,4	9267,233
552,8	9180,548
553,3	9089,348
553,7	9001,148
554,2	8915,833
554,6	8827,862
555,1	8731,233
555,5	8639,119
555,9	8558,605
556,4	8474,176
556,8	8389,89
557,3	8308,633
557,7	8230,148
558,2	8154,348
558,6	8081,176
559,1	8000,662
559,5	7922,376
560	7849,29
560,4	7777,976
560,9	7699,89
561,3	7627,719
561,8	7550,89
562,2	7471,262
562,7	7400,805
563,1	7323,119
563,6	7253,433
564	7191,233
564,4	7123,033
564,9	7057,405
565,3	6989,233
565,8	6923,29
566,2	6864,176
566,7	6799,519
567,1	6735,319
567,6	6665,776
568	6606,719
568,5	6548,948
568,9	6485,719
569,4	6418,805
569,8	6358,29
570,3	6301,548
570,7	6253,976
571,1	6194,405
571,6	6134,29
572	6085,09
572,5	6034,662
572,9	5985,205
573,4	5928,69
573,8	5867,833
574,3	5816,29
574,7	5771,976
575,2	5723,462
575,6	5676,862
576,1	5625,862
576,5	5573,776
576,9	5523,605
577,4	5484,862
577,8	5428,548
578,3	5381,233
578,7	5330,119
579,2	5275,062
579,6	5224,862
580,1	5190,119
580,5	5143,119
581	5106,119
581,4	5060,833
581,9	5019,719
582,3	4986,919
582,7	4948,69
583,2	4900,376
583,6	4856,376
584,1	4821,633
584,5	4780,348
585	4746,319
585,4	4698,748
585,9	4663,805
586,3	4625,776
586,8	4581,862
587,2	4539,376
587,6	4498,262
588,1	4456,148
588,5	4419,662
589	4377,719
589,4	4338,948
589,9	4301,805
590,3	4267,462
590,8	4237,119
591,2	4197,605
591,7	4166,005
592,1	4139,062
592,5	4113,833
593	4095,805
593,4	4063,719
593,9	4034,805
594,3	4006,29
594,8	3975,862
595,2	3948,348
595,7	3919,062
596,1	3885,433
596,6	3859,89
597	3833,69
597,4	3811,633
597,9	3788,49
598,3	3764,119
598,8	3731,89
599,2	3700,948
599,7	3680,319
600,1	3647,319
600,6	3616,433
601	3592,262
601,4	3559,805
601,9	3537,576
602,3	3516,833
602,8	3486,205
603,2	3465,433
603,7	3443,89
604,1	3418,205
604,6	3395,119
605	3371,919
605,4	3342,319
605,9	3314,09
606,3	3289,319
606,8	3261,548
607,2	3238,776
607,7	3216,719
608,1	3194,49
608,6	3174,005
609	3155,862
609,4	3133,348
609,9	3116,576
610,3	3097,748
610,8	3075,262
611,2	3053,462
611,7	3032,348
612,1	3008,69
612,6	2990,662
613	2967,319
613,4	2939,948
613,9	2924,605
614,3	2904,119
614,8	2880,948
615,2	2861,262
615,7	2840,576
616,1	2819,119
616,6	2806,233
617	2782,09
617,4	2761,176
617,9	2743,919
618,3	2721,348
618,8	2698,948
619,2	2683,748
619,7	2664,49
620,1	2645,948
620,5	2622,605
621	2605,976
621,4	2593,976
621,9	2574,205
622,3	2554,633
622,8	2530,262
623,2	2511,348
623,6	2498,319
624,1	2482,405
624,5	2463,119
625	2446,748
625,4	2434,462
625,9	2417,319
626,3	2405,148
626,8	2387,605
627,2	2364,89
627,6	2349,005
628,1	2331,662
628,5	2311,319
629	2298,09
629,4	2273,69
629,9	2254,805
630,3	2232,69
630,7	2212,776
631,2	2199,919
631,6	2179,976
632,1	2162,605
632,5	2153,69
633	2135,862
633,4	2122,948
633,8	2109,748
634,3	2087,633
634,7	2070,948
635,2	2055,062
635,6	2033,662
636,1	2022,748
636,5	2009,576
636,9	1990,433
637,4	1974,976
637,8	1967,233
638,3	1954,205
638,7	1941,09
639,2	1924,548
639,6	1915,89
640	1901,062
640,5	1894,405
640,9	1878,719
641,4	1867,033
641,8	1851,89
642,2	1842,29
642,7	1830,662
643,1	1818,89
643,6	1803,633
644	1793,633
644,5	1782,148
644,9	1774,062
645,3	1758,976
645,8	1744,176
646,2	1735,005
646,7	1723,348
647,1	1705,148
647,6	1686,948
648	1677,119
648,4	1674,405
648,9	1665,205
649,3	1657,49
649,8	1649,576
650,2	1642,405
650,6	1635,805
651,1	1622,576
651,5	1606,033
652	1598,205
652,4	1585,976
652,9	1575,433
653,3	1559,605
653,7	1551,119
654,2	1538,919
654,6	1526,89
655,1	1512,462
655,5	1499,405
655,9	1486,633
656,4	1479,005
656,8	1467,69
657,3	1461,776
657,7	1449,233
658,2	1439,719
658,6	1433,09
659	1425,348
659,5	1415,29
659,9	1407,005
660,4	1394,862
660,8	1388,833
661,2	1375,29
661,7	1362,462
662,1	1352,833
662,6	1346,548
663	1328,433
663,4	1321,09
663,9	1311,062
664,3	1298,319
664,8	1286,433
665,2	1276,376
665,6	1263,662
666,1	1259,148
666,5	1249,89
667	1238,033
667,4	1234,948
667,9	1227,805
668,3	1218,862
668,7	1208,205
669,2	1197,719
669,6	1185,29
670,1	1178,719
670,5	1173,033
670,9	1165,033
671,4	1155,662
671,8	1150,405
672,3	1143,833
672,7	1135,948
673,1	1129,948
673,6	1117,319
674	1107,919
674,5	1102,09
674,9	1092,062
675,3	1085,176
675,8	1078,205
676,2	1068,605
676,7	1063,348
677,1	1056,805
677,5	1049,662
678	1049,319
678,4	1044,148
678,9	1032,662
679,3	1026,119
679,7	1015,119
680,2	1009,29
680,6	1003,548
681,1	992,405
681,5	981,005
681,9	980,176
682,4	969,748
682,8	966,548
683,3	962,319
683,7	951,605
684,1	941,09
684,6	935,548
685	921,319
685,5	910,605
685,9	898,805
686,3	893,49
686,8	883,319
687,2	881,605
687,7	877,662
688,1	877,49
688,5	873,233
689	872,262
689,4	856,805
689,9	852,376
690,3	840,976
690,7	835,776
691,2	832,89
691,6	826,976
692	819,69
692,5	819,376
692,9	815,005
693,4	814,005
693,8	807,805
694,2	795,319
694,7	791,148
695,1	789,833
695,6	788,976
696	782,719
696,4	777,119
696,9	768,205
697,3	764,833
697,8	761,576
698,2	751,862
698,6	736,805
699,1	733,033
699,5	726,633
699,9	721,405
700,4	718,376
700,8	714,833
701,3	704,49
701,7	702,062
702,1	700,89
702,6	693,405
703	686,719
703,5	680,262
703,9	676,033
704,3	676,748
704,8	674,833
705,2	669,919
705,6	671,633
706,1	668,833
706,5	667,29
707	663,919
707,4	659,719
707,8	656,748
708,3	650,49
708,7	645,833
709,2	643,176
709,6	637,976
710	629,862
710,5	622,462
710,9	611,833
711,3	601,605
711,8	592,148
712,2	584,319
712,7	578,719
713,1	575,49
713,5	575,376
714	574,09
714,4	573,033
714,8	567,633
715,3	567,233
715,7	561,69
716,2	560,862
716,6	554,976
717	550,719
717,5	545,462
717,9	546,148
718,3	540,462
718,8	538,033
719,2	529,776
719,7	523,748
720,1	517,519
720,5	519,348
721	514,005
721,4	512,833
721,8	512,348
722,3	508,89
722,7	504,776
723,2	503,948
723,6	495,176
724	489,233
724,5	481,49
724,9	473,748
725,3	464,605
725,8	463,519
726,2	461,433
726,7	457,233
727,1	452,033
727,5	448,776
728	440,319
728,4	443,69
728,8	438,348
729,3	434,605
729,7	431,205
730,1	430,09
730,6	430,405
731	433,233
731,5	429,833
731,9	427,09
732,3	423,719
732,8	420,69
733,2	421,205
733,6	418,176
734,1	414,948
734,5	414,548
734,9	410,748
735,4	404,548
735,8	401,862
736,3	392,719
736,7	389,433
737,1	384,976
737,6	381,148
738	382,776
738,4	384,748
738,9	385,662
739,3	393,89
739,7	391,89
740,2	389,176
740,6	386,576
741,1	381,176
741,5	377,948
741,9	373,09
742,4	370,605
742,8	366,462
743,2	362,033
743,7	359,176
744,1	358,433
744,5	358,548
745	360,233
745,4	353,062
745,8	352,976
746,3	355,662
746,7	348,033
747,2	345,005
747,6	343,176
748	339,09
748,5	335,69
748,9	333,062
749,3	334,89
749,8	340,948
750,2	336,233
750,6	330,748
751,1	328,49
751,5	326,119
751,9	322,633
752,4	320,148
752,8	313,69
753,3	315,148
753,7	312,205
754,1	310,633
754,6	310,062
755	312,005
755,4	308,062
755,9	309,062
756,3	309,633
756,7	309,69
757,2	304,119
757,6	300,576
758	295,319
758,5	291,062
758,9	287,09
759,3	281,948
759,8	281,633
760,2	283,405
760,6	289,748
761,1	288,833
761,5	285,862
761,9	284,033
762,4	286,405
762,8	283,862
763,3	280,205
763,7	273,49
764,1	270,719
764,6	269,005
765	266,262
765,4	262,148
765,9	259,605
766,3	261,233
766,7	258,119
767,2	255,262
767,6	257,919
768	253,49
768,5	251,719
768,9	245,148
769,3	241,262
769,8	237,262
770,2	236,262
770,6	230,948
771,1	228,519
771,5	227,776
771,9	230,633
772,4	227,833
772,8	228,462
773,2	228,919
773,7	226,633
774,1	232,519
774,5	229,405
775	227,748
775,4	224,462
775,8	226,776
776,3	222,262
776,7	222,29
777,1	217,976
777,6	212,005
778	208,748
778,4	212,605
778,9	208,89
779,3	208,433
779,7	204,776
780,2	206,948
780,6	211,919
781	214,148
781,5	210,09
781,9	208,919
782,3	210,062
782,8	217,348
783,2	213,205
783,6	208,376
784,1	207,033
784,5	204,348
784,9	203,29
785,4	203,348
785,8	197,205
786,2	192,262
786,7	194,233
787,1	196,662
787,5	200,576
788	197,462
788,4	195,919
788,8	190,805
789,3	193,49
789,7	191,205
790,1	187,89
790,6	180,376
791	177,862
791,4	177,776
791,9	181,519
792,3	179,776
792,7	180,862
793,2	179,205
793,6	181,462
794	180,29
794,5	175,976
794,9	173,862
795,3	174,29
795,8	174,605
796,2	166,148
796,6	163,805
797,1	163,919
797,5	162,833
797,9	163,948
798,4	161,833
798,8	157,433
799,2	162,69
799,7	165,576
800,1	166,776
800,5	165,233
801	165,376
801,4	163,548
801,8	160,776
802,2	157,09
802,7	151,805
803,1	149,919
803,5	148,719
804	144,405
804,4	146,319
804,8	149,233
805,3	151,605
805,7	152,148
806,1	146,776
806,6	146,49
807	146,862
807,4	142,548
807,9	140,033
808,3	138,233
808,7	140,062
809,2	141,005
809,6	145,09
810	141,233
810,4	138,405
810,9	138,405
811,3	136,462
811,7	129,748
812,2	129,976
812,6	127,462
813	129,576
813,5	134,062
813,9	132,519
814,3	129,005
814,8	131,833
815,2	132,633
815,6	129,576
816,1	131,776
816,5	131,233
816,9	129,633
817,3	133,09
817,8	134,148
818,2	133,062
818,6	130,348
819,1	120,833
819,5	117,633
819,9	117,119
820,4	117,805
820,8	114,519
821,2	114,576
821,7	114,49
822,1	115,462
822,5	116,633
822,9	113,576
823,4	110,176
823,8	108,262
824,2	102,462
824,7	100,519
825,1	103,348
825,5	101,833
826	100,89
826,4	100,005
826,8	97,69
827,3	100,262
827,7	102,09
828,1	99,862
828,5	103,062
829	106,462
829,4	103,976
829,8	109,862
830,3	108,462
830,7	105,776
831,1	102,262
831,6	97,005
832	93,519
832,4	94,519
832,8	86,833
833,3	88,319
833,7	83,69
834,1	88,405
834,6	87,89
835	90,548
835,4	87,633
835,8	86,719
836,3	84,205
836,7	88,262
837,1	84,376
837,6	78,09
838	75,29
838,4	76,29
838,9	82,69
839,3	80,176
839,7	79,633
840,1	81,462
840,6	86,833
841	85,548
841,4	82,976
841,9	78,919
842,3	79,405
842,7	74,976
843,1	69,89
843,6	67,748
844	67,919
844,4	70,176
844,9	67,605
845,3	67,462
845,7	71,605
846,2	75,719
846,6	76,119
847	78,976
847,4	81,748
847,9	83,005
848,3	77,176
848,7	75,662
849,2	72,948
849,6	73,805
850	70,862
850,4	67,09
850,9	65,605
851,3	73,09
851,7	73,633
852,2	69,719
852,6	68,948
853	71,319
853,4	69,205
853,9	68,633
854,3	69,205
854,7	67,433
855,2	68,69
855,6	66,433
856	61,805
856,4	59,262
856,9	61,548
857,3	59,262
857,7	60,748
858,2	61,09
858,6	60,119
859	60,919
859,4	62,176
859,9	59,233
860,3	59,233
860,7	56,633
861,1	60,119
861,6	59,89
862	60,976
862,4	59,319
862,9	60,776
863,3	59,176
863,7	61,405
864,1	58,976
864,6	59,319
865	55,462
865,4	59,948
865,9	56,833
866,3	56,262
866,7	49,833
867,1	49,69
867,6	52,862
868	51,09
868,4	49,548
868,8	49,033
869,3	53,805
869,7	59,576
870,1	61,576
870,6	56,376
871	85,033
871,4	86,548
871,8	90,605
872,3	85,748
872,7	80,205
873,1	73,862
873,5	74,519
874	49,519
874,4	44,233
874,8	45,176
875,3	44,176
875,7	47,662
876,1	54,633
876,5	54,862
877	52,69
877,4	54,519
877,8	49,262
878,2	50,633
878,7	52,09
879,1	47,233
879,5	44,205
879,9	43,148
880,4	39,776
880,8	43,49
881,2	39,348
881,7	37,062
882,1	34,748
882,5	37,033
882,9	38,148
883,4	44,89
883,8	43,833
884,2	42,748
884,6	40,919
885,1	38,205
885,5	35,89
885,9	32,205
886,3	29,519
886,8	30,205
887,2	32,462
887,6	36,062
888	41,119
888,5	42,005
888,9	41,033
889,3	38,319
889,8	37,862
890,2	36,033
890,6	36,433
891	36,405
891,5	40,005
891,9	39,948
892,3	43,233
892,7	40,776
893,2	41,719
893,6	34,919
894	33,919
894,4	29,176
894,9	31,548
895,3	28,262
895,7	29,462
896,1	27,519
896,6	31,948
897	33,576
897,4	35,29
897,8	39,005
898,3	38,09
898,7	35,862
899,1	38,633
899,5	36,948
900	33,69
900,4	29,49
900,8	18,948
901,2	16,862
901,7	18,49
902,1	17,69
902,5	18,719
902,9	19,319
903,4	20,548
903,8	25,348
904,2	28,748
904,6	24,09
905,1	24,405
905,5	22,376
905,9	21,119
906,3	22,062
906,8	22,948
907,2	19,462
907,6	24,69
908	24,576
908,5	20,548
908,9	23,462
909,3	23,348
909,7	23,719
910,2	24,348
910,6	21,176
911	21,948
911,4	27,005
911,9	23,948
912,3	28,348
912,7	30,69
913,1	33,719
913,6	32,69
914	35,29
914,4	35,633
914,8	38,29
915,3	34,262
915,7	34,748
916,1	32,433
916,5	32,719
916,9	29,348
917,4	26,89
917,8	21,776
918,2	24,348
918,6	19,89
919,1	21,976
919,5	26,062
919,9	27,319
920,3	30,062
920,8	33,862
921,2	31,433
921,6	31,89
922	27,862
922,5	24,405
922,9	23,719
923,3	23,719
923,7	23,919
924,2	23,29
924,6	25,748
925	30,205
925,4	29,633
925,8	26,176
926,3	25,205
926,7	25,776
927,1	26,119
927,5	24,519
928	22,376
928,4	18,29
928,8	23,29
929,2	21,205
929,7	23,462
930,1	23,205
930,5	21,89
930,9	21,376
931,3	30,233
931,8	26,319
932,2	26,805
932,6	18,862
933	16,49
933,5	13,833
933,9	15,748
934,3	8,748
934,7	11,405
935,2	10,319
935,6	11,49
936	10,805
936,4	15,148
936,8	14,376
937,3	19,033
937,7	17,976
938,1	22,605
938,5	25,119
939	24,548
939,4	22,833
939,8	19,833
940,2	17,748
940,6	16,405
941,1	11,205
941,5	11,433
941,9	14,69
942,3	12,405
942,8	14,748
943,2	9,919
943,6	11,09
944	11,919
944,4	13,576
944,9	12,005
945,3	14,633
945,7	14,748
946,1	16,005
946,6	12,748
947	15,176
947,4	11,176
947,8	14,176
948,2	17,433
948,7	18,433
949,1	22,119
949,5	21,319
949,9	18,062
950,3	17,319
950,8	11,376
951,2	9,262
951,6	10,376
952	10,633
952,5	8,462
952,9	8,119
953,3	9,462
953,7	10,062
954,1	12,662
954,6	7,89
955	5,919
955,4	10,89
955,8	16,519
956,2	15,462
956,7	20,405
957,1	18,405
957,5	22,376
957,9	20,833
958,3	18,948
958,8	16,376
959,2	19,205
959,6	22,69
960	20,576
960,5	16,519
960,9	19,462
961,3	22,319
961,7	23,748
962,1	21,119
962,6	19,376
963	23,319
963,4	29,948
963,8	27,09
964,2	26,433
964,7	22,548
965,1	26,605
965,5	24,805
965,9	19,805
966,3	17,805
966,8	20,233
967,2	21,605
967,6	20,69
968	18,119
968,4	21,662
968,9	22,519
969,3	20,633
969,7	20,09
970,1	16,719
970,5	16,49
971	18,205
971,4	10,062
971,8	11,519
972,2	12,119
972,6	11,776
973,1	9,348
973,5	12,319
973,9	7,405
974,3	11,376
974,7	7,919
975,2	3,176
975,6	2,776
976	6,233
976,4	2,776
976,8	5,919
977,3	4,205
977,7	3,833
978,1	5,862
978,5	7,833
978,9	7,49
979,4	11,89
979,8	7,862
980,2	7,833
980,6	13,005
981	8,09
981,5	7,919
981,9	7,062
982,3	5,49
982,7	10,29
983,1	8,69
983,6	7,405
984	14,548
984,4	10,976
984,8	9,662
985,2	10,348
985,6	8,776
986,1	8,348
986,5	6,748
986,9	2,548
987,3	4,548
987,7	4,405
988,2	-0,338
988,6	-0,138
989	4,405
989,4	2,348
989,8	4,748
990,3	7,062
990,7	10,205
991,1	13,662
991,5	13,09
991,9	9,719
992,3	9,805
992,8	9,205
993,2	5,405
993,6	4,09
994	3,805
994,4	8,89
994,9	10,548
995,3	16,548
995,7	17,09
996,1	18,548
996,5	16,29
996,9	23,176
997,4	18,776
997,8	17,405
998,2	13,576
998,6	12,805
999	12,89
999,5	17,719
999,9	11,348
1000,3	10,348
1000,7	12,433
1001,1	11,976
1001,5	17,005
1002	18,233
1002,4	14,519
1002,8	16,519
1003,2	14,976
1003,6	14,748
1004	18,376
1004,5	14,833
1004,9	12,376
1005,3	12,09
1005,7	11,69
1006,1	13,205
1006,6	13,633
1007	8,519
1007,4	5,176
1007,8	7,462
1008,2	12,833
1008,6	13,29
1009,1	12,119
1009,5	14,976
1009,9	17,519
1010,3	25,062
1010,7	23,719
1011,1	18,976
1011,6	16,776
1012	17,605
1012,4	15,49
1012,8	11,919
1013,2	7,405
1013,6	11,062
1014,1	8,519
1014,5	8,719
1014,9	11,462
1015,3	14,09
1015,7	16,633
1016,1	14,49
1016,6	13,605
1017	16,662
1017,4	14,233
1017,8	16,69
1018,2	10,805
1018,6	10,662
1019,1	14,376
1019,5	14,062
1019,9	14,433
1020,3	16,49
1020,7	14,005
1021,1	11,748
1021,6	12,033
1022	11,462
1022,4	10,29
1022,8	6,662
1023,2	6,805
1023,6	7,29
1024,1	10,776
1024,5	14,348
1024,9	16,433
1025,3	18,405
1025,7	24,662
1026,1	24,805
1026,6	24,719
1027	23,348
1027,4	19,005
1027,8	13,948
1028,2	12,976
1028,6	10,09
1029	6,005
1029,5	3,405
1029,9	4,919
1030,3	7,405
1030,7	9,89
1031,1	11,49
1031,5	12,29
1032	17,748
1032,4	25,062
1032,8	22,262
1033,2	18,376
1033,6	15,519
1034	11,748
1034,4	11,662
1034,9	14,062
1035,3	8,148
1035,7	10,662
1036,1	16,919
1036,5	18,262
1036,9	18,719
1037,4	18,176
1037,8	14,376
1038,2	19,576
1038,6	16,919
1039	13,662
1039,4	19,89
1039,8	23,89
1040,3	23,605
1040,7	24,119
1041,1	14,519
1041,5	17,748
1041,9	20,948
1042,3	15,976
1042,7	13,176
1043,2	16,462
1043,6	17,49
1044	22,69
1044,4	26,719
1044,8	25,348
1045,2	26,033
1045,6	27,376
1046,1	26,348
1046,5	23,433
1046,9	24,919
1047,3	22,205
1047,7	17,776
1048,1	13,519
1048,5	13,89
1049	10,519
1049,4	9,548
1049,8	10,976
1050,2	6,405
1050,6	6,89
1051	10,548
1051,4	5,719
1051,9	8,233
1052,3	13,033
1052,7	9,833
1053,1	11,548
1053,5	13,49
1053,9	14,519
1054,3	9,776
1054,8	9,233
1055,2	6,262
1055,6	5,262
1056	5,976
1056,4	5,69
1056,8	4,033
1057,2	10,89
1057,6	16,233
1058,1	18,748
1058,5	16,805
1058,9	16,69
1059,3	17,376
1059,7	16,576
1060,1	16,405
1060,5	11,09
1061	9,948
1061,4	9,233
1061,8	8,976
1062,2	8,976
1062,6	12,405
1063	11,148
1063,4	12,519
1063,8	9,348
1064,3	13,833
1064,7	16,119
1065,1	16,833
1065,5	18,633
1065,9	19,862
1066,3	18,69
1066,7	25,548
1067,1	21,605
1067,6	22,376
1068	24,719
1068,4	19,776
1068,8	23,376
1069,2	21,69
1069,6	14,233
1070	18,776
1070,4	14,805
1070,9	15,09
1071,3	17,376
1071,7	11,462
1072,1	8,919
1072,5	15,348
1072,9	13,119
1073,3	14,376
1073,7	12,833
1074,2	12,633
1074,6	13,405
1075	17,062
1075,4	14,69
1075,8	16,09
1076,2	20,805
1076,6	19,519
1077	21,805
1077,5	22,433
1077,9	17,605
1078,3	15,148
1078,7	11,519
1079,1	8,576
1079,5	6,433
1079,9	9,49
1080,3	8,976
1080,7	19,062
1081,2	17,948
1081,6	18,69
1082	21,662
1082,4	22,348
1082,8	17,205
1083,2	14,919
1083,6	5,148
1084	4,319
1084,5	6,805
1084,9	-0,624
1085,3	-0,938
1085,7	-2,167
1086,1	5,519
1086,5	8,405
1086,9	17,805
1087,3	15,805
1087,7	21,519
1088,2	26,976
1088,6	30,205
1089	28,205
1089,4	30,89
1089,8	25,005
1090,2	24,576
1090,6	22,119
1091	14,005
1091,4	13,49
1091,9	12,433
1092,3	14,462
1092,7	13,633
1093,1	12,89
1093,5	13,233
1093,9	17,262
1094,3	13,319
1094,7	13,605
1095,1	13,748
1095,5	13,69
1096	13,519
1096,4	16,548
1096,8	17,748
1097,2	17,233
1097,6	19,49
1098	15,376
1098,4	17,119
1098,8	21,462
1099,2	17,605
1099,6	15,719
1100,1	15,948
1100,5	12,376
1100,9	12,605
1101,3	11,976
1101,7	9,576
1102,1	13,69
1102,5	9,948
1102,9	8,29
1103,3	8,548
1103,7	10,405
1104,2	8,405
1104,6	8,176
1105	3,405
1105,4	6,205
1105,8	8,062
1106,2	6,433
1106,6	3,748
1107	3,09
1107,4	1,9
1107,8	1,633
1108,3	0,633
