Data from Subt2_00051.txt Node
Date: Mon Aug 28 13:20:56 MSK 2023
User: vat
Spectrometer: MAYP114033
Trigger mode: 0
Integration Time (sec): 1,000000E0
Scans to average: 5
Electric dark correction enabled: true
Nonlinearity correction enabled: false
Boxcar width: 3
XAxis mode: Wavelengths
Number of Pixels in Spectrum: 2068
>>>>>Begin Spectral Data<<<<<
199,4	0,05
199,9	2,96
200,4	4,5
200,8	8,057
201,3	8,486
201,8	10,171
202,2	11,971
202,7	16,171
203,2	18
203,6	17,6
204,1	17,143
204,6	23,2
205	25
205,5	28,943
206	25,914
206,4	28,743
206,9	34,8
207,4	38,057
207,8	34,057
208,3	36,171
208,8	39,114
209,2	44,6
209,7	42,086
210,2	32,4
210,6	31,4
211,1	32,771
211,5	32,543
212	28,2
212,5	27,429
212,9	25,257
213,4	33,914
213,9	31,657
214,3	28,914
214,8	26,8
215,3	28,114
215,7	31,143
216,2	33,714
216,7	32,971
217,1	34,371
217,6	35,743
218,1	33,057
218,5	33,486
219	30,886
219,5	34,657
219,9	33,4
220,4	30,171
220,9	30,886
221,3	34,8
221,8	33,029
222,3	33,943
222,7	30,914
223,2	28,857
223,6	32,086
224,1	35,571
224,6	35,571
225	37,257
225,5	34,057
226	33,286
226,4	36,057
226,9	34,571
227,4	33,829
227,8	32,314
228,3	30,543
228,8	32,543
229,2	37,486
229,7	37,314
230,2	34,343
230,6	30
231,1	30,743
231,5	32,971
232	33,743
232,5	29,457
232,9	25,743
233,4	30,257
233,9	35,543
234,3	34,714
234,8	34,486
235,3	25,657
235,7	21,6
236,2	20,714
236,7	17,229
237,1	19,314
237,6	20,543
238,1	16,829
238,5	26,457
239	24,057
239,4	29,257
239,9	30,457
240,4	25,4
240,8	25
241,3	33,257
241,8	30,714
242,2	36,086
242,7	37,914
243,2	38,543
243,6	42,257
244,1	42,314
244,6	41,6
245	45,829
245,5	48,171
245,9	44,114
246,4	40,8
246,9	39,371
247,3	38,8
247,8	33,2
248,3	29,914
248,7	30,971
249,2	28,229
249,7	32,2
250,1	28,114
250,6	28,771
251	26,514
251,5	28,857
252	22,6
252,4	24,629
252,9	23,657
253,4	30,6
253,8	31,314
254,3	35,914
254,8	33,543
255,2	33,686
255,7	37,629
256,1	41
256,6	36,686
257,1	31,114
257,5	26,029
258	19,029
258,5	22,6
258,9	19,457
259,4	18,6
259,9	15,571
260,3	17,829
260,8	20,143
261,2	25,686
261,7	22,4
262,2	27,6
262,6	25,686
263,1	29,8
263,6	30,143
264	31,714
264,5	30,943
264,9	36,571
265,4	28,429
265,9	30,6
266,3	32,514
266,8	33,114
267,3	30,029
267,7	29,314
268,2	25,514
268,7	27,429
269,1	26,286
269,6	27,429
270	29,514
270,5	32,314
271	33,486
271,4	37,114
271,9	41,714
272,4	44,371
272,8	43,429
273,3	42,771
273,7	38,886
274,2	41
274,7	34,657
275,1	33,829
275,6	32,971
276,1	28,857
276,5	25,286
277	28,029
277,4	30,2
277,9	34,714
278,4	33,286
278,8	34,057
279,3	33,486
279,8	35,343
280,2	34,6
280,7	28,486
281,1	24,943
281,6	24,2
282,1	20,971
282,5	19,971
283	18,114
283,4	18,971
283,9	20,543
284,4	22,457
284,8	21,857
285,3	24,514
285,8	28,057
286,2	30,486
286,7	30,657
287,1	30,943
287,6	28,143
288,1	32,514
288,5	27,171
289	28,829
289,5	28
289,9	29,371
290,4	30,371
290,8	34,486
291,3	34,171
291,8	41,886
292,2	35,514
292,7	38,686
293,1	39,2
293,6	33,714
294,1	33,714
294,5	31,829
295	27,143
295,5	32,771
295,9	29,686
296,4	30,314
296,8	32,943
297,3	31,657
297,8	27,057
298,2	27,371
298,7	27,114
299,1	26,514
299,6	23,257
300,1	28,057
300,5	27,429
301	31,257
301,5	25,371
301,9	21,229
302,4	19,314
302,8	19,2
303,3	16,371
303,8	17,457
304,2	12,771
304,7	16,8
305,1	17,2
305,6	23,171
306,1	22,743
306,5	22,057
307	21,714
307,4	28,229
307,9	29,771
308,4	28,8
308,8	27,886
309,3	32,371
309,8	31,914
310,2	34,686
310,7	35,4
311,1	35,371
311,6	38,143
312,1	32,943
312,5	25,829
313	25,686
313,4	26,514
313,9	22,257
314,4	22,943
314,8	20,343
315,3	23,714
315,7	29,257
316,2	32,371
316,7	26,543
317,1	30,086
317,6	27,714
318	29,8
318,5	32,771
319	34,8
319,4	34,571
319,9	31,657
320,3	33,486
320,8	38,343
321,3	36,943
321,7	34,886
322,2	31,914
322,6	27,571
323,1	33,829
323,6	30,314
324	29,286
324,5	32,514
324,9	33,314
325,4	33,086
325,9	36,429
326,3	32,629
326,8	32,086
327,2	32,971
327,7	31,114
328,2	29,429
328,6	29,457
329,1	28,714
329,5	31,743
330	34,429
330,5	31,514
330,9	29,343
331,4	31,4
331,8	34,943
332,3	35,057
332,8	33,2
333,2	32,657
333,7	33,971
334,1	38,2
334,6	38,829
335,1	37,543
335,5	41,771
336	43,4
336,4	43,343
336,9	38,4
337,4	37,886
337,8	38,486
338,3	32,371
338,7	27,514
339,2	27,714
339,7	28,343
340,1	27,829
340,6	25,629
341	22,857
341,5	27,257
342	27,486
342,4	33,6
342,9	33
343,3	38,514
343,8	39,486
344,2	46,257
344,7	48,314
345,2	50,114
345,6	48,943
346,1	45,8
346,5	40,8
347	40,286
347,5	34,143
347,9	29,971
348,4	33,657
348,8	27,029
349,3	34,171
349,8	41,343
350,2	40,743
350,7	43,286
351,1	49,686
351,6	51,143
352	56,886
352,5	57,657
353	63,6
353,4	79,143
353,9	88,057
354,3	101,429
354,8	114,657
355,3	131,914
355,7	151,914
356,2	173,343
356,6	200,743
357,1	236,371
357,5	271,229
358	313,314
358,5	364,457
358,9	418,6
359,4	483,229
359,8	549,343
360,3	627,743
360,8	716,057
361,2	816,086
361,7	926,943
362,1	1048,629
362,6	1178,143
363	1324,571
363,5	1477,657
364	1642,229
364,4	1814,429
364,9	1982,914
365,3	2152,314
365,8	2316,714
366,3	2466,743
366,7	2601,143
367,2	2719,543
367,6	2816,657
368,1	2894,057
368,5	2948,343
369	2974,8
369,5	2982
369,9	2967,857
370,4	2929,343
370,8	2865,714
371,3	2786,171
371,7	2692,2
372,2	2590,171
372,7	2475,6
373,1	2351,743
373,6	2220,2
374	2089,286
374,5	1957,057
374,9	1827,457
375,4	1698,143
375,9	1570,914
376,3	1456,829
376,8	1346,314
377,2	1244,743
377,7	1149,686
378,2	1056,829
378,6	971,743
379,1	893,971
379,5	819,629
380	751,6
380,4	688,229
380,9	634,171
381,4	587,714
381,8	549,114
382,3	510,314
382,7	476,143
383,2	444,171
383,6	417,143
384,1	391,057
384,6	368,057
385	344,143
385,5	322,143
385,9	301,914
386,4	285,257
386,8	268,971
387,3	250,171
387,7	232,371
388,2	212,886
388,7	197,829
389,1	176,029
389,6	166,2
390	156,971
390,5	148,543
390,9	139,257
391,4	130,971
391,9	130,057
392,3	133,343
392,8	128,486
393,2	119,657
393,7	112,286
394,1	108,486
394,6	109,257
395,1	102,514
395,5	96,629
396	93,057
396,4	93,143
396,9	92,6
397,3	91,229
397,8	86,029
398,2	84,857
398,7	86,457
399,2	82,457
399,6	78,514
400,1	78,771
400,5	79,629
401	83,314
401,4	81,743
401,9	76,914
402,4	78,286
402,8	79,229
403,3	80,057
403,7	77,429
404,2	77,571
404,6	76,371
405,1	80,371
405,5	79
406	77,714
406,5	80
406,9	79,686
407,4	82,829
407,8	92,286
408,3	96,057
408,7	103,143
409,2	110,686
409,6	113,429
410,1	119,4
410,6	123,657
411	126,2
411,5	134,086
411,9	144,971
412,4	154,771
412,8	163,6
413,3	177,086
413,7	186,886
414,2	197,714
414,7	206,657
415,1	211,829
415,6	217,314
416	226,171
416,5	236,571
416,9	250,657
417,4	263,8
417,8	276,429
418,3	293,343
418,8	316,829
419,2	335,6
419,7	352,943
420,1	368,914
420,6	382,486
421	402,543
421,5	422
421,9	442,829
422,4	465,6
422,8	492,371
423,3	516,229
423,8	545,457
424,2	572,029
424,7	598,057
425,1	624,771
425,6	654,343
426	684,943
426,5	718,229
426,9	760,171
427,4	798,629
427,9	840,2
428,3	879,286
428,8	925,171
429,2	967,514
429,7	1017,257
430,1	1061,229
430,6	1115,229
431	1176,314
431,5	1232,543
431,9	1291,229
432,4	1354,314
432,8	1423,886
433,3	1503
433,8	1581,686
434,2	1650,914
434,7	1737,486
435,1	1826,2
435,6	1919,086
436	2008,514
436,5	2095,686
436,9	2197,6
437,4	2307,914
437,8	2410,543
438,3	2519,543
438,8	2637,714
439,2	2766,171
439,7	2899,914
440,1	3023,114
440,6	3156,657
441	3305,514
441,5	3451,4
441,9	3601,8
442,4	3747,886
442,8	3904,371
443,3	4065,8
443,7	4233,771
444,2	4401,343
444,7	4583,829
445,1	4768,914
445,6	4964,229
446	5161,686
446,5	5373,343
446,9	5571,771
447,4	5788,229
447,8	6006,657
448,3	6221,686
448,7	6434,886
449,2	6653
449,6	6876,543
450,1	7126,6
450,6	7361,714
451	7602,2
451,5	7857,743
451,9	8125
452,4	8393,457
452,8	8658,829
453,3	8922,2
453,7	9201,371
454,2	9481,6
454,6	9760,686
455,1	10042,6
455,5	10325,886
456	10614,171
456,4	10916,771
456,9	11220,229
457,3	11517,086
457,8	11821,371
458,3	12130,429
458,7	12443,914
459,2	12765,171
459,6	13079,629
460,1	13389,429
460,5	13709,4
461	14025,086
461,4	14345,657
461,9	14661,686
462,3	14976,8
462,8	15290,914
463,2	15609,657
463,7	15925,114
464,1	16238,086
464,6	16559,857
465	16877,6
465,5	17189,114
466	17505,029
466,4	17816,486
466,9	18134,971
467,3	18456,314
467,8	18759,857
468,2	19058,371
468,7	19369,314
469,1	19669,514
469,6	19965,514
470	20258,6
470,5	20537,857
470,9	20821,171
471,4	21102,486
471,8	21371,457
472,3	21635,4
472,7	21897,457
473,2	22168,343
473,6	22437,629
474,1	22674,771
474,5	22932,571
475	23172,571
475,4	23415,4
475,9	23646,086
476,4	23848,257
476,8	24043,971
477,3	24275,229
477,7	24469,314
478,2	24668,114
478,6	24859,857
479,1	25047,429
479,5	25227,057
480	25399,829
480,4	25541,914
480,9	25701,8
481,3	25842,171
481,8	25968,2
482,2	26087,486
482,7	26201,743
483,1	26324,257
483,6	26438,886
484	26522,914
484,5	26611,457
484,9	26694,486
485,4	26758,657
485,8	26837,743
486,3	26886
486,7	26917,714
487,2	26963,629
487,6	26988,8
488,1	27009,743
488,5	27039,257
489	27028,829
489,4	27035,057
489,9	27038,4
490,4	27017,457
490,8	27008,543
491,3	26982,057
491,7	26942,143
492,2	26912,629
492,6	26849,657
493,1	26781,857
493,5	26722,714
494	26646,6
494,4	26583,714
494,9	26505,543
495,3	26422,343
495,8	26349,943
496,2	26280,743
496,7	26189,486
497,1	26088,143
497,6	25979,8
498	25880,514
498,5	25770,829
498,9	25655,686
499,4	25536,857
499,8	25420,829
500,3	25317,743
500,7	25179,543
501,2	25050,914
501,6	24912,743
502,1	24771,171
502,5	24632,143
503	24492,829
503,4	24340,886
503,9	24195,143
504,3	24046,857
504,8	23895,314
505,2	23739,114
505,7	23587,971
506,1	23426,143
506,6	23259,629
507	23101,143
507,5	22930,571
507,9	22761,714
508,4	22586,543
508,8	22394,857
509,3	22219,514
509,7	22039,029
510,2	21857,971
510,6	21665,657
511,1	21483,857
511,5	21300,229
512	21116,829
512,4	20923,943
512,9	20736,657
513,3	20541,571
513,8	20361,257
514,2	20176,029
514,7	19993,686
515,1	19808,971
515,6	19624,371
516	19430,2
516,5	19236,057
516,9	19043,857
517,4	18846,4
517,8	18658,714
518,3	18460,971
518,7	18260,2
519,2	18081,771
519,6	17896,457
520,1	17709
520,5	17514,943
521	17314,686
521,4	17125,6
521,9	16948,371
522,3	16750,971
522,8	16578,171
523,2	16396,543
523,7	16222,629
524,1	16051,057
524,6	15872,943
525	15689,886
525,5	15528,114
525,9	15353,743
526,4	15181,4
526,8	15004,2
527,3	14827,629
527,7	14661,4
528,2	14490,914
528,6	14324,914
529,1	14154,971
529,5	13989,057
530	13846,4
530,4	13690,257
530,9	13541
531,3	13397,229
531,8	13229,114
532,2	13079,029
532,6	12924,629
533,1	12759,257
533,5	12621,486
534	12473,8
534,4	12322,2
534,9	12192,086
535,3	12048,657
535,8	11916,8
536,2	11786,543
536,7	11647,629
537,1	11509,743
537,6	11376,6
538	11234,857
538,5	11110,743
538,9	10970,771
539,4	10840,086
539,8	10721,057
540,3	10589,829
540,7	10474,686
541,2	10363,229
541,6	10244
542,1	10132,743
542,5	10023,571
543	9902,257
543,4	9798,857
543,9	9685,257
544,3	9578,457
544,8	9466,514
545,2	9364,629
545,7	9256,771
546,1	9152,171
546,5	9052,2
547	8955,486
547,4	8847,429
547,9	8759,314
548,3	8668,257
548,8	8575,6
549,2	8479,571
549,7	8388,571
550,1	8294
550,6	8209,057
551	8118,343
551,5	8022,314
551,9	7931,257
552,4	7850,714
552,8	7772,486
553,3	7686,657
553,7	7602,257
554,2	7524,286
554,6	7448,457
555,1	7373,057
555,5	7300,343
555,9	7219,971
556,4	7148,171
556,8	7081,743
557,3	7003,114
557,7	6941,686
558,2	6878,914
558,6	6806,743
559,1	6741,6
559,5	6682,629
560	6616,143
560,4	6545,514
560,9	6475,143
561,3	6405,029
561,8	6341,371
562,2	6272,057
562,7	6205,114
563,1	6137,486
563,6	6076,257
564	6013,714
564,4	5959,171
564,9	5904,6
565,3	5846,057
565,8	5790,171
566,2	5739,6
566,7	5691,4
567,1	5640,971
567,6	5578,543
568	5520,829
568,5	5473,571
568,9	5423,771
569,4	5373,829
569,8	5321,143
570,3	5270,2
570,7	5222,229
571,1	5176,086
571,6	5117,4
572	5065,914
572,5	5020,8
572,9	4974,086
573,4	4923,486
573,8	4882,171
574,3	4838,771
574,7	4809,886
575,2	4769,457
575,6	4727,486
576,1	4688,429
576,5	4654,857
576,9	4610,771
577,4	4569,057
577,8	4516,429
578,3	4469,971
578,7	4417,4
579,2	4379,057
579,6	4329,657
580,1	4295,914
580,5	4253,314
581	4225,286
581,4	4189,657
581,9	4160,086
582,3	4118,971
582,7	4083,086
583,2	4044,943
583,6	4012,6
584,1	3977,429
584,5	3944,629
585	3907,286
585,4	3868,743
585,9	3829,2
586,3	3798,429
586,8	3764,429
587,2	3730,857
587,6	3696
588,1	3666
588,5	3636,029
589	3610,114
589,4	3569,457
589,9	3538,2
590,3	3505,4
590,8	3475,457
591,2	3443,571
591,7	3418,286
592,1	3394,171
592,5	3373,943
593	3348,571
593,4	3323,2
593,9	3299,314
594,3	3279,771
594,8	3255,371
595,2	3231,6
595,7	3205
596,1	3184,057
596,6	3157,029
597	3131,486
597,4	3101,429
597,9	3081,857
598,3	3060,371
598,8	3038,143
599,2	3015,943
599,7	3000,286
600,1	2978,6
600,6	2952,486
601	2931,286
601,4	2907,2
601,9	2891
602,3	2868,457
602,8	2839,629
603,2	2821,2
603,7	2808,257
604,1	2787,029
604,6	2768,257
605	2743
605,4	2721,971
605,9	2701,286
606,3	2680,314
606,8	2661,314
607,2	2639,514
607,7	2620,686
608,1	2595,229
608,6	2574,114
609	2558,657
609,4	2540,914
609,9	2522,229
610,3	2506,543
610,8	2490,914
611,2	2478,457
611,7	2460,743
612,1	2443,171
612,6	2419,486
613	2400,171
613,4	2374,514
613,9	2356
614,3	2338,514
614,8	2316,629
615,2	2295,6
615,7	2283
616,1	2264,629
616,6	2257,143
617	2233,514
617,4	2216,543
617,9	2200,514
618,3	2188,657
618,8	2176,543
619,2	2158,286
619,7	2134,543
620,1	2123,229
620,5	2106,114
621	2096,743
621,4	2083
621,9	2062,486
622,3	2049,2
622,8	2032,8
623,2	2019,971
623,6	2004,914
624,1	1987,686
624,5	1972,743
625	1956,114
625,4	1949,486
625,9	1938,514
626,3	1922,2
626,8	1913,629
627,2	1891,829
627,6	1878,571
628,1	1866,314
628,5	1846,829
629	1826,114
629,4	1809,657
629,9	1787,629
630,3	1776,514
630,7	1758,429
631,2	1742,086
631,6	1726,571
632,1	1719,143
632,5	1709,6
633	1702
633,4	1696,429
633,8	1683,457
634,3	1672,114
634,7	1656,686
635,2	1644,771
635,6	1625,086
636,1	1607,943
636,5	1593,257
636,9	1583,286
637,4	1571,486
637,8	1564,057
638,3	1554,857
638,7	1545,943
639,2	1538,086
639,6	1533,6
640	1521,6
640,5	1517,029
640,9	1505,457
641,4	1494,143
641,8	1488,257
642,2	1481,714
642,7	1465,686
643,1	1452,4
643,6	1440,914
644	1436
644,5	1425,257
644,9	1413,457
645,3	1401,114
645,8	1388,857
646,2	1380,543
646,7	1363,4
647,1	1347,114
647,6	1338,514
648	1329,4
648,4	1319,286
648,9	1311,229
649,3	1300,314
649,8	1298,4
650,2	1292,629
650,6	1284,086
651,1	1270,171
651,5	1261,257
652	1256
652,4	1248
652,9	1239
653,3	1223,686
653,7	1213,943
654,2	1205,914
654,6	1197,914
655,1	1185,543
655,5	1178,571
655,9	1167,971
656,4	1166,057
656,8	1156,543
657,3	1156,257
657,7	1142,771
658,2	1136,857
658,6	1132,2
659	1126,857
659,5	1118,114
659,9	1110,4
660,4	1100,886
660,8	1098,371
661,2	1087,171
661,7	1075,4
662,1	1066,171
662,6	1059,771
663	1051,029
663,4	1040,114
663,9	1029,857
664,3	1015,343
664,8	1007,857
665,2	1000,057
665,6	990,714
666,1	985,6
666,5	981,029
667	970,914
667,4	974,6
667,9	971,886
668,3	966,286
668,7	957,971
669,2	947,686
669,6	938,057
670,1	936,057
670,5	927,171
670,9	919,714
671,4	908,029
671,8	903,257
672,3	899,629
672,7	893,914
673,1	885,171
673,6	879,971
674	867,343
674,5	865,257
674,9	857,714
675,3	851,771
675,8	845,429
676,2	834,486
676,7	827
677,1	824,371
677,5	819,714
678	815,943
678,4	807,4
678,9	798,4
679,3	799
679,7	792,886
680,2	786,314
680,6	774,2
681,1	764,486
681,5	762,057
681,9	758,771
682,4	753,857
682,8	746,457
683,3	742,943
683,7	742,143
684,1	733,857
684,6	728,771
685	719,914
685,5	708,086
685,9	700,171
686,3	696,343
686,8	692,829
687,2	688,943
687,7	683,029
688,1	680,286
688,5	681,657
689	683,886
689,4	674,629
689,9	664,971
690,3	661,771
690,7	658,114
691,2	654,343
691,6	649,543
692	644,114
692,5	641,943
692,9	640,2
693,4	638,114
693,8	632,971
694,2	628,343
694,7	621,229
695,1	615,629
695,6	613,6
696	607,771
696,4	602,4
696,9	594,171
697,3	592,4
697,8	590,457
698,2	586,286
698,6	579,2
699,1	575,314
699,5	570,514
699,9	572,857
700,4	568,543
700,8	564,229
701,3	557,657
701,7	551,2
702,1	546,943
702,6	542,429
703	534,829
703,5	528,943
703,9	526,171
704,3	524,2
704,8	522,857
705,2	520,714
705,6	520,771
706,1	514,743
706,5	513,629
707	512,686
707,4	511,029
707,8	509,543
708,3	512,171
708,7	507,143
709,2	504,457
709,6	502,171
710	494,057
710,5	488,886
710,9	483,886
711,3	475,657
711,8	468,886
712,2	462,857
712,7	457,343
713,1	455,229
713,5	454,657
714	450,514
714,4	445,314
714,8	443,2
715,3	449,314
715,7	441,629
716,2	441,257
716,6	433,8
717	430,943
717,5	429
717,9	425,029
718,3	419,2
718,8	417,771
719,2	409,543
719,7	410
720,1	405,257
720,5	400,971
721	398,829
721,4	393,971
721,8	396,829
722,3	397,771
722,7	393,057
723,2	394,257
723,6	393,629
724	396,857
724,5	392,514
724,9	383,343
725,3	382,257
725,8	382,171
726,2	374,914
726,7	370,229
727,1	360,2
727,5	357,286
728	349,429
728,4	347,457
728,8	339,971
729,3	339,429
729,7	339,257
730,1	341,343
730,6	338,629
731	345,857
731,5	338,371
731,9	339,943
732,3	341,8
732,8	338
733,2	338,029
733,6	342
734,1	339,229
734,5	337,971
734,9	337,057
735,4	331,514
735,8	326,2
736,3	314,171
736,7	310,229
737,1	304,371
737,6	303,771
738	301,714
738,4	301,943
738,9	304,314
739,3	315,514
739,7	318,514
740,2	318,286
740,6	317,743
741,1	312,571
741,5	307,743
741,9	303,171
742,4	299,286
742,8	288,514
743,2	291
743,7	287,114
744,1	286,229
744,5	288,971
745	290,371
745,4	287,629
745,8	288,714
746,3	286,857
746,7	284,086
747,2	279,229
747,6	277,286
748	276,143
748,5	272,229
748,9	268,114
749,3	266,629
749,8	268,829
750,2	269,429
750,6	263,8
751,1	260,657
751,5	257,286
751,9	258,429
752,4	260,086
752,8	256,914
753,3	254,914
753,7	253,114
754,1	249,829
754,6	248,943
755	246,914
755,4	247,286
755,9	248,829
756,3	248,571
756,7	247,143
757,2	245,514
757,6	241,314
758	236
758,5	226,886
758,9	222,371
759,3	219,229
759,8	219,257
760,2	223,829
760,6	234,6
761,1	241,771
761,5	240,514
761,9	237
762,4	238,629
762,8	240,286
763,3	236,429
763,7	226,571
764,1	216,314
764,6	214,343
765	215,486
765,4	215,6
765,9	211,486
766,3	212,286
766,7	213,286
767,2	215,8
767,6	216,714
768	209,971
768,5	205,343
768,9	201,714
769,3	193,629
769,8	188,743
770,2	187,571
770,6	185,029
771,1	188,257
771,5	191,943
771,9	194,057
772,4	196,914
772,8	196,257
773,2	194,743
773,7	193,857
774,1	197,057
774,5	195,314
775	190,8
775,4	190,971
775,8	188,914
776,3	192,4
776,7	193,086
777,1	188,371
777,6	186,914
778	185,8
778,4	183,829
778,9	186,057
779,3	181,286
779,7	177,457
780,2	176,514
780,6	175,857
781	176,6
781,5	174,371
781,9	171,686
782,3	170,6
782,8	171,686
783,2	165,514
783,6	165,2
784,1	163,629
784,5	161,2
784,9	158,6
785,4	160,257
785,8	159,371
786,2	161,886
786,7	159,657
787,1	166,086
787,5	164,429
788	164,857
788,4	165,8
788,8	163,343
789,3	168,543
789,7	166,429
790,1	164,543
790,6	168,686
791	167,886
791,4	164,286
791,9	165,057
792,3	161,257
792,7	161,771
793,2	160,8
793,6	160,486
794	159,771
794,5	157,429
794,9	160,029
795,3	160,657
795,8	159,943
796,2	151,714
796,6	148,571
797,1	148,114
797,5	146,686
797,9	144,429
798,4	142,086
798,8	138,571
799,2	142,229
799,7	140,257
800,1	139,8
800,5	141,4
801	139,314
801,4	136,514
801,8	137,743
802,2	136,629
802,7	134,4
803,1	135,914
803,5	133,714
804	131,086
804,4	131,829
804,8	130,486
805,3	126,114
805,7	128,143
806,1	121,8
806,6	121,457
807	121,2
807,4	121,486
807,9	119,914
808,3	122,086
808,7	119,486
809,2	122,029
809,6	124,629
810	121,686
810,4	117,343
810,9	115,686
811,3	116,029
811,7	115,314
812,2	111,686
812,6	106,486
813	108,886
813,5	110,343
813,9	113,714
814,3	108,429
814,8	107,857
815,2	111,114
815,6	111,343
816,1	111,886
816,5	111,6
816,9	108,971
817,3	113,229
817,8	116,229
818,2	111,971
818,6	113,114
819,1	107,686
819,5	103,657
819,9	104,057
820,4	107,171
820,8	104,114
821,2	106,429
821,7	101,6
822,1	103,314
822,5	106,057
822,9	106,143
823,4	100,171
823,8	97,743
824,2	94,8
824,7	93,4
825,1	94,857
825,5	94,257
826	83,886
826,4	81,714
826,8	80,4
827,3	81,143
827,7	82,857
828,1	79,971
828,5	82,657
829	88,6
829,4	86
829,8	92,543
830,3	94,286
830,7	96,8
831,1	97,343
831,6	93,286
832	93,2
832,4	99,114
832,8	92,829
833,3	88,457
833,7	83,8
834,1	84,429
834,6	86,171
835	87,457
835,4	84,171
835,8	86,6
836,3	88,771
836,7	89,514
837,1	87,971
837,6	81,343
838	79,429
838,4	79,343
838,9	78,171
839,3	78,943
839,7	78,943
840,1	82,371
840,6	87,143
841	83,429
841,4	82,057
841,9	81,543
842,3	77,886
842,7	75,771
843,1	71,486
843,6	69,371
844	74,886
844,4	75,714
844,9	74,886
845,3	76,771
845,7	77,257
846,2	77,771
846,6	83,057
847	82,343
847,4	83,286
847,9	82,314
848,3	79,257
848,7	81,143
849,2	81,029
849,6	75,029
850	71,914
850,4	68,943
850,9	70,657
851,3	75,143
851,7	72,571
852,2	68,6
852,6	69,286
853	71,143
853,4	69,829
853,9	68,771
854,3	67,514
854,7	71,857
855,2	75,486
855,6	73,429
856	75,514
856,4	74,657
856,9	72,543
857,3	67,543
857,7	63,429
858,2	62,314
858,6	59,686
859	55,714
859,4	56,571
859,9	57,571
860,3	56,743
860,7	55,686
861,1	59,686
861,6	65,286
862	66,629
862,4	65
862,9	65,029
863,3	67,971
863,7	67,829
864,1	61,943
864,6	61,029
865	58,914
865,4	60,343
865,9	62,114
866,3	60,543
866,7	61,857
867,1	63,914
867,6	63,771
868	63,8
868,4	65
868,8	59,2
869,3	61,4
869,7	63,171
870,1	60,486
870,6	57,486
871	98,171
871,4	96,029
871,8	98,914
872,3	96,829
872,7	91,8
873,1	89,057
873,5	87,6
874	48,4
874,4	47,257
874,8	47,514
875,3	47,886
875,7	48,171
876,1	53,2
876,5	54,686
877	53,971
877,4	55,343
877,8	54,229
878,2	57,829
878,7	60,2
879,1	59,686
879,5	58,543
879,9	54,371
880,4	50,6
880,8	55,714
881,2	50,857
881,7	48,2
882,1	47,143
882,5	50,6
882,9	52,971
883,4	57,571
883,8	48,429
884,2	47,686
884,6	46,714
885,1	43,371
885,5	40,229
885,9	39
886,3	39,457
886,8	44,6
887,2	43,286
887,6	44,229
888	46,914
888,5	45,943
888,9	40,286
889,3	33,286
889,8	32,314
890,2	31,6
890,6	32,886
891	29,943
891,5	33,257
891,9	37
892,3	44,629
892,7	42,371
893,2	46,8
893,6	44,829
894	44,486
894,4	39,371
894,9	42,771
895,3	41
895,7	42,029
896,1	37,943
896,6	37,971
897	43,143
897,4	47,429
897,8	47,857
898,3	48,371
898,7	46,914
899,1	47,657
899,5	48,486
900	43,229
900,4	36,286
900,8	31,629
901,2	25,171
901,7	29,743
902,1	33,314
902,5	32,943
902,9	34,857
903,4	42,029
903,8	40,171
904,2	47,943
904,6	41,914
905,1	39,2
905,5	36,943
905,9	33
906,3	30,143
906,8	30,371
907,2	28,514
907,6	32,943
908	31,514
908,5	30,457
908,9	35
909,3	35,114
909,7	39,657
910,2	35,571
910,6	35,143
911	39,371
911,4	41,629
911,9	39,943
912,3	42,229
912,7	41,486
913,1	43,4
913,6	41,8
914	45,514
914,4	44,8
914,8	47,171
915,3	45,057
915,7	46,029
916,1	44,143
916,5	42,086
916,9	34,286
917,4	38,743
917,8	33,886
918,2	35,229
918,6	29,343
919,1	30,771
919,5	33,486
919,9	36,2
920,3	32,629
920,8	39,686
921,2	36,371
921,6	43,371
922	42,2
922,5	43,8
922,9	43,914
923,3	43,6
923,7	40,257
924,2	41,514
924,6	36,486
925	39,429
925,4	36,057
925,8	37,571
926,3	32,543
926,7	33,886
927,1	33,6
927,5	36,714
928	35,314
928,4	33,486
928,8	33,4
929,2	38,571
929,7	39,8
930,1	40,114
930,5	37,143
930,9	38,257
931,3	45,857
931,8	42,429
932,2	39,343
932,6	34,886
933	31,029
933,5	33,686
933,9	33,171
934,3	27,714
934,7	27,686
935,2	26,914
935,6	26,486
936	26,457
936,4	26,857
936,8	23,286
937,3	26,714
937,7	25,971
938,1	34,343
938,5	33,571
939	36,714
939,4	34,6
939,8	37,657
940,2	35,314
940,6	34,314
941,1	30,771
941,5	30,6
941,9	30,057
942,3	30,771
942,8	32,971
943,2	26,286
943,6	27,457
944	25,171
944,4	25,029
944,9	25,514
945,3	22,829
945,7	21,543
946,1	24,343
946,6	24,943
947	27,857
947,4	25,714
947,8	28,314
948,2	32,571
948,7	29,686
949,1	31,743
949,5	29,371
949,9	28,943
950,3	31,143
950,8	28,257
951,2	26,343
951,6	29,371
952	28,543
952,5	29,971
952,9	24,343
953,3	22,371
953,7	20,514
954,1	22,371
954,6	19,857
955	19,971
955,4	15,971
955,8	24,971
956,2	25,486
956,7	28,029
957,1	28,457
957,5	31,857
957,9	32,257
958,3	39,486
958,8	37,143
959,2	42,486
959,6	44,971
960	43,514
960,5	42,057
960,9	44,829
961,3	40,771
961,7	40,914
962,1	39,086
962,6	34,143
963	34,829
963,4	38,029
963,8	31,114
964,2	31,4
964,7	25,2
965,1	26,143
965,5	29,771
965,9	24,114
966,3	22,771
966,8	25,429
967,2	25,486
967,6	28,371
968	26,2
968,4	25,771
968,9	32
969,3	28,771
969,7	25,971
970,1	28,143
970,5	29,171
971	30,543
971,4	30,286
971,8	26,171
972,2	24,571
972,6	29,143
973,1	27,629
973,5	26,257
973,9	22,257
974,3	22,943
974,7	24,457
975,2	28,971
975,6	28,343
976	28,371
976,4	29,6
976,8	27,914
977,3	23,943
977,7	27,543
978,1	23,886
978,5	23,743
978,9	23,4
979,4	20,543
979,8	22,657
980,2	28,143
980,6	25,514
981	24,257
981,5	24,2
981,9	23,514
982,3	25,914
982,7	28,714
983,1	22,314
983,6	23,2
984	27,6
984,4	24,886
984,8	22,143
985,2	24,486
985,6	23,771
986,1	22,6
986,5	23,171
986,9	18,743
987,3	19,257
987,7	22,829
988,2	15,343
988,6	15,914
989	24,571
989,4	19,2
989,8	21,143
990,3	25,829
990,7	27,371
991,1	31,314
991,5	31,714
991,9	22,886
992,3	23,257
992,8	22,714
993,2	20,429
993,6	18,829
994	20,229
994,4	21,029
994,9	25,086
995,3	26,457
995,7	26,343
996,1	25,914
996,5	25,657
996,9	30,257
997,4	24,829
997,8	26,886
998,2	30,657
998,6	28,971
999	28,086
999,5	31,314
999,9	27,086
1000,3	28,057
1000,7	29,371
1001,1	27,486
1001,5	31,971
1002	34,086
1002,4	30,429
1002,8	31,857
1003,2	29,486
1003,6	25,286
1004	29,029
1004,5	27,029
1004,9	26,686
1005,3	30,029
1005,7	30,257
1006,1	35,314
1006,6	36,629
1007	29,343
1007,4	32,6
1007,8	31,657
1008,2	32,914
1008,6	27,714
1009,1	28,086
1009,5	29,4
1009,9	37,8
1010,3	35,8
1010,7	39,771
1011,1	34,171
1011,6	36,714
1012	34,371
1012,4	33,2
1012,8	23,4
1013,2	17,657
1013,6	17,143
1014,1	17,429
1014,5	19,457
1014,9	19,6
1015,3	20,686
1015,7	26,086
1016,1	32,029
1016,6	30,343
1017	32,114
1017,4	32,143
1017,8	34,714
1018,2	31,829
1018,6	31,457
1019,1	30,714
1019,5	30,629
1019,9	28,886
1020,3	26,971
1020,7	25,943
1021,1	22,971
1021,6	24,371
1022	23,486
1022,4	22,886
1022,8	21,8
1023,2	20,143
1023,6	16,971
1024,1	22,686
1024,5	21,314
1024,9	23,629
1025,3	23,371
1025,7	24,2
1026,1	23,371
1026,6	28,429
1027	30,029
1027,4	30,743
1027,8	25,971
1028,2	26,229
1028,6	27,086
1029	27,657
1029,5	25,829
1029,9	23,257
1030,3	22,943
1030,7	27,057
1031,1	30,914
1031,5	31,8
1032	32,6
1032,4	35,086
1032,8	32,857
1033,2	28,914
1033,6	24,029
1034	20,886
1034,4	21,543
1034,9	23,914
1035,3	28,2
1035,7	27,829
1036,1	35,486
1036,5	38,029
1036,9	40,829
1037,4	43,171
1037,8	42,029
1038,2	38,343
1038,6	41,257
1039	38,057
1039,4	42,029
1039,8	45,514
1040,3	43,829
1040,7	47,029
1041,1	40,2
1041,5	40,886
1041,9	40,543
1042,3	35,943
1042,7	24,771
1043,2	26,4
1043,6	30,629
1044	35,029
1044,4	39,857
1044,8	42,457
1045,2	41,143
1045,6	51,343
1046,1	50,829
1046,5	44,086
1046,9	46,6
1047,3	41,6
1047,7	37,086
1048,1	38,114
1048,5	31,229
1049	29,057
1049,4	29,514
1049,8	32,257
1050,2	31,314
1050,6	32,971
1051	36,429
1051,4	33,629
1051,9	34,943
1052,3	35,2
1052,7	28,4
1053,1	24,257
1053,5	23,429
1053,9	18,257
1054,3	19,171
1054,8	16,6
1055,2	15
1055,6	16,629
1056	17,886
1056,4	16,6
1056,8	20,686
1057,2	21
1057,6	23,8
1058,1	24,886
1058,5	20,971
1058,9	24,057
1059,3	25
1059,7	23,4
1060,1	24,714
1060,5	24,029
1061	23
1061,4	27,086
1061,8	27,314
1062,2	27,114
1062,6	30,114
1063	31,8
1063,4	31,086
1063,8	32,514
1064,3	36,229
1064,7	36,286
1065,1	35,514
1065,5	34,914
1065,9	37,057
1066,3	37,371
1066,7	40,943
1067,1	35,257
1067,6	36,457
1068	41,514
1068,4	39,514
1068,8	36,8
1069,2	34,514
1069,6	27
1070	31,029
1070,4	30,086
1070,9	31,257
1071,3	29,886
1071,7	26,771
1072,1	27,514
1072,5	34,171
1072,9	30,086
1073,3	26,4
1073,7	18,971
1074,2	22,257
1074,6	24,914
1075	24,543
1075,4	22,086
1075,8	20,314
1076,2	25,629
1076,6	28,057
1077	27,286
1077,5	27,886
1077,9	24,086
1078,3	21,629
1078,7	24,286
1079,1	25,2
1079,5	23,771
1079,9	26,057
1080,3	27,686
1080,7	33,829
1081,2	36,229
1081,6	35
1082	37,571
1082,4	42,257
1082,8	44,286
1083,2	36,171
1083,6	33,771
1084	34,771
1084,5	37,657
1084,9	28,743
1085,3	23,257
1085,7	22,171
1086,1	27,914
1086,5	24,543
1086,9	25,2
1087,3	26,686
1087,7	35,657
1088,2	40,229
1088,6	35,429
1089	34,829
1089,4	43,143
1089,8	42,229
1090,2	37,343
1090,6	29,057
1091	28,143
1091,4	27,314
1091,9	27,314
1092,3	24,314
1092,7	19,8
1093,1	22,371
1093,5	24,086
1093,9	22,771
1094,3	23,829
1094,7	21,886
1095,1	25,057
1095,5	29,086
1096	31,286
1096,4	30,571
1096,8	32,686
1097,2	33,086
1097,6	34,971
1098	29,514
1098,4	26,543
1098,8	23,714
1099,2	24,286
1099,6	23,171
1100,1	22,886
1100,5	23,8
1100,9	24,486
1101,3	24,714
1101,7	23,629
1102,1	22,371
1102,5	21,114
1102,9	17,771
1103,3	14,514
1103,7	15,971
1104,2	13,686
1104,6	14,943
1105	13,743
1105,4	12,743
1105,8	12,971
1106,2	12,343
1106,6	8,086
1107	7,114
1107,4	3,8
1107,8	3,92
1108,3	0,85
