Data from Subt2_00064.txt Node
Date: Mon Aug 28 13:26:06 MSK 2023
User: vat
Spectrometer: MAYP114033
Trigger mode: 0
Integration Time (sec): 1,000000E0
Scans to average: 5
Electric dark correction enabled: true
Nonlinearity correction enabled: false
Boxcar width: 3
XAxis mode: Wavelengths
Number of Pixels in Spectrum: 2068
>>>>>Begin Spectral Data<<<<<
199,4	-1,467
199,9	-5,047
200,4	-5
200,8	-1,795
201,3	0,719
201,8	-0,824
202,2	1,662
202,7	3,405
203,2	7,119
203,6	9,319
204,1	6,233
204,6	7,205
205	8,09
205,5	4,805
206	3,548
206,4	1,776
206,9	2,233
207,4	3,319
207,8	-1,31
208,3	-1,224
208,8	0,805
209,2	3,89
209,7	6,262
210,2	8,119
210,6	6,205
211,1	13,348
211,5	15,805
212	15,862
212,5	12,033
212,9	9,09
213,4	7,69
213,9	8,262
214,3	3,233
214,8	0,062
215,3	1,176
215,7	1,69
216,2	3,719
216,7	6,29
217,1	4,576
217,6	6,776
218,1	9,805
218,5	9,033
219	11,919
219,5	16,148
219,9	7,919
220,4	11,605
220,9	7,405
221,3	6,233
221,8	5,205
222,3	6,719
222,7	7,262
223,2	6,29
223,6	2,119
224,1	8,205
224,6	10,519
225	11,948
225,5	5,233
226	0,376
226,4	4,776
226,9	7,948
227,4	10,062
227,8	9,548
228,3	6,833
228,8	8,69
229,2	8,748
229,7	9,805
230,2	9,862
230,6	2,376
231,1	2,005
231,5	2,09
232	4,233
232,5	0,176
232,9	2,633
233,4	1,605
233,9	4,433
234,3	4,148
234,8	5,976
235,3	7,348
235,7	9,633
236,2	6,576
236,7	6,49
237,1	6,205
237,6	7,548
238,1	7,948
238,5	8,919
239	13,233
239,4	15,548
239,9	17,262
240,4	14,176
240,8	16,633
241,3	17,748
241,8	12,833
242,2	10,262
242,7	7,176
243,2	8,662
243,6	12,662
244,1	3,89
244,6	-1,567
245	-0,024
245,5	-1,652
245,9	1,776
246,4	1,548
246,9	-0,081
247,3	4,176
247,8	5,005
248,3	6,576
248,7	8,805
249,2	6,89
249,7	7,776
250,1	3,319
250,6	0,433
251	0,348
251,5	-2,681
252	-7,938
252,4	-9,938
252,9	-8,138
253,4	-1,738
253,8	-1,624
254,3	-0,338
254,8	2,119
255,2	3,805
255,7	2,919
256,1	-6,081
256,6	-8,51
257,1	-7,767
257,5	-9,338
258	-12,624
258,5	-9,31
258,9	-6,824
259,4	-2,538
259,9	-5,367
260,3	-2,91
260,8	-0,881
261,2	1,49
261,7	0,062
262,2	1,205
262,6	3,605
263,1	5,662
263,6	1,319
264	5,29
264,5	7,005
264,9	6,976
265,4	3,405
265,9	1,205
266,3	-4,567
266,8	0,633
267,3	0,205
267,7	-1,71
268,2	-6,024
268,7	-3,452
269,1	-5,71
269,6	1,576
270	-4,681
270,5	-5,281
271	-4,71
271,4	-5,052
271,9	-5,395
272,4	-0,052
272,8	-2,11
273,3	3,119
273,7	-1,567
274,2	-2,738
274,7	5,005
275,1	1,119
275,6	-0,967
276,1	-0,224
276,5	-3,052
277	0,919
277,4	1,862
277,9	-3,795
278,4	-0,567
278,8	-0,167
279,3	3,29
279,8	6,233
280,2	9,29
280,7	8,548
281,1	9,262
281,6	7,205
282,1	4,49
282,5	2,348
283	-1,252
283,4	-3,567
283,9	-2,452
284,4	-3,081
284,8	-1,938
285,3	-1,538
285,8	-2,652
286,2	-4,91
286,7	-9,51
287,1	-12,195
287,6	-9,395
288,1	-10,081
288,5	-5,938
289	-7,138
289,5	-1,824
289,9	-0,081
290,4	4,319
290,8	3,833
291,3	8,462
291,8	7,833
292,2	12,462
292,7	11,805
293,1	15,09
293,6	10,89
294,1	12,119
294,5	8,919
295	7,376
295,5	5,69
295,9	8,119
296,4	4,548
296,8	7,205
297,3	9,405
297,8	14,519
298,2	16,148
298,7	12,605
299,1	11,262
299,6	11,69
300,1	11,205
300,5	9,062
301	5,49
301,5	2,833
301,9	3,748
302,4	2,976
302,8	3,919
303,3	7,148
303,8	10,89
304,2	12,348
304,7	11,919
305,1	15,005
305,6	15,062
306,1	11,005
306,5	3,033
307	-2,31
307,4	-8,281
307,9	-9,281
308,4	-14,538
308,8	-10,881
309,3	-3,395
309,8	4,005
310,2	3,433
310,7	4,519
311,1	5,348
311,6	6,348
312,1	1,976
312,5	-1,567
313	-3,881
313,4	-2,024
313,9	0,148
314,4	3,205
314,8	7,633
315,3	8,976
315,7	8,262
316,2	6,748
316,7	7,776
317,1	6,976
317,6	3,919
318	1,348
318,5	1,148
319	2,148
319,4	5,376
319,9	1,576
320,3	-0,052
320,8	-0,338
321,3	-4,481
321,7	-5,052
322,2	-7,995
322,6	-5,91
323,1	-6,367
323,6	-2,024
324	-0,538
324,5	5,433
324,9	9,976
325,4	12,348
325,9	9,833
326,3	10,233
326,8	8,662
327,2	8,148
327,7	7,805
328,2	7,805
328,6	13,976
329,1	7,319
329,5	11,719
330	11,462
330,5	14,748
330,9	12,633
331,4	5,605
331,8	-2,538
332,3	5,948
332,8	3,833
333,2	6,69
333,7	-1,367
334,1	-3,195
334,6	1,005
335,1	6,433
335,5	-0,91
336	3,433
336,4	-0,881
336,9	4,69
337,4	6,119
337,8	3,89
338,3	1,262
338,7	6,948
339,2	0,462
339,7	0,605
340,1	-1,481
340,6	0,233
341	0,376
341,5	0,69
342	-1,624
342,4	-2,767
342,9	0,776
343,3	0,805
343,8	3,719
344,2	5,433
344,7	3,862
345,2	8,862
345,6	12,605
346,1	11,719
346,5	15,005
347	9,833
347,5	11,662
347,9	11,09
348,4	5,462
348,8	8,548
349,3	7,062
349,8	4,862
350,2	6,148
350,7	5,948
351,1	8,119
351,6	6,519
352	2,748
352,5	9,919
353	14,005
353,4	20,433
353,9	27,033
354,3	39,148
354,8	48,205
355,3	62,233
355,7	74,462
356,2	86,976
356,6	100,548
357,1	114,719
357,5	129,033
358	159,633
358,5	182,405
358,9	210,519
359,4	248,233
359,8	290,662
360,3	334,919
360,8	388,462
361,2	440,662
361,7	503,376
362,1	567,576
362,6	641,062
363	713,433
363,5	795,148
364	876,062
364,4	965,805
364,9	1055,662
365,3	1139,948
365,8	1226,976
366,3	1303,319
366,7	1370,519
367,2	1426,719
367,6	1472,833
368,1	1510,89
368,5	1537,262
369	1543,89
369,5	1548,833
369,9	1534,862
370,4	1514,148
370,8	1473,633
371,3	1429,148
371,7	1380,433
372,2	1318,69
372,7	1255,119
373,1	1197,033
373,6	1128,519
374	1062,233
374,5	988,633
374,9	916,319
375,4	852,776
375,9	790,49
376,3	723,833
376,8	668,719
377,2	619,062
377,7	572,005
378,2	527,148
378,6	486,433
379,1	440,005
379,5	407,119
380	370,29
380,4	338,176
380,9	310,005
381,4	287,033
381,8	262,119
382,3	249,319
382,7	232,833
383,2	217,633
383,6	205,319
384,1	192,176
384,6	174,176
385	164,748
385,5	153,519
385,9	143,805
386,4	137,862
386,8	123,805
387,3	115,862
387,7	112,662
388,2	105,719
388,7	95,005
389,1	87,633
389,6	81,033
390	80,148
390,5	76,605
390,9	72,548
391,4	64,376
391,9	60,862
392,3	57,976
392,8	51,005
393,2	49,348
393,7	48,348
394,1	43,633
394,6	43,69
395,1	47,576
395,5	45,519
396	48,719
396,4	42,805
396,9	38,976
397,3	42,519
397,8	37,49
398,2	31,319
398,7	26,005
399,2	26,233
399,6	30,919
400,1	28,205
400,5	28,119
401	35,519
401,4	33,633
401,9	38,948
402,4	37,005
402,8	38,462
403,3	40,519
403,7	34,633
404,2	35,433
404,6	39,69
405,1	43,233
405,5	44,833
406	44,348
406,5	47,176
406,9	52,405
407,4	48,319
407,8	50,805
408,3	47,033
408,7	44,519
409,2	43,033
409,6	41,176
410,1	41,49
410,6	40,548
411	35,576
411,5	32,748
411,9	34,376
412,4	40,205
412,8	42,09
413,3	44,233
413,7	50,262
414,2	54,233
414,7	59,319
415,1	62,262
415,6	56,576
416	63,319
416,5	69,29
416,9	72,405
417,4	77,919
417,8	79,462
418,3	83,176
418,8	87,548
419,2	86,205
419,7	84,576
420,1	77,548
420,6	78,462
421	85,09
421,5	86,862
421,9	85,605
422,4	89,205
422,8	88,805
423,3	96,119
423,8	93,719
424,2	85,719
424,7	88,09
425,1	87,976
425,6	86,89
426	90,576
426,5	89,262
426,9	93,576
427,4	101,09
427,9	102,09
428,3	108,919
428,8	107,376
429,2	107,719
429,7	114,805
430,1	116,09
430,6	109,605
431	107,148
431,5	106,29
431,9	111,176
432,4	109,09
432,8	109,262
433,3	110,205
433,8	122,119
434,2	125,948
434,7	124,519
435,1	128,348
435,6	138,462
436	144,605
436,5	150,576
436,9	153,148
437,4	165,29
437,8	176,605
438,3	183,233
438,8	189,405
439,2	193,89
439,7	201,548
440,1	210,119
440,6	212,605
441	222,176
441,5	229,805
441,9	236,748
442,4	243,519
442,8	253,633
443,3	266,719
443,7	274,405
444,2	284,976
444,7	298,033
445,1	312,405
445,6	325,862
446	340,976
446,5	353,576
446,9	372,176
447,4	389,633
447,8	407,233
448,3	419,948
448,7	439,919
449,2	456,433
449,6	473,576
450,1	493,776
450,6	517,319
451	535,548
451,5	562,233
451,9	583,605
452,4	605,605
452,8	626,319
453,3	649,862
453,7	668,719
454,2	689,633
454,6	708,919
455,1	738,319
455,5	763,376
456	791,862
456,4	818,919
456,9	848,233
457,3	879,576
457,8	906,005
458,3	933,462
458,7	961,976
459,2	989,262
459,6	1016,776
460,1	1046,062
460,5	1078,519
461	1110,062
461,4	1138,176
461,9	1171,948
462,3	1209,662
462,8	1243,519
463,2	1274,29
463,7	1309,605
464,1	1344,148
464,6	1381,09
465	1417,148
465,5	1448,69
466	1490,462
466,4	1532,948
466,9	1570,719
467,3	1613,119
467,8	1650,005
468,2	1691,176
468,7	1735,205
469,1	1775,119
469,6	1811,376
470	1855,405
470,5	1897,833
470,9	1940,748
471,4	1980,319
471,8	2017,776
472,3	2052,633
472,7	2095,976
473,2	2126,462
473,6	2161,462
474,1	2200,462
474,5	2238,719
475	2275,748
475,4	2318,462
475,9	2351,948
476,4	2387,948
476,8	2432,776
477,3	2471,119
477,7	2512,319
478,2	2557,348
478,6	2593,49
479,1	2638,605
479,5	2683,776
480	2716,748
480,4	2750,433
480,9	2784,69
481,3	2816,062
481,8	2849,176
482,2	2882,09
482,7	2921,005
483,1	2953,062
483,6	2987,49
484	3018,033
484,5	3048,948
484,9	3082,548
485,4	3110,062
485,8	3133,633
486,3	3161,719
486,7	3189,433
487,2	3225,348
487,6	3249,805
488,1	3279,462
488,5	3305,576
489	3334,605
489,4	3365,119
489,9	3386,405
490,4	3400,833
490,8	3435,805
491,3	3454,262
491,7	3474,462
492,2	3490,805
492,6	3508,69
493,1	3536,519
493,5	3557,062
494	3568,005
494,4	3579,605
494,9	3592,69
495,3	3606,69
495,8	3622,519
496,2	3637,662
496,7	3647,833
497,1	3657,176
497,6	3674,376
498	3696,348
498,5	3715,233
498,9	3726,662
499,4	3730,719
499,8	3744,09
500,3	3762,69
500,7	3775,69
501,2	3784,148
501,6	3791,233
502,1	3804,69
502,5	3820,09
503	3837,748
503,4	3844,205
503,9	3850,919
504,3	3858,405
504,8	3864,605
505,2	3870,319
505,7	3880,205
506,1	3878,119
506,6	3883,976
507	3896,062
507,5	3902,748
507,9	3915,576
508,4	3925,862
508,8	3929,833
509,3	3943,548
509,7	3946,89
510,2	3955,062
510,6	3958,433
511,1	3962,376
511,5	3965,262
512	3970,319
512,4	3977,633
512,9	3986,948
513,3	3988,005
513,8	3997,205
514,2	4002,919
514,7	4010,89
515,1	4019,348
515,6	4019,005
516	4025,148
516,5	4030,376
516,9	4038,176
517,4	4042,09
517,8	4041,348
518,3	4050,119
518,7	4060,662
519,2	4072,89
519,6	4079,919
520,1	4085,862
520,5	4095,976
521	4102,89
521,4	4100,976
521,9	4102,433
522,3	4101,033
522,8	4102,748
523,2	4106,376
523,7	4107,205
524,1	4114,633
524,6	4115,976
525	4126,29
525,5	4132,376
525,9	4146,519
526,4	4154,433
526,8	4162,605
527,3	4172,405
527,7	4191,576
528,2	4196,748
528,6	4205,776
529,1	4213,29
529,5	4221,576
530	4232,776
530,4	4239,862
530,9	4244,748
531,3	4255,148
531,8	4260,548
532,2	4267,348
532,6	4276,576
533,1	4273,89
533,5	4281,548
534	4290,433
534,4	4291,062
534,9	4303,033
535,3	4312,262
535,8	4321,033
536,2	4336,605
536,7	4346,319
537,1	4361,176
537,6	4374,462
538	4381,29
538,5	4387,576
538,9	4390,348
539,4	4399,148
539,8	4406,662
540,3	4400,919
540,7	4412,262
541,2	4417,948
541,6	4424,376
542,1	4440,033
542,5	4450,005
543	4456,49
543,4	4470,405
543,9	4477,862
544,3	4491,205
544,8	4502,948
545,2	4504,519
545,7	4509,776
546,1	4521,833
546,5	4530,205
547	4541,948
547,4	4547,605
547,9	4554,433
548,3	4569,433
548,8	4574,976
549,2	4586,948
549,7	4598,119
550,1	4600,548
550,6	4610,176
551	4623,119
551,5	4625,49
551,9	4644,005
552,4	4644,633
552,8	4649,633
553,3	4656,348
553,7	4664,348
554,2	4672,576
554,6	4691,976
555,1	4696,69
555,5	4709,976
555,9	4724,719
556,4	4733,662
556,8	4746,948
557,3	4750,805
557,7	4753,033
558,2	4760,376
558,6	4763,862
559,1	4774,062
559,5	4784,89
560	4788,405
560,4	4788,119
560,9	4790,119
561,3	4793,033
561,8	4807,748
562,2	4811,062
562,7	4813,29
563,1	4820,376
563,6	4833,205
564	4839,605
564,4	4851,262
564,9	4848,462
565,3	4852,605
565,8	4863,919
566,2	4869,919
566,7	4875,833
567,1	4887,919
567,6	4886,576
568	4894,262
568,5	4894,348
568,9	4890,919
569,4	4888,576
569,8	4891,119
570,3	4882,605
570,7	4884,119
571,1	4877,948
571,6	4876,233
572	4878,776
572,5	4877,09
572,9	4874,576
573,4	4884,005
573,8	4886,262
574,3	4892,89
574,7	4897,29
575,2	4895,148
575,6	4907,833
576,1	4909,462
576,5	4900,205
576,9	4897,605
577,4	4897,062
577,8	4896,233
578,3	4899,976
578,7	4884,719
579,2	4882,948
579,6	4882,748
580,1	4888,09
580,5	4882,833
581	4875,49
581,4	4869,862
581,9	4863,69
582,3	4851,748
582,7	4843,976
583,2	4831,919
583,6	4820,662
584,1	4810,805
584,5	4795,233
585	4790,462
585,4	4782,862
585,9	4780,776
586,3	4769,176
586,8	4761,262
587,2	4760,805
587,6	4761,405
588,1	4755,519
588,5	4754,748
589	4742,748
589,4	4740,89
589,9	4736,005
590,3	4725,033
590,8	4711,319
591,2	4704,833
591,7	4691,976
592,1	4686,948
592,5	4675,719
593	4664,948
593,4	4657,605
593,9	4653,033
594,3	4647,348
594,8	4643,662
595,2	4637,062
595,7	4632,405
596,1	4630,405
596,6	4624,062
597	4620,633
597,4	4610,119
597,9	4598,519
598,3	4585,976
598,8	4573,262
599,2	4571,062
599,7	4558,605
600,1	4548,519
600,6	4539,233
601	4531,633
601,4	4530,719
601,9	4521,748
602,3	4508,148
602,8	4496,833
603,2	4483,633
603,7	4473,262
604,1	4464,319
604,6	4442,148
605	4438,262
605,4	4422,033
605,9	4409,176
606,3	4397,376
606,8	4384,376
607,2	4374,862
607,7	4367,233
608,1	4350,633
608,6	4339,719
609	4330,548
609,4	4314,005
609,9	4300,433
610,3	4279,776
610,8	4269,69
611,2	4251,69
611,7	4235,405
612,1	4218,633
612,6	4207,348
613	4195,29
613,4	4184,29
613,9	4164,405
614,3	4158,89
614,8	4142,662
615,2	4127,833
615,7	4115,519
616,1	4103,976
616,6	4095,176
617	4078,319
617,4	4056,205
617,9	4044,89
618,3	4030,119
618,8	4010,519
619,2	3992,919
619,7	3974,748
620,1	3965,69
620,5	3949,033
621	3929,319
621,4	3912,405
621,9	3895,605
622,3	3871,119
622,8	3849,005
623,2	3833,176
623,6	3814,033
624,1	3795,005
624,5	3780,29
625	3760,605
625,4	3751,69
625,9	3736,976
626,3	3714,176
626,8	3696,29
627,2	3682,119
627,6	3665,748
628,1	3654,633
628,5	3633,376
629	3615,948
629,4	3601,176
629,9	3587,719
630,3	3571,262
630,7	3552,548
631,2	3536,719
631,6	3518,576
632,1	3502,719
632,5	3478,348
633	3460,89
633,4	3443,29
633,8	3425,69
634,3	3403,433
634,7	3384,033
635,2	3363,262
635,6	3346,605
636,1	3326,005
636,5	3299,49
636,9	3282,576
637,4	3270,719
637,8	3259,719
638,3	3240,405
638,7	3228,119
639,2	3212,033
639,6	3201,29
640	3174,919
640,5	3151,462
640,9	3125,633
641,4	3112,062
641,8	3098,233
642,2	3082,462
642,7	3069,548
643,1	3057,805
643,6	3048,319
644	3042,062
644,5	3032,262
644,9	3010,548
645,3	2998,176
645,8	2980,748
646,2	2969,462
646,7	2948,776
647,1	2931,376
647,6	2908,205
648	2892,948
648,4	2879,319
648,9	2870,233
649,3	2856,29
649,8	2840,319
650,2	2829,748
650,6	2821,262
651,1	2808,148
651,5	2784,119
652	2768,69
652,4	2752,548
652,9	2748,49
653,3	2728,033
653,7	2710,433
654,2	2698,89
654,6	2691,119
655,1	2671,462
655,5	2659,776
655,9	2642,205
656,4	2629,433
656,8	2615,29
657,3	2600,376
657,7	2586,29
658,2	2573,605
658,6	2555,548
659	2539,119
659,5	2524,548
659,9	2502,433
660,4	2483,776
660,8	2467,948
661,2	2450,89
661,7	2443,776
662,1	2428,89
662,6	2416,09
663	2410,433
663,4	2396,719
663,9	2381,69
664,3	2370,519
664,8	2346,605
665,2	2329,319
665,6	2308,319
666,1	2290,462
666,5	2276,376
667	2262,862
667,4	2247,376
667,9	2243,805
668,3	2225,49
668,7	2217,919
669,2	2204,319
669,6	2186,29
670,1	2171,919
670,5	2154,576
670,9	2125,519
671,4	2119,805
671,8	2101,119
672,3	2085,69
672,7	2074,09
673,1	2059,119
673,6	2048,548
674	2043,005
674,5	2025,748
674,9	2014,405
675,3	1998,976
675,8	1988,233
676,2	1971,976
676,7	1954,462
677,1	1935,233
677,5	1917,376
678	1904,348
678,4	1895,662
678,9	1883,748
679,3	1873,805
679,7	1864,805
680,2	1856,119
680,6	1847,719
681,1	1835,69
681,5	1823,748
681,9	1811,433
682,4	1800,462
682,8	1792,005
683,3	1780,776
683,7	1770,948
684,1	1758,948
684,6	1744,433
685	1734,576
685,5	1725,69
685,9	1712,29
686,3	1704,119
686,8	1691,719
687,2	1680,176
687,7	1669,148
688,1	1656,69
688,5	1645,033
689	1630,719
689,4	1622,348
689,9	1615,462
690,3	1604,319
690,7	1592,919
691,2	1576,833
691,6	1566,89
692	1558,719
692,5	1541,662
692,9	1521,862
693,4	1510,319
693,8	1503,833
694,2	1498,29
694,7	1482,319
695,1	1476,29
695,6	1468,376
696	1463,69
696,4	1455,233
696,9	1443,748
697,3	1432,233
697,8	1426,576
698,2	1411,548
698,6	1403,119
699,1	1396,319
699,5	1381,376
699,9	1369,633
700,4	1360,833
700,8	1355,719
701,3	1344,033
701,7	1333,262
702,1	1320,148
702,6	1315,233
703	1305,233
703,5	1295,948
703,9	1280,29
704,3	1272,776
704,8	1262,005
705,2	1256,605
705,6	1245,29
706,1	1237,376
706,5	1228,662
707	1222,69
707,4	1216,49
707,8	1206,662
708,3	1197,405
708,7	1189,405
709,2	1187,948
709,6	1177,805
710	1166,433
710,5	1157,805
710,9	1151,49
711,3	1144,748
711,8	1139,348
712,2	1125,033
712,7	1120,433
713,1	1116,29
713,5	1107,748
714	1102,919
714,4	1092,89
714,8	1085,205
715,3	1081,262
715,7	1072,319
716,2	1066,119
716,6	1060,605
717	1051,119
717,5	1044,348
717,9	1036,148
718,3	1024,376
718,8	1017,89
719,2	1003,148
719,7	991,29
720,1	984,005
720,5	979,519
721	971,805
721,4	969,919
721,8	962,376
722,3	957,805
722,7	954,519
723,2	949,319
723,6	939,462
724	932,69
724,5	921,662
724,9	913,919
725,3	905,605
725,8	899,148
726,2	885,948
726,7	878,976
727,1	870,748
727,5	862,719
728	856,233
728,4	853,805
728,8	843,205
729,3	839,176
729,7	835,519
730,1	834,862
730,6	829,09
731	825,09
731,5	818,205
731,9	818,576
732,3	819,633
732,8	814,29
733,2	805,348
733,6	803,776
734,1	801,405
734,5	796,09
734,9	782,519
735,4	775,062
735,8	767,348
736,3	764,49
736,7	760,319
737,1	752,976
737,6	744,89
738	749,176
738,4	738,69
738,9	736,148
739,3	729,062
739,7	722,662
740,2	718,176
740,6	717,662
741,1	706,662
741,5	708,719
741,9	704,719
742,4	700,405
742,8	701,376
743,2	699,748
743,7	691,548
744,1	694,433
744,5	689,062
745	679,262
745,4	675,719
745,8	662,948
746,3	655,176
746,7	654,948
747,2	647,862
747,6	641,89
748	642,319
748,5	638,69
748,9	635,062
749,3	627,49
749,8	625,633
750,2	616,148
750,6	613,976
751,1	605,49
751,5	599,49
751,9	593,89
752,4	586,262
752,8	579,89
753,3	579,919
753,7	567,719
754,1	563,033
754,6	562,033
755	560,119
755,4	564,69
755,9	557,833
756,3	553,948
756,7	555,805
757,2	552,89
757,6	547,119
758	543,748
758,5	540,89
758,9	536,519
759,3	529,033
759,8	525,49
760,2	520,29
760,6	517,29
761,1	515,462
761,5	512,148
761,9	510,176
762,4	508,748
762,8	504,033
763,3	501,405
763,7	494,548
764,1	492,49
764,6	485,748
765	479,405
765,4	477,376
765,9	476,405
766,3	475,805
766,7	474,948
767,2	467,948
767,6	469,462
768	470,662
768,5	468,319
768,9	465,205
769,3	459,633
769,8	459,262
770,2	457,29
770,6	448,205
771,1	445,462
771,5	443,205
771,9	442,29
772,4	441,29
772,8	437,005
773,2	432,776
773,7	427,919
774,1	422,776
774,5	412,662
775	403,176
775,4	398,119
775,8	395,233
776,3	391,005
776,7	391,405
777,1	388,09
777,6	388,462
778	391,29
778,4	392,976
778,9	388,833
779,3	388,262
779,7	385,805
780,2	392,119
780,6	387,976
781	377,805
781,5	370,576
781,9	368,519
782,3	364,205
782,8	361,005
783,2	350,948
783,6	351,348
784,1	353,29
784,5	351,033
784,9	347,69
785,4	343,062
785,8	339,062
786,2	331,576
786,7	330,062
787,1	328,862
787,5	328,662
788	326,233
788,4	325,148
788,8	323,233
789,3	325,119
789,7	322,49
790,1	319,519
790,6	315,405
791	314,576
791,4	315,862
791,9	311,662
792,3	310,69
792,7	305,519
793,2	303,262
793,6	301,405
794	296,005
794,5	289,662
794,9	293,405
795,3	295,205
795,8	297,662
796,2	296,319
796,6	294,948
797,1	288,405
797,5	288,69
797,9	283,862
798,4	276,976
798,8	272,062
799,2	270,862
799,7	269,119
800,1	272,262
800,5	268,662
801	268,405
801,4	267,89
801,8	260,633
802,2	258,976
802,7	259,49
803,1	259,233
803,5	256,605
804	253,49
804,4	247,49
804,8	253,348
805,3	251,176
805,7	245,576
806,1	242,948
806,6	244,262
807	242,776
807,4	243,376
807,9	237,348
808,3	231,29
808,7	226,805
809,2	225,233
809,6	221,662
810	216,748
810,4	217,348
810,9	216,748
811,3	220,062
811,7	226,119
812,2	222,462
812,6	219,319
813	216,433
813,5	211,033
813,9	206,948
814,3	200,033
814,8	193,119
815,2	190,976
815,6	190,519
816,1	193,233
816,5	196,748
816,9	193,776
817,3	194,948
817,8	192,719
818,2	191,119
818,6	191,148
819,1	187,033
819,5	180,262
819,9	184,605
820,4	185,119
820,8	181,319
821,2	182,062
821,7	179,662
822,1	177,49
822,5	180,69
822,9	177,605
823,4	172,748
823,8	172,062
824,2	171,576
824,7	171,605
825,1	168,833
825,5	158,605
826	160,148
826,4	158,262
826,8	158,89
827,3	156,633
827,7	157,748
828,1	159,09
828,5	158,262
829	152,205
829,4	146,69
829,8	147,205
830,3	147,976
830,7	139,148
831,1	138,548
831,6	140,919
832	145,748
832,4	149,605
832,8	144,862
833,3	139,09
833,7	139,805
834,1	137,148
834,6	138,233
835	135,69
835,4	133,176
835,8	135,062
836,3	137,205
836,7	141,633
837,1	140,576
837,6	137,005
838	130,719
838,4	132,776
838,9	130,89
839,3	132,719
839,7	133,433
840,1	131,462
840,6	132,119
841	135,462
841,4	131,748
841,9	131,205
842,3	123,633
842,7	116,89
843,1	119,719
843,6	119,033
844	115,89
844,4	115,462
844,9	108,976
845,3	111,49
845,7	109,719
846,2	109,348
846,6	105,919
847	106,29
847,4	103,376
847,9	106,519
848,3	106,519
848,7	104,233
849,2	102,348
849,6	98,576
850	101,233
850,4	103,033
850,9	104,29
851,3	103,605
851,7	102,319
852,2	100,319
852,6	101,005
853	91,976
853,4	89,29
853,9	86,605
854,3	84,976
854,7	87,062
855,2	90,519
855,6	92,29
856	94,176
856,4	94,805
856,9	93,148
857,3	88,662
857,7	91,433
858,2	82,148
858,6	81,462
859	79,548
859,4	80,833
859,9	80,49
860,3	83,976
860,7	80,176
861,1	85,805
861,6	89,576
862	88,09
862,4	81,862
862,9	82,776
863,3	77,005
863,7	77,119
864,1	70,919
864,6	67,89
865	70,919
865,4	71,433
865,9	69,062
866,3	75,976
866,7	77,119
867,1	74,976
867,6	75,976
868	80,833
868,4	81,09
868,8	82,49
869,3	78,605
869,7	74,205
870,1	79,976
870,6	74,376
871	79,748
871,4	78,519
871,8	79,09
872,3	76,576
872,7	78,548
873,1	74,976
873,5	76,833
874	61,89
874,4	62,548
874,8	62,462
875,3	62,862
875,7	60,29
876,1	57,633
876,5	57,148
877	60,148
877,4	64,976
877,8	63,405
878,2	63,462
878,7	66,862
879,1	69,233
879,5	66,176
879,9	66,033
880,4	66,919
880,8	65,319
881,2	66,205
881,7	62,005
882,1	60,948
882,5	61,319
882,9	58,805
883,4	54,462
883,8	53,262
884,2	47,919
884,6	47,919
885,1	45,176
885,5	44,319
885,9	46,833
886,3	46,776
886,8	45,519
887,2	47,89
887,6	44,633
888	47,433
888,5	46,976
888,9	45,662
889,3	44,576
889,8	47,148
890,2	44,605
890,6	45,348
891	44,69
891,5	46,576
891,9	45,148
892,3	44,576
892,7	46,605
893,2	48,205
893,6	51,176
894	53,262
894,4	52,662
894,9	49,605
895,3	47,719
895,7	41,033
896,1	41,319
896,6	42,148
897	39,548
897,4	40,348
897,8	41,348
898,3	45,976
898,7	45,405
899,1	44,69
899,5	43,005
900	42,49
900,4	41,862
900,8	38,519
901,2	30,776
901,7	31,576
902,1	34,062
902,5	26,319
902,9	23,205
903,4	19,862
903,8	22,319
904,2	29,776
904,6	34,09
905,1	32,433
905,5	42,119
905,9	46,833
906,3	47,005
906,8	49,176
907,2	44,09
907,6	43,805
908	38,662
908,5	36,233
908,9	37,205
909,3	38,176
909,7	37,09
910,2	38,005
910,6	33,376
911	30,119
911,4	22,776
911,9	15,662
912,3	12,69
912,7	8,719
913,1	6,805
913,6	2,89
914	9,633
914,4	14,748
914,8	17,348
915,3	17,462
915,7	21,462
916,1	26,262
916,5	32,833
916,9	29,833
917,4	30,605
917,8	26,033
918,2	30,262
918,6	28,605
919,1	23,319
919,5	23,262
919,9	26,605
920,3	26,205
920,8	33,405
921,2	28,005
921,6	28,805
922	29,776
922,5	30,033
922,9	28,662
923,3	26,662
923,7	28,576
924,2	32,576
924,6	32,605
925	32,519
925,4	29,605
925,8	29,29
926,3	34,576
926,7	29,69
927,1	24,805
927,5	25,976
928	22,005
928,4	22,433
928,8	20,176
929,2	16,405
929,7	14,719
930,1	18,29
930,5	21,319
930,9	24,062
931,3	24,348
931,8	23,376
932,2	23,405
932,6	27,005
933	27,805
933,5	23,662
933,9	20,462
934,3	18,605
934,7	19,605
935,2	22,833
935,6	21,233
936	17,833
936,4	18,148
936,8	20,462
937,3	16,89
937,7	15,319
938,1	5,833
938,5	0,233
939	2,176
939,4	1,433
939,8	4,576
940,2	8,405
940,6	9,919
941,1	17,462
941,5	23,09
941,9	23,805
942,3	22,376
942,8	22,833
943,2	27,662
943,6	29,005
944	20,919
944,4	20,833
944,9	18,89
945,3	19,89
945,7	14,89
946,1	8,348
946,6	8,948
947	12,805
947,4	7,319
947,8	9,89
948,2	9,948
948,7	9,548
949,1	11,262
949,5	9,605
949,9	10,605
950,3	13,805
950,8	11,605
951,2	10,833
951,6	12,29
952	13,233
952,5	11,862
952,9	11,776
953,3	10,948
953,7	12,376
954,1	13,033
954,6	15,348
955	13,29
955,4	19,405
955,8	18,433
956,2	20,633
956,7	17,776
957,1	15,062
957,5	15,148
957,9	16,119
958,3	11,633
958,8	8,976
959,2	7,976
959,6	7,119
960	11,005
960,5	5,605
960,9	8,433
961,3	5,69
961,7	7,405
962,1	8,748
962,6	7,862
963	2,862
963,4	7,319
963,8	4,233
964,2	8,29
964,7	10,633
965,1	3,576
965,5	9,776
965,9	14,605
966,3	11,862
966,8	15,376
967,2	8,833
967,6	6,176
968	12,262
968,4	8,805
968,9	5,69
969,3	7,576
969,7	-0,538
970,1	1,862
970,5	-0,995
971	-3,452
971,4	-4,681
971,8	-4,338
972,2	-3,567
972,6	0,062
973,1	3,348
973,5	8,148
973,9	8,062
974,3	9,633
974,7	8,462
975,2	4,89
975,6	4,519
976	3,29
976,4	1,948
976,8	2,719
977,3	0,519
977,7	2,29
978,1	5,89
978,5	7,29
978,9	7,862
979,4	10,633
979,8	11,662
980,2	11,748
980,6	13,433
981	11,148
981,5	10,405
981,9	7,29
982,3	5,69
982,7	4,29
983,1	2,576
983,6	3,719
984	2,719
984,4	3,862
984,8	8,862
985,2	8,748
985,6	11,433
986,1	13,662
986,5	10,376
986,9	11,605
987,3	10,89
987,7	8,09
988,2	10,605
988,6	9,862
989	7,662
989,4	7,376
989,8	4,805
990,3	5,119
990,7	7,205
991,1	6,062
991,5	6,919
991,9	5,976
992,3	3,748
992,8	3,176
993,2	1,833
993,6	-2,71
994	-4,624
994,4	-1,795
994,9	5,062
995,3	9,605
995,7	11,176
996,1	10,805
996,5	10,605
996,9	8,719
997,4	4,462
997,8	3,519
998,2	1,662
998,6	5,376
999	7,119
999,5	10,862
999,9	13,748
1000,3	14,348
1000,7	9,548
1001,1	7,119
1001,5	10,033
1002	13,262
1002,4	13,29
1002,8	14,576
1003,2	15,262
1003,6	18,319
1004	21,462
1004,5	12,262
1004,9	5,776
1005,3	6,033
1005,7	2,948
1006,1	3,062
1006,6	0,09
1007	-1,424
1007,4	-0,31
1007,8	6,748
1008,2	10,462
1008,6	9,205
1009,1	8,919
1009,5	12,576
1009,9	13,09
1010,3	17,49
1010,7	14,805
1011,1	12,89
1011,6	14,233
1012	14,548
1012,4	15,205
1012,8	10,776
1013,2	10,605
1013,6	10,062
1014,1	6,89
1014,5	5,29
1014,9	7,348
1015,3	6,576
1015,7	11,433
1016,1	9,49
1016,6	5,662
1017	5,519
1017,4	6,319
1017,8	-4,538
1018,2	-8,567
1018,6	-10,338
1019,1	-9,595
1019,5	-7,11
1019,9	-5,31
1020,3	-1,51
1020,7	6,719
1021,1	8,49
1021,6	9,405
1022	8,176
1022,4	9,89
1022,8	8,919
1023,2	5,176
1023,6	2,348
1024,1	-1,052
1024,5	-3,995
1024,9	-1,224
1025,3	-5,138
1025,7	-3,424
1026,1	-1,852
1026,6	3,376
1027	2,719
1027,4	8,062
1027,8	2,005
1028,2	1,862
1028,6	5,519
1029	1,176
1029,5	-0,195
1029,9	6,662
1030,3	5,49
1030,7	11,719
1031,1	15,433
1031,5	9,576
1032	15,576
1032,4	13,748
1032,8	15,633
1033,2	14,205
1033,6	13,033
1034	13,776
1034,4	13,776
1034,9	12,29
1035,3	14,233
1035,7	9,633
1036,1	9,119
1036,5	11,548
1036,9	12,49
1037,4	12,948
1037,8	13,29
1038,2	9,605
1038,6	11,176
1039	12,748
1039,4	8,033
1039,8	5,748
1040,3	6,548
1040,7	6,319
1041,1	7,49
1041,5	9,462
1041,9	10,433
1042,3	9,519
1042,7	5,69
1043,2	5,29
1043,6	5,805
1044	7,09
1044,4	5,376
1044,8	3,348
1045,2	6,005
1045,6	7,662
1046,1	8,205
1046,5	7,233
1046,9	5,09
1047,3	5,29
1047,7	6,89
1048,1	5,148
1048,5	7,376
1049	8,319
1049,4	7,69
1049,8	5,49
1050,2	5,062
1050,6	2,119
1051	4,205
1051,4	3,062
1051,9	-0,767
1052,3	1,376
1052,7	5,576
1053,1	6,033
1053,5	9,205
1053,9	9,29
1054,3	6,319
1054,8	7,262
1055,2	1,548
1055,6	3,862
1056	2,633
1056,4	2,205
1056,8	3,205
1057,2	6,09
1057,6	11,519
1058,1	18,748
1058,5	14,662
1058,9	11,576
1059,3	11,548
1059,7	7,633
1060,1	6,805
1060,5	-2,338
1061	-7,11
1061,4	-3,11
1061,8	-0,024
1062,2	-1,881
1062,6	0,89
1063	3,519
1063,4	10,719
1063,8	14,148
1064,3	10,29
1064,7	11,69
1065,1	12,89
1065,5	16,033
1065,9	14,148
1066,3	12,948
1066,7	10,89
1067,1	10,519
1067,6	10,919
1068	9,576
1068,4	5,033
1068,8	2,09
1069,2	2,033
1069,6	0,119
1070	4,605
1070,4	3,29
1070,9	4,662
1071,3	8,319
1071,7	13,262
1072,1	7,348
1072,5	11,605
1072,9	7,262
1073,3	10,348
1073,7	14,233
1074,2	10,148
1074,6	4,748
1075	7,69
1075,4	4,662
1075,8	6,405
1076,2	4,976
1076,6	2,262
1077	1,119
1077,5	7,576
1077,9	7,29
1078,3	5,433
1078,7	-1,138
1079,1	-3,452
1079,5	-5,138
1079,9	-3,195
1080,3	-8,11
1080,7	-3,338
1081,2	3,919
1081,6	7,09
1082	8,719
1082,4	6,176
1082,8	9,719
1083,2	12,405
1083,6	6,062
1084	-0,481
1084,5	7,548
1084,9	0,862
1085,3	-1,624
1085,7	-2,967
1086,1	-6,481
1086,5	-5,452
1086,9	-2,938
1087,3	-11,852
1087,7	-10,167
1088,2	-2,024
1088,6	-2,967
1089	-0,738
1089,4	0,89
1089,8	-0,995
1090,2	1,919
1090,6	4,805
1091	2,69
1091,4	1,548
1091,9	2,033
1092,3	4,576
1092,7	6,976
1093,1	3,948
1093,5	6,605
1093,9	7,09
1094,3	5,348
1094,7	7,09
1095,1	6,462
1095,5	2,605
1096	4,805
1096,4	1,576
1096,8	-0,338
1097,2	1,919
1097,6	1,805
1098	1,405
1098,4	3,348
1098,8	3,233
1099,2	1,033
1099,6	-0,31
1100,1	2,348
1100,5	0,376
1100,9	3,833
1101,3	3,233
1101,7	4,805
1102,1	10,405
1102,5	7,462
1102,9	3,49
1103,3	3,462
1103,7	-1,252
1104,2	1,633
1104,6	3,69
1105	3,433
1105,4	7,919
1105,8	8,748
1106,2	8,376
1106,6	8,233
1107	6,519
1107,4	4,233
1107,8	1,553
1108,3	0,633
