Data from Subt2_00023.txt Node
Date: Mon Aug 28 13:10:46 MSK 2023
User: vat
Spectrometer: MAYP114033
Trigger mode: 0
Integration Time (sec): 1,000000E0
Scans to average: 5
Electric dark correction enabled: true
Nonlinearity correction enabled: false
Boxcar width: 3
XAxis mode: Wavelengths
Number of Pixels in Spectrum: 2068
>>>>>Begin Spectral Data<<<<<
199,4	-0,75
199,9	-0,56
200,4	0,4
200,8	3,657
201,3	3
201,8	3,286
202,2	3,914
202,7	4,143
203,2	6,343
203,6	8,543
204,1	6,4
204,6	9,2
205	11,943
205,5	14,314
206	14,286
206,4	12,657
206,9	13,743
207,4	14,886
207,8	14,571
208,3	15,029
208,8	18
209,2	16,886
209,7	17,686
210,2	12
210,6	12,057
211,1	12,914
211,5	13,629
212	8,886
212,5	12,6
212,9	12,714
213,4	17,457
213,9	19,457
214,3	16,771
214,8	14,314
215,3	13,371
215,7	15,114
216,2	18,743
216,7	16,857
217,1	14,429
217,6	14,143
218,1	11,771
218,5	12,914
219	9,886
219,5	8,171
219,9	9
220,4	8,229
220,9	10,543
221,3	13,686
221,8	15,514
222,3	21,571
222,7	21,771
223,2	21,886
223,6	24,429
224,1	27,629
224,6	28,257
225	26,543
225,5	20,914
226	19,8
226,4	19,629
226,9	16,657
227,4	15,971
227,8	15,229
228,3	16,257
228,8	16,771
229,2	18,714
229,7	17,771
230,2	13,686
230,6	7,4
231,1	6,543
231,5	6,829
232	10,857
232,5	5,371
232,9	1,086
233,4	9,4
233,9	15,771
234,3	15,343
234,8	18,143
235,3	10,286
235,7	12,114
236,2	13,286
236,7	8,314
237,1	13,2
237,6	13,829
238,1	10,829
238,5	13,029
239	14
239,4	17,657
239,9	23,057
240,4	16,029
240,8	17,2
241,3	23,429
241,8	25,971
242,2	31,829
242,7	36,543
243,2	33,229
243,6	35,543
244,1	33,114
244,6	28,171
245	31,086
245,5	25,571
245,9	16,029
246,4	16,257
246,9	14,4
247,3	14,486
247,8	9,4
248,3	5,4
248,7	8,371
249,2	14,229
249,7	16,286
250,1	14,314
250,6	16,257
251	16,429
251,5	16,886
252	10,057
252,4	10,657
252,9	9,029
253,4	12,086
253,8	7,743
254,3	8,314
254,8	8,314
255,2	10,429
255,7	11,314
256,1	12,971
256,6	11,029
257,1	12,314
257,5	12,343
258	8,657
258,5	6,914
258,9	4,657
259,4	3,943
259,9	-0,514
260,3	5,971
260,8	10,486
261,2	13,143
261,7	18,6
262,2	19,857
262,6	14,743
263,1	16,229
263,6	9,971
264	10,086
264,5	10,4
264,9	9,8
265,4	8,114
265,9	12,114
266,3	17,686
266,8	19,886
267,3	18,571
267,7	16,543
268,2	13,829
268,7	15,829
269,1	17,114
269,6	17,943
270	19,6
270,5	18,114
271	24,343
271,4	25,029
271,9	28,171
272,4	26,514
272,8	24,143
273,3	23,6
273,7	21,514
274,2	17,4
274,7	15,6
275,1	8,086
275,6	10,543
276,1	9,057
276,5	12,171
277	17,314
277,4	17,086
277,9	16,4
278,4	14,257
278,8	12,171
279,3	10,886
279,8	3,371
280,2	-1,114
280,7	-0,629
281,1	1,029
281,6	8,971
282,1	7,6
282,5	11,657
283	12,571
283,4	13,857
283,9	13,971
284,4	14,914
284,8	12,2
285,3	13,886
285,8	12,686
286,2	12
286,7	8,8
287,1	8,886
287,6	9,971
288,1	13,286
288,5	10,086
289	10,314
289,5	11,686
289,9	17,971
290,4	19,629
290,8	18,657
291,3	13,743
291,8	19,543
292,2	16,457
292,7	14,4
293,1	13,4
293,6	10,486
294,1	10,314
294,5	10,829
295	7,086
295,5	8,029
295,9	13,343
296,4	15,114
296,8	17,943
297,3	17,457
297,8	11,657
298,2	8,143
298,7	12,343
299,1	11,571
299,6	9,286
300,1	7,657
300,5	9,914
301	20,886
301,5	20,743
301,9	18,2
302,4	14,457
302,8	14,457
303,3	14,086
303,8	11,2
304,2	4
304,7	7,543
305,1	9,371
305,6	12,6
306,1	13,771
306,5	15,6
307	19,686
307,4	21,8
307,9	21,229
308,4	19,429
308,8	18,029
309,3	17,514
309,8	18,971
310,2	17,743
310,7	20,343
311,1	17,886
311,6	18,2
312,1	19
312,5	17,2
313	13,343
313,4	12,543
313,9	10,086
314,4	16,029
314,8	13,486
315,3	14,886
315,7	14,714
316,2	15,314
316,7	11,486
317,1	9,943
317,6	5,743
318	7,514
318,5	7,029
319	11,543
319,4	12,829
319,9	13,286
320,3	17,371
320,8	21,543
321,3	20,914
321,7	17,857
322,2	13,657
322,6	11,229
323,1	11,4
323,6	8,829
324	6,371
324,5	8,514
324,9	10,8
325,4	12,457
325,9	14,771
326,3	15,514
326,8	13,543
327,2	12,514
327,7	9,629
328,2	7,714
328,6	6,971
329,1	5,714
329,5	2,714
330	5,571
330,5	7,829
330,9	7,829
331,4	10,171
331,8	12,029
332,3	12,314
332,8	12,714
333,2	10,914
333,7	11,057
334,1	13,4
334,6	12,829
335,1	11,971
335,5	13,229
336	17,371
336,4	20,971
336,9	16,8
337,4	16,829
337,8	20,686
338,3	19,971
338,7	19,571
339,2	18,286
339,7	17,943
340,1	20,229
340,6	14,714
341	7,686
341,5	7,8
342	5,6
342,4	9,6
342,9	7,257
343,3	8,057
343,8	7,171
344,2	12,143
344,7	14,714
345,2	13,829
345,6	14,029
346,1	15,057
346,5	10,143
347	15,486
347,5	15,2
347,9	10,343
348,4	10,343
348,8	3,914
349,3	4
349,8	6,314
350,2	4,971
350,7	2,6
351,1	1,743
351,6	6,229
352	13,4
352,5	16,429
353	19,743
353,4	21,686
353,9	21,857
354,3	25,543
354,8	22,743
355,3	22,057
355,7	17,486
356,2	16,029
356,6	18,743
357,1	23,571
357,5	26,914
358	28,2
358,5	28,914
358,9	35,486
359,4	42,029
359,8	46,057
360,3	48,657
360,8	51,029
361,2	59,857
361,7	63,486
362,1	66,4
362,6	71,2
363	75,943
363,5	82,771
364	91,457
364,4	101,057
364,9	112,657
365,3	126,686
365,8	137,029
366,3	146,514
366,7	160,686
367,2	172,257
367,6	179,286
368,1	187,971
368,5	188,314
369	191
369,5	195,057
369,9	190,771
370,4	187,971
370,8	187,4
371,3	183,8
371,7	183,4
372,2	185,229
372,7	181,029
373,1	181,4
373,6	171,314
374	160,829
374,5	152,086
374,9	143,286
375,4	126,2
375,9	115,657
376,3	104,971
376,8	105,571
377,2	98,714
377,7	97,429
378,2	91,914
378,6	92,886
379,1	87,743
379,5	81,714
380	73,657
380,4	74,057
380,9	67,514
381,4	64,143
381,8	63,743
382,3	65,4
382,7	63,629
383,2	59,114
383,6	54
384,1	50,429
384,6	53,657
385	51,686
385,5	47,8
385,9	43,486
386,4	44,457
386,8	47,543
387,3	43,514
387,7	37,8
388,2	31,914
388,7	33,229
389,1	29,371
389,6	30,543
390	23,143
390,5	24,457
390,9	24,8
391,4	22,686
391,9	18,743
392,3	26
392,8	25,914
393,2	29,543
393,7	25,086
394,1	27,714
394,6	29,914
395,1	26,771
395,5	23,771
396	18,114
396,4	15,486
396,9	19,971
397,3	14,429
397,8	8,686
398,2	11,486
398,7	12,343
399,2	14,571
399,6	14,686
400,1	15,257
400,5	20,257
401	27,971
401,4	29,857
401,9	27,943
402,4	27,943
402,8	26,629
403,3	25,771
403,7	19,229
404,2	19,743
404,6	15,229
405,1	21,257
405,5	17,571
406	18,457
406,5	17,914
406,9	19,371
407,4	21,229
407,8	25,971
408,3	19,886
408,7	22,743
409,2	24,571
409,6	24,8
410,1	27,2
410,6	23,771
411	21,829
411,5	24,657
411,9	30,143
412,4	32,343
412,8	32,343
413,3	34,543
413,7	37,229
414,2	37,886
414,7	42,086
415,1	40,086
415,6	39,886
416	45,886
416,5	49,514
416,9	53,257
417,4	61,571
417,8	59,829
418,3	60,286
418,8	63,8
419,2	67,543
419,7	68,314
420,1	69,6
420,6	63,4
421	69,743
421,5	77,029
421,9	81,6
422,4	84,686
422,8	88,114
423,3	88,257
423,8	93,857
424,2	93,229
424,7	93,8
425,1	99,829
425,6	101,629
426	106,143
426,5	112,114
426,9	118,429
427,4	127,857
427,9	133,057
428,3	135,8
428,8	139,143
429,2	141,6
429,7	144,971
430,1	148,943
430,6	154,4
431	162
431,5	161,857
431,9	168,543
432,4	174,029
432,8	183
433,3	194,171
433,8	204,371
434,2	207,514
434,7	218,829
435,1	229,571
435,6	242,714
436	253,114
436,5	259,143
436,9	266,6
437,4	280,743
437,8	294,086
438,3	305,771
438,8	317,8
439,2	331,171
439,7	348,286
440,1	359,029
440,6	373,571
441	385,229
441,5	398,543
441,9	411,886
442,4	424,343
442,8	442,771
443,3	458,543
443,7	472,371
444,2	487,4
444,7	506,914
445,1	525,286
445,6	547,914
446	565,8
446,5	585,057
446,9	606
447,4	632,514
447,8	652,686
448,3	675,657
448,7	691,257
449,2	701,314
449,6	727,229
450,1	750,229
450,6	769,971
451	788,286
451,5	810,371
451,9	838,914
452,4	862,686
452,8	880,629
453,3	899,029
453,7	916,371
454,2	937,771
454,6	956,543
455,1	973,371
455,5	1000,743
456	1018,943
456,4	1045,257
456,9	1069,514
457,3	1098,6
457,8	1121,886
458,3	1151,886
458,7	1173,943
459,2	1195,571
459,6	1215,657
460,1	1243,029
460,5	1260,8
461	1273,4
461,4	1287,771
461,9	1309,914
462,3	1341,286
462,8	1361
463,2	1378,029
463,7	1391,229
464,1	1417,571
464,6	1434
465	1448,171
465,5	1457,2
466	1476,686
466,4	1492,629
466,9	1520,343
467,3	1539,314
467,8	1561,457
468,2	1581,2
468,7	1602,914
469,1	1620,2
469,6	1636,771
470	1646,8
470,5	1658,086
470,9	1673,371
471,4	1693,829
471,8	1705,257
472,3	1716,143
472,7	1728,857
473,2	1744,829
473,6	1763,686
474,1	1779,257
474,5	1789,8
475	1799,429
475,4	1808,343
475,9	1818,943
476,4	1823,514
476,8	1822,629
477,3	1827,886
477,7	1835,429
478,2	1843,8
478,6	1859,857
479,1	1865,971
479,5	1878,457
480	1891,771
480,4	1894,257
480,9	1895,4
481,3	1903,114
481,8	1898,914
482,2	1899,114
482,7	1893,686
483,1	1896,8
483,6	1894,686
484	1897,714
484,5	1896,743
484,9	1898,286
485,4	1902,857
485,8	1903,971
486,3	1898,114
486,7	1900,314
487,2	1895,686
487,6	1888,229
488,1	1883,657
488,5	1875,971
489	1878,429
489,4	1869,943
489,9	1862,486
490,4	1860,171
490,8	1857,429
491,3	1855,857
491,7	1846,743
492,2	1833,371
492,6	1826,486
493,1	1816,114
493,5	1797,686
494	1786,4
494,4	1776,857
494,9	1769,543
495,3	1759,857
495,8	1758,971
496,2	1748,943
496,7	1742,114
497,1	1732,6
497,6	1722,686
498	1715,314
498,5	1709,457
498,9	1699,229
499,4	1690,629
499,8	1685,229
500,3	1677,886
500,7	1663,029
501,2	1652,257
501,6	1640,486
502,1	1627,886
502,5	1617
503	1599,943
503,4	1588,257
503,9	1578,2
504,3	1564,8
504,8	1551,6
505,2	1542,114
505,7	1534,2
506,1	1527,371
506,6	1509,514
507	1500,314
507,5	1492,4
507,9	1477,857
508,4	1459,571
508,8	1443,171
509,3	1427,343
509,7	1417,571
510,2	1398,657
510,6	1380,886
511,1	1371,743
511,5	1359,857
512	1347,371
512,4	1335,971
512,9	1324,371
513,3	1313,457
513,8	1304,629
514,2	1294,514
514,7	1283,486
515,1	1273,171
515,6	1257,057
516	1243,514
516,5	1225,743
516,9	1209,086
517,4	1189,771
517,8	1176,714
518,3	1161,114
518,7	1153,914
519,2	1143,857
519,6	1139,571
520,1	1129,914
520,5	1117,943
521	1108,686
521,4	1092,571
521,9	1078,371
522,3	1067,743
522,8	1053,229
523,2	1042,429
523,7	1030,743
524,1	1017,943
524,6	1011,029
525	1000,429
525,5	989,514
525,9	982,229
526,4	969
526,8	958,257
527,3	946,486
527,7	936,057
528,2	919,657
528,6	909,057
529,1	893,4
529,5	883,229
530	874,4
530,4	860,486
530,9	850,971
531,3	850,114
531,8	839,171
532,2	830,629
532,6	821,086
533,1	811,886
533,5	801,971
534	794,886
534,4	782,886
534,9	771,743
535,3	760,486
535,8	752,2
536,2	746,171
536,7	740,171
537,1	725,143
537,6	713,943
538	706,486
538,5	701,629
538,9	690,543
539,4	680,629
539,8	672,486
540,3	666,371
540,7	663,714
541,2	655,657
541,6	648
542,1	637,4
542,5	633,571
543	625,743
543,4	617,429
543,9	604,057
544,3	594,857
544,8	585,257
545,2	583,4
545,7	574,457
546,1	569,6
546,5	564,743
547	562,486
547,4	553,229
547,9	550,829
548,3	544
548,8	535,6
549,2	526,143
549,7	515,886
550,1	506,514
550,6	502,914
551	498,886
551,5	485,943
551,9	483,229
552,4	479
552,8	480,571
553,3	477,2
553,7	473,971
554,2	463,629
554,6	458,314
555,1	449,029
555,5	440,943
555,9	431,886
556,4	424,829
556,8	417,714
557,3	413,914
557,7	414,343
558,2	409,143
558,6	407,914
559,1	406,971
559,5	405,543
560	400,571
560,4	392,857
560,9	390,914
561,3	384,457
561,8	379,771
562,2	370,086
562,7	360,657
563,1	358,914
563,6	355,657
564	349,143
564,4	346,6
564,9	338,029
565,3	334,314
565,8	330,371
566,2	326,029
566,7	324,543
567,1	323,714
567,6	321,057
568	322,057
568,5	320,086
568,9	318,457
569,4	313,914
569,8	303,371
570,3	298,229
570,7	296,6
571,1	288,514
571,6	280,629
572	279,4
572,5	275,343
572,9	277,714
573,4	279,029
573,8	276,314
574,3	274,286
574,7	274,429
575,2	271,171
575,6	271,829
576,1	268,371
576,5	262,629
576,9	253,286
577,4	256,8
577,8	251,943
578,3	250,543
578,7	243,629
579,2	242,2
579,6	234,514
580,1	235,029
580,5	227,371
581	231,229
581,4	225,486
581,9	226,771
582,3	225,657
582,7	226,4
583,2	223,057
583,6	219,457
584,1	219,943
584,5	216,257
585	211,257
585,4	207,286
585,9	203,971
586,3	203,457
586,8	200,486
587,2	193,743
587,6	190,743
588,1	192,371
588,5	188,086
589	184,2
589,4	178,057
589,9	180,4
590,3	179,343
590,8	183,114
591,2	175,057
591,7	173,457
592,1	172,086
592,5	175,886
593	171,686
593,4	165,8
593,9	160,514
594,3	162,743
594,8	159,743
595,2	161,343
595,7	156,029
596,1	154,914
596,6	153,771
597	155,314
597,4	151,829
597,9	150,114
598,3	151,143
598,8	151,771
599,2	146,971
599,7	148,114
600,1	143,486
600,6	138,514
601	139,714
601,4	131,686
601,9	131,457
602,3	134,8
602,8	133,086
603,2	129,857
603,7	128,286
604,1	125,029
604,6	126,829
605	125,143
605,4	123,714
605,9	119,914
606,3	124,057
606,8	126,2
607,2	128
607,7	125,743
608,1	118,257
608,6	112,6
609	112,486
609,4	106,171
609,9	107,743
610,3	105,257
610,8	109,143
611,2	116,2
611,7	117,286
612,1	115,514
612,6	114
613	107,2
613,4	105,314
613,9	101,514
614,3	99,143
614,8	97,829
615,2	99,486
615,7	103,886
616,1	105,829
616,6	110,457
617	107,4
617,4	103,743
617,9	105,429
618,3	101,114
618,8	98,829
619,2	96,943
619,7	92,029
620,1	93,457
620,5	90,114
621	90,4
621,4	93,914
621,9	88,314
622,3	91,343
622,8	89,857
623,2	88,543
623,6	93,857
624,1	94,114
624,5	93,286
625	96,257
625,4	93,829
625,9	94,286
626,3	97,457
626,8	95,029
627,2	88,114
627,6	86
628,1	85,971
628,5	82,771
629	86,6
629,4	78,114
629,9	76,429
630,3	77,229
630,7	77,8
631,2	76,457
631,6	77,086
632,1	75,514
632,5	82,514
633	83,8
633,4	86,943
633,8	82,257
634,3	79,286
634,7	77,857
635,2	77,943
635,6	72,886
636,1	69,343
636,5	68,771
636,9	71,286
637,4	73,143
637,8	75,057
638,3	72,857
638,7	73
639,2	74,914
639,6	75,714
640	73,6
640,5	77,714
640,9	77,114
641,4	77
641,8	74,257
642,2	76,486
642,7	74,914
643,1	75,029
643,6	70,371
644	75,343
644,5	75,114
644,9	79,429
645,3	76
645,8	73,057
646,2	73,943
646,7	72,457
647,1	63,686
647,6	64,114
648	61,514
648,4	63,286
648,9	61,657
649,3	59,914
649,8	61,629
650,2	64,4
650,6	56,714
651,1	53,229
651,5	45,086
652	49,057
652,4	48,914
652,9	47,086
653,3	43,943
653,7	45,086
654,2	47,857
654,6	52,857
655,1	49,6
655,5	50,371
655,9	48,314
656,4	53,086
656,8	56,229
657,3	57,543
657,7	55,857
658,2	57,086
658,6	55,343
659	57,6
659,5	53,571
659,9	57,4
660,4	58,857
660,8	55,629
661,2	51,771
661,7	54,629
662,1	53,8
662,6	59,229
663	54,314
663,4	52,314
663,9	57,714
664,3	57,029
664,8	51,4
665,2	54,943
665,6	50,086
666,1	46,914
666,5	43,114
667	39,286
667,4	45,029
667,9	49,857
668,3	48,743
668,7	44,171
669,2	43,286
669,6	41,486
670,1	44,686
670,5	45,314
670,9	40,743
671,4	33,371
671,8	39,171
672,3	40,343
672,7	46,4
673,1	47,514
673,6	45,6
674	47,486
674,5	50,714
674,9	48,8
675,3	47,6
675,8	44,743
676,2	36,457
676,7	36,286
677,1	38,629
677,5	40,571
678	39,343
678,4	42,371
678,9	40,857
679,3	47,143
679,7	42,914
680,2	41,743
680,6	38,943
681,1	40,029
681,5	41,4
681,9	43,029
682,4	42,857
682,8	45,086
683,3	46,429
683,7	46,371
684,1	42,229
684,6	38,543
685	33,114
685,5	30,057
685,9	26,029
686,3	28
686,8	33,114
687,2	37,514
687,7	38,543
688,1	43,286
688,5	42,4
689	48,571
689,4	40,057
689,9	39,057
690,3	33,143
690,7	37,914
691,2	39,257
691,6	41,8
692	40
692,5	42,029
692,9	36,486
693,4	42,229
693,8	35,171
694,2	30,086
694,7	26,229
695,1	28,229
695,6	32,343
696	31,629
696,4	32,857
696,9	31,457
697,3	37,857
697,8	40,857
698,2	36,371
698,6	33,114
699,1	35,514
699,5	31,743
699,9	36,314
700,4	34
700,8	33,886
701,3	34,743
701,7	33,743
702,1	31,686
702,6	28,286
703	27,229
703,5	24,714
703,9	24,686
704,3	21,971
704,8	26,114
705,2	32,771
705,6	37,657
706,1	34,6
706,5	37
707	43,629
707,4	49,029
707,8	46,914
708,3	43,286
708,7	45,057
709,2	46,457
709,6	44
710	36,8
710,5	32,171
710,9	34,143
711,3	33,086
711,8	29,343
712,2	30,286
712,7	29,686
713,1	31,029
713,5	33,914
714	28,886
714,4	27,114
714,8	27,486
715,3	32,771
715,7	32,029
716,2	35,914
716,6	34,314
717	38,714
717,5	39,229
717,9	38,057
718,3	34,314
718,8	36,343
719,2	32,286
719,7	33,2
720,1	29,971
720,5	32,943
721	34,171
721,4	32,914
721,8	31,371
722,3	30,2
722,7	29,743
723,2	31,943
723,6	30,286
724	33,257
724,5	30,686
724,9	30,457
725,3	25,286
725,8	28,257
726,2	24,629
726,7	24,771
727,1	24,114
727,5	23,229
728	18,971
728,4	25,686
728,8	21,2
729,3	23,914
729,7	22,914
730,1	18,457
730,6	20,371
731	26,229
731,5	26,686
731,9	27,629
732,3	28,714
732,8	28,943
733,2	33,2
733,6	38
734,1	38,686
734,5	37,429
734,9	34,657
735,4	30,171
735,8	31,571
736,3	24,057
736,7	19,886
737,1	18,571
737,6	15,486
738	18,914
738,4	20,486
738,9	20,229
739,3	26,686
739,7	27,286
740,2	24,771
740,6	28,4
741,1	21,971
741,5	22,486
741,9	21,714
742,4	24,743
742,8	21,457
743,2	28,171
743,7	29,8
744,1	36,829
744,5	40,686
745	39,057
745,4	36,543
745,8	40,714
746,3	35,914
746,7	30,629
747,2	25
747,6	23,486
748	26,2
748,5	26,743
748,9	25,829
749,3	27,8
749,8	29,571
750,2	28,771
750,6	25,571
751,1	21,2
751,5	19,971
751,9	20,171
752,4	24,286
752,8	24,286
753,3	29
753,7	27,457
754,1	31,343
754,6	30,857
755	30,029
755,4	26,057
755,9	25,743
756,3	27,571
756,7	31,686
757,2	24,286
757,6	22,8
758	21,4
758,5	19,771
758,9	20,571
759,3	16,343
759,8	14,686
760,2	23,6
760,6	29,229
761,1	31,371
761,5	29,571
761,9	27,886
762,4	30,4
762,8	32,286
763,3	30,829
763,7	27,943
764,1	24,857
764,6	25,629
765	29,143
765,4	29,257
765,9	29,4
766,3	29,943
766,7	30,171
767,2	33,343
767,6	38,971
768	35,657
768,5	32,486
768,9	24,629
769,3	21,829
769,8	19,171
770,2	16,029
770,6	7,914
771,1	6,4
771,5	6,771
771,9	12,143
772,4	13,657
772,8	11,057
773,2	16,086
773,7	17,629
774,1	21,914
774,5	22,114
775	22,857
775,4	22,457
775,8	23,2
776,3	17
776,7	17,429
777,1	14,257
777,6	10,6
778	7,829
778,4	5,057
778,9	7,629
779,3	11,029
779,7	14,314
780,2	13,943
780,6	19,743
781	21,771
781,5	23,371
781,9	24,543
782,3	20,743
782,8	17,057
783,2	16,8
783,6	18,229
784,1	15,486
784,5	15,343
784,9	15,543
785,4	17,857
785,8	18,2
786,2	17,571
786,7	15,6
787,1	20,971
787,5	22,343
788	19,4
788,4	23,714
788,8	22,057
789,3	23,143
789,7	21,686
790,1	24,257
790,6	23,714
791	21,771
791,4	19,171
791,9	20,114
792,3	23,286
792,7	23,514
793,2	21,286
793,6	22,371
794	25,571
794,5	23
794,9	26,057
795,3	26,257
795,8	29,371
796,2	21,143
796,6	21,171
797,1	22,886
797,5	23,6
797,9	23,829
798,4	20,771
798,8	18,457
799,2	21,371
799,7	17,6
800,1	16,771
800,5	19,057
801	20,086
801,4	21,686
801,8	22,514
802,2	25,486
802,7	26,457
803,1	26,914
803,5	24,457
804	21,629
804,4	20,629
804,8	20,743
805,3	23,543
805,7	24,4
806,1	22,657
806,6	27,457
807	27,057
807,4	27,486
807,9	24,629
808,3	18
808,7	21,086
809,2	20,371
809,6	18,771
810	23,143
810,4	25,486
810,9	29,143
811,3	34
811,7	30,314
812,2	28,829
812,6	26,543
813	25,086
813,5	23,943
813,9	20,429
814,3	16,457
814,8	16,286
815,2	18,514
815,6	17,657
816,1	15,629
816,5	13,029
816,9	14,8
817,3	17,857
817,8	19,057
818,2	16,914
818,6	19,229
819,1	18,714
819,5	16,314
819,9	19,486
820,4	21,571
820,8	22,514
821,2	24,429
821,7	21,371
822,1	21,6
822,5	27,943
822,9	25,286
823,4	20,8
823,8	20,057
824,2	20,571
824,7	19,629
825,1	18,686
825,5	15,971
826	10,6
826,4	13,543
826,8	12
827,3	12,286
827,7	15,314
828,1	16,571
828,5	18,943
829	23,229
829,4	17,286
829,8	21,457
830,3	18,886
830,7	16,486
831,1	17,629
831,6	13,8
832	15,971
832,4	18,229
832,8	8,257
833,3	7,971
833,7	5,057
834,1	4,886
834,6	4,2
835	3,714
835,4	0,4
835,8	3,457
836,3	4,657
836,7	9,457
837,1	4,286
837,6	1,343
838	-0,314
838,4	3,629
838,9	7,143
839,3	9,743
839,7	10,686
840,1	16,457
840,6	20,886
841	17,943
841,4	17,771
841,9	17,457
842,3	15,543
842,7	12
843,1	5
843,6	2,914
844	5,2
844,4	8,371
844,9	9,829
845,3	11,686
845,7	12,971
846,2	19,914
846,6	23,8
847	26,371
847,4	21,171
847,9	18,714
848,3	15,2
848,7	18,257
849,2	15,371
849,6	13,6
850	12,543
850,4	16
850,9	14,543
851,3	20,371
851,7	16,971
852,2	16,086
852,6	19,286
853	19,886
853,4	17,314
853,9	20,857
854,3	18,629
854,7	18,486
855,2	20,829
855,6	18,514
856	19,343
856,4	19,829
856,9	18,886
857,3	14,857
857,7	20,429
858,2	16,514
858,6	15,286
859	11,257
859,4	11,543
859,9	11,6
860,3	12,6
860,7	5,229
861,1	10,429
861,6	10,571
862	13,8
862,4	13,857
862,9	14,229
863,3	14,686
863,7	20,257
864,1	16,343
864,6	19,943
865	18,343
865,4	18
865,9	19,8
866,3	22,629
866,7	14,4
867,1	15,543
867,6	12,714
868	10,457
868,4	11,257
868,8	8,8
869,3	8,971
869,7	16,943
870,1	18,057
870,6	16,457
871	75
871,4	73,771
871,8	77,543
872,3	72,371
872,7	65,571
873,1	63,057
873,5	61,171
874	6,371
874,4	9,057
874,8	3,143
875,3	6,371
875,7	9,486
876,1	11,457
876,5	12,971
877	12,971
877,4	10,571
877,8	10,8
878,2	12,743
878,7	14,171
879,1	12,971
879,5	14,429
879,9	10,857
880,4	7,571
880,8	14,086
881,2	11,229
881,7	9,829
882,1	11,543
882,5	13,114
882,9	13,314
883,4	16,571
883,8	8,971
884,2	8,343
884,6	5,6
885,1	5,057
885,5	4,086
885,9	7,314
886,3	8,943
886,8	14,971
887,2	15,057
887,6	16,914
888	16,429
888,5	12,886
888,9	5,086
889,3	-0,057
889,8	-3,143
890,2	-5,286
890,6	-3,714
891	-2,714
891,5	0,4
891,9	7,057
892,3	13
892,7	12,457
893,2	14,571
893,6	10,829
894	11,171
894,4	7,543
894,9	9,857
895,3	4,4
895,7	7,6
896,1	3
896,6	7,886
897	10,771
897,4	12,457
897,8	9,457
898,3	13,343
898,7	8,429
899,1	15,314
899,5	13,514
900	8,857
900,4	8,029
900,8	-0,2
901,2	-2,086
901,7	1,2
902,1	0,257
902,5	1,2
902,9	0,2
903,4	2,229
903,8	12,143
904,2	19,343
904,6	17,514
905,1	16,6
905,5	15,714
905,9	14,857
906,3	14,6
906,8	10,457
907,2	5,857
907,6	6,114
908	4,514
908,5	1,171
908,9	3
909,3	4,057
909,7	7,143
910,2	6,657
910,6	10,657
911	11,686
911,4	13,914
911,9	17,143
912,3	18,171
912,7	16,4
913,1	13,314
913,6	11,914
914	16
914,4	15,829
914,8	13,2
915,3	12,6
915,7	17,6
916,1	19,571
916,5	16,057
916,9	12,4
917,4	13,343
917,8	10,686
918,2	10,171
918,6	3,857
919,1	4,6
919,5	9,771
919,9	11,029
920,3	7,971
920,8	15,486
921,2	14,971
921,6	16,514
922	15,6
922,5	13,086
922,9	15,029
923,3	23,029
923,7	15,657
924,2	15,829
924,6	16,286
925	16,371
925,4	16,029
925,8	15,514
926,3	10,114
926,7	9,057
927,1	7,086
927,5	11,229
928	10,886
928,4	6,943
928,8	4,971
929,2	8,6
929,7	16,514
930,1	18,629
930,5	14,086
930,9	18,171
931,3	23,286
931,8	23,314
932,2	20,686
932,6	14,429
933	12,6
933,5	16,514
933,9	14,286
934,3	11
934,7	12,486
935,2	10,629
935,6	12,771
936	8,914
936,4	6,743
936,8	7,257
937,3	8,971
937,7	7,857
938,1	13,429
938,5	13,057
939	18,029
939,4	19,743
939,8	17,314
940,2	16,229
940,6	12,086
941,1	6,686
941,5	8,457
941,9	9,429
942,3	8,543
942,8	10,829
943,2	7,486
943,6	11,2
944	11,8
944,4	10,114
944,9	7,029
945,3	6,286
945,7	7,629
946,1	8,686
946,6	4,829
947	5,257
947,4	-0,057
947,8	6,629
948,2	10,229
948,7	7,914
949,1	9,286
949,5	14,029
949,9	14,771
950,3	18,714
950,8	11,257
951,2	9,914
951,6	12,257
952	15,657
952,5	11,429
952,9	11,829
953,3	14,343
953,7	16,286
954,1	15,029
954,6	15,229
955	15
955,4	15,6
955,8	19,771
956,2	15,8
956,7	15,857
957,1	15,029
957,5	17,343
957,9	13,914
958,3	17,543
958,8	16,886
959,2	18,771
959,6	25,2
960	24,429
960,5	17,943
960,9	22,286
961,3	17,629
961,7	15,4
962,1	18,2
962,6	13,4
963	15,914
963,4	19,743
963,8	15
964,2	16,429
964,7	19,8
965,1	19,6
965,5	20,829
965,9	19,114
966,3	17,229
966,8	17,943
967,2	17,4
967,6	11,171
968	11,314
968,4	11,143
968,9	12,2
969,3	14,143
969,7	13,229
970,1	16,514
970,5	18,8
971	20
971,4	15,486
971,8	15,6
972,2	9,343
972,6	11,971
973,1	10,486
973,5	11,229
973,9	5,886
974,3	10,829
974,7	6,086
975,2	11,314
975,6	6,857
976	8,086
976,4	5,743
976,8	5,886
977,3	2,143
977,7	4,257
978,1	4,971
978,5	7,971
978,9	9,829
979,4	10,829
979,8	10,286
980,2	17,257
980,6	20,943
981	14,629
981,5	14,257
981,9	14,114
982,3	12,886
982,7	13,086
983,1	9,314
983,6	5,114
984	10,914
984,4	8,143
984,8	1,686
985,2	5,629
985,6	5,543
986,1	-0,429
986,5	3,4
986,9	1,943
987,3	4,371
987,7	8,571
988,2	4,914
988,6	8,029
989	10,343
989,4	6,143
989,8	4,2
990,3	5,229
990,7	6,486
991,1	8,086
991,5	8,943
991,9	8,314
992,3	7,8
992,8	8,543
993,2	10,114
993,6	5,686
994	6,286
994,4	4,971
994,9	8,914
995,3	15,257
995,7	15,857
996,1	14,057
996,5	16,6
996,9	18,743
997,4	17,914
997,8	16,086
998,2	10,771
998,6	8,371
999	8,457
999,5	10,657
999,9	8,229
1000,3	8,029
1000,7	13,371
1001,1	17,543
1001,5	20,8
1002	18,686
1002,4	14,257
1002,8	16,229
1003,2	16,286
1003,6	12,114
1004	13,629
1004,5	11,514
1004,9	12,286
1005,3	16,229
1005,7	16,571
1006,1	12,914
1006,6	11,4
1007	2,8
1007,4	3,429
1007,8	5,057
1008,2	5,6
1008,6	2,086
1009,1	3,2
1009,5	3,714
1009,9	6,914
1010,3	10,657
1010,7	10,486
1011,1	10,057
1011,6	8,371
1012	12,457
1012,4	12,886
1012,8	15,857
1013,2	11,686
1013,6	13,914
1014,1	11,543
1014,5	16,257
1014,9	16,429
1015,3	14,686
1015,7	12,686
1016,1	15,257
1016,6	13,343
1017	16,857
1017,4	12,429
1017,8	14,771
1018,2	13,314
1018,6	10,371
1019,1	5,6
1019,5	4,714
1019,9	5,286
1020,3	5,2
1020,7	2,314
1021,1	3,571
1021,6	7,914
1022	10,457
1022,4	9,114
1022,8	6,629
1023,2	5,514
1023,6	2,486
1024,1	5,771
1024,5	4,286
1024,9	7,057
1025,3	13,343
1025,7	12,686
1026,1	13,6
1026,6	20,143
1027	20
1027,4	22,371
1027,8	19,114
1028,2	16,543
1028,6	14,771
1029	10,4
1029,5	7
1029,9	8,457
1030,3	3
1030,7	5,743
1031,1	9,4
1031,5	8,886
1032	17,486
1032,4	22,086
1032,8	15,057
1033,2	15,286
1033,6	11,971
1034	1,971
1034,4	7,714
1034,9	7,657
1035,3	4,457
1035,7	4,143
1036,1	11,371
1036,5	12,629
1036,9	20,571
1037,4	19,571
1037,8	14,343
1038,2	12,543
1038,6	18,229
1039	17,514
1039,4	21
1039,8	20,429
1040,3	19,486
1040,7	20,514
1041,1	16,429
1041,5	19,257
1041,9	20,343
1042,3	16,571
1042,7	13,286
1043,2	10,429
1043,6	14,457
1044	17,943
1044,4	16,114
1044,8	11,486
1045,2	11,6
1045,6	17,886
1046,1	22,657
1046,5	18,314
1046,9	21,971
1047,3	19,229
1047,7	20,143
1048,1	18,314
1048,5	13,857
1049	8,543
1049,4	9,314
1049,8	6,114
1050,2	4,571
1050,6	4,886
1051	12,8
1051,4	8,057
1051,9	9,857
1052,3	12,486
1052,7	13
1053,1	13,486
1053,5	8,171
1053,9	3,543
1054,3	2,371
1054,8	3,2
1055,2	2,8
1055,6	3,771
1056	5,914
1056,4	9,8
1056,8	10,086
1057,2	15,486
1057,6	20,514
1058,1	21,543
1058,5	16,057
1058,9	12,743
1059,3	11,914
1059,7	12,943
1060,1	12,714
1060,5	8,486
1061	5,057
1061,4	5,829
1061,8	6,2
1062,2	8,857
1062,6	6,457
1063	5,457
1063,4	3,514
1063,8	3,257
1064,3	5,886
1064,7	13,886
1065,1	12,971
1065,5	21,029
1065,9	23,743
1066,3	26,686
1066,7	32,029
1067,1	33,4
1067,6	29,057
1068	31,714
1068,4	25,714
1068,8	22,657
1069,2	22,029
1069,6	14,229
1070	12,086
1070,4	9,771
1070,9	8,086
1071,3	6,686
1071,7	5,086
1072,1	0,286
1072,5	7,543
1072,9	10,2
1073,3	10
1073,7	3,086
1074,2	4,971
1074,6	9,514
1075	14,543
1075,4	16,029
1075,8	13,286
1076,2	16,543
1076,6	21,657
1077	23,971
1077,5	24,371
1077,9	17,829
1078,3	11,057
1078,7	12,571
1079,1	13,457
1079,5	14,629
1079,9	14,229
1080,3	11,029
1080,7	16,714
1081,2	18,743
1081,6	17,171
1082	18,4
1082,4	17,229
1082,8	17,6
1083,2	13,086
1083,6	8,629
1084	7,771
1084,5	9,057
1084,9	-2,171
1085,3	-5,343
1085,7	-8,143
1086,1	1,6
1086,5	-0,943
1086,9	-1,171
1087,3	4,4
1087,7	17,4
1088,2	23,143
1088,6	20,143
1089	17,486
1089,4	26,914
1089,8	28,486
1090,2	22,714
1090,6	16
1091	14,057
1091,4	17,514
1091,9	17,171
1092,3	16,6
1092,7	14,771
1093,1	15,657
1093,5	15,714
1093,9	16,914
1094,3	14,629
1094,7	12,114
1095,1	8,714
1095,5	11,286
1096	9,686
1096,4	12,886
1096,8	9,114
1097,2	10,8
1097,6	10,629
1098	8,571
1098,4	10,857
1098,8	15,4
1099,2	12,486
1099,6	15,371
1100,1	15,714
1100,5	16,314
1100,9	15,457
1101,3	13,686
1101,7	8,743
1102,1	11,114
1102,5	8,629
1102,9	5,429
1103,3	6,943
1103,7	13,143
1104,2	9,571
1104,6	12,429
1105	8,714
1105,4	9,8
1105,8	10,486
1106,2	8,229
1106,6	4
1107	4,343
1107,4	1,567
1107,8	2,48
1108,3	1,1
