Data from Subt2_00093.txt Node
Date: Mon Aug 28 13:35:06 MSK 2023
User: vat
Spectrometer: MAYP114033
Trigger mode: 0
Integration Time (sec): 1,000000E0
Scans to average: 5
Electric dark correction enabled: true
Nonlinearity correction enabled: false
Boxcar width: 3
XAxis mode: Wavelengths
Number of Pixels in Spectrum: 2068
>>>>>Begin Spectral Data<<<<<
199,4	0,333
199,9	-3,747
200,4	-2,6
200,8	1,219
201,3	4,19
201,8	6,219
202,2	7,962
202,7	6,648
203,2	11,59
203,6	12,019
204,1	11,619
204,6	10,876
205	8,105
205,5	7,505
206	11,619
206,4	9,705
206,9	10,933
207,4	6,79
207,8	3,876
208,3	6,219
208,8	7,162
209,2	9,59
209,7	12,848
210,2	11,762
210,6	13,533
211,1	17,79
211,5	17,248
212	16,305
212,5	11,676
212,9	9,248
213,4	12,333
213,9	14,019
214,3	11,905
214,8	18,162
215,3	20,019
215,7	17,933
216,2	16,333
216,7	19,448
217,1	15,905
217,6	16,619
218,1	9,933
218,5	9,105
219	11,876
219,5	16,476
219,9	6,962
220,4	11,276
220,9	7,248
221,3	10,39
221,8	11,162
222,3	12,533
222,7	14,448
223,2	13,048
223,6	9,905
224,1	10,019
224,6	12,99
225	8,619
225,5	6,648
226	1,619
226,4	10,19
226,9	13,762
227,4	23,219
227,8	19,676
228,3	18,705
228,8	16,248
229,2	19,533
229,7	18,733
230,2	19,419
230,6	15,819
231,1	10,99
231,5	19,333
232	26,562
232,5	23,276
232,9	23,133
233,4	21,448
233,9	20,333
234,3	25,533
234,8	22,448
235,3	23,876
235,7	25,933
236,2	21,676
236,7	14,562
237,1	14,048
237,6	13,533
238,1	13,562
238,5	9,99
239	11,248
239,4	14,019
239,9	18,276
240,4	12,99
240,8	15,848
241,3	13,133
241,8	10,533
242,2	6,848
242,7	5,933
243,2	12,448
243,6	21,79
244,1	15,59
244,6	10,505
245	9,39
245,5	8,933
245,9	10,019
246,4	2,648
246,9	-0,695
247,3	3,105
247,8	6,019
248,3	12,362
248,7	12,39
249,2	11,648
249,7	20,19
250,1	17,533
250,6	13,476
251	15,419
251,5	13,533
252	14,848
252,4	12,933
252,9	11,39
253,4	17,019
253,8	16,305
254,3	17,019
254,8	19,819
255,2	17,99
255,7	21,419
256,1	15,219
256,6	14,219
257,1	16,79
257,5	15,648
258	7,905
258,5	11,505
258,9	5,476
259,4	8,59
259,9	4,705
260,3	4,762
260,8	5,79
261,2	11,533
261,7	12,048
262,2	16,362
262,6	15,39
263,1	11,505
263,6	8,419
264	11,219
264,5	12,276
264,9	10,39
265,4	7,133
265,9	7,59
266,3	9,905
266,8	14,505
267,3	13,505
267,7	7,39
268,2	3,762
268,7	6,848
269,1	5,048
269,6	5,333
270	4,133
270,5	7,533
271	7,676
271,4	7,39
271,9	4,219
272,4	7,962
272,8	6,705
273,3	5,848
273,7	1,248
274,2	3,219
274,7	8,019
275,1	13,59
275,6	15,848
276,1	15,876
276,5	16,219
277	17,305
277,4	21,905
277,9	15,705
278,4	14,762
278,8	10,448
279,3	13,905
279,8	17,476
280,2	17,533
280,7	13,59
281,1	12,048
281,6	8,048
282,1	7,048
282,5	8,733
283	2,79
283,4	3,248
283,9	0,848
284,4	7,505
284,8	9,048
285,3	7,819
285,8	4,162
286,2	3,962
286,7	4,648
287,1	4,162
287,6	-0,41
288,1	-1,724
288,5	2,048
289	-0,01
289,5	2,048
289,9	1,048
290,4	0,648
290,8	7,733
291,3	14,048
291,8	13,133
292,2	19,162
292,7	19,59
293,1	19,905
293,6	18,048
294,1	17,076
294,5	14,019
295	13,162
295,5	10,333
295,9	10,905
296,4	12,19
296,8	15,962
297,3	14,276
297,8	16,99
298,2	17,619
298,7	21,39
299,1	22,162
299,6	19,848
300,1	19,505
300,5	19,848
301	17,448
301,5	16,59
301,9	12,762
302,4	12,19
302,8	11,276
303,3	18,019
303,8	18,39
304,2	22,162
304,7	20,476
305,1	17,248
305,6	11,133
306,1	10,619
306,5	1,648
307	-0,295
307,4	-9,238
307,9	-7,324
308,4	-7,067
308,8	-2,381
309,3	-0,181
309,8	1,762
310,2	1,305
310,7	4,39
311,1	1,648
311,6	2,448
312,1	-0,524
312,5	1,133
313	0,619
313,4	5,79
313,9	5,019
314,4	3,762
314,8	10,248
315,3	16,733
315,7	14,619
316,2	13,705
316,7	12,133
317,1	12,419
317,6	17,048
318	12,876
318,5	6,619
319	6,305
319,4	12,705
319,9	6,762
320,3	9,676
320,8	5,39
321,3	4,219
321,7	8,019
322,2	4,076
322,6	-0,124
323,1	1,933
323,6	2,562
324	2,505
324,5	4,619
324,9	9,619
325,4	12,99
325,9	14,048
326,3	16,705
326,8	11,876
327,2	12,733
327,7	10,448
328,2	7,133
328,6	8,533
329,1	6,105
329,5	5,048
330	9,39
330,5	15,648
330,9	16,505
331,4	15,048
331,8	11,39
332,3	12,876
332,8	13,819
333,2	12,162
333,7	5,076
334,1	1,105
334,6	-1,867
335,1	1,19
335,5	1,105
336	2,905
336,4	2,533
336,9	7,219
337,4	12,333
337,8	15,333
338,3	16,048
338,7	16,019
339,2	10,962
339,7	9,733
340,1	5,933
340,6	5,39
341	5,648
341,5	2,133
342	0,99
342,4	-2,552
342,9	1,476
343,3	5,99
343,8	8,333
344,2	9,848
344,7	12,276
345,2	14,676
345,6	21,848
346,1	17,162
346,5	15,676
347	12,905
347,5	11,676
347,9	11,076
348,4	9,905
348,8	8,99
349,3	10,905
349,8	11,019
350,2	11,676
350,7	13,59
351,1	15,619
351,6	14,048
352	15,219
352,5	21,133
353	25,105
353,4	29,905
353,9	39,448
354,3	48,962
354,8	55,705
355,3	67,762
355,7	77,248
356,2	88,105
356,6	101,448
357,1	111,476
357,5	126,562
358	157,533
358,5	179,705
358,9	206,848
359,4	242,162
359,8	284,676
360,3	323,962
360,8	372,305
361,2	418,962
361,7	479,505
362,1	540,505
362,6	606,476
363	678,562
363,5	758,105
364	833,533
364,4	914,619
364,9	997,419
365,3	1082,333
365,8	1162,276
366,3	1231,648
366,7	1295,305
367,2	1357,762
367,6	1409,533
368,1	1442,105
368,5	1464,962
369	1476,219
369,5	1475,99
369,9	1470,476
370,4	1443,676
370,8	1408,19
371,3	1363,676
371,7	1318,305
372,2	1263,476
372,7	1204,19
373,1	1143,619
373,6	1080,419
374	1015,105
374,5	955,076
374,9	887,819
375,4	826,448
375,9	769,99
376,3	703,248
376,8	653,705
377,2	605,733
377,7	554,419
378,2	510,99
378,6	469,819
379,1	426,048
379,5	394,648
380	357,676
380,4	327,133
380,9	303,705
381,4	278,133
381,8	259,219
382,3	243,105
382,7	228,819
383,2	213,676
383,6	200,419
384,1	189,276
384,6	179,105
385	163,762
385,5	151,848
385,9	143,419
386,4	141,219
386,8	127,79
387,3	119,162
387,7	113,219
388,2	107,99
388,7	104,419
389,1	94,562
389,6	87,476
390	87,59
390,5	82,105
390,9	71,648
391,4	71,076
391,9	64,276
392,3	64,79
392,8	60,019
393,2	57,448
393,7	59,105
394,1	61,562
394,6	56,848
395,1	62,705
395,5	61,905
396	56,419
396,4	50,533
396,9	46,762
397,3	46,19
397,8	41,19
398,2	35,99
398,7	26,619
399,2	27,076
399,6	33,705
400,1	27,933
400,5	27,562
401	34,248
401,4	29,476
401,9	34,676
402,4	33,59
402,8	30,59
403,3	35,933
403,7	35,79
404,2	33,419
404,6	37,276
405,1	40,533
405,5	42,019
406	42,648
406,5	39,933
406,9	40,048
407,4	35,876
407,8	37,762
408,3	35,019
408,7	33,133
409,2	29,705
409,6	31,962
410,1	32,99
410,6	36,133
411	35,019
411,5	34,162
411,9	34,562
412,4	39,333
412,8	39,448
413,3	40,419
413,7	42,162
414,2	42,619
414,7	45,762
415,1	50,99
415,6	46,962
416	49,59
416,5	55,305
416,9	61,733
417,4	63,19
417,8	63,619
418,3	64,59
418,8	71,733
419,2	71,019
419,7	68,276
420,1	62,333
420,6	68,162
421	71,99
421,5	72,962
421,9	70,848
422,4	76,419
422,8	77,019
423,3	82,476
423,8	76,705
424,2	72,533
424,7	72,762
425,1	67,333
425,6	59,876
426	61,105
426,5	58,019
426,9	59,219
427,4	59,733
427,9	60,59
428,3	66,648
428,8	70,076
429,2	65,105
429,7	65,448
430,1	62,819
430,6	55,076
431	51,333
431,5	47,562
431,9	44,162
432,4	42,79
432,8	40,276
433,3	37,705
433,8	41,305
434,2	38,819
434,7	34,448
435,1	35,333
435,6	29,79
436	28,076
436,5	28,076
436,9	27,876
437,4	29,39
437,8	33,876
438,3	34,105
438,8	38,648
439,2	36,848
439,7	37,505
440,1	37,533
440,6	37,99
441	38,733
441,5	34,962
441,9	33,219
442,4	34,248
442,8	35,962
443,3	38,276
443,7	32,562
444,2	29,905
444,7	35,79
445,1	40,905
445,6	41,305
446	42,933
446,5	43,362
446,9	45,905
447,4	51,59
447,8	52,333
448,3	52,59
448,7	55,333
449,2	54,733
449,6	54,819
450,1	59,848
450,6	59,39
451	60,848
451,5	64,819
451,9	65,705
452,4	62,905
452,8	64,219
453,3	65,019
453,7	67,105
454,2	62,99
454,6	59,905
455,1	63,305
455,5	67,99
456	70,733
456,4	73,876
456,9	74,848
457,3	81,619
457,8	82,305
458,3	83,79
458,7	87,133
459,2	90,333
459,6	93,419
460,1	99,476
460,5	97,705
461	103,476
461,4	104,333
461,9	107,762
462,3	109,276
462,8	108,19
463,2	105,99
463,7	112,59
464,1	110,876
464,6	112,533
465	114,133
465,5	114,476
466	124,705
466,4	130,933
466,9	137,819
467,3	144,248
467,8	153,933
468,2	157,219
468,7	168,848
469,1	169,476
469,6	165,048
470	168,39
470,5	174,79
470,9	172,848
471,4	182,048
471,8	183,248
472,3	186,219
472,7	195,162
473,2	194,59
473,6	196,962
474,1	203,133
474,5	201,762
475	202,248
475,4	204,476
475,9	209,276
476,4	214,819
476,8	217,762
477,3	223,819
477,7	228,733
478,2	232,419
478,6	238,676
479,1	247,133
479,5	255,19
480	259,705
480,4	262,019
480,9	267,762
481,3	273,333
481,8	275,933
482,2	278,733
482,7	280,648
483,1	282,99
483,6	287,133
484	285,819
484,5	292,048
484,9	297,133
485,4	296,219
485,8	296,248
486,3	298,19
486,7	298,076
487,2	304,905
487,6	302,676
488,1	304,505
488,5	305,133
489	311,848
489,4	319,19
489,9	325,248
490,4	327,448
490,8	333,19
491,3	332,933
491,7	335,848
492,2	333,79
492,6	332,648
493,1	336,562
493,5	342,19
494	347,448
494,4	351,676
494,9	357,133
495,3	358,048
495,8	360,905
496,2	355,848
496,7	353,362
497,1	351,162
497,6	351,162
498	352,048
498,5	354,79
498,9	360,248
499,4	359,19
499,8	361,619
500,3	362,505
500,7	365,676
501,2	368,248
501,6	371,276
502,1	368,162
502,5	374,648
503	375,19
503,4	374,133
503,9	371,162
504,3	367,562
504,8	364,448
505,2	365,305
505,7	366,19
506,1	362,276
506,6	364,476
507	371,79
507,5	375,048
507,9	382,448
508,4	386,648
508,8	386,848
509,3	398,248
509,7	395,476
510,2	395,819
510,6	398,39
511,1	394,019
511,5	393,076
512	391,876
512,4	386,19
512,9	390,933
513,3	391,505
513,8	391,99
514,2	401,019
514,7	402,962
515,1	406,248
515,6	410,762
516	410,19
516,5	412,305
516,9	413,505
517,4	409,333
517,8	409,076
518,3	414,162
518,7	413,333
519,2	421,876
519,6	421,162
520,1	427,276
520,5	427,733
521	429,019
521,4	429,019
521,9	431,762
522,3	431,162
522,8	432,419
523,2	430,819
523,7	433,333
524,1	434,59
524,6	432,19
525	435,533
525,5	434,105
525,9	440,19
526,4	443,39
526,8	442,848
527,3	449,705
527,7	458,39
528,2	459,133
528,6	467,105
529,1	470,305
529,5	470,533
530	478,533
530,4	483,648
530,9	485,248
531,3	491,333
531,8	489,505
532,2	485,019
532,6	490,448
533,1	487,448
533,5	485,59
534	486,162
534,4	485,305
534,9	489,533
535,3	496,648
535,8	499,648
536,2	504,762
536,7	503,562
537,1	510,59
537,6	515,562
538	520,333
538,5	525,533
538,9	529,076
539,4	534,648
539,8	543,305
540,3	543,305
540,7	544,076
541,2	545,105
541,6	541,076
542,1	540,562
542,5	539,905
543	535,219
543,4	536,619
543,9	537,133
544,3	540,248
544,8	549,362
545,2	552,39
545,7	553,819
546,1	560,762
546,5	559,476
547	566,848
547,4	569,505
547,9	569,133
548,3	575,19
548,8	576,905
549,2	582,019
549,7	587,105
550,1	584,19
550,6	587,619
551	588,248
551,5	584,848
551,9	589,676
552,4	588,419
552,8	590,99
553,3	594,676
553,7	596,848
554,2	603,648
554,6	611,248
555,1	611,562
555,5	616,162
555,9	617,448
556,4	621,448
556,8	627,133
557,3	627,762
557,7	626,905
558,2	632,362
558,6	630,133
559,1	634,705
559,5	636,705
560	629,105
560,4	628,305
560,9	629,248
561,3	631,248
561,8	639,733
562,2	642,819
562,7	639,076
563,1	645,419
563,6	650,819
564	652,019
564,4	652,162
564,9	651,019
565,3	649,59
565,8	657,533
566,2	657,305
566,7	659,733
567,1	662,219
567,6	666,048
568	662,705
568,5	660,505
568,9	660,876
569,4	660,505
569,8	657,848
570,3	658,105
570,7	661,19
571,1	665,162
571,6	669,933
572	669,905
572,5	672,79
572,9	669,59
573,4	673,219
573,8	672,933
574,3	673,105
574,7	677,79
575,2	676,162
575,6	680,733
576,1	685,419
576,5	684,219
576,9	679,248
577,4	684,562
577,8	682,305
578,3	682,733
578,7	678,562
579,2	677,905
579,6	679,933
580,1	683,048
580,5	680,876
581	681,448
581,4	686,676
581,9	684,048
582,3	681,819
582,7	674,505
583,2	672,733
583,6	667,819
584,1	664,419
584,5	663,562
585	664,562
585,4	668,79
585,9	674,876
586,3	669,962
586,8	671,362
587,2	670,476
587,6	671,962
588,1	675,162
588,5	675,276
589	675,99
589,4	685,133
589,9	686,819
590,3	686,305
590,8	679,619
591,2	675,848
591,7	672,219
592,1	672,362
592,5	665,705
593	662,79
593,4	664,705
593,9	665,419
594,3	671,39
594,8	672,533
595,2	668,448
595,7	667,162
596,1	669,133
596,6	670,076
597	670,905
597,4	665,505
597,9	665,162
598,3	661,762
598,8	659,276
599,2	662,733
599,7	660,133
600,1	657,676
600,6	655,876
601	654,048
601,4	655,876
601,9	658,333
602,3	648,79
602,8	649,648
603,2	650,019
603,7	654,562
604,1	651,962
604,6	645,848
605	647,333
605,4	646,676
605,9	644,79
606,3	642,076
606,8	637,362
607,2	640,19
607,7	640,162
608,1	640,105
608,6	642,476
609	641,219
609,4	635,533
609,9	629,162
610,3	621,762
610,8	625,219
611,2	621,562
611,7	618,19
612,1	611,848
612,6	611,762
613	609,933
613,4	610,59
613,9	603,676
614,3	602,133
614,8	598,276
615,2	600,133
615,7	599,476
616,1	602,533
616,6	599,448
617	597,305
617,4	591,648
617,9	592,362
618,3	587,705
618,8	588,762
619,2	583,905
619,7	586,505
620,1	588,99
620,5	591,562
621	589,448
621,4	590,876
621,9	584,305
622,3	584,848
622,8	580,562
623,2	574,019
623,6	563,962
624,1	561,333
624,5	556,248
625	555,819
625,4	552,505
625,9	550,79
626,3	554,105
626,8	554,676
627,2	554,648
627,6	555,848
628,1	554,448
628,5	551,733
629	549,99
629,4	543,448
629,9	546,762
630,3	544,019
630,7	538,962
631,2	536,305
631,6	536,362
632,1	527,905
632,5	525,105
633	520,876
633,4	515,305
633,8	513,476
634,3	513,448
634,7	513,619
635,2	516,276
635,6	518,648
636,1	515,19
636,5	510,59
636,9	507,362
637,4	502,676
637,8	496,248
638,3	490,133
638,7	485,39
639,2	480,848
639,6	484,39
640	481,648
640,5	480,448
640,9	475,876
641,4	474,705
641,8	475,562
642,2	472,619
642,7	464,733
643,1	462,733
643,6	461,362
644	460,39
644,5	461,505
644,9	455,448
645,3	455,819
645,8	458,533
646,2	458,133
646,7	451,79
647,1	450,562
647,6	446,362
648	442,019
648,4	437,705
648,9	433,705
649,3	431,19
649,8	429,933
650,2	427,762
650,6	430,99
651,1	433,305
651,5	431,59
652	429,962
652,4	429,39
652,9	431,533
653,3	426,848
653,7	420,419
654,2	418,848
654,6	412,99
655,1	414,133
655,5	409,133
655,9	404,448
656,4	407,076
656,8	402,333
657,3	398,276
657,7	403,19
658,2	401,39
658,6	401,533
659	401,162
659,5	393,79
659,9	389,019
660,4	383,248
660,8	377,505
661,2	372,476
661,7	371,762
662,1	370,362
662,6	370,762
663	376,819
663,4	376,019
663,9	374,619
664,3	372,019
664,8	368,39
665,2	362,733
665,6	361,533
666,1	359,505
666,5	358,676
667	360,076
667,4	358,162
667,9	362,133
668,3	361,619
668,7	363,019
669,2	356,962
669,6	354,533
670,1	349,19
670,5	345,619
670,9	339,19
671,4	338,448
671,8	333,448
672,3	331,162
672,7	331,162
673,1	331,019
673,6	330,562
674	324,305
674,5	318,133
674,9	317,99
675,3	313,448
675,8	312,162
676,2	308,276
676,7	305,848
677,1	307,276
677,5	307,562
678	307,048
678,4	311,39
678,9	310,305
679,3	310,562
679,7	309,848
680,2	307,99
680,6	308,162
681,1	303,105
681,5	298,648
681,9	297,19
682,4	297,562
682,8	296,905
683,3	295,219
683,7	292,99
684,1	288,562
684,6	287,705
685	282,476
685,5	278,419
685,9	277,162
686,3	274,79
686,8	274,876
687,2	276,362
687,7	275,219
688,1	275,019
688,5	278,448
689	274,133
689,4	274,59
689,9	271,476
690,3	275,762
690,7	273,505
691,2	269,333
691,6	264,59
692	266,133
692,5	258,276
692,9	254,762
693,4	247,619
693,8	248,419
694,2	251,876
694,7	248,276
695,1	248,619
695,6	254,476
696	256,933
696,4	257,476
696,9	254,448
697,3	248,876
697,8	247,848
698,2	243,676
698,6	238,762
699,1	237,162
699,5	232,133
699,9	232,019
700,4	230,99
700,8	232,419
701,3	231,905
701,7	229,962
702,1	223,676
702,6	222,648
703	221,39
703,5	224,79
703,9	218,648
704,3	214,962
704,8	216,39
705,2	219,333
705,6	222,162
706,1	219,076
706,5	217,705
707	221,048
707,4	221,933
707,8	215,59
708,3	216,276
708,7	209,876
709,2	213,219
709,6	204,476
710	202,733
710,5	201,79
710,9	206,762
711,3	202,848
711,8	205,762
712,2	200,876
712,7	202,733
713,1	196,448
713,5	191,59
714	189,848
714,4	191,162
714,8	184,476
715,3	183,676
715,7	183,333
716,2	188,162
716,6	189,362
717	188,333
717,5	184,762
717,9	189,876
718,3	189,676
718,8	192,19
719,2	187,562
719,7	186,705
720,1	185,362
720,5	185,162
721	178,933
721,4	176,162
721,8	175,133
722,3	179,105
722,7	178,933
723,2	173,19
723,6	170,79
724	169,59
724,5	164,99
724,9	162,705
725,3	158,505
725,8	160,933
726,2	158,619
726,7	160,448
727,1	163,905
727,5	167,705
728	165,705
728,4	165,705
728,8	160,248
729,3	162,248
729,7	161,076
730,1	156,562
730,6	153,876
731	152,676
731,5	153,162
731,9	155,162
732,3	158,019
732,8	158,39
733,2	158,648
733,6	162,076
734,1	166,133
734,5	162,619
734,9	155,733
735,4	152,419
735,8	148,248
736,3	150,305
736,7	148,905
737,1	143,99
737,6	146,533
738	148,848
738,4	151,048
738,9	151,533
739,3	153,362
739,7	151,79
740,2	152,848
740,6	151,333
741,1	148,819
741,5	146,276
741,9	143,305
742,4	136,505
742,8	132,619
743,2	136,133
743,7	129,248
744,1	131,876
744,5	132,79
745	129,619
745,4	128,933
745,8	129,333
746,3	126,133
746,7	128,448
747,2	126,333
747,6	120,933
748	126,019
748,5	128,933
748,9	126,048
749,3	120,476
749,8	127,305
750,2	125,39
750,6	128,448
751,1	125,962
751,5	120,562
751,9	123,305
752,4	123,733
752,8	113,076
753,3	116,848
753,7	112,762
754,1	114,133
754,6	117,362
755	118,562
755,4	120,79
755,9	123,19
756,3	124,105
756,7	125,762
757,2	124,533
757,6	122,962
758	121,105
758,5	119,219
758,9	120,59
759,3	116,248
759,8	113,476
760,2	111,676
760,6	109,676
761,1	105,219
761,5	105,933
761,9	108,133
762,4	105,448
762,8	103,562
763,3	102,733
763,7	98,39
764,1	103,705
764,6	99,79
765	92,59
765,4	94,076
765,9	99,39
766,3	99,848
766,7	104,819
767,2	102,276
767,6	105,105
768	106,905
768,5	110,39
768,9	108,248
769,3	106,419
769,8	105,762
770,2	103,362
770,6	103,933
771,1	107,333
771,5	104,619
771,9	107,676
772,4	111,276
772,8	112,162
773,2	107,59
773,7	104,076
774,1	98,876
774,5	92,505
775	81,105
775,4	74,133
775,8	70,076
776,3	74,533
776,7	72,19
777,1	71,905
777,6	72,305
778	78,39
778,4	82,99
778,9	82,876
779,3	80,733
779,7	77,905
780,2	80,79
780,6	82,562
781	80,505
781,5	78,819
781,9	81,848
782,3	83,362
782,8	92,076
783,2	88,248
783,6	88,19
784,1	88,362
784,5	86,048
784,9	82,99
785,4	80,705
785,8	75,419
786,2	73,819
786,7	72,848
787,1	72,819
787,5	73,019
788	72,019
788,4	74,362
788,8	72,076
789,3	75,505
789,7	78,733
790,1	79,59
790,6	80,476
791	83,933
791,4	81,133
791,9	81,59
792,3	77,619
792,7	72,705
793,2	70,733
793,6	70,19
794	67,562
794,5	70,59
794,9	71,619
795,3	75,619
795,8	73,419
796,2	74,076
796,6	75,105
797,1	71,105
797,5	68,962
797,9	70,276
798,4	65,876
798,8	70,162
799,2	73,79
799,7	73,933
800,1	75,619
800,5	72,276
801	71,476
801,4	79,762
801,8	77,133
802,2	75,819
802,7	76,59
803,1	80,676
803,5	82,133
804	81,562
804,4	74,619
804,8	76,905
805,3	77,39
805,7	72,733
806,1	68,876
806,6	64,305
807	60,305
807,4	61,362
807,9	61,762
808,3	58,562
808,7	57,133
809,2	59,79
809,6	66,162
810	66,876
810,4	62,39
810,9	57,905
811,3	58,733
811,7	62,362
812,2	55,105
812,6	49,419
813	50,162
813,5	48,648
813,9	50,533
814,3	46,79
814,8	41,962
815,2	44,705
815,6	44,819
816,1	45,219
816,5	48,305
816,9	46,219
817,3	48,59
817,8	52,333
818,2	51,562
818,6	55,59
819,1	57,048
819,5	56,619
819,9	57,19
820,4	54,562
820,8	48,076
821,2	47,048
821,7	45,676
822,1	41,476
822,5	41,933
822,9	41,333
823,4	43,733
823,8	47,019
824,2	52,048
824,7	52,848
825,1	51,733
825,5	51,733
826	51,476
826,4	50,962
826,8	48,133
827,3	46,99
827,7	41,648
828,1	44,59
828,5	38,619
829	39,276
829,4	33,733
829,8	34,362
830,3	27,705
830,7	30,99
831,1	34,419
831,6	42,448
832	47,505
832,4	52,962
832,8	52,19
833,3	58,59
833,7	55,476
834,1	51,733
834,6	46,705
835	43,59
835,4	40,619
835,8	43,819
836,3	41,162
836,7	45,733
837,1	45,705
837,6	46,562
838	42,648
838,4	44,362
838,9	44,362
839,3	49,076
839,7	47,819
840,1	40,362
840,6	39,705
841	43,248
841,4	44,362
841,9	45,048
842,3	37,933
842,7	35,248
843,1	45,219
843,6	48,676
844	44,076
844,4	41,876
844,9	34,648
845,3	38,419
845,7	39,733
846,2	38,19
846,6	36,819
847	37,219
847,4	31,162
847,9	33,39
848,3	34,448
848,7	31,39
849,2	29,533
849,6	26,962
850	29,59
850,4	33,762
850,9	35,362
851,3	32,619
851,7	34,876
852,2	35,648
852,6	30,99
853	27,362
853,4	28,448
853,9	25,019
854,3	24,076
854,7	26,505
855,2	25,962
855,6	30,962
856	31,276
856,4	32,705
856,9	39,962
857,3	37,962
857,7	36,248
858,2	28,59
858,6	26,305
859	23,79
859,4	24,705
859,9	22,99
860,3	24,019
860,7	23,876
861,1	30,419
861,6	32,362
862	32,048
862,4	26,962
862,9	24,39
863,3	23,733
863,7	24,733
864,1	23,99
864,6	23,762
865	28,905
865,4	29,819
865,9	28,105
866,3	29,733
866,7	28,39
867,1	25,133
867,6	27,276
868	29,733
868,4	33,248
868,8	37,705
869,3	36,676
869,7	34,105
870,1	37,705
870,6	31,019
871	61,305
871,4	52,819
871,8	52,362
872,3	48,505
872,7	49,248
873,1	47,162
873,5	54,162
874	16,476
874,4	21,676
874,8	25,876
875,3	29,79
875,7	30,39
876,1	28,848
876,5	24,133
877	26,648
877,4	23,962
877,8	16,876
878,2	14,362
878,7	14,133
879,1	16,533
879,5	12,419
879,9	12,962
880,4	18,448
880,8	19,19
881,2	21,533
881,7	22,448
882,1	23,476
882,5	29,705
882,9	30,533
883,4	26,533
883,8	26,076
884,2	21,705
884,6	22,705
885,1	20,276
885,5	21,99
885,9	20,848
886,3	22,448
886,8	20,048
887,2	19,79
887,6	17,162
888	18,076
888,5	13,905
888,9	16,705
889,3	14,076
889,8	19,762
890,2	21,448
890,6	18,819
891	17,59
891,5	18,19
891,9	17,476
892,3	19,59
892,7	18,505
893,2	22,133
893,6	24,219
894	21,59
894,4	23,79
894,9	19,648
895,3	18,562
895,7	14,076
896,1	11,476
896,6	10,79
897	15,819
897,4	18,848
897,8	18,99
898,3	25,59
898,7	23,448
899,1	25,505
899,5	25,933
900	22,905
900,4	18,505
900,8	23,39
901,2	18,133
901,7	22,705
902,1	22,276
902,5	20,476
902,9	22,305
903,4	21,305
903,8	17,733
904,2	17,076
904,6	13,076
905,1	14,848
905,5	20,562
905,9	19,39
906,3	17,133
906,8	15,59
907,2	17,333
907,6	27,305
908	24,448
908,5	21,619
908,9	21,676
909,3	26,076
909,7	28,248
910,2	30,276
910,6	22,248
911	21,076
911,4	18,248
911,9	15,933
912,3	9,019
912,7	7,505
913,1	3,076
913,6	0,59
914	2,276
914,4	1,305
914,8	3,562
915,3	4,705
915,7	5,705
916,1	6,99
916,5	11,848
916,9	9,762
917,4	15,876
917,8	14,276
918,2	20,362
918,6	17,905
919,1	17,562
919,5	14,705
919,9	19,533
920,3	18,39
920,8	22,362
921,2	19,59
921,6	21,933
922	21,333
922,5	20,105
922,9	16,848
923,3	16,333
923,7	10,133
924,2	10,99
924,6	8,019
925	7,99
925,4	12,048
925,8	15,305
926,3	18,133
926,7	22,476
927,1	20,933
927,5	25,876
928	23,619
928,4	23,076
928,8	21,419
929,2	17,476
929,7	19,819
930,1	22,333
930,5	22,762
930,9	24,305
931,3	27,39
931,8	26,676
932,2	27,248
932,6	24,848
933	19,79
933,5	15,133
933,9	14,419
934,3	9,848
934,7	4,819
935,2	9,933
935,6	6,848
936	6,533
936,4	11,448
936,8	9,848
937,3	11,105
937,7	11,676
938,1	2,562
938,5	6,219
939	10,876
939,4	8,162
939,8	8,933
940,2	6,99
940,6	9,219
941,1	12,39
941,5	12,219
941,9	13,99
942,3	16,333
942,8	18,733
943,2	22,619
943,6	25,59
944	27,248
944,4	28,133
944,9	26,276
945,3	22,59
945,7	22,333
946,1	20,733
946,6	18,048
947	14,305
947,4	12,99
947,8	14,419
948,2	16,076
948,7	13,99
949,1	17,105
949,5	16,876
949,9	17,419
950,3	14,305
950,8	13,819
951,2	13,219
951,6	14,133
952	10,705
952,5	8,162
952,9	9,99
953,3	11,419
953,7	8,705
954,1	7,105
954,6	5,905
955	2,59
955,4	10,276
955,8	14,333
956,2	18,933
956,7	21,905
957,1	21,333
957,5	24,848
957,9	27,876
958,3	19,562
958,8	13,476
959,2	8,962
959,6	6,99
960	9,533
960,5	2,562
960,9	4,848
961,3	10,019
961,7	12,448
962,1	9,648
962,6	7,733
963	5,819
963,4	9,876
963,8	9,219
964,2	10,79
964,7	9,819
965,1	6,79
965,5	10,419
965,9	9,048
966,3	9,048
966,8	7,162
967,2	2,105
967,6	6,419
968	10,619
968,4	9,905
968,9	16,305
969,3	17,476
969,7	16,99
970,1	19,019
970,5	16,133
971	15,562
971,4	13,676
971,8	6,019
972,2	6,819
972,6	5,79
973,1	1,762
973,5	-0,038
973,9	5,619
974,3	6,476
974,7	10,105
975,2	9,219
975,6	11,276
976	13,676
976,4	14,219
976,8	11,848
977,3	13,648
977,7	13,933
978,1	16,819
978,5	16,362
978,9	15,762
979,4	13,619
979,8	12,676
980,2	6,648
980,6	3,648
981	3,105
981,5	2,219
981,9	5,876
982,3	13,076
982,7	14,619
983,1	15,219
983,6	16,705
984	14,162
984,4	14,476
984,8	12,819
985,2	7,105
985,6	5,133
986,1	7,19
986,5	10,733
986,9	5,219
987,3	5,962
987,7	6,333
988,2	8,676
988,6	10,133
989	12,048
989,4	13,333
989,8	19,933
990,3	18,133
990,7	20,39
991,1	19,19
991,5	19,248
991,9	11,848
992,3	5,162
992,8	0,39
993,2	4,819
993,6	-1,038
994	-1,867
994,4	1,876
994,9	6,362
995,3	14,705
995,7	17,076
996,1	13,762
996,5	15,105
996,9	10,648
997,4	6,162
997,8	11,99
998,2	3,962
998,6	7,048
999	7,562
999,5	10,648
999,9	15,962
1000,3	18,762
1000,7	17,505
1001,1	18,762
1001,5	18,505
1002	15,648
1002,4	13,99
1002,8	14,362
1003,2	13,676
1003,6	13,105
1004	14,762
1004,5	14,762
1004,9	20,562
1005,3	20,562
1005,7	18,219
1006,1	15,133
1006,6	8,105
1007	5,448
1007,4	1,333
1007,8	2,076
1008,2	4,962
1008,6	7,962
1009,1	12,705
1009,5	16,676
1009,9	21,305
1010,3	24,105
1010,7	25,162
1011,1	27,048
1011,6	23,562
1012	19,105
1012,4	22,362
1012,8	18,762
1013,2	16,905
1013,6	12,419
1014,1	7,848
1014,5	8,733
1014,9	13,019
1015,3	10,333
1015,7	10,819
1016,1	11,99
1016,6	10,476
1017	14,276
1017,4	15,048
1017,8	10,39
1018,2	11,79
1018,6	13,99
1019,1	15,076
1019,5	15,105
1019,9	14,905
1020,3	12,819
1020,7	11,962
1021,1	9,819
1021,6	5,705
1022	6,648
1022,4	12,448
1022,8	8,419
1023,2	7,505
1023,6	7,305
1024,1	8,619
1024,5	9,19
1024,9	7,59
1025,3	5,419
1025,7	10,333
1026,1	17,876
1026,6	21,505
1027	21,276
1027,4	25,133
1027,8	24,648
1028,2	15,876
1028,6	13,219
1029	7,448
1029,5	8,762
1029,9	10,362
1030,3	11,076
1030,7	12,133
1031,1	20,162
1031,5	20,448
1032	20,819
1032,4	15,448
1032,8	15,362
1033,2	13,533
1033,6	12,79
1034	11,648
1034,4	10,79
1034,9	15,305
1035,3	18,362
1035,7	15,505
1036,1	14,248
1036,5	18,648
1036,9	16,419
1037,4	16,19
1037,8	16,733
1038,2	15,762
1038,6	16,276
1039	18,762
1039,4	13,99
1039,8	14,219
1040,3	18,676
1040,7	13,248
1041,1	12,333
1041,5	13,705
1041,9	13,162
1042,3	15,533
1042,7	14,562
1043,2	7,362
1043,6	12,762
1044	19,076
1044,4	18,362
1044,8	16,362
1045,2	18,562
1045,6	22,733
1046,1	24,505
1046,5	20,276
1046,9	16,105
1047,3	20,133
1047,7	22,876
1048,1	21,99
1048,5	21,619
1049	25,19
1049,4	26,448
1049,8	23,505
1050,2	16,933
1050,6	11,505
1051	3,105
1051,4	0,79
1051,9	-4,438
1052,3	-4,952
1052,7	-1,267
1053,1	-0,552
1053,5	4,105
1053,9	8,876
1054,3	7,648
1054,8	7,39
1055,2	2,219
1055,6	1,076
1056	-0,324
1056,4	-2,152
1056,8	1,248
1057,2	1,105
1057,6	7,019
1058,1	15,819
1058,5	13,162
1058,9	16,533
1059,3	18,848
1059,7	12,276
1060,1	10,676
1060,5	4,848
1061	-1,067
1061,4	5,105
1061,8	7,133
1062,2	5,219
1062,6	11,905
1063	14,962
1063,4	17,476
1063,8	18,362
1064,3	14,276
1064,7	15,076
1065,1	14,676
1065,5	13,848
1065,9	15,705
1066,3	17,99
1066,7	17,448
1067,1	15,79
1067,6	15,562
1068	17,076
1068,4	13,076
1068,8	7,048
1069,2	6,362
1069,6	6,362
1070	10,905
1070,4	12,105
1070,9	10,248
1071,3	15,933
1071,7	21,362
1072,1	17,819
1072,5	17,648
1072,9	12,733
1073,3	11,248
1073,7	15,819
1074,2	13,819
1074,6	13,076
1075	14,819
1075,4	15,819
1075,8	16,79
1076,2	16,19
1076,6	16,39
1077	11,419
1077,5	8,79
1077,9	10,933
1078,3	11,476
1078,7	8,333
1079,1	7,59
1079,5	4,133
1079,9	5,333
1080,3	7,276
1080,7	7,133
1081,2	11,105
1081,6	12,105
1082	12,733
1082,4	5,676
1082,8	6,219
1083,2	6,333
1083,6	2,962
1084	-1,838
1084,5	0,19
1084,9	-4,552
1085,3	-1,467
1085,7	-1,838
1086,1	-3,752
1086,5	-5,352
1086,9	-4,781
1087,3	-5,21
1087,7	-5,638
1088,2	-1,324
1088,6	-0,524
1089	-0,238
1089,4	0,59
1089,8	0,676
1090,2	-1,724
1090,6	2,905
1091	4,305
1091,4	3,848
1091,9	9,19
1092,3	11,162
1092,7	10,619
1093,1	12,133
1093,5	9,59
1093,9	7,448
1094,3	6,905
1094,7	4,819
1095,1	3,276
1095,5	2,048
1096	8,219
1096,4	8,219
1096,8	3,076
1097,2	6,762
1097,6	10,133
1098	14,162
1098,4	14,59
1098,8	9,419
1099,2	8,962
1099,6	11,105
1100,1	10,162
1100,5	6,676
1100,9	5,048
1101,3	6,219
1101,7	4,819
1102,1	7,105
1102,5	2,933
1102,9	-1,295
1103,3	-2,181
1103,7	-2,095
1104,2	-1,152
1104,6	3,733
1105	4,619
1105,4	10,59
1105,8	12,505
1106,2	10,362
1106,6	8,248
1107	6,248
1107,4	3,167
1107,8	0,453
1108,3	-0,117
