Data from Subt2_00105.txt Node
Date: Mon Aug 28 13:38:01 MSK 2023
User: vat
Spectrometer: MAYP114033
Trigger mode: 0
Integration Time (sec): 1,000000E0
Scans to average: 5
Electric dark correction enabled: true
Nonlinearity correction enabled: false
Boxcar width: 3
XAxis mode: Wavelengths
Number of Pixels in Spectrum: 2068
>>>>>Begin Spectral Data<<<<<
199,4	-1,683
199,9	3,107
200,4	3,2
200,8	4,495
201,3	3,495
201,8	6,724
202,2	9,495
202,7	9,952
203,2	9,638
203,6	10,781
204,1	12,61
204,6	17,752
205	13,552
205,5	11,152
206	11,324
206,4	7,295
206,9	8,981
207,4	5,724
207,8	4,295
208,3	8,038
208,8	7,352
209,2	10,667
209,7	11,324
210,2	9,41
210,6	9,781
211,1	12,667
211,5	11,267
212	15,267
212,5	8,81
212,9	10,352
213,4	12,438
213,9	13,495
214,3	12,038
214,8	14,752
215,3	17,381
215,7	23,61
216,2	23,21
216,7	23,695
217,1	19,038
217,6	18,095
218,1	17,895
218,5	16,752
219	15,238
219,5	20,41
219,9	17,867
220,4	24,781
220,9	23,81
221,3	20,638
221,8	17,381
222,3	21,667
222,7	20,61
223,2	20,724
223,6	14,638
224,1	15,952
224,6	18,552
225	19,324
225,5	15,552
226	11,81
226,4	12,181
226,9	16,238
227,4	20,438
227,8	17,438
228,3	15,924
228,8	14,695
229,2	20,952
229,7	22,152
230,2	24,352
230,6	19,695
231,1	19,352
231,5	19,867
232	23,41
232,5	18,695
232,9	20,952
233,4	16,21
233,9	19,524
234,3	22,695
234,8	23,238
235,3	23,038
235,7	22,238
236,2	18,981
236,7	20,895
237,1	17,695
237,6	17,695
238,1	20,638
238,5	22,81
239	22,581
239,4	23,952
239,9	23,581
240,4	24,01
240,8	26,124
241,3	21,21
241,8	16,895
242,2	15,067
242,7	13,324
243,2	16,752
243,6	18,867
244,1	15,038
244,6	15,01
245	15,752
245,5	19,267
245,9	24,81
246,4	21,895
246,9	21,781
247,3	23,152
247,8	21,667
248,3	24,61
248,7	24,981
249,2	21,61
249,7	22,81
250,1	16,124
250,6	15,724
251	21,295
251,5	17,724
252	15,467
252,4	11,295
252,9	12,381
253,4	14,381
253,8	12,095
254,3	9,01
254,8	12,152
255,2	12,038
255,7	12,41
256,1	10,095
256,6	14,838
257,1	18,152
257,5	18,838
258	10,895
258,5	13,067
258,9	13,781
259,4	15,924
259,9	12,724
260,3	14,152
260,8	12,124
261,2	22,752
261,7	23,238
262,2	24,352
262,6	21,067
263,1	17,038
263,6	9,41
264	12,181
264,5	7,952
264,9	4,124
265,4	2,724
265,9	5,124
266,3	7,067
266,8	13,324
267,3	14,838
267,7	13,352
268,2	14,438
268,7	16,41
269,1	12,552
269,6	19,067
270	15,667
270,5	16,781
271	16,067
271,4	12,838
271,9	9,895
272,4	11,495
272,8	7,981
273,3	11,038
273,7	11,238
274,2	11,667
274,7	14,867
275,1	16,324
275,6	20,552
276,1	17,181
276,5	16,238
277	16,724
277,4	19,01
277,9	17,552
278,4	20,752
278,8	17,981
279,3	20,41
279,8	22,581
280,2	22,724
280,7	21,752
281,1	22,867
281,6	22,952
282,1	24,581
282,5	24,781
283	22,838
283,4	19,381
283,9	20,295
284,4	21,124
284,8	16,267
285,3	14,152
285,8	11,581
286,2	8,752
286,7	8,352
287,1	3,552
287,6	1,838
288,1	4,524
288,5	5,467
289	5,295
289,5	8,581
289,9	6,838
290,4	7,21
290,8	10,324
291,3	14,038
291,8	11,581
292,2	13,781
292,7	13,952
293,1	13,324
293,6	11,581
294,1	7,838
294,5	4,124
295	6,238
295,5	6,524
295,9	7,581
296,4	7,124
296,8	10,467
297,3	16,295
297,8	21,667
298,2	20,41
298,7	21,267
299,1	20,81
299,6	24,724
300,1	28,524
300,5	26,638
301	26,552
301,5	24,724
301,9	19,467
302,4	16,295
302,8	14,238
303,3	18,067
303,8	18,581
304,2	16,381
304,7	18,495
305,1	19,952
305,6	20,381
306,1	20,381
306,5	7,152
307	5,61
307,4	-0,133
307,9	1,495
308,4	0,552
308,8	3,838
309,3	5,895
309,8	13,01
310,2	13,752
310,7	15,61
311,1	15,095
311,6	16,81
312,1	10,867
312,5	9,781
313	9,352
313,4	9,181
313,9	11,952
314,4	10,267
314,8	16,095
315,3	24,952
315,7	27,838
316,2	27,324
316,7	29,095
317,1	25,81
317,6	29,181
318	25,752
318,5	24,038
319	19,638
319,4	20,495
319,9	14,067
320,3	16,295
320,8	10,438
321,3	8,981
321,7	7,781
322,2	5,867
322,6	9,152
323,1	7,324
323,6	8,638
324	11,81
324,5	12,924
324,9	13,41
325,4	17,295
325,9	15,81
326,3	20,781
326,8	16,581
327,2	16,152
327,7	14,667
328,2	15,181
328,6	18,667
329,1	13,524
329,5	13,781
330	18,781
330,5	25,867
330,9	25,381
331,4	22,038
331,8	18,038
332,3	20,181
332,8	18,067
333,2	16,41
333,7	6,124
334,1	4,438
334,6	2,581
335,1	4,01
335,5	2,981
336	8,067
336,4	6,81
336,9	12,667
337,4	13,867
337,8	17,552
338,3	17,81
338,7	23,01
339,2	17,181
339,7	17,838
340,1	11,838
340,6	14,81
341	16,01
341,5	16,295
342	13,867
342,4	10,638
342,9	10,21
343,3	17,038
343,8	17,81
344,2	15,895
344,7	13,867
345,2	13,438
345,6	20,324
346,1	20,095
346,5	16,867
347	12,752
347,5	15,152
347,9	11,267
348,4	10,038
348,8	11,838
349,3	9,152
349,8	10,181
350,2	13,267
350,7	12,495
351,1	18,752
351,6	21,552
352	22,981
352,5	29,524
353	35,352
353,4	40,724
353,9	47,638
354,3	60,381
354,8	64,81
355,3	76,724
355,7	91,81
356,2	107,924
356,6	125,981
357,1	149,295
357,5	169,181
358	206,181
358,5	236,21
358,9	271,895
359,4	312,124
359,8	359,952
360,3	406,324
360,8	466,838
361,2	525,61
361,7	600,695
362,1	677,638
362,6	757,095
363	850,152
363,5	949,238
364	1047,495
364,4	1154,781
364,9	1255,381
365,3	1359,438
365,8	1466,495
366,3	1555,867
366,7	1636,667
367,2	1709,495
367,6	1766,095
368,1	1810,924
368,5	1841,067
369	1853,752
369,5	1855,381
369,9	1847,295
370,4	1818,038
370,8	1778,267
371,3	1725,867
371,7	1667,952
372,2	1602,352
372,7	1527,41
373,1	1454,181
373,6	1372,924
374	1286,781
374,5	1202,552
374,9	1121,238
375,4	1039,895
375,9	965,724
376,3	881,124
376,8	812,981
377,2	751,181
377,7	694,352
378,2	635,952
378,6	585,324
379,1	528,952
379,5	489,667
380	447,81
380,4	412,924
380,9	379,495
381,4	347,867
381,8	319,267
382,3	300,581
382,7	275,724
383,2	252,981
383,6	236,095
384,1	221,524
384,6	206,124
385	196,495
385,5	185,752
385,9	175,181
386,4	173,324
386,8	158,438
387,3	146,781
387,7	142,495
388,2	130,752
388,7	121,124
389,1	114,552
389,6	106,495
390	102,781
390,5	102,467
390,9	91,324
391,4	88,952
391,9	86,381
392,3	81,924
392,8	76,524
393,2	76,952
393,7	72,095
394,1	75,352
394,6	71,581
395,1	74,524
395,5	72,324
396	70,895
396,4	64,381
396,9	60,21
397,3	59,352
397,8	54,01
398,2	46,21
398,7	42,981
399,2	42,952
399,6	45,124
400,1	39,01
400,5	34,038
401	41,495
401,4	41,838
401,9	44,695
402,4	40,638
402,8	45,324
403,3	54,01
403,7	57,781
404,2	55,267
404,6	50,867
405,1	54,21
405,5	56,581
406	53,238
406,5	52,495
406,9	51,781
407,4	46,952
407,8	53,095
408,3	49,952
408,7	50,695
409,2	45,467
409,6	45,724
410,1	45,495
410,6	47,524
411	49,695
411,5	47,638
411,9	45,61
412,4	55,352
412,8	52,495
413,3	54,467
413,7	55,41
414,2	55,524
414,7	58,667
415,1	65,781
415,6	57,895
416	62,61
416,5	69,61
416,9	75,295
417,4	79,638
417,8	84,61
418,3	84,067
418,8	92,695
419,2	98,21
419,7	98,01
420,1	93,295
420,6	94,981
421	98,724
421,5	103,781
421,9	102,952
422,4	104,838
422,8	103,552
423,3	108,781
423,8	106,61
424,2	105,495
424,7	104,667
425,1	106,01
425,6	102,981
426	106,467
426,5	108,581
426,9	112,181
427,4	116,181
427,9	119,295
428,3	123,838
428,8	123,495
429,2	121,21
429,7	121,495
430,1	118,467
430,6	111,352
431	110,352
431,5	107,724
431,9	114,181
432,4	115,695
432,8	120,952
433,3	125,867
433,8	135,095
434,2	137,667
434,7	141,552
435,1	143,695
435,6	146,695
436	150,81
436,5	156,495
436,9	163,895
437,4	168,238
437,8	173,895
438,3	181,552
438,8	189,41
439,2	194,581
439,7	202,752
440,1	207,667
440,6	217,752
441	228,867
441,5	236,695
441,9	245,067
442,4	254,952
442,8	261,781
443,3	274,81
443,7	276,695
444,2	287,695
444,7	298,267
445,1	316,067
445,6	330,952
446	347,924
446,5	360,524
446,9	388,552
447,4	403,067
447,8	423,781
448,3	439,524
448,7	455,895
449,2	470,095
449,6	486,695
450,1	500,467
450,6	519,181
451	537,667
451,5	560,324
451,9	580,41
452,4	602,095
452,8	623,067
453,3	644,667
453,7	668,524
454,2	684,952
454,6	702,495
455,1	727,895
455,5	757,124
456	784,181
456,4	810,952
456,9	837,981
457,3	868,095
457,8	894,552
458,3	922,467
458,7	952,324
459,2	976,495
459,6	1009,238
460,1	1039,581
460,5	1070,581
461	1106,867
461,4	1136,295
461,9	1164,095
462,3	1203,067
462,8	1233,752
463,2	1267,61
463,7	1302,152
464,1	1332,695
464,6	1367,524
465	1398,781
465,5	1432,695
466	1470,752
466,4	1507,781
466,9	1544,41
467,3	1583,267
467,8	1625,924
468,2	1668,067
468,7	1713,724
469,1	1749,495
469,6	1785,61
470	1829,267
470,5	1870,781
470,9	1906,924
471,4	1955,324
471,8	1990,724
472,3	2030,952
472,7	2071,895
473,2	2113,41
473,6	2149,181
474,1	2192,152
474,5	2216,724
475	2257,638
475,4	2294,324
475,9	2331,752
476,4	2366,438
476,8	2404,067
477,3	2434,552
477,7	2477,324
478,2	2508,41
478,6	2547,095
479,1	2593,238
479,5	2626,952
480	2665,81
480,4	2704,267
480,9	2736,61
481,3	2771,781
481,8	2805,381
482,2	2832,352
482,7	2867,438
483,1	2898,752
483,6	2934,695
484	2967,438
484,5	2997,981
484,9	3034,038
485,4	3062,495
485,8	3093,495
486,3	3118,781
486,7	3142,038
487,2	3172,752
487,6	3194,981
488,1	3217,038
488,5	3235,952
489	3258,695
489,4	3287,752
489,9	3308,324
490,4	3327,952
490,8	3349,267
491,3	3363,324
491,7	3392,724
492,2	3418,724
492,6	3442,095
493,1	3466,067
493,5	3489,752
494	3519,581
494,4	3538,924
494,9	3550,838
495,3	3559,667
495,8	3565,295
496,2	3582,095
496,7	3588,381
497,1	3594,41
497,6	3611,267
498	3632,724
498,5	3641,295
498,9	3654,981
499,4	3659,21
499,8	3670,895
500,3	3683,952
500,7	3689,581
501,2	3687,838
501,6	3698,267
502,1	3710,238
502,5	3725,981
503	3738,581
503,4	3751,01
503,9	3770,638
504,3	3783,752
504,8	3793,495
505,2	3804,381
505,7	3810,152
506,1	3817,352
506,6	3812,638
507	3814,21
507,5	3819,895
507,9	3837,781
508,4	3845,638
508,8	3850,781
509,3	3864,095
509,7	3876,21
510,2	3882,924
510,6	3888,752
511,1	3883,01
511,5	3887,124
512	3887,867
512,4	3888,01
512,9	3895,524
513,3	3898,067
513,8	3907,695
514,2	3916,981
514,7	3919,61
515,1	3931,267
515,6	3935,638
516	3937,638
516,5	3942,01
516,9	3941,952
517,4	3945,924
517,8	3950,524
518,3	3954,552
518,7	3957,381
519,2	3961,552
519,6	3963,41
520,1	3972,695
520,5	3975,667
521	3968,781
521,4	3972,21
521,9	3974,81
522,3	3983,467
522,8	3992,752
523,2	3998,867
523,7	4003,381
524,1	4021,324
524,6	4031,267
525	4047,267
525,5	4050,124
525,9	4060,438
526,4	4065,095
526,8	4072,752
527,3	4081,41
527,7	4088,981
528,2	4093,095
528,6	4103,638
529,1	4109,781
529,5	4113,695
530	4121,295
530,4	4130,095
530,9	4133,981
531,3	4141,152
531,8	4146,81
532,2	4156,952
532,6	4164,21
533,1	4173,067
533,5	4172,495
534	4175,724
534,4	4173,695
534,9	4186,095
535,3	4190,124
535,8	4206,724
536,2	4214,238
536,7	4220,724
537,1	4235,467
537,6	4253,895
538	4258,495
538,5	4266,524
538,9	4268,581
539,4	4276,695
539,8	4295,867
540,3	4301,752
540,7	4301,638
541,2	4313,752
541,6	4322,638
542,1	4335,095
542,5	4343,038
543	4347,667
543,4	4361,181
543,9	4378,267
544,3	4389,524
544,8	4394,952
545,2	4405,381
545,7	4415,324
546,1	4424,038
546,5	4427,667
547	4430,438
547,4	4430,724
547,9	4442,638
548,3	4446,438
548,8	4449,238
549,2	4460,895
549,7	4471,067
550,1	4476,724
550,6	4486,895
551	4498,752
551,5	4505,724
551,9	4524,238
552,4	4528,295
552,8	4537,81
553,3	4546,352
553,7	4552,324
554,2	4559,952
554,6	4571,495
555,1	4577,695
555,5	4581,724
555,9	4588,667
556,4	4602,41
556,8	4617,324
557,3	4618,352
557,7	4622,524
558,2	4628,81
558,6	4642,352
559,1	4648,895
559,5	4653,924
560	4659,638
560,4	4662,781
560,9	4669,695
561,3	4669,895
561,8	4677,552
562,2	4677,267
562,7	4679,324
563,1	4683,952
563,6	4690,924
564	4694,124
564,4	4703,381
564,9	4704,981
565,3	4717,667
565,8	4729,752
566,2	4735,495
566,7	4749,667
567,1	4756,81
567,6	4756,124
568	4756,238
568,5	4754,495
568,9	4754,895
569,4	4756,352
569,8	4757,152
570,3	4756,41
570,7	4767,21
571,1	4767,495
571,6	4772,124
572	4776,724
572,5	4777,095
572,9	4773,524
573,4	4776,067
573,8	4774,524
574,3	4777,324
574,7	4779,181
575,2	4769,495
575,6	4774,638
576,1	4770,724
576,5	4769,552
576,9	4764,61
577,4	4768,895
577,8	4760,638
578,3	4765,095
578,7	4753,752
579,2	4755,124
579,6	4753,695
580,1	4747,267
580,5	4734,81
581	4727,867
581,4	4720,61
581,9	4718,41
582,3	4707,495
582,7	4693,01
583,2	4692,61
583,6	4688,324
584,1	4682,495
584,5	4677,467
585	4666,781
585,4	4662,895
585,9	4665,01
586,3	4655,524
586,8	4644,495
587,2	4641,952
587,6	4629,752
588,1	4621,867
588,5	4620,495
589	4609,267
589,4	4599,238
589,9	4595,781
590,3	4581,924
590,8	4578,352
591,2	4571,381
591,7	4552,238
592,1	4549,067
592,5	4547,752
593	4538,924
593,4	4536,438
593,9	4526,838
594,3	4526,752
594,8	4524,952
595,2	4516,152
595,7	4506,781
596,1	4500,895
596,6	4496,095
597	4494,495
597,4	4484,438
597,9	4479,895
598,3	4471,552
598,8	4463,638
599,2	4462,01
599,7	4454,41
600,1	4437,324
600,6	4419,752
601	4408,981
601,4	4404,552
601,9	4391,295
602,3	4370,324
602,8	4358,267
603,2	4355,724
603,7	4352,552
604,1	4341,81
604,6	4321,895
605	4313,895
605,4	4311,581
605,9	4294,867
606,3	4285,895
606,8	4275,667
607,2	4267,438
607,7	4259,295
608,1	4248,152
608,6	4236,467
609	4230,924
609,4	4212,438
609,9	4193,895
610,3	4175,867
610,8	4163,981
611,2	4151,752
611,7	4129,381
612,1	4114,924
612,6	4103,067
613	4089,981
613,4	4071,124
613,9	4054,467
614,3	4041,41
614,8	4030,067
615,2	4017,152
615,7	4005,838
616,1	3992,667
616,6	3986,752
617	3973,21
617,4	3957,124
617,9	3941,638
618,3	3921,667
618,8	3904,981
619,2	3891,381
619,7	3877,181
620,1	3864,924
620,5	3848,038
621	3834,61
621,4	3826,752
621,9	3807,81
622,3	3789,61
622,8	3760,381
623,2	3735,867
623,6	3715,695
624,1	3697,495
624,5	3673,095
625	3664,981
625,4	3645,838
625,9	3636,552
626,3	3628,21
626,8	3615,924
627,2	3600,41
627,6	3592,781
628,1	3573,21
628,5	3556,438
629	3541,981
629,4	3518,61
629,9	3505,41
630,3	3489,581
630,7	3470,181
631,2	3447,181
631,6	3436,352
632,1	3419,752
632,5	3400,581
633	3374,552
633,4	3357,067
633,8	3340,095
634,3	3320,695
634,7	3306,552
635,2	3290,295
635,6	3281,124
636,1	3266,067
636,5	3243,095
636,9	3225,324
637,4	3211,61
637,8	3184,867
638,3	3165,552
638,7	3144,238
639,2	3130,952
639,6	3125,752
640	3106,41
640,5	3086,838
640,9	3071,695
641,4	3056,467
641,8	3047,21
642,2	3030,352
642,7	3003,295
643,1	2992,924
643,6	2982,867
644	2973,381
644,5	2966,867
644,9	2950,924
645,3	2942,295
645,8	2932,181
646,2	2912,124
646,7	2895,667
647,1	2882,581
647,6	2860,724
648	2845,238
648,4	2826,752
648,9	2815,181
649,3	2799,181
649,8	2784,924
650,2	2767,724
650,6	2756,581
651,1	2738,41
651,5	2716,895
652	2704,838
652,4	2695,381
652,9	2680,095
653,3	2669,095
653,7	2653,21
654,2	2641,81
654,6	2628,095
655,1	2610,781
655,5	2597,467
655,9	2585,067
656,4	2567,381
656,8	2551,581
657,3	2536,581
657,7	2526,638
658,2	2515,267
658,6	2495,124
659	2477,438
659,5	2462,267
659,9	2444,752
660,4	2426,495
660,8	2411,667
661,2	2390,695
661,7	2381,638
662,1	2372,524
662,6	2359,181
663	2345,981
663,4	2335,952
663,9	2318,352
664,3	2308,895
664,8	2291,295
665,2	2268,924
665,6	2248,724
666,1	2234,695
666,5	2220,581
667	2207,924
667,4	2193,838
667,9	2187,524
668,3	2178,952
668,7	2170,095
669,2	2155,695
669,6	2142,495
670,1	2129,438
670,5	2109,324
670,9	2090,41
671,4	2073,21
671,8	2060,181
672,3	2046,067
672,7	2027,267
673,1	2011,467
673,6	2000,524
674	1981,895
674,5	1972,238
674,9	1959,638
675,3	1946,152
675,8	1934,667
676,2	1921,352
676,7	1908,981
677,1	1899,352
677,5	1885,867
678	1876,324
678,4	1870,41
678,9	1860,552
679,3	1856,667
679,7	1846,267
680,2	1835,352
680,6	1831,895
681,1	1816,724
681,5	1799,152
681,9	1785,238
682,4	1768,81
682,8	1759,495
683,3	1745,867
683,7	1725,924
684,1	1714,41
684,6	1708,067
685	1696,781
685,5	1687,381
685,9	1674,667
686,3	1664,524
686,8	1658,41
687,2	1650,838
687,7	1638,638
688,1	1628,381
688,5	1615,581
689	1604,438
689,4	1593,667
689,9	1581,752
690,3	1568,724
690,7	1560,467
691,2	1551,324
691,6	1546,295
692	1534,067
692,5	1525,038
692,9	1507,01
693,4	1493,581
693,8	1479,81
694,2	1468,667
694,7	1451,295
695,1	1444,724
695,6	1438,81
696	1436,095
696,4	1429,695
696,9	1419,581
697,3	1409,61
697,8	1404,695
698,2	1395,267
698,6	1381,838
699,1	1375,41
699,5	1359,381
699,9	1353,781
700,4	1346,038
700,8	1337,124
701,3	1333,924
701,7	1327,524
702,1	1316,095
702,6	1314,238
703	1303,267
703,5	1292,095
703,9	1276,638
704,3	1262,895
704,8	1249,61
705,2	1241,695
705,6	1231,838
706,1	1223,21
706,5	1224,695
707	1221,495
707,4	1213,01
707,8	1204,552
708,3	1194,41
708,7	1186,895
709,2	1181,667
709,6	1162,981
710	1151,724
710,5	1144,495
710,9	1141,524
711,3	1132,01
711,8	1123,981
712,2	1112,467
712,7	1108,924
713,1	1107,924
713,5	1097,695
714	1089,867
714,4	1082,638
714,8	1074,067
715,3	1070,724
715,7	1063,095
716,2	1051,324
716,6	1043,867
717	1032,352
717,5	1019,181
717,9	1015,038
718,3	1005,695
718,8	998,952
719,2	991,981
719,7	984,438
720,1	980,695
720,5	983,095
721	971,381
721,4	963,381
721,8	953,352
722,3	950,552
722,7	947,067
723,2	934,552
723,6	923,438
724	917,552
724,5	908,095
724,9	903,038
725,3	889,152
725,8	882,095
726,2	872,867
726,7	870,524
727,1	866,295
727,5	861,724
728	855,838
728,4	852,067
728,8	844,352
729,3	843,21
729,7	835,067
730,1	825,638
730,6	818,924
731	816,752
731,5	810,238
731,9	809,352
732,3	809,61
732,8	804,552
733,2	801,238
733,6	797,61
734,1	788,61
734,5	785,238
734,9	775,038
735,4	765,61
735,8	757,038
736,3	753,781
736,7	752,724
737,1	750,067
737,6	743,981
738	737,724
738,4	732,581
738,9	732,381
739,3	729,895
739,7	718,695
740,2	714,124
740,6	711,924
741,1	707,952
741,5	704,581
741,9	699,295
742,4	691,41
742,8	691,067
743,2	686,695
743,7	679,552
744,1	679,667
744,5	679,124
745	671,924
745,4	670,667
745,8	668,638
746,3	664,895
746,7	663,41
747,2	655,238
747,6	644,467
748	645,667
748,5	638,495
748,9	630,952
749,3	616,61
749,8	611,238
750,2	605,724
750,6	608,467
751,1	597,952
751,5	594,838
751,9	591,524
752,4	592,552
752,8	590,41
753,3	590,952
753,7	577,01
754,1	576,41
754,6	571,581
755	565,067
755,4	568,267
755,9	560,21
756,3	557,41
756,7	556,952
757,2	553,638
757,6	551,867
758	547,952
758,5	542,695
758,9	540,981
759,3	534,752
759,8	530,381
760,2	520,038
760,6	513,981
761,1	507,924
761,5	505,181
761,9	502,381
762,4	498,467
762,8	499,21
763,3	499,038
763,7	495,752
764,1	499,381
764,6	491,067
765	483,267
765,4	481,01
765,9	473,895
766,3	475,467
766,7	473,095
767,2	468,038
767,6	467,295
768	469,752
768,5	465,552
768,9	467,21
769,3	460,41
769,8	458,21
770,2	456,638
770,6	456,781
771,1	451,895
771,5	450,152
771,9	448,581
772,4	447,552
772,8	442,81
773,2	441,038
773,7	431,838
774,1	429,81
774,5	419,267
775	409,152
775,4	404,61
775,8	406,61
776,3	404,924
776,7	404,867
777,1	402,838
777,6	404,495
778	403,524
778,4	404,981
778,9	397,067
779,3	391,238
779,7	386,552
780,2	389,695
780,6	386,952
781	383,467
781,5	376,21
781,9	376,067
782,3	369,781
782,8	373,552
783,2	363,095
783,6	363,667
784,1	362,324
784,5	358,552
784,9	356,61
785,4	355,638
785,8	349,667
786,2	345,495
786,7	344,724
787,1	345,724
787,5	346,438
788	342,038
788,4	340,581
788,8	336,381
789,3	335,638
789,7	332,267
790,1	325,752
790,6	323,838
791	321,924
791,4	322,152
791,9	315,695
792,3	314,21
792,7	305,038
793,2	303,924
793,6	299,467
794	293,952
794,5	291,01
794,9	295,581
795,3	298,238
795,8	301,724
796,2	295,524
796,6	296,467
797,1	294,867
797,5	295,638
797,9	294,438
798,4	285,038
798,8	280,638
799,2	288,695
799,7	284,867
800,1	282,038
800,5	272,981
801	272,61
801,4	275,552
801,8	272,467
802,2	267,467
802,7	266,838
803,1	269,067
803,5	266,352
804	259,838
804,4	252,752
804,8	251,667
805,3	254,067
805,7	251,352
806,1	246,981
806,6	248,438
807	242,81
807,4	243,924
807,9	242,038
808,3	232,324
808,7	230,581
809,2	228,638
809,6	226,952
810	225,295
810,4	223,924
810,9	222,124
811,3	223,181
811,7	224,181
812,2	222,152
812,6	214,581
813	216,381
813,5	212,667
813,9	210,352
814,3	206,838
814,8	200,838
815,2	201,667
815,6	202,895
816,1	200,895
816,5	202,267
816,9	199,867
817,3	198,324
817,8	197,781
818,2	197,41
818,6	199,952
819,1	201,095
819,5	197,81
819,9	200,667
820,4	202,124
820,8	197,695
821,2	196,781
821,7	193,61
822,1	191,381
822,5	188,81
822,9	189,21
823,4	186,981
823,8	188,495
824,2	188,495
824,7	187,752
825,1	182,01
825,5	181,667
826	174,924
826,4	172,067
826,8	169,41
827,3	164,438
827,7	163,524
828,1	164,295
828,5	160,438
829	163,752
829,4	159,324
829,8	158,867
830,3	160,095
830,7	158,067
831,1	160,238
831,6	164,181
832	162,952
832,4	162,467
832,8	159,895
833,3	158,981
833,7	154,01
834,1	154,667
834,6	149,895
835	148,61
835,4	147,381
835,8	148,438
836,3	141,352
836,7	145,038
837,1	137,952
837,6	137,467
838	133,81
838,4	135,838
838,9	132,21
839,3	141,981
839,7	143,267
840,1	140,924
840,6	142,61
841	147,324
841,4	147,838
841,9	146,267
842,3	135,981
842,7	128,724
843,1	130,295
843,6	128,152
844	121,067
844,4	116,41
844,9	115,724
845,3	118,41
845,7	119,01
846,2	120,01
846,6	119,695
847	118,524
847,4	113,01
847,9	111,895
848,3	111,438
848,7	110,095
849,2	108,895
849,6	102,438
850	104,095
850,4	110,467
850,9	110,838
851,3	109,181
851,7	104,81
852,2	101,924
852,6	105,267
853	98,667
853,4	94,724
853,9	90,695
854,3	89,581
854,7	92,724
855,2	94,152
855,6	94,238
856	97,038
856,4	98,01
856,9	103,324
857,3	97,181
857,7	97,581
858,2	90,181
858,6	86,981
859	82,495
859,4	82,238
859,9	80,895
860,3	83,752
860,7	81,752
861,1	82,667
861,6	86,667
862	89,095
862,4	85,467
862,9	83,095
863,3	81,181
863,7	82,838
864,1	82,524
864,6	81,181
865	84,867
865,4	86,981
865,9	86,552
866,3	87,895
866,7	88,352
867,1	90,924
867,6	88,181
868	91,924
868,4	89,867
868,8	90,81
869,3	89,638
869,7	85,067
870,1	85,724
870,6	81,467
871	125,867
871,4	122,952
871,8	119,724
872,3	117,552
872,7	119,152
873,1	116,067
873,5	122,152
874	62,552
874,4	66,981
874,8	73,781
875,3	72,952
875,7	71,61
876,1	72,467
876,5	66,495
877	71,267
877,4	68,238
877,8	62,067
878,2	65,067
878,7	66,467
879,1	62,81
879,5	62,038
879,9	64,01
880,4	66,381
880,8	67,867
881,2	68,095
881,7	63,552
882,1	71,038
882,5	75,324
882,9	73,438
883,4	73,781
883,8	72,581
884,2	67,238
884,6	70,067
885,1	62,924
885,5	58,067
885,9	57,695
886,3	58,152
886,8	55,438
887,2	55,295
887,6	54,952
888	54,952
888,5	58,467
888,9	56,952
889,3	56,867
889,8	56,752
890,2	58,952
890,6	55,267
891	56,524
891,5	56,895
891,9	56,467
892,3	48,495
892,7	52,581
893,2	52,295
893,6	52,41
894	50,81
894,4	49,295
894,9	50,038
895,3	52,01
895,7	45,667
896,1	43,152
896,6	43,981
897	44,381
897,4	45,267
897,8	45,21
898,3	51,81
898,7	55,01
899,1	58,324
899,5	60,324
900	57,21
900,4	54,152
900,8	52,21
901,2	46,124
901,7	43,581
902,1	45,752
902,5	43,667
902,9	41,381
903,4	39,638
903,8	41,21
904,2	41,038
904,6	41,495
905,1	43,01
905,5	45,724
905,9	49,324
906,3	48,352
906,8	46,924
907,2	44,638
907,6	47,981
908	37,552
908,5	35,295
908,9	36,867
909,3	37,981
909,7	40,781
910,2	48,952
910,6	41,524
911	43,095
911,4	42,552
911,9	38,438
912,3	35,21
912,7	28,61
913,1	19,924
913,6	22,152
914	27,067
914,4	21,152
914,8	22,895
915,3	26,381
915,7	31,781
916,1	34,038
916,5	37,752
916,9	32,038
917,4	38,695
917,8	37,895
918,2	34,41
918,6	36,638
919,1	36,667
919,5	33,41
919,9	37,01
920,3	34,838
920,8	34,61
921,2	34,838
921,6	33,352
922	35,695
922,5	39,61
922,9	38,095
923,3	37,01
923,7	39,667
924,2	42,895
924,6	39,067
925	36,438
925,4	34,638
925,8	34,152
926,3	37,181
926,7	36,61
927,1	37,352
927,5	40,838
928	41,238
928,4	38,381
928,8	39,895
929,2	36,21
929,7	34,895
930,1	32,324
930,5	31,324
930,9	30,181
931,3	32,324
931,8	29,838
932,2	31,381
932,6	29,352
933	30,238
933,5	35,724
933,9	35,267
934,3	37,524
934,7	33,01
935,2	36,01
935,6	34,152
936	31,324
936,4	23,895
936,8	22,581
937,3	18,667
937,7	20,981
938,1	18,124
938,5	20,095
939	23,295
939,4	25,352
939,8	26,324
940,2	24,924
940,6	27,61
941,1	26,152
941,5	26,095
941,9	26,524
942,3	22,067
942,8	25,152
943,2	27,924
943,6	28,638
944	25,895
944,4	28,524
944,9	29,238
945,3	28,067
945,7	26,524
946,1	25,352
946,6	25,752
947	28,61
947,4	27,81
947,8	27,781
948,2	29,295
948,7	22,952
949,1	24,781
949,5	24,61
949,9	24,695
950,3	23,695
950,8	22,124
951,2	24,924
951,6	28,21
952	29,038
952,5	26,238
952,9	25,095
953,3	26,781
953,7	28,095
954,1	27,552
954,6	28,41
955	26,867
955,4	31,124
955,8	31,21
956,2	30,581
956,7	26,838
957,1	25,867
957,5	24,81
957,9	23,352
958,3	19,124
958,8	17,295
959,2	13,352
959,6	14,924
960	17,581
960,5	15,752
960,9	18,524
961,3	16,867
961,7	18,524
962,1	23,124
962,6	21,381
963	18,181
963,4	21,61
963,8	19,552
964,2	23,267
964,7	21,638
965,1	13,81
965,5	15,638
965,9	17,552
966,3	17,21
966,8	20,267
967,2	15,181
967,6	17,095
968	21,924
968,4	21,352
968,9	21,267
969,3	18,381
969,7	9,638
970,1	13,038
970,5	12,21
971	9,981
971,4	6,895
971,8	5,495
972,2	10,667
972,6	12,467
973,1	8,981
973,5	8,667
973,9	12,467
974,3	15,838
974,7	12,438
975,2	8,781
975,6	11,952
976	14,381
976,4	15,381
976,8	12,952
977,3	12,867
977,7	15,695
978,1	15,667
978,5	14,667
978,9	13,895
979,4	11,724
979,8	14,01
980,2	13,095
980,6	14,467
981	17,038
981,5	12,952
981,9	17,324
982,3	20,01
982,7	18,038
983,1	16,095
983,6	15,238
984	10,81
984,4	15,01
984,8	12,81
985,2	11,438
985,6	10,438
986,1	13,981
986,5	13,438
986,9	15,267
987,3	13,638
987,7	13,438
988,2	14,095
988,6	15,152
989	17,838
989,4	19,895
989,8	16,781
990,3	19,095
990,7	21,581
991,1	20,495
991,5	21,067
991,9	14,21
992,3	14,152
992,8	16,724
993,2	16,867
993,6	13,038
994	10,867
994,4	15,352
994,9	19,038
995,3	24,295
995,7	25,295
996,1	26,381
996,5	27,41
996,9	26,238
997,4	21,495
997,8	23,067
998,2	12,638
998,6	15,638
999	12,495
999,5	11,61
999,9	16,952
1000,3	19,61
1000,7	18,124
1001,1	19,295
1001,5	16,581
1002	18,752
1002,4	20,152
1002,8	18,238
1003,2	15,038
1003,6	16,381
1004	12,895
1004,5	11,838
1004,9	11,21
1005,3	11,438
1005,7	8,895
1006,1	12,552
1006,6	8,267
1007	11,495
1007,4	7,267
1007,8	11,067
1008,2	12,124
1008,6	13,61
1009,1	15,095
1009,5	17,295
1009,9	18,352
1010,3	22,867
1010,7	23,067
1011,1	25,21
1011,6	29,21
1012	24,838
1012,4	28,181
1012,8	28,181
1013,2	30,41
1013,6	26,095
1014,1	22,981
1014,5	15,838
1014,9	16,581
1015,3	10,352
1015,7	12,095
1016,1	3,267
1016,6	2,067
1017	3,095
1017,4	6,838
1017,8	3,81
1018,2	11,638
1018,6	12,152
1019,1	21,181
1019,5	20,924
1019,9	23,752
1020,3	24,181
1020,7	23,581
1021,1	21,467
1021,6	19,752
1022	19,667
1022,4	24,124
1022,8	18,41
1023,2	17,095
1023,6	15,952
1024,1	10,81
1024,5	8,295
1024,9	7,867
1025,3	4,867
1025,7	10,524
1026,1	13,838
1026,6	19,324
1027	23,467
1027,4	28,695
1027,8	24,124
1028,2	21,838
1028,6	16,267
1029	11,867
1029,5	10,438
1029,9	9,867
1030,3	6,924
1030,7	9,867
1031,1	9,981
1031,5	12,981
1032	18,067
1032,4	20,867
1032,8	19,467
1033,2	20,524
1033,6	23,724
1034	26,324
1034,4	20,61
1034,9	18,924
1035,3	18,295
1035,7	18,152
1036,1	20,695
1036,5	20,267
1036,9	21,61
1037,4	27,21
1037,8	29,667
1038,2	26,095
1038,6	28,01
1039	25,981
1039,4	25,095
1039,8	21,667
1040,3	24,238
1040,7	21,81
1041,1	21,781
1041,5	18,267
1041,9	13,01
1042,3	9,924
1042,7	10,695
1043,2	7,81
1043,6	12,952
1044	17,238
1044,4	21,61
1044,8	26,981
1045,2	30,695
1045,6	33,181
1046,1	30,267
1046,5	24,21
1046,9	22,21
1047,3	20,181
1047,7	19,038
1048,1	14,01
1048,5	13,467
1049	16,524
1049,4	18,695
1049,8	20,381
1050,2	15,752
1050,6	14,81
1051	12,638
1051,4	12,181
1051,9	9,724
1052,3	8,981
1052,7	6,81
1053,1	12,667
1053,5	13,352
1053,9	21,152
1054,3	14,324
1054,8	12,381
1055,2	6,724
1055,6	9,924
1056	5,067
1056,4	8,61
1056,8	9,924
1057,2	16,752
1057,6	21,124
1058,1	28,724
1058,5	22,924
1058,9	26,352
1059,3	24,095
1059,7	21,238
1060,1	15,838
1060,5	14,495
1061	11,781
1061,4	21,981
1061,8	21,867
1062,2	22,724
1062,6	23,438
1063	27,838
1063,4	28,267
1063,8	28,067
1064,3	23,41
1064,7	25,01
1065,1	24,067
1065,5	22,324
1065,9	24,381
1066,3	26,381
1066,7	23,81
1067,1	21,61
1067,6	20,438
1068	21,438
1068,4	20,724
1068,8	17,01
1069,2	15,01
1069,6	15,752
1070	17,467
1070,4	15,438
1070,9	14,752
1071,3	14,01
1071,7	19,01
1072,1	16,467
1072,5	18,352
1072,9	12,552
1073,3	17,267
1073,7	19,181
1074,2	19,724
1074,6	20,152
1075	22,41
1075,4	21,41
1075,8	25,267
1076,2	27,181
1076,6	27,695
1077	25,467
1077,5	23,81
1077,9	24,124
1078,3	24,124
1078,7	21,238
1079,1	16,867
1079,5	13,61
1079,9	14,581
1080,3	12,724
1080,7	14,21
1081,2	17,924
1081,6	18,581
1082	20,41
1082,4	17,381
1082,8	19,21
1083,2	19,695
1083,6	17,752
1084	17,038
1084,5	19,752
1084,9	11,552
1085,3	15,295
1085,7	16,267
1086,1	15,095
1086,5	11,124
1086,9	9,095
1087,3	4,095
1087,7	8,81
1088,2	6,438
1088,6	3,295
1089	1,324
1089,4	6,838
1089,8	9,438
1090,2	9,838
1090,6	13,724
1091	14,981
1091,4	15,524
1091,9	22,352
1092,3	24,295
1092,7	20,667
1093,1	20,581
1093,5	14,924
1093,9	14,41
1094,3	17,01
1094,7	13,61
1095,1	12,295
1095,5	14,552
1096	17,524
1096,4	19,238
1096,8	18,867
1097,2	17,01
1097,6	18,838
1098	17,467
1098,4	14,552
1098,8	12,61
1099,2	11,038
1099,6	11,524
1100,1	11,781
1100,5	9,21
1100,9	13,21
1101,3	15,267
1101,7	17,038
1102,1	21,381
1102,5	19,952
1102,9	16,324
1103,3	14,924
1103,7	8,238
1104,2	7,438
1104,6	10,667
1105	10,238
1105,4	8,695
1105,8	10,752
1106,2	9,438
1106,6	8,838
1107	8,152
1107,4	3,9
1107,8	-0,693
1108,3	0,767
