Data from Subt2_00087.txt Node
Date: Mon Aug 28 13:33:36 MSK 2023
User: vat
Spectrometer: MAYP114033
Trigger mode: 0
Integration Time (sec): 1,000000E0
Scans to average: 5
Electric dark correction enabled: true
Nonlinearity correction enabled: false
Boxcar width: 3
XAxis mode: Wavelengths
Number of Pixels in Spectrum: 2068
>>>>>Begin Spectral Data<<<<<
199,4	-0,667
199,9	-3,287
200,4	-2,367
200,8	2,319
201,3	4,49
201,8	5,319
202,2	5,633
202,7	7,919
203,2	12,005
203,6	14,462
204,1	12,576
204,6	11,148
205	10,09
205,5	12,005
206	11,89
206,4	9,348
206,9	6,805
207,4	4,462
207,8	4,29
208,3	6,319
208,8	3,862
209,2	4,833
209,7	7,233
210,2	10,49
210,6	17,29
211,1	21,605
211,5	20,319
212	23,49
212,5	20,948
212,9	14,69
213,4	13,462
213,9	4,29
214,3	1,319
214,8	3,748
215,3	2,833
215,7	5,862
216,2	6,29
216,7	10,776
217,1	11,462
217,6	15,29
218,1	14,49
218,5	14,176
219	12,405
219,5	18,462
219,9	10,776
220,4	15,148
220,9	12,748
221,3	12,519
221,8	12,748
222,3	15,233
222,7	17,376
223,2	17,005
223,6	14,89
224,1	15,262
224,6	15,49
225	14,519
225,5	8,862
226	6,262
226,4	13,405
226,9	12,719
227,4	18,119
227,8	14,09
228,3	9,862
228,8	10,89
229,2	13,576
229,7	11,405
230,2	14,748
230,6	5,176
231,1	5,605
231,5	15,833
232	18,119
232,5	13,119
232,9	13,919
233,4	13,033
233,9	15,49
234,3	20,633
234,8	15,919
235,3	14,862
235,7	15,348
236,2	12,233
236,7	7,09
237,1	12,148
237,6	12,319
238,1	14,89
238,5	18,605
239	24,776
239,4	25,262
239,9	28,633
240,4	24,976
240,8	26,833
241,3	23,519
241,8	20,89
242,2	15,319
242,7	17,662
243,2	20,862
243,6	19,69
244,1	13,948
244,6	8,233
245	9,405
245,5	8,519
245,9	9,348
246,4	3,462
246,9	3,548
247,3	3,005
247,8	4,776
248,3	4,605
248,7	7,919
249,2	3,776
249,7	7,719
250,1	4,748
250,6	4,719
251	6,262
251,5	5,805
252	2,662
252,4	3,748
252,9	5,776
253,4	11,519
253,8	12,719
254,3	15,29
254,8	14,576
255,2	15,348
255,7	12,29
256,1	6,748
256,6	4,205
257,1	4,348
257,5	-0,624
258	-5,167
258,5	-3,081
258,9	-2,252
259,4	1,29
259,9	-3,91
260,3	-3,767
260,8	-0,052
261,2	6,633
261,7	8,405
262,2	8,833
262,6	9,462
263,1	9,919
263,6	4,548
264	5,919
264,5	5,205
264,9	1,69
265,4	4,405
265,9	-0,167
266,3	1,376
266,8	7,948
267,3	5,748
267,7	4,148
268,2	4,376
268,7	1,69
269,1	6,49
269,6	8,662
270	3,776
270,5	9,919
271	6,69
271,4	5,148
271,9	3,662
272,4	-1,167
272,8	0,119
273,3	5,405
273,7	1,919
274,2	3,49
274,7	5,348
275,1	8,833
275,6	17,376
276,1	16,633
276,5	15,89
277	14,805
277,4	18,89
277,9	19,576
278,4	17,919
278,8	16,862
279,3	18,376
279,8	21,633
280,2	25,148
280,7	21,205
281,1	15,948
281,6	14,776
282,1	12,719
282,5	12,319
283	6,576
283,4	4,033
283,9	8,576
284,4	12,233
284,8	18,005
285,3	14,519
285,8	12,69
286,2	13,605
286,7	16,062
287,1	9,348
287,6	8,376
288,1	5,262
288,5	6,576
289	5,319
289,5	7,09
289,9	3,748
290,4	6,662
290,8	11,319
291,3	12,69
291,8	12,89
292,2	15,719
292,7	13,948
293,1	13,148
293,6	11,805
294,1	12,348
294,5	10,662
295	11,948
295,5	10,148
295,9	15,633
296,4	13,205
296,8	14,062
297,3	13,633
297,8	19,519
298,2	16,862
298,7	19,862
299,1	13,176
299,6	17,462
300,1	19,005
300,5	13,29
301	8,976
301,5	10,69
301,9	8,462
302,4	9,205
302,8	10,576
303,3	13,976
303,8	17,605
304,2	18,748
304,7	17,519
305,1	19,462
305,6	19,433
306,1	18,148
306,5	9,605
307	10,262
307,4	5,348
307,9	6,148
308,4	4,119
308,8	8,519
309,3	7,776
309,8	9,576
310,2	6,262
310,7	8,548
311,1	7,405
311,6	9,233
312,1	2,205
312,5	0,233
313	5,319
313,4	7,919
313,9	5,776
314,4	5,319
314,8	5,662
315,3	10,176
315,7	12,833
316,2	6,062
316,7	6,633
317,1	7,405
317,6	5,49
318	3,719
318,5	4,319
319	3,433
319,4	11,719
319,9	8,69
320,3	11,633
320,8	12,233
321,3	10,89
321,7	11,005
322,2	8,662
322,6	7,462
323,1	7,862
323,6	5,405
324	7,49
324,5	8,176
324,9	8,862
325,4	12,119
325,9	11,89
326,3	13,576
326,8	13,405
327,2	12,119
327,7	13,033
328,2	13,033
328,6	15,862
329,1	10,09
329,5	7,319
330	5,948
330,5	9,719
330,9	5,605
331,4	5,633
331,8	-0,481
332,3	6,005
332,8	7,833
333,2	10,348
333,7	3,119
334,1	0,833
334,6	-2,881
335,1	0,348
335,5	-4,338
336	-2,567
336,4	0,176
336,9	6,176
337,4	11,69
337,8	11,919
338,3	10,662
338,7	10,69
339,2	7,348
339,7	3,148
340,1	0,033
340,6	-2,31
341	-0,795
341,5	-0,081
342	1,662
342,4	-2,71
342,9	1,09
343,3	3,548
343,8	7,119
344,2	8,005
344,7	7,262
345,2	5,49
345,6	10,919
346,1	8,462
346,5	7,433
347	4,462
347,5	7,405
347,9	8,805
348,4	12,262
348,8	14,805
349,3	12,348
349,8	13,09
350,2	14,548
350,7	12,033
351,1	9,576
351,6	9,176
352	10,148
352,5	17,948
353	24,205
353,4	30,805
353,9	40,919
354,3	57,833
354,8	65,49
355,3	76,748
355,7	91,805
356,2	109,748
356,6	131,833
357,1	152,348
357,5	174,662
358	211,662
358,5	243,519
358,9	282,89
359,4	327,605
359,8	374,862
360,3	427,89
360,8	488,205
361,2	554,519
361,7	635,805
362,1	716,519
362,6	807,948
363	909,148
363,5	1020,919
364	1132,948
364,4	1245,376
364,9	1355,29
365,3	1468,576
365,8	1582,919
366,3	1681,919
366,7	1764,49
367,2	1836,805
367,6	1899,976
368,1	1947,348
368,5	1976,262
369	1984,319
369,5	1983,148
369,9	1966,919
370,4	1938,605
370,8	1895,662
371,3	1841,062
371,7	1780,09
372,2	1705,062
372,7	1619,948
373,1	1539,833
373,6	1451,948
374	1361,033
374,5	1273,976
374,9	1183,233
375,4	1099,262
375,9	1024,805
376,3	939,719
376,8	865,09
377,2	796,29
377,7	731,69
378,2	677,805
378,6	620,719
379,1	561,719
379,5	519,948
380	477,633
380,4	435,805
380,9	401,433
381,4	365,433
381,8	338,319
382,3	316,205
382,7	295,976
383,2	272,862
383,6	259,748
384,1	243,319
384,6	224,119
385	210,348
385,5	196,805
385,9	183,433
386,4	177,405
386,8	162,89
387,3	148,433
387,7	143,005
388,2	130,205
388,7	122,205
389,1	111,262
389,6	100,748
390	95,405
390,5	91,719
390,9	82,233
391,4	76,919
391,9	71,662
392,3	71,348
392,8	68,062
393,2	68,833
393,7	68,119
394,1	62,205
394,6	62,633
395,1	65,119
395,5	58,633
396	57,062
396,4	49,29
396,9	45,29
397,3	50,948
397,8	51,062
398,2	45,033
398,7	41,376
399,2	41,519
399,6	42,005
400,1	38,376
400,5	37,548
401	38,519
401,4	37,09
401,9	43,29
402,4	41,433
402,8	48,462
403,3	51,319
403,7	51,862
404,2	50,576
404,6	54,719
405,1	54,062
405,5	57,919
406	55,605
406,5	56,205
406,9	56,033
407,4	52,376
407,8	51,376
408,3	51,776
408,7	47,976
409,2	42,833
409,6	49,405
410,1	52,09
410,6	56,462
411	59,69
411,5	61,005
411,9	67,319
412,4	74,776
412,8	72,176
413,3	75,49
413,7	76,948
414,2	79,205
414,7	81,833
415,1	88,405
415,6	89,605
416	97,376
416,5	104,548
416,9	112,833
417,4	116,833
417,8	121,405
418,3	117,433
418,8	120,976
419,2	120,662
419,7	118,776
420,1	115,005
420,6	120,233
421	123,262
421,5	127,89
421,9	127,919
422,4	127,576
422,8	127,748
423,3	132,462
423,8	126,405
424,2	122,605
424,7	126,605
425,1	127,205
425,6	129,033
426	128,405
426,5	129,176
426,9	131,033
427,4	141,005
427,9	140,005
428,3	143,49
428,8	145,319
429,2	148,148
429,7	151,205
430,1	152,405
430,6	144,09
431	148,033
431,5	150,948
431,9	154,376
432,4	152,148
432,8	154,319
433,3	162,776
433,8	173,148
434,2	176,776
434,7	176,233
435,1	183,576
435,6	191,433
436	194,748
436,5	197,376
436,9	201,833
437,4	206,09
437,8	217,062
438,3	224,462
438,8	233,005
439,2	242,119
439,7	250,748
440,1	257,633
440,6	266,719
441	275,69
441,5	281,776
441,9	291,748
442,4	304,205
442,8	314,433
443,3	323,433
443,7	330,748
444,2	339,062
444,7	353,148
445,1	365,833
445,6	376,148
446	393,405
446,5	411,09
446,9	429,319
447,4	447,719
447,8	462,433
448,3	483,919
448,7	500,405
449,2	514,005
449,6	532,233
450,1	548,662
450,6	571,348
451	591,176
451,5	609,776
451,9	631,576
452,4	653,205
452,8	674,119
453,3	698,262
453,7	717,662
454,2	738,976
454,6	762,862
455,1	789,833
455,5	816,262
456	845,519
456,4	873,062
456,9	901,89
457,3	931,519
457,8	956,948
458,3	983,919
458,7	1013,833
459,2	1044,605
459,6	1076,69
460,1	1113,033
460,5	1146,262
461	1178,205
461,4	1211,805
461,9	1243,548
462,3	1275,576
462,8	1308,748
463,2	1336,748
463,7	1371,062
464,1	1409,719
464,6	1442,09
465	1479,433
465,5	1516,662
466	1561,49
466,4	1605,205
466,9	1641,69
467,3	1679,148
467,8	1725,719
468,2	1765,033
468,7	1807,462
469,1	1842,576
469,6	1873,69
470	1917,29
470,5	1955,405
470,9	1989,033
471,4	2035,89
471,8	2070,776
472,3	2109,405
472,7	2158,919
473,2	2199,176
473,6	2245,805
474,1	2289,376
474,5	2327,605
475	2376,062
475,4	2414,348
475,9	2453,748
476,4	2493,119
476,8	2526,976
477,3	2562,605
477,7	2601,405
478,2	2635,748
478,6	2673,976
479,1	2712,319
479,5	2754,119
480	2798,919
480,4	2843,233
480,9	2878,748
481,3	2917,09
481,8	2957,833
482,2	2990,576
482,7	3029,462
483,1	3053,09
483,6	3083,005
484	3112,49
484,5	3145,205
484,9	3174,348
485,4	3203,319
485,8	3224,662
486,3	3254,776
486,7	3286,919
487,2	3321,805
487,6	3341,29
488,1	3363,833
488,5	3385,748
489	3412,89
489,4	3444,233
489,9	3462,748
490,4	3478,919
490,8	3504,405
491,3	3530,748
491,7	3553,462
492,2	3570,205
492,6	3583,548
493,1	3601,29
493,5	3624,548
494	3655,176
494,4	3664,719
494,9	3689,576
495,3	3704,89
495,8	3722,548
496,2	3732,633
496,7	3745,49
497,1	3742,862
497,6	3761,062
498	3772,319
498,5	3783,005
498,9	3804,948
499,4	3825,719
499,8	3839,233
500,3	3857,805
500,7	3871,976
501,2	3881,748
501,6	3896,576
502,1	3897,633
502,5	3906,119
503	3916,49
503,4	3926,09
503,9	3932,89
504,3	3941,605
504,8	3957,633
505,2	3970,69
505,7	3980,348
506,1	3981,69
506,6	3988,005
507	3999,519
507,5	4000,205
507,9	4005,862
508,4	4012,89
508,8	4022,633
509,3	4035,633
509,7	4036,348
510,2	4042,433
510,6	4058,205
511,1	4061,319
511,5	4067,69
512	4068,548
512,4	4069,576
512,9	4080,262
513,3	4085,033
513,8	4088,433
514,2	4091,233
514,7	4096,948
515,1	4106,548
515,6	4113,862
516	4119,862
516,5	4124,719
516,9	4131,262
517,4	4136,176
517,8	4137,719
518,3	4138,862
518,7	4145,462
519,2	4154,919
519,6	4155,519
520,1	4159,919
520,5	4162,948
521	4168,462
521,4	4177,862
521,9	4187,176
522,3	4188,69
522,8	4198,405
523,2	4203,09
523,7	4210,548
524,1	4216,433
524,6	4222,433
525	4229,119
525,5	4234,09
525,9	4236,805
526,4	4237,833
526,8	4248,519
527,3	4256,49
527,7	4268,519
528,2	4270,576
528,6	4280,89
529,1	4297,233
529,5	4310,576
530	4322,919
530,4	4331,605
530,9	4331,005
531,3	4340,605
531,8	4340,405
532,2	4346,205
532,6	4355,148
533,1	4352,09
533,5	4354,262
534	4362,405
534,4	4367,29
534,9	4384,633
535,3	4396,119
535,8	4405,376
536,2	4413,176
536,7	4426,462
537,1	4439,976
537,6	4448,49
538	4457,776
538,5	4462,719
538,9	4464,833
539,4	4482,548
539,8	4490,605
540,3	4501,49
540,7	4508,49
541,2	4519,605
541,6	4529,433
542,1	4544,433
542,5	4549,976
543	4564,49
543,4	4568,233
543,9	4580,348
544,3	4586,29
544,8	4590,205
545,2	4600,376
545,7	4609,233
546,1	4610,69
546,5	4621,033
547	4635,376
547,4	4639,976
547,9	4650,748
548,3	4658,09
548,8	4665,519
549,2	4674,519
549,7	4682,776
550,1	4688,433
550,6	4693,405
551	4700,976
551,5	4705,005
551,9	4717,462
552,4	4723,233
552,8	4732,176
553,3	4741,919
553,7	4752,348
554,2	4768,576
554,6	4783,405
555,1	4787,548
555,5	4795,433
555,9	4803,405
556,4	4811,633
556,8	4828,919
557,3	4836,148
557,7	4842,948
558,2	4861,519
558,6	4876,29
559,1	4877,833
559,5	4878,262
560	4876,319
560,4	4875,119
560,9	4875,833
561,3	4870,433
561,8	4875,919
562,2	4888,862
562,7	4890,69
563,1	4899,719
563,6	4904,976
564	4911,348
564,4	4921,776
564,9	4923,89
565,3	4926,319
565,8	4936,719
566,2	4939,919
566,7	4949,233
567,1	4956,148
567,6	4956,748
568	4961,662
568,5	4964,576
568,9	4974,605
569,4	4976,833
569,8	4978,462
570,3	4979,09
570,7	4980,948
571,1	4984,49
571,6	4984,033
572	4980,005
572,5	4979,148
572,9	4978,862
573,4	4968,776
573,8	4972,748
574,3	4971,005
574,7	4968,89
575,2	4963,776
575,6	4964,862
576,1	4965,862
576,5	4974,062
576,9	4962,462
577,4	4959,405
577,8	4952,262
578,3	4955,033
578,7	4950,633
579,2	4937,69
579,6	4941,29
580,1	4946,49
580,5	4942,348
581	4940,719
581,4	4936,033
581,9	4929,548
582,3	4930,348
582,7	4909,519
583,2	4900,605
583,6	4889,862
584,1	4892,633
584,5	4876,919
585	4876,405
585,4	4859,519
585,9	4857,09
586,3	4843,548
586,8	4842,633
587,2	4831,69
587,6	4831,005
588,1	4819,262
588,5	4818,833
589	4814,033
589,4	4811,348
589,9	4795,376
590,3	4780,948
590,8	4767,062
591,2	4749,633
591,7	4744,719
592,1	4737,548
592,5	4732,119
593	4730,805
593,4	4726,833
593,9	4721,719
594,3	4721,776
594,8	4719,776
595,2	4707,462
595,7	4695,319
596,1	4687,89
596,6	4678,262
597	4673,09
597,4	4666,405
597,9	4653,376
598,3	4643,776
598,8	4632,29
599,2	4620,89
599,7	4618,548
600,1	4607,833
600,6	4597,862
601	4580,262
601,4	4575,148
601,9	4567,776
602,3	4556,89
602,8	4544,148
603,2	4529,805
603,7	4513,519
604,1	4511,205
604,6	4496,29
605	4494,262
605,4	4484,576
605,9	4472,176
606,3	4464,033
606,8	4459,262
607,2	4446,976
607,7	4434,69
608,1	4411,605
608,6	4395,89
609	4378,233
609,4	4364,033
609,9	4347,576
610,3	4325,233
610,8	4316,033
611,2	4301,862
611,7	4289,148
612,1	4276,605
612,6	4262,805
613	4248,348
613,4	4240,09
613,9	4224,262
614,3	4213,519
614,8	4198,548
615,2	4183,69
615,7	4169,719
616,1	4159,205
616,6	4142,29
617	4125,605
617,4	4108,205
617,9	4094,233
618,3	4076,462
618,8	4067,69
619,2	4046,833
619,7	4030,205
620,1	4018,09
620,5	3996,262
621	3970,976
621,4	3956,776
621,9	3933,919
622,3	3918,805
622,8	3905,09
623,2	3885,805
623,6	3876,576
624,1	3868,776
624,5	3850,605
625	3833,433
625,4	3815,29
625,9	3793,662
626,3	3774,148
626,8	3751,719
627,2	3731,948
627,6	3715,376
628,1	3700,119
628,5	3683,262
629	3669,405
629,4	3650,748
629,9	3636,49
630,3	3617,433
630,7	3601,49
631,2	3580,548
631,6	3560,748
632,1	3541,233
632,5	3520,605
633	3498,462
633,4	3475,148
633,8	3450,833
634,3	3435,89
634,7	3423,833
635,2	3399,405
635,6	3386,233
636,1	3376,69
636,5	3360,205
636,9	3348,919
637,4	3324,548
637,8	3304,205
638,3	3292,605
638,7	3272,976
639,2	3247,176
639,6	3238,805
640	3216,69
640,5	3204,748
640,9	3186,49
641,4	3163,376
641,8	3149,062
642,2	3131,433
642,7	3113,062
643,1	3101,748
643,6	3086,319
644	3072,033
644,5	3066,548
644,9	3048,805
645,3	3039,89
645,8	3022,319
646,2	3005,748
646,7	2983,605
647,1	2966,49
647,6	2944,919
648	2929,833
648,4	2911,548
648,9	2898,405
649,3	2882,376
649,8	2871,405
650,2	2858,89
650,6	2849,633
651,1	2834,348
651,5	2820,633
652	2807,176
652,4	2794,976
652,9	2781,176
653,3	2763,576
653,7	2749,605
654,2	2738,405
654,6	2723,49
655,1	2703,376
655,5	2687,176
655,9	2669,49
656,4	2652,919
656,8	2629,948
657,3	2612,29
657,7	2600,176
658,2	2588,49
658,6	2573,748
659	2559,005
659,5	2548,262
659,9	2535,69
660,4	2518,89
660,8	2496,69
661,2	2480,148
661,7	2462,662
662,1	2454,548
662,6	2438,376
663	2418,49
663,4	2402,862
663,9	2391,262
664,3	2377,29
664,8	2360,376
665,2	2337,519
665,6	2319,805
666,1	2314,119
666,5	2303,548
667	2293,433
667,4	2278,805
667,9	2272,748
668,3	2260,576
668,7	2247,948
669,2	2226,319
669,6	2210,748
670,1	2192,005
670,5	2175,948
670,9	2153,433
671,4	2138,376
671,8	2124,976
672,3	2115,805
672,7	2102,09
673,1	2091,633
673,6	2078,833
674	2068,862
674,5	2051,748
674,9	2040,319
675,3	2024,748
675,8	2012,062
676,2	1992,605
676,7	1980,29
677,1	1967,148
677,5	1955,319
678	1937,262
678,4	1928,005
678,9	1917,548
679,3	1910,233
679,7	1895,519
680,2	1885,176
680,6	1881,548
681,1	1872,976
681,5	1860,005
681,9	1845,633
682,4	1836,919
682,8	1829,605
683,3	1814,719
683,7	1803,376
684,1	1789,719
684,6	1774,919
685	1758,519
685,5	1742,805
685,9	1726,49
686,3	1714,29
686,8	1696,633
687,2	1685,548
687,7	1679,09
688,1	1672,948
688,5	1663,719
689	1657,376
689,4	1648,148
689,9	1639,405
690,3	1633,519
690,7	1620,09
691,2	1604,69
691,6	1588,605
692	1571,919
692,5	1562,176
692,9	1545,462
693,4	1532,405
693,8	1522,776
694,2	1519,948
694,7	1513,576
695,1	1511,119
695,6	1503,319
696	1503,89
696,4	1491,519
696,9	1480,776
697,3	1466,262
697,8	1459,062
698,2	1440,919
698,6	1423,605
699,1	1410,576
699,5	1398,233
699,9	1388,09
700,4	1380,005
700,8	1371,519
701,3	1367,262
701,7	1361,233
702,1	1350,748
702,6	1343,09
703	1335,062
703,5	1325,719
703,9	1305,148
704,3	1295,976
704,8	1287,49
705,2	1279,662
705,6	1273,062
706,1	1264,833
706,5	1259,148
707	1257,862
707,4	1246,833
707,8	1233,605
708,3	1223,176
708,7	1216,49
709,2	1206,348
709,6	1190,748
710	1183,862
710,5	1181,233
710,9	1180,319
711,3	1171,176
711,8	1160,548
712,2	1151,748
712,7	1147,862
713,1	1139,633
713,5	1124,462
714	1115,548
714,4	1108,433
714,8	1102,519
715,3	1098,09
715,7	1089,033
716,2	1084,176
716,6	1082,062
717	1074,633
717,5	1062,69
717,9	1056,205
718,3	1046,976
718,8	1045,719
719,2	1031,548
719,7	1020,433
720,1	1010,69
720,5	1006,89
721	996,205
721,4	991,29
721,8	976,776
722,3	975,69
722,7	972,348
723,2	964,519
723,6	958,233
724	945,633
724,5	933,576
724,9	929,148
725,3	916,005
725,8	906,376
726,2	895,662
726,7	892,89
727,1	892,748
727,5	890,09
728	879,976
728,4	874,805
728,8	864,633
729,3	860,233
729,7	852,662
730,1	845,919
730,6	835,833
731	832,662
731,5	827,719
731,9	825,005
732,3	823,148
732,8	817,69
733,2	811,033
733,6	814,005
734,1	812,633
734,5	808,262
734,9	804,262
735,4	804,09
735,8	797,005
736,3	794,605
736,7	783,519
737,1	774,376
737,6	770,948
738	770,119
738,4	759,89
738,9	757,49
739,3	756,119
739,7	751,176
740,2	748,576
740,6	744,233
741,1	730,119
741,5	726,233
741,9	720,605
742,4	706,376
742,8	705,776
743,2	702,119
743,7	692,805
744,1	693,89
744,5	693,119
745	686,176
745,4	687,976
745,8	682,205
746,3	677,376
746,7	677,148
747,2	672,776
747,6	663,205
748	660,062
748,5	653,833
748,9	643,176
749,3	633,49
749,8	630,49
750,2	630,719
750,6	631,919
751,1	628,405
751,5	623,605
751,9	623,262
752,4	623,348
752,8	615,233
753,3	608,948
753,7	596,948
754,1	589,948
754,6	590,09
755	585,805
755,4	583,319
755,9	578,119
756,3	573,862
756,7	574,805
757,2	573,976
757,6	565,348
758	560,919
758,5	552,862
758,9	549,433
759,3	542,719
759,8	534,348
760,2	527,119
760,6	521,719
761,1	517,205
761,5	514,719
761,9	512,348
762,4	512,49
762,8	510,49
763,3	504,633
763,7	501,119
764,1	497,69
764,6	493,148
765	488,062
765,4	483,605
765,9	485,062
766,3	484,748
766,7	484,119
767,2	484,348
767,6	486,062
768	487,205
768,5	484,605
768,9	480,005
769,3	478,748
769,8	474,805
770,2	465,376
770,6	458,948
771,1	454,548
771,5	450,548
771,9	446,89
772,4	441,833
772,8	440,805
773,2	441,033
773,7	436,262
774,1	434,633
774,5	426,576
775	420,662
775,4	415,062
775,8	412,09
776,3	411,148
776,7	407,405
777,1	400,119
777,6	399,519
778	398,148
778,4	401,919
778,9	398,776
779,3	393,862
779,7	391,262
780,2	392,433
780,6	389,633
781	384,033
781,5	380,776
781,9	373,719
782,3	375,005
782,8	376,433
783,2	366,748
783,6	368,119
784,1	368,576
784,5	361,29
784,9	363,605
785,4	355,548
785,8	353,09
786,2	352,862
786,7	350,376
787,1	345,976
787,5	348,405
788	340,662
788,4	339,49
788,8	334,148
789,3	333,576
789,7	328,948
790,1	325,633
790,6	323,462
791	325,176
791,4	325,062
791,9	323,09
792,3	320,062
792,7	313,29
793,2	312,862
793,6	305,89
794	302,119
794,5	301,29
794,9	301,033
795,3	305,148
795,8	305,433
796,2	301,948
796,6	301,119
797,1	294,148
797,5	289,405
797,9	290,062
798,4	283,605
798,8	282,49
799,2	282,29
799,7	279,29
800,1	286,89
800,5	284,119
801	277,748
801,4	278,462
801,8	274,662
802,2	273,29
802,7	275,576
803,1	271,976
803,5	270,605
804	270,576
804,4	265,262
804,8	268,119
805,3	267,462
805,7	262,062
806,1	260,005
806,6	255,319
807	254,719
807,4	253,948
807,9	250,09
808,3	244,405
808,7	244,805
809,2	240,948
809,6	243,633
810	234,833
810,4	233,49
810,9	230,09
811,3	234,919
811,7	234,776
812,2	232,119
812,6	226,919
813	228,176
813,5	219,919
813,9	220,319
814,3	211,348
814,8	206,748
815,2	208,176
815,6	207,833
816,1	207,519
816,5	213,29
816,9	209,233
817,3	211,09
817,8	209,176
818,2	206,605
818,6	205,548
819,1	206,148
819,5	201,919
819,9	202,833
820,4	200,548
820,8	196,833
821,2	192,748
821,7	192,605
822,1	187,233
822,5	185,29
822,9	181,89
823,4	181,119
823,8	180,09
824,2	180,005
824,7	179,348
825,1	176,262
825,5	176,605
826	171,605
826,4	166,09
826,8	167,033
827,3	162,09
827,7	157,862
828,1	163,776
828,5	160,462
829	165,29
829,4	165,348
829,8	159,776
830,3	160,862
830,7	160,548
831,1	161,519
831,6	160,833
832	159,319
832,4	157,205
832,8	155,033
833,3	154,09
833,7	149,833
834,1	144,348
834,6	145,633
835	145,176
835,4	145,719
835,8	149,548
836,3	145,719
836,7	151,348
837,1	146,833
837,6	142,319
838	139,233
838,4	139,833
838,9	134,662
839,3	139,748
839,7	138,09
840,1	134,776
840,6	136,033
841	140,29
841,4	138,148
841,9	140,69
842,3	138,662
842,7	131,919
843,1	135,405
843,6	131,29
844	125,833
844,4	124,805
844,9	121,862
845,3	119,605
845,7	121,262
846,2	119,376
846,6	119,748
847	119,176
847,4	114,09
847,9	114,748
848,3	118,148
848,7	114,776
849,2	116,605
849,6	113,919
850	111,176
850,4	113,862
850,9	111,176
851,3	104,776
851,7	105,062
852,2	102,376
852,6	102,719
853	100,833
853,4	97,605
853,9	98,405
854,3	101,862
854,7	103,548
855,2	106,633
855,6	103,49
856	102,49
856,4	104,776
856,9	105,948
857,3	99,69
857,7	95,176
858,2	84,233
858,6	83,862
859	86,776
859,4	88,49
859,9	86,319
860,3	84,29
860,7	86,805
861,1	93,576
861,6	100,319
862	97,662
862,4	91,005
862,9	87,062
863,3	83,319
863,7	81,976
864,1	75,833
864,6	75,233
865	74,148
865,4	77,805
865,9	81,633
866,3	87,69
866,7	88,005
867,1	86,633
867,6	84,262
868	88,576
868,4	90,033
868,8	86,376
869,3	86,233
869,7	85,776
870,1	88,519
870,6	80,319
871	77,262
871,4	72,29
871,8	71,405
872,3	67,948
872,7	67,176
873,1	72,662
873,5	78,519
874	72,662
874,4	73,548
874,8	79,433
875,3	81,319
875,7	83,148
876,1	75,69
876,5	73,519
877	73,605
877,4	74,29
877,8	69,748
878,2	69,005
878,7	65,776
879,1	64,748
879,5	63,748
879,9	63,633
880,4	61,719
880,8	60,405
881,2	59,719
881,7	57,948
882,1	58,348
882,5	60,748
882,9	56,548
883,4	58,262
883,8	59,005
884,2	57,748
884,6	59,462
885,1	59,576
885,5	53,462
885,9	57,833
886,3	54,033
886,8	55,262
887,2	54,605
887,6	50,319
888	51,719
888,5	52,233
888,9	54,976
889,3	58,376
889,8	57,262
890,2	50,462
890,6	51,005
891	46,948
891,5	49,405
891,9	45,205
892,3	41,776
892,7	39,548
893,2	43,605
893,6	44,348
894	46,119
894,4	45,033
894,9	45,176
895,3	44,119
895,7	40,719
896,1	43,319
896,6	46,519
897	42,89
897,4	44,519
897,8	42,319
898,3	45,69
898,7	48,262
899,1	47,519
899,5	42,176
900	44,148
900,4	42,719
900,8	43,719
901,2	41,919
901,7	41,033
902,1	44,062
902,5	41,376
902,9	36,605
903,4	34,062
903,8	35,433
904,2	33,519
904,6	33,69
905,1	34,119
905,5	38,119
905,9	44,119
906,3	39,948
906,8	40,062
907,2	37,776
907,6	40,033
908	32,833
908,5	30,005
908,9	29,633
909,3	33,633
909,7	31,948
910,2	39,719
910,6	33,405
911	30,776
911,4	28,833
911,9	26,405
912,3	22,776
912,7	21,548
913,1	13,805
913,6	9,833
914	20,405
914,4	23,662
914,8	25,919
915,3	27,748
915,7	31,919
916,1	33,29
916,5	42,633
916,9	33,833
917,4	34,176
917,8	29,776
918,2	31,748
918,6	29,805
919,1	31,633
919,5	28,348
919,9	33,662
920,3	30,89
920,8	37,005
921,2	33,462
921,6	31,862
922	32,319
922,5	33,919
922,9	31,662
923,3	35,462
923,7	31,176
924,2	35,433
924,6	36,862
925	35,662
925,4	33,748
925,8	35,348
926,3	34,576
926,7	36,033
927,1	33,948
927,5	35,576
928	29,89
928,4	30,319
928,8	27,776
929,2	23,89
929,7	24,233
930,1	24,29
930,5	22,176
930,9	23,919
931,3	22,719
931,8	22,376
932,2	25,69
932,6	24,719
933	24,119
933,5	23,976
933,9	25,033
934,3	29,033
934,7	26,662
935,2	28,69
935,6	29,062
936	26,033
936,4	26,29
936,8	28,576
937,3	25,89
937,7	25,062
938,1	15,605
938,5	11,433
939	15,376
939,4	14,605
939,8	15,49
940,2	11,662
940,6	11,176
941,1	17,662
941,5	19,69
941,9	18,833
942,3	19,976
942,8	19,776
943,2	25,976
943,6	30,576
944	25,805
944,4	27,862
944,9	27,719
945,3	23,662
945,7	21,005
946,1	17,348
946,6	18,348
947	23,09
947,4	18,89
947,8	21,833
948,2	22,09
948,7	18,148
949,1	16,69
949,5	13,176
949,9	11,719
950,3	14,748
950,8	13,976
951,2	16,862
951,6	22,862
952	24,89
952,5	21,29
952,9	19,833
953,3	21,433
953,7	15,948
954,1	14,662
954,6	9,976
955	9,233
955,4	16,033
955,8	17,09
956,2	16,233
956,7	19,062
957,1	14,376
957,5	15,548
957,9	16,29
958,3	14,176
958,8	14,862
959,2	14,462
959,6	16,89
960	26,376
960,5	24,148
960,9	26,205
961,3	22,519
961,7	20,89
962,1	19,89
962,6	14,119
963	6,119
963,4	12,405
963,8	9,605
964,2	12,519
964,7	13,919
965,1	8,69
965,5	9,005
965,9	10,776
966,3	6,176
966,8	4,319
967,2	1,748
967,6	5,462
968	8,605
968,4	9,49
968,9	10,49
969,3	10,233
969,7	11,262
970,1	10,89
970,5	6,148
971	3,519
971,4	5,062
971,8	3,662
972,2	7,976
972,6	8,29
973,1	6,862
973,5	8,005
973,9	8,862
974,3	10,376
974,7	11,062
975,2	7,805
975,6	8,205
976	14,29
976,4	11,89
976,8	13,348
977,3	13,805
977,7	11,576
978,1	13,29
978,5	12,919
978,9	8,119
979,4	10,862
979,8	11,862
980,2	10,348
980,6	10,576
981	7,89
981,5	7,09
981,9	13,633
982,3	11,462
982,7	11,062
983,1	7,005
983,6	10,49
984	8,548
984,4	7,176
984,8	5,033
985,2	8,776
985,6	8,49
986,1	13,176
986,5	11,576
986,9	11,49
987,3	10,262
987,7	10,89
988,2	9,233
988,6	13,119
989	9,405
989,4	9,148
989,8	10,862
990,3	13,548
990,7	15,405
991,1	16,833
991,5	14,319
991,9	16,119
992,3	13,948
992,8	13,462
993,2	11,262
993,6	6,062
994	0,176
994,4	4,976
994,9	9,605
995,3	13,69
995,7	15,319
996,1	15,776
996,5	14,719
996,9	15,405
997,4	9,662
997,8	8,805
998,2	4,833
998,6	8,176
999	10,405
999,5	13,519
999,9	16,49
1000,3	19,29
1000,7	17,805
1001,1	20,805
1001,5	19,776
1002	21,005
1002,4	20,29
1002,8	19,262
1003,2	15,576
1003,6	13,89
1004	11,948
1004,5	5,948
1004,9	0,033
1005,3	-1,51
1005,7	-0,881
1006,1	2,233
1006,6	-0,51
1007	-0,624
1007,4	2,376
1007,8	7,833
1008,2	11,005
1008,6	10,662
1009,1	10,49
1009,5	14,205
1009,9	14,005
1010,3	17,09
1010,7	18,176
1011,1	18,748
1011,6	19,348
1012	20,29
1012,4	25,005
1012,8	24,148
1013,2	21,433
1013,6	21,519
1014,1	17,319
1014,5	19,919
1014,9	16,576
1015,3	10,348
1015,7	13,176
1016,1	10,348
1016,6	3,233
1017	4,119
1017,4	-1,567
1017,8	-5,024
1018,2	-3,138
1018,6	-2,31
1019,1	0,719
1019,5	3,462
1019,9	4,719
1020,3	6,348
1020,7	9,976
1021,1	9,519
1021,6	7,148
1022	6,776
1022,4	14,719
1022,8	13,719
1023,2	16,176
1023,6	12,262
1024,1	12,005
1024,5	12,09
1024,9	14,833
1025,3	8,262
1025,7	12,319
1026,1	14,176
1026,6	24,376
1027	21,805
1027,4	27,519
1027,8	23,005
1028,2	19,09
1028,6	17,833
1029	11,233
1029,5	5,176
1029,9	8,176
1030,3	5,348
1030,7	8,319
1031,1	16,662
1031,5	16,633
1032	17,748
1032,4	18,519
1032,8	18,376
1033,2	18,062
1033,6	16,148
1034	14,09
1034,4	10,005
1034,9	18,89
1035,3	20,405
1035,7	19,405
1036,1	20,176
1036,5	21,319
1036,9	21,462
1037,4	24,205
1037,8	19,205
1038,2	16,176
1038,6	18,976
1039	16,148
1039,4	18,005
1039,8	13,548
1040,3	11,976
1040,7	9,262
1041,1	8,719
1041,5	7,319
1041,9	8,062
1042,3	4,833
1042,7	5,005
1043,2	4,148
1043,6	8,919
1044	11,948
1044,4	11,948
1044,8	8,005
1045,2	12,605
1045,6	14,033
1046,1	16,633
1046,5	13,148
1046,9	12,005
1047,3	14,662
1047,7	16,833
1048,1	12,376
1048,5	14,719
1049	14,948
1049,4	15,576
1049,8	15,033
1050,2	10,233
1050,6	13,119
1051	11,29
1051,4	9,319
1051,9	1,262
1052,3	0,919
1052,7	4,519
1053,1	5,89
1053,5	1,862
1053,9	6,519
1054,3	4,233
1054,8	11,348
1055,2	7,919
1055,6	9,09
1056	6,89
1056,4	12,462
1056,8	11,062
1057,2	13,805
1057,6	10,062
1058,1	18,833
1058,5	11,948
1058,9	12,319
1059,3	12,262
1059,7	8,719
1060,1	8,49
1060,5	9,633
1061	0,976
1061,4	5,805
1061,8	9,462
1062,2	2,69
1062,6	9,748
1063	9,633
1063,4	16,319
1063,8	18,519
1064,3	20,062
1064,7	22,433
1065,1	28,09
1065,5	26,89
1065,9	27,376
1066,3	26,005
1066,7	23,205
1067,1	16,033
1067,6	14,405
1068	13,262
1068,4	8,376
1068,8	5,605
1069,2	4,033
1069,6	5,862
1070	8,376
1070,4	6,948
1070,9	5,748
1071,3	13,833
1071,7	19,633
1072,1	16,948
1072,5	19,462
1072,9	18,348
1073,3	17,29
1073,7	21,262
1074,2	14,405
1074,6	7,719
1075	8,89
1075,4	8,062
1075,8	9,205
1076,2	7,433
1076,6	7,233
1077	7,519
1077,5	13,176
1077,9	9,919
1078,3	8,29
1078,7	4,862
1079,1	7,119
1079,5	3,09
1079,9	2,262
1080,3	-3,424
1080,7	-1,138
1081,2	3,462
1081,6	6,405
1082	8,776
1082,4	5,376
1082,8	4,776
1083,2	10,062
1083,6	7,462
1084	5,633
1084,5	6,433
1084,9	-3,31
1085,3	-0,538
1085,7	4,348
1086,1	4,662
1086,5	7,119
1086,9	7,119
1087,3	3,519
1087,7	10,605
1088,2	12,405
1088,6	10,262
1089	8,519
1089,4	11,062
1089,8	7,633
1090,2	7,633
1090,6	5,148
1091	6,405
1091,4	6,148
1091,9	8,005
1092,3	9,519
1092,7	13,033
1093,1	18,262
1093,5	19,805
1093,9	18,719
1094,3	16,919
1094,7	13,548
1095,1	10,719
1095,5	10,405
1096	10,348
1096,4	11,633
1096,8	10,976
1097,2	13,948
1097,6	16,09
1098	15,662
1098,4	10,862
1098,8	3,576
1099,2	-0,652
1099,6	-3,195
1100,1	-4,11
1100,5	-1,681
1100,9	-0,31
1101,3	2,233
1101,7	7,005
1102,1	11,119
1102,5	7,433
1102,9	4,69
1103,3	2,633
1103,7	1,262
1104,2	5,49
1104,6	9,348
1105	10,062
1105,4	15,633
1105,8	16,633
1106,2	13,776
1106,6	12,376
1107	8,405
1107,4	4,7
1107,8	1,473
1108,3	0,083
