Data from Subt2_00039.txt Node
Date: Mon Aug 28 13:16:46 MSK 2023
User: vat
Spectrometer: MAYP114033
Trigger mode: 0
Integration Time (sec): 1,000000E0
Scans to average: 5
Electric dark correction enabled: true
Nonlinearity correction enabled: false
Boxcar width: 3
XAxis mode: Wavelengths
Number of Pixels in Spectrum: 2068
>>>>>Begin Spectral Data<<<<<
199,4	-0,5
199,9	-0,82
200,4	1,533
200,8	1,7
201,3	2,671
201,8	3,871
202,2	5,986
202,7	8,043
203,2	9,243
203,6	9,671
204,1	11,443
204,6	14,243
205	15,7
205,5	17,214
206	17,157
206,4	17,843
206,9	17,814
207,4	17,271
207,8	14,243
208,3	14,386
208,8	11,557
209,2	13,614
209,7	10,357
210,2	7,043
210,6	6,9
211,1	8,643
211,5	9,986
212	10,1
212,5	11,986
212,9	18,357
213,4	20,243
213,9	23,043
214,3	21,329
214,8	22,414
215,3	24,014
215,7	21,757
216,2	19,957
216,7	23,757
217,1	22,7
217,6	22,757
218,1	18,529
218,5	15,471
219	14,214
219,5	13,357
219,9	12,643
220,4	11,986
220,9	11,814
221,3	11,757
221,8	16,729
222,3	21,729
222,7	26,729
223,2	26,243
223,6	28,671
224,1	31,843
224,6	33,014
225	30,3
225,5	26,814
226	22,3
226,4	20,9
226,9	15,471
227,4	14,471
227,8	16,957
228,3	20,3
228,8	20,529
229,2	26,014
229,7	28,157
230,2	30,414
230,6	32,7
231,1	30,5
231,5	29,243
232	27,843
232,5	25,3
232,9	22,757
233,4	25,186
233,9	26,986
234,3	26,671
234,8	25,071
235,3	18,871
235,7	14,671
236,2	14,014
236,7	8,157
237,1	7,957
237,6	6,3
238,1	5,243
238,5	14,614
239	14,329
239,4	15,386
239,9	20,957
240,4	17,786
240,8	22,5
241,3	28,414
241,8	22,3
242,2	24,871
242,7	32,643
243,2	33,414
243,6	36,386
244,1	30,786
244,6	27,614
245	31,5
245,5	29,243
245,9	19,186
246,4	16,071
246,9	13,529
247,3	15,7
247,8	12,5
248,3	15,729
248,7	20,586
249,2	21,3
249,7	22,671
250,1	17,814
250,6	23,214
251	23,386
251,5	22,9
252	17,557
252,4	21,529
252,9	19,386
253,4	27,471
253,8	23,471
254,3	23,586
254,8	21,271
255,2	24,786
255,7	23,557
256,1	25,843
256,6	23,7
257,1	22,014
257,5	27,843
258	23,614
258,5	19,586
258,9	17,871
259,4	15,929
259,9	11,986
260,3	16,3
260,8	10,471
261,2	13,3
261,7	17,557
262,2	19,071
262,6	20,614
263,1	24,957
263,6	21,729
264	27,414
264,5	26,9
264,9	26,529
265,4	23,071
265,9	21,814
266,3	23,386
266,8	22,071
267,3	16,671
267,7	15,329
268,2	15,071
268,7	20,014
269,1	19,9
269,6	19,386
270	22,414
270,5	24,014
271	29,329
271,4	32,443
271,9	33,671
272,4	40,3
272,8	37,757
273,3	39,414
273,7	37,843
274,2	37,243
274,7	28,386
275,1	27,414
275,6	22,5
276,1	17,129
276,5	17,329
277	17,757
277,4	14,614
277,9	18,614
278,4	13,814
278,8	14,957
279,3	17,7
279,8	10,757
280,2	9,929
280,7	8,957
281,1	10,386
281,6	15,471
282,1	12,786
282,5	16,843
283	17,1
283,4	17,5
283,9	18,443
284,4	18,9
284,8	18,243
285,3	19,729
285,8	18,757
286,2	16,957
286,7	18,043
287,1	18,729
287,6	19,871
288,1	18,871
288,5	19,271
289	23,043
289,5	28,443
289,9	34,9
290,4	36,814
290,8	33,3
291,3	31,986
291,8	35,843
292,2	30,357
292,7	29,443
293,1	26,214
293,6	21,357
294,1	24,129
294,5	26,529
295	20,271
295,5	23,414
295,9	26,271
296,4	24,529
296,8	29,471
297,3	26,1
297,8	20,271
298,2	22,071
298,7	17,643
299,1	15,929
299,6	13,271
300,1	12,557
300,5	13,929
301	19,014
301,5	17,957
301,9	17,443
302,4	12,986
302,8	15,614
303,3	12,757
303,8	12,5
304,2	8,871
304,7	8,557
305,1	10,043
305,6	15,214
306,1	14,186
306,5	20,9
307	22,929
307,4	24,9
307,9	24,471
308,4	26,1
308,8	26,157
309,3	31,3
309,8	28,729
310,2	27,586
310,7	27,157
311,1	28,357
311,6	29,871
312,1	25,843
312,5	18,357
313	14,357
313,4	18,471
313,9	18,386
314,4	19,757
314,8	15,386
315,3	20,5
315,7	22,871
316,2	26,329
316,7	20,014
317,1	18,329
317,6	15,843
318	15,214
318,5	13,786
319	15,5
319,4	15,671
319,9	14,3
320,3	15,043
320,8	20,386
321,3	20,843
321,7	19,786
322,2	20,986
322,6	16,329
323,1	18,786
323,6	20,757
324	18,614
324,5	17,957
324,9	19,043
325,4	14,786
325,9	19,071
326,3	17,471
326,8	13,214
327,2	13,243
327,7	13,414
328,2	10,5
328,6	12,529
329,1	10,157
329,5	12,329
330	15,5
330,5	15,186
330,9	16,9
331,4	22,386
331,8	26,271
332,3	25,414
332,8	24,557
333,2	24,614
333,7	19,157
334,1	20,957
334,6	17,1
335,1	15,757
335,5	16,929
336	15,957
336,4	23,7
336,9	24,5
337,4	25,414
337,8	27,071
338,3	22,471
338,7	22,529
339,2	27,014
339,7	20,9
340,1	21,386
340,6	18,929
341	17,786
341,5	19,643
342	22,814
342,4	21,357
342,9	22,014
343,3	25,043
343,8	23,414
344,2	25,557
344,7	29,557
345,2	28,957
345,6	31,043
346,1	32,986
346,5	31,243
347	34,557
347,5	35,386
347,9	28,843
348,4	26,214
348,8	23,786
349,3	26,957
349,8	29,614
350,2	28,586
350,7	25,157
351,1	29,443
351,6	40,186
352	43,929
352,5	47,957
353	58,071
353,4	72,9
353,9	86,1
354,3	102,243
354,8	111,843
355,3	130,9
355,7	147,729
356,2	171,443
356,6	197,786
357,1	231,729
357,5	266,529
358	308,957
358,5	361,5
358,9	421,7
359,4	486,7
359,8	565,871
360,3	651,814
360,8	752,843
361,2	866,186
361,7	984,357
362,1	1110,043
362,6	1249,357
363	1398,757
363,5	1561,1
364	1728,871
364,4	1898,5
364,9	2076,586
365,3	2260,529
365,8	2437,3
366,3	2596,271
366,7	2740,129
367,2	2869,957
367,6	2975,957
368,1	3061,557
368,5	3116,243
369	3144,471
369,5	3153,871
369,9	3134,129
370,4	3089,186
370,8	3027,443
371,3	2935,071
371,7	2832,3
372,2	2724,671
372,7	2595,157
373,1	2463,3
373,6	2317,643
374	2171,7
374,5	2033,757
374,9	1893,157
375,4	1746,386
375,9	1610,986
376,3	1484,186
376,8	1371,986
377,2	1261,014
377,7	1158,786
378,2	1065,986
378,6	980,186
379,1	898,157
379,5	822,643
380	749,786
380,4	690,1
380,9	632,557
381,4	580,9
381,8	539,614
382,3	501,814
382,7	465,871
383,2	434,243
383,6	407,129
384,1	378,186
384,6	354,443
385	326,5
385,5	300,1
385,9	283,957
386,4	267,014
386,8	246,129
387,3	228,814
387,7	213,129
388,2	194,129
388,7	181,471
389,1	164,271
389,6	153,214
390	142,471
390,5	135,3
390,9	120,786
391,4	113,357
391,9	112,871
392,3	110,243
392,8	106,471
393,2	103,014
393,7	91,871
394,1	90,329
394,6	89,357
395,1	85,071
395,5	76,014
396	68,214
396,4	63,357
396,9	66,443
397,3	64,3
397,8	59,557
398,2	54,243
398,7	56,386
399,2	57,471
399,6	53,729
400,1	55,271
400,5	57,129
401	60,5
401,4	63,757
401,9	60,243
402,4	58,243
402,8	60,243
403,3	55,129
403,7	45,071
404,2	42,957
404,6	37,271
405,1	37,357
405,5	36,214
406	37,443
406,5	38,129
406,9	45,9
407,4	47,871
407,8	51,471
408,3	51,786
408,7	52,871
409,2	52,3
409,6	53,043
410,1	51,243
410,6	48,643
411	46,643
411,5	50,729
411,9	56,129
412,4	58,157
412,8	55,214
413,3	59,243
413,7	64,471
414,2	65,3
414,7	66,157
415,1	62,9
415,6	60,414
416	67,729
416,5	69,329
416,9	68,529
417,4	74,929
417,8	72,329
418,3	72,786
418,8	75,9
419,2	76,214
419,7	76,814
420,1	78,043
420,6	71,329
421	76,957
421,5	83,443
421,9	87,271
422,4	89,671
422,8	92,129
423,3	91,786
423,8	97,3
424,2	94,586
424,7	90,357
425,1	92,729
425,6	92,757
426	84,443
426,5	82,843
426,9	82,729
427,4	80,3
427,9	78,814
428,3	72,5
428,8	65,386
429,2	67,871
429,7	65,786
430,1	60,357
430,6	60,186
431	59,614
431,5	56,1
431,9	58,843
432,4	58,614
432,8	60,557
433,3	63,843
433,8	66,929
434,2	64,5
434,7	66,786
435,1	66,986
435,6	68,357
436	69,243
436,5	64,929
436,9	61,386
437,4	62,3
437,8	62,414
438,3	63,3
438,8	63,757
439,2	68,157
439,7	74,871
440,1	77,814
440,6	79,9
441	78,271
441,5	75,129
441,9	75,871
442,4	76,129
442,8	77,9
443,3	81,586
443,7	86,071
444,2	88,271
444,7	95,986
445,1	97,271
445,6	98,357
446	102,7
446,5	103,186
446,9	101,386
447,4	110,586
447,8	109,757
448,3	118,271
448,7	117,071
449,2	113,614
449,6	114,443
450,1	122,871
450,6	123,5
451	129,643
451,5	131,471
451,9	138,157
452,4	146,729
452,8	155,186
453,3	156,871
453,7	157,786
454,2	160,414
454,6	162,071
455,1	168,871
455,5	172,3
456	175,271
456,4	178,414
456,9	187,586
457,3	194,757
457,8	200,129
458,3	204,129
458,7	205,071
459,2	211,9
459,6	220,071
460,1	228,386
460,5	236,843
461	240,271
461,4	248,643
461,9	258,5
462,3	264,871
462,8	267,986
463,2	272,1
463,7	272,529
464,1	281,357
464,6	283,586
465	289,157
465,5	292,986
466	302,5
466,4	304,129
466,9	312,643
467,3	318,786
467,8	329,7
468,2	336,471
468,7	343,957
469,1	348,786
469,6	359,957
470	368,557
470,5	375,586
470,9	377,3
471,4	382,243
471,8	384,1
472,3	391,786
472,7	393,529
473,2	401,386
473,6	407,5
474,1	417,786
474,5	428,986
475	441,3
475,4	448,643
475,9	460,186
476,4	462,471
476,8	465,1
477,3	471,014
477,7	475,671
478,2	477,586
478,6	480,3
479,1	480,671
479,5	487,443
480	493,7
480,4	497,043
480,9	502,529
481,3	512,814
481,8	517,3
482,2	521,614
482,7	525,614
483,1	532,986
483,6	534,5
484	533,443
484,5	535,243
484,9	540,9
485,4	547,014
485,8	546,7
486,3	546,043
486,7	547,586
487,2	553,557
487,6	552,9
488,1	549,729
488,5	549,786
489	556,014
489,4	555,271
489,9	560,414
490,4	560,843
490,8	562,443
491,3	568,986
491,7	566,843
492,2	567,614
492,6	568,557
493,1	568,643
493,5	563,243
494	558,129
494,4	554,071
494,9	551,786
495,3	544,843
495,8	545,871
496,2	536,729
496,7	540,471
497,1	543,529
497,6	542,671
498	541,671
498,5	541,729
498,9	537,843
499,4	539,929
499,8	536,643
500,3	536,471
500,7	529,814
501,2	527,014
501,6	521,357
502,1	517,614
502,5	511,529
503	505,786
503,4	497,129
503,9	500,814
504,3	499,986
504,8	498,1
505,2	497,557
505,7	493,529
506,1	489,5
506,6	485,157
507	481,014
507,5	479,9
507,9	475,5
508,4	465,329
508,8	462,243
509,3	459,157
509,7	453,871
510,2	441,243
510,6	433,729
511,1	432,043
511,5	433,443
512	431,957
512,4	421,614
512,9	413,786
513,3	410,986
513,8	406,929
514,2	403,929
514,7	397,014
515,1	394,786
515,6	395,386
516	397,186
516,5	396,357
516,9	393,214
517,4	386,729
517,8	385,586
518,3	379,357
518,7	373,814
519,2	372,329
519,6	364,757
520,1	357,7
520,5	349,814
521	342,443
521,4	336,586
521,9	330,786
522,3	326,3
522,8	324,757
523,2	324,929
523,7	320,786
524,1	319,9
524,6	314,9
525	316,643
525,5	308,329
525,9	305,329
526,4	298,929
526,8	296,643
527,3	293,929
527,7	292,986
528,2	286,729
528,6	284,7
529,1	279,214
529,5	273,786
530	270,729
530,4	263,871
530,9	259,843
531,3	259,986
531,8	254,643
532,2	247,3
532,6	245,214
533,1	240,586
533,5	240,129
534	235,414
534,4	230,043
534,9	232,414
535,3	235,386
535,8	233,386
536,2	238,557
536,7	233,157
537,1	229,729
537,6	224,443
538	223,986
538,5	220,729
538,9	215,443
539,4	207,843
539,8	205,529
540,3	201,586
540,7	203,357
541,2	198,443
541,6	197,757
542,1	198,386
542,5	197,443
543	196,043
543,4	196,957
543,9	193,157
544,3	185,157
544,8	178,757
545,2	175,471
545,7	174,071
546,1	175,243
546,5	175,043
547	174,043
547,4	174,157
547,9	177,871
548,3	178,7
548,8	174,157
549,2	168,157
549,7	164,671
550,1	163,814
550,6	165,071
551	163,557
551,5	157,5
551,9	160,614
552,4	162,329
552,8	162,271
553,3	162,786
553,7	162,386
554,2	158,414
554,6	157,614
555,1	152,871
555,5	149,929
555,9	149,757
556,4	143,9
556,8	137,071
557,3	134,929
557,7	135,414
558,2	134,1
558,6	134,5
559,1	132,671
559,5	133,271
560	137,957
560,4	137,329
560,9	140,329
561,3	139,414
561,8	134,729
562,2	128,986
562,7	126,5
563,1	125,843
563,6	126,3
564	122,957
564,4	123,871
564,9	124,643
565,3	126,329
565,8	127,7
566,2	124,3
566,7	118,757
567,1	120,643
567,6	118,843
568	119,1
568,5	121,014
568,9	118,071
569,4	115,614
569,8	117,3
570,3	115,243
570,7	115,1
571,1	114,814
571,6	110,1
572	109,957
572,5	111,643
572,9	113,757
573,4	114,529
573,8	114,529
574,3	111,443
574,7	116,5
575,2	121,3
575,6	121,414
576,1	123,186
576,5	120,871
576,9	112,871
577,4	119,643
577,8	109,329
578,3	105,357
578,7	99,9
579,2	97,957
579,6	97,071
580,1	106,3
580,5	101,3
581	108,243
581,4	108,271
581,9	115,1
582,3	113,414
582,7	116,243
583,2	115,329
583,6	114,471
584,1	117,129
584,5	118,9
585	115,671
585,4	113,557
585,9	110,929
586,3	110,757
586,8	110,186
587,2	107,557
587,6	100,9
588,1	102,957
588,5	100,529
589	96,3
589,4	90,214
589,9	90,014
590,3	87,043
590,8	88,357
591,2	81,9
591,7	85,271
592,1	88,671
592,5	91,643
593	87,243
593,4	84,786
593,9	82,843
594,3	86,443
594,8	83,157
595,2	81,1
595,7	75,871
596,1	82,186
596,6	81,757
597	86,643
597,4	84,586
597,9	85,957
598,3	85,929
598,8	84,5
599,2	79,586
599,7	84,3
600,1	81,586
600,6	81,471
601	81,1
601,4	81,186
601,9	86,843
602,3	92,3
602,8	89,757
603,2	89,557
603,7	90,757
604,1	93,871
604,6	93,957
605	95,014
605,4	86,929
605,9	85,643
606,3	84,729
606,8	82,871
607,2	79,471
607,7	76,586
608,1	71,157
608,6	76,843
609	81,1
609,4	77,9
609,9	82,329
610,3	82,643
610,8	83,871
611,2	89,071
611,7	87,443
612,1	82,614
612,6	83,271
613	75,7
613,4	72,843
613,9	77,186
614,3	75,7
614,8	67,471
615,2	69,671
615,7	72,529
616,1	75,043
616,6	77,671
617	70,329
617,4	66,986
617,9	74,843
618,3	73,671
618,8	72,786
619,2	73,786
619,7	72,729
620,1	77,5
620,5	75,643
621	74,357
621,4	77,129
621,9	73,729
622,3	73,557
622,8	73,643
623,2	68,957
623,6	72,243
624,1	74,443
624,5	69,671
625	67,871
625,4	71,357
625,9	72,186
626,3	76,186
626,8	76,3
627,2	71,471
627,6	75,586
628,1	82,986
628,5	77,557
629	73,7
629,4	70,986
629,9	63,986
630,3	62,586
630,7	61,243
631,2	58,671
631,6	52,614
632,1	55,757
632,5	61,814
633	69,786
633,4	75,586
633,8	72,014
634,3	70,843
634,7	74,386
635,2	74,757
635,6	66,786
636,1	64,386
636,5	60,357
636,9	60,843
637,4	59,529
637,8	64,671
638,3	67,557
638,7	68,814
639,2	68,214
639,6	72,729
640	72,671
640,5	72,986
640,9	75,471
641,4	73,871
641,8	72,043
642,2	73,7
642,7	66,357
643,1	67,357
643,6	68,929
644	69,929
644,5	69,414
644,9	71,243
645,3	71,271
645,8	71,871
646,2	70,729
646,7	66,3
647,1	60,214
647,6	57,871
648	56,357
648,4	58,586
648,9	61,157
649,3	61,271
649,8	65,814
650,2	68,214
650,6	68,014
651,1	66,271
651,5	59,443
652	61,986
652,4	61,129
652,9	57,471
653,3	53,9
653,7	53,614
654,2	55,757
654,6	56,557
655,1	55,043
655,5	56,329
655,9	57,729
656,4	62,129
656,8	62,9
657,3	66,586
657,7	66,386
658,2	65,071
658,6	67,214
659	70,043
659,5	64,443
659,9	68,043
660,4	64,014
660,8	65,271
661,2	62,386
661,7	56,529
662,1	55,7
662,6	57,071
663	52,043
663,4	52,7
663,9	53,214
664,3	50,7
664,8	52,443
665,2	53,729
665,6	52,729
666,1	53,186
666,5	52,786
667	47,214
667,4	54,986
667,9	55,586
668,3	53,643
668,7	51,557
669,2	48,271
669,6	45,7
670,1	49,557
670,5	46,529
670,9	47,786
671,4	44,243
671,8	48,814
672,3	52,129
672,7	56,5
673,1	56,414
673,6	54,214
674	53,271
674,5	55,271
674,9	53,614
675,3	51,043
675,8	50,329
676,2	46,957
676,7	49,414
677,1	50,186
677,5	48,557
678	49,729
678,4	54,757
678,9	51,471
679,3	54,5
679,7	53,557
680,2	53,071
680,6	52,157
681,1	46,357
681,5	43,186
681,9	47,157
682,4	45,243
682,8	39,929
683,3	41,814
683,7	42,729
684,1	45,814
684,6	45,671
685	40,643
685,5	37,214
685,9	38,843
686,3	38,843
686,8	40,1
687,2	41,214
687,7	37,3
688,1	41,186
688,5	41,871
689	47,757
689,4	40,5
689,9	39,871
690,3	35,5
690,7	41,414
691,2	38,071
691,6	40,929
692	36,729
692,5	37,529
692,9	37,271
693,4	40,3
693,8	37,214
694,2	39,214
694,7	36,043
695,1	40,843
695,6	44,729
696	47,1
696,4	48,386
696,9	48,186
697,3	50,214
697,8	55,329
698,2	47,414
698,6	46,357
699,1	47,786
699,5	46,014
699,9	47,329
700,4	44,7
700,8	39,5
701,3	41,786
701,7	37,586
702,1	35,929
702,6	34,643
703	34,157
703,5	32,986
703,9	37,729
704,3	40,243
704,8	42,443
705,2	38,843
705,6	38,414
706,1	35,9
706,5	40,871
707	42,1
707,4	44,929
707,8	50,386
708,3	52,729
708,7	54,929
709,2	55,671
709,6	52,271
710	47,471
710,5	45,1
710,9	42,157
711,3	39,671
711,8	35,957
712,2	36,643
712,7	33,271
713,1	33,843
713,5	34,186
714	30,329
714,4	29,014
714,8	35,329
715,3	35,9
715,7	36,814
716,2	40,414
716,6	38,5
717	40,529
717,5	41,871
717,9	38,7
718,3	37,586
718,8	38,471
719,2	37,5
719,7	37,957
720,1	38,786
720,5	44,843
721	47,014
721,4	47,643
721,8	48,814
722,3	48,043
722,7	46,5
723,2	44,957
723,6	42,1
724	41,271
724,5	42,186
724,9	39,843
725,3	37,957
725,8	39,7
726,2	39,357
726,7	33,586
727,1	32,071
727,5	27,386
728	23,557
728,4	25,386
728,8	22,186
729,3	22,243
729,7	26,243
730,1	25,3
730,6	29,214
731	30,643
731,5	28,043
731,9	29,814
732,3	30,871
732,8	29,071
733,2	28,929
733,6	29,814
734,1	32,157
734,5	34,014
734,9	28,557
735,4	25,529
735,8	23,557
736,3	18,843
736,7	17,9
737,1	17,814
737,6	16,871
738	20,014
738,4	22,586
738,9	27,1
739,3	36,129
739,7	34,071
740,2	34,843
740,6	37,014
741,1	38,643
741,5	32,214
741,9	29,614
742,4	29,129
742,8	30,871
743,2	31,843
743,7	31,786
744,1	34,929
744,5	39,643
745	38,786
745,4	39,471
745,8	37,843
746,3	38,357
746,7	33,643
747,2	28,9
747,6	29,414
748	33,443
748,5	28,243
748,9	29,671
749,3	31,014
749,8	33,529
750,2	34,614
750,6	34,186
751,1	28,614
751,5	30,9
751,9	29,329
752,4	32,186
752,8	34,129
753,3	34,214
753,7	36,7
754,1	41,871
754,6	39,814
755	42,271
755,4	40,757
755,9	40,414
756,3	42,186
756,7	44,929
757,2	39,7
757,6	39,986
758	36,729
758,5	31,1
758,9	30,671
759,3	27,671
759,8	19,671
760,2	21,9
760,6	33,329
761,1	37,214
761,5	40,386
761,9	39,386
762,4	42,7
762,8	49,757
763,3	51,157
763,7	38,1
764,1	34,986
764,6	33,357
765	34,357
765,4	34,071
765,9	32,186
766,3	32,729
766,7	36,671
767,2	38,129
767,6	38,7
768	36,357
768,5	34,529
768,9	32,529
769,3	31,7
769,8	25,957
770,2	25,271
770,6	25,243
771,1	25,9
771,5	23,843
771,9	23,357
772,4	18,414
772,8	22,5
773,2	25,529
773,7	22,814
774,1	27,5
774,5	28,186
775	27,929
775,4	30,329
775,8	28,129
776,3	27,7
776,7	28,014
777,1	23,214
777,6	24,586
778	23,386
778,4	24,357
778,9	24,614
779,3	21,586
779,7	26,1
780,2	25,1
780,6	26,471
781	32,329
781,5	32,557
781,9	36,643
782,3	37,3
782,8	37,814
783,2	43,271
783,6	42,757
784,1	39,5
784,5	37,443
784,9	37,1
785,4	36,843
785,8	31,929
786,2	26,586
786,7	26,214
787,1	29,243
787,5	30,5
788	28,614
788,4	30,357
788,8	25,586
789,3	28,929
789,7	24,386
790,1	25,014
790,6	22,243
791	21,729
791,4	20,757
791,9	22,471
792,3	22,586
792,7	28,643
793,2	27,671
793,6	31,986
794	32,3
794,5	32,1
794,9	36,529
795,3	35,643
795,8	38,271
796,2	31,9
796,6	31,5
797,1	32,986
797,5	31,329
797,9	35,3
798,4	38,1
798,8	32,986
799,2	34,243
799,7	33,357
800,1	29,1
800,5	33,871
801	31,129
801,4	26,214
801,8	25,271
802,2	28,929
802,7	28,529
803,1	32,671
803,5	25,929
804	25,043
804,4	28,843
804,8	32,014
805,3	30,5
805,7	29,414
806,1	28,214
806,6	32,9
807	34,5
807,4	31,414
807,9	27,214
808,3	27,757
808,7	30,443
809,2	32,071
809,6	31,643
810	31,871
810,4	33,443
810,9	37,414
811,3	32,271
811,7	31,129
812,2	26,3
812,6	24,614
813	25,786
813,5	24,357
813,9	20,557
814,3	22,471
814,8	22,843
815,2	25,786
815,6	26,671
816,1	22,414
816,5	24,1
816,9	26,414
817,3	26,043
817,8	24,814
818,2	22,271
818,6	22,871
819,1	23,214
819,5	21,643
819,9	24,357
820,4	32,9
820,8	33,643
821,2	31,614
821,7	25,843
822,1	26,757
822,5	31,957
822,9	27,271
823,4	20,9
823,8	21,043
824,2	23,757
824,7	29,443
825,1	24,586
825,5	20,9
826	18,671
826,4	17,157
826,8	17,329
827,3	20,129
827,7	16,3
828,1	18,271
828,5	21,843
829	23,7
829,4	24,157
829,8	25,157
830,3	20,1
830,7	20,529
831,1	22,643
831,6	15,786
832	17,843
832,4	20,671
832,8	17,043
833,3	18,786
833,7	15,214
834,1	16,843
834,6	18,929
835	18,043
835,4	14,557
835,8	18,814
836,3	19,9
836,7	22,9
837,1	19,414
837,6	17,986
838	21,186
838,4	21,786
838,9	20,586
839,3	23,3
839,7	29,014
840,1	33,071
840,6	34,814
841	26,614
841,4	29,586
841,9	26,814
842,3	21,986
842,7	19,043
843,1	15,186
843,6	13,243
844	17,757
844,4	18,986
844,9	19,757
845,3	20,471
845,7	18,614
846,2	19,357
846,6	21,7
847	23,5
847,4	23,929
847,9	25,557
848,3	24,014
848,7	24,043
849,2	22,329
849,6	20,786
850	21,529
850,4	17,614
850,9	12,529
851,3	18,586
851,7	17,643
852,2	17,671
852,6	19,986
853	19,643
853,4	23,986
853,9	28,5
854,3	27,243
854,7	31,929
855,2	36,814
855,6	33,671
856	35,129
856,4	29,729
856,9	30,3
857,3	25,243
857,7	24,414
858,2	23,586
858,6	24,129
859	22,614
859,4	24,043
859,9	23,329
860,3	25,9
860,7	21,7
861,1	23,243
861,6	22,786
862	23,986
862,4	23,671
862,9	25,157
863,3	25,529
863,7	26,443
864,1	21,329
864,6	22,271
865	19,871
865,4	19,186
865,9	20,329
866,3	20,129
866,7	16,471
867,1	17,871
867,6	21,529
868	18,5
868,4	17,157
868,8	14,129
869,3	17,214
869,7	26,757
870,1	26,386
870,6	21,671
871	58,1
871,4	59,386
871,8	57,929
872,3	50,586
872,7	42,757
873,1	38,957
873,5	37,443
874	8,614
874,4	6,586
874,8	7,5
875,3	12,3
875,7	13,643
876,1	18,214
876,5	23,443
877	17,357
877,4	19,643
877,8	18,014
878,2	19,471
878,7	22,614
879,1	23,071
879,5	18,814
879,9	16,643
880,4	12,729
880,8	19,357
881,2	17,071
881,7	17,043
882,1	17,757
882,5	18,729
882,9	25,586
883,4	30,357
883,8	23,386
884,2	22,643
884,6	17,271
885,1	14,071
885,5	14,557
885,9	9,757
886,3	9,443
886,8	16,014
887,2	11,329
887,6	15,957
888	19,243
888,5	17,157
888,9	18,014
889,3	18,614
889,8	17,843
890,2	20,643
890,6	20,957
891	21,271
891,5	23,557
891,9	21,214
892,3	22,643
892,7	16,329
893,2	19,929
893,6	16,443
894	12,157
894,4	9,814
894,9	11,643
895,3	7,643
895,7	11,986
896,1	10,071
896,6	11,214
897	16,1
897,4	18,186
897,8	19,243
898,3	24,614
898,7	21,129
899,1	22,643
899,5	26,157
900	26,043
900,4	22,214
900,8	16,729
901,2	10,157
901,7	14,3
902,1	13,786
902,5	13,643
902,9	12,843
903,4	19,843
903,8	23,129
904,2	27,1
904,6	24,871
905,1	27,043
905,5	27,014
905,9	22,814
906,3	20,529
906,8	20,957
907,2	18,729
907,6	17,329
908	15,757
908,5	8,671
908,9	10,271
909,3	11,129
909,7	11,614
910,2	12,957
910,6	15,243
911	15,786
911,4	20,5
911,9	19,871
912,3	19,929
912,7	23,357
913,1	20,671
913,6	20,214
914	21,814
914,4	24,586
914,8	26,243
915,3	24,386
915,7	23,871
916,1	26,9
916,5	25,186
916,9	22,9
917,4	20,529
917,8	17,529
918,2	22,186
918,6	18,471
919,1	18,671
919,5	20,957
919,9	22,5
920,3	19,986
920,8	27,414
921,2	19,7
921,6	23,386
922	20,1
922,5	20,614
922,9	16,843
923,3	19,871
923,7	18,043
924,2	21,471
924,6	21,471
925	26,757
925,4	26,929
925,8	32,614
926,3	29,814
926,7	25,071
927,1	26,471
927,5	27,329
928	25,643
928,4	22,9
928,8	20,729
929,2	23,871
929,7	33,186
930,1	33,014
930,5	27,814
930,9	30,471
931,3	40,129
931,8	39,329
932,2	39,614
932,6	31,871
933	24,357
933,5	27,5
933,9	27,557
934,3	15,557
934,7	18,071
935,2	14,729
935,6	14,1
936	15,3
936,4	15,214
936,8	12,471
937,3	19,557
937,7	15,643
938,1	16,557
938,5	17,643
939	23,929
939,4	20,043
939,8	22,1
940,2	17,186
940,6	20,186
941,1	21,814
941,5	20,157
941,9	14,786
942,3	18,5
942,8	15,614
943,2	13,386
943,6	11,414
944	13,414
944,4	13,786
944,9	17,557
945,3	17,5
945,7	18,557
946,1	21,3
946,6	20,871
947	21,443
947,4	20,214
947,8	23,243
948,2	25,3
948,7	24,414
949,1	27,357
949,5	23,529
949,9	22,529
950,3	19,9
950,8	15,7
951,2	14,671
951,6	16,014
952	14,786
952,5	16,843
952,9	13,157
953,3	17,843
953,7	17,471
954,1	15,243
954,6	12,586
955	17,986
955,4	18,614
955,8	20,329
956,2	19,5
956,7	23,043
957,1	25,329
957,5	29,414
957,9	23,671
958,3	25,1
958,8	29,957
959,2	34,129
959,6	38,157
960	39,071
960,5	36,1
960,9	36,243
961,3	35,986
961,7	31,786
962,1	29,414
962,6	23,071
963	22,986
963,4	25,271
963,8	26,271
964,2	24,614
964,7	22,414
965,1	20,9
965,5	23,671
965,9	18,129
966,3	19,157
966,8	16,071
967,2	19,871
967,6	19,157
968	19,186
968,4	20,843
968,9	24,329
969,3	22,071
969,7	20,586
970,1	17,729
970,5	17,271
971	21,614
971,4	19,043
971,8	18,129
972,2	16,614
972,6	16,586
973,1	17,043
973,5	24,243
973,9	18,729
974,3	16,557
974,7	16,843
975,2	18,7
975,6	19,071
976	17,271
976,4	11,643
976,8	13,671
977,3	15,386
977,7	13,786
978,1	14,729
978,5	19,014
978,9	23,1
979,4	23,757
979,8	19,9
980,2	21,5
980,6	25,957
981	18,671
981,5	17,414
981,9	15,557
982,3	14,157
982,7	18,129
983,1	14,443
983,6	11,643
984	18,957
984,4	15,214
984,8	15,614
985,2	17,786
985,6	17,729
986,1	14,614
986,5	17,3
986,9	14,986
987,3	15,014
987,7	14,1
988,2	14,471
988,6	12,357
989	17,843
989,4	12,786
989,8	16,614
990,3	20,414
990,7	21,557
991,1	16,871
991,5	19,786
991,9	15,986
992,3	15,843
992,8	12,871
993,2	11,814
993,6	9,843
994	12,957
994,4	12,586
994,9	12,614
995,3	16,414
995,7	12,843
996,1	11,357
996,5	13,357
996,9	18,9
997,4	15,643
997,8	19,586
998,2	18,014
998,6	21,757
999	19,986
999,5	20,243
999,9	19,357
1000,3	20,7
1000,7	24,157
1001,1	21,871
1001,5	23,157
1002	25,814
1002,4	21,1
1002,8	18,414
1003,2	16,157
1003,6	10,729
1004	15,986
1004,5	12,986
1004,9	14,243
1005,3	12,443
1005,7	16,157
1006,1	16,471
1006,6	16,757
1007	12,5
1007,4	12,729
1007,8	12,386
1008,2	21,386
1008,6	16,843
1009,1	17,357
1009,5	19,243
1009,9	24,329
1010,3	25,271
1010,7	26,186
1011,1	21,929
1011,6	21,614
1012	26,271
1012,4	22,443
1012,8	18,814
1013,2	14,9
1013,6	14,871
1014,1	13,9
1014,5	18,443
1014,9	18,7
1015,3	21,186
1015,7	21,557
1016,1	27,643
1016,6	26,929
1017	27,9
1017,4	25,329
1017,8	27,586
1018,2	26,729
1018,6	22,129
1019,1	19,843
1019,5	20,7
1019,9	22,614
1020,3	22,5
1020,7	21,157
1021,1	18,071
1021,6	25,271
1022	24,329
1022,4	22,557
1022,8	20,214
1023,2	18,643
1023,6	13,729
1024,1	20,586
1024,5	19,671
1024,9	22,729
1025,3	26,214
1025,7	25,7
1026,1	24,7
1026,6	29,157
1027	23,157
1027,4	23,5
1027,8	20,929
1028,2	21,843
1028,6	25,414
1029	20,957
1029,5	15,7
1029,9	21,386
1030,3	18,5
1030,7	20,386
1031,1	17,729
1031,5	17,529
1032	25,671
1032,4	33,871
1032,8	27,786
1033,2	24,014
1033,6	24,9
1034	23,671
1034,4	22,7
1034,9	23,214
1035,3	17,471
1035,7	17,671
1036,1	28,271
1036,5	24,271
1036,9	29,014
1037,4	30,671
1037,8	23,729
1038,2	22,643
1038,6	22,643
1039	16,3
1039,4	22,957
1039,8	20,814
1040,3	20,843
1040,7	26,843
1041,1	24,414
1041,5	28,614
1041,9	32,843
1042,3	26,529
1042,7	22,843
1043,2	21,843
1043,6	23,071
1044	29,329
1044,4	31,671
1044,8	28,529
1045,2	25,586
1045,6	33,614
1046,1	32,186
1046,5	24,243
1046,9	21,671
1047,3	19,643
1047,7	18,986
1048,1	19,643
1048,5	13,243
1049	14,7
1049,4	18,357
1049,8	20,443
1050,2	18,986
1050,6	17,843
1051	21,3
1051,4	24,786
1051,9	26,014
1052,3	23,671
1052,7	23,929
1053,1	20,443
1053,5	18,586
1053,9	20,329
1054,3	12,586
1054,8	9,9
1055,2	12,186
1055,6	10,814
1056	15,7
1056,4	17,329
1056,8	17,5
1057,2	20,729
1057,6	23,443
1058,1	25,929
1058,5	22,157
1058,9	17,443
1059,3	19,214
1059,7	18,043
1060,1	20,586
1060,5	21,214
1061	17,929
1061,4	18,471
1061,8	24,786
1062,2	28,186
1062,6	29,871
1063	31,186
1063,4	29,043
1063,8	29,1
1064,3	35,529
1064,7	33,014
1065,1	30,814
1065,5	31,414
1065,9	30,9
1066,3	30,557
1066,7	37,471
1067,1	33,357
1067,6	36,443
1068	39,043
1068,4	34,529
1068,8	34,529
1069,2	33,986
1069,6	26,757
1070	28,129
1070,4	20,9
1070,9	18,443
1071,3	19,357
1071,7	15,386
1072,1	10,243
1072,5	13,671
1072,9	12,586
1073,3	14,471
1073,7	10,186
1074,2	12,1
1074,6	14,357
1075	21,157
1075,4	22,471
1075,8	17,043
1076,2	20,957
1076,6	24,129
1077	25,9
1077,5	26,357
1077,9	19,929
1078,3	14,471
1078,7	20,471
1079,1	18,586
1079,5	19,471
1079,9	18,586
1080,3	19,471
1080,7	24,986
1081,2	29,157
1081,6	30,7
1082	34,614
1082,4	32,671
1082,8	32,1
1083,2	25,214
1083,6	22,614
1084	18,329
1084,5	16,357
1084,9	12,814
1085,3	14,071
1085,7	10,186
1086,1	15,386
1086,5	16,071
1086,9	21,186
1087,3	23,157
1087,7	24,7
1088,2	25,643
1088,6	32,214
1089	32,643
1089,4	33,786
1089,8	32,129
1090,2	28,529
1090,6	23,7
1091	21,014
1091,4	14,986
1091,9	12,014
1092,3	13,043
1092,7	11,843
1093,1	11,043
1093,5	13,414
1093,9	11,271
1094,3	14,157
1094,7	11,157
1095,1	11,671
1095,5	13,043
1096	15,929
1096,4	16,643
1096,8	21,471
1097,2	21,529
1097,6	27,443
1098	22,671
1098,4	21,986
1098,8	19,643
1099,2	21,043
1099,6	19,814
1100,1	19,357
1100,5	17,671
1100,9	20,157
1101,3	20,443
1101,7	19,786
1102,1	16,271
1102,5	15,957
1102,9	13,014
1103,3	13,586
1103,7	17,757
1104,2	15,586
1104,6	15,3
1105	13,129
1105,4	13,3
1105,8	13,271
1106,2	10,643
1106,6	4,614
1107	2,643
1107,4	2,633
1107,8	4,54
1108,3	0,4
