Data from Subt2_00019.txt Node
Date: Mon Aug 28 13:09:16 MSK 2023
User: vat
Spectrometer: MAYP114033
Trigger mode: 0
Integration Time (sec): 1,000000E0
Scans to average: 5
Electric dark correction enabled: true
Nonlinearity correction enabled: false
Boxcar width: 3
XAxis mode: Wavelengths
Number of Pixels in Spectrum: 2068
>>>>>Begin Spectral Data<<<<<
199,4	-0,583
199,9	2,567
200,4	2,5
200,8	5,024
201,3	4,995
201,8	7,224
202,2	7,081
202,7	9,91
203,2	7,652
203,6	7,824
204,1	8,624
204,6	9,824
205	11,11
205,5	16,024
206	14,795
206,4	18,052
206,9	21,167
207,4	19,167
207,8	15,738
208,3	13,938
208,8	15,338
209,2	19,138
209,7	16,767
210,2	10,795
210,6	12,138
211,1	15,481
211,5	18,738
212	13,71
212,5	12,681
212,9	15,481
213,4	21,395
213,9	23,024
214,3	21,852
214,8	20,138
215,3	17,252
215,7	15,052
216,2	15,024
216,7	13,652
217,1	14,138
217,6	14,252
218,1	11,11
218,5	12,595
219	11,167
219,5	11,91
219,9	9,995
220,4	5,71
220,9	5,767
221,3	6,91
221,8	12,138
222,3	17,595
222,7	13,281
223,2	16,31
223,6	17,824
224,1	19,281
224,6	18,595
225	12,595
225,5	8,795
226	9,967
226,4	8,481
226,9	7,024
227,4	10,252
227,8	13,195
228,3	17,795
228,8	22,624
229,2	21,967
229,7	22,452
230,2	19,824
230,6	14,71
231,1	11,195
231,5	15,595
232	16,852
232,5	20,91
232,9	16,595
233,4	21,024
233,9	22,11
234,3	26,052
234,8	19,138
235,3	9,024
235,7	5,71
236,2	8,995
236,7	4,452
237,1	11,624
237,6	10,424
238,1	11,767
238,5	18,11
239	17,967
239,4	21,995
239,9	29,738
240,4	25,338
240,8	26,31
241,3	29,938
241,8	27,138
242,2	28,795
242,7	30,938
243,2	27,881
243,6	31,624
244,1	27,452
244,6	25,595
245	25,195
245,5	26,167
245,9	20,367
246,4	17,11
246,9	13,652
247,3	15,967
247,8	10,681
248,3	11,881
248,7	11,624
249,2	9,281
249,7	11,71
250,1	9,338
250,6	10,052
251	11,538
251,5	14,138
252	11,738
252,4	15,395
252,9	15,767
253,4	19,91
253,8	18,938
254,3	23,367
254,8	19,11
255,2	22,138
255,7	21,91
256,1	23,452
256,6	22,881
257,1	22,824
257,5	17,938
258	15,338
258,5	12,024
258,9	9,367
259,4	6,31
259,9	0,738
260,3	1,224
260,8	0,167
261,2	6,71
261,7	7,681
262,2	8,395
262,6	4,081
263,1	6,367
263,6	5,224
264	5,852
264,5	4,538
264,9	6,281
265,4	9,395
265,9	14,024
266,3	16,281
266,8	17,567
267,3	22,052
267,7	18,481
268,2	18,338
268,7	16,338
269,1	15,881
269,6	19,91
270	20,567
270,5	17,995
271	22,31
271,4	25,652
271,9	30,652
272,4	34,51
272,8	31,652
273,3	32,881
273,7	26,367
274,2	23,852
274,7	17,995
275,1	12,138
275,6	12,281
276,1	9,11
276,5	7,31
277	14,681
277,4	11,538
277,9	13,881
278,4	14,31
278,8	14,052
279,3	12,481
279,8	12,081
280,2	8,681
280,7	6,881
281,1	3,995
281,6	6,995
282,1	3,91
282,5	7,052
283	3,252
283,4	7,91
283,9	12,881
284,4	15,738
284,8	13,652
285,3	16,052
285,8	14,395
286,2	14,481
286,7	13,081
287,1	16,367
287,6	15,795
288,1	21,252
288,5	19,224
289	25,11
289,5	26,595
289,9	30,938
290,4	25,824
290,8	26,652
291,3	23,652
291,8	28,281
292,2	25,51
292,7	27,338
293,1	21,367
293,6	20,024
294,1	21,738
294,5	18,224
295	12,967
295,5	11,652
295,9	12,252
296,4	15,338
296,8	22,338
297,3	18,938
297,8	15,767
298,2	17,967
298,7	16,624
299,1	17,367
299,6	13,052
300,1	10,338
300,5	9,51
301	14,681
301,5	9,51
301,9	6,11
302,4	2,424
302,8	2,167
303,3	1,281
303,8	1,167
304,2	-2,833
304,7	-0,576
305,1	4,395
305,6	8,938
306,1	9,652
306,5	12,167
307	13,052
307,4	15,481
307,9	17,567
308,4	16,281
308,8	14,91
309,3	19,224
309,8	21,252
310,2	25,081
310,7	28,338
311,1	29,224
311,6	30,795
312,1	27,995
312,5	25,51
313	19,852
313,4	20,395
313,9	18,824
314,4	16,738
314,8	12,824
315,3	21,052
315,7	23,024
316,2	25,167
316,7	16,395
317,1	15,595
317,6	14,367
318	19,338
318,5	15,052
319	15,71
319,4	14,595
319,9	17,624
320,3	13,938
320,8	17,567
321,3	16,024
321,7	9,824
322,2	9,795
322,6	10,824
323,1	10,852
323,6	13,795
324	14,31
324,5	17,081
324,9	24,11
325,4	24,052
325,9	25,281
326,3	25,224
326,8	21,967
327,2	22,624
327,7	15,738
328,2	14,995
328,6	11,738
329,1	9,11
329,5	9,367
330	17,567
330,5	17,395
330,9	16,681
331,4	16,195
331,8	19,452
332,3	24,538
332,8	25,881
333,2	21,938
333,7	17,567
334,1	22,195
334,6	22,681
335,1	24,081
335,5	17,052
336	17,567
336,4	16,395
336,9	18,081
337,4	18,167
337,8	18,538
338,3	15,281
338,7	18,195
339,2	21,195
339,7	24,452
340,1	20,11
340,6	20,024
341	16,081
341,5	18,767
342	19,624
342,4	18,195
342,9	17,31
343,3	23,681
343,8	18,824
344,2	24,767
344,7	22,767
345,2	24,424
345,6	23,481
346,1	23,252
346,5	18,995
347	21,224
347,5	21,252
347,9	19,795
348,4	16,138
348,8	15,51
349,3	17,367
349,8	20,91
350,2	24,71
350,7	19,567
351,1	20,852
351,6	28,338
352	31,881
352,5	36,881
353	41,138
353,4	45,91
353,9	54,395
354,3	64,91
354,8	69,395
355,3	80,424
355,7	90,424
356,2	106,881
356,6	128,681
357,1	149,081
357,5	178,424
358	209,595
358,5	245,652
358,9	279,452
359,4	322,995
359,8	370,995
360,3	428,567
360,8	482,167
361,2	553,167
361,7	626,51
362,1	709,652
362,6	795,51
363	886,11
363,5	989,71
364	1099,71
364,4	1205,31
364,9	1315,252
365,3	1425,052
365,8	1530,967
366,3	1628,138
366,7	1714,024
367,2	1788,824
367,6	1852,824
368,1	1903,538
368,5	1936,024
369	1955,824
369,5	1954,281
369,9	1937,424
370,4	1907,31
370,8	1863,052
371,3	1803,081
371,7	1739,824
372,2	1667,624
372,7	1592,167
373,1	1508,71
373,6	1422,567
374	1329,452
374,5	1243,195
374,9	1158,738
375,4	1069,567
375,9	986,538
376,3	911,824
376,8	843,767
377,2	780,195
377,7	723,081
378,2	665,367
378,6	614,167
379,1	563,881
379,5	517,281
380	469,481
380,4	433,395
380,9	393,252
381,4	359,652
381,8	330,424
382,3	309,538
382,7	288,71
383,2	273,481
383,6	257,167
384,1	238,138
384,6	226,481
385	213,795
385,5	197,51
385,9	183,51
386,4	169,595
386,8	156,081
387,3	148,11
387,7	134,395
388,2	124,424
388,7	119,938
389,1	109,567
389,6	106,51
390	102,595
390,5	99,852
390,9	95,967
391,4	89,91
391,9	82,024
392,3	86,595
392,8	80,881
393,2	74,652
393,7	67,024
394,1	63,852
394,6	64,538
395,1	66,31
395,5	59,852
396	58,595
396,4	56,824
396,9	60,995
397,3	59,052
397,8	52,167
398,2	50,167
398,7	49,024
399,2	50,252
399,6	55,738
400,1	54,224
400,5	56,938
401	63,224
401,4	62,024
401,9	62,595
402,4	62,51
402,8	57,595
403,3	56,424
403,7	59,51
404,2	62,224
404,6	63,11
405,1	68,195
405,5	64,138
406	67,31
406,5	69,824
406,9	70,881
407,4	72,738
407,8	81,481
408,3	82,624
408,7	90,881
409,2	94,938
409,6	103,395
410,1	108,452
410,6	112,881
411	115,767
411,5	123,824
411,9	134,452
412,4	142,91
412,8	147,452
413,3	157,338
413,7	168,567
414,2	180,624
414,7	193,167
415,1	202,195
415,6	215,367
416	234,624
416,5	247,424
416,9	263,138
417,4	284,138
417,8	297,024
418,3	314,881
418,8	332,567
419,2	348,852
419,7	372,252
420,1	391,395
420,6	405,052
421	433,567
421,5	461,624
421,9	487,51
422,4	512,31
422,8	537,081
423,3	567,538
423,8	596,881
424,2	624,252
424,7	652,538
425,1	687,338
425,6	725,195
426	758,567
426,5	796,938
426,9	845,31
427,4	889,595
427,9	931,995
428,3	985,424
428,8	1031,138
429,2	1086,967
429,7	1142,624
430,1	1196,167
430,6	1258,71
431	1327,681
431,5	1390,138
431,9	1462,11
432,4	1536,452
432,8	1620,881
433,3	1705,338
433,8	1793,967
434,2	1878,738
434,7	1976,281
435,1	2077,024
435,6	2180,881
436	2284,567
436,5	2394,624
436,9	2512,91
437,4	2637,51
437,8	2759,824
438,3	2891,967
438,8	3030,481
439,2	3170,224
439,7	3317,681
440,1	3461,91
440,6	3621,71
441	3780,995
441,5	3944,167
441,9	4112,967
442,4	4291,481
442,8	4478,995
443,3	4674,424
443,7	4869,852
444,2	5071,824
444,7	5289,424
445,1	5510,452
445,6	5736,052
446	5968,71
446,5	6199,224
446,9	6439,452
447,4	6693,367
447,8	6940,767
448,3	7190,681
448,7	7439,71
449,2	7692,71
449,6	7960,252
450,1	8234,681
450,6	8510,11
451	8793,624
451,5	9092,395
451,9	9403,71
452,4	9715,224
452,8	10029,681
453,3	10333,652
453,7	10655,252
454,2	10976,71
454,6	11307,11
455,1	11635,995
455,5	11970,795
456	12304,881
456,4	12657,31
456,9	13004,938
457,3	13357,995
457,8	13702,31
458,3	14061,138
458,7	14413,91
459,2	14782,71
459,6	15149,452
460,1	15520,024
460,5	15898,338
461	16269,995
461,4	16645,938
461,9	17024,538
462,3	17400,252
462,8	17771,024
463,2	18147,395
463,7	18511,967
464,1	18878,31
464,6	19238,881
465	19615,852
465,5	19982,595
466	20363,138
466,4	20711,51
466,9	21073,338
467,3	21435,052
467,8	21793,51
468,2	22141,224
468,7	22505,538
469,1	22853,595
469,6	23221,395
470	23576,538
470,5	23911,052
470,9	24251,167
471,4	24581,11
471,8	24881,881
472,3	25187,795
472,7	25476,31
473,2	25768,367
473,6	26078,395
474,1	26354,11
474,5	26649,395
475	26945,252
475,4	27218,252
475,9	27499,595
476,4	27764,452
476,8	28019,538
477,3	28282,938
477,7	28516,367
478,2	28736,995
478,6	28968,938
479,1	29163,967
479,5	29374,767
480	29570,195
480,4	29762,738
480,9	29936,224
481,3	30097,11
481,8	30248,567
482,2	30413,567
482,7	30549,281
483,1	30684,395
483,6	30803,081
484	30912,852
484,5	31023,795
484,9	31107,738
485,4	31182,452
485,8	31247,681
486,3	31311,91
486,7	31359,452
487,2	31425,081
487,6	31462,338
488,1	31491,681
488,5	31518,91
489	31541,852
489,4	31543,481
489,9	31531,538
490,4	31503,281
490,8	31497,738
491,3	31482,738
491,7	31441,995
492,2	31388,824
492,6	31321,51
493,1	31257,881
493,5	31161,652
494	31068,195
494,4	30971,367
494,9	30875,167
495,3	30773,338
495,8	30682,052
496,2	30576,395
496,7	30490,367
497,1	30380,338
497,6	30250,681
498	30134,767
498,5	30009,652
498,9	29874,881
499,4	29738,624
499,8	29600,538
500,3	29460,081
500,7	29320,538
501,2	29167,052
501,6	29016,338
502,1	28850,595
502,5	28692,824
503	28519,624
503,4	28340,481
503,9	28181,595
504,3	28000,624
504,8	27805,51
505,2	27632,624
505,7	27450,281
506,1	27261,824
506,6	27060,424
507	26852,452
507,5	26664,167
507,9	26470,967
508,4	26251,481
508,8	26036,595
509,3	25822,71
509,7	25604,91
510,2	25396,91
510,6	25176,138
511,1	24971,595
511,5	24757,538
512	24551,738
512,4	24335,081
512,9	24120,024
513,3	23893,252
513,8	23661,338
514,2	23429,795
514,7	23218,538
515,1	22989,252
515,6	22764,452
516	22552,681
516,5	22320,595
516,9	22111,052
517,4	21884,624
517,8	21657,452
518,3	21425,395
518,7	21204,395
519,2	20980,624
519,6	20761,338
520,1	20542,138
520,5	20316,738
521	20094,51
521,4	19888,967
521,9	19671,052
522,3	19456,224
522,8	19250,91
523,2	19040,452
523,7	18841,738
524,1	18642,995
524,6	18436,767
525	18235,024
525,5	18025,967
525,9	17833,681
526,4	17632,31
526,8	17435,595
527,3	17237,767
527,7	17055,052
528,2	16861,624
528,6	16678,167
529,1	16490,738
529,5	16308,995
530	16125,424
530,4	15945,395
530,9	15749,652
531,3	15578,424
531,8	15401,11
532,2	15220,538
532,6	15044,51
533,1	14871,424
533,5	14703,395
534	14533,052
534,4	14370,138
534,9	14212,11
535,3	14052,224
535,8	13894,852
536,2	13745,224
536,7	13584,795
537,1	13433,224
537,6	13274,252
538	13125,367
538,5	12993,31
538,9	12833,995
539,4	12680,824
539,8	12544,281
540,3	12411,11
540,7	12277,852
541,2	12147,367
541,6	12000,11
542,1	11870,538
542,5	11745,852
543	11614,424
543,4	11476,652
543,9	11356,595
544,3	11221,881
544,8	11099,652
545,2	10981,967
545,7	10859,481
546,1	10748,167
546,5	10639,224
547	10522,795
547,4	10417,195
547,9	10314,367
548,3	10205,395
548,8	10113,967
549,2	9998,938
549,7	9899,938
550,1	9788,995
550,6	9684,31
551	9571,738
551,5	9477,11
551,9	9374,51
552,4	9277,167
552,8	9177,538
553,3	9089,395
553,7	8997,91
554,2	8903,567
554,6	8818,567
555,1	8716,395
555,5	8632,31
555,9	8549,31
556,4	8460,395
556,8	8376,31
557,3	8304,652
557,7	8218,024
558,2	8139,052
558,6	8061,652
559,1	7984,024
559,5	7912,852
560	7841,195
560,4	7758,967
560,9	7688,167
561,3	7615,652
561,8	7539,11
562,2	7460,252
562,7	7385,481
563,1	7307,281
563,6	7242,967
564	7165,795
564,4	7109,281
564,9	7043,367
565,3	6974,652
565,8	6908,71
566,2	6844,224
566,7	6784,338
567,1	6729,024
567,6	6656,967
568	6596,881
568,5	6547,024
568,9	6485,052
569,4	6427,567
569,8	6360,881
570,3	6298,938
570,7	6239,71
571,1	6186,967
571,6	6122,881
572	6070,71
572,5	6012,11
572,9	5961,738
573,4	5910,452
573,8	5868,624
574,3	5815,681
574,7	5771,91
575,2	5725,024
575,6	5679,967
576,1	5629,452
576,5	5578,424
576,9	5517,795
577,4	5466,338
577,8	5406,167
578,3	5360,224
578,7	5306,938
579,2	5260,281
579,6	5217,281
580,1	5179,424
580,5	5142,31
581	5110,624
581,4	5057,538
581,9	5022,424
582,3	4982,91
582,7	4942,081
583,2	4893,138
583,6	4841,424
584,1	4799,395
584,5	4762,91
585	4726,224
585,4	4678,052
585,9	4631,367
586,3	4599,081
586,8	4561,767
587,2	4520,995
587,6	4478,938
588,1	4434,224
588,5	4397,567
589	4362,852
589,4	4325,967
589,9	4296,71
590,3	4267,11
590,8	4242,91
591,2	4208,652
591,7	4185,795
592,1	4156,338
592,5	4129,624
593	4095,138
593,4	4059,51
593,9	4022,567
594,3	3997,338
594,8	3966,052
595,2	3936,252
595,7	3899,51
596,1	3878,138
596,6	3845,652
597	3824,081
597,4	3797,652
597,9	3771,481
598,3	3748,967
598,8	3727,281
599,2	3694,852
599,7	3678,424
600,1	3648,995
600,6	3616,967
601	3586,652
601,4	3559,424
601,9	3536,195
602,3	3511,338
602,8	3481,11
603,2	3457,481
603,7	3439,91
604,1	3418,167
604,6	3395,652
605	3371,51
605,4	3348,767
605,9	3327,081
606,3	3302,024
606,8	3276,424
607,2	3250,081
607,7	3230,31
608,1	3204,967
608,6	3179,395
609	3157,91
609,4	3138,852
609,9	3116,881
610,3	3102,91
610,8	3078,995
611,2	3055,681
611,7	3038,995
612,1	3013,538
612,6	2992,367
613	2965,538
613,4	2930,167
613,9	2913,424
614,3	2893,852
614,8	2867,195
615,2	2851,624
615,7	2829,195
616,1	2811,481
616,6	2806,538
617	2782,11
617,4	2759,567
617,9	2738,024
618,3	2717,481
618,8	2694,31
619,2	2678,595
619,7	2649,967
620,1	2636,595
620,5	2616,195
621	2602,595
621,4	2581,024
621,9	2562,795
622,3	2545,824
622,8	2525,738
623,2	2503,738
623,6	2487,995
624,1	2475,567
624,5	2460,195
625	2441,652
625,4	2423,281
625,9	2415,224
626,3	2394,738
626,8	2382,052
627,2	2358,91
627,6	2342,881
628,1	2330,738
628,5	2313,224
629	2296,91
629,4	2276,052
629,9	2254,681
630,3	2233,481
630,7	2211,795
631,2	2196,795
631,6	2176,367
632,1	2155,367
632,5	2147,71
633	2136,852
633,4	2124,824
633,8	2113,51
634,3	2092,481
634,7	2076,195
635,2	2066,252
635,6	2045,624
636,1	2020,167
636,5	2003,967
636,9	1989,224
637,4	1977,138
637,8	1966,938
638,3	1952,51
638,7	1934,881
639,2	1924,91
639,6	1913,31
640	1897,452
640,5	1889,195
640,9	1877,938
641,4	1863,824
641,8	1854,767
642,2	1846,338
642,7	1837,31
643,1	1830,424
643,6	1814,624
644	1803,052
644,5	1791,31
644,9	1783,881
645,3	1774,052
645,8	1759,738
646,2	1744,538
646,7	1726,995
647,1	1713,195
647,6	1699,138
648	1684,995
648,4	1677,767
648,9	1663,795
649,3	1654,338
649,8	1647,938
650,2	1642,11
650,6	1631,567
651,1	1622,51
651,5	1603,31
652	1597,452
652,4	1584,167
652,9	1569,938
653,3	1551,681
653,7	1537,252
654,2	1524,967
654,6	1513,91
655,1	1499,852
655,5	1485,31
655,9	1476,395
656,4	1470,652
656,8	1466,452
657,3	1457,252
657,7	1446,71
658,2	1440,824
658,6	1437,652
659	1428,767
659,5	1413,91
659,9	1406,224
660,4	1395,852
660,8	1388,481
661,2	1374,252
661,7	1358,681
662,1	1348,938
662,6	1341,338
663	1328,31
663,4	1319,424
663,9	1309,71
664,3	1300,824
664,8	1297,024
665,2	1293,024
665,6	1281,252
666,1	1268,538
666,5	1257,938
667	1245,938
667,4	1238,224
667,9	1226,995
668,3	1214,938
668,7	1206,167
669,2	1195,481
669,6	1183,824
670,1	1177,424
670,5	1163,824
670,9	1156,167
671,4	1145,167
671,8	1140,024
672,3	1136,31
672,7	1131,795
673,1	1124,281
673,6	1119,452
674	1109,824
674,5	1103,652
674,9	1095,567
675,3	1088,252
675,8	1078,795
676,2	1072,252
676,7	1065,71
677,1	1061,51
677,5	1055,224
678	1048,167
678,4	1038,652
678,9	1031,567
679,3	1022,024
679,7	1010,224
680,2	1000,567
680,6	991,224
681,1	981,338
681,5	976,081
681,9	967,624
682,4	964,567
682,8	960,338
683,3	956,538
683,7	947,881
684,1	939,595
684,6	930,852
685	920,367
685,5	902,852
685,9	894,481
686,3	889,71
686,8	888,624
687,2	885,052
687,7	882,052
688,1	879,852
688,5	881,567
689	885,595
689,4	872,652
689,9	864,367
690,3	857,11
690,7	849,424
691,2	843,367
691,6	836,452
692	820,11
692,5	817,395
692,9	811,195
693,4	804,167
693,8	798,167
694,2	794,224
694,7	786,138
695,1	789,31
695,6	782,424
696	775,481
696,4	772,424
696,9	762,681
697,3	761,795
697,8	758,395
698,2	744,367
698,6	738,795
699,1	732,167
699,5	728,052
699,9	725,367
700,4	715,852
700,8	709,281
701,3	705,967
701,7	697,424
702,1	693,995
702,6	689,538
703	685,367
703,5	678,567
703,9	678,195
704,3	672,71
704,8	671,738
705,2	665,767
705,6	658,881
706,1	651,624
706,5	651,567
707	646,195
707,4	647,795
707,8	643,738
708,3	643,967
708,7	639,938
709,2	639,052
709,6	631,252
710	623,51
710,5	615,995
710,9	612,51
711,3	603,652
711,8	595,71
712,2	595,624
712,7	589,024
713,1	583,224
713,5	577,795
714	571,852
714,4	567,481
714,8	572,767
715,3	565,624
715,7	563,224
716,2	565,995
716,6	562,31
717	563,481
717,5	558,31
717,9	547,11
718,3	540,367
718,8	539,195
719,2	533,138
719,7	529,367
720,1	519,738
720,5	522,71
721	523,395
721,4	519,738
721,8	511,681
722,3	508,767
722,7	502,395
723,2	500,91
723,6	493,224
724	488,452
724,5	486,938
724,9	483,738
725,3	474,624
725,8	474,052
726,2	470,624
726,7	463,452
727,1	457,252
727,5	448,71
728	440,195
728,4	438,452
728,8	433,052
729,3	423,052
729,7	421,538
730,1	417,452
730,6	416,024
731	416,081
731,5	415,567
731,9	411,538
732,3	412,224
732,8	409,024
733,2	408,881
733,6	407,91
734,1	407,224
734,5	404,71
734,9	399,938
735,4	396,224
735,8	399,138
736,3	392,681
736,7	391,395
737,1	388,167
737,6	385,824
738	387,938
738,4	386,51
738,9	383,795
739,3	387,31
739,7	383,767
740,2	385,167
740,6	383,081
741,1	376,281
741,5	375,995
741,9	368,481
742,4	367,738
742,8	364,452
743,2	365,595
743,7	361,967
744,1	366,51
744,5	364,424
745	362,395
745,4	355,452
745,8	354,081
746,3	344,967
746,7	340,138
747,2	330,481
747,6	327,138
748	328,567
748,5	328,138
748,9	327,824
749,3	328,881
749,8	330,31
750,2	331,281
750,6	331,652
751,1	326,71
751,5	325,881
751,9	321,11
752,4	322,91
752,8	323,624
753,3	321,224
753,7	314,595
754,1	315,024
754,6	307,681
755	310,652
755,4	307,338
755,9	302,767
756,3	306,252
756,7	306,738
757,2	299,852
757,6	302,681
758	296,252
758,5	289,967
758,9	287,824
759,3	280,252
759,8	275,424
760,2	277,881
760,6	282,452
761,1	286,31
761,5	288,252
761,9	284,367
762,4	284,11
762,8	287,167
763,3	284,681
763,7	275,51
764,1	265,167
764,6	258,395
765	258,51
765,4	259,852
765,9	262,31
766,3	261,881
766,7	259,967
767,2	259,281
767,6	266,367
768	260,081
768,5	254,881
768,9	245,281
769,3	244,767
769,8	242,881
770,2	241,652
770,6	233,824
771,1	231,681
771,5	230,652
771,9	230,281
772,4	228,681
772,8	228,51
773,2	231,852
773,7	226,51
774,1	235,967
774,5	231,795
775	230,51
775,4	226,024
775,8	223,31
776,3	222,938
776,7	223,967
777,1	219,395
777,6	216,424
778	214,138
778,4	214,452
778,9	214,052
779,3	209,224
779,7	209,452
780,2	208,024
780,6	215,195
781	219,024
781,5	215,338
781,9	212,367
782,3	208,738
782,8	211,681
783,2	207,11
783,6	205,052
784,1	199,852
784,5	203,31
784,9	204,167
785,4	207,052
785,8	204,052
786,2	201,967
786,7	197,138
787,1	200,824
787,5	196,195
788	192,652
788,4	190,224
788,8	183,795
789,3	188,395
789,7	185,367
790,1	182,452
790,6	183,11
791	181,595
791,4	181,595
791,9	185,738
792,3	179,738
792,7	185,452
793,2	185,11
793,6	184,738
794	183,51
794,5	177,51
794,9	174,081
795,3	175,281
795,8	173,052
796,2	163,91
796,6	161,795
797,1	163,224
797,5	165,995
797,9	164,51
798,4	163,538
798,8	159,824
799,2	166,481
799,7	165,424
800,1	164,481
800,5	162,224
801	163,338
801,4	162,338
801,8	160,652
802,2	158,824
802,7	154,681
803,1	153,081
803,5	150,967
804	146,538
804,4	143,538
804,8	149,481
805,3	148,538
805,7	150,767
806,1	146,367
806,6	149,567
807	149,91
807,4	150,138
807,9	141,652
808,3	135,081
808,7	140,081
809,2	143,481
809,6	139,538
810	139,367
810,4	139,252
810,9	141,938
811,3	145,824
811,7	137,881
812,2	134,624
812,6	133,538
813	132,138
813,5	130,624
813,9	129,081
814,3	125,938
814,8	123,567
815,2	126,51
815,6	128,367
816,1	126,167
816,5	124,938
816,9	123,995
817,3	125,595
817,8	128,538
818,2	126,167
818,6	125,452
819,1	122,567
819,5	118,624
819,9	118,11
820,4	120,995
820,8	119,71
821,2	116,624
821,7	109,91
822,1	111,224
822,5	117,652
822,9	114,224
823,4	107,31
823,8	108,281
824,2	108,395
824,7	113,195
825,1	112,738
825,5	107,024
826	102,167
826,4	104,51
826,8	96,081
827,3	93,51
827,7	91,852
828,1	93,881
828,5	97,338
829	100,338
829,4	95,824
829,8	102,938
830,3	105,224
830,7	106,167
831,1	107,395
831,6	102,167
832	100,567
832,4	102,51
832,8	97,567
833,3	94,624
833,7	91,052
834,1	85,995
834,6	89,995
835	93,71
835,4	90,481
835,8	91,167
836,3	93,738
836,7	88,91
837,1	91,995
837,6	87,424
838	82,595
838,4	80,538
838,9	80,91
839,3	79,252
839,7	81,567
840,1	78,281
840,6	82,738
841	81,652
841,4	83,595
841,9	82,31
842,3	79,395
842,7	77,795
843,1	76,652
843,6	71,624
844	75,081
844,4	76,71
844,9	76,995
845,3	76,481
845,7	79,31
846,2	80,852
846,6	79,395
847	78,11
847,4	77,738
847,9	75,595
848,3	74,281
848,7	74,595
849,2	72,052
849,6	72,595
850	74,995
850,4	74,081
850,9	75,481
851,3	80,624
851,7	78,31
852,2	75,052
852,6	71,538
853	69,71
853,4	66,281
853,9	63,138
854,3	60,881
854,7	60,195
855,2	63,91
855,6	65,624
856	67,852
856,4	67,452
856,9	71,795
857,3	70,31
857,7	72,367
858,2	70,767
858,6	69,081
859	63,195
859,4	62,652
859,9	58,967
860,3	55,624
860,7	51,795
861,1	52,938
861,6	56,11
862	57,024
862,4	58,052
862,9	58,024
863,3	57,424
863,7	57,652
864,1	55,795
864,6	54,367
865	50,595
865,4	50,052
865,9	47,681
866,3	49,167
866,7	45,281
867,1	44,052
867,6	45,481
868	46,138
868,4	42,71
868,8	43,31
869,3	45,281
869,7	50,338
870,1	51,595
870,6	46,595
871	53,452
871,4	56,71
871,8	58,681
872,3	55,738
872,7	50,995
873,1	46,31
873,5	46,967
874	41,167
874,4	42,338
874,8	41,338
875,3	40,51
875,7	42,995
876,1	48,567
876,5	49,024
877	47,252
877,4	44,767
877,8	40,367
878,2	43,767
878,7	41,995
879,1	40,652
879,5	39,91
879,9	40,31
880,4	38,595
880,8	42,938
881,2	36,395
881,7	36,652
882,1	35,481
882,5	37,024
882,9	38,338
883,4	39,481
883,8	35,824
884,2	37,224
884,6	36,395
885,1	32,395
885,5	27,424
885,9	27,452
886,3	28,738
886,8	37,652
887,2	36,052
887,6	40,11
888	43,538
888,5	47,31
888,9	41,281
889,3	39,852
889,8	35,024
890,2	36,71
890,6	34,138
891	34,452
891,5	34,138
891,9	36,11
892,3	38,852
892,7	33,281
893,2	34,681
893,6	31,367
894	33,51
894,4	29,481
894,9	31,31
895,3	26,081
895,7	29,852
896,1	24,595
896,6	28,452
897	29,824
897,4	31,881
897,8	31,995
898,3	33,681
898,7	31,481
899,1	36,081
899,5	36,91
900	31,11
900,4	29,652
900,8	23,738
901,2	21,481
901,7	22,024
902,1	25,024
902,5	25,424
902,9	24,652
903,4	29,11
903,8	34,367
904,2	35,367
904,6	31,824
905,1	26,767
905,5	21,652
905,9	20,052
906,3	16,367
906,8	13,852
907,2	12,652
907,6	15,681
908	17,738
908,5	14,681
908,9	15,252
909,3	15,395
909,7	17,052
910,2	21,595
910,6	21,881
911	23,081
911,4	23,738
911,9	22,481
912,3	21,71
912,7	21,652
913,1	18,824
913,6	20,824
914	22,024
914,4	28,31
914,8	33,852
915,3	34,595
915,7	36,767
916,1	40,738
916,5	37,31
916,9	34,567
917,4	33,938
917,8	27,91
918,2	29,624
918,6	23,938
919,1	22,31
919,5	24,081
919,9	25,252
920,3	21,195
920,8	27,252
921,2	22,71
921,6	27,367
922	23,51
922,5	20,824
922,9	22,767
923,3	24,995
923,7	22,881
924,2	25,624
924,6	23,195
925	26,452
925,4	28,367
925,8	24,938
926,3	24,681
926,7	23,31
927,1	21,51
927,5	25,538
928	24,338
928,4	19,138
928,8	18,51
929,2	18,51
929,7	22,967
930,1	27,538
930,5	20,281
930,9	22,738
931,3	29,452
931,8	30,967
932,2	30,081
932,6	23,681
933	16,567
933,5	18,567
933,9	18,024
934,3	14,452
934,7	18,138
935,2	18,367
935,6	17,91
936	14,91
936,4	13,967
936,8	10,681
937,3	14,167
937,7	8,91
938,1	7,938
938,5	7,338
939	12,995
939,4	13,567
939,8	11,681
940,2	6,995
940,6	8,538
941,1	10,167
941,5	13,167
941,9	12,938
942,3	19,252
942,8	19,595
943,2	18,138
943,6	15,595
944	16,11
944,4	12,71
944,9	14,224
945,3	10,995
945,7	11,595
946,1	11,224
946,6	10,852
947	10,824
947,4	8,767
947,8	10,024
948,2	12,31
948,7	12,081
949,1	16,967
949,5	19,024
949,9	15,024
950,3	16,081
950,8	14,881
951,2	11,967
951,6	15,738
952	16,995
952,5	15,738
952,9	15,967
953,3	16,024
953,7	12,11
954,1	10,11
954,6	8,252
955	5,852
955,4	5,767
955,8	7,452
956,2	7,938
956,7	10,567
957,1	15,31
957,5	15,11
957,9	12,738
958,3	12,452
958,8	14,31
959,2	17,424
959,6	23,424
960	16,938
960,5	12,738
960,9	17,938
961,3	18,367
961,7	20,967
962,1	20,252
962,6	14,567
963	22,681
963,4	28,424
963,8	23,452
964,2	26,024
964,7	23,252
965,1	27,138
965,5	30,224
965,9	23,881
966,3	23,738
966,8	24,167
967,2	21,995
967,6	19,652
968	15,967
968,4	15,767
968,9	16,195
969,3	14,167
969,7	13,538
970,1	15,195
970,5	16,652
971	19,11
971,4	13,852
971,8	15,167
972,2	16,224
972,6	12,11
973,1	7,938
973,5	8,881
973,9	4,081
974,3	8,767
974,7	6,395
975,2	4,767
975,6	5,795
976	8,452
976,4	3,51
976,8	3,424
977,3	2,024
977,7	2,052
978,1	3,624
978,5	7,567
978,9	7,424
979,4	10,595
979,8	14,567
980,2	16,395
980,6	17,738
981	14,51
981,5	12,852
981,9	14,795
982,3	12,852
982,7	10,481
983,1	9,738
983,6	9,252
984	14,195
984,4	15,738
984,8	13,652
985,2	15,595
985,6	14,71
986,1	8,938
986,5	10,967
986,9	6,652
987,3	4,538
987,7	5,11
988,2	3,424
988,6	4,31
989	6,452
989,4	4,11
989,8	2,881
990,3	7,424
990,7	7,881
991,1	6,824
991,5	5,395
991,9	4,395
992,3	4,652
992,8	4,767
993,2	3,481
993,6	0,424
994	4,367
994,4	7,681
994,9	10,252
995,3	11,11
995,7	14,024
996,1	12,395
996,5	12,881
996,9	19,167
997,4	12,395
997,8	11,938
998,2	14,338
998,6	9,51
999	9,224
999,5	10,11
999,9	1,567
1000,3	8,167
1000,7	9,31
1001,1	4,767
1001,5	8,538
1002	10,881
1002,4	10,167
1002,8	13,338
1003,2	13,052
1003,6	12,624
1004	17,738
1004,5	15,624
1004,9	15,967
1005,3	17,367
1005,7	17,452
1006,1	14,281
1006,6	16,224
1007	11,395
1007,4	13,681
1007,8	15,51
1008,2	19,31
1008,6	20,395
1009,1	22,881
1009,5	26,738
1009,9	28,51
1010,3	28,024
1010,7	27,71
1011,1	21,824
1011,6	12,338
1012	12,767
1012,4	6,538
1012,8	4,652
1013,2	3,71
1013,6	3,995
1014,1	3,367
1014,5	9,395
1014,9	8,967
1015,3	8,138
1015,7	8,538
1016,1	10,567
1016,6	9,71
1017	11,31
1017,4	11,595
1017,8	15,681
1018,2	14,652
1018,6	17,081
1019,1	19,71
1019,5	19,11
1019,9	18,824
1020,3	16,395
1020,7	13,195
1021,1	9,452
1021,6	9,624
1022	3,31
1022,4	2,11
1022,8	3,767
1023,2	5,395
1023,6	-1,405
1024,1	7,167
1024,5	7,567
1024,9	12,367
1025,3	15,052
1025,7	12,824
1026,1	10,081
1026,6	22,081
1027	19,252
1027,4	19,852
1027,8	17,338
1028,2	15,195
1028,6	16,424
1029	14,138
1029,5	6,252
1029,9	9,224
1030,3	6,167
1030,7	14,024
1031,1	16,138
1031,5	16,081
1032	18,71
1032,4	24,024
1032,8	17,852
1033,2	15,052
1033,6	6,452
1034	-1,205
1034,4	-5,119
1034,9	2,281
1035,3	2,167
1035,7	2,538
1036,1	10,081
1036,5	10,938
1036,9	18,51
1037,4	25,167
1037,8	23,224
1038,2	23,481
1038,6	25,624
1039	21,681
1039,4	27,681
1039,8	28,281
1040,3	22,452
1040,7	19,881
1041,1	12,91
1041,5	18,452
1041,9	17,967
1042,3	10,052
1042,7	5,052
1043,2	9,195
1043,6	15,11
1044	19,081
1044,4	18,167
1044,8	18,281
1045,2	21,91
1045,6	26,738
1046,1	27,595
1046,5	19,052
1046,9	19,71
1047,3	15,481
1047,7	12,995
1048,1	8,767
1048,5	6,681
1049	4,052
1049,4	2,481
1049,8	2,624
1050,2	1,795
1050,6	1,081
1051	4,052
1051,4	1,824
1051,9	7,252
1052,3	11,738
1052,7	13,738
1053,1	11,795
1053,5	14,167
1053,9	17,881
1054,3	14,852
1054,8	10,824
1055,2	12,11
1055,6	12,452
1056	17,338
1056,4	17,852
1056,8	14,652
1057,2	15,338
1057,6	16,995
1058,1	19,652
1058,5	10,51
1058,9	7,138
1059,3	8,31
1059,7	7,424
1060,1	8,481
1060,5	6,452
1061	2,081
1061,4	5,652
1061,8	9,481
1062,2	6,51
1062,6	8,338
1063	7,967
1063,4	8,624
1063,8	9,252
1064,3	12,624
1064,7	11,995
1065,1	16,567
1065,5	13,424
1065,9	20,338
1066,3	16,31
1066,7	22,995
1067,1	19,624
1067,6	22,167
1068	24,224
1068,4	28,624
1068,8	24,081
1069,2	29,795
1069,6	20,738
1070	27,224
1070,4	18,538
1070,9	14,824
1071,3	13,538
1071,7	15,195
1072,1	11,167
1072,5	15,767
1072,9	11,938
1073,3	15,824
1073,7	13,224
1074,2	14,31
1074,6	10,881
1075	14,71
1075,4	15,567
1075,8	15,224
1076,2	15,081
1076,6	19,481
1077	20,595
1077,5	26,71
1077,9	20,252
1078,3	14,167
1078,7	15,167
1079,1	19,052
1079,5	19,51
1079,9	20,424
1080,3	17,052
1080,7	21,252
1081,2	26,481
1081,6	23,824
1082	21,567
1082,4	20,195
1082,8	20,824
1083,2	15,424
1083,6	13,538
1084	7,195
1084,5	9,51
1084,9	4,852
1085,3	2,31
1085,7	-2,719
1086,1	3,624
1086,5	1,024
1086,9	5,595
1087,3	6,081
1087,7	15,624
1088,2	20,681
1088,6	23,481
1089	21,252
1089,4	29,081
1089,8	27,538
1090,2	26,024
1090,6	17,11
1091	14,881
1091,4	12,424
1091,9	13,281
1092,3	12,967
1092,7	12,338
1093,1	12,538
1093,5	15,538
1093,9	12,595
1094,3	12,081
1094,7	10,852
1095,1	7,538
1095,5	11,252
1096	8,052
1096,4	7,281
1096,8	12,91
1097,2	14,338
1097,6	18,052
1098	17,967
1098,4	19,252
1098,8	19,767
1099,2	20,395
1099,6	14,738
1100,1	16,452
1100,5	13,11
1100,9	12,481
1101,3	9,367
1101,7	10,167
1102,1	14,424
1102,5	15,11
1102,9	11,338
1103,3	10,624
1103,7	11,195
1104,2	11,424
1104,6	12,91
1105	7,452
1105,4	8,938
1105,8	8,595
1106,2	8,024
1106,6	7,281
1107	4,71
1107,4	3,567
1107,8	4,167
1108,3	1,367
