Data from Subt2_00020.txt Node
Date: Mon Aug 28 13:09:21 MSK 2023
User: vat
Spectrometer: MAYP114033
Trigger mode: 0
Integration Time (sec): 1,000000E0
Scans to average: 5
Electric dark correction enabled: true
Nonlinearity correction enabled: false
Boxcar width: 3
XAxis mode: Wavelengths
Number of Pixels in Spectrum: 2068
>>>>>Begin Spectral Data<<<<<
199,4	-0,567
199,9	1,473
200,4	-0,6
200,8	2,348
201,3	3,233
201,8	3,005
202,2	5,976
202,7	8,919
203,2	9,005
203,6	11,376
204,1	14,005
204,6	16,319
205	19,433
205,5	22,005
206	17,633
206,4	15,348
206,9	13,662
207,4	10,433
207,8	8,49
208,3	7,719
208,8	7,29
209,2	13,919
209,7	15,919
210,2	12,633
210,6	13,719
211,1	15,148
211,5	21,548
212	19,233
212,5	17,862
212,9	20,89
213,4	26,033
213,9	23,662
214,3	22,319
214,8	16,69
215,3	14,633
215,7	14,062
216,2	14,348
216,7	16,09
217,1	16,662
217,6	14,005
218,1	13,919
218,5	12,748
219	14,233
219,5	9,919
219,9	11,833
220,4	12,833
220,9	14,062
221,3	14,033
221,8	19,462
222,3	19,233
222,7	21,176
223,2	19,405
223,6	22,29
224,1	27,976
224,6	25,919
225	24,633
225,5	22,033
226	21,776
226,4	21,776
226,9	16,948
227,4	13,49
227,8	17,148
228,3	17,605
228,8	18,348
229,2	23,748
229,7	22,348
230,2	19,805
230,6	20,433
231,1	18,233
231,5	20,748
232	26,09
232,5	22,405
232,9	21,833
233,4	24,662
233,9	22,862
234,3	22,319
234,8	21,69
235,3	12,119
235,7	13,576
236,2	10,976
236,7	9,719
237,1	16,348
237,6	16,633
238,1	11,576
238,5	19,805
239	12,576
239,4	14,805
239,9	20,062
240,4	15,462
240,8	16,033
241,3	19,49
241,8	16,719
242,2	20,49
242,7	24,376
243,2	21,119
243,6	21,605
244,1	19,033
244,6	18,976
245	19,776
245,5	21,09
245,9	17,033
246,4	15,176
246,9	12,69
247,3	15,462
247,8	9,976
248,3	7,348
248,7	9,719
249,2	12,119
249,7	15,376
250,1	14,233
250,6	13,776
251	16,376
251,5	18,576
252	15,405
252,4	17,033
252,9	13,89
253,4	20,205
253,8	21,89
254,3	20,348
254,8	22,005
255,2	26,548
255,7	25,348
256,1	27,49
256,6	24,748
257,1	24,405
257,5	24,862
258	19,576
258,5	11,09
258,9	8,919
259,4	9,548
259,9	7,662
260,3	8,262
260,8	7,376
261,2	8,005
261,7	10,519
262,2	10,833
262,6	5,09
263,1	6,319
263,6	3,348
264	7,69
264,5	5,662
264,9	7,776
265,4	5,948
265,9	10,89
266,3	11,862
266,8	12,605
267,3	10,09
267,7	14,49
268,2	16,29
268,7	19,033
269,1	20,319
269,6	22,576
270	27,576
270,5	26,89
271	27,233
271,4	24,69
271,9	24,89
272,4	24,49
272,8	19,405
273,3	12,948
273,7	13,319
274,2	17,662
274,7	15,948
275,1	15,519
275,6	15,433
276,1	18,376
276,5	19,776
277	22,576
277,4	19,033
277,9	21,233
278,4	19,348
278,8	19,119
279,3	15,662
279,8	12,919
280,2	6,89
280,7	2,005
281,1	3,376
281,6	5,919
282,1	4,976
282,5	6,805
283	8,719
283,4	14,748
283,9	19,862
284,4	18,148
284,8	17,262
285,3	18,576
285,8	25,376
286,2	22,89
286,7	19,062
287,1	21,49
287,6	22,433
288,1	25,89
288,5	25,348
289	21,233
289,5	21,148
289,9	24,462
290,4	22,29
290,8	23,119
291,3	20,805
291,8	24,548
292,2	24,262
292,7	27,09
293,1	27,005
293,6	21,719
294,1	20,49
294,5	18,719
295	17,033
295,5	13,662
295,9	13,119
296,4	11,205
296,8	15,89
297,3	15,033
297,8	12,119
298,2	12,119
298,7	15,262
299,1	17,376
299,6	15,69
300,1	17,633
300,5	19,49
301	23,062
301,5	19,69
301,9	19,09
302,4	14,89
302,8	17,862
303,3	11,548
303,8	11,519
304,2	9,719
304,7	10,805
305,1	10,919
305,6	15,29
306,1	13,605
306,5	21,062
307	17,49
307,4	22,062
307,9	21,948
308,4	19,376
308,8	21,233
309,3	22,148
309,8	20,433
310,2	24,262
310,7	21,833
311,1	22,176
311,6	24,662
312,1	19,576
312,5	17,176
313	11,205
313,4	10,005
313,9	9,119
314,4	11,948
314,8	8,062
315,3	14,605
315,7	16,576
316,2	21,433
316,7	17,005
317,1	15,862
317,6	11,976
318	16,148
318,5	17,205
319	21,319
319,4	20,09
319,9	19,005
320,3	20,062
320,8	23,976
321,3	23,69
321,7	17,548
322,2	13,833
322,6	12,548
323,1	17,348
323,6	20,633
324	16,09
324,5	16,033
324,9	16,633
325,4	20,148
325,9	22,862
326,3	21,433
326,8	20,119
327,2	23,519
327,7	21,119
328,2	19,433
328,6	15,176
329,1	10,405
329,5	9,405
330	9,319
330,5	10,29
330,9	12,662
331,4	15,548
331,8	18,519
332,3	23,976
332,8	23,49
333,2	23,062
333,7	19,233
334,1	17,376
334,6	18,033
335,1	15,119
335,5	12,176
336	13,776
336,4	15,319
336,9	14,29
337,4	13,005
337,8	11,119
338,3	11,376
338,7	11,062
339,2	15,633
339,7	13,119
340,1	11,605
340,6	11,833
341	10,69
341,5	11,148
342	11,776
342,4	12,519
342,9	10,29
343,3	14,033
343,8	14,519
344,2	18,033
344,7	22,148
345,2	21,89
345,6	20,262
346,1	23,376
346,5	19,205
347	25,29
347,5	25,348
347,9	23,548
348,4	21,033
348,8	21,005
349,3	24,805
349,8	30,948
350,2	25,576
350,7	24,005
351,1	23,919
351,6	33,148
352	34,662
352,5	38,348
353	40,605
353,4	51,462
353,9	61,433
354,3	77,005
354,8	86,919
355,3	102,719
355,7	113,69
356,2	134,548
356,6	153,69
357,1	179,119
357,5	201,49
358	231,776
358,5	266,862
358,9	313,605
359,4	359,833
359,8	414,033
360,3	472,719
360,8	542,005
361,2	616,062
361,7	696,033
362,1	777,176
362,6	873,405
363	972,833
363,5	1087,433
364	1204,662
364,4	1327,005
364,9	1450,919
365,3	1575,976
365,8	1695,433
366,3	1806,205
366,7	1898,833
367,2	1977,262
367,6	2045,462
368,1	2098,576
368,5	2136,519
369	2158,09
369,5	2159,262
369,9	2151,519
370,4	2128,719
370,8	2084,119
371,3	2025,376
371,7	1957,376
372,2	1873,033
372,7	1789,433
373,1	1692,776
373,6	1594,948
374	1495,719
374,5	1398,49
374,9	1301,633
375,4	1211,89
375,9	1118,005
376,3	1032,548
376,8	952,719
377,2	875,433
377,7	805,376
378,2	739,376
378,6	674,633
379,1	621,862
379,5	566,805
380	517,49
380,4	479,89
380,9	443,376
381,4	409,69
381,8	382,605
382,3	354,319
382,7	332,519
383,2	308,376
383,6	285,862
384,1	264,833
384,6	247,89
385	232,719
385,5	215,633
385,9	200,319
386,4	190,262
386,8	177,176
387,3	165,348
387,7	154,148
388,2	141,433
388,7	135,005
389,1	121,948
389,6	113,748
390	107,548
390,5	101,776
390,9	93,748
391,4	85,348
391,9	85,662
392,3	90,262
392,8	87,176
393,2	82,119
393,7	75,005
394,1	73,233
394,6	72,262
395,1	64,205
395,5	54,89
396	50,405
396,4	49,776
396,9	50,662
397,3	48,89
397,8	46,976
398,2	44,633
398,7	48,519
399,2	50,062
399,6	50,862
400,1	54,376
400,5	57,148
401	62,89
401,4	65,719
401,9	63,919
402,4	65,748
402,8	60,805
403,3	60,376
403,7	56,49
404,2	56,948
404,6	59,576
405,1	66,405
405,5	67,462
406	74,433
406,5	76,262
406,9	81,805
407,4	85,576
407,8	89,69
408,3	91,462
408,7	92,805
409,2	98,09
409,6	102,862
410,1	107,776
410,6	112,948
411	116,233
411,5	125,29
411,9	138,548
412,4	151,205
412,8	161,348
413,3	170,633
413,7	180,976
414,2	191,148
414,7	201,033
415,1	212,576
415,6	218,519
416	231,433
416,5	245,548
416,9	259,29
417,4	279,633
417,8	292,69
418,3	307,519
418,8	331,119
419,2	349,662
419,7	370,69
420,1	391,662
420,6	408,233
421	432,062
421,5	455,348
421,9	482,833
422,4	514,776
422,8	543,262
423,3	571,148
423,8	600,976
424,2	631,748
424,7	664,462
425,1	694,919
425,6	723,919
426	761,405
426,5	802,833
426,9	850,462
427,4	895,576
427,9	939,519
428,3	984,776
428,8	1037,805
429,2	1087,69
429,7	1139,605
430,1	1189,976
430,6	1249,319
431	1321,776
431,5	1387,748
431,9	1454,348
432,4	1528,69
432,8	1610,348
433,3	1699,205
433,8	1789,462
434,2	1876,89
434,7	1970,576
435,1	2078,262
435,6	2188,148
436	2297,29
436,5	2411,462
436,9	2528,405
437,4	2651,062
437,8	2780,662
438,3	2901,119
438,8	3033,748
439,2	3171,376
439,7	3317,548
440,1	3468,319
440,6	3622,776
441	3789,462
441,5	3965,462
441,9	4138,433
442,4	4313,633
442,8	4494,748
443,3	4688,89
443,7	4889,462
444,2	5089,919
444,7	5299,948
445,1	5518,548
445,6	5753,605
446	5980,633
446,5	6212,005
446,9	6443,748
447,4	6690,862
447,8	6938,805
448,3	7196,948
448,7	7446,262
449,2	7709,576
449,6	7981,176
450,1	8263,205
450,6	8542,519
451	8822,062
451,5	9113,748
451,9	9420,09
452,4	9725,405
452,8	10034,433
453,3	10341,49
453,7	10655,09
454,2	10981,376
454,6	11311,062
455,1	11642,405
455,5	11980,29
456	12317,776
456,4	12658,033
456,9	13011,119
457,3	13376,09
457,8	13726,462
458,3	14081,976
458,7	14433,862
459,2	14807,319
459,6	15176,976
460,1	15547,519
460,5	15920,748
461	16284,776
461,4	16667,548
461,9	17045,633
462,3	17406,519
462,8	17783,29
463,2	18152,862
463,7	18515,748
464,1	18891,919
464,6	19248,176
465	19624,376
465,5	19997,662
466	20371,462
466,4	20723,233
466,9	21083,548
467,3	21439,262
467,8	21806,89
468,2	22160,005
468,7	22521,633
469,1	22849,748
469,6	23197,69
470	23529,205
470,5	23871,919
470,9	24201,433
471,4	24528,233
471,8	24834,748
472,3	25173,005
472,7	25505,062
473,2	25825,719
473,6	26126,576
474,1	26421,09
474,5	26709,233
475	27001,89
475,4	27276,919
475,9	27536,29
476,4	27782,776
476,8	28039,576
477,3	28284,09
477,7	28522,862
478,2	28739,662
478,6	28966,176
479,1	29172,862
479,5	29388,948
480	29574,09
480,4	29750,29
480,9	29926,833
481,3	30102,576
481,8	30257,433
482,2	30414,748
482,7	30561,519
483,1	30702,433
483,6	30832,948
484	30951,005
484,5	31036,005
484,9	31138,805
485,4	31225,69
485,8	31291,519
486,3	31352,919
486,7	31397,805
487,2	31442,662
487,6	31488,49
488,1	31493,976
488,5	31516,919
489	31547,862
489,4	31550,776
489,9	31551,49
490,4	31529,605
490,8	31519,519
491,3	31505,748
491,7	31464,319
492,2	31393,69
492,6	31341,633
493,1	31277,633
493,5	31204,376
494	31122,548
494,4	31030,719
494,9	30935,033
495,3	30832,433
495,8	30730,09
496,2	30622,09
496,7	30526,948
497,1	30407,948
497,6	30280,433
498	30160,89
498,5	30045,29
498,9	29917,148
499,4	29795,405
499,8	29638,69
500,3	29513,633
500,7	29378,29
501,2	29223,29
501,6	29075,519
502,1	28903,862
502,5	28725,89
503	28570,148
503,4	28373,805
503,9	28194,462
504,3	28021,948
504,8	27822,262
505,2	27647,69
505,7	27448,49
506,1	27256,462
506,6	27069,548
507	26861,719
507,5	26656,776
507,9	26458,948
508,4	26249,605
508,8	26056,719
509,3	25845,919
509,7	25631,49
510,2	25416,233
510,6	25202,862
511,1	24992,119
511,5	24771,719
512	24553,405
512,4	24333,005
512,9	24111,976
513,3	23889,719
513,8	23660,405
514,2	23434,719
514,7	23211,976
515,1	22977,633
515,6	22763,376
516	22549,633
516,5	22343,862
516,9	22115,833
517,4	21887,805
517,8	21673,719
518,3	21457,49
518,7	21236,519
519,2	21016,948
519,6	20782,948
520,1	20573,633
520,5	20363,862
521	20126,262
521,4	19909,176
521,9	19679,548
522,3	19447,662
522,8	19242,49
523,2	19030,519
523,7	18828,033
524,1	18626,062
524,6	18418,319
525	18219,89
525,5	18022,919
525,9	17825,176
526,4	17611,519
526,8	17406,148
527,3	17216,462
527,7	17025,348
528,2	16825,919
528,6	16644,548
529,1	16449,319
529,5	16277,976
530	16092,605
530,4	15912,49
530,9	15741,29
531,3	15576,176
531,8	15402,262
532,2	15226,262
532,6	15053,233
533,1	14873,376
533,5	14709,09
534	14536,662
534,4	14368,548
534,9	14204,033
535,3	14050,233
535,8	13895,833
536,2	13746,348
536,7	13588,462
537,1	13431,719
537,6	13275,433
538	13128,262
538,5	12986,29
538,9	12826,976
539,4	12686,176
539,8	12546,748
540,3	12411,433
540,7	12273,833
541,2	12137,976
541,6	12003,005
542,1	11873,462
542,5	11748,062
543	11622,09
543,4	11497,433
543,9	11376,119
544,3	11252,89
544,8	11124,462
545,2	11007,462
545,7	10889,433
546,1	10767,519
546,5	10652,348
547	10536,405
547,4	10418,662
547,9	10312,205
548,3	10207,376
548,8	10102,462
549,2	9991,548
549,7	9884,633
550,1	9784,576
550,6	9693,319
551	9582,462
551,5	9477,548
551,9	9369,29
552,4	9275,205
552,8	9179,462
553,3	9087,033
553,7	8993,69
554,2	8912,005
554,6	8817,062
555,1	8729,548
555,5	8645,319
555,9	8568,005
556,4	8475,862
556,8	8388,176
557,3	8296,633
557,7	8225,69
558,2	8147,005
558,6	8069,176
559,1	7991,005
559,5	7920,005
560	7833,89
560,4	7760,919
560,9	7688,605
561,3	7609,548
561,8	7539,919
562,2	7460,033
562,7	7382,605
563,1	7321,233
563,6	7249,633
564	7183,148
564,4	7122,119
564,9	7046,89
565,3	6980,519
565,8	6912,633
566,2	6846,776
566,7	6794,89
567,1	6728,033
567,6	6659,405
568	6598,862
568,5	6540,633
568,9	6480,519
569,4	6418,148
569,8	6350,833
570,3	6289,576
570,7	6233,033
571,1	6182,033
571,6	6119,005
572	6072,005
572,5	6018,748
572,9	5971,462
573,4	5921,776
573,8	5872,748
574,3	5820,805
574,7	5774,462
575,2	5724,119
575,6	5674,976
576,1	5619,748
576,5	5567,09
576,9	5518,319
577,4	5474,548
577,8	5434,805
578,3	5387,576
578,7	5336,633
579,2	5292,805
579,6	5244,833
580,1	5197,005
580,5	5145,376
581	5098,719
581,4	5052,376
581,9	5017,862
582,3	4979,033
582,7	4939,062
583,2	4897,805
583,6	4856,633
584,1	4817,862
584,5	4777,719
585	4732,605
585,4	4686,405
585,9	4645,862
586,3	4610,662
586,8	4568,462
587,2	4526,005
587,6	4484,09
588,1	4449,948
588,5	4411,119
589	4377,719
589,4	4333,519
589,9	4300,519
590,3	4260,062
590,8	4230,119
591,2	4191,433
591,7	4161,376
592,1	4126,462
592,5	4103,262
593	4080,576
593,4	4051,319
593,9	4018,89
594,3	3993,776
594,8	3964,376
595,2	3939,49
595,7	3902,49
596,1	3867,976
596,6	3841,605
597	3820,29
597,4	3788,433
597,9	3766,062
598,3	3735,176
598,8	3713,119
599,2	3682,805
599,7	3663,29
600,1	3632,605
600,6	3609,633
601	3581,719
601,4	3561,148
601,9	3537,833
602,3	3523,948
602,8	3493,89
603,2	3470,919
603,7	3447,89
604,1	3427,09
604,6	3405,176
605	3384,805
605,4	3348,805
605,9	3328,919
606,3	3300,548
606,8	3276,319
607,2	3249,948
607,7	3224,919
608,1	3196,176
608,6	3174,262
609	3151,29
609,4	3131,205
609,9	3114,948
610,3	3092,719
610,8	3075,662
611,2	3057,119
611,7	3039,005
612,1	3018,005
612,6	3002,49
613	2974,576
613,4	2953,776
613,9	2928,719
614,3	2908,062
614,8	2888,69
615,2	2864,719
615,7	2840,633
616,1	2820,833
616,6	2802,405
617	2782,348
617,4	2761,805
617,9	2738,033
618,3	2721,833
618,8	2705,69
619,2	2683,576
619,7	2658,433
620,1	2641,062
620,5	2622,319
621	2608,576
621,4	2591,376
621,9	2568,005
622,3	2552,205
622,8	2539,576
623,2	2518,519
623,6	2505,319
624,1	2487,062
624,5	2469,205
625	2451,033
625,4	2435,519
625,9	2420,005
626,3	2403,576
626,8	2384,319
627,2	2360,605
627,6	2336,348
628,1	2320,462
628,5	2302,119
629	2282,119
629,4	2264,062
629,9	2246,519
630,3	2232,29
630,7	2221,519
631,2	2206,862
631,6	2187,49
632,1	2172,119
632,5	2159,633
633	2145,405
633,4	2131,662
633,8	2117,662
634,3	2098,062
634,7	2084,062
635,2	2072,805
635,6	2055,833
636,1	2036,462
636,5	2020,776
636,9	2000,519
637,4	1991,148
637,8	1979,519
638,3	1960,176
638,7	1942,49
639,2	1931,662
639,6	1921,633
640	1910,662
640,5	1897,49
640,9	1886,976
641,4	1878,176
641,8	1866,376
642,2	1853,348
642,7	1838,49
643,1	1830,033
643,6	1820,748
644	1807,919
644,5	1800,233
644,9	1788,519
645,3	1773,89
645,8	1760,948
646,2	1743,433
646,7	1722,376
647,1	1709,49
647,6	1686,919
648	1676,09
648,4	1669,805
648,9	1655,548
649,3	1644,033
649,8	1640,748
650,2	1631,662
650,6	1623,919
651,1	1613,948
651,5	1602,462
652	1598,005
652,4	1588,033
652,9	1575,348
653,3	1558,719
653,7	1546,89
654,2	1536,862
654,6	1523,433
655,1	1511,005
655,5	1500,205
655,9	1491,205
656,4	1485,605
656,8	1478,69
657,3	1472,976
657,7	1462,833
658,2	1452,919
658,6	1444,833
659	1430,148
659,5	1419,719
659,9	1414,148
660,4	1402,805
660,8	1391,49
661,2	1377,748
661,7	1369,662
662,1	1362,633
662,6	1355,462
663	1341,29
663,4	1328,748
663,9	1320,49
664,3	1306,462
664,8	1295,29
665,2	1285,29
665,6	1274,405
666,1	1259,348
666,5	1246,319
667	1236,033
667,4	1238,176
667,9	1226,062
668,3	1217,176
668,7	1206,748
669,2	1198,033
669,6	1191,176
670,1	1182,976
670,5	1171,89
670,9	1165,433
671,4	1155,548
671,8	1146,776
672,3	1143,033
672,7	1137,662
673,1	1129,433
673,6	1122,005
674	1113,376
674,5	1108,919
674,9	1098,148
675,3	1090,548
675,8	1080,776
676,2	1070,233
676,7	1061,833
677,1	1056,348
677,5	1047,719
678	1041,176
678,4	1032,748
678,9	1026,033
679,3	1023,29
679,7	1012,833
680,2	1001,062
680,6	988,519
681,1	980,49
681,5	977,09
681,9	970,89
682,4	964,062
682,8	960,119
683,3	957,49
683,7	956,29
684,1	947,69
684,6	940,119
685	931,719
685,5	917,433
685,9	906,49
686,3	901,09
686,8	892,576
687,2	887,405
687,7	878,005
688,1	869,919
688,5	867,462
689	866,148
689,4	857,262
689,9	852,976
690,3	847,462
690,7	841,776
691,2	839,719
691,6	836,433
692	828,748
692,5	822,462
692,9	816,976
693,4	811,948
693,8	806,519
694,2	798,833
694,7	789,376
695,1	786,919
695,6	784,805
696	774,519
696,4	769,405
696,9	761,262
697,3	754,062
697,8	753,776
698,2	744,148
698,6	733,805
699,1	729,805
699,5	722,948
699,9	721,233
700,4	719,033
700,8	707,662
701,3	704,633
701,7	700,805
702,1	697,662
702,6	692,633
703	682,805
703,5	675,433
703,9	677,89
704,3	671,433
704,8	666,633
705,2	660,633
705,6	657,519
706,1	651,548
706,5	648,148
707	644,976
707,4	639,433
707,8	637,262
708,3	632,719
708,7	627,462
709,2	628,776
709,6	629,319
710	618,576
710,5	614,919
710,9	610,662
711,3	607,976
711,8	606,348
712,2	600,119
712,7	591,519
713,1	585,748
713,5	583,376
714	577,348
714,4	567,29
714,8	562,776
715,3	562,29
715,7	557,576
716,2	560,862
716,6	551,833
717	547,29
717,5	546,49
717,9	542,005
718,3	535,548
718,8	534,49
719,2	526,548
719,7	527,462
720,1	524,49
720,5	525,948
721	521,262
721,4	519,005
721,8	511,119
722,3	507,862
722,7	504,576
723,2	501,748
723,6	495,119
724	494,205
724,5	490,376
724,9	487,376
725,3	480,976
725,8	476,519
726,2	470,376
726,7	464,376
727,1	456,005
727,5	450,69
728	444,69
728,4	445,49
728,8	442,49
729,3	441,376
729,7	442,519
730,1	440,119
730,6	438,49
731	438,776
731,5	438,719
731,9	436,176
732,3	432,69
732,8	427,262
733,2	427,776
733,6	427,433
734,1	422,033
734,5	416,462
734,9	409,548
735,4	407,605
735,8	402,262
736,3	394,862
736,7	388,148
737,1	386,833
737,6	383,176
738	386,805
738,4	387,09
738,9	389,348
739,3	391,176
739,7	391,833
740,2	390,29
740,6	388,262
741,1	380,405
741,5	375,719
741,9	373,405
742,4	372,433
742,8	369,919
743,2	366,348
743,7	363,205
744,1	363,005
744,5	362,062
745	355,319
745,4	354,176
745,8	352,29
746,3	351,633
746,7	344,462
747,2	337,205
747,6	332,49
748	336,719
748,5	334,033
748,9	328,233
749,3	328,833
749,8	329,119
750,2	330,29
750,6	327,148
751,1	322,576
751,5	320,462
751,9	320,805
752,4	320,462
752,8	322,633
753,3	323,433
753,7	323,89
754,1	324,919
754,6	317,005
755	316,29
755,4	314,69
755,9	315,09
756,3	313,662
756,7	309,49
757,2	300,262
757,6	298,89
758	293,033
758,5	286,976
758,9	281,49
759,3	280,548
759,8	276,719
760,2	281,376
760,6	286,09
761,1	289,262
761,5	287,176
761,9	284,119
762,4	280,205
762,8	283,005
763,3	280,233
763,7	277,119
764,1	270,148
764,6	272,805
765	270,776
765,4	271,719
765,9	271,348
766,3	268,948
766,7	262,805
767,2	262,748
767,6	256,748
768	255,862
768,5	253,948
768,9	249,462
769,3	248,148
769,8	246,748
770,2	245,805
770,6	243,605
771,1	243,519
771,5	240,576
771,9	239,29
772,4	234,833
772,8	234,605
773,2	235,719
773,7	234,776
774,1	236,605
774,5	235,719
775	234,319
775,4	237,205
775,8	235,69
776,3	230,49
776,7	227,519
777,1	222,462
777,6	219,519
778	220,176
778,4	216,805
778,9	214,205
779,3	214,176
779,7	215,062
780,2	214,205
780,6	216,548
781	213,519
781,5	210,433
781,9	212,548
782,3	213,09
782,8	213,948
783,2	212,09
783,6	207,376
784,1	202,89
784,5	204,462
784,9	201,776
785,4	196,776
785,8	193,233
786,2	188,662
786,7	190,005
787,1	197,719
787,5	192,405
788	189,776
788,4	191,548
788,8	187,805
789,3	191,433
789,7	187,605
790,1	185,833
790,6	183,233
791	183,262
791,4	184,033
791,9	182,319
792,3	181,262
792,7	183,433
793,2	178,29
793,6	181,29
794	181,148
794,5	173,148
794,9	177,205
795,3	174,29
795,8	172,69
796,2	166,29
796,6	164,862
797,1	167,548
797,5	171,662
797,9	171,319
798,4	169,176
798,8	164,948
799,2	169,09
799,7	166,462
800,1	161,69
800,5	158,833
801	157,919
801,4	161,919
801,8	163,548
802,2	164,062
802,7	161,033
803,1	161,348
803,5	164,033
804	159,148
804,4	155,176
804,8	154,576
805,3	151,605
805,7	157,062
806,1	151,119
806,6	145,09
807	145,862
807,4	147,948
807,9	143,89
808,3	144,833
808,7	144,148
809,2	150,176
809,6	150,576
810	149,976
810,4	145,805
810,9	147,662
811,3	147,005
811,7	141,605
812,2	135,719
812,6	136,719
813	138,205
813,5	140,176
813,9	140,805
814,3	137,576
814,8	137,919
815,2	138,548
815,6	137,033
816,1	132,976
816,5	128,205
816,9	126,376
817,3	127,148
817,8	127,805
818,2	125,433
818,6	122,605
819,1	119,89
819,5	121,148
819,9	117,376
820,4	118,376
820,8	112,919
821,2	113,519
821,7	112,976
822,1	114,662
822,5	115,262
822,9	114,09
823,4	109,119
823,8	110,233
824,2	110,033
824,7	109,919
825,1	108,09
825,5	102,862
826	98,119
826,4	100,29
826,8	101,548
827,3	99,833
827,7	98,862
828,1	97,119
828,5	97,776
829	104,205
829,4	98,005
829,8	98,062
830,3	96,976
830,7	97,948
831,1	96,29
831,6	92,89
832	88,919
832,4	94,005
832,8	90,548
833,3	90,033
833,7	81,605
834,1	80,776
834,6	85,433
835	85,433
835,4	80,662
835,8	83,405
836,3	82,976
836,7	90,748
837,1	90,548
837,6	83,633
838	83,405
838,4	84,948
838,9	82,433
839,3	82,433
839,7	78,719
840,1	82,948
840,6	89,948
841	88,376
841,4	84,433
841,9	85,976
842,3	83,633
842,7	79,176
843,1	77,09
843,6	73,319
844	71,29
844,4	72,519
844,9	72,062
845,3	71,405
845,7	73,548
846,2	71,776
846,6	72,205
847	76,748
847,4	78,519
847,9	73,833
848,3	73,062
848,7	70,776
849,2	69,948
849,6	68,862
850	71,376
850,4	69,805
850,9	69,205
851,3	71,49
851,7	75,176
852,2	75,148
852,6	73,948
853	70,719
853,4	72,262
853,9	75,062
854,3	73,176
854,7	75,49
855,2	76,519
855,6	70,405
856	70,89
856,4	63,376
856,9	62,233
857,3	59,462
857,7	58,976
858,2	56,69
858,6	59,662
859	55,49
859,4	58,205
859,9	58,09
860,3	55,462
860,7	52,376
861,1	55,519
861,6	55,29
862	56,49
862,4	57,148
862,9	56,833
863,3	61,376
863,7	59,805
864,1	55,605
864,6	58,605
865	54,605
865,4	53,062
865,9	52,605
866,3	54,433
866,7	53,605
867,1	53,348
867,6	52,49
868	53,548
868,4	53,09
868,8	49,405
869,3	47,662
869,7	51,748
870,1	53,69
870,6	50,433
871	58,262
871,4	61,005
871,8	64,719
872,3	62,919
872,7	57,09
873,1	49,205
873,5	49,119
874	43,148
874,4	39,976
874,8	36,09
875,3	34,462
875,7	31,119
876,1	38,548
876,5	40,033
877	38,948
877,4	41,519
877,8	41,262
878,2	43,976
878,7	50,405
879,1	46,519
879,5	46,833
879,9	41,805
880,4	38,433
880,8	41,976
881,2	43,205
881,7	43,833
882,1	42,29
882,5	40,119
882,9	44,205
883,4	46,633
883,8	44,776
884,2	40,49
884,6	36,805
885,1	38,662
885,5	39,405
885,9	40,69
886,3	40,519
886,8	40,748
887,2	35,862
887,6	35,405
888	33,49
888,5	34,376
888,9	29,033
889,3	26,948
889,8	29,29
890,2	33,719
890,6	36,49
891	39,205
891,5	35,433
891,9	38,319
892,3	38,548
892,7	31,005
893,2	33,348
893,6	31,09
894	29,69
894,4	31,748
894,9	30,262
895,3	31,69
895,7	36,548
896,1	34,319
896,6	32,49
897	36,005
897,4	37,548
897,8	38,919
898,3	39,405
898,7	36,033
899,1	39,29
899,5	43,976
900	43,233
900,4	36,576
900,8	30,69
901,2	24,976
901,7	29,433
902,1	25,833
902,5	23,119
902,9	19,605
903,4	24,462
903,8	26,148
904,2	31,233
904,6	27,948
905,1	29,948
905,5	29,319
905,9	28,49
906,3	29,233
906,8	29,605
907,2	26,69
907,6	25,005
908	22,348
908,5	20,919
908,9	19,233
909,3	20,09
909,7	19,805
910,2	18,405
910,6	21,719
911	24,205
911,4	23,148
911,9	27,062
912,3	28,062
912,7	31,062
913,1	28,09
913,6	26,633
914	31,49
914,4	32,719
914,8	31,748
915,3	28,69
915,7	32,49
916,1	35,119
916,5	36,69
916,9	29,348
917,4	29,833
917,8	28,433
918,2	33,805
918,6	25,69
919,1	27,119
919,5	25,719
919,9	25,262
920,3	22,148
920,8	28,405
921,2	22,062
921,6	26,062
922	23,805
922,5	23,519
922,9	27,262
923,3	29,319
923,7	23,176
924,2	24,033
924,6	20,805
925	26,405
925,4	27,89
925,8	27,005
926,3	23,205
926,7	22,719
927,1	24,119
927,5	29,148
928	25,205
928,4	19,405
928,8	17,205
929,2	22,433
929,7	25,376
930,1	22,862
930,5	21,519
930,9	25,519
931,3	31,805
931,8	33,976
932,2	30,719
932,6	27,805
933	22,805
933,5	22,348
933,9	18,605
934,3	14,176
934,7	15,805
935,2	15,776
935,6	16,776
936	17,49
936,4	16,262
936,8	15,148
937,3	19,49
937,7	14,49
938,1	17,948
938,5	16,09
939	19,205
939,4	20,262
939,8	18,49
940,2	17,005
940,6	16,433
941,1	13,605
941,5	15,433
941,9	14,233
942,3	13,69
942,8	16,433
943,2	9,033
943,6	12,89
944	15,405
944,4	13,548
944,9	13,948
945,3	13,719
945,7	15,062
946,1	15,433
946,6	13,062
947	13,805
947,4	12,748
947,8	19,062
948,2	19,719
948,7	17,462
949,1	24,49
949,5	22,348
949,9	17,719
950,3	18,033
950,8	12,69
951,2	13,348
951,6	17,005
952	14,662
952,5	12,948
952,9	12,833
953,3	10,462
953,7	9,49
954,1	9,348
954,6	10,348
955	16,205
955,4	17,948
955,8	22,548
956,2	26,862
956,7	28,005
957,1	26,805
957,5	22,462
957,9	14,605
958,3	18,205
958,8	20,976
959,2	23,405
959,6	30,29
960	26,833
960,5	28,348
960,9	33,776
961,3	31,49
961,7	27,776
962,1	23,176
962,6	18,062
963	25,919
963,4	25,433
963,8	22,062
964,2	21,548
964,7	22,262
965,1	22,205
965,5	21,29
965,9	16,919
966,3	16,719
966,8	14,29
967,2	18,033
967,6	15,776
968	15,348
968,4	18,233
968,9	17,148
969,3	16,976
969,7	16,376
970,1	13,69
970,5	12,662
971	19,976
971,4	18,976
971,8	22,29
972,2	19,633
972,6	21,09
973,1	21,748
973,5	20,605
973,9	14,662
974,3	12,262
974,7	9,49
975,2	14,433
975,6	15,005
976	14,29
976,4	12,348
976,8	14,233
977,3	14,548
977,7	14,633
978,1	8,633
978,5	12,176
978,9	15,719
979,4	18,233
979,8	17,148
980,2	18,862
980,6	21,662
981	22,09
981,5	19,719
981,9	13,976
982,3	14,348
982,7	15,462
983,1	12,89
983,6	6,89
984	13,148
984,4	12,576
984,8	12,005
985,2	14,805
985,6	12,662
986,1	9,576
986,5	14,948
986,9	9,519
987,3	6,233
987,7	8,605
988,2	8,205
988,6	5,319
989	11,119
989,4	6,176
989,8	8,69
990,3	12,462
990,7	10,69
991,1	11,519
991,5	16,69
991,9	13,062
992,3	12,662
992,8	7,719
993,2	8,376
993,6	8,576
994	10,519
994,4	12,348
994,9	13,29
995,3	19,405
995,7	27,662
996,1	26,49
996,5	24,805
996,9	23,548
997,4	17,89
997,8	16,376
998,2	15,462
998,6	11,29
999	7,748
999,5	12,119
999,9	10,576
1000,3	11,89
1000,7	15,348
1001,1	10,319
1001,5	10,176
1002	14,776
1002,4	10,948
1002,8	12,433
1003,2	11,119
1003,6	10,89
1004	15,262
1004,5	14,29
1004,9	13,805
1005,3	13,862
1005,7	15,576
1006,1	13,433
1006,6	11,462
1007	4,833
1007,4	3,262
1007,8	3,005
1008,2	6,49
1008,6	2,805
1009,1	5,262
1009,5	6,348
1009,9	10,005
1010,3	15,719
1010,7	15,348
1011,1	14,548
1011,6	12,376
1012	14,548
1012,4	11,348
1012,8	9,005
1013,2	2,548
1013,6	3,862
1014,1	-0,767
1014,5	1,205
1014,9	1,776
1015,3	4,862
1015,7	9,005
1016,1	12,09
1016,6	13,233
1017	15,548
1017,4	12,69
1017,8	15,262
1018,2	15,148
1018,6	15,348
1019,1	18,205
1019,5	13,89
1019,9	15,862
1020,3	19,776
1020,7	19,09
1021,1	11,919
1021,6	12,29
1022	9,605
1022,4	10,405
1022,8	7,805
1023,2	3,662
1023,6	1,262
1024,1	11,49
1024,5	13,176
1024,9	14,148
1025,3	18,919
1025,7	19,49
1026,1	19,69
1026,6	23,119
1027	16,519
1027,4	16,119
1027,8	12,69
1028,2	12,062
1028,6	11,862
1029	11,862
1029,5	7,862
1029,9	11,948
1030,3	5,719
1030,7	11,433
1031,1	14,748
1031,5	17,662
1032	21,576
1032,4	26,833
1032,8	23,519
1033,2	23,633
1033,6	18,605
1034	9,433
1034,4	10,348
1034,9	13,062
1035,3	10,348
1035,7	10,348
1036,1	19,005
1036,5	18,348
1036,9	19,633
1037,4	18,576
1037,8	12,09
1038,2	13,776
1038,6	18,233
1039	14,119
1039,4	20,605
1039,8	30,119
1040,3	28,833
1040,7	32,862
1041,1	25,49
1041,5	27,319
1041,9	27,862
1042,3	24,319
1042,7	14,062
1043,2	16,49
1043,6	17,833
1044	24,262
1044,4	21,833
1044,8	19,633
1045,2	16,805
1045,6	22,662
1046,1	23,576
1046,5	15,805
1046,9	19,633
1047,3	17,919
1047,7	20,605
1048,1	20,805
1048,5	20,405
1049	17,033
1049,4	17,862
1049,8	11,062
1050,2	12,833
1050,6	11,376
1051	19,09
1051,4	14,776
1051,9	17,176
1052,3	22,319
1052,7	24,433
1053,1	19,233
1053,5	18,033
1053,9	10,948
1054,3	9,519
1054,8	8,833
1055,2	7,862
1055,6	2,69
1056	5,205
1056,4	4,833
1056,8	7,605
1057,2	9,09
1057,6	9,49
1058,1	13,405
1058,5	15,09
1058,9	16,176
1059,3	20,433
1059,7	20,262
1060,1	21,433
1060,5	20,776
1061	13,49
1061,4	18,348
1061,8	16,433
1062,2	11,405
1062,6	8,805
1063	8,89
1063,4	8,776
1063,8	13,576
1064,3	13,833
1064,7	18,005
1065,1	23,805
1065,5	25,976
1065,9	27,948
1066,3	26,69
1066,7	28,976
1067,1	24,748
1067,6	25,919
1068	25,633
1068,4	28,205
1068,8	27,976
1069,2	32,519
1069,6	28,519
1070	31,548
1070,4	25,948
1070,9	24,376
1071,3	20,29
1071,7	20,89
1072,1	17,176
1072,5	17,033
1072,9	13,776
1073,3	14,233
1073,7	11,805
1074,2	15,833
1074,6	10,948
1075	13,176
1075,4	18,09
1075,8	15,29
1076,2	17,976
1076,6	18,519
1077	19,262
1077,5	24,69
1077,9	20,919
1078,3	17,433
1078,7	20,49
1079,1	23,205
1079,5	26,005
1079,9	24,29
1080,3	20,89
1080,7	27,719
1081,2	25,405
1081,6	24,376
1082	24,519
1082,4	22,405
1082,8	21,748
1083,2	19,205
1083,6	10,69
1084	10,805
1084,5	16,519
1084,9	8,833
1085,3	10,319
1085,7	9,862
1086,1	16,09
1086,5	13,805
1086,9	17,233
1087,3	14,09
1087,7	21,29
1088,2	20,348
1088,6	16,233
1089	15,433
1089,4	24,462
1089,8	18,005
1090,2	18,148
1090,6	13,862
1091	10,89
1091,4	13,548
1091,9	10,662
1092,3	10,805
1092,7	15,719
1093,1	10,748
1093,5	10,49
1093,9	9,233
1094,3	10,548
1094,7	9,433
1095,1	10,719
1095,5	11,205
1096	19,005
1096,4	20,976
1096,8	23,776
1097,2	23,548
1097,6	28,719
1098	20,919
1098,4	22,89
1098,8	19,119
1099,2	15,805
1099,6	15,719
1100,1	15,633
1100,5	12,833
1100,9	12,805
1101,3	10,862
1101,7	6,29
1102,1	10,319
1102,5	6,262
1102,9	1,09
1103,3	-0,167
1103,7	3,205
1104,2	0,548
1104,6	6,462
1105	5,662
1105,4	9,919
1105,8	13,633
1106,2	12,148
1106,6	9,576
1107	8,719
1107,4	5,833
1107,8	3,353
1108,3	1,033
