Data from Subt2_00044.txt Node
Date: Mon Aug 28 13:18:41 MSK 2023
User: vat
Spectrometer: MAYP114033
Trigger mode: 0
Integration Time (sec): 1,000000E0
Scans to average: 5
Electric dark correction enabled: true
Nonlinearity correction enabled: false
Boxcar width: 3
XAxis mode: Wavelengths
Number of Pixels in Spectrum: 2068
>>>>>Begin Spectral Data<<<<<
199,4	-1,233
199,9	1,547
200,4	1
200,8	2,981
201,3	4,41
201,8	4,695
202,2	6,581
202,7	9,724
203,2	11,181
203,6	12,752
204,1	15,067
204,6	18,667
205	19,638
205,5	23,01
206	20,467
206,4	20,438
206,9	23,867
207,4	21,838
207,8	20,238
208,3	23,295
208,8	24,095
209,2	31,581
209,7	28,581
210,2	21,067
210,6	21,552
211,1	18,524
211,5	21,695
212	20,924
212,5	17,238
212,9	21,152
213,4	28,41
213,9	27,267
214,3	26,752
214,8	22,124
215,3	16,781
215,7	17,267
216,2	16,695
216,7	16,61
217,1	21,095
217,6	23,038
218,1	19,495
218,5	23,667
219	24,267
219,5	25,067
219,9	23,552
220,4	18,695
220,9	20,752
221,3	26,524
221,8	27,41
222,3	30,495
222,7	31,41
223,2	32,81
223,6	38,495
224,1	41,781
224,6	40,467
225	42,124
225,5	35,838
226	34,952
226,4	34,838
226,9	30,81
227,4	26,981
227,8	27,895
228,3	22,41
228,8	26,038
229,2	27,124
229,7	25,638
230,2	22,467
230,6	20,724
231,1	20,581
231,5	24,095
232	25,438
232,5	28,438
232,9	27,81
233,4	32,724
233,9	38,467
234,3	36,724
234,8	33,752
235,3	25,438
235,7	19,924
236,2	17,838
236,7	12,838
237,1	16,295
237,6	17,981
238,1	19,752
238,5	28,695
239	27,981
239,4	33,867
239,9	38,981
240,4	32,838
240,8	34,181
241,3	40,295
241,8	35,81
242,2	37,467
242,7	37,552
243,2	35,952
243,6	44,01
244,1	40,067
244,6	38,952
245	39,124
245,5	43,495
245,9	35,124
246,4	39,667
246,9	32,895
247,3	33,152
247,8	27,752
248,3	31,295
248,7	28,781
249,2	35,724
249,7	32,41
250,1	27,752
250,6	29,952
251	27,895
251,5	26,61
252	20,724
252,4	17,981
252,9	16,552
253,4	21,495
253,8	19,981
254,3	22,038
254,8	20,41
255,2	22,467
255,7	27,067
256,1	27,981
256,6	26,695
257,1	28,352
257,5	28,524
258	26,295
258,5	27,867
258,9	25,381
259,4	22,81
259,9	20,952
260,3	19,895
260,8	20,352
261,2	25,352
261,7	25,095
262,2	27,238
262,6	29,61
263,1	30,695
263,6	31,267
264	31,21
264,5	26,667
264,9	27,038
265,4	21,152
265,9	20,752
266,3	23,124
266,8	18,152
267,3	20,01
267,7	20,038
268,2	17,467
268,7	19,295
269,1	16,267
269,6	16,895
270	20,067
270,5	19,781
271	25,552
271,4	27,267
271,9	31,81
272,4	35,467
272,8	36,61
273,3	40,152
273,7	35,781
274,2	32,981
274,7	27,21
275,1	29,438
275,6	30,81
276,1	26,267
276,5	24,152
277	25,695
277,4	25,924
277,9	29,352
278,4	23,667
278,8	22,981
279,3	23,924
279,8	19,295
280,2	15,867
280,7	11,924
281,1	19,01
281,6	21,267
282,1	18,152
282,5	15,295
283	18,41
283,4	24,924
283,9	28,324
284,4	26,952
284,8	23,01
285,3	26,295
285,8	33,352
286,2	30,381
286,7	28,667
287,1	26,61
287,6	24,81
288,1	29,924
288,5	28,295
289	28,095
289,5	31,724
289,9	33,952
290,4	38,067
290,8	37,267
291,3	36,381
291,8	39,238
292,2	30,581
292,7	28,81
293,1	27,467
293,6	21,781
294,1	25,238
294,5	26,267
295	24,524
295,5	27,067
295,9	32,181
296,4	32,981
296,8	38,41
297,3	32,952
297,8	26,724
298,2	24,238
298,7	25,981
299,1	25,495
299,6	20,495
300,1	17,095
300,5	19,724
301	24,552
301,5	24,038
301,9	22,295
302,4	16,895
302,8	20,524
303,3	18,381
303,8	18,867
304,2	12,324
304,7	13,095
305,1	17,124
305,6	23,41
306,1	24,667
306,5	30,152
307	27,295
307,4	30,552
307,9	31,924
308,4	30,838
308,8	26,638
309,3	27,038
309,8	25,295
310,2	26,981
310,7	31,952
311,1	31,095
311,6	28,81
312,1	26,867
312,5	22,724
313	22,924
313,4	26,352
313,9	22,181
314,4	24,21
314,8	24,495
315,3	32,267
315,7	35,438
316,2	34,981
316,7	28,724
317,1	32,638
317,6	33,124
318	34,352
318,5	30,41
319	30,695
319,4	31,495
319,9	31,038
320,3	27,981
320,8	26,752
321,3	25,667
321,7	21,895
322,2	20,895
322,6	14,981
323,1	18,781
323,6	16,81
324	17,524
324,5	17,324
324,9	23,181
325,4	25,867
325,9	31,695
326,3	29,21
326,8	31,724
327,2	29,667
327,7	27,467
328,2	25,01
328,6	24,952
329,1	22,895
329,5	22,981
330	24,095
330,5	25,124
330,9	24,981
331,4	28,21
331,8	30,581
332,3	34,238
332,8	36,495
333,2	39,324
333,7	38,152
334,1	45,381
334,6	44,61
335,1	40,752
335,5	37,467
336	37,352
336,4	37,01
336,9	35,695
337,4	29,81
337,8	27,381
338,3	28,695
338,7	29,381
339,2	29,638
339,7	25,552
340,1	23,552
340,6	23,667
341	22,067
341,5	20,838
342	25,438
342,4	28,467
342,9	28,352
343,3	31,41
343,8	29,924
344,2	31,695
344,7	34,067
345,2	28,381
345,6	25,724
346,1	26,695
346,5	26,81
347	30,152
347,5	28,124
347,9	24,752
348,4	26,895
348,8	25,61
349,3	27,267
349,8	32,438
350,2	32,01
350,7	35,124
351,1	37,952
351,6	42,152
352	48,124
352,5	52,981
353	54,581
353,4	62,752
353,9	66,467
354,3	70,867
354,8	77,667
355,3	82,095
355,7	86,667
356,2	99,095
356,6	113,952
357,1	134,181
357,5	154,267
358	172,752
358,5	198,467
358,9	229,981
359,4	261,524
359,8	298,381
360,3	339,61
360,8	386,01
361,2	441,524
361,7	501,067
362,1	563,21
362,6	628,152
363	696,095
363,5	773,552
364	853,552
364,4	934,352
364,9	1017,324
365,3	1098,581
365,8	1180,41
366,3	1256,781
366,7	1321,21
367,2	1385,267
367,6	1435,838
368,1	1479,838
368,5	1505,867
369	1519,267
369,5	1517,552
369,9	1504,552
370,4	1479,924
370,8	1446,352
371,3	1395,838
371,7	1347,724
372,2	1295,181
372,7	1235,724
373,1	1177,038
373,6	1105,238
374	1036,238
374,5	970,724
374,9	906,61
375,4	838,152
375,9	777,352
376,3	718,81
376,8	670,467
377,2	620,838
377,7	576,638
378,2	530,695
378,6	492,667
379,1	451,781
379,5	411,581
380	374,952
380,4	349,067
380,9	320,781
381,4	297,867
381,8	280,095
382,3	262,981
382,7	250,324
383,2	236,867
383,6	217,552
384,1	205,552
384,6	197,495
385	185,124
385,5	174,41
385,9	163,381
386,4	154,552
386,8	147,581
387,3	135,81
387,7	122,495
388,2	113,352
388,7	108,152
389,1	99,552
389,6	96,724
390	95,067
390,5	92,867
390,9	92,838
391,4	89,752
391,9	90,238
392,3	93,152
392,8	88,952
393,2	84,238
393,7	79,724
394,1	73,61
394,6	68,552
395,1	66,038
395,5	64,181
396	61,895
396,4	62,21
396,9	65,124
397,3	68,724
397,8	68,61
398,2	68,095
398,7	65,781
399,2	66,638
399,6	66,552
400,1	64,752
400,5	66,21
401	72,867
401,4	73,324
401,9	72,81
402,4	75,038
402,8	76,238
403,3	80,324
403,7	79,067
404,2	82,638
404,6	82,438
405,1	89,41
405,5	89,952
406	86,124
406,5	84,695
406,9	85,638
407,4	83,924
407,8	90,21
408,3	93,267
408,7	97,124
409,2	106,038
409,6	114,324
410,1	118,781
410,6	126,724
411	135,01
411,5	142,61
411,9	153,21
412,4	165,238
412,8	171,381
413,3	184,924
413,7	195,295
414,2	200,152
414,7	206,752
415,1	213,981
415,6	224,352
416	243,038
416,5	257,781
416,9	278,01
417,4	297,924
417,8	314,181
418,3	332,638
418,8	351,552
419,2	366,095
419,7	389,438
420,1	402,724
420,6	419,152
421	449,924
421,5	480,638
421,9	502,638
422,4	532,038
422,8	554,067
423,3	582,867
423,8	616,01
424,2	645,695
424,7	672,781
425,1	707,838
425,6	742,895
426	779,01
426,5	819,21
426,9	862,067
427,4	901,752
427,9	946,81
428,3	997,867
428,8	1048,324
429,2	1104,01
429,7	1159,324
430,1	1218,352
430,6	1277,152
431	1350,638
431,5	1415,838
431,9	1488,724
432,4	1563,381
432,8	1647,581
433,3	1731,181
433,8	1829,524
434,2	1913,981
434,7	2013,01
435,1	2114,867
435,6	2216,838
436	2323,924
436,5	2434,61
436,9	2548,924
437,4	2673,781
437,8	2801,724
438,3	2931,924
438,8	3072,724
439,2	3219,267
439,7	3371,152
440,1	3517,352
440,6	3676,324
441	3835,267
441,5	4005,181
441,9	4182,181
442,4	4356,81
442,8	4547,41
443,3	4751,295
443,7	4948,638
444,2	5155,867
444,7	5378,352
445,1	5592,638
445,6	5822,21
446	6055,038
446,5	6290,152
446,9	6537,438
447,4	6791,238
447,8	7040,181
448,3	7305,181
448,7	7559,781
449,2	7826,61
449,6	8096,952
450,1	8378,524
450,6	8675,781
451	8960,152
451,5	9260,181
451,9	9582,981
452,4	9891,324
452,8	10214,067
453,3	10523,067
453,7	10844,61
454,2	11184,924
454,6	11526,581
455,1	11862,581
455,5	12206,41
456	12560,324
456,4	12926,667
456,9	13276,21
457,3	13637,467
457,8	13995,438
458,3	14374,095
458,7	14752,352
459,2	15127,01
459,6	15502,981
460,1	15896,238
460,5	16277,524
461	16660,752
461,4	17042,924
461,9	17432,438
462,3	17817,324
462,8	18208,352
463,2	18591,495
463,7	18980,752
464,1	19368,581
464,6	19743,581
465	20123,238
465,5	20504,41
466	20885,867
466,4	21253,867
466,9	21627,41
467,3	22009,952
467,8	22400,267
468,2	22776,724
468,7	23148,181
469,1	23501,667
469,6	23876,952
470	24247,267
470,5	24593,267
470,9	24930,352
471,4	25266,124
471,8	25592,695
472,3	25924,095
472,7	26247,238
473,2	26566,838
473,6	26889,467
474,1	27193,952
474,5	27499,81
475	27802,581
475,4	28099,838
475,9	28385,781
476,4	28645,981
476,8	28916,895
477,3	29180,238
477,7	29442,067
478,2	29684,095
478,6	29930,467
479,1	30145,267
479,5	30363,581
480	30544,324
480,4	30743,752
480,9	30924,667
481,3	31106,124
481,8	31280,667
482,2	31443,467
482,7	31600,524
483,1	31764,095
483,6	31894,638
484	32016,495
484,5	32114,067
484,9	32213,581
485,4	32312,181
485,8	32381,981
486,3	32457,21
486,7	32516,267
487,2	32561,124
487,6	32622,752
488,1	32644,438
488,5	32672,61
489	32711,838
489,4	32704,438
489,9	32712,495
490,4	32730,267
490,8	32724,581
491,3	32707,038
491,7	32667,524
492,2	32608,438
492,6	32556,038
493,1	32477,067
493,5	32383,295
494	32295,638
494,4	32209,238
494,9	32099,067
495,3	31993,324
495,8	31895,867
496,2	31786,667
496,7	31678,924
497,1	31561,895
497,6	31442,41
498	31328,724
498,5	31203,324
498,9	31076,238
499,4	30950,781
499,8	30810,667
500,3	30665,952
500,7	30501,038
501,2	30346,467
501,6	30195,124
502,1	30031,181
502,5	29860,124
503	29691,695
503,4	29515,895
503,9	29341,981
504,3	29158,267
504,8	28969,752
505,2	28777,152
505,7	28575,867
506,1	28362,752
506,6	28146,181
507	27944,01
507,5	27740,638
507,9	27530,295
508,4	27308,21
508,8	27101,438
509,3	26889,267
509,7	26678,524
510,2	26449,352
510,6	26227,095
511,1	26013,552
511,5	25798,21
512	25574,924
512,4	25341,41
512,9	25102,238
513,3	24866,524
513,8	24634,895
514,2	24399,524
514,7	24160,467
515,1	23926,867
515,6	23707,01
516	23485,124
516,5	23263,095
516,9	23028,467
517,4	22791,495
517,8	22558,924
518,3	22322,981
518,7	22076,21
519,2	21847,581
519,6	21610,781
520,1	21390,295
520,5	21152,61
521	20908,21
521,4	20672,41
521,9	20462,81
522,3	20237,638
522,8	20026,038
523,2	19786,181
523,7	19576,238
524,1	19380,181
524,6	19166,124
525	18952,667
525,5	18726,324
525,9	18509,667
526,4	18308,552
526,8	18097,638
527,3	17893,01
527,7	17695,61
528,2	17483,952
528,6	17297,695
529,1	17105,924
529,5	16911,41
530	16726,695
530,4	16540,124
530,9	16352,381
531,3	16178,41
531,8	15994,238
532,2	15806,295
532,6	15617,324
533,1	15433,952
533,5	15247,152
534	15073,352
534,4	14893,952
534,9	14713,695
535,3	14549,81
535,8	14397,61
536,2	14233,038
536,7	14075,695
537,1	13900,867
537,6	13739,667
538	13585,781
538,5	13435,524
538,9	13277,295
539,4	13122,01
539,8	12970,552
540,3	12841,81
540,7	12704,867
541,2	12566,924
541,6	12419,695
542,1	12283,952
542,5	12148,61
543	12011,295
543,4	11866,81
543,9	11724,038
544,3	11593,438
544,8	11468,152
545,2	11342,41
545,7	11221,495
546,1	11102,581
546,5	10987,152
547	10877,295
547,4	10754,038
547,9	10641,581
548,3	10526,867
548,8	10405,781
549,2	10289,81
549,7	10185,038
550,1	10064,61
550,6	9967,61
551	9857,152
551,5	9753,781
551,9	9657,524
552,4	9549,152
552,8	9446,581
553,3	9355,552
553,7	9251,981
554,2	9154,21
554,6	9061,295
555,1	8959,495
555,5	8878,552
555,9	8790,267
556,4	8701,61
556,8	8611,952
557,3	8525,467
557,7	8436,41
558,2	8356,238
558,6	8270,467
559,1	8188,695
559,5	8105,781
560	8036,21
560,4	7950,21
560,9	7875,524
561,3	7806,21
561,8	7735,352
562,2	7658,038
562,7	7583,324
563,1	7505,467
563,6	7441,238
564	7364,381
564,4	7294,438
564,9	7220,724
565,3	7149,181
565,8	7092,667
566,2	7017,038
566,7	6956,438
567,1	6903,467
567,6	6838,895
568	6788,667
568,5	6728,924
568,9	6653,238
569,4	6598,038
569,8	6529,61
570,3	6466,467
570,7	6406,038
571,1	6342,038
571,6	6284,667
572	6233,838
572,5	6180,552
572,9	6127,724
573,4	6070,01
573,8	6015,01
574,3	5959,552
574,7	5914,81
575,2	5869,552
575,6	5827,838
576,1	5781,352
576,5	5731,524
576,9	5678,924
577,4	5630,467
577,8	5568,81
578,3	5509,095
578,7	5449,895
579,2	5402,552
579,6	5355,41
580,1	5313,81
580,5	5268,124
581	5230,61
581,4	5190,381
581,9	5146,552
582,3	5100,038
582,7	5054,752
583,2	5006,752
583,6	4967,552
584,1	4922,381
584,5	4882,124
585	4836,524
585,4	4794,21
585,9	4750,667
586,3	4714,61
586,8	4668,81
587,2	4632,667
587,6	4592,752
588,1	4564,752
588,5	4528,61
589	4494,381
589,4	4453,038
589,9	4415,152
590,3	4387,038
590,8	4353,267
591,2	4316,924
591,7	4284,524
592,1	4253,895
592,5	4235,067
593	4213,124
593,4	4167,495
593,9	4131,981
594,3	4101,924
594,8	4069,438
595,2	4041,924
595,7	4006,295
596,1	3969,181
596,6	3947,352
597	3923,438
597,4	3892,695
597,9	3862,81
598,3	3836,41
598,8	3803,581
599,2	3777,238
599,7	3752,752
600,1	3728,724
600,6	3706,381
601	3684,21
601,4	3654,152
601,9	3633,181
602,3	3615,524
602,8	3586,924
603,2	3554,667
603,7	3526,238
604,1	3502,581
604,6	3483,095
605	3457,324
605,4	3426,724
605,9	3402,067
606,3	3385,952
606,8	3363,895
607,2	3342,152
607,7	3316,895
608,1	3293,438
608,6	3267,61
609	3247,838
609,4	3224,181
609,9	3200,552
610,3	3177,467
610,8	3154,41
611,2	3134,095
611,7	3115,81
612,1	3090,638
612,6	3066,724
613	3041,781
613,4	3016,952
613,9	2996,952
614,3	2975,61
614,8	2952,581
615,2	2932,61
615,7	2907,952
616,1	2891,867
616,6	2875,152
617	2851,324
617,4	2832,067
617,9	2806,124
618,3	2787,467
618,8	2772,667
619,2	2747,895
619,7	2723,781
620,1	2708,867
620,5	2684,952
621	2671,61
621,4	2653,81
621,9	2634,295
622,3	2622,61
622,8	2610,41
623,2	2588,438
623,6	2574,781
624,1	2561,41
624,5	2542,352
625	2522,181
625,4	2504,552
625,9	2482,295
626,3	2460,838
626,8	2445,038
627,2	2418,295
627,6	2399,41
628,1	2390,381
628,5	2367,981
629	2351,124
629,4	2335,267
629,9	2313,724
630,3	2301,124
630,7	2285,124
631,2	2260,381
631,6	2246,238
632,1	2230,695
632,5	2222,295
633	2210,695
633,4	2193,467
633,8	2175,267
634,3	2156,781
634,7	2136,324
635,2	2122,61
635,6	2099,952
636,1	2073,81
636,5	2061,41
636,9	2045,61
637,4	2037,667
637,8	2028,181
638,3	2014,438
638,7	1994,695
639,2	1983,781
639,6	1969,067
640	1959,095
640,5	1943,238
640,9	1926,895
641,4	1913,152
641,8	1909,238
642,2	1899,924
642,7	1885,152
643,1	1873,067
643,6	1861,838
644	1856,952
644,5	1843,038
644,9	1829,41
645,3	1815,181
645,8	1801,952
646,2	1786,581
646,7	1768,21
647,1	1750,438
647,6	1739,181
648	1728,638
648,4	1719,981
648,9	1708,781
649,3	1701,267
649,8	1693,695
650,2	1683,124
650,6	1671,981
651,1	1656,41
651,5	1644,181
652	1638,724
652,4	1624,038
652,9	1612,667
653,3	1599,752
653,7	1585,467
654,2	1573,01
654,6	1559,181
655,1	1545,181
655,5	1535,867
655,9	1523,895
656,4	1512,895
656,8	1504,495
657,3	1498,638
657,7	1493,724
658,2	1482,81
658,6	1471,81
659	1463,467
659,5	1455,152
659,9	1445,495
660,4	1438,238
660,8	1426,838
661,2	1413,41
661,7	1399,638
662,1	1391,41
662,6	1382,781
663	1369,81
663,4	1363,524
663,9	1352,124
664,3	1340,895
664,8	1333,181
665,2	1322,667
665,6	1311,952
666,1	1301,752
666,5	1285,752
667	1274,952
667,4	1275,467
667,9	1268,838
668,3	1260,152
668,7	1247,267
669,2	1236,524
669,6	1223,467
670,1	1214,381
670,5	1200,924
670,9	1189,552
671,4	1176,61
671,8	1170,381
672,3	1165,238
672,7	1160,524
673,1	1153,352
673,6	1145,695
674	1138,01
674,5	1136,467
674,9	1131,181
675,3	1123,952
675,8	1110,981
676,2	1099,695
676,7	1093,981
677,1	1088,41
677,5	1080,467
678	1071,181
678,4	1063,267
678,9	1058,21
679,3	1053,21
679,7	1039,61
680,2	1032,438
680,6	1020,067
681,1	1014,21
681,5	1008,21
681,9	1004,695
682,4	997,01
682,8	989,41
683,3	980,181
683,7	977,61
684,1	965,124
684,6	956,41
685	944,295
685,5	931,181
685,9	924,952
686,3	923,381
686,8	917,381
687,2	920,638
687,7	911,581
688,1	906,038
688,5	903,781
689	903,267
689,4	888,267
689,9	882,667
690,3	868,781
690,7	866,638
691,2	863,981
691,6	860,267
692	852,952
692,5	849,324
692,9	837,21
693,4	832,152
693,8	826,724
694,2	817,752
694,7	809,152
695,1	805,781
695,6	804,981
696	802,895
696,4	797,81
696,9	790,781
697,3	787,295
697,8	784,21
698,2	778,381
698,6	766,01
699,1	762,238
699,5	755,752
699,9	748,61
700,4	745,267
700,8	742,038
701,3	728,924
701,7	724,638
702,1	718,41
702,6	711,581
703	707,438
703,5	700,581
703,9	697,838
704,3	697,038
704,8	697,21
705,2	688,781
705,6	685,352
706,1	679,095
706,5	677,924
707	675,581
707,4	673,695
707,8	667,61
708,3	665,124
708,7	661,724
709,2	663,41
709,6	654,752
710	642,495
710,5	633,267
710,9	631,295
711,3	625,552
711,8	621,467
712,2	609,952
712,7	606,952
713,1	601,438
713,5	602,067
714	593,552
714,4	591,01
714,8	587,181
715,3	588,124
715,7	579,21
716,2	582,867
716,6	575,067
717	573,924
717,5	564,438
717,9	558,238
718,3	553,181
718,8	551,467
719,2	544,467
719,7	542,267
720,1	537,41
720,5	537,895
721	537,152
721,4	532,581
721,8	529,238
722,3	523,41
722,7	517,724
723,2	510,61
723,6	506,752
724	502,724
724,5	498,81
724,9	491,581
725,3	484,552
725,8	483,038
726,2	480,695
726,7	477,781
727,1	472,781
727,5	468,61
728	467,695
728,4	469,695
728,8	462,41
729,3	460,295
729,7	455,752
730,1	451,552
730,6	449,838
731	443,752
731,5	440,01
731,9	439,867
732,3	439,295
732,8	435,295
733,2	433,695
733,6	430,181
734,1	428,467
734,5	428,81
734,9	419,867
735,4	412,438
735,8	411,41
736,3	403,838
736,7	401,552
737,1	400,552
737,6	393,238
738	401,467
738,4	402,438
738,9	401,61
739,3	407,181
739,7	406,295
740,2	402,21
740,6	401,381
741,1	393,038
741,5	388,438
741,9	386,295
742,4	384,124
742,8	379,781
743,2	377,124
743,7	376,467
744,1	374,095
744,5	373,781
745	372,552
745,4	370,41
745,8	370,81
746,3	372,895
746,7	367,667
747,2	366,352
747,6	364,752
748	361,724
748,5	358,352
748,9	354,952
749,3	351,581
749,8	352,295
750,2	345,981
750,6	342,752
751,1	340,467
751,5	337,695
751,9	333,352
752,4	337,352
752,8	330,781
753,3	333,695
753,7	332,41
754,1	329,552
754,6	321,267
755	322,124
755,4	320,438
755,9	321,61
756,3	322,181
756,7	324,495
757,2	317,352
757,6	317,467
758	311,295
758,5	301,495
758,9	301,781
759,3	296,295
759,8	289,467
760,2	290,952
760,6	298,867
761,1	301,067
761,5	301,352
761,9	297,01
762,4	293,724
762,8	294,667
763,3	295,838
763,7	289,895
764,1	285,581
764,6	283,81
765	281,524
765,4	283,552
765,9	281,067
766,3	277,981
766,7	271,552
767,2	273,924
767,6	276,438
768	273,095
768,5	269,181
768,9	263,867
769,3	260,61
769,8	258,981
770,2	254,781
770,6	247,867
771,1	246,581
771,5	246,867
771,9	244,152
772,4	242,695
772,8	241,467
773,2	240,838
773,7	240,781
774,1	246,495
774,5	248,324
775	251,581
775,4	250,695
775,8	250,295
776,3	250,01
776,7	249,352
777,1	239,295
777,6	232,267
778	225,867
778,4	222,238
778,9	221,124
779,3	216,01
779,7	213,41
780,2	215,124
780,6	218,495
781	221,667
781,5	221,952
781,9	220,238
782,3	219,895
782,8	225,438
783,2	223,867
783,6	218,952
784,1	217,21
784,5	217,61
784,9	220,438
785,4	221,181
785,8	214,467
786,2	211,095
786,7	211,467
787,1	212,038
787,5	209,21
788	203,61
788,4	206,41
788,8	202,095
789,3	198,552
789,7	195,895
790,1	194,724
790,6	193,21
791	192,924
791,4	189,41
791,9	191,295
792,3	194,867
792,7	194,181
793,2	194,81
793,6	194,638
794	196,41
794,5	193,467
794,9	193,067
795,3	192,752
795,8	194,352
796,2	183,752
796,6	183,81
797,1	180,867
797,5	178,067
797,9	180,467
798,4	180,638
798,8	175,581
799,2	176,352
799,7	171,067
800,1	172,095
800,5	174,752
801	168,838
801,4	163,238
801,8	164,295
802,2	165,695
802,7	166,467
803,1	163,324
803,5	160,181
804	155,181
804,4	155,867
804,8	156,01
805,3	154,924
805,7	154,095
806,1	150,438
806,6	152,295
807	156,21
807,4	155,324
807,9	151,381
808,3	150,352
808,7	154,352
809,2	157,667
809,6	154,695
810	150,838
810,4	153,581
810,9	153,695
811,3	154,238
811,7	149,924
812,2	144,638
812,6	143,181
813	146,21
813,5	145,095
813,9	147,867
814,3	147,61
814,8	143,81
815,2	144,524
815,6	145,524
816,1	146,41
816,5	143,238
816,9	138,238
817,3	137,438
817,8	141,895
818,2	140,467
818,6	136,61
819,1	130,638
819,5	128,181
819,9	128,752
820,4	127,21
820,8	123,01
821,2	120,781
821,7	117,924
822,1	120,238
822,5	123,638
822,9	121,81
823,4	122,038
823,8	122,467
824,2	121,667
824,7	124,095
825,1	119,41
825,5	118,467
826	111,752
826,4	107,667
826,8	103,581
827,3	105,695
827,7	105,981
828,1	108,924
828,5	109,924
829	114,752
829,4	110,61
829,8	117,01
830,3	116,295
830,7	112,781
831,1	113,667
831,6	106,41
832	108,638
832,4	115,581
832,8	107,41
833,3	105,124
833,7	101,524
834,1	96,924
834,6	97,038
835	94,81
835,4	90,467
835,8	91,152
836,3	89,838
836,7	91,552
837,1	90,781
837,6	88,095
838	84,581
838,4	84,924
838,9	87,781
839,3	91,524
839,7	94,467
840,1	98,495
840,6	102,381
841	104,152
841,4	104,238
841,9	104,61
842,3	98,352
842,7	94,638
843,1	89,295
843,6	88,781
844	88,552
844,4	90,295
844,9	85,438
845,3	87,752
845,7	87,838
846,2	89,067
846,6	87,638
847	87,952
847,4	86,267
847,9	86,838
848,3	86,41
848,7	83,067
849,2	80,981
849,6	79,638
850	80,295
850,4	75,438
850,9	74,781
851,3	76,924
851,7	78,181
852,2	79,124
852,6	81,552
853	81,781
853,4	85,238
853,9	83,41
854,3	83,467
854,7	85,438
855,2	86,924
855,6	84,924
856	84,238
856,4	80,581
856,9	83,352
857,3	77,01
857,7	77,038
858,2	73,524
858,6	72,467
859	66,838
859,4	64,581
859,9	62,524
860,3	65,038
860,7	63,095
861,1	64,552
861,6	64,524
862	67,552
862,4	67,752
862,9	68,838
863,3	67,81
863,7	66,667
864,1	66,152
864,6	69,81
865	67,21
865,4	71,581
865,9	71,61
866,3	75,267
866,7	71,152
867,1	70,495
867,6	67,724
868	64,895
868,4	62,295
868,8	59,61
869,3	59,667
869,7	67,467
870,1	67,895
870,6	65,81
871	112,438
871,4	115,752
871,8	118,61
872,3	114,095
872,7	107,638
873,1	103,352
873,5	103,838
874	63,61
874,4	60,895
874,8	55,352
875,3	54,181
875,7	52,438
876,1	56,095
876,5	56,095
877	55,695
877,4	55,724
877,8	58,181
878,2	61,867
878,7	64,552
879,1	60,467
879,5	58,01
879,9	52,781
880,4	47,895
880,8	54,067
881,2	50,667
881,7	49,581
882,1	53,752
882,5	53,752
882,9	52,895
883,4	57,067
883,8	51,581
884,2	53,838
884,6	52,895
885,1	49,552
885,5	48,752
885,9	52,81
886,3	52,695
886,8	53,895
887,2	48,41
887,6	49,438
888	51,467
888,5	54,352
888,9	48,552
889,3	44,01
889,8	43,381
890,2	40,61
890,6	41,267
891	39,724
891,5	41,267
891,9	44,695
892,3	49,838
892,7	43,324
893,2	46,895
893,6	45,581
894	47,067
894,4	36,438
894,9	36,01
895,3	32,638
895,7	37,867
896,1	33,21
896,6	31,895
897	34,495
897,4	45,524
897,8	48,952
898,3	50,381
898,7	46,238
899,1	49,81
899,5	53,724
900	47,295
900,4	38,61
900,8	27,181
901,2	23,838
901,7	28,495
902,1	26,838
902,5	27,21
902,9	32,095
903,4	35,667
903,8	41,695
904,2	44,581
904,6	41,752
905,1	46,381
905,5	45,01
905,9	39,581
906,3	36,61
906,8	37,952
907,2	40,438
907,6	44,181
908	43,038
908,5	35,124
908,9	32,581
909,3	35,124
909,7	33,124
910,2	29,381
910,6	26,895
911	26,124
911,4	31,152
911,9	35,352
912,3	36,838
912,7	39,781
913,1	38,981
913,6	39,467
914	42,924
914,4	42,895
914,8	43,495
915,3	38,067
915,7	38,067
916,1	37,981
916,5	34,924
916,9	30,038
917,4	28,581
917,8	26,01
918,2	34,324
918,6	30,124
919,1	30,752
919,5	32,438
919,9	34,61
920,3	38,752
920,8	44,381
921,2	39,695
921,6	41,895
922	36,638
922,5	36,352
922,9	37,238
923,3	36,267
923,7	29,724
924,2	31,724
924,6	31,152
925	35,21
925,4	34,552
925,8	33,181
926,3	31,067
926,7	32,581
927,1	29,524
927,5	31,81
928	31,124
928,4	29,867
928,8	30,981
929,2	33,638
929,7	37,752
930,1	38,21
930,5	35,552
930,9	39,838
931,3	46,695
931,8	47,552
932,2	43,667
932,6	42,752
933	39,181
933,5	40,124
933,9	38,867
934,3	30,495
934,7	31,495
935,2	27,61
935,6	25,095
936	27,638
936,4	25,352
936,8	23,238
937,3	29,467
937,7	24,381
938,1	32,438
938,5	33,61
939	32,952
939,4	33,324
939,8	33,61
940,2	28,01
940,6	28,238
941,1	24,981
941,5	26,095
941,9	27,267
942,3	27,867
942,8	24,867
943,2	24,124
943,6	25,381
944	26,695
944,4	21,467
944,9	21,638
945,3	20,781
945,7	23,41
946,1	23,61
946,6	19,352
947	19,724
947,4	17,781
947,8	23,267
948,2	26,295
948,7	23,838
949,1	25,067
949,5	25,152
949,9	24,467
950,3	26,581
950,8	19,695
951,2	20,181
951,6	23,41
952	24,038
952,5	26,41
952,9	27,124
953,3	26,724
953,7	25,61
954,1	22,467
954,6	22,181
955	24,552
955,4	25,867
955,8	26,324
956,2	23,324
956,7	29,381
957,1	30,038
957,5	31,238
957,9	26,181
958,3	26,895
958,8	25,038
959,2	30,181
959,6	30,352
960	30,352
960,5	28,324
960,9	32,038
961,3	28,838
961,7	31,524
962,1	33,21
962,6	29,695
963	32,495
963,4	37,895
963,8	35,352
964,2	35,124
964,7	32,124
965,1	30,41
965,5	34,638
965,9	29,924
966,3	25,381
966,8	24,924
967,2	29,067
967,6	25,352
968	25,695
968,4	25,152
968,9	25,21
969,3	26,752
969,7	26,638
970,1	25,381
970,5	30,238
971	31,152
971,4	29,81
971,8	30,01
972,2	25,667
972,6	29,41
973,1	26,524
973,5	25,295
973,9	21,981
974,3	21,095
974,7	24,21
975,2	27,695
975,6	23,181
976	25,152
976,4	22,924
976,8	23,638
977,3	19,838
977,7	17,095
978,1	15,752
978,5	18,238
978,9	19,295
979,4	22,495
979,8	20,267
980,2	26,781
980,6	27,324
981	22,667
981,5	22,952
981,9	21,667
982,3	21,952
982,7	23,581
983,1	17,124
983,6	15,267
984	22,152
984,4	18,895
984,8	20,067
985,2	20,667
985,6	20,181
986,1	17,067
986,5	20,695
986,9	14,381
987,3	16,21
987,7	16,61
988,2	10,352
988,6	13,581
989	17,467
989,4	16,21
989,8	21,152
990,3	20,895
990,7	17,895
991,1	20,667
991,5	18,667
991,9	16,238
992,3	14,467
992,8	13,238
993,2	17,124
993,6	18,61
994	20,495
994,4	24,61
994,9	27,781
995,3	29,724
995,7	27,952
996,1	22,695
996,5	20,381
996,9	25,61
997,4	20,952
997,8	20,781
998,2	21,438
998,6	21,552
999	26,438
999,5	30,438
999,9	25,152
1000,3	28,467
1000,7	30,152
1001,1	31,038
1001,5	30,724
1002	27,924
1002,4	27,067
1002,8	27,352
1003,2	24,095
1003,6	22,038
1004	23,152
1004,5	23,295
1004,9	23,867
1005,3	21,438
1005,7	23,781
1006,1	23,41
1006,6	24,038
1007	17,752
1007,4	16,638
1007,8	15,981
1008,2	21,895
1008,6	20,781
1009,1	21,324
1009,5	25,238
1009,9	29,438
1010,3	37,41
1010,7	38,695
1011,1	36,467
1011,6	33,552
1012	32,124
1012,4	27,438
1012,8	27,067
1013,2	22,638
1013,6	22,381
1014,1	18,267
1014,5	20,952
1014,9	25,438
1015,3	25,581
1015,7	23,581
1016,1	24,238
1016,6	23,867
1017	23,067
1017,4	18,124
1017,8	15,81
1018,2	13,552
1018,6	14,267
1019,1	11,581
1019,5	9,81
1019,9	14,752
1020,3	14,095
1020,7	15,724
1021,1	16,352
1021,6	16,295
1022	15,381
1022,4	17,924
1022,8	11,495
1023,2	17,124
1023,6	14,238
1024,1	19,924
1024,5	23,581
1024,9	29,067
1025,3	29,981
1025,7	35,924
1026,1	32,752
1026,6	40,095
1027	36,438
1027,4	32,381
1027,8	30,095
1028,2	29,524
1028,6	29,61
1029	26,838
1029,5	18,838
1029,9	24,61
1030,3	24,152
1030,7	24,467
1031,1	28,038
1031,5	23,781
1032	31,724
1032,4	36,867
1032,8	24,638
1033,2	27,238
1033,6	22,21
1034	16,438
1034,4	18,752
1034,9	17,81
1035,3	13,752
1035,7	16,695
1036,1	21,867
1036,5	24,581
1036,9	22,895
1037,4	27,924
1037,8	22,01
1038,2	27,324
1038,6	26,067
1039	24,724
1039,4	31,695
1039,8	40,724
1040,3	35,181
1040,7	39,867
1041,1	30,895
1041,5	41,238
1041,9	43,638
1042,3	36,552
1042,7	30,124
1043,2	31,952
1043,6	36,467
1044	41,21
1044,4	39,324
1044,8	31,41
1045,2	30,095
1045,6	31,981
1046,1	32,01
1046,5	24,324
1046,9	25,467
1047,3	24,781
1047,7	23,695
1048,1	23,61
1048,5	21,981
1049	18,152
1049,4	16,81
1049,8	18,552
1050,2	17,295
1050,6	19,238
1051	22,924
1051,4	17,352
1051,9	21,41
1052,3	23,667
1052,7	21,981
1053,1	18,124
1053,5	17,438
1053,9	15,467
1054,3	19,038
1054,8	17,981
1055,2	17,095
1055,6	15,324
1056	16,981
1056,4	18,467
1056,8	19,324
1057,2	19,61
1057,6	21,752
1058,1	27,267
1058,5	23,381
1058,9	23,838
1059,3	19,838
1059,7	19,781
1060,1	19,952
1060,5	17,838
1061	13,667
1061,4	15,381
1061,8	20,21
1062,2	22,724
1062,6	23,467
1063	25,038
1063,4	26,152
1063,8	23,381
1064,3	31,981
1064,7	28,838
1065,1	31,495
1065,5	33,952
1065,9	35,952
1066,3	35,124
1066,7	45,381
1067,1	40,867
1067,6	44,81
1068	46,638
1068,4	46,695
1068,8	46,695
1069,2	47,01
1069,6	39,21
1070	37,467
1070,4	32,095
1070,9	31,752
1071,3	28,981
1071,7	26,21
1072,1	26,467
1072,5	30,495
1072,9	31,695
1073,3	32,095
1073,7	23,895
1074,2	25,867
1074,6	26,638
1075	26,838
1075,4	27,524
1075,8	25,752
1076,2	27,895
1076,6	32,01
1077	34,724
1077,5	35,238
1077,9	30,581
1078,3	24,752
1078,7	22,552
1079,1	22,324
1079,5	22,838
1079,9	19,495
1080,3	22,152
1080,7	26,038
1081,2	29,124
1081,6	29,952
1082	30,095
1082,4	31,495
1082,8	33,695
1083,2	26,495
1083,6	25,667
1084	23,181
1084,5	27,981
1084,9	24,038
1085,3	17,952
1085,7	15,181
1086,1	19,81
1086,5	16,781
1086,9	19,067
1087,3	17,724
1087,7	25,01
1088,2	29,181
1088,6	29,01
1089	33,695
1089,4	41,067
1089,8	37,181
1090,2	34,152
1090,6	29,61
1091	27,524
1091,4	26,238
1091,9	19,924
1092,3	14,952
1092,7	16,324
1093,1	14,552
1093,5	15,295
1093,9	17,895
1094,3	17,238
1094,7	16,81
1095,1	19,981
1095,5	24,181
1096	29,867
1096,4	29,467
1096,8	33,324
1097,2	33,152
1097,6	36,724
1098	29,21
1098,4	26,524
1098,8	23,352
1099,2	21,067
1099,6	18,295
1100,1	20,01
1100,5	16,724
1100,9	22,01
1101,3	20,267
1101,7	21,524
1102,1	20,895
1102,5	17,667
1102,9	18,152
1103,3	21,952
1103,7	25,352
1104,2	26,981
1104,6	25,552
1105	24,124
1105,4	24,61
1105,8	20,61
1106,2	14,724
1106,6	7,838
1107	4,381
1107,4	2,933
1107,8	2,827
1108,3	1,067
