Data from Subt2_00096.txt Node
Date: Mon Aug 28 13:36:36 MSK 2023
User: vat
Spectrometer: MAYP114033
Trigger mode: 0
Integration Time (sec): 1,000000E0
Scans to average: 5
Electric dark correction enabled: true
Nonlinearity correction enabled: false
Boxcar width: 3
XAxis mode: Wavelengths
Number of Pixels in Spectrum: 2068
>>>>>Begin Spectral Data<<<<<
199,4	-1,05
199,9	-5,16
200,4	-2,3
200,8	2,686
201,3	4,171
201,8	6,857
202,2	7,343
202,7	7,4
203,2	13,971
203,6	15
204,1	12,114
204,6	15,829
205	16,657
205,5	18,371
206	18,629
206,4	16,629
206,9	19,171
207,4	17,086
207,8	16,2
208,3	14,8
208,8	12
209,2	14
209,7	15,4
210,2	14,086
210,6	13,371
211,1	15,743
211,5	14,943
212	20,029
212,5	17,771
212,9	14,829
213,4	14,343
213,9	15,714
214,3	13,771
214,8	17,086
215,3	14,686
215,7	17,086
216,2	16,086
216,7	17,057
217,1	15,086
217,6	11,771
218,1	6,771
218,5	8,714
219	8,8
219,5	14
219,9	6,171
220,4	16,686
220,9	19,457
221,3	21,171
221,8	17,6
222,3	18,029
222,7	19,257
223,2	20,257
223,6	10,771
224,1	11,6
224,6	14,543
225	16,486
225,5	13
226	7,486
226,4	15,429
226,9	18
227,4	18,657
227,8	19,086
228,3	15,457
228,8	17,429
229,2	22,457
229,7	20,771
230,2	25,571
230,6	21,943
231,1	20,829
231,5	26,857
232	28,229
232,5	23,4
232,9	25,771
233,4	20,914
233,9	21,657
234,3	21,286
234,8	20,371
235,3	23,486
235,7	25
236,2	23,057
236,7	19,886
237,1	19,371
237,6	21,086
238,1	20,086
238,5	14,114
239	13,143
239,4	15,114
239,9	16,086
240,4	15,686
240,8	13,743
241,3	14,943
241,8	16,457
242,2	16,657
242,7	13,686
243,2	19,171
243,6	21,143
244,1	18,571
244,6	12,343
245	12,771
245,5	14,086
245,9	14,829
246,4	6,914
246,9	5,143
247,3	8,971
247,8	13,057
248,3	15,971
248,7	13,229
249,2	11,371
249,7	19,257
250,1	17,543
250,6	14,343
251	13,543
251,5	10,057
252	10,629
252,4	7,114
252,9	8,257
253,4	12,571
253,8	15,657
254,3	15,314
254,8	19,171
255,2	17,286
255,7	20,771
256,1	14,714
256,6	14,371
257,1	11,829
257,5	11,2
258	3,714
258,5	9,571
258,9	8,514
259,4	10,829
259,9	6,429
260,3	8,486
260,8	9,629
261,2	15,514
261,7	15,371
262,2	18,886
262,6	21,143
263,1	23,4
263,6	19,257
264	21,657
264,5	19,714
264,9	19,571
265,4	16,257
265,9	13
266,3	15,829
266,8	15,886
267,3	14,571
267,7	17,771
268,2	13,971
268,7	16,971
269,1	17,486
269,6	15,057
270	13,914
270,5	15,343
271	11,229
271,4	9,543
271,9	3,4
272,4	2,514
272,8	6,029
273,3	10,057
273,7	7,086
274,2	7,457
274,7	8,657
275,1	14,343
275,6	17,8
276,1	14,171
276,5	16
277	19,429
277,4	22,971
277,9	24,543
278,4	22,829
278,8	20,057
279,3	21,629
279,8	18,914
280,2	19,229
280,7	13,857
281,1	13,857
281,6	11,057
282,1	11,8
282,5	10,514
283	14,086
283,4	13,6
283,9	18,171
284,4	19,114
284,8	20,714
285,3	18,343
285,8	16,114
286,2	12,629
286,7	11,514
287,1	8,543
287,6	10,4
288,1	10,429
288,5	14,371
289	11,829
289,5	14,857
289,9	14,229
290,4	16,514
290,8	17,6
291,3	20,371
291,8	17,829
292,2	23,286
292,7	20,371
293,1	20,543
293,6	15,457
294,1	14,943
294,5	14,371
295	10,886
295,5	9,4
295,9	10,6
296,4	9,943
296,8	16,486
297,3	13,829
297,8	17,429
298,2	23,371
298,7	20,714
299,1	19,886
299,6	17,657
300,1	12,371
300,5	15,343
301	8,971
301,5	8,343
301,9	11,514
302,4	11,286
302,8	13,857
303,3	19,743
303,8	20,2
304,2	21,057
304,7	19,486
305,1	18,4
305,6	13,886
306,1	11,429
306,5	3,657
307	-1,886
307,4	-3,143
307,9	-3,171
308,4	-4,543
308,8	0,343
309,3	5,714
309,8	10,714
310,2	10,971
310,7	10,057
311,1	13,2
311,6	11,771
312,1	11,057
312,5	7,714
313	11,086
313,4	17,686
313,9	20,229
314,4	15,657
314,8	20,857
315,3	23,629
315,7	28,771
316,2	22,543
316,7	21,057
317,1	22,086
317,6	21,143
318	22,257
318,5	19,629
319	16
319,4	21,743
319,9	14,457
320,3	12,029
320,8	12,943
321,3	8,457
321,7	7,943
322,2	3,029
322,6	4,286
323,1	2,857
323,6	3,514
324	5,543
324,5	7,343
324,9	11,6
325,4	15,029
325,9	10,114
326,3	15,943
326,8	17
327,2	15,286
327,7	11,914
328,2	10,829
328,6	11,286
329,1	5,914
329,5	2,914
330	4,086
330,5	9,371
330,9	9,257
331,4	7,829
331,8	5,686
332,3	13,629
332,8	16
333,2	14,457
333,7	6,257
334,1	4,543
334,6	0,829
335,1	4,371
335,5	0,314
336	2,286
336,4	2,229
336,9	7,429
337,4	9,229
337,8	11,286
338,3	9,743
338,7	10,257
339,2	6,4
339,7	6,114
340,1	3,829
340,6	5,314
341	6,343
341,5	3,857
342	3,371
342,4	-2,771
342,9	0,343
343,3	-2,543
343,8	0,429
344,2	2
344,7	5,314
345,2	6,714
345,6	15,371
346,1	8,286
346,5	12,429
347	8,314
347,5	8,571
347,9	4,2
348,4	5,571
348,8	6,714
349,3	10,771
349,8	11,114
350,2	16,714
350,7	19,171
351,1	23,4
351,6	20,629
352	20,257
352,5	26,971
353	31,057
353,4	35,657
353,9	39,457
354,3	56
354,8	64,943
355,3	78,657
355,7	89,686
356,2	102,657
356,6	115,771
357,1	134,4
357,5	145,886
358	174,657
358,5	195,943
358,9	225,4
359,4	261,114
359,8	298,486
360,3	337,286
360,8	385,514
361,2	437,457
361,7	504,2
362,1	567,457
362,6	636,6
363	717,4
363,5	797,257
364	879,657
364,4	963,429
364,9	1047,314
365,3	1133,457
365,8	1224,571
366,3	1299,514
366,7	1366,286
367,2	1428,714
367,6	1484,229
368,1	1516,343
368,5	1538,314
369	1540,514
369,5	1542,029
369,9	1535,429
370,4	1512,714
370,8	1470,714
371,3	1433,514
371,7	1384,857
372,2	1326,143
372,7	1261,486
373,1	1198,514
373,6	1126,886
374	1062,029
374,5	992
374,9	924,914
375,4	865,371
375,9	805,286
376,3	739,857
376,8	686,486
377,2	631,343
377,7	576,086
378,2	527,686
378,6	484,229
379,1	437,714
379,5	404,143
380	366,086
380,4	334,771
380,9	311,686
381,4	290,286
381,8	263,486
382,3	245,086
382,7	223,6
383,2	206,057
383,6	198,171
384,1	185,343
384,6	170,4
385	159,8
385,5	147,629
385,9	137,943
386,4	136,971
386,8	121,971
387,3	109,629
387,7	104,343
388,2	98,686
388,7	91,6
389,1	86,886
389,6	77,8
390	75,057
390,5	73,971
390,9	65,029
391,4	59,457
391,9	61,343
392,3	62,943
392,8	59,571
393,2	56,486
393,7	54,657
394,1	53,314
394,6	56,914
395,1	59,257
395,5	55,314
396	56,571
396,4	52,514
396,9	52,686
397,3	57,257
397,8	50,914
398,2	42,143
398,7	39,143
399,2	36,686
399,6	40,257
400,1	36,6
400,5	31,914
401	39,057
401,4	37,2
401,9	35,829
402,4	36,314
402,8	39,2
403,3	41,029
403,7	44,286
404,2	39,2
404,6	42,457
405,1	47,314
405,5	45,457
406	44,029
406,5	42,857
406,9	45,829
407,4	46,371
407,8	50
408,3	47,857
408,7	50,029
409,2	49,571
409,6	52,2
410,1	53,029
410,6	53,543
411	54,686
411,5	54,829
411,9	56,057
412,4	59,114
412,8	58,543
413,3	53,371
413,7	55,086
414,2	56,4
414,7	62,714
415,1	67,086
415,6	62,229
416	67,343
416,5	79
416,9	83,286
417,4	85,686
417,8	90,029
418,3	86,686
418,8	95,743
419,2	99,8
419,7	97,229
420,1	95,171
420,6	99,2
421	100,514
421,5	105,771
421,9	105,6
422,4	108,8
422,8	107,371
423,3	111,086
423,8	108,914
424,2	106,114
424,7	112,029
425,1	109,543
425,6	105,629
426	108,971
426,5	107,143
426,9	112,229
427,4	113,771
427,9	111,6
428,3	115,857
428,8	119,829
429,2	122,114
429,7	127,914
430,1	123,429
430,6	120,514
431	121,829
431,5	122,771
431,9	124,657
432,4	124,286
432,8	126,143
433,3	128,857
433,8	135,771
434,2	137,514
434,7	141,343
435,1	147,971
435,6	155,857
436	162,143
436,5	172
436,9	178,057
437,4	187,057
437,8	193,6
438,3	200,514
438,8	204,343
439,2	212,543
439,7	218,914
440,1	232,286
440,6	235,943
441	244,543
441,5	249,086
441,9	258,4
442,4	268
442,8	282,2
443,3	292,457
443,7	305,8
444,2	320,971
444,7	337,086
445,1	355,543
445,6	367,143
446	377,429
446,5	392,514
446,9	407,343
447,4	423,143
447,8	437,829
448,3	452,114
448,7	470,943
449,2	489,2
449,6	501,571
450,1	523,886
450,6	546,229
451	563,171
451,5	588,057
451,9	611,2
452,4	632,486
452,8	656,657
453,3	677,2
453,7	702,343
454,2	731,486
454,6	751,714
455,1	778,257
455,5	807,486
456	836,143
456,4	870,829
456,9	895,514
457,3	923,286
457,8	956,143
458,3	984,857
458,7	1014,114
459,2	1046,314
459,6	1072,714
460,1	1107,657
460,5	1140,771
461	1173,343
461,4	1204,857
461,9	1240,457
462,3	1275,371
462,8	1311,457
463,2	1343,514
463,7	1381,314
464,1	1414,857
464,6	1448,771
465	1483,743
465,5	1517,286
466	1557,229
466,4	1598,4
466,9	1636,714
467,3	1679,114
467,8	1725,057
468,2	1767,914
468,7	1808,571
469,1	1847,971
469,6	1883,686
470	1926,314
470,5	1960,857
470,9	1997,4
471,4	2041,171
471,8	2084,971
472,3	2121,343
472,7	2164,086
473,2	2206,057
473,6	2254,629
474,1	2300,629
474,5	2337,371
475	2375,886
475,4	2423,771
475,9	2466
476,4	2504,8
476,8	2540,486
477,3	2581,086
477,7	2620,971
478,2	2665,829
478,6	2700,2
479,1	2741,486
479,5	2783,371
480	2824,286
480,4	2860,629
480,9	2897,886
481,3	2935,657
481,8	2972,114
482,2	3006,514
482,7	3038,343
483,1	3067,057
483,6	3098,029
484	3129,314
484,5	3160,257
484,9	3198,029
485,4	3227,943
485,8	3253,829
486,3	3288,629
486,7	3316,914
487,2	3347,629
487,6	3366,857
488,1	3389,229
488,5	3404,743
489	3436,314
489,4	3461,171
489,9	3485,457
490,4	3504,029
490,8	3528,171
491,3	3549,8
491,7	3580,086
492,2	3593,714
492,6	3611,686
493,1	3635
493,5	3655,971
494	3684,429
494,4	3702,629
494,9	3720,114
495,3	3737,514
495,8	3753,143
496,2	3762,771
496,7	3785,286
497,1	3791,4
497,6	3805,943
498	3816,543
498,5	3834
498,9	3851,143
499,4	3866,829
499,8	3870,886
500,3	3886,514
500,7	3898,886
501,2	3918,371
501,6	3923,971
502,1	3938,771
502,5	3949,571
503	3969,857
503,4	3981,286
503,9	3992,829
504,3	4000,314
504,8	4013,714
505,2	4018,6
505,7	4027,714
506,1	4029,086
506,6	4039,343
507	4045,971
507,5	4048,029
507,9	4059,743
508,4	4064,629
508,8	4072,229
509,3	4084,457
509,7	4084,686
510,2	4093,486
510,6	4111,486
511,1	4116,286
511,5	4121,743
512	4129,057
512,4	4139
512,9	4146,686
513,3	4151,057
513,8	4152,314
514,2	4159,371
514,7	4164,029
515,1	4164,514
515,6	4164,514
516	4167,743
516,5	4172,057
516,9	4177,914
517,4	4181,629
517,8	4185,486
518,3	4197,629
518,7	4204,429
519,2	4219,229
519,6	4221,086
520,1	4235,743
520,5	4237,514
521	4242,4
521,4	4243,571
521,9	4250,943
522,3	4251,171
522,8	4260,857
523,2	4259,971
523,7	4272,857
524,1	4278,514
524,6	4286,457
525	4290,371
525,5	4295,343
525,9	4306,314
526,4	4308,914
526,8	4314
527,3	4334,114
527,7	4342,857
528,2	4346,514
528,6	4365,029
529,1	4374,086
529,5	4380,086
530	4390,943
530,4	4399,457
530,9	4405,8
531,3	4419,114
531,8	4420,2
532,2	4422,629
532,6	4433,314
533,1	4439,6
533,5	4443,486
534	4457,257
534,4	4460,514
534,9	4473,057
535,3	4492,886
535,8	4505,543
536,2	4514,771
536,7	4524,8
537,1	4538,171
537,6	4550,371
538	4559,629
538,5	4562,914
538,9	4573
539,4	4582,829
539,8	4596,114
540,3	4601,657
540,7	4605,857
541,2	4612,343
541,6	4616,229
542,1	4628,171
542,5	4625,171
543	4629,229
543,4	4633,943
543,9	4648,714
544,3	4658,286
544,8	4673
545,2	4674,429
545,7	4691,629
546,1	4702,086
546,5	4715,743
547	4729,943
547,4	4738,257
547,9	4744,286
548,3	4758,4
548,8	4767,629
549,2	4781,343
549,7	4793,543
550,1	4795,743
550,6	4808,771
551	4817,686
551,5	4825,571
551,9	4836,914
552,4	4841,8
552,8	4845,543
553,3	4853,829
553,7	4861,657
554,2	4879
554,6	4887,486
555,1	4895,486
555,5	4904,857
555,9	4911,743
556,4	4923,4
556,8	4940,514
557,3	4942,171
557,7	4948,829
558,2	4960,286
558,6	4968,343
559,1	4983,771
559,5	4988,343
560	4984,943
560,4	4992,914
560,9	5002,371
561,3	5009,286
561,8	5018,2
562,2	5019,486
562,7	5024,229
563,1	5030,914
563,6	5038,657
564	5045,971
564,4	5053,886
564,9	5055,429
565,3	5065,943
565,8	5080,486
566,2	5082,686
566,7	5087,914
567,1	5086,743
567,6	5085,086
568	5086,057
568,5	5082,714
568,9	5087,257
569,4	5085,971
569,8	5085,371
570,3	5092
570,7	5095,829
571,1	5102,171
571,6	5104,286
572	5101,743
572,5	5107,171
572,9	5107,029
573,4	5100,857
573,8	5104,857
574,3	5104,314
574,7	5108,371
575,2	5104,943
575,6	5109,457
576,1	5111,571
576,5	5115,886
576,9	5111,971
577,4	5112,629
577,8	5103,914
578,3	5094,371
578,7	5088,057
579,2	5082,629
579,6	5079,743
580,1	5076,371
580,5	5068
581	5072,314
581,4	5076,514
581,9	5070,514
582,3	5066,629
582,7	5053,114
583,2	5046,857
583,6	5039,714
584,1	5025,086
584,5	5012,057
585	5001,4
585,4	4986,771
585,9	4983,629
586,3	4971,886
586,8	4959,457
587,2	4953,6
587,6	4951,886
588,1	4944,6
588,5	4940,771
589	4931,6
589,4	4923,714
589,9	4919,886
590,3	4909,314
590,8	4896,343
591,2	4885,629
591,7	4874,943
592,1	4873,486
592,5	4865,886
593	4861,686
593,4	4853,857
593,9	4847,029
594,3	4846,114
594,8	4845,171
595,2	4836,257
595,7	4833,943
596,1	4821,857
596,6	4815,571
597	4806,257
597,4	4803,143
597,9	4791,857
598,3	4781,543
598,8	4768,571
599,2	4766,971
599,7	4764,886
600,1	4763
600,6	4745,257
601	4741,229
601,4	4736,029
601,9	4731,743
602,3	4715,114
602,8	4700,657
603,2	4684,514
603,7	4678,571
604,1	4660,714
604,6	4644,371
605	4631,171
605,4	4621,4
605,9	4601,171
606,3	4591
606,8	4576,029
607,2	4565,429
607,7	4547,029
608,1	4530,8
608,6	4515,8
609	4505
609,4	4492,229
609,9	4474,6
610,3	4455,171
610,8	4445,686
611,2	4424,857
611,7	4409,714
612,1	4397
612,6	4379
613	4366,314
613,4	4357,6
613,9	4340,257
614,3	4331,371
614,8	4310
615,2	4294,286
615,7	4283,429
616,1	4269,971
616,6	4253,029
617	4240,743
617,4	4220,857
617,9	4213,314
618,3	4197,086
618,8	4181,514
619,2	4166,4
619,7	4150,229
620,1	4129,229
620,5	4115,686
621	4099,371
621,4	4086,4
621,9	4068,543
622,3	4051,4
622,8	4031,114
623,2	4014,6
623,6	3995,229
624,1	3974,6
624,5	3950,286
625	3934,143
625,4	3912,686
625,9	3896
626,3	3883,457
626,8	3863,914
627,2	3847,943
627,6	3835,2
628,1	3807,543
628,5	3790,486
629	3771,657
629,4	3750,971
629,9	3740,714
630,3	3719,543
630,7	3697,343
631,2	3683,429
631,6	3669
632,1	3649,829
632,5	3629,486
633	3603,914
633,4	3584
633,8	3567,657
634,3	3547,771
634,7	3528,971
635,2	3508,057
635,6	3495,571
636,1	3482,714
636,5	3470,086
636,9	3451,229
637,4	3431,514
637,8	3414,771
638,3	3397,714
638,7	3372,686
639,2	3351,629
639,6	3332,2
640	3316,486
640,5	3301,857
640,9	3276,286
641,4	3260,4
641,8	3248,4
642,2	3231,286
642,7	3214,229
643,1	3198,543
643,6	3185,4
644	3177,6
644,5	3167,8
644,9	3146,829
645,3	3135,714
645,8	3112,829
646,2	3097,943
646,7	3082,4
647,1	3057,057
647,6	3034,657
648	3018,2
648,4	2995,743
648,9	2992,2
649,3	2983,457
649,8	2964,029
650,2	2956,6
650,6	2949,314
651,1	2939,371
651,5	2924,657
652	2902,4
652,4	2875,257
652,9	2860,086
653,3	2840,514
653,7	2828,571
654,2	2809,371
654,6	2794,057
655,1	2779,914
655,5	2769,114
655,9	2754,771
656,4	2746,229
656,8	2720,629
657,3	2706,286
657,7	2691,457
658,2	2682,057
658,6	2665,4
659	2651,143
659,5	2632,6
659,9	2615,686
660,4	2599,429
660,8	2585,971
661,2	2563
661,7	2547,6
662,1	2536,686
662,6	2516,6
663	2505,943
663,4	2486,457
663,9	2466,629
664,3	2457,371
664,8	2437,143
665,2	2414,457
665,6	2401,314
666,1	2388,514
666,5	2378,657
667	2369,686
667,4	2349,114
667,9	2344,514
668,3	2333,314
668,7	2315,571
669,2	2301,971
669,6	2282,429
670,1	2264,743
670,5	2252,657
670,9	2229,429
671,4	2209,686
671,8	2195,371
672,3	2176,657
672,7	2174,514
673,1	2161,6
673,6	2139,743
674	2129,2
674,5	2114,829
674,9	2101,8
675,3	2082,514
675,8	2061,829
676,2	2044,057
676,7	2037,486
677,1	2021,457
677,5	2011,486
678	1998,886
678,4	1992,086
678,9	1984,657
679,3	1977,4
679,7	1964,571
680,2	1954,943
680,6	1944,429
681,1	1934,4
681,5	1919,114
681,9	1901,371
682,4	1893,2
682,8	1883,971
683,3	1868,286
683,7	1858,657
684,1	1847,114
684,6	1834,486
685	1824,486
685,5	1810,8
685,9	1797,943
686,3	1789,171
686,8	1774,057
687,2	1761,714
687,7	1749,457
688,1	1736,057
688,5	1722,286
689	1706,714
689,4	1699,143
689,9	1688,8
690,3	1679,6
690,7	1669,629
691,2	1654,714
691,6	1642,457
692	1633,771
692,5	1620,229
692,9	1601,971
693,4	1585,286
693,8	1577,114
694,2	1569,886
694,7	1557,086
695,1	1543,4
695,6	1529,143
696	1526,429
696,4	1522,286
696,9	1513,914
697,3	1503,457
697,8	1495,029
698,2	1487,943
698,6	1477,486
699,1	1469,457
699,5	1449,943
699,9	1438,114
700,4	1428,8
700,8	1423,886
701,3	1412,657
701,7	1405,371
702,1	1391,171
702,6	1390,4
703	1378,343
703,5	1364,029
703,9	1349,171
704,3	1343,086
704,8	1339,429
705,2	1330,914
705,6	1319,629
706,1	1314
706,5	1310,286
707	1305,543
707,4	1295,571
707,8	1282,114
708,3	1276,229
708,7	1266,229
709,2	1258,029
709,6	1246,886
710	1236,514
710,5	1226,886
710,9	1216,2
711,3	1204,4
711,8	1197,086
712,2	1188,057
712,7	1178,4
713,1	1171,2
713,5	1158,286
714	1155,686
714,4	1146,771
714,8	1139,2
715,3	1128,771
715,7	1125,257
716,2	1114,686
716,6	1112,971
717	1099,114
717,5	1090,171
717,9	1083,714
718,3	1075,286
718,8	1067,971
719,2	1060,743
719,7	1055,657
720,1	1050,543
720,5	1045,029
721	1029,171
721,4	1020,143
721,8	1010,914
722,3	1009,257
722,7	998,029
723,2	985,629
723,6	979,114
724	978,371
724,5	971,829
724,9	969,171
725,3	951,857
725,8	945,543
726,2	935,514
726,7	933
727,1	924,971
727,5	920,257
728	908,4
728,4	903,914
728,8	897,543
729,3	896,714
729,7	883,743
730,1	877,943
730,6	870,571
731	864,314
731,5	857,829
731,9	854,171
732,3	848,686
732,8	841,029
733,2	834,971
733,6	831,2
734,1	825,657
734,5	826,2
734,9	814,429
735,4	809,371
735,8	808,029
736,3	806,086
736,7	797,857
737,1	795,886
737,6	787,171
738	784,429
738,4	778,257
738,9	774,486
739,3	767,4
739,7	763,057
740,2	756,943
740,6	753,257
741,1	748,457
741,5	747,486
741,9	742,286
742,4	738,486
742,8	738,171
743,2	736,486
743,7	728,971
744,1	727,257
744,5	723,829
745	718,429
745,4	710,029
745,8	702,743
746,3	698,029
746,7	698,857
747,2	691,143
747,6	682,171
748	678,029
748,5	675,486
748,9	669,343
749,3	660,029
749,8	654,371
750,2	650,743
750,6	652,714
751,1	644,029
751,5	642,4
751,9	635,971
752,4	630,143
752,8	625,286
753,3	623,857
753,7	610,971
754,1	607,4
754,6	604,343
755	603,086
755,4	606,486
755,9	601,286
756,3	597,114
756,7	597,543
757,2	594,543
757,6	585,4
758	581,8
758,5	576,086
758,9	567,971
759,3	562,2
759,8	554
760,2	549,114
760,6	551,571
761,1	544,229
761,5	540,743
761,9	540,714
762,4	536,4
762,8	535,314
763,3	532,857
763,7	520,857
764,1	525,057
764,6	513,914
765	510,543
765,4	509,943
765,9	509,2
766,3	507,914
766,7	506,171
767,2	502,486
767,6	503,257
768	499,686
768,5	493,257
768,9	492,057
769,3	486
769,8	489,143
770,2	480,229
770,6	475,943
771,1	471,629
771,5	468,686
771,9	465,657
772,4	465,543
772,8	457,171
773,2	455,886
773,7	454,343
774,1	457,371
774,5	450,057
775	436,914
775,4	431,629
775,8	430,629
776,3	428,314
776,7	422,971
777,1	411,543
777,6	407,714
778	409,886
778,4	410,514
778,9	402,429
779,3	399,257
779,7	394,857
780,2	397,943
780,6	397,714
781	395,571
781,5	389,514
781,9	390,8
782,3	387,057
782,8	393,371
783,2	385,714
783,6	385
784,1	383,514
784,5	379,771
784,9	376,4
785,4	374,943
785,8	366,429
786,2	362,8
786,7	360,171
787,1	357,286
787,5	356,857
788	358,771
788,4	354,857
788,8	351,457
789,3	350,486
789,7	352,8
790,1	346,686
790,6	342,743
791	335,229
791,4	335,629
791,9	331,8
792,3	332,857
792,7	323
793,2	321,371
793,6	319,314
794	319,4
794,5	316,286
794,9	318,2
795,3	317,6
795,8	319,229
796,2	316,4
796,6	315,886
797,1	305,2
797,5	304,171
797,9	296,714
798,4	290,086
798,8	283,857
799,2	285,171
799,7	284,057
800,1	288,743
800,5	284,029
801	284,743
801,4	286
801,8	289,971
802,2	284,743
802,7	281,943
803,1	280,886
803,5	278,686
804	279,229
804,4	273,114
804,8	269,886
805,3	276,857
805,7	268,657
806,1	264,857
806,6	261,429
807	252,914
807,4	253,171
807,9	248,2
808,3	240,257
808,7	238,457
809,2	236,971
809,6	237,914
810	236,429
810,4	234,371
810,9	231,686
811,3	227,971
811,7	233,343
812,2	229,429
812,6	224,114
813	226,086
813,5	219,229
813,9	217,029
814,3	214,857
814,8	209,686
815,2	210,029
815,6	209,857
816,1	204,057
816,5	207,429
816,9	205,429
817,3	205,2
817,8	200,971
818,2	200,971
818,6	200,543
819,1	205,514
819,5	202,771
819,9	202,543
820,4	204,2
820,8	205,229
821,2	205,629
821,7	204,343
822,1	198,514
822,5	194,429
822,9	193,971
823,4	190,6
823,8	188,143
824,2	186,143
824,7	184,314
825,1	182,714
825,5	183,171
826	182,257
826,4	178,343
826,8	180,314
827,3	176,686
827,7	171,714
828,1	171,943
828,5	167,743
829	166,514
829,4	160,086
829,8	157
830,3	158,657
830,7	159,657
831,1	164,543
831,6	167,257
832	165,971
832,4	167,686
832,8	163,057
833,3	159,114
833,7	156,4
834,1	150,629
834,6	146,914
835	144,457
835,4	145,714
835,8	150,086
836,3	151,086
836,7	150,771
837,1	151,686
837,6	152,371
838	149,857
838,4	148,714
838,9	141,943
839,3	141,571
839,7	142,914
840,1	136,029
840,6	135,514
841	139,857
841,4	141,943
841,9	141,686
842,3	138,171
842,7	128,686
843,1	133,457
843,6	128,4
844	121,914
844,4	116,429
844,9	111,429
845,3	109,286
845,7	113,343
846,2	107,971
846,6	112,171
847	114,229
847,4	108,829
847,9	113,829
848,3	113,371
848,7	114,114
849,2	112,257
849,6	108,057
850	106,086
850,4	111,343
850,9	113,371
851,3	110,314
851,7	108,114
852,2	112,257
852,6	110,371
853	108,543
853,4	104,143
853,9	99,743
854,3	100,371
854,7	102,029
855,2	100,143
855,6	101,486
856	100,857
856,4	103,114
856,9	106,943
857,3	107,286
857,7	106,771
858,2	98,229
858,6	93,629
859	92,771
859,4	93,514
859,9	89,686
860,3	87,429
860,7	84,229
861,1	89,743
861,6	92,6
862	91,486
862,4	88,629
862,9	88,086
863,3	84,314
863,7	82,771
864,1	81,8
864,6	84,114
865	85,286
865,4	86,743
865,9	85,457
866,3	88,771
866,7	91,2
867,1	89,657
867,6	88,229
868	89,429
868,4	86,743
868,8	83,829
869,3	82,571
869,7	79,8
870,1	83,143
870,6	80,2
871	147,743
871,4	147,543
871,8	149,543
872,3	148,029
872,7	149,686
873,1	148
873,5	147,4
874	73,857
874,4	71,657
874,8	72,429
875,3	74,343
875,7	70,8
876,1	69,114
876,5	70,571
877	74,371
877,4	75,886
877,8	75,686
878,2	73
878,7	74,314
879,1	73,029
879,5	67,857
879,9	66,229
880,4	64,886
880,8	63,457
881,2	65,6
881,7	61,743
882,1	67,257
882,5	73,086
882,9	73,629
883,4	76,257
883,8	76,6
884,2	71,971
884,6	74,6
885,1	66,8
885,5	63,371
885,9	60
886,3	55,857
886,8	52,657
887,2	52,143
887,6	51,2
888	51,914
888,5	52,143
888,9	54,114
889,3	54,571
889,8	57,229
890,2	56,971
890,6	55,114
891	52,8
891,5	51,171
891,9	50,314
892,3	49,543
892,7	47,686
893,2	47,314
893,6	47,029
894	46,971
894,4	47,886
894,9	47,4
895,3	46,514
895,7	45,171
896,1	47,743
896,6	50,029
897	53,543
897,4	56,429
897,8	57,286
898,3	61,543
898,7	60,143
899,1	60,029
899,5	58,571
900	55,286
900,4	52,829
900,8	47,971
901,2	45,029
901,7	43,714
902,1	45
902,5	43,543
902,9	42,686
903,4	38,171
903,8	42,457
904,2	40,229
904,6	41,343
905,1	39,029
905,5	38,943
905,9	38,571
906,3	35,943
906,8	34,086
907,2	33,714
907,6	38,229
908	35,629
908,5	37,571
908,9	39,857
909,3	44,514
909,7	45,086
910,2	50,429
910,6	42,714
911	38,714
911,4	40,4
911,9	35,771
912,3	32,229
912,7	30,143
913,1	24,257
913,6	24,686
914	33,943
914,4	26,829
914,8	28,8
915,3	30,943
915,7	33,971
916,1	37,486
916,5	41,314
916,9	35,143
917,4	39,4
917,8	38,2
918,2	37,743
918,6	36,829
919,1	34,714
919,5	32,714
919,9	37,2
920,3	38,429
920,8	42,4
921,2	42,229
921,6	42,6
922	43,743
922,5	41,8
922,9	39,743
923,3	39,086
923,7	39,486
924,2	38,486
924,6	33,771
925	33,086
925,4	38,114
925,8	40,086
926,3	40,314
926,7	34,743
927,1	33,914
927,5	40,657
928	42,057
928,4	42,429
928,8	38,971
929,2	37,657
929,7	40,457
930,1	45,057
930,5	42,857
930,9	37,514
931,3	33,914
931,8	33,914
932,2	32,571
932,6	27,629
933	22,229
933,5	22,457
933,9	22,086
934,3	22,8
934,7	21,029
935,2	25,314
935,6	28,914
936	27,514
936,4	24,029
936,8	24,886
937,3	18
937,7	20,686
938,1	10,629
938,5	7,914
939	13,4
939,4	13,457
939,8	16,686
940,2	22,629
940,6	21,457
941,1	26,714
941,5	32,314
941,9	36,086
942,3	32,114
942,8	31,771
943,2	36,343
943,6	36,343
944	36,371
944,4	33,343
944,9	26,686
945,3	27,571
945,7	25,343
946,1	17,771
946,6	16,629
947	18,771
947,4	15,343
947,8	18,457
948,2	20,229
948,7	16,314
949,1	20,114
949,5	20,943
949,9	20,8
950,3	24,914
950,8	23,686
951,2	26
951,6	29,686
952	26,543
952,5	21,629
952,9	18,829
953,3	19,457
953,7	17,257
954,1	14,829
954,6	13,6
955	11,771
955,4	20,857
955,8	26,629
956,2	24,743
956,7	26,314
957,1	27,429
957,5	27,829
957,9	30,4
958,3	24,143
958,8	23,457
959,2	21,257
959,6	14,829
960	14,114
960,5	8,371
960,9	10,514
961,3	11,857
961,7	7,371
962,1	8,886
962,6	11,114
963	8,943
963,4	18,8
963,8	19,229
964,2	20,429
964,7	22,914
965,1	16,629
965,5	18,229
965,9	19,943
966,3	15,543
966,8	14,286
967,2	8,771
967,6	4,829
968	9,314
968,4	11,943
968,9	13,714
969,3	14,143
969,7	10,543
970,1	13,857
970,5	14,971
971	13,743
971,4	10,2
971,8	4,6
972,2	7,514
972,6	11,6
973,1	10,771
973,5	9,029
973,9	8,857
974,3	10,857
974,7	15,257
975,2	15,314
975,6	16,086
976	15,6
976,4	15,171
976,8	19,2
977,3	20,714
977,7	20,457
978,1	19,886
978,5	14,457
978,9	15,2
979,4	18,886
979,8	15,486
980,2	11,086
980,6	9,6
981	8,314
981,5	9,829
981,9	10,829
982,3	9,629
982,7	11,743
983,1	12,886
983,6	15,857
984	10,086
984,4	10,743
984,8	10,657
985,2	8,314
985,6	7,257
986,1	8,629
986,5	5,657
986,9	9,486
987,3	10,4
987,7	8,257
988,2	9,743
988,6	14,714
989	12,571
989,4	16,914
989,8	14,971
990,3	12,057
990,7	18,771
991,1	17,171
991,5	14,8
991,9	13,571
992,3	8,914
992,8	9,171
993,2	11,829
993,6	2,829
994	3,371
994,4	4,8
994,9	10,286
995,3	17,229
995,7	15,343
996,1	14,771
996,5	16,171
996,9	15,943
997,4	9,571
997,8	8
998,2	2,143
998,6	10,943
999	13,257
999,5	15,886
999,9	18,429
1000,3	25,257
1000,7	25,114
1001,1	23,486
1001,5	22,514
1002	20,286
1002,4	21,114
1002,8	18,571
1003,2	12,229
1003,6	11,457
1004	13,114
1004,5	9,371
1004,9	12,2
1005,3	11,371
1005,7	10,457
1006,1	15,6
1006,6	12,2
1007	13,314
1007,4	9,571
1007,8	11,686
1008,2	13,229
1008,6	15,571
1009,1	14,829
1009,5	19
1009,9	17,371
1010,3	20,086
1010,7	20,086
1011,1	19,943
1011,6	22,143
1012	23,829
1012,4	23,8
1012,8	22,629
1013,2	27,2
1013,6	19,314
1014,1	15,771
1014,5	15,229
1014,9	10,114
1015,3	7,686
1015,7	10,543
1016,1	6,886
1016,6	7,686
1017	13,4
1017,4	12,343
1017,8	13,829
1018,2	17,4
1018,6	19,857
1019,1	19,743
1019,5	19,943
1019,9	17
1020,3	14,343
1020,7	14,314
1021,1	13,714
1021,6	8,229
1022	12,457
1022,4	16,143
1022,8	14,857
1023,2	15,914
1023,6	14,629
1024,1	14,886
1024,5	18,914
1024,9	18,229
1025,3	18,543
1025,7	19,829
1026,1	28
1026,6	34
1027	30,743
1027,4	36,571
1027,8	31,057
1028,2	28,6
1028,6	28,771
1029	18,657
1029,5	14,429
1029,9	17,714
1030,3	14,571
1030,7	17,914
1031,1	18,743
1031,5	21,4
1032	24,486
1032,4	28,914
1032,8	29,171
1033,2	23
1033,6	26,029
1034	26,257
1034,4	25,657
1034,9	27,857
1035,3	25,429
1035,7	26,829
1036,1	28,057
1036,5	23,829
1036,9	26,686
1037,4	27,429
1037,8	21,886
1038,2	21,514
1038,6	16,4
1039	18,829
1039,4	19,286
1039,8	14,514
1040,3	16,229
1040,7	20
1041,1	14,571
1041,5	19,686
1041,9	14,086
1042,3	18,914
1042,7	18,057
1043,2	12,514
1043,6	17,857
1044	23,143
1044,4	21,629
1044,8	23,829
1045,2	21,6
1045,6	25,743
1046,1	29,829
1046,5	21,771
1046,9	22,743
1047,3	20,657
1047,7	22,486
1048,1	17,829
1048,5	17,2
1049	18,2
1049,4	17,257
1049,8	12,143
1050,2	12,8
1050,6	13,314
1051	13,943
1051,4	11,543
1051,9	4,714
1052,3	7,057
1052,7	12,486
1053,1	10,457
1053,5	12,571
1053,9	14,6
1054,3	10,8
1054,8	15,143
1055,2	13,171
1055,6	15,114
1056	17,686
1056,4	15,429
1056,8	17,714
1057,2	22,914
1057,6	21,4
1058,1	28
1058,5	20,657
1058,9	20,657
1059,3	23,571
1059,7	19,886
1060,1	16,429
1060,5	15,829
1061	14,086
1061,4	19,771
1061,8	21,029
1062,2	16,514
1062,6	19,829
1063	22,343
1063,4	25,257
1063,8	20,286
1064,3	17,886
1064,7	16,686
1065,1	18,429
1065,5	13,629
1065,9	14,543
1066,3	13,571
1066,7	16,571
1067,1	14,714
1067,6	14,457
1068	14,829
1068,4	14,886
1068,8	10,714
1069,2	10,771
1069,6	9,886
1070	12,286
1070,4	14,029
1070,9	15,657
1071,3	18,229
1071,7	18,486
1072,1	14,314
1072,5	12,429
1072,9	10,629
1073,3	10,657
1073,7	9,057
1074,2	8,943
1074,6	8,371
1075	9,886
1075,4	9,857
1075,8	11,914
1076,2	10,457
1076,6	11,057
1077	5,143
1077,5	5,6
1077,9	7
1078,3	5,171
1078,7	-0,657
1079,1	-1,086
1079,5	-3,143
1079,9	-1,657
1080,3	1,771
1080,7	4,086
1081,2	10,143
1081,6	11,829
1082	10,429
1082,4	7,714
1082,8	10,943
1083,2	11,543
1083,6	7,8
1084	5,086
1084,5	10,057
1084,9	3,743
1085,3	4,6
1085,7	8,629
1086,1	6,857
1086,5	4,543
1086,9	2,629
1087,3	-1,914
1087,7	3,829
1088,2	9,229
1088,6	4,971
1089	8,714
1089,4	10,8
1089,8	12,057
1090,2	14,029
1090,6	16,886
1091	15,429
1091,4	16,286
1091,9	15,543
1092,3	15,571
1092,7	16,943
1093,1	16,286
1093,5	13
1093,9	11,2
1094,3	11,571
1094,7	6,743
1095,1	1,886
1095,5	-0,171
1096	0
1096,4	0,943
1096,8	-1,714
1097,2	-1,371
1097,6	3,229
1098	10,4
1098,4	14
1098,8	13,829
1099,2	11,857
1099,6	13,429
1100,1	12
1100,5	13,714
1100,9	17,971
1101,3	16,857
1101,7	17,229
1102,1	21,514
1102,5	18,143
1102,9	14,057
1103,3	11,171
1103,7	3,971
1104,2	4,829
1104,6	9,457
1105	10
1105,4	15,543
1105,8	18,371
1106,2	16,143
1106,6	15,657
1107	13,2
1107,4	8,3
1107,8	4,92
1108,3	-0,1
