Data from Subt2_00054.txt Node
Date: Mon Aug 28 13:21:11 MSK 2023
User: vat
Spectrometer: MAYP114033
Trigger mode: 0
Integration Time (sec): 1,000000E0
Scans to average: 5
Electric dark correction enabled: true
Nonlinearity correction enabled: false
Boxcar width: 3
XAxis mode: Wavelengths
Number of Pixels in Spectrum: 2068
>>>>>Begin Spectral Data<<<<<
199,4	-0,617
199,9	3,993
200,4	4,767
200,8	9,462
201,3	9,49
201,8	12,29
202,2	12,805
202,7	14,148
203,2	13,148
203,6	14,29
204,1	10,862
204,6	13,376
205	15,005
205,5	20,433
206	21,69
206,4	22,262
206,9	20,605
207,4	23,548
207,8	22,605
208,3	22,148
208,8	23,833
209,2	27,319
209,7	27,805
210,2	25,605
210,6	25,833
211,1	26,376
211,5	26,29
212	24,776
212,5	24,833
212,9	26,919
213,4	31,319
213,9	32,862
214,3	36,119
214,8	35,776
215,3	30,69
215,7	33,405
216,2	31,005
216,7	29,548
217,1	29,462
217,6	27,805
218,1	24,89
218,5	25,948
219	23,29
219,5	24,748
219,9	30,833
220,4	28,719
220,9	26,062
221,3	30,348
221,8	34,862
222,3	35,005
222,7	33,919
223,2	31,948
223,6	33,176
224,1	36,576
224,6	31,49
225	31,719
225,5	28,319
226	31,405
226,4	28,49
226,9	24,919
227,4	26,148
227,8	30,862
228,3	29,69
228,8	33,233
229,2	35,605
229,7	33,69
230,2	34,205
230,6	34,548
231,1	31,862
231,5	29,119
232	27,948
232,5	25,662
232,9	30,033
233,4	33,405
233,9	30,262
234,3	33,348
234,8	39,548
235,3	33,862
235,7	28,062
236,2	24,29
236,7	18,719
237,1	25,062
237,6	22,805
238,1	16,576
238,5	23,262
239	24,776
239,4	30,948
239,9	33,576
240,4	28,433
240,8	27,833
241,3	30,49
241,8	27,633
242,2	32,69
242,7	32,262
243,2	32,462
243,6	37,976
244,1	37,49
244,6	38,462
245	42,919
245,5	41,948
245,9	34,776
246,4	35,719
246,9	28,948
247,3	31,233
247,8	27,948
248,3	25,319
248,7	24,433
249,2	23,405
249,7	23,176
250,1	21,89
250,6	18,748
251	18,633
251,5	19,576
252	14,033
252,4	18,233
252,9	14,319
253,4	21,948
253,8	26,062
254,3	26,49
254,8	23,662
255,2	30,719
255,7	29,205
256,1	33,976
256,6	33,519
257,1	31,462
257,5	29,262
258	26,862
258,5	23,405
258,9	27,919
259,4	26,976
259,9	22,348
260,3	23,519
260,8	23,805
261,2	25,09
261,7	26,519
262,2	25,805
262,6	24,176
263,1	25,319
263,6	22,519
264	26,005
264,5	27,776
264,9	26,919
265,4	26,062
265,9	26,805
266,3	25,433
266,8	24,29
267,3	25,119
267,7	26,176
268,2	25,519
268,7	21,09
269,1	24,148
269,6	26,262
270	29,662
270,5	24,662
271	25,29
271,4	25,976
271,9	29,576
272,4	28,09
272,8	31,805
273,3	32,176
273,7	32,69
274,2	32,89
274,7	28,576
275,1	30,262
275,6	29,662
276,1	24,119
276,5	25,776
277	31,29
277,4	30,89
277,9	32,29
278,4	29,062
278,8	30,433
279,3	28,89
279,8	24,519
280,2	20,49
280,7	16,176
281,1	19,548
281,6	21,576
282,1	18,548
282,5	22,633
283	26,005
283,4	29,548
283,9	33,262
284,4	36,005
284,8	35,176
285,3	37,662
285,8	35,462
286,2	33,148
286,7	34,148
287,1	33,205
287,6	29,176
288,1	30,462
288,5	25,176
289	25,319
289,5	26,148
289,9	25,633
290,4	24,09
290,8	24,519
291,3	25,633
291,8	34,662
292,2	35,433
292,7	38,633
293,1	37,262
293,6	37,033
294,1	40,919
294,5	38,119
295	33,805
295,5	30,29
295,9	26,462
296,4	28,919
296,8	32,062
297,3	28,548
297,8	26,748
298,2	29,548
298,7	30,519
299,1	31,833
299,6	27,919
300,1	24,948
300,5	21,833
301	24,89
301,5	18,976
301,9	18,719
302,4	12,89
302,8	13,376
303,3	16,148
303,8	21,919
304,2	17,205
304,7	18,49
305,1	19,262
305,6	25,919
306,1	23,89
306,5	25,005
307	20,862
307,4	27,348
307,9	28,033
308,4	27,176
308,8	27,748
309,3	32,09
309,8	31,119
310,2	32,748
310,7	31,319
311,1	33,948
311,6	36,09
312,1	31,89
312,5	28,833
313	25,776
313,4	30,005
313,9	30,233
314,4	28,519
314,8	27,148
315,3	31,805
315,7	33,662
316,2	36,719
316,7	28,776
317,1	27,205
317,6	27,233
318	31,462
318,5	26,719
319	30,262
319,4	29,376
319,9	30,948
320,3	30,119
320,8	34,176
321,3	28,433
321,7	31,948
322,2	28,976
322,6	25,005
323,1	28,176
323,6	29,605
324	25,405
324,5	28,062
324,9	28,948
325,4	27,262
325,9	32,376
326,3	31,148
326,8	30,433
327,2	35,148
327,7	33,176
328,2	32,09
328,6	33,633
329,1	29,119
329,5	27,09
330	29,262
330,5	23,748
330,9	21,719
331,4	24,205
331,8	24,49
332,3	27,033
332,8	28,748
333,2	26,519
333,7	25,576
334,1	32,233
334,6	28,976
335,1	29,948
335,5	33,262
336	30,405
336,4	34,405
336,9	33,433
337,4	30,633
337,8	28,719
338,3	24,548
338,7	18,805
339,2	25,433
339,7	26,062
340,1	23,376
340,6	22,919
341	26,405
341,5	27,633
342	31,033
342,4	29,119
342,9	27,29
343,3	31,519
343,8	29,462
344,2	32,205
344,7	35,119
345,2	32,719
345,6	34,405
346,1	31,119
346,5	30,605
347	34,348
347,5	30,776
347,9	28,319
348,4	28,548
348,8	23,633
349,3	28,262
349,8	36,09
350,2	37,862
350,7	39,805
351,1	41,29
351,6	50,948
352	58,89
352,5	65,662
353	66,348
353,4	72,09
353,9	80,205
354,3	95,49
354,8	105,948
355,3	120,548
355,7	135,29
356,2	157,662
356,6	181,662
357,1	214,605
357,5	245,376
358	283,833
358,5	335,576
358,9	389,148
359,4	447,49
359,8	517,919
360,3	594,89
360,8	679,062
361,2	774,29
361,7	873,062
362,1	981,576
362,6	1106,633
363	1235,89
363,5	1377,69
364	1532,148
364,4	1688,176
364,9	1849,948
365,3	2009,948
365,8	2163,49
366,3	2308,948
366,7	2436,462
367,2	2547,233
367,6	2640,748
368,1	2711,09
368,5	2763,833
369	2795,062
369,5	2804,976
369,9	2793,862
370,4	2759,233
370,8	2707,433
371,3	2628,948
371,7	2542,205
372,2	2440,49
372,7	2326,862
373,1	2205,948
373,6	2076,548
374	1946,519
374,5	1824,605
374,9	1702,405
375,4	1585,376
375,9	1468,69
376,3	1355,462
376,8	1256,748
377,2	1159,376
377,7	1074,776
378,2	988,433
378,6	905,49
379,1	830,662
379,5	766,919
380	704,69
380,4	649,805
380,9	592,805
381,4	546,148
381,8	508,376
382,3	477,49
382,7	446,748
383,2	414,176
383,6	391,49
384,1	372,119
384,6	353,205
385	328,49
385,5	307,633
385,9	287,176
386,4	275,062
386,8	254,89
387,3	235,319
387,7	215,833
388,2	199,776
388,7	187,862
389,1	171,89
389,6	164,576
390	157,49
390,5	149,748
390,9	143,319
391,4	131,205
391,9	125,976
392,3	127,633
392,8	118,376
393,2	112,976
393,7	104,462
394,1	101,262
394,6	103,548
395,1	98,119
395,5	91,89
396	87,976
396,4	83,948
396,9	84,176
397,3	83,976
397,8	80,462
398,2	76,748
398,7	75,29
399,2	75,062
399,6	74,776
400,1	71,862
400,5	68,605
401	73,805
401,4	76,176
401,9	74,405
402,4	76,319
402,8	75,176
403,3	77,433
403,7	77,405
404,2	73,948
404,6	71,033
405,1	73,748
405,5	72,605
406	73,833
406,5	76,948
406,9	79,405
407,4	86,662
407,8	93,319
408,3	94,09
408,7	95,148
409,2	101,548
409,6	104,348
410,1	107,176
410,6	112,69
411	119,09
411,5	132,405
411,9	142,548
412,4	151,005
412,8	158,605
413,3	171,405
413,7	181,005
414,2	189,519
414,7	196,09
415,1	206,862
415,6	215,033
416	230,376
416,5	243,662
416,9	252,405
417,4	270,319
417,8	282,719
418,3	296,719
418,8	316,262
419,2	332,862
419,7	349,662
420,1	371,433
420,6	384,662
421	408,69
421,5	431,776
421,9	455,233
422,4	478,69
422,8	502,976
423,3	523,948
423,8	551,319
424,2	575,405
424,7	601,262
425,1	628,548
425,6	658,976
426	691,776
426,5	727,69
426,9	765,833
427,4	802,576
427,9	843,862
428,3	883,805
428,8	929,862
429,2	975,262
429,7	1022,462
430,1	1071,176
430,6	1127,205
431	1182,833
431,5	1242,062
431,9	1298,662
432,4	1362,262
432,8	1431,062
433,3	1507,09
433,8	1585,719
434,2	1663,89
434,7	1745,462
435,1	1839,09
435,6	1934,033
436	2032,605
436,5	2127,29
436,9	2228,833
437,4	2333,176
437,8	2442,89
438,3	2557,49
438,8	2676,233
439,2	2799,205
439,7	2929,376
440,1	3060,205
440,6	3204,176
441	3347,548
441,5	3482,89
441,9	3629,433
442,4	3784,348
442,8	3947,09
443,3	4113,005
443,7	4278,29
444,2	4455,89
444,7	4648,433
445,1	4831,862
445,6	5028,948
446	5224,719
446,5	5426,205
446,9	5635,948
447,4	5846,862
447,8	6058,89
448,3	6294,633
448,7	6510,805
449,2	6741,748
449,6	6985,69
450,1	7230,29
450,6	7472,776
451	7722,862
451,5	7971,119
451,9	8241,49
452,4	8500,433
452,8	8768,348
453,3	9024,548
453,7	9305,662
454,2	9592,576
454,6	9879,519
455,1	10170,062
455,5	10463,319
456	10755,833
456,4	11068,205
456,9	11369,805
457,3	11677,776
457,8	11991,462
458,3	12291,348
458,7	12611,205
459,2	12926,805
459,6	13245,776
460,1	13569,376
460,5	13887,005
461	14193,976
461,4	14513,233
461,9	14838,919
462,3	15153,09
462,8	15482,805
463,2	15800,633
463,7	16119,348
464,1	16448,576
464,6	16784,748
465	17089,29
465,5	17421,776
466	17740,976
466,4	18047,633
466,9	18358,405
467,3	18677,148
467,8	18985,748
468,2	19313,805
468,7	19614,576
469,1	19905,148
469,6	20219,319
470	20527,89
470,5	20818,69
470,9	21095,576
471,4	21373,176
471,8	21637,262
472,3	21916,29
472,7	22188,29
473,2	22452,062
473,6	22712,948
474,1	22978,148
474,5	23229,433
475	23490,576
475,4	23727,519
475,9	23953,805
476,4	24170,348
476,8	24375,148
477,3	24586,976
477,7	24791,148
478,2	24983,776
478,6	25194,948
479,1	25381,176
479,5	25559,062
480	25728,405
480,4	25879,433
480,9	26028,662
481,3	26178,805
481,8	26305,433
482,2	26438,833
482,7	26575,776
483,1	26692,376
483,6	26809,29
484	26901,633
484,5	26988,719
484,9	27051,033
485,4	27111,262
485,8	27163,405
486,3	27225,348
486,7	27276,148
487,2	27314,49
487,6	27347,805
488,1	27378,548
488,5	27404,176
489	27411,862
489,4	27408,405
489,9	27387,462
490,4	27382,748
490,8	27363,719
491,3	27336,005
491,7	27296,005
492,2	27252,69
492,6	27188,69
493,1	27137,462
493,5	27054,548
494	26978,376
494,4	26908,119
494,9	26831,176
495,3	26749,948
495,8	26667,205
496,2	26574,748
496,7	26495,69
497,1	26392,633
497,6	26290,062
498	26189,005
498,5	26075,662
498,9	25985,776
499,4	25869,69
499,8	25749,319
500,3	25643,748
500,7	25508,29
501,2	25366,062
501,6	25235,748
502,1	25099,805
502,5	24960,462
503	24830,033
503,4	24665,719
503,9	24527,719
504,3	24393,976
504,8	24246,09
505,2	24082,748
505,7	23916,948
506,1	23743,948
506,6	23568,433
507	23397,576
507,5	23214,776
507,9	23028,833
508,4	22841,576
508,8	22666,033
509,3	22479,548
509,7	22314,405
510,2	22126,919
510,6	21939,69
511,1	21752,376
511,5	21573,462
512	21378,348
512,4	21189,09
512,9	20990,519
513,3	20787,148
513,8	20600,519
514,2	20412,176
514,7	20203,919
515,1	20020,976
515,6	19824,319
516	19632,462
516,5	19443,662
516,9	19243,119
517,4	19046,633
517,8	18862,748
518,3	18659,605
518,7	18471,09
519,2	18281,976
519,6	18089,205
520,1	17899,49
520,5	17714,69
521	17515,348
521,4	17336,09
521,9	17149,405
522,3	16970,405
522,8	16782,233
523,2	16596,862
523,7	16407,948
524,1	16237,805
524,6	16050,748
525	15865,833
525,5	15679,376
525,9	15515,748
526,4	15339,462
526,8	15166,262
527,3	14993,319
527,7	14828,948
528,2	14661,548
528,6	14501,462
529,1	14340,519
529,5	14180,948
530	14023,833
530,4	13862,233
530,9	13693,433
531,3	13549,09
531,8	13389,976
532,2	13230,519
532,6	13083,862
533,1	12922,662
533,5	12767,119
534	12629,176
534,4	12477,062
534,9	12337,262
535,3	12192,805
535,8	12043,062
536,2	11911,176
536,7	11776,176
537,1	11636,662
537,6	11495,176
538	11353,376
538,5	11228,462
538,9	11100,49
539,4	10969,433
539,8	10848,576
540,3	10733,69
540,7	10618,062
541,2	10504,148
541,6	10378,519
542,1	10258,805
542,5	10150,805
543	10034,148
543,4	9912,605
543,9	9796,319
544,3	9678,062
544,8	9571,89
545,2	9468,833
545,7	9360,89
546,1	9255,033
546,5	9148,833
547	9050,919
547,4	8950,69
547,9	8853,719
548,3	8755,833
548,8	8655,89
549,2	8567,805
549,7	8473,719
550,1	8376,89
550,6	8294,605
551	8196,833
551,5	8100,319
551,9	8014,176
552,4	7927,148
552,8	7849,033
553,3	7770,862
553,7	7687,976
554,2	7618,376
554,6	7546,776
555,1	7472,919
555,5	7388,405
555,9	7316,405
556,4	7241,176
556,8	7166,89
557,3	7081,205
557,7	7009,348
558,2	6937,976
558,6	6874,69
559,1	6796,062
559,5	6725,919
560	6654,005
560,4	6590,005
560,9	6529,376
561,3	6461,262
561,8	6391,548
562,2	6332,262
562,7	6269,062
563,1	6214,462
563,6	6158,719
564	6092,205
564,4	6031,462
564,9	5977,033
565,3	5918,89
565,8	5865,748
566,2	5807,09
566,7	5752,462
567,1	5701,319
567,6	5644,833
568	5591,233
568,5	5537,433
568,9	5481,776
569,4	5421,719
569,8	5365,976
570,3	5305,633
570,7	5260,833
571,1	5210,376
571,6	5162,976
572	5119,433
572,5	5078,433
572,9	5040,462
573,4	5000,833
573,8	4955,062
574,3	4910,462
574,7	4871,119
575,2	4822,49
575,6	4780,433
576,1	4734,033
576,5	4695,176
576,9	4644,948
577,4	4609,948
577,8	4558,748
578,3	4520,862
578,7	4474,376
579,2	4429,548
579,6	4380,833
580,1	4346,805
580,5	4301,548
581	4265,462
581,4	4227,862
581,9	4190,405
582,3	4157,09
582,7	4125,719
583,2	4090,69
583,6	4056,29
584,1	4026,605
584,5	3983,805
585	3950,376
585,4	3910,005
585,9	3865,005
586,3	3828,29
586,8	3793,948
587,2	3758,89
587,6	3729,49
588,1	3697,519
588,5	3664,09
589	3641,662
589,4	3606,719
589,9	3574,49
590,3	3546,605
590,8	3520,89
591,2	3488,09
591,7	3462,719
592,1	3434,29
592,5	3412,605
593	3385,89
593,4	3353,462
593,9	3323,005
594,3	3302,748
594,8	3278,119
595,2	3252,633
595,7	3217,462
596,1	3192,233
596,6	3165,176
597	3145,719
597,4	3122,719
597,9	3099,633
598,3	3074,49
598,8	3061,176
599,2	3036,89
599,7	3023,062
600,1	3001,776
600,6	2975,29
601	2956,09
601,4	2940,948
601,9	2925,233
602,3	2908,519
602,8	2885,605
603,2	2862,548
603,7	2840,576
604,1	2818,519
604,6	2798,862
605	2775,633
605,4	2746,948
605,9	2726,948
606,3	2709,405
606,8	2691,062
607,2	2671,976
607,7	2644,89
608,1	2617,119
608,6	2603,433
609	2582,976
609,4	2558,148
609,9	2540,49
610,3	2521,319
610,8	2506,262
611,2	2496,49
611,7	2480,233
612,1	2460,319
612,6	2439,833
613	2415,919
613,4	2393,005
613,9	2374,805
614,3	2350,548
614,8	2331,176
615,2	2317,748
615,7	2301,948
616,1	2292,633
616,6	2280,862
617	2262,776
617,4	2248,148
617,9	2231,833
618,3	2211,519
618,8	2198,148
619,2	2179,948
619,7	2163,148
620,1	2149,319
620,5	2130,948
621	2117,948
621,4	2103,09
621,9	2082,919
622,3	2066,69
622,8	2051,29
623,2	2036,348
623,6	2027,519
624,1	2002,148
624,5	1989,205
625	1971,29
625,4	1958,605
625,9	1948,033
626,3	1932,319
626,8	1918,833
627,2	1905,176
627,6	1890,49
628,1	1883,633
628,5	1867,29
629	1845,262
629,4	1829,576
629,9	1805,262
630,3	1795,89
630,7	1781,262
631,2	1768,976
631,6	1750,062
632,1	1737,748
632,5	1732,176
633	1724,605
633,4	1713,976
633,8	1696,89
634,3	1683,548
634,7	1672,919
635,2	1662,948
635,6	1647,462
636,1	1631,633
636,5	1617,29
636,9	1608,633
637,4	1596,833
637,8	1587,776
638,3	1575,89
638,7	1559,119
639,2	1550,69
639,6	1541,605
640	1527,376
640,5	1518,119
640,9	1506,319
641,4	1497,833
641,8	1491,09
642,2	1480,576
642,7	1472,633
643,1	1466,862
643,6	1453,405
644	1449,348
644,5	1443,09
644,9	1428,033
645,3	1417,776
645,8	1404,748
646,2	1395,633
646,7	1383,805
647,1	1366,776
647,6	1349,348
648	1339,805
648,4	1335,119
648,9	1331,662
649,3	1319,119
649,8	1312,433
650,2	1303,976
650,6	1297,69
651,1	1288,176
651,5	1274,719
652	1263,948
652,4	1253,376
652,9	1240,576
653,3	1229,49
653,7	1218,462
654,2	1213,033
654,6	1206,09
655,1	1192,348
655,5	1185,033
655,9	1181,719
656,4	1179,748
656,8	1171,576
657,3	1163,348
657,7	1150,119
658,2	1143,033
658,6	1136,805
659	1132,205
659,5	1124,919
659,9	1119,262
660,4	1113,776
660,8	1110,605
661,2	1100,976
661,7	1091,548
662,1	1078,376
662,6	1073,376
663	1061,119
663,4	1051,69
663,9	1043,833
664,3	1031,376
664,8	1021,176
665,2	1014,405
665,6	997,805
666,1	993,69
666,5	980,405
667	967,462
667,4	967,319
667,9	962,233
668,3	953,433
668,7	947,976
669,2	937,49
669,6	933,176
670,1	931,919
670,5	921,919
670,9	914,576
671,4	907,948
671,8	902,062
672,3	897,833
672,7	890,605
673,1	883,49
673,6	879,29
674	874,748
674,5	874,262
674,9	868,519
675,3	858,405
675,8	855,576
676,2	842,89
676,7	834,776
677,1	828,405
677,5	817,89
678	813,976
678,4	813,319
678,9	809,09
679,3	808,49
679,7	803,176
680,2	800,319
680,6	790,948
681,1	783,748
681,5	778,576
681,9	769,662
682,4	764,405
682,8	757,405
683,3	750,09
683,7	747,433
684,1	739,633
684,6	730,776
685	723,005
685,5	710,319
685,9	700,662
686,3	696,833
686,8	688,205
687,2	687,033
687,7	684,748
688,1	683,062
688,5	685,948
689	689,519
689,4	675,005
689,9	674,376
690,3	667,776
690,7	662,605
691,2	659,576
691,6	652,69
692	645,719
692,5	646,205
692,9	643,49
693,4	640,005
693,8	636,462
694,2	626,719
694,7	623,833
695,1	623,319
695,6	620,919
696	614,262
696,4	610,29
696,9	601,776
697,3	602,433
697,8	597,576
698,2	589,548
698,6	583,205
699,1	578,69
699,5	571,919
699,9	567,748
700,4	563,119
700,8	561,776
701,3	556,233
701,7	547,605
702,1	545,205
702,6	539,519
703	537,119
703,5	529,233
703,9	526,719
704,3	525,576
704,8	523,205
705,2	519,405
705,6	518,148
706,1	512,69
706,5	512,005
707	509,262
707,4	506,862
707,8	510,776
708,3	505,033
708,7	504,576
709,2	510,662
709,6	510,748
710	503,233
710,5	496,319
710,9	492,262
711,3	492,462
711,8	485,833
712,2	475,49
712,7	469,119
713,1	463,69
713,5	463,033
714	455,576
714,4	447,662
714,8	446,405
715,3	445,348
715,7	441,49
716,2	440,405
716,6	435,233
717	434,462
717,5	432,862
717,9	424,148
718,3	420,833
718,8	419,862
719,2	412,319
719,7	410,176
720,1	406,576
720,5	403,319
721	404,862
721,4	399,233
721,8	394,548
722,3	398,633
722,7	395,805
723,2	397,319
723,6	394,805
724	393,89
724,5	390,605
724,9	389,519
725,3	380,49
725,8	376,376
726,2	367,719
726,7	362,748
727,1	356,319
727,5	351,148
728	336,919
728,4	339,348
728,8	336,348
729,3	337,005
729,7	341,09
730,1	337,919
730,6	341,576
731	345,205
731,5	339,462
731,9	336,662
732,3	335,405
732,8	329,89
733,2	332,862
733,6	331,233
734,1	327,605
734,5	328,576
734,9	322,805
735,4	318,348
735,8	313,976
736,3	304,176
736,7	297,89
737,1	301,005
737,6	296,319
738	301,862
738,4	301,49
738,9	300,119
739,3	308,662
739,7	310,69
740,2	311,462
740,6	312,633
741,1	306,633
741,5	300,548
741,9	301,405
742,4	297,862
742,8	294,548
743,2	289,919
743,7	287,719
744,1	291,748
744,5	290,462
745	288,033
745,4	286,805
745,8	284,176
746,3	282,662
746,7	279,205
747,2	272,376
747,6	272,005
748	272,948
748,5	268,719
748,9	264,89
749,3	267,119
749,8	266,09
750,2	265,548
750,6	263,519
751,1	261,519
751,5	263,519
751,9	265,576
752,4	263,062
752,8	264,519
753,3	264,376
753,7	264,605
754,1	265,262
754,6	256,776
755	257,662
755,4	258,033
755,9	255,262
756,3	256,633
756,7	258,119
757,2	250,376
757,6	251,262
758	244,605
758,5	240,919
758,9	239,976
759,3	239,605
759,8	230,405
760,2	229,69
760,6	234,919
761,1	237,976
761,5	239,005
761,9	234,233
762,4	231,29
762,8	235,976
763,3	236,948
763,7	229,29
764,1	225,233
764,6	215,748
765	216,433
765,4	214,605
765,9	216,09
766,3	214,09
766,7	216,462
767,2	217,919
767,6	221,976
768	214,633
768,5	211,548
768,9	206,29
769,3	204,462
769,8	203,09
770,2	198,833
770,6	195,662
771,1	199,576
771,5	201,519
771,9	200,833
772,4	199,176
772,8	195,29
773,2	198,148
773,7	197,148
774,1	199,948
774,5	196,69
775	193,433
775,4	192,376
775,8	188,89
776,3	186,119
776,7	184,862
777,1	177,176
777,6	172,862
778	172,862
778,4	171,69
778,9	173,348
779,3	174,005
779,7	177,119
780,2	178,119
780,6	182,176
781	181,262
781,5	180,519
781,9	178,319
782,3	174,69
782,8	172,862
783,2	170,433
783,6	166,376
784,1	168,376
784,5	167,376
784,9	165,433
785,4	165,919
785,8	161,805
786,2	163,233
786,7	161,89
787,1	163,005
787,5	163,948
788	160,89
788,4	163,09
788,8	159,976
789,3	162,233
789,7	160,205
790,1	160,176
790,6	155,776
791	158,348
791,4	154,976
791,9	155,262
792,3	152,833
792,7	156,433
793,2	155,376
793,6	153,462
794	155,376
794,5	156,262
794,9	160,605
795,3	159,519
795,8	158,833
796,2	152,49
796,6	156,805
797,1	154,605
797,5	147,319
797,9	142,948
798,4	141,09
798,8	140,776
799,2	140,633
799,7	135,976
800,1	137,519
800,5	141,376
801	141,205
801,4	142,805
801,8	138,319
802,2	138,719
802,7	140,805
803,1	135,09
803,5	130,833
804	129,205
804,4	124,433
804,8	127,233
805,3	125,29
805,7	126,976
806,1	125,205
806,6	129,519
807	128,576
807,4	131,548
807,9	127,976
808,3	129,49
808,7	127,376
809,2	127,719
809,6	124,805
810	128,719
810,4	124,976
810,9	127,319
811,3	125,148
811,7	123,148
812,2	122,005
812,6	123,119
813	118,29
813,5	118,69
813,9	116,176
814,3	114,576
814,8	113,233
815,2	117,233
815,6	113,776
816,1	115,919
816,5	116,69
816,9	117,719
817,3	116,319
817,8	121,776
818,2	117,033
818,6	120,176
819,1	115,605
819,5	114,348
819,9	113,948
820,4	120,805
820,8	115,262
821,2	114,633
821,7	107,833
822,1	107,033
822,5	110,262
822,9	105,719
823,4	97,89
823,8	94,833
824,2	96,719
824,7	97,262
825,1	95,662
825,5	90,719
826	86,548
826,4	87,776
826,8	86,405
827,3	87,376
827,7	88,69
828,1	89,833
828,5	95,633
829	98,576
829,4	92,833
829,8	97,376
830,3	95,833
830,7	94,662
831,1	96,119
831,6	90,862
832	92,319
832,4	94,633
832,8	91,49
833,3	89,833
833,7	84,405
834,1	83,005
834,6	80,805
835	80,376
835,4	80,519
835,8	80,662
836,3	79,233
836,7	80,576
837,1	77,976
837,6	74,262
838	71,033
838,4	70,605
838,9	70,833
839,3	71,29
839,7	76,433
840,1	81,462
840,6	85,262
841	88,033
841,4	87,319
841,9	88,176
842,3	85,119
842,7	81,462
843,1	76,376
843,6	75,462
844	74,319
844,4	77,919
844,9	74,519
845,3	77,348
845,7	75,69
846,2	78,948
846,6	76,29
847	77,519
847,4	77,519
847,9	80,233
848,3	75,719
848,7	76,862
849,2	72,519
849,6	74,576
850	73,748
850,4	69,776
850,9	67,433
851,3	72,919
851,7	71,519
852,2	70,433
852,6	70,405
853	70,919
853,4	71,49
853,9	68,548
854,3	67,205
854,7	71,719
855,2	75,233
855,6	73,005
856	75,348
856,4	75,148
856,9	77,776
857,3	75,948
857,7	71,29
858,2	70,262
858,6	67,69
859	61,405
859,4	60,462
859,9	58,89
860,3	57,89
860,7	55,605
861,1	56,519
861,6	62,376
862	63,605
862,4	58,576
862,9	59,576
863,3	59,062
863,7	59,548
864,1	58,662
864,6	59,062
865	55,062
865,4	56,205
865,9	55,205
866,3	57,433
866,7	57,119
867,1	54,548
867,6	52,919
868	51,605
868,4	51,462
868,8	48,548
869,3	49,005
869,7	54,405
870,1	58,233
870,6	53,605
871	102,805
871,4	105,176
871,8	108,376
872,3	104,348
872,7	93,862
873,1	89,176
873,5	92,376
874	46,233
874,4	45,376
874,8	44,262
875,3	43,433
875,7	49,033
876,1	51,69
876,5	49,833
877	48,49
877,4	48,948
877,8	49,319
878,2	52,119
878,7	53,519
879,1	50,519
879,5	52,148
879,9	49,348
880,4	44,462
880,8	46,319
881,2	43,405
881,7	41,319
882,1	41,433
882,5	39,09
882,9	41,748
883,4	48,462
883,8	45,062
884,2	48,69
884,6	47,576
885,1	46,633
885,5	43,662
885,9	44,89
886,3	44,148
886,8	49,205
887,2	43,205
887,6	43,433
888	42,976
888,5	46,548
888,9	43,462
889,3	38,005
889,8	35,09
890,2	34,919
890,6	38,605
891	41,005
891,5	41,633
891,9	39,29
892,3	47,976
892,7	43,462
893,2	46,576
893,6	40,948
894	42,148
894,4	41,033
894,9	44,662
895,3	39,005
895,7	38,862
896,1	36,548
896,6	39,005
897	42,319
897,4	41,09
897,8	41,605
898,3	44,119
898,7	46,433
899,1	46,919
899,5	46,548
900	41,862
900,4	40,033
900,8	33,862
901,2	26,89
901,7	30,69
902,1	31,433
902,5	29,262
902,9	27,29
903,4	31,748
903,8	32,005
904,2	37,205
904,6	29,605
905,1	31,89
905,5	33,862
905,9	35,005
906,3	32,176
906,8	33,205
907,2	33,548
907,6	39,976
908	36,262
908,5	31,69
908,9	30,319
909,3	35,662
909,7	39,348
910,2	37,376
910,6	34,433
911	37,176
911,4	42,033
911,9	40,776
912,3	35,776
912,7	41,205
913,1	40,633
913,6	41,862
914	43,005
914,4	45,233
914,8	47,005
915,3	44,805
915,7	43,319
916,1	41,89
916,5	38,862
916,9	34,948
917,4	33,633
917,8	33,405
918,2	42,205
918,6	36,776
919,1	37,69
919,5	40,662
919,9	41,519
920,3	40,29
920,8	41,776
921,2	36,805
921,6	37,719
922	33,119
922,5	34,033
922,9	34,033
923,3	34,49
923,7	34,976
924,2	32,348
924,6	32,433
925	40,776
925,4	38,29
925,8	39,176
926,3	36,233
926,7	32,49
927,1	33,49
927,5	33,576
928	30,376
928,4	29,348
928,8	32,862
929,2	35,948
929,7	41,49
930,1	41,89
930,5	40,633
930,9	40,776
931,3	46,862
931,8	45,548
932,2	42,462
932,6	38,833
933	35,348
933,5	39,776
933,9	43,776
934,3	39,519
934,7	36,462
935,2	35,176
935,6	31,376
936	30,233
936,4	25,662
936,8	24,005
937,3	23,348
937,7	24,833
938,1	31,919
938,5	35,576
939	37,49
939,4	36,49
939,8	31,005
940,2	28,405
940,6	26,005
941,1	19,805
941,5	20,433
941,9	20,805
942,3	24,005
942,8	25,033
943,2	21,862
943,6	20,69
944	20,462
944,4	18,405
944,9	15,919
945,3	17,633
945,7	18,319
946,1	21,948
946,6	25,348
947	26,49
947,4	23,09
947,8	26,69
948,2	24,833
948,7	25,69
949,1	26,605
949,5	22,633
949,9	22,576
950,3	20,633
950,8	20,662
951,2	19,576
951,6	21,205
952	19,405
952,5	18,005
952,9	17,605
953,3	23,633
953,7	21,205
954,1	22,862
954,6	23,976
955	25,348
955,4	26,919
955,8	33,433
956,2	29,862
956,7	32,119
957,1	31,462
957,5	27,062
957,9	26,348
958,3	30,433
958,8	27,49
959,2	32,948
959,6	36,462
960	32,119
960,5	34,662
960,9	36,433
961,3	35,776
961,7	39,062
962,1	36,09
962,6	31,805
963	40,29
963,4	42,548
963,8	36,89
964,2	34,976
964,7	31,376
965,1	33,033
965,5	36,662
965,9	30,69
966,3	29,119
966,8	32,662
967,2	36,662
967,6	32,376
968	34,833
968,4	36,719
968,9	36,205
969,3	33,605
969,7	33,148
970,1	29,09
970,5	30,233
971	27,548
971,4	21,833
971,8	23,062
972,2	23,919
972,6	24,69
973,1	26,033
973,5	28,005
973,9	23,29
974,3	28,948
974,7	26,376
975,2	25,862
975,6	22,976
976	21,633
976,4	18,719
976,8	23,548
977,3	14,805
977,7	16,148
978,1	15,576
978,5	18,976
978,9	20,405
979,4	21,605
979,8	20,205
980,2	25,633
980,6	30,062
981	26,89
981,5	27,433
981,9	29,205
982,3	26,919
982,7	25,748
983,1	24,262
983,6	20,205
984	25,49
984,4	21,948
984,8	18,49
985,2	23,633
985,6	24,919
986,1	21,89
986,5	21,519
986,9	16,033
987,3	18,662
987,7	21,176
988,2	15,605
988,6	13,576
989	15,576
989,4	15,605
989,8	21,148
990,3	20,49
990,7	21,633
991,1	22,348
991,5	26,262
991,9	26,148
992,3	28,119
992,8	26,405
993,2	27,005
993,6	24,09
994	26,948
994,4	30,176
994,9	31,205
995,3	33,49
995,7	33,69
996,1	33,233
996,5	28,662
996,9	34,862
997,4	29,119
997,8	27,633
998,2	24,205
998,6	24,348
999	26,605
999,5	28,776
999,9	21,29
1000,3	21,348
1000,7	25,662
1001,1	24,119
1001,5	27,205
1002	25,205
1002,4	27,062
1002,8	32,49
1003,2	30,548
1003,6	27,462
1004	32,605
1004,5	27,49
1004,9	25,576
1005,3	24,119
1005,7	24,748
1006,1	24,033
1006,6	27,005
1007	19,633
1007,4	19,633
1007,8	20,148
1008,2	25,376
1008,6	18,633
1009,1	23,233
1009,5	21,919
1009,9	30,319
1010,3	32,49
1010,7	35,148
1011,1	33,862
1011,6	36,862
1012	36,576
1012,4	35,462
1012,8	27,29
1013,2	22,548
1013,6	23,633
1014,1	18,633
1014,5	17,29
1014,9	12,89
1015,3	11,89
1015,7	14,576
1016,1	19,348
1016,6	17,719
1017	19,233
1017,4	19,176
1017,8	28,405
1018,2	28,89
1018,6	30,49
1019,1	28,462
1019,5	29,69
1019,9	30,776
1020,3	32,205
1020,7	28,348
1021,1	25,919
1021,6	25,119
1022	24,033
1022,4	20,462
1022,8	17,49
1023,2	16,462
1023,6	12,919
1024,1	16,805
1024,5	19,348
1024,9	23,976
1025,3	28,519
1025,7	29,748
1026,1	23,833
1026,6	29,776
1027	27,433
1027,4	26,348
1027,8	24,176
1028,2	24,262
1028,6	22,319
1029	24,976
1029,5	23,119
1029,9	28,462
1030,3	25,233
1030,7	27,948
1031,1	28,062
1031,5	32,462
1032	36,262
1032,4	38,005
1032,8	32,69
1033,2	30,148
1033,6	26,262
1034	18,033
1034,4	15,948
1034,9	17,119
1035,3	15,062
1035,7	18,719
1036,1	31,09
1036,5	26,776
1036,9	35,405
1037,4	38,433
1037,8	32,605
1038,2	34,176
1038,6	30,862
1039	24,49
1039,4	33,776
1039,8	35,976
1040,3	38,89
1040,7	45,919
1041,1	38,462
1041,5	42,605
1041,9	44,69
1042,3	36,662
1042,7	27,576
1043,2	25,605
1043,6	25,433
1044	30,776
1044,4	30,805
1044,8	29,09
1045,2	33,633
1045,6	42,633
1046,1	43,719
1046,5	36,919
1046,9	39,976
1047,3	37,376
1047,7	35,119
1048,1	36,176
1048,5	33,005
1049	28,405
1049,4	29,548
1049,8	27,605
1050,2	25,89
1050,6	27,205
1051	28,976
1051,4	24,348
1051,9	29,233
1052,3	29,148
1052,7	29,805
1053,1	26,262
1053,5	24,748
1053,9	22,376
1054,3	24,69
1054,8	21,033
1055,2	22,519
1055,6	24,262
1056	25,576
1056,4	24,376
1056,8	26,89
1057,2	26,205
1057,6	27,548
1058,1	32,548
1058,5	24,69
1058,9	29,433
1059,3	32,233
1059,7	27,719
1060,1	27,976
1060,5	26,262
1061	18,919
1061,4	20,69
1061,8	18,776
1062,2	17,605
1062,6	18,433
1063	18,205
1063,4	19,805
1063,8	22,519
1064,3	28,805
1064,7	33,376
1065,1	33,005
1065,5	36,719
1065,9	39,262
1066,3	37,69
1066,7	47,376
1067,1	41,262
1067,6	42,033
1068	47,062
1068,4	46,119
1068,8	46,29
1069,2	46,405
1069,6	35,319
1070	38,862
1070,4	34,862
1070,9	32,548
1071,3	31,519
1071,7	27,948
1072,1	24,605
1072,5	32,49
1072,9	32,319
1073,3	29,433
1073,7	26,033
1074,2	28,205
1074,6	31,919
1075	37,033
1075,4	32,033
1075,8	22,862
1076,2	26,233
1076,6	26,205
1077	27,262
1077,5	27,462
1077,9	25,89
1078,3	22,09
1078,7	25,49
1079,1	23,09
1079,5	23,519
1079,9	23,519
1080,3	22,776
1080,7	23,033
1081,2	24,976
1081,6	25,319
1082	31,205
1082,4	33,576
1082,8	32,805
1083,2	22,919
1083,6	19,833
1084	20,576
1084,5	26,69
1084,9	19,062
1085,3	16,433
1085,7	16,862
1086,1	23,633
1086,5	22,405
1086,9	21,976
1087,3	22,49
1087,7	27,805
1088,2	30,719
1088,6	29,09
1089	33,005
1089,4	37,69
1089,8	37,576
1090,2	34,319
1090,6	30,919
1091	25,405
1091,4	22,005
1091,9	20,49
1092,3	23,976
1092,7	21,376
1093,1	22,319
1093,5	23,176
1093,9	22,29
1094,3	23,348
1094,7	24,148
1095,1	25,262
1095,5	29,148
1096	29,69
1096,4	29,719
1096,8	38,005
1097,2	37,033
1097,6	36,462
1098	27,748
1098,4	28,205
1098,8	28,433
1099,2	27,262
1099,6	25,49
1100,1	26,176
1100,5	24,233
1100,9	24,576
1101,3	21,09
1101,7	20,09
1102,1	20,148
1102,5	14,576
1102,9	9,833
1103,3	10,576
1103,7	13,033
1104,2	12,433
1104,6	10,805
1105	9,776
1105,4	12,805
1105,8	14,719
1106,2	11,719
1106,6	8,576
1107	8,119
1107,4	5,7
1107,8	4,313
1108,3	0,583
