Data from Subt2_00011.txt Node
Date: Mon Aug 28 13:07:16 MSK 2023
User: vat
Spectrometer: MAYP114033
Trigger mode: 0
Integration Time (sec): 1,000000E0
Scans to average: 5
Electric dark correction enabled: true
Nonlinearity correction enabled: false
Boxcar width: 3
XAxis mode: Wavelengths
Number of Pixels in Spectrum: 2068
>>>>>Begin Spectral Data<<<<<
199,4	0,567
199,9	4,707
200,4	4,933
200,8	5,581
201,3	6,181
201,8	9,495
202,2	11,41
202,7	13,781
203,2	9,838
203,6	9,61
204,1	10,267
204,6	12,095
205	10,867
205,5	10,867
206	10,01
206,4	14,352
206,9	15,752
207,4	16,352
207,8	14,324
208,3	14,524
208,8	15,838
209,2	17,695
209,7	18,038
210,2	15,352
210,6	16,981
211,1	12,838
211,5	13,752
212	12,838
212,5	13,867
212,9	11,352
213,4	14,524
213,9	14,981
214,3	19,238
214,8	17,724
215,3	17,181
215,7	14,752
216,2	15,467
216,7	16,781
217,1	12,381
217,6	14,41
218,1	10,095
218,5	7,124
219	5,181
219,5	8,067
219,9	8,61
220,4	10,81
220,9	6,924
221,3	10,638
221,8	12,238
222,3	12,895
222,7	8,924
223,2	6,095
223,6	4,181
224,1	6,924
224,6	8,981
225	9,781
225,5	10,095
226	14,181
226,4	13,381
226,9	15,781
227,4	16,552
227,8	14,438
228,3	14,952
228,8	17,981
229,2	20,438
229,7	19,295
230,2	13,295
230,6	13,067
231,1	17,152
231,5	19,324
232	21,324
232,5	14,895
232,9	15,524
233,4	21,181
233,9	22,667
234,3	14,124
234,8	14,381
235,3	6,067
235,7	3,867
236,2	2,152
236,7	-0,219
237,1	9,152
237,6	14,181
238,1	6,838
238,5	14,181
239	12,838
239,4	15,21
239,9	22,238
240,4	10,867
240,8	12,438
241,3	20,924
241,8	18,095
242,2	20,981
242,7	24,352
243,2	15,838
243,6	23,152
244,1	17,238
244,6	15,895
245	15,867
245,5	16,838
245,9	12,552
246,4	15,381
246,9	7,81
247,3	10,095
247,8	5,495
248,3	8,238
248,7	9,21
249,2	10,81
249,7	11,61
250,1	9,01
250,6	14,152
251	11,124
251,5	10,667
252	7,181
252,4	5,495
252,9	5,238
253,4	13,067
253,8	9,81
254,3	17,067
254,8	17,152
255,2	21,495
255,7	26,781
256,1	30,238
256,6	27,495
257,1	28,038
257,5	24,21
258	17,895
258,5	12,952
258,9	9,01
259,4	5,181
259,9	3,81
260,3	2,81
260,8	3,095
261,2	9,21
261,7	13,781
262,2	13,524
262,6	11,267
263,1	9,095
263,6	8,152
264	8,038
264,5	5,067
264,9	5,352
265,4	2,838
265,9	5,981
266,3	8,981
266,8	9,067
267,3	11,952
267,7	11,152
268,2	10,124
268,7	12,038
269,1	10,438
269,6	13,295
270	16,61
270,5	14,038
271	17,752
271,4	18,01
271,9	22,581
272,4	23,81
272,8	20,01
273,3	15,01
273,7	14,838
274,2	14,095
274,7	8,981
275,1	8,152
275,6	6,01
276,1	4,638
276,5	7,152
277	9,067
277,4	9,238
277,9	12,067
278,4	9,724
278,8	10,181
279,3	11,81
279,8	8,181
280,2	6,524
280,7	2,21
281,1	4,981
281,6	5,352
282,1	5,095
282,5	5,152
283	8,981
283,4	10,352
283,9	14,838
284,4	10,524
284,8	8,981
285,3	12,495
285,8	12,381
286,2	12,838
286,7	14,752
287,1	13,181
287,6	14,781
288,1	17,581
288,5	15,095
289	16,81
289,5	16,495
289,9	17,01
290,4	17,41
290,8	20,352
291,3	20,495
291,8	22,467
292,2	19,924
292,7	21,324
293,1	20,524
293,6	16,438
294,1	16,981
294,5	17,352
295	16,838
295,5	16,867
295,9	15,267
296,4	15,381
296,8	21,524
297,3	17,61
297,8	9,61
298,2	10,638
298,7	8,124
299,1	11,238
299,6	9,095
300,1	9,01
300,5	9,381
301	16,124
301,5	12,552
301,9	12,81
302,4	8,981
302,8	9,752
303,3	8,41
303,8	13,895
304,2	8,867
304,7	12,867
305,1	17,524
305,6	18,838
306,1	20,324
306,5	17,838
307	13,638
307,4	13,924
307,9	11,695
308,4	8,467
308,8	8,781
309,3	11,21
309,8	14,352
310,2	16,695
310,7	19,552
311,1	19,01
311,6	21,381
312,1	18,838
312,5	13,295
313	9,952
313,4	15,581
313,9	14,381
314,4	15,267
314,8	12,752
315,3	19,238
315,7	19,267
316,2	22,41
316,7	10,324
317,1	9,981
317,6	9,61
318	13,41
318,5	7,838
319	10,752
319,4	11,581
319,9	14,324
320,3	17,638
320,8	21,352
321,3	17,324
321,7	16,724
322,2	17,867
322,6	11,095
323,1	12,695
323,6	15,21
324	14,867
324,5	16,21
324,9	18,067
325,4	17,981
325,9	23,524
326,3	25,467
326,8	20,467
327,2	17,352
327,7	15,495
328,2	14,495
328,6	11,267
329,1	10,838
329,5	5,067
330	7,095
330,5	5,038
330,9	6,324
331,4	10,067
331,8	11,581
332,3	12,067
332,8	16,552
333,2	17,238
333,7	14,695
334,1	16,01
334,6	14,495
335,1	16,438
335,5	14,667
336	13,267
336,4	17,438
336,9	22,724
337,4	22,21
337,8	20,895
338,3	17,981
338,7	20,495
339,2	21,895
339,7	18,095
340,1	11,152
340,6	8,752
341	7,067
341,5	5,752
342	1,21
342,4	3,552
342,9	2,667
343,3	9,638
343,8	9,324
344,2	12,267
344,7	16,181
345,2	16,952
345,6	15,61
346,1	15,152
346,5	16,095
347	18,038
347,5	18,152
347,9	16,067
348,4	15,01
348,8	12,124
349,3	18,695
349,8	16,724
350,2	19,381
350,7	17,41
351,1	18,267
351,6	24,895
352	29,352
352,5	28,295
353	32,067
353,4	41,352
353,9	48,81
354,3	58,038
354,8	67,181
355,3	81,981
355,7	89,724
356,2	102,867
356,6	115,695
357,1	137,238
357,5	154,81
358	176,095
358,5	201,952
358,9	238,324
359,4	278,038
359,8	320,381
360,3	363,295
360,8	417,61
361,2	477,638
361,7	540,524
362,1	605,981
362,6	680,181
363	753,924
363,5	842,095
364	933,895
364,4	1022,238
364,9	1110,038
365,3	1204,724
365,8	1290,038
366,3	1373,21
366,7	1446,695
367,2	1512,524
367,6	1567,695
368,1	1611,638
368,5	1637,381
369	1652,581
369,5	1654,838
369,9	1637,01
370,4	1606,067
370,8	1567,295
371,3	1516,01
371,7	1462,181
372,2	1402,867
372,7	1333,01
373,1	1265,181
373,6	1191,41
374	1118,81
374,5	1047,295
374,9	970,752
375,4	892,038
375,9	825,295
376,3	761,552
376,8	702,867
377,2	646,724
377,7	600,095
378,2	557,667
378,6	520,524
379,1	481,667
379,5	441,667
380	405,381
380,4	376,667
380,9	341,638
381,4	316,724
381,8	292,581
382,3	269,124
382,7	253,095
383,2	237,667
383,6	220,181
384,1	207,21
384,6	195,41
385	184,952
385,5	174,838
385,9	165,667
386,4	155,038
386,8	147,61
387,3	140,81
387,7	127,924
388,2	116,867
388,7	108,952
389,1	95,81
389,6	93,295
390	87,438
390,5	82,067
390,9	76,295
391,4	71,124
391,9	70,038
392,3	74,41
392,8	73,752
393,2	69,61
393,7	64,152
394,1	62,438
394,6	65,638
395,1	66,724
395,5	61,324
396	55,01
396,4	50,61
396,9	51,924
397,3	51,981
397,8	44,838
398,2	41,695
398,7	44,324
399,2	47,324
399,6	51,438
400,1	53,41
400,5	57,238
401	65,038
401,4	69,724
401,9	68,095
402,4	69,467
402,8	68,41
403,3	70,81
403,7	68,267
404,2	66,352
404,6	63,838
405,1	70,952
405,5	71,552
406	74,638
406,5	74,781
406,9	78,095
407,4	81,067
407,8	85,524
408,3	85,895
408,7	87,752
409,2	92,267
409,6	98,238
410,1	104,895
410,6	114,695
411	121,467
411,5	131,495
411,9	146,352
412,4	156,324
412,8	164,238
413,3	174,838
413,7	184,638
414,2	189,467
414,7	198,067
415,1	207,438
415,6	223,124
416	239,01
416,5	253,01
416,9	271,067
417,4	296,124
417,8	313,781
418,3	331,324
418,8	347,381
419,2	365,838
419,7	387,552
420,1	401,81
420,6	415,895
421	440,695
421,5	467,581
421,9	494,867
422,4	525,324
422,8	550,41
423,3	585,495
423,8	615,895
424,2	644,581
424,7	670,981
425,1	705,038
425,6	740,695
426	772,181
426,5	809,267
426,9	859,467
427,4	905,838
427,9	953,01
428,3	1003,467
428,8	1049,267
429,2	1111,181
429,7	1165,095
430,1	1221,952
430,6	1285,61
431	1355,124
431,5	1421,895
431,9	1495,038
432,4	1569,524
432,8	1651,467
433,3	1741,067
433,8	1834,695
434,2	1927,752
434,7	2023,067
435,1	2130,924
435,6	2237,438
436	2353,095
436,5	2465,495
436,9	2586,695
437,4	2710,152
437,8	2838,21
438,3	2969,067
438,8	3113,781
439,2	3261,181
439,7	3408,295
440,1	3555,667
440,6	3716,01
441	3886,895
441,5	4065,467
441,9	4240,01
442,4	4412,352
442,8	4606,81
443,3	4812,324
443,7	5013,838
444,2	5218,21
444,7	5435,038
445,1	5663,124
445,6	5901,238
446	6139,295
446,5	6369,467
446,9	6618,724
447,4	6879,267
447,8	7134,41
448,3	7394,81
448,7	7656,324
449,2	7925,21
449,6	8215,952
450,1	8506,61
450,6	8799,524
451	9096,895
451,5	9408,752
451,9	9731,181
452,4	10054,81
452,8	10378,952
453,3	10706,438
453,7	11042,267
454,2	11385,295
454,6	11732,038
455,1	12086,581
455,5	12428,924
456	12776,495
456,4	13138,381
456,9	13499,324
457,3	13862,581
457,8	14229,067
458,3	14589,924
458,7	14975,352
459,2	15366,067
459,6	15749,095
460,1	16145,552
460,5	16529,724
461	16926,695
461,4	17323,695
461,9	17710,467
462,3	18091,067
462,8	18481,067
463,2	18870,21
463,7	19269,067
464,1	19651,238
464,6	20040,124
465	20441,267
465,5	20835,038
466	21232,181
466,4	21606,81
466,9	21985,667
467,3	22368,495
467,8	22764,61
468,2	23133,581
468,7	23516,724
469,1	23881,467
469,6	24260,41
470	24628,324
470,5	24988,895
470,9	25324,495
471,4	25669,81
471,8	26006,324
472,3	26343,724
472,7	26672,838
473,2	27014,324
473,6	27348,067
474,1	27674,695
474,5	27997,467
475	28308,695
475,4	28603,952
475,9	28902,667
476,4	29171,752
476,8	29438,524
477,3	29702,981
477,7	29972,667
478,2	30211,238
478,6	30454,41
479,1	30675,21
479,5	30904,41
480	31109,552
480,4	31308,981
480,9	31497,067
481,3	31693,495
481,8	31877,724
482,2	32039,924
482,7	32207,124
483,1	32366,267
483,6	32502,01
484	32612,095
484,5	32720,038
484,9	32818,21
485,4	32910,324
485,8	32976,238
486,3	33039,495
486,7	33104,924
487,2	33167,81
487,6	33214,895
488,1	33253,752
488,5	33279,181
489	33303,695
489,4	33320,438
489,9	33323,752
490,4	33301,295
490,8	33292,952
491,3	33271,781
491,7	33258,61
492,2	33206,867
492,6	33141,695
493,1	33071,752
493,5	33007,924
494	32914,867
494,4	32808,381
494,9	32697,581
495,3	32607,952
495,8	32510,581
496,2	32400,581
496,7	32288,81
497,1	32186,21
497,6	32071,495
498	31959,352
498,5	31830,295
498,9	31683,324
499,4	31549,524
499,8	31395,095
500,3	31231,695
500,7	31086,638
501,2	30924,752
501,6	30757,067
502,1	30593,695
502,5	30411,495
503	30252,81
503,4	30092,695
503,9	29895,838
504,3	29708,01
504,8	29510,295
505,2	29314,867
505,7	29117,352
506,1	28907,352
506,6	28681,638
507	28482,467
507,5	28259,352
507,9	28054,61
508,4	27851,238
508,8	27633,981
509,3	27409,152
509,7	27179,152
510,2	26949,352
510,6	26736,638
511,1	26509,21
511,5	26274,238
512	26053,724
512,4	25821,438
512,9	25586,267
513,3	25347,381
513,8	25094,752
514,2	24845,095
514,7	24597,01
515,1	24351,867
515,6	24119,924
516	23893,867
516,5	23654,381
516,9	23425,838
517,4	23186,838
517,8	22952,438
518,3	22701,981
518,7	22455,695
519,2	22213,895
519,6	21978,038
520,1	21736,067
520,5	21498,61
521	21255,067
521,4	21036,667
521,9	20808,01
522,3	20584,952
522,8	20347,724
523,2	20118,867
523,7	19907,41
524,1	19693,524
524,6	19471,324
525	19258,952
525,5	19036,81
525,9	18839,21
526,4	18630,695
526,8	18410,61
527,3	18198,381
527,7	17995,381
528,2	17779,124
528,6	17575,152
529,1	17371,867
529,5	17173,124
530	16987,524
530,4	16801,752
530,9	16599,781
531,3	16425,238
531,8	16237,152
532,2	16044,724
532,6	15869,895
533,1	15681,638
533,5	15496,895
534	15324,952
534,4	15136,181
534,9	14973,381
535,3	14802,181
535,8	14618,381
536,2	14454,838
536,7	14288,067
537,1	14122,067
537,6	13959,524
538	13789,295
538,5	13645,41
538,9	13490,838
539,4	13329,467
539,8	13178,467
540,3	13029,81
540,7	12884,638
541,2	12732,61
541,6	12580,152
542,1	12436,238
542,5	12298,267
543	12164,981
543,4	12022,838
543,9	11888,295
544,3	11765,638
544,8	11636,21
545,2	11510,467
545,7	11388,952
546,1	11259,01
546,5	11129,781
547	11009,467
547,4	10878,095
547,9	10763,01
548,3	10642,838
548,8	10520,038
549,2	10403,124
549,7	10306,895
550,1	10194,01
550,6	10092,695
551	9978,752
551,5	9861,524
551,9	9751,838
552,4	9651,21
552,8	9541,838
553,3	9445,867
553,7	9348,552
554,2	9251,552
554,6	9166,01
555,1	9086,152
555,5	8994,467
555,9	8906,552
556,4	8817,352
556,8	8732,01
557,3	8641,667
557,7	8569,495
558,2	8472,495
558,6	8385,752
559,1	8297,467
559,5	8216,752
560	8140,81
560,4	8058,41
560,9	7977,01
561,3	7907,924
561,8	7836,895
562,2	7755,124
562,7	7672,981
563,1	7587,981
563,6	7519,124
564	7437,524
564,4	7360,667
564,9	7290,581
565,3	7231,181
565,8	7167,61
566,2	7106,01
566,7	7037,695
567,1	6975,867
567,6	6908,524
568	6841,581
568,5	6782,038
568,9	6720,867
569,4	6656,381
569,8	6596,581
570,3	6534,924
570,7	6474,867
571,1	6419,838
571,6	6359,838
572	6300,067
572,5	6235,524
572,9	6185,952
573,4	6131,552
573,8	6079,61
574,3	6017,838
574,7	5963,581
575,2	5915,095
575,6	5871,981
576,1	5814,781
576,5	5763,352
576,9	5710,095
577,4	5666,01
577,8	5616,324
578,3	5568,924
578,7	5515,495
579,2	5470,695
579,6	5426,952
580,1	5382,467
580,5	5333,524
581	5287,867
581,4	5236,838
581,9	5196,41
582,3	5150,181
582,7	5102,438
583,2	5060,867
583,6	5016,352
584,1	4973,21
584,5	4931,152
585	4889,267
585,4	4844,067
585,9	4802,924
586,3	4762,152
586,8	4723,61
587,2	4688,324
587,6	4647,124
588,1	4603,952
588,5	4565,067
589	4523,667
589,4	4479,352
589,9	4442,895
590,3	4400,695
590,8	4368,781
591,2	4337,61
591,7	4304,41
592,1	4278,01
592,5	4253,038
593	4224,61
593,4	4196,181
593,9	4164,067
594,3	4131,467
594,8	4105,924
595,2	4076,41
595,7	4042,381
596,1	4015,181
596,6	3985,438
597	3960,552
597,4	3933,638
597,9	3901,21
598,3	3868,924
598,8	3844,952
599,2	3811,238
599,7	3786,124
600,1	3755,067
600,6	3727,181
601	3704,695
601,4	3679,41
601,9	3654,41
602,3	3634,181
602,8	3612,667
603,2	3584,981
603,7	3560,638
604,1	3536,095
604,6	3515,095
605	3485,895
605,4	3454,638
605,9	3425,181
606,3	3407,695
606,8	3382,838
607,2	3353,238
607,7	3329,381
608,1	3307,781
608,6	3289,838
609	3264,324
609,4	3235,924
609,9	3218,181
610,3	3200,038
610,8	3177,752
611,2	3156,124
611,7	3130,638
612,1	3108,81
612,6	3084,581
613	3051,867
613,4	3030,81
613,9	3010,781
614,3	2990,181
614,8	2967,695
615,2	2947,581
615,7	2928,667
616,1	2910,295
616,6	2891,524
617	2862,438
617,4	2835,924
617,9	2815,181
618,3	2793,781
618,8	2775,524
619,2	2761,41
619,7	2735,81
620,1	2714,867
620,5	2701,781
621	2683,495
621,4	2663,924
621,9	2638,41
622,3	2617,581
622,8	2601,638
623,2	2589,781
623,6	2571,324
624,1	2555,238
624,5	2540,295
625	2524,752
625,4	2508,238
625,9	2489,41
626,3	2473,295
626,8	2459,124
627,2	2440,067
627,6	2417,81
628,1	2402,524
628,5	2383,181
629	2372,038
629,4	2348,124
629,9	2325,781
630,3	2302,295
630,7	2288,81
631,2	2272,667
631,6	2251,581
632,1	2230,695
632,5	2218,552
633	2202,867
633,4	2190,838
633,8	2170,638
634,3	2147,924
634,7	2134,724
635,2	2115,381
635,6	2095,924
636,1	2076,467
636,5	2064,267
636,9	2052,095
637,4	2044,924
637,8	2032,752
638,3	2022,01
638,7	2007,381
639,2	1993,267
639,6	1975,095
640	1957,581
640,5	1947,981
640,9	1934,895
641,4	1924,61
641,8	1911,638
642,2	1900,067
642,7	1890,01
643,1	1880,095
643,6	1863,952
644	1851,095
644,5	1836,981
644,9	1825,267
645,3	1814,781
645,8	1802,81
646,2	1790,324
646,7	1778,352
647,1	1762,581
647,6	1748,41
648	1737,438
648,4	1728,067
648,9	1717,752
649,3	1707,895
649,8	1695,067
650,2	1687,095
650,6	1672,952
651,1	1662,61
651,5	1650,095
652	1640,095
652,4	1626,01
652,9	1616,01
653,3	1598,638
653,7	1587,41
654,2	1577,238
654,6	1563,41
655,1	1549,124
655,5	1541,152
655,9	1528,695
656,4	1521,838
656,8	1511,838
657,3	1500,581
657,7	1489,667
658,2	1481,21
658,6	1471,467
659	1463,981
659,5	1453,981
659,9	1445,181
660,4	1441,095
660,8	1432,267
661,2	1417,381
661,7	1402,41
662,1	1386,438
662,6	1374,238
663	1363,181
663,4	1350,381
663,9	1340,41
664,3	1330,181
664,8	1320,01
665,2	1315,552
665,6	1304,295
666,1	1294,838
666,5	1283,067
667	1272,095
667,4	1267,181
667,9	1262,581
668,3	1252,21
668,7	1245,01
669,2	1234,01
669,6	1222,324
670,1	1214,352
670,5	1206,467
670,9	1197,152
671,4	1183,295
671,8	1175,61
672,3	1170,21
672,7	1162,038
673,1	1153,952
673,6	1147,838
674	1135,41
674,5	1131,095
674,9	1123,524
675,3	1115,324
675,8	1108,61
676,2	1098,324
676,7	1087,724
677,1	1081,467
677,5	1076,038
678	1071,752
678,4	1067,01
678,9	1060,895
679,3	1057,781
679,7	1049,01
680,2	1045,21
680,6	1034,238
681,1	1020,21
681,5	1010,781
681,9	996,467
682,4	988,781
682,8	978,524
683,3	972,924
683,7	966,238
684,1	962,41
684,6	951,41
685	949,895
685,5	935,067
685,9	926,095
686,3	916,667
686,8	913,724
687,2	905,01
687,7	900,838
688,1	891,352
688,5	886,381
689	887,095
689,4	878,638
689,9	869,324
690,3	865,895
690,7	860,552
691,2	857,581
691,6	852,81
692	846,181
692,5	838,667
692,9	833,752
693,4	829,552
693,8	824,038
694,2	818,352
694,7	810,724
695,1	807,067
695,6	805,267
696	797,981
696,4	789,038
696,9	783,895
697,3	779,895
697,8	776,552
698,2	767,295
698,6	759,324
699,1	755,01
699,5	752,895
699,9	743,324
700,4	733,667
700,8	731,838
701,3	726,238
701,7	719,438
702,1	714,181
702,6	701,438
703	701,724
703,5	696,895
703,9	693,181
704,3	687,981
704,8	684,181
705,2	676,438
705,6	675,352
706,1	664,781
706,5	662,781
707	655,352
707,4	653,21
707,8	648,667
708,3	646,495
708,7	639,695
709,2	639,752
709,6	635,181
710	627,495
710,5	618,924
710,9	614,552
711,3	611,181
711,8	605,352
712,2	599,438
712,7	591,81
713,1	589,895
713,5	588,467
714	585,438
714,4	578,41
714,8	579,695
715,3	576,352
715,7	573,067
716,2	572,981
716,6	564,81
717	564,238
717,5	556,924
717,9	551,067
718,3	546,895
718,8	540,752
719,2	533,981
719,7	535,981
720,1	530,381
720,5	531,552
721	530,124
721,4	524,238
721,8	522,895
722,3	519,438
722,7	509,724
723,2	504,41
723,6	500,324
724	495,352
724,5	490,352
724,9	485,238
725,3	476,752
725,8	471,952
726,2	466,752
726,7	459,152
727,1	454,324
727,5	451,181
728	439,667
728,4	442,381
728,8	438,467
729,3	435,181
729,7	436,352
730,1	432,524
730,6	434,267
731	441,381
731,5	437,495
731,9	439,495
732,3	442,381
732,8	439,581
733,2	441,552
733,6	439,381
734,1	435,124
734,5	434,895
734,9	426,981
735,4	420,781
735,8	416,495
736,3	411,181
736,7	404,095
737,1	402,61
737,6	394,524
738	397,838
738,4	393,381
738,9	393,667
739,3	395,695
739,7	400,095
740,2	396,238
740,6	395,381
741,1	390,21
741,5	387,581
741,9	383,867
742,4	382,838
742,8	376,495
743,2	375,152
743,7	370,01
744,1	371,895
744,5	371,238
745	369,438
745,4	363,781
745,8	360,867
746,3	358,352
746,7	358,752
747,2	349,21
747,6	351,581
748	351,152
748,5	347,952
748,9	341,067
749,3	343,067
749,8	341,552
750,2	340,238
750,6	330,438
751,1	328,238
751,5	326,781
751,9	330,895
752,4	329,495
752,8	328,181
753,3	326,067
753,7	327,381
754,1	326,495
754,6	318,381
755	313,41
755,4	310,438
755,9	311,495
756,3	313,467
756,7	310,695
757,2	302,952
757,6	302,695
758	300,124
758,5	292,752
758,9	283,638
759,3	280,724
759,8	277,61
760,2	277,152
760,6	282,981
761,1	286,752
761,5	288,981
761,9	290,21
762,4	289,667
762,8	289,324
763,3	287,038
763,7	281,581
764,1	273,21
764,6	266,61
765	268,267
765,4	269,667
765,9	269,095
766,3	268,095
766,7	267,01
767,2	269,352
767,6	268,895
768	258,838
768,5	254,695
768,9	249,867
769,3	249,324
769,8	244,21
770,2	241,524
770,6	243,124
771,1	241,01
771,5	238,01
771,9	232,295
772,4	231,067
772,8	231,924
773,2	229,01
773,7	224,552
774,1	233,724
774,5	227,01
775	230,724
775,4	224,895
775,8	223,067
776,3	224,867
776,7	224,981
777,1	219,981
777,6	220,352
778	220,21
778,4	222,267
778,9	218,781
779,3	214,952
779,7	212,752
780,2	211,238
780,6	215,267
781	212,01
781,5	211,21
781,9	211,924
782,3	209,981
782,8	215,981
783,2	210,895
783,6	206,381
784,1	206,667
784,5	204,695
784,9	202,581
785,4	204,267
785,8	195,267
786,2	195,295
786,7	191,867
787,1	195,781
787,5	194,41
788	188,981
788,4	186,667
788,8	186,667
789,3	186,581
789,7	187,067
790,1	182,267
790,6	180,724
791	180,352
791,4	181,552
791,9	178,324
792,3	178,21
792,7	178,01
793,2	179,667
793,6	181,495
794	187,638
794,5	183,467
794,9	186,724
795,3	185,952
795,8	187,638
796,2	174,724
796,6	172,61
797,1	167,038
797,5	165,638
797,9	166,752
798,4	164,924
798,8	161,21
799,2	169,581
799,7	166,695
800,1	167,552
800,5	170,324
801	167,495
801,4	167,838
801,8	167,295
802,2	163,81
802,7	163,41
803,1	160,952
803,5	155,81
804	148,352
804,4	146,181
804,8	147,981
805,3	147,124
805,7	145,524
806,1	140,381
806,6	145,667
807	147,01
807,4	145,952
807,9	141,581
808,3	139,438
808,7	141,01
809,2	142,124
809,6	133,152
810	130,267
810,4	128,01
810,9	127,438
811,3	126,238
811,7	123,038
812,2	122,038
812,6	124,01
813	129,21
813,5	130,952
813,9	131,41
814,3	130,095
814,8	128,838
815,2	130,01
815,6	129,752
816,1	128,552
816,5	128,21
816,9	125,067
817,3	123,152
817,8	125,638
818,2	123,238
818,6	120,838
819,1	118,552
819,5	111,495
819,9	115,152
820,4	120,495
820,8	114,924
821,2	116,638
821,7	111,838
822,1	109,238
822,5	115,838
822,9	111,752
823,4	108,924
823,8	108,667
824,2	105,781
824,7	111,152
825,1	109,695
825,5	103,838
826	99,752
826,4	95,838
826,8	94,238
827,3	94,21
827,7	93,467
828,1	97,124
828,5	101,695
829	105,01
829,4	104,181
829,8	106,324
830,3	103,838
830,7	98,324
831,1	95,667
831,6	87,238
832	84,667
832,4	85,352
832,8	80,267
833,3	81,21
833,7	80,381
834,1	81,524
834,6	82,781
835	82,895
835,4	81,41
835,8	84,667
836,3	85,752
836,7	90,867
837,1	89,21
837,6	86,438
838	85,61
838,4	85,095
838,9	88,238
839,3	86,038
839,7	84,01
840,1	86,438
840,6	93,238
841	88,352
841,4	88,352
841,9	85,438
842,3	84,01
842,7	78,152
843,1	75,781
843,6	71,01
844	76,095
844,4	79,438
844,9	78,495
845,3	79,695
845,7	79,695
846,2	77,124
846,6	79,152
847	79,724
847,4	75,01
847,9	73,438
848,3	69,152
848,7	72,495
849,2	70,067
849,6	68,01
850	66,295
850,4	66,581
850,9	67,981
851,3	70,21
851,7	65,81
852,2	63,867
852,6	61,495
853	62,21
853,4	59,638
853,9	57,695
854,3	58,295
854,7	63,067
855,2	65,124
855,6	65,21
856	67,381
856,4	68,324
856,9	66,381
857,3	64,095
857,7	64,724
858,2	63,095
858,6	61,838
859	61,21
859,4	63,381
859,9	62,867
860,3	62,124
860,7	58,867
861,1	65,01
861,6	71,81
862	66,01
862,4	63,324
862,9	65,238
863,3	64,238
863,7	61,981
864,1	59,324
864,6	55,21
865	54,867
865,4	54,41
865,9	53,067
866,3	54,067
866,7	52,495
867,1	50,895
867,6	48,695
868	49,495
868,4	49,067
868,8	46,552
869,3	46,752
869,7	54,752
870,1	53,152
870,6	51,124
871	104,552
871,4	106,895
871,8	107,867
872,3	106,038
872,7	100,752
873,1	99,638
873,5	102,238
874	51,067
874,4	48,61
874,8	46,524
875,3	45,524
875,7	43,095
876,1	45,895
876,5	44,867
877	42,724
877,4	42,352
877,8	42,324
878,2	48,295
878,7	50,495
879,1	48,81
879,5	46,438
879,9	43,781
880,4	41,41
880,8	45,181
881,2	39,724
881,7	39,81
882,1	38,067
882,5	39,01
882,9	38,438
883,4	38,981
883,8	36,581
884,2	37,267
884,6	33,467
885,1	31,952
885,5	30,524
885,9	31,267
886,3	34,324
886,8	36,81
887,2	33,124
887,6	34,495
888	38,095
888,5	36,552
888,9	32,352
889,3	29,095
889,8	27,81
890,2	27,467
890,6	27,01
891	26,61
891,5	30,81
891,9	33,267
892,3	38,81
892,7	37,095
893,2	42,438
893,6	39,695
894	38,181
894,4	33,495
894,9	35,21
895,3	32,724
895,7	33,181
896,1	28,152
896,6	28,381
897	32,381
897,4	35,438
897,8	37,867
898,3	36,667
898,7	31,867
899,1	35,095
899,5	41,152
900	36,124
900,4	34,552
900,8	27,152
901,2	25,067
901,7	31,552
902,1	32,752
902,5	29,981
902,9	27,438
903,4	28,581
903,8	30,81
904,2	35,895
904,6	32,638
905,1	31,124
905,5	31,124
905,9	30,41
906,3	31,638
906,8	32,61
907,2	25,924
907,6	28,324
908	24,438
908,5	18,867
908,9	21,752
909,3	20,895
909,7	20,238
910,2	20,695
910,6	18,495
911	22,238
911,4	27,895
911,9	26,695
912,3	27,181
912,7	30,295
913,1	29,695
913,6	29,038
914	28,552
914,4	28,267
914,8	29,781
915,3	27,152
915,7	29,181
916,1	31,152
916,5	28,438
916,9	24,552
917,4	23,924
917,8	21,524
918,2	23,21
918,6	15,124
919,1	16,495
919,5	19,724
919,9	23,981
920,3	22,467
920,8	25,781
921,2	24,41
921,6	27,867
922	23,495
922,5	20,038
922,9	22,81
923,3	23,324
923,7	18,41
924,2	17,924
924,6	18,324
925	20,438
925,4	24,924
925,8	21,01
926,3	20,752
926,7	24,61
927,1	27,41
927,5	28,21
928	26,867
928,4	25,381
928,8	26,238
929,2	26,095
929,7	26,095
930,1	21,295
930,5	16,295
930,9	23,267
931,3	27,695
931,8	24,838
932,2	23,552
932,6	20,638
933	18,524
933,5	24,038
933,9	19,181
934,3	14,067
934,7	15,295
935,2	10,152
935,6	9,667
936	10,41
936,4	8,438
936,8	8,752
937,3	10,038
937,7	9,61
938,1	16,324
938,5	16,924
939	21,238
939,4	17,724
939,8	16,324
940,2	12,695
940,6	9,924
941,1	10,724
941,5	14,352
941,9	14,41
942,3	19,295
942,8	16,01
943,2	14,01
943,6	18,438
944	13,067
944,4	10,981
944,9	6,295
945,3	6,152
945,7	8,667
946,1	13,181
946,6	12,038
947	16,352
947,4	12,238
947,8	17,61
948,2	19,267
948,7	18,324
949,1	17,21
949,5	13,61
949,9	10,067
950,3	9,295
950,8	6,667
951,2	3,295
951,6	6,21
952	7,095
952,5	6,981
952,9	7,695
953,3	11,038
953,7	10,61
954,1	11,095
954,6	8,638
955	7,924
955,4	10,038
955,8	15,581
956,2	11,695
956,7	13,324
957,1	12,838
957,5	15,695
957,9	18,981
958,3	19,895
958,8	17,867
959,2	22,867
959,6	26,21
960	26,638
960,5	22,838
960,9	22,238
961,3	20,981
961,7	21,267
962,1	18,267
962,6	13,038
963	13,81
963,4	18,61
963,8	15,41
964,2	16,038
964,7	14,01
965,1	15,038
965,5	18,495
965,9	19,381
966,3	18,21
966,8	15,924
967,2	18,181
967,6	15,095
968	14,867
968,4	15,381
968,9	12,695
969,3	10,695
969,7	8,952
970,1	10,438
970,5	14,695
971	18,952
971,4	12,724
971,8	12,352
972,2	12,181
972,6	16,495
973,1	12,495
973,5	8,124
973,9	3,21
974,3	9,181
974,7	8,438
975,2	7,495
975,6	7,924
976	8,438
976,4	10,124
976,8	13,781
977,3	7,61
977,7	9,324
978,1	15,781
978,5	13,524
978,9	15,381
979,4	15,467
979,8	12,581
980,2	17,581
980,6	20,867
981	13,495
981,5	16,295
981,9	14,381
982,3	11,21
982,7	12,61
983,1	7,981
983,6	3,61
984	4,867
984,4	-0,105
984,8	-0,705
985,2	5,895
985,6	7,981
986,1	7,181
986,5	8,581
986,9	6,61
987,3	9,61
987,7	8,21
988,2	1,838
988,6	-2,705
989	3,952
989,4	-0,819
989,8	0,295
990,3	1,924
990,7	1,152
991,1	3,067
991,5	4,952
991,9	-0,59
992,3	1,01
992,8	0,181
993,2	-3,076
993,6	0,438
994	1,638
994,4	7,01
994,9	8,952
995,3	10,81
995,7	13,581
996,1	12,095
996,5	12,324
996,9	18,838
997,4	13,781
997,8	15,01
998,2	15,324
998,6	11,724
999	14,21
999,5	17,181
999,9	11,952
1000,3	10,152
1000,7	10,267
1001,1	10,21
1001,5	16,124
1002	20,038
1002,4	13,01
1002,8	15,724
1003,2	17,495
1003,6	14,41
1004	18,267
1004,5	14,324
1004,9	13,438
1005,3	18,095
1005,7	19,01
1006,1	18,61
1006,6	21,924
1007	15,524
1007,4	19,124
1007,8	16,81
1008,2	18,238
1008,6	12,667
1009,1	13,924
1009,5	14,552
1009,9	17,067
1010,3	12,695
1010,7	11,61
1011,1	8,924
1011,6	4,352
1012	5,181
1012,4	1,267
1012,8	-2,419
1013,2	-0,79
1013,6	0,581
1014,1	-2,933
1014,5	4,352
1014,9	2,495
1015,3	5,724
1015,7	9,038
1016,1	9,038
1016,6	8,41
1017	11,895
1017,4	6,924
1017,8	9,667
1018,2	7,495
1018,6	9,21
1019,1	7,524
1019,5	10,381
1019,9	10,067
1020,3	14,438
1020,7	11,124
1021,1	10,267
1021,6	7,552
1022	13,752
1022,4	11,324
1022,8	9,21
1023,2	7,61
1023,6	9,61
1024,1	14,295
1024,5	18,867
1024,9	15,152
1025,3	15,61
1025,7	23,752
1026,1	20,21
1026,6	21,21
1027	17,038
1027,4	16,81
1027,8	11,238
1028,2	11,781
1028,6	4,838
1029	3,581
1029,5	-1,676
1029,9	1,838
1030,3	-0,505
1030,7	5,81
1031,1	8,467
1031,5	8,952
1032	13,324
1032,4	22,724
1032,8	19,381
1033,2	15,724
1033,6	8,524
1034	3,495
1034,4	5,781
1034,9	10,438
1035,3	8,524
1035,7	3,638
1036,1	10,181
1036,5	14,295
1036,9	16,038
1037,4	14,238
1037,8	11,781
1038,2	10,867
1038,6	16,438
1039	13,524
1039,4	18,638
1039,8	22,867
1040,3	28,667
1040,7	29,152
1041,1	21,952
1041,5	27,867
1041,9	31,095
1042,3	25,181
1042,7	20,324
1043,2	16,752
1043,6	18,895
1044	23,038
1044,4	21,295
1044,8	19,124
1045,2	21,781
1045,6	27,867
1046,1	26,095
1046,5	18,638
1046,9	18,781
1047,3	17,352
1047,7	11,181
1048,1	10,238
1048,5	6,752
1049	1,724
1049,4	2,667
1049,8	2,552
1050,2	2,695
1050,6	7,124
1051	8,952
1051,4	8,895
1051,9	14,638
1052,3	15,838
1052,7	16,352
1053,1	12,724
1053,5	9,952
1053,9	8,524
1054,3	5,181
1054,8	1,895
1055,2	-0,276
1055,6	-0,248
1056	0,152
1056,4	0,01
1056,8	3,552
1057,2	5,867
1057,6	10,752
1058,1	16,752
1058,5	13,038
1058,9	11,667
1059,3	12,41
1059,7	13,552
1060,1	12,581
1060,5	11,095
1061	8,067
1061,4	7,438
1061,8	12,895
1062,2	15,638
1062,6	10,524
1063	10,124
1063,4	9,152
1063,8	12,324
1064,3	21,981
1064,7	21,61
1065,1	22,752
1065,5	25,352
1065,9	27,81
1066,3	25,867
1066,7	27,752
1067,1	22,638
1067,6	22,124
1068	24,267
1068,4	25,41
1068,8	24,067
1069,2	25,467
1069,6	20,21
1070	22,238
1070,4	16,152
1070,9	13,667
1071,3	11,81
1071,7	11,838
1072,1	10,381
1072,5	12,295
1072,9	7,095
1073,3	8,752
1073,7	6,352
1074,2	8,581
1074,6	9,924
1075	14,581
1075,4	18,095
1075,8	20,095
1076,2	26,181
1076,6	24,867
1077	25,095
1077,5	27,295
1077,9	19,095
1078,3	16,667
1078,7	16,124
1079,1	17,61
1079,5	23,067
1079,9	20,038
1080,3	15,695
1080,7	20,438
1081,2	16,867
1081,6	19,438
1082	15,952
1082,4	11,181
1082,8	12,41
1083,2	8,838
1083,6	7,895
1084	8,667
1084,5	10,752
1084,9	5,495
1085,3	4,781
1085,7	0,552
1086,1	4,41
1086,5	6,581
1086,9	8,01
1087,3	4,238
1087,7	10,695
1088,2	15,495
1088,6	19,61
1089	21,152
1089,4	24,638
1089,8	22,724
1090,2	20,981
1090,6	17,152
1091	9,238
1091,4	7,495
1091,9	3,21
1092,3	0,724
1092,7	0,552
1093,1	3,267
1093,5	6,01
1093,9	11,152
1094,3	11,181
1094,7	10,524
1095,1	10,01
1095,5	12,81
1096	14,867
1096,4	14,124
1096,8	16,267
1097,2	18,667
1097,6	20,581
1098	16,352
1098,4	18,638
1098,8	14,295
1099,2	11,324
1099,6	12,038
1100,1	13,324
1100,5	12,238
1100,9	12,752
1101,3	9,295
1101,7	8,952
1102,1	11,981
1102,5	8,381
1102,9	3,41
1103,3	5,752
1103,7	10,638
1104,2	10,952
1104,6	11,267
1105	8,724
1105,4	9,667
1105,8	9,552
1106,2	8,124
1106,6	4,61
1107	2,324
1107,4	1,6
1107,8	1,747
1108,3	0,217
