Data from Subt2_00010.txt Node
Date: Mon Aug 28 13:05:51 MSK 2023
User: vat
Spectrometer: MAYP114033
Trigger mode: 0
Integration Time (sec): 1,000000E0
Scans to average: 5
Electric dark correction enabled: true
Nonlinearity correction enabled: false
Boxcar width: 3
XAxis mode: Wavelengths
Number of Pixels in Spectrum: 2068
>>>>>Begin Spectral Data<<<<<
199,4	0,533
199,9	2,813
200,4	1,8
200,8	2,819
201,3	3,305
201,8	4,333
202,2	3,533
202,7	4,619
203,2	2,505
203,6	3,933
204,1	4,905
204,6	4,648
205	6,333
205,5	11,105
206	10,133
206,4	11,533
206,9	13,362
207,4	14,848
207,8	13,419
208,3	13,676
208,8	12,019
209,2	18,648
209,7	17,619
210,2	9,333
210,6	3,448
211,1	5,848
211,5	7,162
212	7,419
212,5	1,076
212,9	3,248
213,4	10,133
213,9	15,505
214,3	12,619
214,8	10,933
215,3	12,448
215,7	16,276
216,2	14,276
216,7	14,048
217,1	12,705
217,6	17,99
218,1	15,876
218,5	11,248
219	9,533
219,5	9,905
219,9	11,705
220,4	11,362
220,9	8,819
221,3	8,19
221,8	9,733
222,3	12,162
222,7	15,305
223,2	16,533
223,6	16,505
224,1	21,133
224,6	19,105
225	20,99
225,5	20,533
226	19,248
226,4	21,848
226,9	23,133
227,4	19,562
227,8	23,019
228,3	18,648
228,8	16,162
229,2	19,733
229,7	15,39
230,2	12,248
230,6	12,048
231,1	14,133
231,5	20,448
232	22,19
232,5	17,933
232,9	15,819
233,4	17,476
233,9	18,962
234,3	16,59
234,8	14,333
235,3	8,819
235,7	7,362
236,2	6,733
236,7	5,59
237,1	9,276
237,6	9,619
238,1	7,59
238,5	13,419
239	13,676
239,4	13,79
239,9	12,933
240,4	9,19
240,8	13,905
241,3	18,362
241,8	15,133
242,2	17,905
242,7	25,476
243,2	27,419
243,6	30,162
244,1	22,99
244,6	19,733
245	22,848
245,5	24,905
245,9	17,705
246,4	14,476
246,9	11,19
247,3	11,105
247,8	8,448
248,3	6,133
248,7	3,133
249,2	4,733
249,7	9,733
250,1	6,162
250,6	10,39
251	9,79
251,5	11,79
252	9,419
252,4	10,533
252,9	8,648
253,4	13,59
253,8	14,533
254,3	16,133
254,8	16,362
255,2	17,648
255,7	19,762
256,1	22,19
256,6	18,79
257,1	16,19
257,5	17,39
258	12,333
258,5	13,048
258,9	8,562
259,4	2,248
259,9	2,019
260,3	2,562
260,8	4,562
261,2	7,048
261,7	10,648
262,2	12,076
262,6	14,133
263,1	13,905
263,6	11,962
264	10,162
264,5	9,248
264,9	3,733
265,4	2,619
265,9	5,305
266,3	9,276
266,8	9,933
267,3	11,962
267,7	12,905
268,2	14,819
268,7	17,933
269,1	20,533
269,6	18,133
270	22,59
270,5	17,933
271	22,619
271,4	25,276
271,9	22,59
272,4	18,276
272,8	19,333
273,3	15,448
273,7	18,476
274,2	16,105
274,7	9,019
275,1	9,819
275,6	10,933
276,1	10,905
276,5	11,076
277	12,162
277,4	12,648
277,9	18,448
278,4	17,705
278,8	20,648
279,3	18,705
279,8	15,59
280,2	11,962
280,7	6,162
281,1	3,648
281,6	6,219
282,1	1,476
282,5	0,848
283	0,819
283,4	6,505
283,9	10,705
284,4	13,276
284,8	10,305
285,3	16,876
285,8	20,276
286,2	16,162
286,7	13,59
287,1	12,619
287,6	9,305
288,1	12,133
288,5	7,333
289	7,076
289,5	11,762
289,9	16,533
290,4	18,419
290,8	21,39
291,3	22,99
291,8	26,333
292,2	25,105
292,7	27,59
293,1	22,533
293,6	21,248
294,1	20,99
294,5	19,733
295	14,933
295,5	14,362
295,9	14,848
296,4	14,162
296,8	16,248
297,3	12,962
297,8	4,733
298,2	9,962
298,7	10,762
299,1	10,905
299,6	7,733
300,1	6,105
300,5	9,048
301	14,362
301,5	9,333
301,9	6,076
302,4	3,99
302,8	9,248
303,3	2,248
303,8	3,59
304,2	1,333
304,7	6,219
305,1	9,448
305,6	10,19
306,1	8,905
306,5	18,505
307	15,19
307,4	19,619
307,9	15,39
308,4	12,219
308,8	16,019
309,3	17,676
309,8	15,362
310,2	18,19
310,7	16,962
311,1	16,79
311,6	20,762
312,1	16,476
312,5	7,876
313	7,848
313,4	10,562
313,9	10,533
314,4	15,362
314,8	12,819
315,3	18,448
315,7	22,333
316,2	22,19
316,7	14,133
317,1	14,333
317,6	10,505
318	11,705
318,5	10,19
319	13,39
319,4	11,19
319,9	11,848
320,3	8,19
320,8	13,419
321,3	11,819
321,7	8,648
322,2	9,533
322,6	12,848
323,1	13,419
323,6	19,048
324	14,248
324,5	11,848
324,9	14,848
325,4	15,905
325,9	15,59
326,3	16,79
326,8	12,648
327,2	11,79
327,7	15,848
328,2	12,848
328,6	10,276
329,1	6,362
329,5	4,276
330	6,19
330,5	9,162
330,9	7,733
331,4	9,162
331,8	11,162
332,3	14,733
332,8	17,505
333,2	17,99
333,7	11,19
334,1	14,133
334,6	16,39
335,1	15,162
335,5	14,933
336	15,619
336,4	15,619
336,9	17,876
337,4	16,762
337,8	14,59
338,3	11,533
338,7	8,333
339,2	10,733
339,7	12,733
340,1	14,19
340,6	9,419
341	8,933
341,5	15,362
342	20,476
342,4	22,39
342,9	23,19
343,3	22,648
343,8	23,962
344,2	25,848
344,7	25,362
345,2	24,162
345,6	21,333
346,1	16,305
346,5	16,99
347	16,676
347,5	15,076
347,9	13,362
348,4	11,819
348,8	7,648
349,3	13,59
349,8	16,819
350,2	22,619
350,7	24,733
351,1	28,362
351,6	33,733
352	41,076
352,5	42,019
353	44,076
353,4	50,476
353,9	55,219
354,3	62,39
354,8	71,905
355,3	87,562
355,7	100,476
356,2	119,505
356,6	139,99
357,1	164,619
357,5	192,133
358	217,648
358,5	251,876
358,9	294,762
359,4	346,248
359,8	400,648
360,3	461,105
360,8	528,19
361,2	607,562
361,7	690,99
362,1	776,905
362,6	869,99
363	971,019
363,5	1089,076
364	1202,276
364,4	1322,533
364,9	1443,248
365,3	1561,133
365,8	1677,448
366,3	1782,648
366,7	1872,648
367,2	1959,962
367,6	2027,362
368,1	2080,676
368,5	2123,333
369	2144,19
369,5	2148,562
369,9	2126,819
370,4	2090,876
370,8	2045,305
371,3	1985,219
371,7	1915,419
372,2	1830,705
372,7	1745,276
373,1	1663,048
373,6	1573,19
374	1476,905
374,5	1377,59
374,9	1282,819
375,4	1191,076
375,9	1100,676
376,3	1014,362
376,8	936,733
377,2	862,305
377,7	798,648
378,2	732,962
378,6	671,476
379,1	614,905
379,5	562,59
380	509,762
380,4	467,962
380,9	429,19
381,4	393,648
381,8	369,219
382,3	343,162
382,7	320,905
383,2	301,276
383,6	282,133
384,1	258,99
384,6	246,619
385	229,333
385,5	212,419
385,9	197,333
386,4	184,676
386,8	170,048
387,3	158,99
387,7	144,819
388,2	132,048
388,7	120,933
389,1	110,419
389,6	105,333
390	104,476
390,5	97,99
390,9	92,59
391,4	88,19
391,9	87,99
392,3	87,876
392,8	83,076
393,2	77,933
393,7	68,705
394,1	66,59
394,6	62,162
395,1	61,505
395,5	54,276
396	50,733
396,4	45,39
396,9	46,562
397,3	46,99
397,8	46,362
398,2	42,848
398,7	45,99
399,2	46,219
399,6	47,933
400,1	48,533
400,5	50,79
401	54,933
401,4	60,59
401,9	61,162
402,4	61,333
402,8	59,419
403,3	63,276
403,7	57,419
404,2	58,733
404,6	52,448
405,1	54,562
405,5	54,819
406	58,705
406,5	60,362
406,9	63,676
407,4	66,619
407,8	79,419
408,3	81,362
408,7	87,133
409,2	92,019
409,6	93,733
410,1	98,162
410,6	103,733
411	106,248
411,5	115,333
411,9	124,99
412,4	131,219
412,8	145,648
413,3	157,705
413,7	170,59
414,2	176,533
414,7	188,819
415,1	199,533
415,6	212,905
416	224,79
416,5	238,819
416,9	248,819
417,4	271,648
417,8	282,448
418,3	295,39
418,8	316,048
419,2	333,562
419,7	351,59
420,1	371,733
420,6	378,105
421	405,162
421,5	431,162
421,9	450,19
422,4	480,248
422,8	506,448
423,3	527,505
423,8	564,648
424,2	588,505
424,7	612,962
425,1	648,076
425,6	677,476
426	712,876
426,5	751,819
426,9	793,762
427,4	832,619
427,9	877,105
428,3	919,933
428,8	963,048
429,2	1009,733
429,7	1063,305
430,1	1114,076
430,6	1176,705
431	1242,962
431,5	1304,905
431,9	1376,562
432,4	1451,162
432,8	1528,333
433,3	1614,962
433,8	1704,705
434,2	1791,219
434,7	1882,676
435,1	1978,333
435,6	2078,505
436	2185,619
436,5	2285,562
436,9	2389,362
437,4	2505,562
437,8	2629,333
438,3	2753,648
438,8	2887,305
439,2	3018,448
439,7	3164,848
440,1	3305,533
440,6	3461,505
441	3614,648
441,5	3775,848
441,9	3937,133
442,4	4109,819
442,8	4290,219
443,3	4485,819
443,7	4667,905
444,2	4866,733
444,7	5077,276
445,1	5286,876
445,6	5512,219
446	5735,619
446,5	5970,848
446,9	6209,59
447,4	6456,133
447,8	6693,876
448,3	6947,448
448,7	7196,133
449,2	7447,305
449,6	7707,333
450,1	7986,733
450,6	8264,619
451	8552,99
451,5	8855,562
451,9	9153,962
452,4	9464,419
452,8	9774,99
453,3	10081,848
453,7	10397,39
454,2	10723,305
454,6	11045,733
455,1	11373,99
455,5	11699,933
456	12027,962
456,4	12380,476
456,9	12734,419
457,3	13092,876
457,8	13449,705
458,3	13813,648
458,7	14187,019
459,2	14562,19
459,6	14924,79
460,1	15291,533
460,5	15651,648
461	16016,562
461,4	16394,733
461,9	16767,905
462,3	17136,848
462,8	17508,676
463,2	17892,533
463,7	18273,419
464,1	18653,962
464,6	19020,162
465	19401,19
465,5	19788,562
466	20166,705
466,4	20539,99
466,9	20910,876
467,3	21279,905
467,8	21660,362
468,2	22021,619
468,7	22380,305
469,1	22740,419
469,6	23084,676
470	23433,705
470,5	23789,676
470,9	24129,79
471,4	24484,076
471,8	24820,448
472,3	25139,419
472,7	25470,619
473,2	25796,876
473,6	26087,476
474,1	26395,676
474,5	26685,933
475	26975,305
475,4	27278,476
475,9	27571,019
476,4	27845,362
476,8	28110,448
477,3	28357,905
477,7	28612,933
478,2	28854,848
478,6	29075,705
479,1	29279,905
479,5	29478,076
480	29691,99
480,4	29897,448
480,9	30067,476
481,3	30229,876
481,8	30399,19
482,2	30558,048
482,7	30733,562
483,1	30885,848
483,6	31016,505
484	31138,79
484,5	31267,676
484,9	31374,19
485,4	31470,876
485,8	31537,648
486,3	31610,448
486,7	31664,705
487,2	31723,59
487,6	31775,848
488,1	31815,962
488,5	31860,448
489	31889,648
489,4	31901,19
489,9	31916,019
490,4	31914,019
490,8	31901,933
491,3	31880,762
491,7	31842,19
492,2	31791,733
492,6	31727,076
493,1	31665,876
493,5	31586,619
494	31515,076
494,4	31424,448
494,9	31328,476
495,3	31236,133
495,8	31154,933
496,2	31068,305
496,7	30973,505
497,1	30866,762
497,6	30753,162
498	30648,39
498,5	30526,19
498,9	30395,219
499,4	30255,362
499,8	30111,048
500,3	29965,705
500,7	29830,962
501,2	29672,905
501,6	29527,676
502,1	29370,105
502,5	29205,99
503	29063,79
503,4	28891,505
503,9	28711,848
504,3	28540,59
504,8	28349,333
505,2	28161,905
505,7	27975,019
506,1	27766,819
506,6	27568,619
507	27369,19
507,5	27156,962
507,9	26959,39
508,4	26767,562
508,8	26555,019
509,3	26345,59
509,7	26129,133
510,2	25909,048
510,6	25691,219
511,1	25476,476
511,5	25250,333
512	25026,562
512,4	24813,048
512,9	24585,533
513,3	24362,933
513,8	24136,79
514,2	23900,533
514,7	23671,933
515,1	23445,933
515,6	23219,79
516	22984,648
516,5	22769,448
516,9	22543,105
517,4	22320,533
517,8	22078,99
518,3	21848,419
518,7	21604,733
519,2	21389,162
519,6	21156,276
520,1	20935,39
520,5	20707,333
521	20483,819
521,4	20262,476
521,9	20047,905
522,3	19835,162
522,8	19619,819
523,2	19410,619
523,7	19201,333
524,1	18996,562
524,6	18784,105
525	18577,962
525,5	18374,219
525,9	18175,048
526,4	17973,648
526,8	17777,619
527,3	17582,619
527,7	17394,59
528,2	17195,076
528,6	16997,962
529,1	16797,39
529,5	16605,076
530	16411,162
530,4	16224,476
530,9	16033,133
531,3	15850,19
531,8	15666,59
532,2	15482,819
532,6	15296,448
533,1	15118,105
533,5	14944,048
534	14772,476
534,4	14611,476
534,9	14458,019
535,3	14305,533
535,8	14142,219
536,2	13989,59
536,7	13828,99
537,1	13665,505
537,6	13508,79
538	13347,448
538,5	13188,933
538,9	13032,333
539,4	12880,533
539,8	12739,962
540,3	12611,676
540,7	12472,248
541,2	12321,79
541,6	12187,019
542,1	12063,705
542,5	11933,533
543	11809,448
543,4	11673,648
543,9	11538,876
544,3	11418,962
544,8	11296,533
545,2	11169,476
545,7	11046,533
546,1	10917,619
546,5	10797,876
547	10681,99
547,4	10552,619
547,9	10442,419
548,3	10329,848
548,8	10215,962
549,2	10096,733
549,7	9990,876
550,1	9887,419
550,6	9794,219
551	9682,619
551,5	9582,962
551,9	9489,59
552,4	9403,905
552,8	9309,905
553,3	9215,933
553,7	9121,962
554,2	9041,448
554,6	8954,79
555,1	8853,848
555,5	8760,219
555,9	8675,476
556,4	8581,248
556,8	8499,676
557,3	8410,905
557,7	8330,19
558,2	8259,276
558,6	8184,019
559,1	8104,933
559,5	8029,362
560	7949,505
560,4	7867,362
560,9	7795,39
561,3	7720,448
561,8	7644,733
562,2	7564,419
562,7	7495,276
563,1	7422,305
563,6	7353,105
564	7271,819
564,4	7200,99
564,9	7134,39
565,3	7069,962
565,8	7009,219
566,2	6946,905
566,7	6888,419
567,1	6833,333
567,6	6782,448
568	6727,933
568,5	6667,676
568,9	6602,59
569,4	6542,248
569,8	6473,505
570,3	6419,219
570,7	6354,562
571,1	6292,076
571,6	6243,562
572	6192,99
572,5	6143,048
572,9	6099,219
573,4	6043,962
573,8	5989,933
574,3	5937,962
574,7	5885,162
575,2	5833,505
575,6	5784,733
576,1	5736,562
576,5	5688,79
576,9	5639,819
577,4	5591,305
577,8	5534,305
578,3	5492,705
578,7	5446,276
579,2	5394,962
579,6	5342,105
580,1	5302,019
580,5	5261,362
581	5222,219
581,4	5175,276
581,9	5137,505
582,3	5097,476
582,7	5063,705
583,2	5014,705
583,6	4966,305
584,1	4929,019
584,5	4885,79
585	4834,39
585,4	4787,19
585,9	4741,019
586,3	4702,562
586,8	4665,619
587,2	4621,276
587,6	4578,99
588,1	4545,676
588,5	4516,59
589	4475,505
589,4	4437,333
589,9	4401,619
590,3	4372,362
590,8	4347,819
591,2	4310,048
591,7	4277,19
592,1	4242,505
592,5	4218,905
593	4192,848
593,4	4155,076
593,9	4116,276
594,3	4092,705
594,8	4064,19
595,2	4037,762
595,7	4003,448
596,1	3973,99
596,6	3952,705
597	3931,562
597,4	3901,59
597,9	3872,762
598,3	3851,733
598,8	3829,619
599,2	3803,333
599,7	3778,133
600,1	3753,448
600,6	3729,819
601	3706,419
601,4	3679,619
601,9	3654,505
602,3	3628,476
602,8	3602,476
603,2	3574,019
603,7	3543,505
604,1	3520,79
604,6	3506,705
605	3482,619
605,4	3452,848
605,9	3428,505
606,3	3409,19
606,8	3392,333
607,2	3365,848
607,7	3336,362
608,1	3313,705
608,6	3297,619
609	3276,819
609,4	3250,733
609,9	3224,419
610,3	3205,876
610,8	3177,276
611,2	3153,562
611,7	3131,39
612,1	3107,505
612,6	3081,79
613	3058,905
613,4	3031,019
613,9	3021,105
614,3	2999,133
614,8	2974,476
615,2	2953,705
615,7	2937,933
616,1	2916,276
616,6	2900,333
617	2873,99
617,4	2854,305
617,9	2838,762
618,3	2818,619
618,8	2792,505
619,2	2778,505
619,7	2757,905
620,1	2740,905
620,5	2714,219
621	2692,619
621,4	2676,39
621,9	2657,276
622,3	2632,105
622,8	2613,733
623,2	2590,876
623,6	2580,019
624,1	2564,59
624,5	2545,533
625	2525,533
625,4	2512,705
625,9	2487,533
626,3	2475,076
626,8	2456,448
627,2	2430,876
627,6	2411,733
628,1	2401,562
628,5	2384,362
629	2373,476
629,4	2345,505
629,9	2324,676
630,3	2310,819
630,7	2292,048
631,2	2280,99
631,6	2259,476
632,1	2244,133
632,5	2231,076
633	2221,476
633,4	2207,705
633,8	2188,276
634,3	2165,105
634,7	2158,133
635,2	2143,59
635,6	2130,59
636,1	2100,362
636,5	2089,933
636,9	2077,933
637,4	2064,39
637,8	2044,162
638,3	2032,276
638,7	2015,99
639,2	2014,248
639,6	1997,219
640	1984,705
640,5	1970,876
640,9	1957,076
641,4	1942,562
641,8	1929,762
642,2	1914,505
642,7	1903,448
643,1	1890,505
643,6	1879,819
644	1872,19
644,5	1858,99
644,9	1847,076
645,3	1837,362
645,8	1819,276
646,2	1803,99
646,7	1785,705
647,1	1765,59
647,6	1750,848
648	1740,333
648,4	1728,333
648,9	1714,476
649,3	1705,076
649,8	1698,248
650,2	1688,99
650,6	1680,248
651,1	1668,876
651,5	1654,133
652	1651,248
652,4	1640,019
652,9	1626,905
653,3	1615,448
653,7	1601,533
654,2	1591,048
654,6	1583,448
655,1	1568,219
655,5	1556,905
655,9	1543,362
656,4	1540,133
656,8	1530,019
657,3	1515,648
657,7	1502,59
658,2	1486,848
658,6	1479,162
659	1474,733
659,5	1456,162
659,9	1442,248
660,4	1434,39
660,8	1422,848
661,2	1412,448
661,7	1401,305
662,1	1387,762
662,6	1377,248
663	1366,876
663,4	1356,933
663,9	1346,248
664,3	1334,562
664,8	1326,562
665,2	1314,533
665,6	1307,676
666,1	1301,533
666,5	1292,59
667	1286,448
667,4	1282,362
667,9	1272,19
668,3	1266,305
668,7	1253,762
669,2	1241,048
669,6	1232,048
670,1	1221,105
670,5	1213,305
670,9	1198,962
671,4	1182,676
671,8	1178,676
672,3	1175,105
672,7	1165,533
673,1	1161,762
673,6	1155,448
674	1152,076
674,5	1153,076
674,9	1143,79
675,3	1131,676
675,8	1121,933
676,2	1109,19
676,7	1099,876
677,1	1087,819
677,5	1079,676
678	1067,419
678,4	1062,59
678,9	1055,162
679,3	1047,705
679,7	1036,533
680,2	1034,419
680,6	1026,648
681,1	1018,819
681,5	1010,076
681,9	1002,133
682,4	994,533
682,8	988,19
683,3	977,962
683,7	969,276
684,1	964,105
684,6	952,933
685	942,562
685,5	932,933
685,9	925,162
686,3	921,076
686,8	914,819
687,2	911,362
687,7	905,733
688,1	906,848
688,5	903,476
689	902,705
689,4	893,762
689,9	885,79
690,3	877,876
690,7	873,59
691,2	865,648
691,6	858,905
692	851,762
692,5	843,248
692,9	837,619
693,4	829,333
693,8	823,305
694,2	815,99
694,7	807,848
695,1	802,476
695,6	800,362
696	792,962
696,4	787,676
696,9	780,762
697,3	777,333
697,8	777,162
698,2	768,019
698,6	760,19
699,1	756,133
699,5	749,876
699,9	744,276
700,4	740,59
700,8	730,248
701,3	724,79
701,7	718,505
702,1	712,505
702,6	705,048
703	697,99
703,5	686,676
703,9	682,848
704,3	677,219
704,8	673,99
705,2	672,733
705,6	674,019
706,1	673,305
706,5	673,419
707	675,59
707,4	673,562
707,8	669,79
708,3	662,933
708,7	655,019
709,2	651,076
709,6	644,99
710	635,133
710,5	630,105
710,9	628,39
711,3	623,848
711,8	615,876
712,2	612,019
712,7	605,762
713,1	600,933
713,5	595,905
714	586,562
714,4	579,533
714,8	580,562
715,3	575,333
715,7	572,162
716,2	570,333
716,6	560,962
717	557,419
717,5	551,648
717,9	549,019
718,3	543,59
718,8	541,019
719,2	532,505
719,7	533,876
720,1	527,933
720,5	531,59
721	526,133
721,4	523,676
721,8	516,619
722,3	513,505
722,7	507,276
723,2	504,848
723,6	497,59
724	493,105
724,5	488,019
724,9	486,99
725,3	478,819
725,8	477,248
726,2	470,419
726,7	461,762
727,1	457,619
727,5	452,505
728	438,248
728,4	441,276
728,8	436,533
729,3	436,248
729,7	438,248
730,1	433,705
730,6	437,019
731	440,333
731,5	439,076
731,9	435,19
732,3	434,162
732,8	433,362
733,2	436,59
733,6	428,848
734,1	425,276
734,5	424,048
734,9	419,476
735,4	415,048
735,8	408,59
736,3	393,133
736,7	392,133
737,1	387,99
737,6	381,019
738	383,248
738,4	379,448
738,9	377,019
739,3	390,076
739,7	392,619
740,2	392,133
740,6	389,19
741,1	380,248
741,5	378,819
741,9	376,876
742,4	371,419
742,8	363,933
743,2	363,333
743,7	362,219
744,1	365,333
744,5	363,219
745	363,962
745,4	356,219
745,8	353,19
746,3	351,362
746,7	346,048
747,2	338,505
747,6	338,333
748	336,79
748,5	336,448
748,9	334,676
749,3	337,962
749,8	341,248
750,2	340,705
750,6	335,333
751,1	330,019
751,5	328,99
751,9	325,676
752,4	325,248
752,8	322,133
753,3	318,933
753,7	317,419
754,1	315,705
754,6	312,819
755	312,79
755,4	306,819
755,9	301,705
756,3	306,933
756,7	309,333
757,2	301,819
757,6	299,419
758	292,733
758,5	287,019
758,9	284,476
759,3	279,219
759,8	271,962
760,2	273,276
760,6	275,905
761,1	281,162
761,5	279,476
761,9	277,819
762,4	280,162
762,8	280,705
763,3	280,676
763,7	277,162
764,1	269,59
764,6	269,676
765	270,648
765,4	268,076
765,9	269,705
766,3	265,933
766,7	261,533
767,2	259,619
767,6	259,248
768	253,362
768,5	249,39
768,9	242,248
769,3	247,105
769,8	241,648
770,2	240,105
770,6	237,39
771,1	237,619
771,5	235,162
771,9	237,648
772,4	227,562
772,8	230,933
773,2	231,533
773,7	228,533
774,1	230,19
774,5	228,362
775	224,505
775,4	225,648
775,8	221,99
776,3	222,133
776,7	222,019
777,1	218,505
777,6	215,762
778	211,99
778,4	214,562
778,9	214,476
779,3	213,105
779,7	212,905
780,2	211,562
780,6	216,848
781	221,19
781,5	218,648
781,9	214,905
782,3	212,305
782,8	212,619
783,2	207,876
783,6	201,333
784,1	196,562
784,5	193,076
784,9	194,79
785,4	194,962
785,8	191,248
786,2	193,076
786,7	194,876
787,1	195,733
787,5	195,533
788	193,19
788,4	192,705
788,8	190,848
789,3	192,105
789,7	189,59
790,1	186,648
790,6	184,276
791	178,476
791,4	174,219
791,9	171,533
792,3	170,019
792,7	169,019
793,2	171,99
793,6	172,19
794	178,448
794,5	174,276
794,9	173,619
795,3	171,419
795,8	171,276
796,2	162,59
796,6	163,076
797,1	161,076
797,5	160,59
797,9	160,905
798,4	157,876
798,8	154,362
799,2	158,105
799,7	153,448
800,1	154,705
800,5	159,819
801	161,819
801,4	162,362
801,8	164,59
802,2	161,562
802,7	161,933
803,1	157,962
803,5	154,076
804	149,905
804,4	147,705
804,8	147,676
805,3	145,876
805,7	147,048
806,1	141,248
806,6	143,048
807	142,819
807,4	143,905
807,9	140,933
808,3	147,048
808,7	145,905
809,2	153,076
809,6	149,276
810	148,676
810,4	148,905
810,9	148,619
811,3	144,962
811,7	139,705
812,2	130,933
812,6	127,876
813	128,562
813,5	128,676
813,9	126,219
814,3	122,419
814,8	125,848
815,2	128,533
815,6	130,105
816,1	130,705
816,5	126,876
816,9	127,162
817,3	126,962
817,8	123,048
818,2	124,19
818,6	125,019
819,1	120,219
819,5	116,619
819,9	115,933
820,4	121,19
820,8	120,933
821,2	118,448
821,7	114,619
822,1	109,59
822,5	110,276
822,9	109,59
823,4	99,99
823,8	102,048
824,2	101,333
824,7	101,076
825,1	102,162
825,5	101,962
826	93,448
826,4	91,219
826,8	87,99
827,3	89,848
827,7	90,105
828,1	92,248
828,5	95,39
829	101,962
829,4	100,248
829,8	104,219
830,3	102,333
830,7	103,705
831,1	102,105
831,6	96,19
832	92,533
832,4	97,648
832,8	88,076
833,3	86,905
833,7	78,59
834,1	78,79
834,6	80,762
835	83,962
835,4	82,619
835,8	85,79
836,3	81,305
836,7	86,019
837,1	85,819
837,6	82,105
838	78,99
838,4	76,476
838,9	80,762
839,3	82,876
839,7	81,733
840,1	80,505
840,6	81,333
841	79,562
841,4	80,676
841,9	76,419
842,3	73,705
842,7	74,19
843,1	73,39
843,6	72,819
844	72,048
844,4	75,133
844,9	73,419
845,3	75,248
845,7	72,105
846,2	73,105
846,6	77,505
847	80,962
847,4	79,419
847,9	77,905
848,3	71,476
848,7	73,876
849,2	70,848
849,6	65,305
850	61,59
850,4	56,219
850,9	57,905
851,3	66,076
851,7	62,962
852,2	62,933
852,6	65,762
853	66,362
853,4	69,048
853,9	68,076
854,3	67,333
854,7	70,19
855,2	73,162
855,6	70,99
856	73,105
856,4	69,19
856,9	68,19
857,3	63,219
857,7	63,79
858,2	61,848
858,6	59,448
859	53,99
859,4	58,105
859,9	61,59
860,3	63,276
860,7	58,876
861,1	59,333
861,6	61,962
862	64,505
862,4	61,962
862,9	62,676
863,3	60,705
863,7	60,505
864,1	57,305
864,6	58,905
865	58,019
865,4	58,276
865,9	55,105
866,3	55,79
866,7	56,219
867,1	52,305
867,6	51,219
868	46,219
868,4	43,962
868,8	39,162
869,3	40,848
869,7	44,876
870,1	49,448
870,6	41,876
871	85,733
871,4	84,305
871,8	88,39
872,3	85,19
872,7	76,79
873,1	74,848
873,5	74,276
874	34,505
874,4	36,019
874,8	31,876
875,3	28,276
875,7	28,876
876,1	34,79
876,5	37,133
877	35,505
877,4	39,819
877,8	39,619
878,2	43,99
878,7	48,933
879,1	49,476
879,5	54,248
879,9	53,219
880,4	45,39
880,8	50,876
881,2	43,448
881,7	44,19
882,1	37,105
882,5	33,048
882,9	34,448
883,4	37,39
883,8	32,962
884,2	38,533
884,6	29,505
885,1	26,79
885,5	28,562
885,9	28,219
886,3	26,79
886,8	30,819
887,2	30,505
887,6	34,476
888	39,505
888,5	34,99
888,9	30,648
889,3	29,962
889,8	26,619
890,2	24,562
890,6	26,248
891	24,648
891,5	25,248
891,9	27,305
892,3	30,276
892,7	28,676
893,2	33,19
893,6	31,476
894	29,19
894,4	27,219
894,9	29,39
895,3	28,562
895,7	26,533
896,1	22,076
896,6	21,79
897	27,248
897,4	32,133
897,8	36,733
898,3	38,79
898,7	39,562
899,1	43,505
899,5	45,99
900	39,762
900,4	35,39
900,8	22,848
901,2	16,762
901,7	20,419
902,1	17,505
902,5	17,19
902,9	18,076
903,4	20,39
903,8	24,619
904,2	29,619
904,6	26,848
905,1	27,333
905,5	24,133
905,9	23,048
906,3	24,419
906,8	27,162
907,2	24,219
907,6	24,933
908	26,59
908,5	21,162
908,9	22,619
909,3	20,933
909,7	18,648
910,2	21,59
910,6	20,733
911	18,533
911,4	25,048
911,9	24,362
912,3	26,476
912,7	28,333
913,1	25,019
913,6	26,419
914	30,876
914,4	31,533
914,8	32,19
915,3	29,876
915,7	30,762
916,1	30,133
916,5	30,076
916,9	22,019
917,4	22,79
917,8	19,59
918,2	26,648
918,6	22,248
919,1	24,562
919,5	26,819
919,9	31,162
920,3	29,133
920,8	36,419
921,2	30,019
921,6	30,819
922	28,133
922,5	24,505
922,9	24,362
923,3	27,305
923,7	23,762
924,2	21,362
924,6	21,648
925	23,105
925,4	22,105
925,8	19,962
926,3	15,362
926,7	14,048
927,1	17,105
927,5	19,79
928	18,448
928,4	19,648
928,8	21,476
929,2	22,933
929,7	23,876
930,1	23,105
930,5	22,99
930,9	24,99
931,3	28,19
931,8	29,619
932,2	29,59
932,6	25,705
933	20,619
933,5	18,533
933,9	15,362
934,3	9,305
934,7	7,962
935,2	3,505
935,6	4,99
936	6,162
936,4	7,905
936,8	11,705
937,3	14,333
937,7	13,676
938,1	14,762
938,5	12,819
939	12,419
939,4	11,99
939,8	11,59
940,2	8,505
940,6	8,019
941,1	8,79
941,5	12,248
941,9	13,305
942,3	12,848
942,8	11,733
943,2	8,819
943,6	7,248
944	10,733
944,4	7,962
944,9	5,99
945,3	6,333
945,7	6,533
946,1	14,162
946,6	13,705
947	12,762
947,4	9,248
947,8	15,962
948,2	16,448
948,7	11,276
949,1	8,362
949,5	8,448
949,9	8,79
950,3	8,248
950,8	4,962
951,2	5,019
951,6	12,133
952	14,248
952,5	12,676
952,9	10,048
953,3	12,219
953,7	9,705
954,1	7,133
954,6	5,619
955	7,476
955,4	12,448
955,8	14,276
956,2	19,019
956,7	23,333
957,1	23,99
957,5	22,105
957,9	18,848
958,3	15,476
958,8	17,733
959,2	16,248
959,6	19,876
960	21,219
960,5	19,762
960,9	19,59
961,3	20,476
961,7	22,39
962,1	22,962
962,6	16,905
963	20,533
963,4	26,133
963,8	22,533
964,2	23,848
964,7	20,419
965,1	18,819
965,5	19,533
965,9	14,333
966,3	13,276
966,8	13,248
967,2	14,562
967,6	15,219
968	15,619
968,4	20,248
968,9	18,648
969,3	16,762
969,7	17,048
970,1	17,333
970,5	16,019
971	16,705
971,4	9,133
971,8	13,39
972,2	11,019
972,6	11,676
973,1	7,619
973,5	6,79
973,9	5,076
974,3	11,133
974,7	8,19
975,2	7,39
975,6	7,362
976	10,562
976,4	7,533
976,8	10,076
977,3	5,619
977,7	2,619
978,1	4,362
978,5	8,819
978,9	9,39
979,4	11,876
979,8	8,076
980,2	12,133
980,6	20,048
981	19,933
981,5	16,676
981,9	17,733
982,3	14,933
982,7	17,248
983,1	14,105
983,6	9,419
984	12,676
984,4	11,333
984,8	6,276
985,2	8,162
985,6	6,962
986,1	4,048
986,5	5,39
986,9	0,219
987,3	-0,01
987,7	-0,41
988,2	0,99
988,6	-0,238
989	1,19
989,4	-1,981
989,8	-1,381
990,3	2,105
990,7	3,333
991,1	1,59
991,5	2,848
991,9	3,048
992,3	0,476
992,8	-0,381
993,2	0,133
993,6	3,419
994	7,59
994,4	12,019
994,9	15,333
995,3	19,905
995,7	22,305
996,1	19,476
996,5	15,276
996,9	18,19
997,4	11,619
997,8	10,019
998,2	11,59
998,6	11,648
999	13,705
999,5	17,19
999,9	10,619
1000,3	12,99
1000,7	11,219
1001,1	10,162
1001,5	14,076
1002	14,733
1002,4	10,619
1002,8	13,79
1003,2	11,79
1003,6	12,048
1004	14,448
1004,5	8,648
1004,9	5,619
1005,3	7,219
1005,7	8,733
1006,1	10,162
1006,6	11,19
1007	4,59
1007,4	5,105
1007,8	9,362
1008,2	11,762
1008,6	7,448
1009,1	12,733
1009,5	14,99
1009,9	18,79
1010,3	24,762
1010,7	22,105
1011,1	17,676
1011,6	17,876
1012	14,133
1012,4	11,248
1012,8	8,733
1013,2	0,619
1013,6	4,105
1014,1	3,448
1014,5	8,99
1014,9	9,219
1015,3	9,819
1015,7	13,933
1016,1	19,076
1016,6	15,562
1017	18,248
1017,4	9,733
1017,8	13,19
1018,2	14,19
1018,6	14,305
1019,1	12,762
1019,5	12,819
1019,9	15,19
1020,3	17,248
1020,7	16,905
1021,1	13,505
1021,6	9,59
1022	11,476
1022,4	12,305
1022,8	7,705
1023,2	9,705
1023,6	2,99
1024,1	7,305
1024,5	10,419
1024,9	12,419
1025,3	14,419
1025,7	14,933
1026,1	10,79
1026,6	19,448
1027	16,133
1027,4	13,819
1027,8	8,676
1028,2	6,419
1028,6	8,048
1029	8,648
1029,5	-0,724
1029,9	3,905
1030,3	-0,952
1030,7	2,248
1031,1	2,79
1031,5	4,19
1032	5,362
1032,4	11,762
1032,8	5,648
1033,2	9,733
1033,6	4,419
1034	3,648
1034,4	0,276
1034,9	6,019
1035,3	3,505
1035,7	5,133
1036,1	8,79
1036,5	9,505
1036,9	9,876
1037,4	15,648
1037,8	11,39
1038,2	14,105
1038,6	15,248
1039	14,59
1039,4	19,905
1039,8	22,076
1040,3	22,505
1040,7	25,505
1041,1	20,333
1041,5	25,962
1041,9	33,248
1042,3	32,848
1042,7	28,19
1043,2	26,676
1043,6	25,533
1044	29,19
1044,4	29,305
1044,8	19,762
1045,2	14,419
1045,6	18,819
1046,1	17,133
1046,5	13,762
1046,9	13,448
1047,3	9,733
1047,7	10,705
1048,1	9,876
1048,5	12,419
1049	9,59
1049,4	6,448
1049,8	4,562
1050,2	4,933
1050,6	4,648
1051	11,848
1051,4	6,448
1051,9	12,819
1052,3	16,562
1052,7	18,819
1053,1	14,19
1053,5	16,362
1053,9	9,648
1054,3	5,562
1054,8	-1,924
1055,2	-0,295
1055,6	1,733
1056	7,276
1056,4	1,448
1056,8	5,333
1057,2	8,076
1057,6	14,305
1058,1	13,705
1058,5	5,79
1058,9	2,819
1059,3	4,79
1059,7	3,705
1060,1	4,505
1060,5	2,476
1061	-1,952
1061,4	1,762
1061,8	4,505
1062,2	5,676
1062,6	3,962
1063	3,562
1063,4	3,648
1063,8	6,162
1064,3	11,362
1064,7	13,076
1065,1	18,305
1065,5	21,933
1065,9	27,962
1066,3	26,848
1066,7	33,648
1067,1	34,019
1067,6	34,076
1068	32,448
1068,4	35,248
1068,8	30,962
1069,2	30,448
1069,6	27,705
1070	24,79
1070,4	16,79
1070,9	12,819
1071,3	10,933
1071,7	13,076
1072,1	12,533
1072,5	15,162
1072,9	14,79
1073,3	14,419
1073,7	12,333
1074,2	13,619
1074,6	9,333
1075	11,962
1075,4	10,819
1075,8	5,105
1076,2	11,019
1076,6	15,476
1077	13,733
1077,5	14,362
1077,9	7,79
1078,3	0,762
1078,7	3,905
1079,1	1,933
1079,5	2,333
1079,9	3,619
1080,3	6,619
1080,7	13,876
1081,2	15,133
1081,6	14,448
1082	18,19
1082,4	18,219
1082,8	18,19
1083,2	13,105
1083,6	7,905
1084	8,876
1084,5	10,448
1084,9	7,048
1085,3	2,79
1085,7	-0,552
1086,1	2,076
1086,5	5,019
1086,9	7,39
1087,3	9,676
1087,7	14,219
1088,2	18,676
1088,6	18,59
1089	20,905
1089,4	22,676
1089,8	18,562
1090,2	15,019
1090,6	9,076
1091	6,276
1091,4	4,762
1091,9	1,419
1092,3	2,476
1092,7	4,848
1093,1	7,219
1093,5	6,276
1093,9	7,419
1094,3	10,533
1094,7	11,276
1095,1	13,562
1095,5	14,019
1096	17,276
1096,4	19,248
1096,8	23,162
1097,2	18,276
1097,6	17,448
1098	10,819
1098,4	9,619
1098,8	6,019
1099,2	6,648
1099,6	3,676
1100,1	7,962
1100,5	8,419
1100,9	8,905
1101,3	10,79
1101,7	8,39
1102,1	10,476
1102,5	10,048
1102,9	7,648
1103,3	6,419
1103,7	8,019
1104,2	6,79
1104,6	10,133
1105	4,905
1105,4	5,476
1105,8	6,19
1106,2	6,705
1106,6	5,248
1107	4,162
1107,4	1,767
1107,8	3,773
1108,3	0,683
