Data from Subt2_00016.txt Node
Date: Mon Aug 28 13:09:01 MSK 2023
User: vat
Spectrometer: MAYP114033
Trigger mode: 0
Integration Time (sec): 1,000000E0
Scans to average: 5
Electric dark correction enabled: true
Nonlinearity correction enabled: false
Boxcar width: 3
XAxis mode: Wavelengths
Number of Pixels in Spectrum: 2068
>>>>>Begin Spectral Data<<<<<
199,4	-0,483
199,9	0,927
200,4	-1,233
200,8	2,195
201,3	4,167
201,8	4,852
202,2	5,852
202,7	9,481
203,2	8,367
203,6	11,624
204,1	10,31
204,6	11,224
205	10,938
205,5	13,281
206	8,51
206,4	11,51
206,9	9,852
207,4	8,081
207,8	2,138
208,3	4,195
208,8	8,481
209,2	11,738
209,7	8,91
210,2	9,167
210,6	9,738
211,1	13,624
211,5	15,652
212	12,167
212,5	15,11
212,9	17,71
213,4	17,824
213,9	19,767
214,3	19,252
214,8	17,081
215,3	15,795
215,7	16,167
216,2	16,452
216,7	20,195
217,1	17,995
217,6	17,31
218,1	17,91
218,5	14,881
219	11,195
219,5	9,538
219,9	6,652
220,4	7,052
220,9	7,995
221,3	9,424
221,8	11,452
222,3	13,681
222,7	11,652
223,2	11,967
223,6	17,538
224,1	20,052
224,6	16,852
225	16,11
225,5	17,31
226	19,767
226,4	20,795
226,9	16,338
227,4	20,167
227,8	22,767
228,3	23,481
228,8	23,681
229,2	24,052
229,7	24,31
230,2	21,652
230,6	14,967
231,1	13,367
231,5	14,967
232	14,938
232,5	18,738
232,9	13,652
233,4	16,31
233,9	17,852
234,3	16,967
234,8	16,11
235,3	9,595
235,7	5,052
236,2	7,31
236,7	2,738
237,1	8,91
237,6	9,824
238,1	9,681
238,5	12,452
239	12,281
239,4	13,767
239,9	21,252
240,4	14,395
240,8	12,91
241,3	18,424
241,8	21,052
242,2	21,652
242,7	27,424
243,2	19,795
243,6	25,881
244,1	25,824
244,6	23,081
245	25,51
245,5	29,567
245,9	21,281
246,4	29,452
246,9	30,338
247,3	30,338
247,8	26,281
248,3	22,338
248,7	19,624
249,2	22,881
249,7	21,224
250,1	12,995
250,6	15,367
251	12,881
251,5	12,024
252	7,681
252,4	8,252
252,9	2,881
253,4	6,51
253,8	7,595
254,3	12,281
254,8	12,567
255,2	15,424
255,7	19,081
256,1	23,338
256,6	21,538
257,1	20,881
257,5	17,624
258	14,995
258,5	14,281
258,9	10,595
259,4	9,252
259,9	5,281
260,3	6,424
260,8	7,338
261,2	13,167
261,7	12,395
262,2	8,967
262,6	10,167
263,1	15,995
263,6	11,71
264	12,538
264,5	10,595
264,9	13,767
265,4	17,395
265,9	16,938
266,3	17,138
266,8	15,624
267,3	15,767
267,7	16,995
268,2	16,995
268,7	17,224
269,1	17,681
269,6	18,11
270	21,681
270,5	23,195
271	21,738
271,4	23,395
271,9	24,138
272,4	25,938
272,8	26,452
273,3	28,224
273,7	24,024
274,2	24,481
274,7	17,052
275,1	15,71
275,6	13,538
276,1	11,595
276,5	9,938
277	8,824
277,4	6,51
277,9	11,338
278,4	12,024
278,8	15,452
279,3	13,881
279,8	9,852
280,2	9,252
280,7	6,167
281,1	5,481
281,6	2,024
282,1	-2,662
282,5	-0,319
283	2,424
283,4	8,138
283,9	17,195
284,4	17,71
284,8	19,795
285,3	19,567
285,8	19,881
286,2	16,367
286,7	15,167
287,1	10,51
287,6	11,738
288,1	14,852
288,5	18,338
289	19,281
289,5	22,024
289,9	26,738
290,4	31,081
290,8	31,167
291,3	30,71
291,8	31,995
292,2	29,367
292,7	29,995
293,1	24,452
293,6	13,995
294,1	13,681
294,5	11,481
295	9,91
295,5	7,052
295,9	7,795
296,4	8,995
296,8	13,138
297,3	12,71
297,8	7,167
298,2	5,767
298,7	7,481
299,1	9,338
299,6	11,338
300,1	12,681
300,5	9,738
301	14,538
301,5	15,767
301,9	15,767
302,4	11,31
302,8	9,424
303,3	10,11
303,8	12,881
304,2	8,367
304,7	7,024
305,1	7,195
305,6	9,624
306,1	9,024
306,5	10,11
307	12,681
307,4	19,624
307,9	20,652
308,4	23,367
308,8	25,852
309,3	27,138
309,8	26,252
310,2	26,338
310,7	24,995
311,1	22,281
311,6	20,052
312,1	16,624
312,5	15,195
313	14,824
313,4	13,395
313,9	13,51
314,4	17,51
314,8	19,51
315,3	19,624
315,7	22,195
316,2	25,024
316,7	16,481
317,1	16,624
317,6	12,167
318	13,681
318,5	14,081
319	12,881
319,4	10,424
319,9	12,395
320,3	12,338
320,8	19,424
321,3	14,281
321,7	13,167
322,2	9,795
322,6	7,71
323,1	11,51
323,6	12,11
324	10,224
324,5	12,967
324,9	14,024
325,4	21,538
325,9	26,138
326,3	23,138
326,8	18,481
327,2	12,824
327,7	9,767
328,2	9,995
328,6	7,024
329,1	3,967
329,5	7,452
330	9,652
330,5	12,081
330,9	14,252
331,4	15,081
331,8	16,338
332,3	18,595
332,8	16,538
333,2	16,71
333,7	14,252
334,1	15,424
334,6	15,938
335,1	12,852
335,5	13,224
336	15,967
336,4	21,51
336,9	23,224
337,4	24,681
337,8	23,224
338,3	23,138
338,7	19,824
339,2	20,767
339,7	13,852
340,1	10,567
340,6	5,31
341	4,452
341,5	6,367
342	8,11
342,4	9,338
342,9	13,881
343,3	20,338
343,8	21,51
344,2	26,624
344,7	26,538
345,2	25,624
345,6	25,281
346,1	27,252
346,5	22,424
347	27,795
347,5	23,767
347,9	22,881
348,4	24,281
348,8	24,595
349,3	24,795
349,8	28,624
350,2	28,138
350,7	28,995
351,1	34,91
351,6	38,824
352	42,338
352,5	44,395
353	52,51
353,4	56,91
353,9	64,652
354,3	72,795
354,8	81,395
355,3	89,452
355,7	100,11
356,2	114,052
356,6	135,71
357,1	160,452
357,5	182,71
358	212,452
358,5	245,824
358,9	285,71
359,4	326,452
359,8	373,681
360,3	423,195
360,8	477,31
361,2	541,652
361,7	615,652
362,1	692,652
362,6	777,281
363	868,795
363,5	971,395
364	1085,281
364,4	1194,51
364,9	1299,024
365,3	1408,452
365,8	1514,31
366,3	1606,71
366,7	1690,967
367,2	1763,624
367,6	1825,938
368,1	1875,481
368,5	1906,795
369	1924,252
369,5	1930,595
369,9	1916,595
370,4	1884,995
370,8	1839,481
371,3	1786,138
371,7	1724,338
372,2	1652,795
372,7	1574,338
373,1	1495,938
373,6	1409,224
374	1321,824
374,5	1234,881
374,9	1147,452
375,4	1059,11
375,9	978,538
376,3	896,938
376,8	826,738
377,2	761,31
377,7	704,11
378,2	647,31
378,6	599,024
379,1	546,795
379,5	501,738
380	461,967
380,4	428,281
380,9	394,481
381,4	368,052
381,8	339,167
382,3	319,681
382,7	303,081
383,2	280,91
383,6	260,167
384,1	241,767
384,6	224,624
385	210,224
385,5	192,595
385,9	178,995
386,4	167,624
386,8	160,567
387,3	150,824
387,7	141,71
388,2	132,881
388,7	126,624
389,1	113,91
389,6	110,967
390	104,995
390,5	101,852
390,9	94,767
391,4	89,338
391,9	87,081
392,3	90,481
392,8	88,252
393,2	82,424
393,7	71,367
394,1	70,595
394,6	70,538
395,1	67,052
395,5	63,852
396	57,538
396,4	56,081
396,9	59,824
397,3	58,481
397,8	51,224
398,2	50,538
398,7	49,51
399,2	51,395
399,6	51,424
400,1	52,081
400,5	53,881
401	62,652
401,4	64,024
401,9	62,967
402,4	63,538
402,8	65,681
403,3	64,138
403,7	62,367
404,2	64,338
404,6	65,452
405,1	68,738
405,5	63,967
406	61,767
406,5	64,595
406,9	67,281
407,4	69,481
407,8	73,081
408,3	76,281
408,7	85,795
409,2	93,824
409,6	102,71
410,1	106,595
410,6	112,081
411	119,738
411,5	130,31
411,9	140,452
412,4	149,11
412,8	154,252
413,3	171,224
413,7	184,938
414,2	192,024
414,7	199,081
415,1	210,852
415,6	221,452
416	238,51
416,5	249,11
416,9	260,652
417,4	281,224
417,8	299,681
418,3	316,452
418,8	341,024
419,2	361,081
419,7	379,852
420,1	396,71
420,6	413,938
421	439,195
421,5	468,91
421,9	489,824
422,4	516,081
422,8	544,31
423,3	576,024
423,8	607,881
424,2	637,995
424,7	665,281
425,1	701,595
425,6	735,167
426	773,024
426,5	811,424
426,9	856,481
427,4	897,424
427,9	946,738
428,3	992,624
428,8	1038,452
429,2	1088,11
429,7	1147,11
430,1	1202,081
430,6	1264,31
431	1328,195
431,5	1394,881
431,9	1470,938
432,4	1548,995
432,8	1626,138
433,3	1716,11
433,8	1805,481
434,2	1892,967
434,7	1986,452
435,1	2088,824
435,6	2195,71
436	2307,167
436,5	2411,195
436,9	2531,052
437,4	2652,31
437,8	2782,138
438,3	2911,881
438,8	3042,395
439,2	3187,595
439,7	3339,738
440,1	3487,881
440,6	3647,31
441	3812,367
441,5	3980,224
441,9	4154,652
442,4	4323,481
442,8	4503,367
443,3	4700,852
443,7	4899,224
444,2	5100,138
444,7	5314,51
445,1	5539,252
445,6	5765,338
446	6002,538
446,5	6233,852
446,9	6471,052
447,4	6723,167
447,8	6969,424
448,3	7221,281
448,7	7480,138
449,2	7740,995
449,6	8003,938
450,1	8277,567
450,6	8555,71
451	8835,91
451,5	9132,052
451,9	9433,31
452,4	9734,538
452,8	10061,11
453,3	10377,424
453,7	10699,767
454,2	11039,738
454,6	11370,567
455,1	11707,367
455,5	12044,51
456	12373,91
456,4	12718,338
456,9	13071,652
457,3	13421,052
457,8	13773,738
458,3	14139,138
458,7	14508,31
459,2	14872,738
459,6	15243,938
460,1	15607,652
460,5	15983,91
461	16348,538
461,4	16716,681
461,9	17093,024
462,3	17468,795
462,8	17841,51
463,2	18207,967
463,7	18575,795
464,1	18960,052
464,6	19332,538
465	19692,195
465,5	20053,795
466	20427,852
466,4	20792,567
466,9	21154,481
467,3	21507,538
467,8	21857,395
468,2	22224,481
468,7	22595,767
469,1	22946,795
469,6	23296,31
470	23647,338
470,5	23990,11
470,9	24334,681
471,4	24663,024
471,8	24980,31
472,3	25295,395
472,7	25606,167
473,2	25909,052
473,6	26212,224
474,1	26502,738
474,5	26784,824
475	27066,738
475,4	27347,767
475,9	27624,824
476,4	27880,367
476,8	28141,567
477,3	28383,138
477,7	28633,852
478,2	28859,995
478,6	29077,967
479,1	29298,224
479,5	29511,052
480	29699,024
480,4	29887,938
480,9	30061,852
481,3	30240,51
481,8	30407,252
482,2	30551,338
482,7	30693,652
483,1	30830,395
483,6	30966,138
484	31080,395
484,5	31166,995
484,9	31256,681
485,4	31346,081
485,8	31399,138
486,3	31454,167
486,7	31508,967
487,2	31566,652
487,6	31611,567
488,1	31645,652
488,5	31669,967
489	31701,967
489,4	31707,71
489,9	31700,624
490,4	31671,395
490,8	31642,395
491,3	31603,538
491,7	31548,081
492,2	31507,424
492,6	31457,71
493,1	31386,767
493,5	31300,081
494	31222,452
494,4	31138,995
494,9	31052,738
495,3	30937,424
495,8	30843,738
496,2	30733,852
496,7	30645,424
497,1	30544,081
497,6	30424,024
498	30306,938
498,5	30181,11
498,9	30042,538
499,4	29910,938
499,8	29764,681
500,3	29609,881
500,7	29453,738
501,2	29282,681
501,6	29123,681
502,1	28957,452
502,5	28787,881
503	28617,195
503,4	28458,681
503,9	28296,167
504,3	28125,738
504,8	27942,338
505,2	27759,51
505,7	27578,995
506,1	27389,481
506,6	27175,024
507	26974,767
507,5	26780,11
507,9	26575,91
508,4	26358,824
508,8	26160,11
509,3	25938,367
509,7	25731,967
510,2	25514,195
510,6	25295,281
511,1	25090,595
511,5	24871,967
512	24655,081
512,4	24437,967
512,9	24223,624
513,3	23992,624
513,8	23761,767
514,2	23528,367
514,7	23305,767
515,1	23066,71
515,6	22844,252
516	22613,081
516,5	22392,881
516,9	22176,31
517,4	21953,995
517,8	21732,195
518,3	21510,081
518,7	21281,995
519,2	21057,652
519,6	20836,452
520,1	20618,224
520,5	20403,167
521	20180,681
521,4	19950,681
521,9	19746,395
522,3	19539,681
522,8	19324,881
523,2	19110,081
523,7	18908,681
524,1	18703,367
524,6	18506,31
525	18300,538
525,5	18100,767
525,9	17907,31
526,4	17703,195
526,8	17494,167
527,3	17303,595
527,7	17105,081
528,2	16910,281
528,6	16720,481
529,1	16532,595
529,5	16348,338
530	16167,652
530,4	15984,995
530,9	15810,167
531,3	15628,481
531,8	15448,024
532,2	15270,881
532,6	15103,224
533,1	14925,138
533,5	14758,967
534	14592,681
534,4	14432,938
534,9	14273,852
535,3	14112,167
535,8	13963,652
536,2	13830,538
536,7	13676,081
537,1	13519,052
537,6	13367,538
538	13217,481
538,5	13074,481
538,9	12907,767
539,4	12755,452
539,8	12603,31
540,3	12478,567
540,7	12334,052
541,2	12203,852
541,6	12069,481
542,1	11943,967
542,5	11807,395
543	11682,167
543,4	11541,51
543,9	11413,367
544,3	11279,51
544,8	11153,538
545,2	11029,481
545,7	10915,567
546,1	10801,424
546,5	10677,338
547	10575,938
547,4	10460,652
547,9	10348,938
548,3	10242,052
548,8	10127,967
549,2	10018,167
549,7	9916,681
550,1	9803,738
550,6	9697,252
551	9593,881
551,5	9492,767
551,9	9393,281
552,4	9298,652
552,8	9211,824
553,3	9118,71
553,7	9037,252
554,2	8949,967
554,6	8869,081
555,1	8767,595
555,5	8679,138
555,9	8587,967
556,4	8503,967
556,8	8414,938
557,3	8330,567
557,7	8251,424
558,2	8182,481
558,6	8102,195
559,1	8023,51
559,5	7949,824
560	7880,995
560,4	7803,424
560,9	7725,281
561,3	7647,767
561,8	7574,167
562,2	7498,31
562,7	7423,51
563,1	7347,224
563,6	7278,167
564	7205,11
564,4	7136,081
564,9	7061,024
565,3	6996,624
565,8	6932,91
566,2	6861,052
566,7	6799,081
567,1	6737,367
567,6	6683,51
568	6636,452
568,5	6578,538
568,9	6513,481
569,4	6455,252
569,8	6389,338
570,3	6333,481
570,7	6268,995
571,1	6203,624
571,6	6149,738
572	6100,252
572,5	6045,081
572,9	5994,652
573,4	5933,938
573,8	5886,281
574,3	5834,281
574,7	5788,995
575,2	5734,595
575,6	5690,338
576,1	5644,738
576,5	5601,824
576,9	5552,11
577,4	5511,51
577,8	5455,138
578,3	5412,567
578,7	5366,195
579,2	5311,967
579,6	5258,024
580,1	5214,967
580,5	5166,852
581	5125,081
581,4	5080,167
581,9	5034,424
582,3	5000,395
582,7	4959,767
583,2	4916,167
583,6	4876,852
584,1	4837,481
584,5	4789,11
585	4745,024
585,4	4699,195
585,9	4663,681
586,3	4626,91
586,8	4586,281
587,2	4541,938
587,6	4506,824
588,1	4474,424
588,5	4442,367
589	4400,795
589,4	4356,081
589,9	4323,367
590,3	4288,395
590,8	4260,11
591,2	4225,138
591,7	4189,138
592,1	4162,11
592,5	4137,595
593	4100,195
593,4	4068,91
593,9	4038,624
594,3	4011,024
594,8	3984,395
595,2	3955,595
595,7	3923,824
596,1	3904,452
596,6	3878,252
597	3849,481
597,4	3820,91
597,9	3788,11
598,3	3761,195
598,8	3734,567
599,2	3702,71
599,7	3677,767
600,1	3654,195
600,6	3625,595
601	3605,824
601,4	3580,138
601,9	3554,71
602,3	3538,767
602,8	3518,938
603,2	3493,852
603,7	3472,824
604,1	3450,967
604,6	3425,024
605	3407,995
605,4	3374,452
605,9	3343,367
606,3	3318,138
606,8	3293,424
607,2	3266,71
607,7	3245,081
608,1	3213,681
608,6	3197,795
609	3182,081
609,4	3159,052
609,9	3141,167
610,3	3122,138
610,8	3096,195
611,2	3078,738
611,7	3053,624
612,1	3028,767
612,6	3000,938
613	2976,767
613,4	2951,938
613,9	2940,452
614,3	2912,795
614,8	2888,367
615,2	2869,881
615,7	2851,081
616,1	2831,31
616,6	2813,11
617	2783,167
617,4	2767,167
617,9	2749,51
618,3	2724,481
618,8	2711,195
619,2	2690,51
619,7	2665,567
620,1	2652,51
620,5	2630,51
621	2608,538
621,4	2591,338
621,9	2567,595
622,3	2550,881
622,8	2531,767
623,2	2517,081
623,6	2506,938
624,1	2491,367
624,5	2476,367
625	2458,195
625,4	2440,681
625,9	2424,91
626,3	2405,881
626,8	2386,652
627,2	2364,681
627,6	2346,767
628,1	2332,195
628,5	2311,71
629	2294,11
629,4	2273,852
629,9	2257,024
630,3	2244,738
630,7	2228,824
631,2	2210,224
631,6	2193,71
632,1	2181,31
632,5	2169,252
633	2154,681
633,4	2141,967
633,8	2118,995
634,3	2107,252
634,7	2086,967
635,2	2072,338
635,6	2054,052
636,1	2033,281
636,5	2020,081
636,9	2013,424
637,4	1996,281
637,8	1987,938
638,3	1974,995
638,7	1960,595
639,2	1951,852
639,6	1934,024
640	1920,995
640,5	1908,852
640,9	1895,167
641,4	1880,11
641,8	1869,567
642,2	1851,11
642,7	1839,967
643,1	1825,881
643,6	1815,767
644	1808,681
644,5	1798,624
644,9	1784,281
645,3	1775,052
645,8	1759,51
646,2	1746,738
646,7	1721,71
647,1	1701,995
647,6	1689,795
648	1675,31
648,4	1662,624
648,9	1650,567
649,3	1637,767
649,8	1640,481
650,2	1631,795
650,6	1619,681
651,1	1613,138
651,5	1604,281
652	1597,824
652,4	1586,224
652,9	1571,452
653,3	1560,595
653,7	1548,167
654,2	1538,367
654,6	1529,424
655,1	1517,31
655,5	1510,052
655,9	1500,824
656,4	1493,081
656,8	1484,252
657,3	1472,11
657,7	1453,538
658,2	1444,71
658,6	1433,652
659	1425,281
659,5	1412,224
659,9	1401,767
660,4	1393,252
660,8	1391,624
661,2	1376,738
661,7	1365,167
662,1	1355,424
662,6	1349,167
663	1333,452
663,4	1320,31
663,9	1307,224
664,3	1293,052
664,8	1283,224
665,2	1271,852
665,6	1259,767
666,1	1252,824
666,5	1249,338
667	1241,538
667,4	1244,824
667,9	1242,138
668,3	1235,252
668,7	1224,938
669,2	1218,738
669,6	1202,338
670,1	1188,824
670,5	1181,31
670,9	1168,395
671,4	1157,281
671,8	1149,452
672,3	1143,224
672,7	1139,71
673,1	1139,681
673,6	1123,738
674	1114,824
674,5	1108,195
674,9	1100,024
675,3	1091,31
675,8	1081,767
676,2	1066,338
676,7	1058,738
677,1	1052,138
677,5	1044,367
678	1042,452
678,4	1035,595
678,9	1028,138
679,3	1024,51
679,7	1019,967
680,2	1013,424
680,6	1004,71
681,1	992,338
681,5	983,395
681,9	976,967
682,4	969,91
682,8	961,338
683,3	957,252
683,7	951,281
684,1	943,138
684,6	935,795
685	923,967
685,5	912,481
685,9	902,138
686,3	896,938
686,8	891,252
687,2	884,824
687,7	880,367
688,1	878,452
688,5	873,11
689	876,052
689,4	862,252
689,9	855,995
690,3	856,852
690,7	851,052
691,2	848,538
691,6	843,424
692	831,281
692,5	830,967
692,9	828,967
693,4	817,767
693,8	808,138
694,2	798,31
694,7	796,795
695,1	793,424
695,6	786,71
696	772,567
696,4	767,224
696,9	763,595
697,3	761,652
697,8	756,538
698,2	749,567
698,6	740,824
699,1	743,995
699,5	737,31
699,9	732,024
700,4	728,081
700,8	717,51
701,3	710,767
701,7	703,538
702,1	691,11
702,6	686,795
703	682,652
703,5	673,167
703,9	672,11
704,3	670,052
704,8	669,681
705,2	669,567
705,6	662,995
706,1	655,338
706,5	654,167
707	652,652
707,4	649,224
707,8	644,995
708,3	637,424
708,7	636,424
709,2	634,652
709,6	629,71
710	621,738
710,5	617,31
710,9	614,024
711,3	609,567
711,8	603,281
712,2	599,995
712,7	589,881
713,1	587,31
713,5	582,224
714	573,51
714,4	566,024
714,8	562,51
715,3	557,967
715,7	556,538
716,2	557,51
716,6	549,71
717	548,052
717,5	545,71
717,9	540,938
718,3	539,138
718,8	535,624
719,2	526,31
719,7	523,852
720,1	517,024
720,5	518,51
721	518,852
721,4	512,681
721,8	507,938
722,3	505,824
722,7	502,31
723,2	498,652
723,6	491,824
724	485,738
724,5	480,281
724,9	478,224
725,3	466,71
725,8	463,452
726,2	461,167
726,7	452,852
727,1	444,31
727,5	440,767
728	431,938
728,4	436,852
728,8	434,338
729,3	431,452
729,7	431,967
730,1	430,51
730,6	430,652
731	433,595
731,5	428,452
731,9	426,567
732,3	424,681
732,8	427,624
733,2	429,538
733,6	428,395
734,1	421,852
734,5	420,31
734,9	414,024
735,4	405,624
735,8	396,224
736,3	389,252
736,7	386,652
737,1	388,281
737,6	383,367
738	387,481
738,4	392,51
738,9	388,538
739,3	389,652
739,7	390,424
740,2	387,595
740,6	386,567
741,1	377,395
741,5	372,538
741,9	373,624
742,4	374,252
742,8	370,167
743,2	365,652
743,7	362,138
744,1	364,395
744,5	364,995
745	363,967
745,4	361,652
745,8	354,081
746,3	352,367
746,7	347,91
747,2	343,052
747,6	340,167
748	337,91
748,5	333,595
748,9	331,138
749,3	331,481
749,8	332,224
750,2	329,91
750,6	325,767
751,1	325,481
751,5	324,252
751,9	323,738
752,4	326,881
752,8	325,624
753,3	325,538
753,7	328,738
754,1	326,338
754,6	319,738
755	317,024
755,4	314,91
755,9	314,252
756,3	313,338
756,7	307,538
757,2	304,081
757,6	303,481
758	302,395
758,5	291,11
758,9	285,167
759,3	283,624
759,8	276,538
760,2	275,31
760,6	281,852
761,1	282,481
761,5	285,281
761,9	282,367
762,4	276,881
762,8	281,738
763,3	277,367
763,7	271,224
764,1	268,51
764,6	263,538
765	266,91
765,4	268,538
765,9	266,595
766,3	266,824
766,7	266,367
767,2	264,195
767,6	265,51
768	257,595
768,5	254,367
768,9	251,452
769,3	249,681
769,8	240,395
770,2	236,367
770,6	234,31
771,1	235,767
771,5	235,51
771,9	233,424
772,4	227,938
772,8	229,252
773,2	230,91
773,7	227,024
774,1	232,938
774,5	229,567
775	228,595
775,4	231,824
775,8	230,91
776,3	226,538
776,7	228,367
777,1	219,167
777,6	214,567
778	212,938
778,4	209,624
778,9	209,281
779,3	211,024
779,7	206,052
780,2	204,652
780,6	208,51
781	205,624
781,5	206,681
781,9	203,31
782,3	201,71
782,8	203,024
783,2	200,252
783,6	195,224
784,1	193,51
784,5	187,995
784,9	188,081
785,4	185,195
785,8	182,195
786,2	183,052
786,7	184,624
787,1	191,052
787,5	193,052
788	190,024
788,4	193,224
788,8	191,795
789,3	192,681
789,7	190,024
790,1	186,424
790,6	183,367
791	182,224
791,4	181,481
791,9	179,91
792,3	178,624
792,7	179,138
793,2	176,738
793,6	178,881
794	179,452
794,5	172,024
794,9	177,652
795,3	174,71
795,8	175,967
796,2	169,681
796,6	169,824
797,1	171,252
797,5	170,481
797,9	170,538
798,4	169,11
798,8	165,767
799,2	167,967
799,7	164,881
800,1	165,052
800,5	165,795
801	159,738
801,4	160,995
801,8	157,795
802,2	156,452
802,7	154,51
803,1	154,567
803,5	153,995
804	150,624
804,4	148,452
804,8	151,31
805,3	148,481
805,7	148,195
806,1	139,424
806,6	140,11
807	141,367
807,4	141,11
807,9	141,252
808,3	145,367
808,7	148,567
809,2	153,167
809,6	147,881
810	144,71
810,4	140,824
810,9	138,51
811,3	136,795
811,7	126,31
812,2	120,938
812,6	122,052
813	127,967
813,5	131,852
813,9	129,081
814,3	121,481
814,8	124,567
815,2	128,481
815,6	126,338
816,1	119,852
816,5	118,538
816,9	119,51
817,3	125,624
817,8	128,938
818,2	123,995
818,6	124,567
819,1	123,081
819,5	118,824
819,9	115,481
820,4	116,767
820,8	113,224
821,2	110,91
821,7	108,738
822,1	111,281
822,5	116,252
822,9	116,367
823,4	109,081
823,8	107,51
824,2	110,938
824,7	111,738
825,1	110,51
825,5	105,938
826	100,995
826,4	104,11
826,8	100,71
827,3	100,538
827,7	100,881
828,1	100,367
828,5	102,624
829	108,624
829,4	102,824
829,8	109,881
830,3	109,738
830,7	107,481
831,1	103,138
831,6	98,881
832	98,367
832,4	102,281
832,8	94,995
833,3	90,224
833,7	85,91
834,1	88,738
834,6	87,395
835	83,338
835,4	80,252
835,8	81,567
836,3	81,652
836,7	84,11
837,1	83,024
837,6	77,31
838	79,395
838,4	77,652
838,9	77,824
839,3	81,338
839,7	82,424
840,1	80,281
840,6	90,31
841	82,538
841,4	82,395
841,9	82,395
842,3	80,11
842,7	75,338
843,1	75,31
843,6	66,395
844	70,138
844,4	74,91
844,9	73,138
845,3	70,481
845,7	71,681
846,2	72,852
846,6	75,624
847	77,31
847,4	78,338
847,9	76,367
848,3	74,11
848,7	76,11
849,2	70,71
849,6	71,024
850	69,11
850,4	61,881
850,9	62,767
851,3	65,681
851,7	63,51
852,2	63,881
852,6	62,31
853	66,595
853,4	68,938
853,9	68,538
854,3	69,824
854,7	71,31
855,2	72,767
855,6	72,31
856	72,852
856,4	69,024
856,9	68,395
857,3	64,51
857,7	64,567
858,2	66,652
858,6	63,138
859	56,595
859,4	56,595
859,9	52,967
860,3	56,71
860,7	52,252
861,1	52,424
861,6	54,481
862	58,624
862,4	59,767
862,9	64,224
863,3	56,995
863,7	60,252
864,1	57,567
864,6	57,681
865	54,967
865,4	56,338
865,9	53,024
866,3	58,767
866,7	58,452
867,1	56,967
867,6	58,995
868	55,281
868,4	54,338
868,8	53,224
869,3	53,852
869,7	54,31
870,1	54,481
870,6	51,652
871	118,395
871,4	117,767
871,8	118,081
872,3	113,995
872,7	107,967
873,1	106,224
873,5	105,51
874	44,252
874,4	40,767
874,8	39,852
875,3	36,452
875,7	33,424
876,1	38,224
876,5	39,481
877	35,195
877,4	38,31
877,8	40,452
878,2	47,224
878,7	54,167
879,1	52,91
879,5	51,138
879,9	49,538
880,4	44,395
880,8	48,338
881,2	44,881
881,7	42,338
882,1	37,852
882,5	38,995
882,9	40,367
883,4	39,938
883,8	34,224
884,2	34,281
884,6	30,452
885,1	27,224
885,5	25,995
885,9	27,51
886,3	31,195
886,8	33,395
887,2	29,824
887,6	31,71
888	36,881
888,5	36,224
888,9	28,767
889,3	26,395
889,8	27,995
890,2	28,538
890,6	32,71
891	32,567
891,5	34,395
891,9	36,91
892,3	40,31
892,7	34,852
893,2	35,738
893,6	30,424
894	26,738
894,4	19,281
894,9	20,652
895,3	19,967
895,7	21,224
896,1	19,71
896,6	21,595
897	29,138
897,4	36,624
897,8	38,995
898,3	42,652
898,7	43,195
899,1	46,71
899,5	50,367
900	43,138
900,4	38,624
900,8	28,824
901,2	24,795
901,7	24,395
902,1	21,31
902,5	17,31
902,9	15,738
903,4	22,052
903,8	26,395
904,2	27,424
904,6	25,652
905,1	26,91
905,5	27,795
905,9	31,738
906,3	27,624
906,8	30,481
907,2	27,938
907,6	30,938
908	26,167
908,5	23,624
908,9	19,167
909,3	22,595
909,7	21,567
910,2	18,995
910,6	19,567
911	24,995
911,4	28,738
911,9	31,367
912,3	32,51
912,7	34,052
913,1	33,967
913,6	33,51
914	37,081
914,4	33,052
914,8	37,367
915,3	34,595
915,7	35,938
916,1	39,738
916,5	34,052
916,9	28,738
917,4	28,767
917,8	23,224
918,2	25,224
918,6	19,367
919,1	15,481
919,5	22,91
919,9	24,824
920,3	25,938
920,8	28,91
921,2	24,538
921,6	27,424
922	26,424
922,5	22,852
922,9	24,681
923,3	26,71
923,7	24,767
924,2	27,91
924,6	24,938
925	30,424
925,4	30,767
925,8	30,738
926,3	27,081
926,7	28,081
927,1	25,424
927,5	31,967
928	27,024
928,4	24,481
928,8	23,824
929,2	25,024
929,7	29,081
930,1	30,452
930,5	24,424
930,9	29,652
931,3	35,51
931,8	34,881
932,2	36,052
932,6	29,624
933	22,852
933,5	26,052
933,9	23,881
934,3	18,081
934,7	18,367
935,2	16,967
935,6	15,595
936	17,424
936,4	18,767
936,8	16,281
937,3	21,367
937,7	18,395
938,1	19,738
938,5	21,91
939	24,024
939,4	18,11
939,8	16,424
940,2	10,967
940,6	7,51
941,1	2,852
941,5	2,767
941,9	1,652
942,3	6,481
942,8	5,538
943,2	1,51
943,6	3,424
944	6,195
944,4	5,824
944,9	5,91
945,3	3,738
945,7	4,938
946,1	9,367
946,6	11,052
947	10,91
947,4	8,538
947,8	11,367
948,2	15,995
948,7	17,738
949,1	16,624
949,5	14,024
949,9	13,11
950,3	13,167
950,8	8,195
951,2	-0,062
951,6	-0,176
952	1,567
952,5	-2,119
952,9	-4,062
953,3	-5,348
953,7	-3,49
954,1	2,395
954,6	2,567
955	4,024
955,4	9,938
955,8	15,11
956,2	18,138
956,7	20,367
957,1	17,824
957,5	19,538
957,9	16,881
958,3	18,71
958,8	17,31
959,2	20,11
959,6	22,538
960	23,567
960,5	19,967
960,9	24,652
961,3	21,224
961,7	25,824
962,1	23,567
962,6	22,738
963	25,624
963,4	35,652
963,8	28,652
964,2	29,167
964,7	26,595
965,1	25,252
965,5	26,91
965,9	22,538
966,3	18,995
966,8	21,852
967,2	22,567
967,6	20,938
968	21,052
968,4	20,481
968,9	19,795
969,3	18,595
969,7	17,224
970,1	16,738
970,5	13,91
971	19,967
971,4	14,624
971,8	16,11
972,2	12,824
972,6	15,224
973,1	15,081
973,5	16,052
973,9	8,738
974,3	12,71
974,7	11,51
975,2	11,252
975,6	9,395
976	8,424
976,4	8,281
976,8	7,338
977,3	3,995
977,7	3,595
978,1	4,11
978,5	2,795
978,9	5,138
979,4	4,967
979,8	7,167
980,2	8,595
980,6	14,967
981	13,481
981,5	17,481
981,9	17,738
982,3	16,852
982,7	16,995
983,1	17,824
983,6	13,538
984	12,938
984,4	10,281
984,8	7,281
985,2	12,338
985,6	10,51
986,1	2,51
986,5	4,024
986,9	7,652
987,3	6,738
987,7	9,652
988,2	3,51
988,6	2,51
989	9,195
989,4	4,624
989,8	3,224
990,3	3,567
990,7	2,881
991,1	2,852
991,5	6,052
991,9	4,11
992,3	3,195
992,8	-0,89
993,2	-2,319
993,6	-3,233
994	-0,405
994,4	-2,033
994,9	-0,148
995,3	4,024
995,7	7,538
996,1	9,938
996,5	12,738
996,9	19,452
997,4	21,452
997,8	19,081
998,2	19,224
998,6	18,195
999	17,91
999,5	16,481
999,9	7,824
1000,3	5,081
1000,7	9,595
1001,1	5,881
1001,5	7,081
1002	7,338
1002,4	7,167
1002,8	10,681
1003,2	14,51
1003,6	10,824
1004	14,738
1004,5	14,024
1004,9	13,995
1005,3	12,852
1005,7	13,11
1006,1	9,195
1006,6	9,795
1007	9,424
1007,4	8,11
1007,8	11,967
1008,2	16,224
1008,6	14,195
1009,1	16,481
1009,5	20,624
1009,9	21,738
1010,3	25,567
1010,7	25,51
1011,1	23,138
1011,6	22,71
1012	25,71
1012,4	20,938
1012,8	16,081
1013,2	16,367
1013,6	14,224
1014,1	10,595
1014,5	11,424
1014,9	8,852
1015,3	8,252
1015,7	12,167
1016,1	11,938
1016,6	13,71
1017	13,738
1017,4	12,081
1017,8	16,795
1018,2	17,652
1018,6	19,567
1019,1	17,51
1019,5	15,538
1019,9	18,052
1020,3	18,024
1020,7	11,967
1021,1	8,967
1021,6	5,624
1022	5,595
1022,4	5,367
1022,8	3,338
1023,2	2,967
1023,6	2,767
1024,1	11,281
1024,5	14,995
1024,9	20,852
1025,3	19,824
1025,7	18,91
1026,1	17,281
1026,6	20,31
1027	16,195
1027,4	16,51
1027,8	7,595
1028,2	11,31
1028,6	14,195
1029	15,081
1029,5	14,824
1029,9	17,367
1030,3	11,024
1030,7	15,71
1031,1	12,767
1031,5	13,452
1032	15,652
1032,4	18,852
1032,8	13,824
1033,2	12,538
1033,6	11,481
1034	8,738
1034,4	6,652
1034,9	9,852
1035,3	6,252
1035,7	7,595
1036,1	14,595
1036,5	12,738
1036,9	11,938
1037,4	14,367
1037,8	12,51
1038,2	14,91
1038,6	12,652
1039	12,852
1039,4	18,224
1039,8	24,424
1040,3	22,738
1040,7	24,995
1041,1	18,452
1041,5	29,852
1041,9	29,424
1042,3	25,224
1042,7	23,452
1043,2	21,31
1043,6	23,252
1044	31,224
1044,4	30,138
1044,8	27,91
1045,2	27,738
1045,6	31,595
1046,1	37,824
1046,5	31,824
1046,9	27,567
1047,3	21,567
1047,7	19,367
1048,1	18,395
1048,5	12,224
1049	8,252
1049,4	7,624
1049,8	9,51
1050,2	5,538
1050,6	7,738
1051	12,338
1051,4	10,967
1051,9	12,424
1052,3	11,567
1052,7	7,567
1053,1	6,824
1053,5	4,624
1053,9	2,11
1054,3	-1,29
1054,8	-4,519
1055,2	-1,69
1055,6	-1,433
1056	6,681
1056,4	4,995
1056,8	6,481
1057,2	12,367
1057,6	18,367
1058,1	19,595
1058,5	22,195
1058,9	19,624
1059,3	21,852
1059,7	16,51
1060,1	14,967
1060,5	13,195
1061	11,91
1061,4	7,795
1061,8	5,71
1062,2	5,881
1062,6	10,195
1063	14,681
1063,4	12,395
1063,8	14,538
1064,3	18,652
1064,7	20,281
1065,1	22,681
1065,5	23,367
1065,9	21,967
1066,3	22,881
1066,7	26,024
1067,1	25,252
1067,6	23,567
1068	23,824
1068,4	21,167
1068,8	21,338
1069,2	22,11
1069,6	16,224
1070	16,967
1070,4	18,052
1070,9	19,11
1071,3	19,71
1071,7	17,852
1072,1	13,024
1072,5	13,367
1072,9	12,938
1073,3	13,024
1073,7	7,967
1074,2	8,995
1074,6	10,424
1075	14,881
1075,4	20,652
1075,8	16,31
1076,2	15,281
1076,6	19,652
1077	20,138
1077,5	20,595
1077,9	16,51
1078,3	7,824
1078,7	12,081
1079,1	15,31
1079,5	12,338
1079,9	15,167
1080,3	14,881
1080,7	18,967
1081,2	23,024
1081,6	20,767
1082	20,71
1082,4	18,795
1082,8	14,252
1083,2	10,452
1083,6	8,795
1084	8,11
1084,5	9,51
1084,9	5,652
1085,3	5,052
1085,7	7,024
1086,1	9,281
1086,5	4,31
1086,9	4,11
1087,3	5,138
1087,7	10,824
1088,2	17,481
1088,6	15,195
1089	19,11
1089,4	30,681
1089,8	29,338
1090,2	27,252
1090,6	22,281
1091	16,11
1091,4	13,338
1091,9	12,024
1092,3	8,624
1092,7	7,995
1093,1	9,91
1093,5	7,967
1093,9	7,367
1094,3	10,081
1094,7	5,138
1095,1	6,938
1095,5	7,395
1096	10,367
1096,4	14,938
1096,8	21,852
1097,2	21,681
1097,6	24,795
1098	18,767
1098,4	22,51
1098,8	22,195
1099,2	16,567
1099,6	14,395
1100,1	15,395
1100,5	13,281
1100,9	11,281
1101,3	9,195
1101,7	8,024
1102,1	13,31
1102,5	9,967
1102,9	8,424
1103,3	7,824
1103,7	9,71
1104,2	9,224
1104,6	5,538
1105	0,195
1105,4	3,738
1105,8	3,91
1106,2	4,338
1106,6	3,881
1107	2,281
1107,4	2,5
1107,8	5,207
1108,3	1,317
