Data from Subt2_00097.txt Node
Date: Mon Aug 28 13:36:41 MSK 2023
User: vat
Spectrometer: MAYP114033
Trigger mode: 0
Integration Time (sec): 1,000000E0
Scans to average: 5
Electric dark correction enabled: true
Nonlinearity correction enabled: false
Boxcar width: 3
XAxis mode: Wavelengths
Number of Pixels in Spectrum: 2068
>>>>>Begin Spectral Data<<<<<
199,4	-0,45
199,9	-0,7
200,4	-1,8
200,8	2,214
201,3	4,814
201,8	7,129
202,2	11,043
202,7	9,986
203,2	11,5
203,6	15,443
204,1	15,243
204,6	15,671
205	16,929
205,5	13,671
206	15,386
206,4	14,214
206,9	12,386
207,4	8,7
207,8	5,986
208,3	3,071
208,8	3,414
209,2	7,586
209,7	8,929
210,2	8,786
210,6	10,643
211,1	16,729
211,5	19,871
212	22,186
212,5	18,243
212,9	18,443
213,4	19,129
213,9	15,243
214,3	17,757
214,8	20,271
215,3	19,129
215,7	18,814
216,2	18,243
216,7	23,129
217,1	23,786
217,6	16,7
218,1	13,329
218,5	13,929
219	17,443
219,5	24,814
219,9	16,071
220,4	23,157
220,9	21,586
221,3	19,071
221,8	17,586
222,3	18,843
222,7	15,443
223,2	17,1
223,6	14,214
224,1	20,243
224,6	23,843
225	27,957
225,5	23,871
226	21,957
226,4	25,814
226,9	22,1
227,4	23,871
227,8	21,786
228,3	19,243
228,8	19,271
229,2	20,729
229,7	20,3
230,2	24,271
230,6	18,271
231,1	20,271
231,5	22,586
232	22,586
232,5	18,243
232,9	21,757
233,4	19,1
233,9	18,5
234,3	20,357
234,8	17,614
235,3	22,671
235,7	26,329
236,2	19,3
236,7	17,9
237,1	24,5
237,6	21,071
238,1	24,757
238,5	19,929
239	19,443
239,4	25,043
239,9	29,186
240,4	22,329
240,8	26,471
241,3	23,957
241,8	24,443
242,2	21,214
242,7	20,957
243,2	22,7
243,6	28,671
244,1	22,557
244,6	17,357
245	17,7
245,5	20,529
245,9	20,586
246,4	19,3
246,9	16,529
247,3	20,586
247,8	20,357
248,3	22,7
248,7	22,814
249,2	20,986
249,7	21,1
250,1	15,157
250,6	11,071
251	10,1
251,5	3,129
252	0,443
252,4	1,129
252,9	1,443
253,4	6,157
253,8	5,529
254,3	10,414
254,8	15,757
255,2	18,329
255,7	14,3
256,1	12,871
256,6	11,871
257,1	12,5
257,5	12,871
258	5,043
258,5	4,671
258,9	3,986
259,4	2,5
259,9	-1,071
260,3	-3,071
260,8	-6,557
261,2	0,129
261,7	1,671
262,2	5,471
262,6	5,643
263,1	9,643
263,6	12,986
264	16,843
264,5	19,014
264,9	14,871
265,4	10,3
265,9	10,157
266,3	9,957
266,8	7,443
267,3	8,786
267,7	7,043
268,2	8,786
268,7	10,757
269,1	11,329
269,6	12,329
270	7,386
270,5	7,3
271	2,043
271,4	-1,243
271,9	-1,329
272,4	0,729
272,8	0,957
273,3	7,357
273,7	2,529
274,2	10,471
274,7	14,529
275,1	17,814
275,6	18,729
276,1	20,186
276,5	20,814
277	25,986
277,4	22,643
277,9	19,729
278,4	18,071
278,8	15,557
279,3	14,129
279,8	15,214
280,2	15,786
280,7	15,1
281,1	13,671
281,6	13,871
282,1	12,986
282,5	15,157
283	15,586
283,4	14,186
283,9	17,1
284,4	20,614
284,8	21,729
285,3	20,214
285,8	18,271
286,2	14,814
286,7	12,957
287,1	10,414
287,6	9,786
288,1	11,043
288,5	12,1
289	8,757
289,5	9,357
289,9	8,071
290,4	10,729
290,8	11,043
291,3	9,871
291,8	13,3
292,2	16,471
292,7	17,071
293,1	19,814
293,6	17,729
294,1	20,729
294,5	21,786
295	18,443
295,5	17,929
295,9	23,271
296,4	20,014
296,8	19,1
297,3	19,557
297,8	20,814
298,2	19,586
298,7	19,214
299,1	15,214
299,6	16,157
300,1	19,014
300,5	14,757
301	12,929
301,5	18,186
301,9	14,643
302,4	13,271
302,8	11,614
303,3	13,357
303,8	17,329
304,2	19,414
304,7	16,243
305,1	19,786
305,6	19,157
306,1	21,986
306,5	14,557
307	11,129
307,4	4,529
307,9	4,243
308,4	2,9
308,8	6,471
309,3	8,071
309,8	9,5
310,2	9,243
310,7	11,471
311,1	9,729
311,6	8,7
312,1	7,014
312,5	5,271
313	8,357
313,4	10,357
313,9	11,471
314,4	13,357
314,8	18,729
315,3	19,443
315,7	23,586
316,2	22,957
316,7	24,386
317,1	21,586
317,6	21,071
318	23,5
318,5	24,729
319	20,814
319,4	26,3
319,9	20,729
320,3	22,7
320,8	21,471
321,3	13,757
321,7	9,843
322,2	8,243
322,6	3,243
323,1	5,071
323,6	4,443
324	5,214
324,5	9,729
324,9	16,557
325,4	18,043
325,9	18,986
326,3	19,586
326,8	18,986
327,2	22,071
327,7	16,786
328,2	16,1
328,6	18,929
329,1	15,529
329,5	14,9
330	15,014
330,5	15,586
330,9	18,386
331,4	13,186
331,8	14,129
332,3	17,871
332,8	18,557
333,2	20,471
333,7	12,557
334,1	9,929
334,6	11,3
335,1	6,443
335,5	4,1
336	8,3
336,4	8,386
336,9	12,643
337,4	13,1
337,8	12,643
338,3	16,414
338,7	16,186
339,2	6,157
339,7	5,614
340,1	3,243
340,6	2,957
341	2,443
341,5	-1,357
342	1,071
342,4	2,557
342,9	2,7
343,3	9,3
343,8	14,529
344,2	14,529
344,7	13,357
345,2	11,386
345,6	16,957
346,1	17,014
346,5	18,7
347	15,643
347,5	19,3
347,9	20,014
348,4	20,471
348,8	21,329
349,3	19,014
349,8	16,7
350,2	17,5
350,7	14,386
351,1	15,786
351,6	15,471
352	15,643
352,5	24,414
353	28,043
353,4	30,186
353,9	40,014
354,3	54,243
354,8	60,614
355,3	75,129
355,7	83,757
356,2	98,3
356,6	116,271
357,1	136,614
357,5	152,814
358	185,929
358,5	213,014
358,9	249,071
359,4	290,271
359,8	337,014
360,3	383,586
360,8	443,557
361,2	505,586
361,7	579,843
362,1	655,157
362,6	734,586
363	821,043
363,5	915,129
364	1006,529
364,4	1102,786
364,9	1197,786
365,3	1300,471
365,8	1402,129
366,3	1489,186
366,7	1566,586
367,2	1638,929
367,6	1699,471
368,1	1742,186
368,5	1764,443
369	1770,557
369,5	1776,643
369,9	1768,3
370,4	1738,957
370,8	1700,443
371,3	1649,129
371,7	1593,3
372,2	1532,186
372,7	1461,071
373,1	1388,329
373,6	1311,3
374	1227,986
374,5	1149,243
374,9	1071,243
375,4	991,786
375,9	917,5
376,3	837,043
376,8	771,986
377,2	714,214
377,7	658,5
378,2	605,014
378,6	556,986
379,1	506,386
379,5	466,614
380	427,586
380,4	387,957
380,9	354,186
381,4	323,557
381,8	296,471
382,3	277,214
382,7	263,043
383,2	245,471
383,6	234,129
384,1	223,843
384,6	212,071
385	201,814
385,5	187,986
385,9	176,329
386,4	169,757
386,8	159,7
387,3	148,386
387,7	138,929
388,2	130,3
388,7	124,471
389,1	113,043
389,6	103,9
390	97,757
390,5	91,757
390,9	85,471
391,4	77,986
391,9	71,786
392,3	72,986
392,8	72,814
393,2	69,529
393,7	69,529
394,1	68,729
394,6	68,5
395,1	68,671
395,5	65,614
396	61,414
396,4	54,243
396,9	52,043
397,3	54,529
397,8	54,471
398,2	48,5
398,7	41,014
399,2	37,843
399,6	42,414
400,1	38,186
400,5	32,271
401	33,414
401,4	33,871
401,9	43,614
402,4	46,557
402,8	48,386
403,3	52,729
403,7	53,157
404,2	51,043
404,6	53,586
405,1	54,414
405,5	54,329
406	53,814
406,5	53,614
406,9	57,986
407,4	60,014
407,8	63,3
408,3	62,043
408,7	61,614
409,2	59,586
409,6	59,5
410,1	61,757
410,6	59,757
411	56,871
411,5	51,329
411,9	52,329
412,4	55,5
412,8	56,786
413,3	56,814
413,7	57,671
414,2	59,157
414,7	65,243
415,1	70,129
415,6	70,071
416	75,043
416,5	82,014
416,9	91,271
417,4	98,843
417,8	101,643
418,3	99,043
418,8	106,814
419,2	107,243
419,7	104,471
420,1	96,586
420,6	98,871
421	102,214
421,5	108,243
421,9	106,471
422,4	108,214
422,8	107,014
423,3	116,843
423,8	115,5
424,2	112,957
424,7	116,014
425,1	115,814
425,6	115,757
426	123,157
426,5	121,5
426,9	121,414
427,4	125,986
427,9	124,129
428,3	128,214
428,8	129,871
429,2	128,671
429,7	130,986
430,1	135,186
430,6	130,186
431	128,529
431,5	127,243
431,9	129,043
432,4	125,043
432,8	129,014
433,3	126,871
433,8	133,9
434,2	140,357
434,7	141,929
435,1	148,3
435,6	156,3
436	158,986
436,5	170,5
436,9	175,814
437,4	182,3
437,8	192,7
438,3	202,643
438,8	212,414
439,2	218,271
439,7	225,586
440,1	233,643
440,6	242,529
441	253,1
441,5	256,186
441,9	260,871
442,4	273,129
442,8	284,414
443,3	296,3
443,7	305,129
444,2	313,614
444,7	330,357
445,1	348,757
445,6	359,757
446	368,757
446,5	386,5
446,9	406,043
447,4	422,1
447,8	436,786
448,3	453,043
448,7	476,814
449,2	497,071
449,6	513,671
450,1	530,871
450,6	554,7
451	573,414
451,5	597,243
451,9	615,071
452,4	638,471
452,8	658,929
453,3	682,129
453,7	705,9
454,2	728,386
454,6	751,1
455,1	778,157
455,5	804,671
456	834,671
456,4	859,3
456,9	883,357
457,3	913,157
457,8	941,471
458,3	974,329
458,7	1006,471
459,2	1035,557
459,6	1074,386
460,1	1113,843
460,5	1147,9
461	1181,414
461,4	1210,471
461,9	1240,529
462,3	1279,414
462,8	1313,814
463,2	1341,957
463,7	1380,357
464,1	1413,529
464,6	1447,529
465	1489,071
465,5	1521,414
466	1560,529
466,4	1600,586
466,9	1640,3
467,3	1683,329
467,8	1725,386
468,2	1757,614
468,7	1802,786
469,1	1836,471
469,6	1872,5
470	1914,071
470,5	1955,271
470,9	1996,129
471,4	2045,386
471,8	2082,729
472,3	2123,329
472,7	2164,729
473,2	2201,986
473,6	2238,414
474,1	2277,357
474,5	2311,957
475	2351,729
475,4	2395,614
475,9	2442,643
476,4	2483,586
476,8	2532,357
477,3	2570,814
477,7	2612,529
478,2	2655,386
478,6	2696,014
479,1	2737,5
479,5	2776,043
480	2811,1
480,4	2854,7
480,9	2895,129
481,3	2930,129
481,8	2964,471
482,2	2993,1
482,7	3029,157
483,1	3060,243
483,6	3096,471
484	3125,471
484,5	3161,071
484,9	3195,386
485,4	3225,186
485,8	3250,129
486,3	3277,671
486,7	3308,186
487,2	3339,443
487,6	3359,986
488,1	3385,1
488,5	3408,986
489	3443,729
489,4	3475,014
489,9	3483,157
490,4	3502,329
490,8	3526,386
491,3	3547,386
491,7	3571,643
492,2	3587,557
492,6	3597,929
493,1	3626,957
493,5	3648,5
494	3671,471
494,4	3683,129
494,9	3697,986
495,3	3713,557
495,8	3731,986
496,2	3748,671
496,7	3762,757
497,1	3769,786
497,6	3784,329
498	3804,929
498,5	3816,271
498,9	3833,843
499,4	3842,929
499,8	3857,3
500,3	3879,071
500,7	3896,614
501,2	3906,757
501,6	3917,986
502,1	3927,357
502,5	3937,414
503	3947,386
503,4	3953,643
503,9	3958,529
504,3	3969,157
504,8	3979,729
505,2	3992,043
505,7	4003,329
506,1	4008,043
506,6	4012,214
507	4027,957
507,5	4031,643
507,9	4045,557
508,4	4052,443
508,8	4056,957
509,3	4072,157
509,7	4080,814
510,2	4089,7
510,6	4098,157
511,1	4100,186
511,5	4108,1
512	4113,814
512,4	4118,386
512,9	4126,986
513,3	4132,071
513,8	4139,586
514,2	4145,814
514,7	4143,271
515,1	4153,529
515,6	4156,186
516	4156,786
516,5	4160,414
516,9	4170,957
517,4	4181,843
517,8	4189,757
518,3	4199,043
518,7	4207,671
519,2	4222,186
519,6	4225,843
520,1	4233,586
520,5	4230,729
521	4230,871
521,4	4232,786
521,9	4235,786
522,3	4238,729
522,8	4241,243
523,2	4240,386
523,7	4244,729
524,1	4259,3
524,6	4266,043
525	4272,786
525,5	4278,5
525,9	4295,9
526,4	4300,243
526,8	4312,271
527,3	4322,643
527,7	4333,957
528,2	4343,3
528,6	4357,214
529,1	4361,7
529,5	4375,614
530	4388,471
530,4	4398,814
530,9	4404,414
531,3	4417,1
531,8	4417,414
532,2	4419,043
532,6	4427,929
533,1	4432,529
533,5	4436,5
534	4447,5
534,4	4445,871
534,9	4456,614
535,3	4477,357
535,8	4487,871
536,2	4493,443
536,7	4501,071
537,1	4511,671
537,6	4527,529
538	4539,957
538,5	4543,729
538,9	4546,929
539,4	4561,843
539,8	4570,3
540,3	4577,786
540,7	4583,5
541,2	4594,843
541,6	4602,957
542,1	4617,443
542,5	4624,786
543	4637,843
543,4	4644,3
543,9	4663,043
544,3	4674,357
544,8	4688,043
545,2	4696,443
545,7	4707,329
546,1	4713,871
546,5	4723,9
547	4733,643
547,4	4737,1
547,9	4742,014
548,3	4754,986
548,8	4759,729
549,2	4772,843
549,7	4779,357
550,1	4780,5
550,6	4792,357
551	4805,386
551,5	4810,729
551,9	4821,614
552,4	4831,329
552,8	4846,1
553,3	4855,957
553,7	4866,329
554,2	4873,643
554,6	4885,271
555,1	4892,386
555,5	4900,986
555,9	4906,843
556,4	4913,5
556,8	4922,7
557,3	4926,786
557,7	4929,557
558,2	4946,071
558,6	4950,186
559,1	4960,471
559,5	4967,529
560	4972,786
560,4	4981,9
560,9	4991,786
561,3	4993,243
561,8	5000,786
562,2	5007,471
562,7	5011,443
563,1	5016,157
563,6	5018,643
564	5024,414
564,4	5029,071
564,9	5034,129
565,3	5037,7
565,8	5051,5
566,2	5057,071
566,7	5065,557
567,1	5067,386
567,6	5068,529
568	5072,071
568,5	5071,014
568,9	5066,3
569,4	5069,443
569,8	5071,814
570,3	5076,557
570,7	5087,014
571,1	5084,443
571,6	5090,129
572	5098,5
572,5	5092,357
572,9	5090,786
573,4	5081,614
573,8	5085,071
574,3	5094,614
574,7	5096,357
575,2	5089,557
575,6	5096,1
576,1	5098,557
576,5	5104,414
576,9	5099,786
577,4	5091,186
577,8	5082,957
578,3	5077,157
578,7	5065,757
579,2	5055,786
579,6	5055,871
580,1	5051,071
580,5	5054,843
581	5046,929
581,4	5049,586
581,9	5046,186
582,3	5045,329
582,7	5032,414
583,2	5015,014
583,6	4998,014
584,1	4990,357
584,5	4978,443
585	4970,1
585,4	4960,157
585,9	4958,157
586,3	4957,071
586,8	4952,529
587,2	4952,1
587,6	4943,814
588,1	4938,243
588,5	4935,929
589	4919,386
589,4	4910,729
589,9	4899,986
590,3	4891,843
590,8	4888,3
591,2	4876,9
591,7	4866,5
592,1	4868,157
592,5	4861,043
593	4860,3
593,4	4852,1
593,9	4841,186
594,3	4847,586
594,8	4842,214
595,2	4820,871
595,7	4818,1
596,1	4811,957
596,6	4804,9
597	4803,357
597,4	4789,357
597,9	4776,729
598,3	4772,071
598,8	4760,557
599,2	4755,786
599,7	4753,3
600,1	4741,529
600,6	4723,443
601	4720,243
601,4	4717,443
601,9	4708,986
602,3	4686,786
602,8	4674,471
603,2	4662,729
603,7	4659,557
604,1	4638,643
604,6	4624,243
605	4614,757
605,4	4603,529
605,9	4586,1
606,3	4581,014
606,8	4562,043
607,2	4558,557
607,7	4545,643
608,1	4532,014
608,6	4523,414
609	4509,929
609,4	4486,214
609,9	4482,5
610,3	4461,214
610,8	4451,414
611,2	4433,929
611,7	4418,386
612,1	4397,214
612,6	4382,7
613	4362,3
613,4	4353,5
613,9	4338,271
614,3	4324,214
614,8	4304,814
615,2	4293,557
615,7	4280,614
616,1	4267,957
616,6	4250,1
617	4231,529
617,4	4212,329
617,9	4211,529
618,3	4197,729
618,8	4181,9
619,2	4164,186
619,7	4148,7
620,1	4132,186
620,5	4112,5
621	4085,557
621,4	4065,871
621,9	4042,214
622,3	4024,129
622,8	3999,929
623,2	3984,671
623,6	3968,529
624,1	3947,186
624,5	3932,3
625	3923,186
625,4	3906,443
625,9	3897,414
626,3	3880,786
626,8	3864,557
627,2	3844,929
627,6	3829,214
628,1	3806,157
628,5	3791,871
629	3765,643
629,4	3742,614
629,9	3732,186
630,3	3722,129
630,7	3705,614
631,2	3688,329
631,6	3660,671
632,1	3644,129
632,5	3621,9
633	3593,471
633,4	3572,786
633,8	3547,986
634,3	3526,843
634,7	3513,043
635,2	3493,414
635,6	3483,614
636,1	3469,071
636,5	3441,757
636,9	3425,929
637,4	3413,386
637,8	3389,586
638,3	3368,186
638,7	3350,7
639,2	3330,529
639,6	3321,329
640	3306,186
640,5	3286,243
640,9	3271,929
641,4	3260,957
641,8	3247,3
642,2	3234,529
642,7	3216,643
643,1	3196,729
643,6	3190,529
644	3173,957
644,5	3163,214
644,9	3143,986
645,3	3128,014
645,8	3115,443
646,2	3098,729
646,7	3075,9
647,1	3061,043
647,6	3036,271
648	3016,157
648,4	2997,157
648,9	2982,471
649,3	2968,986
649,8	2956,329
650,2	2946,471
650,6	2940,214
651,1	2925,7
651,5	2911,957
652	2893,986
652,4	2876,986
652,9	2859,329
653,3	2842,329
653,7	2828,557
654,2	2817,929
654,6	2799,671
655,1	2778,871
655,5	2764,1
655,9	2747,186
656,4	2731,9
656,8	2711,014
657,3	2689,529
657,7	2675,557
658,2	2663,3
658,6	2649,871
659	2634,357
659,5	2614,986
659,9	2597,643
660,4	2579,986
660,8	2564,7
661,2	2548,186
661,7	2533,957
662,1	2516,014
662,6	2501,014
663	2488,3
663,4	2476,443
663,9	2459,243
664,3	2448,529
664,8	2426,814
665,2	2413,443
665,6	2398,5
666,1	2384,357
666,5	2371,443
667	2358,1
667,4	2341,243
667,9	2336,729
668,3	2321,043
668,7	2303,814
669,2	2290,386
669,6	2272,3
670,1	2255,929
670,5	2238,814
670,9	2214,129
671,4	2198,357
671,8	2181,929
672,3	2163,071
672,7	2153,757
673,1	2141,614
673,6	2127,5
674	2115,929
674,5	2104,814
674,9	2096,386
675,3	2079,386
675,8	2060,843
676,2	2042,929
676,7	2030,843
677,1	2021,557
677,5	2006,557
678	1989,271
678,4	1982,614
678,9	1974,757
679,3	1967,386
679,7	1956,329
680,2	1936,557
680,6	1926,643
681,1	1921,386
681,5	1907,729
681,9	1891,557
682,4	1884,186
682,8	1870,757
683,3	1858,357
683,7	1850,471
684,1	1835,214
684,6	1823,357
685	1811,186
685,5	1792,671
685,9	1780,643
686,3	1774,986
686,8	1758,671
687,2	1744,414
687,7	1729,357
688,1	1717,5
688,5	1711,929
689	1703,7
689,4	1689,7
689,9	1677,071
690,3	1671,186
690,7	1669,014
691,2	1657,471
691,6	1640,986
692	1627,443
692,5	1617,014
692,9	1607,786
693,4	1595,871
693,8	1584,3
694,2	1574,186
694,7	1566,271
695,1	1561,586
695,6	1556,443
696	1543,5
696,4	1531,214
696,9	1514,957
697,3	1503,614
697,8	1490,929
698,2	1469,271
698,6	1454,386
699,1	1453,129
699,5	1439,871
699,9	1434,843
700,4	1423,529
700,8	1418,129
701,3	1416,443
701,7	1408,386
702,1	1390,329
702,6	1383,529
703	1370,329
703,5	1361,786
703,9	1344,043
704,3	1333,471
704,8	1330,214
705,2	1318,386
705,6	1311,271
706,1	1298,214
706,5	1294,014
707	1290,957
707,4	1280,557
707,8	1260,3
708,3	1255,014
708,7	1245,5
709,2	1243,871
709,6	1229,871
710	1221,643
710,5	1216,329
710,9	1215,186
711,3	1204,757
711,8	1194,071
712,2	1184,043
712,7	1175,9
713,1	1165,957
713,5	1153,014
714	1144,957
714,4	1136,586
714,8	1136,071
715,3	1126,814
715,7	1120,871
716,2	1113,7
716,6	1108,471
717	1098,614
717,5	1093,7
717,9	1082,186
718,3	1068,414
718,8	1064,443
719,2	1053,986
719,7	1043,529
720,1	1032,414
720,5	1024,671
721	1012,329
721,4	1013,214
721,8	1004,071
722,3	996,9
722,7	993,071
723,2	987,929
723,6	981,3
724	972,843
724,5	959,586
724,9	952,414
725,3	947,414
725,8	940,557
726,2	929,1
726,7	923,386
727,1	921,871
727,5	915,043
728	906,3
728,4	901,557
728,8	890,929
729,3	884,814
729,7	875,471
730,1	865,043
730,6	863,786
731	858,043
731,5	847,671
731,9	848,471
732,3	845,671
732,8	845,557
733,2	843,271
733,6	840,1
734,1	840,557
734,5	839,786
734,9	827,957
735,4	826,843
735,8	813,614
736,3	808,157
736,7	799,9
737,1	790,786
737,6	783,871
738	783,214
738,4	774,814
738,9	776,214
739,3	772,157
739,7	765,843
740,2	759,671
740,6	756,014
741,1	747,529
741,5	745,671
741,9	738,271
742,4	733,586
742,8	733,186
743,2	732,814
743,7	725,814
744,1	722,643
744,5	718,929
745	709,243
745,4	703,843
745,8	698,271
746,3	693,586
746,7	692,071
747,2	688,357
747,6	682,157
748	686,386
748,5	682,729
748,9	674,271
749,3	664,357
749,8	659,7
750,2	651,871
750,6	654,786
751,1	647,871
751,5	643,214
751,9	645,214
752,4	640,986
752,8	637,014
753,3	635,643
753,7	622,414
754,1	616,243
754,6	613,471
755	602,614
755,4	604,614
755,9	598,9
756,3	595,986
756,7	592,329
757,2	587,329
757,6	580,614
758	578,043
758,5	569,9
758,9	565,214
759,3	557,243
759,8	553,243
760,2	548,729
760,6	544,986
761,1	538,214
761,5	532,3
761,9	529,871
762,4	529,929
762,8	524,9
763,3	524,5
763,7	514,957
764,1	515,243
764,6	511,957
765	505,729
765,4	500,157
765,9	498,9
766,3	492,929
766,7	495,3
767,2	493,414
767,6	495,071
768	491,9
768,5	491,786
768,9	491,157
769,3	486,529
769,8	487,786
770,2	480,729
770,6	472,071
771,1	469,814
771,5	463,357
771,9	461,214
772,4	460,614
772,8	452,871
773,2	451,186
773,7	451,071
774,1	446,729
774,5	444,186
775	432,3
775,4	431,3
775,8	429,871
776,3	430,071
776,7	427,757
777,1	426,814
777,6	419,471
778	419,386
778,4	416,271
778,9	409,414
779,3	406,129
779,7	401,814
780,2	399,643
780,6	396,214
781	396,157
781,5	392,786
781,9	393,843
782,3	389,843
782,8	393,157
783,2	385,843
783,6	386,614
784,1	382,014
784,5	375,271
784,9	370,129
785,4	362,357
785,8	356,157
786,2	353,386
786,7	354,786
787,1	356,186
787,5	356,671
788	353,814
788,4	353,214
788,8	349,643
789,3	348,786
789,7	350,357
790,1	343,214
790,6	337,614
791	336,414
791,4	336,586
791,9	330,129
792,3	328,386
792,7	318,814
793,2	319,929
793,6	317,329
794	314,5
794,5	310,814
794,9	314,9
795,3	317,643
795,8	313,757
796,2	307,957
796,6	307,129
797,1	302,157
797,5	299,471
797,9	297,129
798,4	286,643
798,8	286,929
799,2	288,243
799,7	287,7
800,1	288,757
800,5	286,329
801	282,157
801,4	289,3
801,8	283,529
802,2	280,071
802,7	279,786
803,1	281,071
803,5	279,471
804	274,7
804,4	267,643
804,8	266,986
805,3	267,186
805,7	263,929
806,1	258,386
806,6	255,3
807	253,929
807,4	251,586
807,9	251,957
808,3	246,7
808,7	242,7
809,2	240,271
809,6	239,557
810	236,786
810,4	235,157
810,9	231,386
811,3	232,786
811,7	233,271
812,2	233,014
812,6	228,757
813	229,729
813,5	224,043
813,9	224,243
814,3	218,243
814,8	211,729
815,2	207,957
815,6	207,786
816,1	204,614
816,5	207,443
816,9	197,843
817,3	198,271
817,8	199,786
818,2	202,014
818,6	202,329
819,1	201,929
819,5	200,557
819,9	202,9
820,4	201,357
820,8	197,957
821,2	193,357
821,7	193,1
822,1	190,414
822,5	189,043
822,9	191,157
823,4	192,843
823,8	192,757
824,2	196,271
824,7	193,671
825,1	191,5
825,5	188,929
826	188,557
826,4	180,986
826,8	182,243
827,3	176,471
827,7	172,557
828,1	173,5
828,5	172,729
829	168,357
829,4	168,3
829,8	166,271
830,3	165,129
830,7	165,443
831,1	164,5
831,6	160,1
832	163,557
832,4	164,414
832,8	158,1
833,3	156,014
833,7	152,843
834,1	151,729
834,6	152,586
835	147,214
835,4	142,9
835,8	148,814
836,3	150,414
836,7	150,386
837,1	145,7
837,6	144,729
838	143,014
838,4	143,071
838,9	137,414
839,3	136,014
839,7	137,786
840,1	135,614
840,6	135,786
841	137,071
841,4	137,357
841,9	136,557
842,3	133,186
842,7	129,071
843,1	132,214
843,6	132,386
844	133,9
844,4	129,557
844,9	129,243
845,3	128,643
845,7	129,157
846,2	126,529
846,6	123,9
847	122,071
847,4	119,1
847,9	121,214
848,3	122,1
848,7	121,871
849,2	121,843
849,6	119,786
850	117,757
850,4	118,186
850,9	113,986
851,3	110,871
851,7	109,386
852,2	109,929
852,6	107,557
853	104,814
853,4	104,671
853,9	104,529
854,3	103,1
854,7	101,614
855,2	103,386
855,6	104,614
856	105,414
856,4	104,643
856,9	104,957
857,3	106,814
857,7	105,357
858,2	94,329
858,6	91,7
859	89,214
859,4	92,386
859,9	90,386
860,3	87,671
860,7	87,3
861,1	93,843
861,6	98,414
862	96,814
862,4	92,614
862,9	94,443
863,3	92,014
863,7	93,243
864,1	87,414
864,6	85,7
865	90,814
865,4	92,157
865,9	88,671
866,3	92,186
866,7	91,443
867,1	93,9
867,6	94,129
868	95,329
868,4	94,471
868,8	96,443
869,3	98,729
869,7	96,186
870,1	96,043
870,6	91,157
871	151,214
871,4	148,957
871,8	146,729
872,3	141,929
872,7	142,9
873,1	144,586
873,5	146,443
874	74,386
874,4	74,957
874,8	80,357
875,3	80,957
875,7	81,757
876,1	77,986
876,5	75,929
877	80,586
877,4	80,786
877,8	72,986
878,2	69,957
878,7	70,529
879,1	68,671
879,5	64,386
879,9	64,843
880,4	65,614
880,8	66,043
881,2	65,7
881,7	59,471
882,1	65,271
882,5	66,529
882,9	63,614
883,4	64,757
883,8	66,957
884,2	63,7
884,6	68,357
885,1	63,414
885,5	66,529
885,9	71,157
886,3	66,7
886,8	64,529
887,2	64,3
887,6	57,614
888	58,586
888,5	59,186
888,9	53,557
889,3	54,529
889,8	54,786
890,2	56,329
890,6	60,814
891	56,529
891,5	56,643
891,9	59,643
892,3	56,357
892,7	56,043
893,2	56,1
893,6	51,757
894	50,129
894,4	45,643
894,9	43,443
895,3	45,9
895,7	42,786
896,1	40,271
896,6	46,271
897	50,071
897,4	53,7
897,8	51,871
898,3	52,7
898,7	50,986
899,1	55,843
899,5	52,529
900	52,7
900,4	49,071
900,8	51,129
901,2	49,271
901,7	51,386
902,1	52,043
902,5	51,671
902,9	48,986
903,4	50,186
903,8	46,414
904,2	41,643
904,6	40,5
905,1	37,271
905,5	40,671
905,9	41,643
906,3	36,986
906,8	39,871
907,2	42,471
907,6	45,814
908	42,157
908,5	39,929
908,9	40,014
909,3	41,557
909,7	43,929
910,2	46,643
910,6	40,9
911	40,7
911,4	38,9
911,9	34,157
912,3	31,1
912,7	24,014
913,1	18,214
913,6	19,014
914	22,357
914,4	16,729
914,8	20,671
915,3	23,671
915,7	29,843
916,1	37,471
916,5	40,386
916,9	40,3
917,4	45,214
917,8	42,043
918,2	44,786
918,6	42,357
919,1	37,7
919,5	37,1
919,9	38,214
920,3	38,043
920,8	42,186
921,2	38,157
921,6	40,557
922	39,957
922,5	40,843
922,9	39,471
923,3	39,357
923,7	42,014
924,2	44,443
924,6	42,843
925	46,5
925,4	44,357
925,8	46,214
926,3	45,357
926,7	40,9
927,1	41,043
927,5	41,357
928	36,729
928,4	37,443
928,8	31,957
929,2	31,443
929,7	30,757
930,1	27,471
930,5	27,357
930,9	21,929
931,3	19,871
931,8	24,786
932,2	25,986
932,6	24,357
933	26,129
933,5	24,7
933,9	27,3
934,3	26,9
934,7	20,843
935,2	23,957
935,6	24,5
936	20,5
936,4	20,614
936,8	23,957
937,3	26,557
937,7	27,986
938,1	19,671
938,5	16,729
939	21,271
939,4	23,243
939,8	21,643
940,2	16,786
940,6	17,757
941,1	20,271
941,5	25,243
941,9	28,186
942,3	22,071
942,8	28,014
943,2	30,243
943,6	33,071
944	30,357
944,4	28,157
944,9	23,643
945,3	21,043
945,7	15,786
946,1	14,814
946,6	16,3
947	20,157
947,4	20,843
947,8	25,757
948,2	29,729
948,7	26,129
949,1	28,671
949,5	22,643
949,9	22,129
950,3	24,443
950,8	21,557
951,2	19,443
951,6	23,557
952	23,7
952,5	20,071
952,9	19,529
953,3	16,043
953,7	13,014
954,1	17,557
954,6	19,471
955	17,129
955,4	25,243
955,8	24,271
956,2	28,586
956,7	28,9
957,1	26,529
957,5	21,843
957,9	19,814
958,3	14,443
958,8	14,3
959,2	9,3
959,6	7,386
960	9,243
960,5	8,871
960,9	15,5
961,3	15,043
961,7	11,929
962,1	14,443
962,6	19,386
963	13,814
963,4	16,814
963,8	16,014
964,2	20,557
964,7	21,729
965,1	16,243
965,5	14,5
965,9	18,1
966,3	14,871
966,8	7,043
967,2	2,643
967,6	9,471
968	13,043
968,4	12,186
968,9	12,671
969,3	13,3
969,7	19,414
970,1	19,9
970,5	14,814
971	11,386
971,4	7,3
971,8	3,729
972,2	8,3
972,6	7,5
973,1	7,271
973,5	9,386
973,9	14,586
974,3	22,3
974,7	23,1
975,2	21,043
975,6	20,814
976	22,157
976,4	23,214
976,8	20,757
977,3	15,729
977,7	17,729
978,1	15,529
978,5	14,214
978,9	13,129
979,4	12,3
979,8	13,7
980,2	12,214
980,6	11,929
981	14,929
981,5	11,129
981,9	14,643
982,3	15,186
982,7	14,443
983,1	12,7
983,6	13,243
984	8,357
984,4	12,814
984,8	10,757
985,2	7,843
985,6	7,5
986,1	9,986
986,5	6,671
986,9	9,557
987,3	6,757
987,7	10,614
988,2	12,7
988,6	15,7
989	12,243
989,4	17,414
989,8	18,529
990,3	16,529
990,7	15,614
991,1	16,186
991,5	10,843
991,9	12,729
992,3	11,814
992,8	7,986
993,2	13,386
993,6	10,871
994	8,643
994,4	18,557
994,9	24,243
995,3	29,414
995,7	33,643
996,1	29,5
996,5	28,871
996,9	28,471
997,4	20,5
997,8	21,271
998,2	12,357
998,6	11,014
999	15,843
999,5	16,043
999,9	17,643
1000,3	18,3
1000,7	16,871
1001,1	19,786
1001,5	21,671
1002	17,186
1002,4	16,614
1002,8	18,214
1003,2	20,329
1003,6	22,329
1004	19,9
1004,5	17,614
1004,9	20,986
1005,3	19,586
1005,7	19,843
1006,1	21,271
1006,6	14,1
1007	14,271
1007,4	12,243
1007,8	14,386
1008,2	17,329
1008,6	16,214
1009,1	14,557
1009,5	14,7
1009,9	16,9
1010,3	16,871
1010,7	14,9
1011,1	15,329
1011,6	15,786
1012	13,129
1012,4	20,414
1012,8	18,5
1013,2	19,671
1013,6	17,9
1014,1	13,071
1014,5	11,7
1014,9	12,814
1015,3	10,157
1015,7	13,471
1016,1	14,871
1016,6	16,357
1017	20,843
1017,4	18,843
1017,8	12,7
1018,2	12,586
1018,6	8,271
1019,1	7,957
1019,5	7,1
1019,9	7,814
1020,3	8,5
1020,7	17,471
1021,1	17,3
1021,6	18,529
1022	19,1
1022,4	21,557
1022,8	19,757
1023,2	18,757
1023,6	12,414
1024,1	10,129
1024,5	11,671
1024,9	14,529
1025,3	13,1
1025,7	13,614
1026,1	20,386
1026,6	29,529
1027	31,529
1027,4	34,243
1027,8	25,843
1028,2	21,329
1028,6	23,1
1029	15,071
1029,5	10,614
1029,9	13,329
1030,3	15,614
1030,7	18,414
1031,1	23,614
1031,5	24,843
1032	29,186
1032,4	29,7
1032,8	24,786
1033,2	20,757
1033,6	21,586
1034	21,5
1034,4	16,5
1034,9	16,814
1035,3	14,957
1035,7	15,586
1036,1	11,614
1036,5	15,729
1036,9	13,186
1037,4	18,071
1037,8	20,014
1038,2	18,9
1038,6	20,214
1039	23,214
1039,4	21,671
1039,8	16,671
1040,3	17,414
1040,7	15,414
1041,1	15,929
1041,5	19,271
1041,9	17,414
1042,3	18,014
1042,7	18,9
1043,2	14,9
1043,6	16,871
1044	18,271
1044,4	18,757
1044,8	21,843
1045,2	20,071
1045,6	26,843
1046,1	24,414
1046,5	20,586
1046,9	20,871
1047,3	17,814
1047,7	18,157
1048,1	19,814
1048,5	20,557
1049	25,671
1049,4	26,443
1049,8	23,243
1050,2	23,243
1050,6	21,329
1051	15,9
1051,4	12,157
1051,9	6,5
1052,3	5,614
1052,7	8,443
1053,1	8,843
1053,5	5,786
1053,9	12,529
1054,3	7,957
1054,8	12,186
1055,2	9,1
1055,6	12,443
1056	11,014
1056,4	12,871
1056,8	11,729
1057,2	14,9
1057,6	14,843
1058,1	18,757
1058,5	13,129
1058,9	13,071
1059,3	17,814
1059,7	14,814
1060,1	15,5
1060,5	15,643
1061	11,414
1061,4	16,786
1061,8	17,386
1062,2	12,443
1062,6	17,929
1063	19,043
1063,4	16,757
1063,8	20,471
1064,3	18,3
1064,7	18,729
1065,1	24,3
1065,5	22,986
1065,9	23,643
1066,3	24,043
1066,7	22,129
1067,1	18,414
1067,6	18,643
1068	14,729
1068,4	6,871
1068,8	-0,186
1069,2	-0,214
1069,6	2,986
1070	5,786
1070,4	4,186
1070,9	7,014
1071,3	15,786
1071,7	21,5
1072,1	21,614
1072,5	19,414
1072,9	16,843
1073,3	22,5
1073,7	24,186
1074,2	20,671
1074,6	23,843
1075	22,986
1075,4	21,386
1075,8	21,071
1076,2	16,5
1076,6	13,043
1077	9,729
1077,5	9,671
1077,9	8,471
1078,3	7,586
1078,7	7,586
1079,1	6,243
1079,5	3,471
1079,9	1,871
1080,3	0,814
1080,7	3,186
1081,2	9,271
1081,6	7,757
1082	9,929
1082,4	6,5
1082,8	11,557
1083,2	12,586
1083,6	12,443
1084	10,043
1084,5	17,814
1084,9	14,1
1085,3	16,757
1085,7	18,357
1086,1	14,443
1086,5	8,5
1086,9	6,5
1087,3	-3,414
1087,7	-4,729
1088,2	-0,929
1088,6	-2,214
1089	-3,614
1089,4	2,214
1089,8	3,7
1090,2	9,671
1090,6	15,7
1091	15,357
1091,4	15,043
1091,9	20,529
1092,3	24,043
1092,7	25,271
1093,1	23,986
1093,5	20,3
1093,9	18,814
1094,3	18,329
1094,7	10,929
1095,1	8,071
1095,5	4,871
1096	9,586
1096,4	10,529
1096,8	10,471
1097,2	13,529
1097,6	21,814
1098	23,129
1098,4	23,271
1098,8	17,9
1099,2	15,014
1099,6	15,157
1100,1	12,614
1100,5	9,471
1100,9	9,014
1101,3	11,9
1101,7	11,786
1102,1	15,5
1102,5	10,729
1102,9	8,214
1103,3	8,843
1103,7	6,557
1104,2	7,3
1104,6	15,243
1105	13,443
1105,4	19,871
1105,8	19,986
1106,2	17,729
1106,6	16,614
1107	13,071
1107,4	5,867
1107,8	5,22
1108,3	0,2
