Data from Subt2_00084.txt Node
Date: Mon Aug 28 13:32:26 MSK 2023
User: vat
Spectrometer: MAYP114033
Trigger mode: 0
Integration Time (sec): 1,000000E0
Scans to average: 5
Electric dark correction enabled: true
Nonlinearity correction enabled: false
Boxcar width: 3
XAxis mode: Wavelengths
Number of Pixels in Spectrum: 2068
>>>>>Begin Spectral Data<<<<<
199,4	-1,2
199,9	-4,18
200,4	-0,567
200,8	1,957
201,3	0,814
201,8	4,043
202,2	5,357
202,7	4,443
203,2	8,329
203,6	9,529
204,1	8,643
204,6	11,786
205	10,271
205,5	8,957
206	12,243
206,4	9,386
206,9	7,643
207,4	7,843
207,8	10,243
208,3	10,443
208,8	8,9
209,2	13,643
209,7	17,357
210,2	16,729
210,6	15,471
211,1	14,1
211,5	13,357
212	19,157
212,5	8,643
212,9	5,5
213,4	8,414
213,9	6,471
214,3	5,529
214,8	6,757
215,3	3,271
215,7	8,157
216,2	6,7
216,7	4,043
217,1	2,729
217,6	2,414
218,1	1,243
218,5	1,471
219	0,986
219,5	6,214
219,9	3,1
220,4	10,271
220,9	8,7
221,3	6,871
221,8	5,157
222,3	7,014
222,7	6,014
223,2	5,5
223,6	-0,157
224,1	4,157
224,6	7,957
225	9,814
225,5	7,043
226	4,357
226,4	13,3
226,9	16,414
227,4	18,014
227,8	15,5
228,3	11,729
228,8	13,043
229,2	17,043
229,7	12,071
230,2	13,671
230,6	8,929
231,1	7,986
231,5	18,014
232	20,414
232,5	17,157
232,9	18,386
233,4	17,557
233,9	18,814
234,3	23,614
234,8	17,214
235,3	17,729
235,7	18,243
236,2	14,357
236,7	12,271
237,1	13,043
237,6	10,157
238,1	10,243
238,5	7,471
239	12,157
239,4	17,557
239,9	16,843
240,4	12,1
240,8	14,5
241,3	12,129
241,8	7,786
242,2	2,071
242,7	0,157
243,2	4,271
243,6	10,043
244,1	7,529
244,6	9,986
245	14,129
245,5	15,3
245,9	15,129
246,4	9,786
246,9	9,129
247,3	8,329
247,8	4,1
248,3	6,729
248,7	4,9
249,2	3,3
249,7	8,957
250,1	6,414
250,6	2,671
251	5,357
251,5	0,414
252	2,414
252,4	3,786
252,9	5,071
253,4	5,129
253,8	10,643
254,3	11,957
254,8	17,3
255,2	15,1
255,7	16,643
256,1	7,7
256,6	9,671
257,1	7,871
257,5	7,671
258	0,129
258,5	5,786
258,9	-0,557
259,4	1,671
259,9	-1,214
260,3	-3,357
260,8	-7,414
261,2	-1,786
261,7	-1,529
262,2	4,071
262,6	8,529
263,1	11,757
263,6	9,843
264	15,443
264,5	15,557
264,9	11,614
265,4	10,186
265,9	6,814
266,3	2,529
266,8	10,271
267,3	9,329
267,7	9,671
268,2	8,871
268,7	8,529
269,1	9,414
269,6	9,957
270	2,529
270,5	6,757
271	6,014
271,4	6,757
271,9	5,871
272,4	4,786
272,8	8,186
273,3	12,5
273,7	9,471
274,2	8,5
274,7	8,129
275,1	11,614
275,6	12,586
276,1	12,986
276,5	9,9
277	9,271
277,4	11,929
277,9	11,214
278,4	8,786
278,8	9,014
279,3	8,471
279,8	14,757
280,2	16,557
280,7	15,614
281,1	13,129
281,6	15,214
282,1	17,043
282,5	16,957
283	13,643
283,4	12,443
283,9	10,214
284,4	11,443
284,8	10,7
285,3	7,014
285,8	5,586
286,2	3,671
286,7	0,729
287,1	1,671
287,6	1,071
288,1	-1,471
288,5	3,786
289	1,557
289,5	0,643
289,9	2,071
290,4	4,557
290,8	5,814
291,3	10,414
291,8	7,529
292,2	11,271
292,7	13,014
293,1	12,871
293,6	5,186
294,1	6,871
294,5	6,814
295	9,214
295,5	8,557
295,9	9,386
296,4	8,271
296,8	14,443
297,3	15,9
297,8	19,671
298,2	17,986
298,7	17,5
299,1	16,557
299,6	17,386
300,1	17,357
300,5	15,243
301	9,671
301,5	9,186
301,9	7,157
302,4	8,843
302,8	11,586
303,3	15,7
303,8	22,043
304,2	21,757
304,7	19,357
305,1	19,129
305,6	18,243
306,1	14,586
306,5	4,586
307	0,386
307,4	-5,557
307,9	-3,586
308,4	-4,243
308,8	-2,986
309,3	-1,043
309,8	3,014
310,2	-1,443
310,7	3,986
311,1	2,5
311,6	6,614
312,1	4,414
312,5	0,671
313	2,757
313,4	9,129
313,9	4,329
314,4	3,9
314,8	5,814
315,3	8,929
315,7	10,9
316,2	7,643
316,7	4,186
317,1	7,929
317,6	9,586
318	7,671
318,5	5,3
319	9,786
319,4	12,9
319,9	8,814
320,3	9,271
320,8	7,643
321,3	3,214
321,7	6,214
322,2	-0,414
322,6	2,986
323,1	4,757
323,6	3,186
324	3,443
324,5	8,1
324,9	11,129
325,4	13,129
325,9	8,757
326,3	9,986
326,8	9,386
327,2	12,157
327,7	10,329
328,2	8,557
328,6	10,843
329,1	5,043
329,5	5,757
330	7,729
330,5	7,757
330,9	8,129
331,4	-0,186
331,8	-2,9
332,3	5,186
332,8	6,671
333,2	6,5
333,7	2,129
334,1	-3,843
334,6	-1,3
335,1	0,329
335,5	0,871
336	5,243
336,4	7,986
336,9	11,271
337,4	13,7
337,8	13,957
338,3	15,529
338,7	11,9
339,2	2,557
339,7	1,471
340,1	-0,957
340,6	1,929
341	5,986
341,5	4,243
342	5,5
342,4	8,3
342,9	11,1
343,3	12,757
343,8	11,671
344,2	12,357
344,7	11,5
345,2	11,071
345,6	9,757
346,1	4,329
346,5	5,043
347	3,271
347,5	2,929
347,9	1,443
348,4	-1,757
348,8	2,557
349,3	0,329
349,8	2,329
350,2	8,671
350,7	6,071
351,1	6,957
351,6	12,843
352	15,186
352,5	27,986
353	34,329
353,4	39,586
353,9	53,1
354,3	72,414
354,8	78,529
355,3	91,786
355,7	104,614
356,2	124,271
356,6	144,186
357,1	165,986
357,5	191,929
358	233,071
358,5	269,271
358,9	308,986
359,4	354,557
359,8	408,414
360,3	464,129
360,8	527,329
361,2	596,243
361,7	673,129
362,1	760,529
362,6	846,414
363	948,557
363,5	1054,329
364	1163,157
364,4	1270,757
364,9	1380,157
365,3	1485,957
365,8	1598,557
366,3	1691,243
366,7	1775,843
367,2	1842,443
367,6	1909,129
368,1	1957,129
368,5	1993,729
369	2000,1
369,5	2000,529
369,9	1987,271
370,4	1964,729
370,8	1915,957
371,3	1862,614
371,7	1791,529
372,2	1721,071
372,7	1637,186
373,1	1550,271
373,6	1462,557
374	1373,957
374,5	1283,014
374,9	1199,843
375,4	1121,271
375,9	1047,929
376,3	969,786
376,8	900,471
377,2	837,586
377,7	778,729
378,2	719,243
378,6	663,129
379,1	608,3
379,5	567,5
380	526,271
380,4	490,157
380,9	455,986
381,4	427,071
381,8	402,9
382,3	380,186
382,7	360,414
383,2	335,614
383,6	318,071
384,1	304,814
384,6	291,014
385	275,1
385,5	266,814
385,9	256,9
386,4	253,071
386,8	238,357
387,3	228,271
387,7	216,3
388,2	207,757
388,7	192,986
389,1	182,5
389,6	172,586
390	168,271
390,5	162,357
390,9	156,557
391,4	149,786
391,9	146,129
392,3	142,843
392,8	135,9
393,2	137,357
393,7	131,986
394,1	124,529
394,6	120,843
395,1	119,1
395,5	113,329
396	110,1
396,4	97,471
396,9	94,443
397,3	97,329
397,8	93,986
398,2	89,871
398,7	82,929
399,2	80,386
399,6	80,1
400,1	76,643
400,5	75,1
401	78,1
401,4	73,014
401,9	78,3
402,4	76,529
402,8	77,157
403,3	78,757
403,7	77,214
404,2	77,671
404,6	83,529
405,1	84,186
405,5	88,1
406	88,957
406,5	87,643
406,9	93,214
407,4	85,643
407,8	86,986
408,3	84,671
408,7	81,814
409,2	79,814
409,6	79,957
410,1	76,329
410,6	75,9
411	75,271
411,5	74,843
411,9	75,729
412,4	79,271
412,8	79,757
413,3	78,186
413,7	81,614
414,2	77,814
414,7	75,729
415,1	81,5
415,6	78,814
416	77,5
416,5	86,729
416,9	91,929
417,4	99,671
417,8	105,871
418,3	104,586
418,8	108,186
419,2	112,757
419,7	108,957
420,1	103,7
420,6	104,957
421	108,957
421,5	109,929
421,9	109,471
422,4	111,814
422,8	108,443
423,3	114,329
423,8	112,7
424,2	111,471
424,7	114,986
425,1	115,9
425,6	115,957
426	118,1
426,5	121,129
426,9	121,614
427,4	126,014
427,9	124,386
428,3	127,529
428,8	130,271
429,2	133,557
429,7	133,157
430,1	134,129
430,6	126,9
431	127,929
431,5	127,443
431,9	126,929
432,4	124,957
432,8	130,186
433,3	135,643
433,8	144,586
434,2	149,529
434,7	152,071
435,1	159,614
435,6	164,729
436	164,586
436,5	167,329
436,9	172,643
437,4	175,7
437,8	185,671
438,3	191,186
438,8	201,586
439,2	210,214
439,7	221,643
440,1	227,357
440,6	236,414
441	240,671
441,5	244,443
441,9	249,5
442,4	262,043
442,8	271,1
443,3	283,1
443,7	289,243
444,2	306,9
444,7	324,7
445,1	342,729
445,6	354,757
446	370,471
446,5	383,471
446,9	406,786
447,4	423,871
447,8	438,071
448,3	459,5
448,7	475,1
449,2	492,129
449,6	514,929
450,1	532,643
450,6	553,814
451	575,786
451,5	599,271
451,9	625,071
452,4	647,757
452,8	669,014
453,3	691,9
453,7	711,157
454,2	736,414
454,6	755,1
455,1	783,986
455,5	812,043
456	843,786
456,4	874,614
456,9	906,5
457,3	936,786
457,8	966,329
458,3	993,814
458,7	1029,329
459,2	1058,757
459,6	1089,786
460,1	1127,529
460,5	1159,1
461	1198,5
461,4	1231,671
461,9	1258,871
462,3	1298,386
462,8	1336,1
463,2	1366,1
463,7	1404,729
464,1	1438,586
464,6	1478,9
465	1516,5
465,5	1547,957
466	1591,071
466,4	1638,243
466,9	1682,386
467,3	1721,443
467,8	1764,643
468,2	1809,386
468,7	1859,957
469,1	1897,5
469,6	1929,643
470	1967,729
470,5	2011,1
470,9	2051,271
471,4	2095,186
471,8	2130,386
472,3	2172,414
472,7	2223,529
473,2	2267,071
473,6	2307,3
474,1	2354,443
474,5	2394,071
475	2441,071
475,4	2489,357
475,9	2533,814
476,4	2579,271
476,8	2629,243
477,3	2667,1
477,7	2718,843
478,2	2765,043
478,6	2807,7
479,1	2845,986
479,5	2887,5
480	2925,871
480,4	2969,729
480,9	2995,557
481,3	3032,643
481,8	3062,471
482,2	3100,729
482,7	3139,271
483,1	3169,786
483,6	3204,986
484	3242,843
484,5	3281,957
484,9	3323,1
485,4	3356,157
485,8	3383,329
486,3	3413,129
486,7	3442,443
487,2	3479,614
487,6	3491,814
488,1	3513,186
488,5	3536,7
489	3567,671
489,4	3600,186
489,9	3620,5
490,4	3645,186
490,8	3676,757
491,3	3703,186
491,7	3726,929
492,2	3747,214
492,6	3766,5
493,1	3795,671
493,5	3814,271
494	3837,814
494,4	3855,843
494,9	3875,671
495,3	3890,643
495,8	3904,3
496,2	3919,3
496,7	3934,243
497,1	3944,957
497,6	3962,214
498	3978,871
498,5	4000,157
498,9	4021,614
499,4	4027,471
499,8	4040,643
500,3	4053,414
500,7	4057,186
501,2	4065,186
501,6	4069,414
502,1	4076,471
502,5	4094,014
503	4102,1
503,4	4119,1
503,9	4137,186
504,3	4151,929
504,8	4169,243
505,2	4179,529
505,7	4191,186
506,1	4198,757
506,6	4199,586
507	4211,3
507,5	4220,329
507,9	4226,671
508,4	4239,157
508,8	4241,614
509,3	4257,957
509,7	4266,129
510,2	4272,986
510,6	4274,443
511,1	4277,3
511,5	4281,757
512	4286,729
512,4	4291,5
512,9	4299,043
513,3	4301,814
513,8	4309,643
514,2	4317,186
514,7	4317,071
515,1	4327,957
515,6	4334,614
516	4339,957
516,5	4346,443
516,9	4352,814
517,4	4359,3
517,8	4369,614
518,3	4377,843
518,7	4378,443
519,2	4388,129
519,6	4394,129
520,1	4408,271
520,5	4413,986
521	4416,071
521,4	4422,443
521,9	4425,071
522,3	4428,614
522,8	4434,357
523,2	4434,157
523,7	4442,186
524,1	4451,186
524,6	4452,871
525	4466,043
525,5	4470,957
525,9	4479,414
526,4	4487,414
526,8	4499,3
527,3	4517,414
527,7	4526,871
528,2	4540,357
528,6	4557,957
529,1	4574,186
529,5	4580,957
530	4581,986
530,4	4590,957
530,9	4599,729
531,3	4606,729
531,8	4610,757
532,2	4618,529
532,6	4631,671
533,1	4643,814
533,5	4648,186
534	4653,586
534,4	4659,186
534,9	4665,786
535,3	4676,614
535,8	4686,443
536,2	4697,757
536,7	4705,386
537,1	4722,043
537,6	4728,986
538	4739,757
538,5	4742,786
538,9	4755,157
539,4	4763,871
539,8	4772,814
540,3	4781,471
540,7	4789,357
541,2	4805,5
541,6	4812,014
542,1	4815,014
542,5	4820,357
543	4834,214
543,4	4840,614
543,9	4853,357
544,3	4863,186
544,8	4879,014
545,2	4888,671
545,7	4907,386
546,1	4912,614
546,5	4927,843
547	4940,986
547,4	4948,929
547,9	4949,7
548,3	4963,014
548,8	4968,814
549,2	4977,529
549,7	4981,871
550,1	4987,471
550,6	4991,5
551	5011,786
551,5	5011,1
551,9	5019,986
552,4	5028,671
552,8	5041,129
553,3	5045,786
553,7	5052,986
554,2	5057,643
554,6	5077,043
555,1	5085,957
555,5	5098,557
555,9	5104,271
556,4	5128,271
556,8	5146,3
557,3	5159,671
557,7	5167,357
558,2	5177,271
558,6	5183,329
559,1	5196,043
559,5	5195,843
560	5194,157
560,4	5198,243
560,9	5198,7
561,3	5200,329
561,8	5212,3
562,2	5212,271
562,7	5209,957
563,1	5218,671
563,6	5221,443
564	5227,614
564,4	5229,414
564,9	5231,214
565,3	5235,557
565,8	5246,3
566,2	5250,329
566,7	5250,7
567,1	5257,186
567,6	5261,1
568	5262,386
568,5	5264,729
568,9	5265,329
569,4	5268,186
569,8	5271,243
570,3	5269,243
570,7	5277,814
571,1	5272,643
571,6	5279,957
572	5282,757
572,5	5285,214
572,9	5283,729
573,4	5286,386
573,8	5283,871
574,3	5296,586
574,7	5290,414
575,2	5288,214
575,6	5294,414
576,1	5300,043
576,5	5298,357
576,9	5294,871
577,4	5284,614
577,8	5278,729
578,3	5279,3
578,7	5261,957
579,2	5255,186
579,6	5255,3
580,1	5257,557
580,5	5253,414
581	5251,1
581,4	5247,043
581,9	5250,129
582,3	5239,129
582,7	5221,329
583,2	5214,157
583,6	5202,5
584,1	5194,471
584,5	5182,557
585	5169,014
585,4	5164,729
585,9	5161,557
586,3	5140,671
586,8	5127,643
587,2	5117,814
587,6	5112,671
588,1	5110,471
588,5	5102,129
589	5093,814
589,4	5092,671
589,9	5091,529
590,3	5077,214
590,8	5061,471
591,2	5050,614
591,7	5036,386
592,1	5034,271
592,5	5025,671
593	5020,586
593,4	5015,471
593,9	5010,757
594,3	5008,529
594,8	5007,986
595,2	4990,643
595,7	4977,071
596,1	4965,129
596,6	4962,957
597	4954,471
597,4	4933,557
597,9	4924,929
598,3	4922,7
598,8	4911,3
599,2	4901,843
599,7	4892,014
600,1	4873,157
600,6	4860,986
601	4846,929
601,4	4834,386
601,9	4831,329
602,3	4812,014
602,8	4802,357
603,2	4800,529
603,7	4794,586
604,1	4781,529
604,6	4763,043
605	4753,243
605,4	4749,557
605,9	4730,614
606,3	4720,843
606,8	4709,586
607,2	4694,071
607,7	4685,7
608,1	4670,929
608,6	4656,129
609	4644,843
609,4	4620,586
609,9	4608,3
610,3	4592,814
610,8	4575,843
611,2	4556,1
611,7	4540,814
612,1	4521,329
612,6	4510,414
613	4485,929
613,4	4475,729
613,9	4461,129
614,3	4447,557
614,8	4430,529
615,2	4413,786
615,7	4402,843
616,1	4392,414
616,6	4375,5
617	4359,014
617,4	4341,071
617,9	4327,9
618,3	4316,729
618,8	4298,471
619,2	4282,157
619,7	4262,5
620,1	4243,671
620,5	4221,557
621	4198,214
621,4	4182,386
621,9	4155,843
622,3	4137,157
622,8	4113,271
623,2	4089,5
623,6	4072,929
624,1	4056,957
624,5	4036,7
625	4029,443
625,4	4012,243
625,9	4004,957
626,3	3995,586
626,8	3973,814
627,2	3953,7
627,6	3930,957
628,1	3901,071
628,5	3871,471
629	3845,814
629,4	3823,414
629,9	3816,443
630,3	3797,414
630,7	3781,157
631,2	3766,243
631,6	3756,357
632,1	3732,386
632,5	3708,157
633	3684,186
633,4	3667,957
633,8	3649,529
634,3	3629,614
634,7	3605,814
635,2	3594,3
635,6	3583,586
636,1	3561,129
636,5	3542,5
636,9	3524,786
637,4	3512,157
637,8	3497,529
638,3	3475,7
638,7	3458,271
639,2	3439,386
639,6	3421,529
640	3403,243
640,5	3381,929
640,9	3358,243
641,4	3341,5
641,8	3327,329
642,2	3315,7
642,7	3292,843
643,1	3269,329
643,6	3252,729
644	3239,243
644,5	3225,329
644,9	3204,214
645,3	3185,729
645,8	3169,271
646,2	3156,129
646,7	3134,614
647,1	3117,1
647,6	3099,129
648	3075,443
648,4	3058,3
648,9	3044,414
649,3	3032,1
649,8	3013,671
650,2	3000,871
650,6	2994,243
651,1	2983,471
651,5	2970,214
652	2957,729
652,4	2934,386
652,9	2921,643
653,3	2902,214
653,7	2885,729
654,2	2869,786
654,6	2849,1
655,1	2831,7
655,5	2822,671
655,9	2812,614
656,4	2800,014
656,8	2776,3
657,3	2757,271
657,7	2743,786
658,2	2728,957
658,6	2711,7
659	2692,3
659,5	2675,1
659,9	2657,1
660,4	2642,157
660,8	2623,271
661,2	2608,414
661,7	2588,7
662,1	2573,729
662,6	2559,243
663	2545,814
663,4	2527,729
663,9	2511,671
664,3	2495,214
664,8	2479,9
665,2	2465,843
665,6	2451,129
666,1	2436,3
666,5	2422,1
667	2410,214
667,4	2392,329
667,9	2380,986
668,3	2362,471
668,7	2344,957
669,2	2327,186
669,6	2312,043
670,1	2299,129
670,5	2284,3
670,9	2268,929
671,4	2255,243
671,8	2238,614
672,3	2224,643
672,7	2218,071
673,1	2197,071
673,6	2181,729
674	2165,786
674,5	2144,557
674,9	2136,757
675,3	2123,7
675,8	2102,471
676,2	2085,157
676,7	2071,9
677,1	2056,529
677,5	2050,071
678	2032,671
678,4	2018,471
678,9	2009,557
679,3	1999,243
679,7	1990,557
680,2	1978,243
680,6	1967,957
681,1	1955,814
681,5	1944,557
681,9	1928,243
682,4	1922,129
682,8	1906,157
683,3	1896,129
683,7	1880,471
684,1	1867,357
684,6	1852,386
685	1839,643
685,5	1826,386
685,9	1815,3
686,3	1800,5
686,8	1786,443
687,2	1774,186
687,7	1764,643
688,1	1752,529
688,5	1740,157
689	1727,729
689,4	1718,643
689,9	1710,129
690,3	1703,157
690,7	1688,729
691,2	1673,5
691,6	1662,871
692	1652,529
692,5	1643,071
692,9	1627,614
693,4	1614,471
693,8	1608,757
694,2	1602,471
694,7	1588,443
695,1	1575,757
695,6	1559,443
696	1554,386
696,4	1540,3
696,9	1527,043
697,3	1513,757
697,8	1509,386
698,2	1499,386
698,6	1491,129
699,1	1482,843
699,5	1468,014
699,9	1460,757
700,4	1452,129
700,8	1439,814
701,3	1432,957
701,7	1423,243
702,1	1409,557
702,6	1404,786
703	1392,271
703,5	1381,814
703,9	1368,986
704,3	1354,586
704,8	1347,014
705,2	1339,414
705,6	1327,957
706,1	1316,186
706,5	1314,471
707	1308,586
707,4	1305,186
707,8	1290,443
708,3	1278,786
708,7	1270,757
709,2	1265,871
709,6	1249,243
710	1242,786
710,5	1230,214
710,9	1228,7
711,3	1219,843
711,8	1211,414
712,2	1198,614
712,7	1191,9
713,1	1177,871
713,5	1169,671
714	1158,871
714,4	1155,357
714,8	1145,671
715,3	1140,443
715,7	1132,957
716,2	1128,843
716,6	1120,614
717	1111,357
717,5	1100,357
717,9	1097,5
718,3	1090,557
718,8	1080,157
719,2	1066,414
719,7	1058,414
720,1	1049,014
720,5	1041,1
721	1029,329
721,4	1019,357
721,8	1015,786
722,3	1010,157
722,7	1002,271
723,2	994,271
723,6	986,471
724	978,329
724,5	967,243
724,9	961,786
725,3	954,043
725,8	945,814
726,2	933,271
726,7	926,9
727,1	921,1
727,5	918,329
728	908,7
728,4	903,1
728,8	894,329
729,3	893,586
729,7	887,014
730,1	881,129
730,6	872,7
731	865,271
731,5	855,671
731,9	856,071
732,3	853,9
732,8	847,129
733,2	843,443
733,6	843,7
734,1	842,243
734,5	844,043
734,9	833,3
735,4	825,471
735,8	817,929
736,3	810,929
736,7	800,271
737,1	795,1
737,6	784,986
738	781,214
738,4	781,157
738,9	779,414
739,3	776,643
739,7	773,671
740,2	768,471
740,6	764,929
741,1	761,414
741,5	755,329
741,9	751,157
742,4	741,986
742,8	738,814
743,2	735,443
743,7	727,157
744,1	727,586
744,5	720,729
745	711,414
745,4	711,357
745,8	708,471
746,3	704,929
746,7	700,557
747,2	694,814
747,6	690,043
748	690,186
748,5	685,757
748,9	677,014
749,3	666,129
749,8	666,243
750,2	654,7
750,6	654,786
751,1	649,186
751,5	638,643
751,9	636,957
752,4	632,814
752,8	624,729
753,3	625,129
753,7	612,414
754,1	604,1
754,6	603,129
755	598,129
755,4	599,3
755,9	598,529
756,3	595,243
756,7	598,386
757,2	599,586
757,6	593,357
758	587,529
758,5	581,386
758,9	575,843
759,3	567,614
759,8	558,043
760,2	553,386
760,6	552,614
761,1	548,243
761,5	545,529
761,9	546,386
762,4	543,671
762,8	541,186
763,3	534,443
763,7	526,129
764,1	521,043
764,6	515,7
765	506,471
765,4	499,929
765,9	497,986
766,3	494,3
766,7	494,014
767,2	495,129
767,6	494,1
768	492,614
768,5	496,529
768,9	495,3
769,3	493,671
769,8	490,271
770,2	486,014
770,6	480,986
771,1	478,414
771,5	473,814
771,9	473,157
772,4	472,157
772,8	468,471
773,2	463,043
773,7	456,443
774,1	452,443
774,5	444,5
775	432,814
775,4	425,157
775,8	421,329
776,3	419,386
776,7	421,157
777,1	413,671
777,6	411,071
778	412,357
778,4	414,671
778,9	410,243
779,3	404,671
779,7	399,1
780,2	400,529
780,6	398,329
781	395,386
781,5	387,5
781,9	388,614
782,3	389,529
782,8	391,186
783,2	388,557
783,6	389,5
784,1	385,186
784,5	388,614
784,9	382,357
785,4	379,043
785,8	373,243
786,2	367,9
786,7	365,471
787,1	360,986
787,5	354,043
788	351,186
788,4	348,614
788,8	344,843
789,3	339,157
789,7	338,529
790,1	336,386
790,6	334,843
791	337,471
791,4	337,243
791,9	333,5
792,3	336,729
792,7	327,014
793,2	327,186
793,6	323,071
794	318,757
794,5	310,557
794,9	314,729
795,3	312,3
795,8	313,614
796,2	310,471
796,6	312,529
797,1	304,186
797,5	307,071
797,9	304,071
798,4	300,3
798,8	299,557
799,2	301,043
799,7	290,586
800,1	292,386
800,5	285,929
801	276,329
801,4	277,614
801,8	272,043
802,2	269,443
802,7	270,443
803,1	270,414
803,5	271,071
804	272,129
804,4	267,614
804,8	270,157
805,3	267,614
805,7	267,414
806,1	263,929
806,6	258,014
807	255,357
807,4	252,957
807,9	245,1
808,3	243,071
808,7	236,671
809,2	233,5
809,6	235,386
810	233,329
810,4	232,471
810,9	230,329
811,3	228,729
811,7	236,357
812,2	236,757
812,6	233,843
813	229,643
813,5	223,471
813,9	223,786
814,3	219,614
814,8	208,643
815,2	209,414
815,6	205,614
816,1	204,786
816,5	205,786
816,9	201,443
817,3	202,443
817,8	201,929
818,2	196,586
818,6	194,357
819,1	196,814
819,5	196,871
819,9	195,614
820,4	192,357
820,8	192,271
821,2	192,043
821,7	192,243
822,1	187,329
822,5	184,157
822,9	184,414
823,4	183,271
823,8	180,443
824,2	179,843
824,7	179,243
825,1	176,3
825,5	173,5
826	175,186
826,4	171,843
826,8	174,671
827,3	174,471
827,7	172,586
828,1	174,557
828,5	169,157
829	167,9
829,4	164,129
829,8	159,786
830,3	155,529
830,7	151,214
831,1	148,929
831,6	154,186
832	154,157
832,4	151,7
832,8	149,186
833,3	149,957
833,7	148,871
834,1	146,1
834,6	141,871
835	136,671
835,4	138,386
835,8	141,757
836,3	137,671
836,7	141,871
837,1	146,386
837,6	146,157
838	144,5
838,4	149,529
838,9	146,3
839,3	151,586
839,7	149,586
840,1	140,3
840,6	142,757
841	144,271
841,4	138,814
841,9	139,014
842,3	133,643
842,7	132,329
843,1	136,643
843,6	134,043
844	130,443
844,4	128,3
844,9	125,043
845,3	122,729
845,7	122,671
846,2	120,214
846,6	117,186
847	118,671
847,4	110,814
847,9	110,329
848,3	109,243
848,7	103,471
849,2	104,071
849,6	102,814
850	104,214
850,4	110,129
850,9	108,814
851,3	109,957
851,7	112,843
852,2	112,1
852,6	108,614
853	102,729
853,4	102,071
853,9	101,757
854,3	100,729
854,7	99,214
855,2	100,957
855,6	104,043
856	103,014
856,4	101,643
856,9	104,271
857,3	102,614
857,7	103,1
858,2	92,329
858,6	92,614
859	88,614
859,4	93,357
859,9	91,157
860,3	86,414
860,7	82,929
861,1	88,586
861,6	90,586
862	92,871
862,4	84,786
862,9	83,014
863,3	86,986
863,7	88,129
864,1	85,443
864,6	82,014
865	85,9
865,4	85,986
865,9	84,614
866,3	84,729
866,7	84,386
867,1	83,729
867,6	85,7
868	85,386
868,4	84,3
868,8	82,929
869,3	81,014
869,7	77,786
870,1	81,7
870,6	76,9
871	72,871
871,4	73,186
871,8	71,014
872,3	70,329
872,7	73,386
873,1	69,843
873,5	75,729
874	71,129
874,4	69,5
874,8	73,614
875,3	72,757
875,7	69,843
876,1	66,986
876,5	61,129
877	62,643
877,4	64,643
877,8	62,729
878,2	58,986
878,7	61,671
879,1	59,129
879,5	54,329
879,9	55,1
880,4	55,929
880,8	54,271
881,2	60,157
881,7	55,7
882,1	61,243
882,5	69,1
882,9	69,214
883,4	64,7
883,8	67,357
884,2	60,329
884,6	63,357
885,1	59,986
885,5	55,271
885,9	56,643
886,3	57,529
886,8	55,643
887,2	54,786
887,6	52,129
888	51,357
888,5	50,157
888,9	51,386
889,3	53,786
889,8	52,129
890,2	53,329
890,6	51,243
891	49,329
891,5	50,586
891,9	49,071
892,3	47,329
892,7	48,671
893,2	50,929
893,6	48,643
894	50,386
894,4	50,871
894,9	44,586
895,3	44,271
895,7	40,186
896,1	39,014
896,6	45,471
897	44,129
897,4	43,214
897,8	48,043
898,3	46,443
898,7	43,3
899,1	43,214
899,5	41,471
900	43,5
900,4	42,986
900,8	39,129
901,2	42,357
901,7	44,214
902,1	46,214
902,5	42,814
902,9	40,329
903,4	39,843
903,8	39,7
904,2	38,043
904,6	36,557
905,1	35,014
905,5	36,357
905,9	34,957
906,3	27,243
906,8	29,843
907,2	27,9
907,6	33,671
908	29,671
908,5	31,243
908,9	34,614
909,3	39,843
909,7	36,814
910,2	39,671
910,6	34,986
911	35,929
911,4	31,243
911,9	27,1
912,3	25,186
912,7	25,5
913,1	21,386
913,6	19,814
914	23,671
914,4	21,357
914,8	23,9
915,3	23,471
915,7	29,786
916,1	34,557
916,5	39,271
916,9	36,129
917,4	42,786
917,8	38,329
918,2	40,871
918,6	34,843
919,1	31,414
919,5	30,814
919,9	32,786
920,3	33,3
920,8	40,157
921,2	39,386
921,6	42,214
922	40,3
922,5	39,414
922,9	36,957
923,3	33,643
923,7	28,071
924,2	30,614
924,6	25,671
925	29,557
925,4	30,1
925,8	29,1
926,3	32,043
926,7	34,671
927,1	30,929
927,5	34,186
928	27,643
928,4	29,529
928,8	29,243
929,2	23,814
929,7	24,986
930,1	26,786
930,5	24,214
930,9	25,586
931,3	19,871
931,8	22,043
932,2	26,214
932,6	22,7
933	18,786
933,5	23,329
933,9	23,7
934,3	23,986
934,7	20,243
935,2	21,071
935,6	22,271
936	21,186
936,4	18,471
936,8	18,071
937,3	16,471
937,7	17,186
938,1	11,157
938,5	11,586
939	14,243
939,4	10,329
939,8	14,557
940,2	18,586
940,6	19,043
941,1	19,1
941,5	18,329
941,9	21,957
942,3	23,014
942,8	19,786
943,2	19,7
943,6	22,329
944	21,214
944,4	24,871
944,9	22,186
945,3	24,414
945,7	21,757
946,1	20,043
946,6	17,157
947	19,386
947,4	12,586
947,8	16,843
948,2	16,986
948,7	13,186
949,1	15,243
949,5	16,157
949,9	16,957
950,3	18,071
950,8	15,586
951,2	10,414
951,6	15,443
952	12,443
952,5	13,671
952,9	12,843
953,3	12,643
953,7	10,157
954,1	12,529
954,6	12,243
955	11,214
955,4	13,443
955,8	17,3
956,2	22,871
956,7	25,557
957,1	25,786
957,5	25,471
957,9	27,129
958,3	23,1
958,8	17,471
959,2	13,071
959,6	10,243
960	14,214
960,5	11,586
960,9	13,243
961,3	12,043
961,7	11,843
962,1	12,014
962,6	9,5
963	6,3
963,4	9,186
963,8	8,271
964,2	14,129
964,7	15,014
965,1	7,9
965,5	11,071
965,9	13,529
966,3	12,214
966,8	9,3
967,2	-0,729
967,6	1,671
968	5,5
968,4	4,7
968,9	4,043
969,3	2,929
969,7	5,843
970,1	6,443
970,5	4,443
971	4,214
971,4	4,757
971,8	-0,043
972,2	2,271
972,6	2,986
973,1	7,243
973,5	4,243
973,9	8,157
974,3	10,014
974,7	11,243
975,2	12,643
975,6	11,014
976	9,243
976,4	8,329
976,8	7,786
977,3	5,3
977,7	7,386
978,1	6,386
978,5	6,186
978,9	8,471
979,4	13,757
979,8	12,471
980,2	12,043
980,6	13,7
981	13,786
981,5	12,757
981,9	14,557
982,3	11,871
982,7	10,957
983,1	10,386
983,6	10,214
984	7,929
984,4	10,957
984,8	9,186
985,2	12,443
985,6	18,614
986,1	20,671
986,5	14,786
986,9	16,3
987,3	12,5
987,7	11,1
988,2	10,329
988,6	1,5
989	-3,357
989,4	1,443
989,8	3,357
990,3	3,071
990,7	5,3
991,1	7,357
991,5	13,929
991,9	10,5
992,3	10,843
992,8	10,614
993,2	13,529
993,6	11,957
994	9,129
994,4	10,043
994,9	17,871
995,3	20,843
995,7	18,757
996,1	16,986
996,5	13,529
996,9	12,671
997,4	11,443
997,8	11,5
998,2	5,7
998,6	9,557
999	12,7
999,5	15,386
999,9	17,7
1000,3	17,529
1000,7	14,529
1001,1	11,243
1001,5	12,557
1002	6,929
1002,4	9,186
1002,8	6,471
1003,2	4,671
1003,6	7,243
1004	9,214
1004,5	2,243
1004,9	6,214
1005,3	4,614
1005,7	6,043
1006,1	7,243
1006,6	5,443
1007	9,443
1007,4	7,014
1007,8	11,157
1008,2	10,671
1008,6	12,643
1009,1	12,929
1009,5	15,443
1009,9	11,871
1010,3	12,671
1010,7	9,929
1011,1	12,043
1011,6	13,214
1012	14,843
1012,4	16,186
1012,8	19,214
1013,2	25,386
1013,6	22,014
1014,1	18,957
1014,5	17,957
1014,9	17,129
1015,3	15,557
1015,7	14,186
1016,1	10,471
1016,6	11,243
1017	13,3
1017,4	7,014
1017,8	1,814
1018,2	-1,643
1018,6	0,3
1019,1	5,557
1019,5	5,643
1019,9	7,643
1020,3	11,929
1020,7	10,929
1021,1	13,014
1021,6	8,814
1022	8,871
1022,4	8,871
1022,8	3,7
1023,2	3,843
1023,6	4,3
1024,1	2,5
1024,5	5,414
1024,9	6,471
1025,3	6,243
1025,7	9,5
1026,1	12,9
1026,6	21,157
1027	21,586
1027,4	24,557
1027,8	16,357
1028,2	14,443
1028,6	17,529
1029	11,071
1029,5	7,814
1029,9	11,5
1030,3	12,843
1030,7	18,129
1031,1	23,3
1031,5	21,5
1032	23,043
1032,4	22,329
1032,8	19,786
1033,2	16,643
1033,6	11,671
1034	11,271
1034,4	9,443
1034,9	10,9
1035,3	12,957
1035,7	8,643
1036,1	4,9
1036,5	9,329
1036,9	11,043
1037,4	12,214
1037,8	19,043
1038,2	15,3
1038,6	23,214
1039	23,671
1039,4	23,014
1039,8	19,757
1040,3	20,957
1040,7	8,071
1041,1	6,9
1041,5	3,957
1041,9	2,1
1042,3	2,414
1042,7	2,5
1043,2	0,357
1043,6	9,329
1044	12,414
1044,4	11,214
1044,8	17,757
1045,2	21,9
1045,6	19,7
1046,1	20,329
1046,5	18,814
1046,9	17,929
1047,3	23,7
1047,7	22,643
1048,1	18,271
1048,5	22,071
1049	24,786
1049,4	21,843
1049,8	19,843
1050,2	14,329
1050,6	12,157
1051	8,529
1051,4	7,071
1051,9	1,786
1052,3	5,471
1052,7	6,157
1053,1	7,414
1053,5	6,929
1053,9	16,586
1054,3	12,614
1054,8	12,071
1055,2	5,329
1055,6	6,071
1056	2,757
1056,4	6,786
1056,8	1,671
1057,2	2,157
1057,6	9,357
1058,1	17,129
1058,5	18,643
1058,9	20,9
1059,3	17,414
1059,7	13,757
1060,1	14,1
1060,5	7,414
1061	-0,186
1061,4	-1,586
1061,8	3,7
1062,2	3,071
1062,6	7,129
1063	11,071
1063,4	15,843
1063,8	17,729
1064,3	19,671
1064,7	16,814
1065,1	17,757
1065,5	18,186
1065,9	17,529
1066,3	12,557
1066,7	13,1
1067,1	11,243
1067,6	10,471
1068	10,329
1068,4	8,1
1068,8	0,843
1069,2	2,786
1069,6	1,757
1070	5,729
1070,4	1,9
1070,9	0,329
1071,3	1,557
1071,7	7,843
1072,1	5,414
1072,5	7,071
1072,9	3,471
1073,3	8,1
1073,7	14,586
1074,2	12,7
1074,6	8,986
1075	9,957
1075,4	13,1
1075,8	13,557
1076,2	14,443
1076,6	10,671
1077	8,757
1077,5	12,529
1077,9	14,957
1078,3	8,814
1078,7	4,957
1079,1	0,529
1079,5	-0,386
1079,9	3,814
1080,3	-0,043
1080,7	0,3
1081,2	7,3
1081,6	8,471
1082	11,9
1082,4	11,357
1082,8	8,186
1083,2	13,929
1083,6	10,643
1084	8,957
1084,5	13,7
1084,9	7,986
1085,3	6,671
1085,7	13,329
1086,1	11,014
1086,5	9,871
1086,9	5,729
1087,3	-0,071
1087,7	2,843
1088,2	4,786
1088,6	-3,3
1089	-5,614
1089,4	-2,7
1089,8	-0,986
1090,2	0,7
1090,6	3,5
1091	2,414
1091,4	7,557
1091,9	12,614
1092,3	14,786
1092,7	16,843
1093,1	15,786
1093,5	14,729
1093,9	16,586
1094,3	14,1
1094,7	10,386
1095,1	6,614
1095,5	1,929
1096	3,614
1096,4	0,414
1096,8	0,043
1097,2	2,129
1097,6	5,129
1098	7,843
1098,4	9,671
1098,8	9,043
1099,2	9,214
1099,6	9,243
1100,1	7,786
1100,5	7,414
1100,9	10,643
1101,3	11,157
1101,7	11,443
1102,1	13,3
1102,5	9,157
1102,9	6,043
1103,3	4,757
1103,7	-0,7
1104,2	0,7
1104,6	3,957
1105	6,986
1105,4	11,929
1105,8	13,329
1106,2	11,614
1106,6	11,5
1107	9,986
1107,4	7,867
1107,8	3,78
1108,3	0,3
