Data from Subt2_00082.txt Node
Date: Mon Aug 28 13:32:16 MSK 2023
User: vat
Spectrometer: MAYP114033
Trigger mode: 0
Integration Time (sec): 1,000000E0
Scans to average: 5
Electric dark correction enabled: true
Nonlinearity correction enabled: false
Boxcar width: 3
XAxis mode: Wavelengths
Number of Pixels in Spectrum: 2068
>>>>>Begin Spectral Data<<<<<
199,4	0,217
199,9	-0,613
200,4	-3,167
200,8	0,038
201,3	1,724
201,8	5,724
202,2	9,381
202,7	10,695
203,2	12,667
203,6	15,21
204,1	15,838
204,6	15,724
205	12,181
205,5	8,524
206	5,867
206,4	2,352
206,9	3,01
207,4	0,238
207,8	-2,705
208,3	-3,648
208,8	-3,876
209,2	2,21
209,7	4,238
210,2	4,238
210,6	7,01
211,1	13,524
211,5	17,495
212	24,038
212,5	18,038
212,9	19,781
213,4	20,581
213,9	17,124
214,3	15,267
214,8	12,638
215,3	10,181
215,7	12,095
216,2	9,724
216,7	12,295
217,1	12,552
217,6	10,41
218,1	9,067
218,5	5,495
219	7,638
219,5	10,867
219,9	7,81
220,4	12,638
220,9	13,467
221,3	15,238
221,8	18,267
222,3	17,61
222,7	19,124
223,2	18,438
223,6	14,324
224,1	15,638
224,6	23,552
225	19,352
225,5	18,381
226	12,81
226,4	14,238
226,9	14,21
227,4	15,838
227,8	11,038
228,3	12,638
228,8	15,638
229,2	21,895
229,7	22,067
230,2	26,752
230,6	23,41
231,1	21,21
231,5	24,952
232	24,324
232,5	20,295
232,9	24,638
233,4	20,981
233,9	24,01
234,3	26,41
234,8	25,067
235,3	27,295
235,7	27,61
236,2	22,524
236,7	18,381
237,1	18,61
237,6	13,981
238,1	12,381
238,5	11,81
239	17,21
239,4	15,781
239,9	18,752
240,4	17,438
240,8	20,638
241,3	18,067
241,8	11,238
242,2	3,81
242,7	4,781
243,2	10,295
243,6	14,952
244,1	13,81
244,6	13,867
245	13,695
245,5	16,01
245,9	18,752
246,4	14,695
246,9	9,124
247,3	10,638
247,8	12,21
248,3	16,181
248,7	14,295
249,2	14,152
249,7	14,295
250,1	11,124
250,6	7,095
251	3,095
251,5	2,152
252	4,695
252,4	2,952
252,9	5,924
253,4	10,181
253,8	10,924
254,3	13,324
254,8	14,867
255,2	10,838
255,7	9,638
256,1	1,495
256,6	-0,762
257,1	2,152
257,5	1,238
258	-3,733
258,5	2,695
258,9	0,124
259,4	8,41
259,9	3,724
260,3	1,724
260,8	2,61
261,2	11,467
261,7	8,952
262,2	11,352
262,6	9,01
263,1	11,438
263,6	9,21
264	11,895
264,5	8,61
264,9	11,295
265,4	12,581
265,9	10,21
266,3	11,038
266,8	15,61
267,3	16,752
267,7	17,095
268,2	11,61
268,7	12,524
269,1	12,41
269,6	15,381
270	7,495
270,5	8,21
271	6,695
271,4	3,695
271,9	-1,048
272,4	1,124
272,8	-1,276
273,3	3,752
273,7	4,352
274,2	2,41
274,7	9,552
275,1	14,095
275,6	15,781
276,1	18,324
276,5	20,324
277	17,61
277,4	19,352
277,9	14,467
278,4	14,724
278,8	11,152
279,3	8,924
279,8	8,267
280,2	12,324
280,7	10,352
281,1	12,267
281,6	9,81
282,1	12,038
282,5	13,067
283	13,267
283,4	11,038
283,9	12,181
284,4	13,324
284,8	15,81
285,3	11,61
285,8	13,752
286,2	11,01
286,7	13,524
287,1	12,038
287,6	11,467
288,1	12,867
288,5	13,952
289	11,667
289,5	14,895
289,9	7,238
290,4	7,867
290,8	12,067
291,3	11,295
291,8	11,438
292,2	13,295
292,7	8,638
293,1	9,752
293,6	8,124
294,1	5,01
294,5	2,638
295	3,438
295,5	2,067
295,9	7,41
296,4	7,267
296,8	9,152
297,3	9,41
297,8	12,152
298,2	9,01
298,7	9,638
299,1	7,181
299,6	8,21
300,1	8,238
300,5	5,581
301	5,067
301,5	7,895
301,9	4,552
302,4	3,667
302,8	5,295
303,3	12,238
303,8	17,295
304,2	15,524
304,7	16,438
305,1	14,295
305,6	10,752
306,1	10,895
306,5	-0,333
307	-4,076
307,4	-8,39
307,9	-6,876
308,4	-3,933
308,8	2,124
309,3	5,952
309,8	14,838
310,2	15,81
310,7	19,867
311,1	16,095
311,6	13,838
312,1	10,895
312,5	5,152
313	2,781
313,4	4,752
313,9	1,981
314,4	1,524
314,8	8,924
315,3	10,981
315,7	11,524
316,2	8,181
316,7	7,724
317,1	9,238
317,6	10,438
318	10,352
318,5	10,724
319	9,467
319,4	13,038
319,9	8,21
320,3	7,924
320,8	8,352
321,3	1,61
321,7	3,038
322,2	2,038
322,6	1,095
323,1	1,095
323,6	4,267
324	4,724
324,5	9,552
324,9	10,181
325,4	13,524
325,9	12,381
326,3	13,067
326,8	11,01
327,2	12,495
327,7	11,324
328,2	14,038
328,6	13,295
329,1	8,41
329,5	9,867
330	12,181
330,5	18,895
330,9	17,238
331,4	11,152
331,8	13,01
332,3	20,495
332,8	21,838
333,2	16,267
333,7	3,81
334,1	0,638
334,6	0,495
335,1	-0,762
335,5	-3,019
336	-1,819
336,4	2,067
336,9	6,41
337,4	12,467
337,8	13,781
338,3	11,981
338,7	9,895
339,2	9,238
339,7	9,981
340,1	8,495
340,6	5,867
341	4,61
341,5	5,895
342	4,524
342,4	-1,305
342,9	1,381
343,3	4,638
343,8	10,324
344,2	12,924
344,7	10,267
345,2	14,381
345,6	20,067
346,1	17,038
346,5	19,181
347	12,81
347,5	13,552
347,9	20,495
348,4	19,581
348,8	20,324
349,3	19,924
349,8	12,981
350,2	17,724
350,7	17,124
351,1	13,695
351,6	15,552
352	15,781
352,5	24,067
353	39,01
353,4	41,781
353,9	51,381
354,3	69,467
354,8	78,067
355,3	92,295
355,7	109,952
356,2	123,352
356,6	146,324
357,1	171,81
357,5	192,381
358	231,038
358,5	267,095
358,9	302,952
359,4	347,581
359,8	398,81
360,3	452,467
360,8	519,352
361,2	586,552
361,7	667,181
362,1	750,295
362,6	845,067
363	945,41
363,5	1046,324
364	1152,038
364,4	1257,438
364,9	1362,067
365,3	1467,695
365,8	1572,724
366,3	1663,324
366,7	1749,838
367,2	1817,581
367,6	1882,61
368,1	1922,41
368,5	1951,924
369	1956,867
369,5	1954,61
369,9	1938,581
370,4	1910,238
370,8	1858,495
371,3	1807,867
371,7	1741,81
372,2	1675,381
372,7	1598,295
373,1	1514,781
373,6	1426,867
374	1343,495
374,5	1255,838
374,9	1176,238
375,4	1094,21
375,9	1017,695
376,3	941,81
376,8	876,467
377,2	815,695
377,7	759,21
378,2	705,981
378,6	650,238
379,1	596,295
379,5	551,981
380	510,867
380,4	475,867
380,9	443,924
381,4	411,924
381,8	387,295
382,3	369,724
382,7	352,352
383,2	332,267
383,6	319,724
384,1	307,238
384,6	290,81
385	278,438
385,5	266,181
385,9	255,438
386,4	247,581
386,8	229,467
387,3	216,381
387,7	207,181
388,2	196,695
388,7	187,21
389,1	177,752
389,6	170,467
390	166,61
390,5	161,41
390,9	153,81
391,4	144,81
391,9	138,181
392,3	137,552
392,8	132,41
393,2	125,038
393,7	119,238
394,1	114,324
394,6	117,41
395,1	116,638
395,5	105,41
396	99,124
396,4	93,752
396,9	90,181
397,3	91,238
397,8	84,581
398,2	79,038
398,7	80,124
399,2	77,438
399,6	83,152
400,1	79,924
400,5	79,581
401	82,238
401,4	79,352
401,9	81,124
402,4	80,267
402,8	75,181
403,3	80,21
403,7	76,581
404,2	77,438
404,6	79,381
405,1	82,581
405,5	85,952
406	88,181
406,5	82,581
406,9	86,838
407,4	81,467
407,8	82,81
408,3	78,552
408,7	77,267
409,2	74,152
409,6	76,352
410,1	72,267
410,6	71,667
411	71,638
411,5	66,667
411,9	66,495
412,4	75,01
412,8	73,867
413,3	76,124
413,7	78,781
414,2	79,21
414,7	83,067
415,1	87,467
415,6	80,61
416	87,752
416,5	95,781
416,9	104,81
417,4	107,667
417,8	113,495
418,3	110,295
418,8	116,267
419,2	112,695
419,7	111,61
420,1	104,181
420,6	109,752
421	109,667
421,5	116,724
421,9	115,095
422,4	120,981
422,8	118,724
423,3	122,41
423,8	118,295
424,2	120,067
424,7	119,21
425,1	117,895
425,6	116,552
426	119,21
426,5	119,495
426,9	119,01
427,4	121,181
427,9	126,552
428,3	133,21
428,8	132,724
429,2	132,495
429,7	138,21
430,1	144,61
430,6	137,924
431	133,352
431,5	132,181
431,9	135,924
432,4	137,581
432,8	138,924
433,3	137,838
433,8	146,295
434,2	150,238
434,7	151,152
435,1	157,352
435,6	160,267
436	161,41
436,5	166,61
436,9	174,238
437,4	181,838
437,8	188,838
438,3	195,638
438,8	203,667
439,2	209,524
439,7	218,552
440,1	224,724
440,6	237,41
441	245,581
441,5	251,695
441,9	259,781
442,4	274,638
442,8	283,581
443,3	297,41
443,7	298,552
444,2	315,181
444,7	329,61
445,1	348,067
445,6	358,724
446	376,238
446,5	387,81
446,9	410,067
447,4	425,781
447,8	444,895
448,3	460,638
448,7	479,21
449,2	494,81
449,6	517,21
450,1	536,267
450,6	558,695
451	576,467
451,5	602,495
451,9	627,867
452,4	648,895
452,8	665,638
453,3	685,495
453,7	707,952
454,2	729,495
454,6	751,124
455,1	773,267
455,5	806,352
456	835,895
456,4	865,981
456,9	897,124
457,3	929,524
457,8	957,324
458,3	988,524
458,7	1020,81
459,2	1058,095
459,6	1096,838
460,1	1136,01
460,5	1168,438
461	1204,067
461,4	1240,352
461,9	1275,638
462,3	1311,867
462,8	1343,295
463,2	1373,152
463,7	1422,724
464,1	1461,438
464,6	1505,181
465	1539,952
465,5	1575,152
466	1619,867
466,4	1660,324
466,9	1693,267
467,3	1736,838
467,8	1777,667
468,2	1822,41
468,7	1870,495
469,1	1914,095
469,6	1955,152
470	2001,724
470,5	2041,267
470,9	2079,038
471,4	2128,238
471,8	2172,01
472,3	2212,695
472,7	2259,752
473,2	2300,467
473,6	2343,838
474,1	2390,41
474,5	2427,924
475	2469,781
475,4	2514,867
475,9	2556,238
476,4	2595,181
476,8	2640,981
477,3	2681,381
477,7	2725,152
478,2	2764,381
478,6	2804,581
479,1	2850,067
479,5	2894,067
480	2930,981
480,4	2969,667
480,9	3004,552
481,3	3041,895
481,8	3081,552
482,2	3115,324
482,7	3156,838
483,1	3193,695
483,6	3234,267
484	3269,667
484,5	3305,952
484,9	3338,638
485,4	3375,067
485,8	3407,295
486,3	3436,038
486,7	3467,61
487,2	3508,581
487,6	3528,667
488,1	3556,638
488,5	3581,781
489	3608,095
489,4	3643,638
489,9	3660,41
490,4	3679,724
490,8	3714,752
491,3	3733,752
491,7	3754,952
492,2	3774,238
492,6	3790,352
493,1	3818,61
493,5	3837,61
494	3863,61
494,4	3883,41
494,9	3903,524
495,3	3922,067
495,8	3942,552
496,2	3958,267
496,7	3976,524
497,1	3987,495
497,6	4006,838
498	4028,524
498,5	4042,724
498,9	4062,095
499,4	4074,067
499,8	4087,524
500,3	4100,952
500,7	4111,495
501,2	4116,952
501,6	4129,752
502,1	4142,495
502,5	4156,352
503	4164,352
503,4	4175,581
503,9	4183,324
504,3	4194,495
504,8	4206,038
505,2	4204,952
505,7	4215,895
506,1	4222,038
506,6	4223,724
507	4242,267
507,5	4246,124
507,9	4257,752
508,4	4274,667
508,8	4279,467
509,3	4291,952
509,7	4306,095
510,2	4308,467
510,6	4315,352
511,1	4315,838
511,5	4319,295
512	4327,981
512,4	4333,324
512,9	4340,152
513,3	4344,438
513,8	4352,438
514,2	4362,981
514,7	4363,895
515,1	4364,238
515,6	4369,324
516	4370,181
516,5	4375,324
516,9	4383,181
517,4	4385,095
517,8	4395,324
518,3	4410,152
518,7	4416,295
519,2	4425,324
519,6	4432,952
520,1	4444,667
520,5	4454,067
521	4461,01
521,4	4468,467
521,9	4477,981
522,3	4485,981
522,8	4494,895
523,2	4498,895
523,7	4503,038
524,1	4502,21
524,6	4505,952
525	4512,038
525,5	4518,495
525,9	4528,752
526,4	4535,01
526,8	4544,895
527,3	4556,895
527,7	4564,324
528,2	4572,695
528,6	4582,638
529,1	4587,952
529,5	4596,581
530	4603,181
530,4	4616,61
530,9	4628,581
531,3	4639,838
531,8	4646,267
532,2	4645,41
532,6	4663,581
533,1	4666,895
533,5	4671,01
534	4674,295
534,4	4674,467
534,9	4687,552
535,3	4708,41
535,8	4704,952
536,2	4720,81
536,7	4733,467
537,1	4748,01
537,6	4766,724
538	4776,324
538,5	4787,552
538,9	4801,152
539,4	4813,724
539,8	4826,895
540,3	4834,61
540,7	4844,324
541,2	4853,838
541,6	4863,295
542,1	4873,095
542,5	4882,667
543	4892,01
543,4	4904,924
543,9	4905,438
544,3	4920,667
544,8	4931,952
545,2	4941,238
545,7	4953,667
546,1	4961,524
546,5	4969,581
547	4979,781
547,4	4987,352
547,9	4996,41
548,3	5006,438
548,8	4999,152
549,2	5011,038
549,7	5019,638
550,1	5030,41
550,6	5030,695
551	5041,01
551,5	5051,324
551,9	5072,352
552,4	5074,638
552,8	5084,01
553,3	5101,438
553,7	5109,267
554,2	5117,095
554,6	5124,295
555,1	5132,867
555,5	5145,867
555,9	5153,952
556,4	5158,781
556,8	5179,981
557,3	5189,838
557,7	5210,038
558,2	5216,81
558,6	5223,667
559,1	5233,867
559,5	5243,238
560	5237,752
560,4	5233,81
560,9	5229,695
561,3	5238,952
561,8	5250,038
562,2	5252,267
562,7	5256,038
563,1	5266,41
563,6	5280,295
564	5291,438
564,4	5301,467
564,9	5297,524
565,3	5304,324
565,8	5308,638
566,2	5304,781
566,7	5303,638
567,1	5294,41
567,6	5289,095
568	5298,581
568,5	5296,61
568,9	5303,038
569,4	5312,638
569,8	5317,781
570,3	5322,61
570,7	5331,181
571,1	5332,781
571,6	5334,524
572	5333,581
572,5	5332,838
572,9	5329,352
573,4	5335,41
573,8	5331,21
574,3	5328,21
574,7	5333,638
575,2	5331,21
575,6	5339,152
576,1	5344,41
576,5	5344,838
576,9	5338,552
577,4	5333,924
577,8	5325,581
578,3	5327,381
578,7	5317,724
579,2	5305,81
579,6	5296,267
580,1	5293,552
580,5	5292,552
581	5287,152
581,4	5273,381
581,9	5264,895
582,3	5265,181
582,7	5254,867
583,2	5248,381
583,6	5233,067
584,1	5230,438
584,5	5227,21
585	5217,295
585,4	5208,924
585,9	5203,667
586,3	5187,667
586,8	5173,867
587,2	5160,524
587,6	5149,638
588,1	5145,524
588,5	5141,781
589	5135,895
589,4	5138,038
589,9	5142,41
590,3	5140,067
590,8	5131,495
591,2	5118,724
591,7	5096,381
592,1	5086,21
592,5	5074,524
593	5064,924
593,4	5048,61
593,9	5043,524
594,3	5040,924
594,8	5045,438
595,2	5038,038
595,7	5036,124
596,1	5020,724
596,6	5017,01
597	5006,667
597,4	4994,695
597,9	4979,095
598,3	4965,981
598,8	4947,124
599,2	4950,01
599,7	4947,095
600,1	4937,638
600,6	4926,495
601	4921,181
601,4	4919,61
601,9	4911,895
602,3	4889,895
602,8	4873,552
603,2	4858,781
603,7	4850,467
604,1	4835,152
604,6	4814,61
605	4803,352
605,4	4794,981
605,9	4772,524
606,3	4761,952
606,8	4745,724
607,2	4736,695
607,7	4723,267
608,1	4710,924
608,6	4703,295
609	4699,495
609,4	4678,638
609,9	4669,152
610,3	4647,095
610,8	4635,581
611,2	4615,267
611,7	4591,752
612,1	4575,152
612,6	4561,124
613	4537,038
613,4	4522,381
613,9	4502,781
614,3	4494,667
614,8	4479,267
615,2	4457,152
615,7	4440,581
616,1	4428,352
616,6	4413,924
617	4391,61
617,4	4371,895
617,9	4359,095
618,3	4344,495
618,8	4337,181
619,2	4318,981
619,7	4305,61
620,1	4290,838
620,5	4268,838
621	4247,41
621,4	4235,752
621,9	4209,267
622,3	4189,667
622,8	4162,667
623,2	4147,181
623,6	4128,21
624,1	4107,781
624,5	4083,467
625	4068,181
625,4	4053,152
625,9	4040,667
626,3	4027,867
626,8	4007,752
627,2	3989,152
627,6	3971,838
628,1	3950,352
628,5	3928,267
629	3905,952
629,4	3883,152
629,9	3870,352
630,3	3855,924
630,7	3833,467
631,2	3818,038
631,6	3804,981
632,1	3782,895
632,5	3755,495
633	3732,095
633,4	3711,352
633,8	3692,038
634,3	3666,21
634,7	3643,895
635,2	3624,267
635,6	3610,467
636,1	3592,124
636,5	3570,667
636,9	3551,838
637,4	3536,295
637,8	3516,667
638,3	3504,181
638,7	3489,61
639,2	3465,467
639,6	3442,581
640	3424,238
640,5	3396,524
640,9	3377,352
641,4	3352,81
641,8	3337,781
642,2	3325,124
642,7	3311,467
643,1	3296,152
643,6	3292,495
644	3275,21
644,5	3270,01
644,9	3246,21
645,3	3236,752
645,8	3222,724
646,2	3203,067
646,7	3179,152
647,1	3157,467
647,6	3132,381
648	3117,667
648,4	3093,352
648,9	3073,895
649,3	3062,124
649,8	3050,352
650,2	3043,867
650,6	3030,41
651,1	3018,524
651,5	3006,01
652	2992,752
652,4	2974,581
652,9	2957,667
653,3	2938,552
653,7	2928,238
654,2	2907,667
654,6	2893,952
655,1	2878,895
655,5	2863,124
655,9	2843,695
656,4	2824,152
656,8	2798,867
657,3	2782,695
657,7	2760,724
658,2	2742,438
658,6	2726,667
659	2713,552
659,5	2697,667
659,9	2680,124
660,4	2665,21
660,8	2650,895
661,2	2636,181
661,7	2620,667
662,1	2611,21
662,6	2596,638
663	2585,581
663,4	2568,61
663,9	2552,724
664,3	2536,981
664,8	2516,61
665,2	2493,952
665,6	2480,381
666,1	2458,181
666,5	2444,324
667	2424,752
667,4	2411,01
667,9	2400,781
668,3	2386,752
668,7	2366,838
669,2	2353,667
669,6	2331,552
670,1	2318,81
670,5	2304,324
670,9	2287,152
671,4	2269,838
671,8	2255,695
672,3	2241,895
672,7	2239,838
673,1	2225,895
673,6	2205,381
674	2191,381
674,5	2178,81
674,9	2172,381
675,3	2157,724
675,8	2138,781
676,2	2123,952
676,7	2114,067
677,1	2100,21
677,5	2088,267
678	2065,352
678,4	2053,61
678,9	2037,467
679,3	2031,781
679,7	2017,581
680,2	2004,581
680,6	1993,524
681,1	1988,838
681,5	1978,81
681,9	1967,21
682,4	1946,552
682,8	1931,752
683,3	1920,752
683,7	1908,752
684,1	1890,152
684,6	1876,895
685	1861,581
685,5	1853,495
685,9	1846,181
686,3	1830,667
686,8	1817,752
687,2	1805,924
687,7	1794,124
688,1	1779,981
688,5	1769,524
689	1753,838
689,4	1742,238
689,9	1728,752
690,3	1722,667
690,7	1707,181
691,2	1700,41
691,6	1683,867
692	1673,61
692,5	1662,295
692,9	1649,924
693,4	1630,524
693,8	1619,61
694,2	1610,038
694,7	1601,01
695,1	1591,038
695,6	1583,924
696	1572,495
696,4	1565,867
696,9	1553,924
697,3	1537,552
697,8	1527,095
698,2	1511,067
698,6	1494,981
699,1	1489,381
699,5	1474,924
699,9	1467,895
700,4	1461,038
700,8	1453,267
701,3	1453,581
701,7	1447,381
702,1	1428,895
702,6	1418,21
703	1412,638
703,5	1397,981
703,9	1381,352
704,3	1366,01
704,8	1360,124
705,2	1354,638
705,6	1349,467
706,1	1335,01
706,5	1330,124
707	1332,438
707,4	1324,267
707,8	1309,581
708,3	1300,638
708,7	1287,41
709,2	1281,981
709,6	1269,495
710	1255,895
710,5	1248,152
710,9	1240,324
711,3	1228,924
711,8	1226,267
712,2	1215,067
712,7	1208,895
713,1	1199,295
713,5	1189,21
714	1181,695
714,4	1176,21
714,8	1168,152
715,3	1157,638
715,7	1149,324
716,2	1139,21
716,6	1132,238
717	1120,724
717,5	1111,21
717,9	1104,752
718,3	1095,438
718,8	1091,352
719,2	1081,495
719,7	1068,867
720,1	1062,924
720,5	1056,181
721	1041,495
721,4	1038,038
721,8	1027,124
722,3	1024,152
722,7	1020,752
723,2	1011,21
723,6	1003,41
724	998,381
724,5	987,324
724,9	981,724
725,3	970,438
725,8	961,524
726,2	953,067
726,7	945,124
727,1	936,61
727,5	929,21
728	920,952
728,4	914,181
728,8	905,295
729,3	902,152
729,7	896,181
730,1	895,952
730,6	892,381
731	885,467
731,5	882,981
731,9	879,81
732,3	878,724
732,8	874,21
733,2	864,267
733,6	858,381
734,1	855,952
734,5	850,524
734,9	841,181
735,4	832,038
735,8	823,895
736,3	821,724
736,7	817,724
737,1	812,352
737,6	805,781
738	807,352
738,4	799,495
738,9	799,695
739,3	791,81
739,7	782,524
740,2	777,438
740,6	770,667
741,1	758,867
741,5	757,952
741,9	749,781
742,4	746,638
742,8	746,124
743,2	742,81
743,7	733,981
744,1	736,638
744,5	727,867
745	718,581
745,4	714,838
745,8	711,467
746,3	708,41
746,7	708,638
747,2	696,552
747,6	694,61
748	698,495
748,5	688,124
748,9	675,038
749,3	661,267
749,8	656,21
750,2	653,952
750,6	650,524
751,1	643,981
751,5	640,01
751,9	642,038
752,4	639,267
752,8	635,581
753,3	634,295
753,7	622,381
754,1	617,095
754,6	614,952
755	607,467
755,4	608,752
755,9	604,61
756,3	602,324
756,7	605,438
757,2	598,952
757,6	595,41
758	595,524
758,5	589,124
758,9	584,324
759,3	575,067
759,8	568,41
760,2	563,324
760,6	558,324
761,1	551,495
761,5	550,095
761,9	546,41
762,4	542,181
762,8	536,181
763,3	535,438
763,7	525,324
764,1	526,552
764,6	521,095
765	518,81
765,4	517,81
765,9	516,095
766,3	509,295
766,7	509,838
767,2	501,295
767,6	499,267
768	495,038
768,5	492,667
768,9	496,124
769,3	489,838
769,8	491,695
770,2	487,295
770,6	485,81
771,1	481,21
771,5	475,552
771,9	470,238
772,4	471,724
772,8	467,41
773,2	468,724
773,7	461,124
774,1	459,781
774,5	454,41
775	446,467
775,4	443,524
775,8	439,638
776,3	435,61
776,7	432,667
777,1	428,895
777,6	423,695
778	423,61
778,4	421,495
778,9	415,695
779,3	407,638
779,7	406,038
780,2	408,61
780,6	407,524
781	402,495
781,5	402,438
781,9	405,61
782,3	407,01
782,8	406,61
783,2	396,752
783,6	396,781
784,1	395,581
784,5	390,724
784,9	387,324
785,4	385,638
785,8	379,895
786,2	376,295
786,7	374,724
787,1	369,867
787,5	365,524
788	359,238
788,4	357,41
788,8	349,438
789,3	350,238
789,7	347,381
790,1	341,467
790,6	340,038
791	341,41
791,4	339,638
791,9	341,01
792,3	337,238
792,7	328,952
793,2	332,038
793,6	328,981
794	322,352
794,5	317,695
794,9	319,152
795,3	319,038
795,8	319,581
796,2	314,552
796,6	312,552
797,1	306,867
797,5	305,724
797,9	303,667
798,4	298,152
798,8	295,638
799,2	298,038
799,7	294,21
800,1	296,381
800,5	289,667
801	284,895
801,4	287,581
801,8	284,41
802,2	278,21
802,7	280,352
803,1	279,981
803,5	280,01
804	278,61
804,4	274,267
804,8	276,781
805,3	276,638
805,7	271,181
806,1	264,667
806,6	261,724
807	256,81
807,4	253,01
807,9	251,152
808,3	247,638
808,7	243,524
809,2	248,038
809,6	247,181
810	243,952
810,4	239,752
810,9	231,867
811,3	232,724
811,7	239,61
812,2	233,324
812,6	227,552
813	223,667
813,5	219,152
813,9	223,81
814,3	218,552
814,8	208,724
815,2	210,238
815,6	212,038
816,1	211,724
816,5	218,01
816,9	212,267
817,3	215,81
817,8	214,924
818,2	208,381
818,6	208,067
819,1	213,352
819,5	207,667
819,9	208,181
820,4	202,981
820,8	198,895
821,2	198,981
821,7	198,352
822,1	194,152
822,5	193,638
822,9	193,01
823,4	190,781
823,8	193,324
824,2	193,238
824,7	188,924
825,1	183,21
825,5	183,095
826	183,867
826,4	180,867
826,8	181,895
827,3	182,838
827,7	183,438
828,1	187,152
828,5	180,867
829	174,61
829,4	173,695
829,8	165,21
830,3	160,152
830,7	156,724
831,1	154,21
831,6	159,838
832	162,038
832,4	161,238
832,8	161,638
833,3	160,61
833,7	156,638
834,1	151,924
834,6	146,695
835	145,61
835,4	144,067
835,8	148,724
836,3	145,781
836,7	146,838
837,1	146,695
837,6	145,524
838	143,295
838,4	142,352
838,9	136,067
839,3	141,924
839,7	146,61
840,1	141,524
840,6	142,724
841	141,381
841,4	144,095
841,9	143,581
842,3	137,352
842,7	129,581
843,1	135,095
843,6	134,81
844	133,524
844,4	128,124
844,9	127,381
845,3	126,295
845,7	128,181
846,2	128,038
846,6	126,781
847	126,41
847,4	123,438
847,9	121,895
848,3	124,381
848,7	118,352
849,2	114,752
849,6	110,981
850	108,495
850,4	112,124
850,9	110,495
851,3	106,895
851,7	110,61
852,2	112,352
852,6	110,724
853	107,924
853,4	106,638
853,9	107,695
854,3	108,095
854,7	107,324
855,2	107,267
855,6	105,067
856	105,381
856,4	103,124
856,9	102,152
857,3	96,095
857,7	95,067
858,2	87,867
858,6	88,095
859	86,581
859,4	89,295
859,9	92,581
860,3	90,238
860,7	91,952
861,1	97,095
861,6	98,867
862	98,381
862,4	90,381
862,9	86,924
863,3	87,952
863,7	85,724
864,1	84,324
864,6	83,495
865	85,124
865,4	88,095
865,9	85,752
866,3	87,638
866,7	90,467
867,1	87,867
867,6	85,924
868	89,638
868,4	89,638
868,8	89,038
869,3	90,667
869,7	82,695
870,1	87,21
870,6	85,552
871	74,752
871,4	71,695
871,8	73,552
872,3	70,095
872,7	73,495
873,1	73,067
873,5	74,152
874	74,352
874,4	73,61
874,8	71,61
875,3	72,467
875,7	65,095
876,1	59,21
876,5	56,152
877	58,238
877,4	62,238
877,8	63,01
878,2	61,552
878,7	66,61
879,1	65,467
879,5	65,61
879,9	67,581
880,4	71,238
880,8	69,21
881,2	69,381
881,7	66,667
882,1	66,981
882,5	69,381
882,9	66,638
883,4	60,524
883,8	61,81
884,2	56,381
884,6	58,895
885,1	58,267
885,5	55,438
885,9	58,095
886,3	57,01
886,8	53,952
887,2	53,181
887,6	48,552
888	48,752
888,5	48,952
888,9	48,867
889,3	48,581
889,8	52,01
890,2	54,352
890,6	55,61
891	53,324
891,5	56,581
891,9	54,181
892,3	53,867
892,7	50,267
893,2	53,924
893,6	53,952
894	55,438
894,4	50,895
894,9	48,695
895,3	49,41
895,7	46,867
896,1	44,552
896,6	47,324
897	48,21
897,4	48,695
897,8	50,552
898,3	51,638
898,7	51,952
899,1	52,295
899,5	47,724
900	44,238
900,4	44,524
900,8	44,867
901,2	41,952
901,7	37,552
902,1	38,981
902,5	39,352
902,9	40,21
903,4	41,095
903,8	41,181
904,2	40,724
904,6	45,895
905,1	47,438
905,5	49,21
905,9	48,038
906,3	44,695
906,8	40,01
907,2	39,695
907,6	45,695
908	40,295
908,5	38,695
908,9	42,61
909,3	41,524
909,7	43,152
910,2	48,095
910,6	41,095
911	40,467
911,4	37,438
911,9	29,495
912,3	27,467
912,7	25,781
913,1	20,552
913,6	15,524
914	18,352
914,4	15,981
914,8	20,352
915,3	22,552
915,7	29,181
916,1	32,124
916,5	40,21
916,9	38,752
917,4	45,952
917,8	44,124
918,2	44,61
918,6	40,981
919,1	38,981
919,5	35,038
919,9	33,381
920,3	29,181
920,8	31,124
921,2	31,638
921,6	32,267
922	29,095
922,5	30,581
922,9	29,181
923,3	30,381
923,7	30,01
924,2	31,038
924,6	27,952
925	29,267
925,4	28,581
925,8	35,01
926,3	38,295
926,7	38,41
927,1	35,695
927,5	38,752
928	37,724
928,4	37,695
928,8	31,181
929,2	26,495
929,7	26,895
930,1	26,524
930,5	26,295
930,9	25,952
931,3	25,724
931,8	26,238
932,2	27,752
932,6	22,981
933	21,695
933,5	22,895
933,9	23,61
934,3	23,952
934,7	22,438
935,2	25,324
935,6	29,238
936	27,981
936,4	26,981
936,8	28,61
937,3	25,438
937,7	23,181
938,1	15,867
938,5	9,924
939	12,838
939,4	7,895
939,8	6,838
940,2	4,095
940,6	6,638
941,1	9,21
941,5	14,552
941,9	15,352
942,3	11,61
942,8	12,467
943,2	20,038
943,6	21,01
944	21,267
944,4	24,21
944,9	21,581
945,3	27,295
945,7	24,267
946,1	18,924
946,6	19,552
947	21,81
947,4	16,981
947,8	18,238
948,2	14,095
948,7	11,438
949,1	12,867
949,5	11,495
949,9	8,152
950,3	9,21
950,8	13,267
951,2	12,61
951,6	17,867
952	15,01
952,5	16,924
952,9	15,552
953,3	17,295
953,7	13,152
954,1	18,41
954,6	16,124
955	17,267
955,4	20,981
955,8	28,095
956,2	26,352
956,7	23,61
957,1	21,752
957,5	21,01
957,9	20,924
958,3	17,038
958,8	10,667
959,2	7,581
959,6	7,981
960	11,324
960,5	10,41
960,9	13,067
961,3	13,752
961,7	12,295
962,1	16,41
962,6	16,724
963	14,324
963,4	18,067
963,8	19,152
964,2	20,095
964,7	22,181
965,1	14,381
965,5	17,152
965,9	16,152
966,3	13,067
966,8	9,438
967,2	2,495
967,6	5,61
968	10,01
968,4	9,467
968,9	11,295
969,3	13,467
969,7	15,324
970,1	14,981
970,5	12,552
971	10,952
971,4	8,81
971,8	6,352
972,2	9,067
972,6	3,21
973,1	7,181
973,5	5,152
973,9	7,095
974,3	7,524
974,7	9,152
975,2	7,695
975,6	12,724
976	11,524
976,4	15,181
976,8	17,238
977,3	18,438
977,7	16,61
978,1	9,752
978,5	8,352
978,9	5,381
979,4	4,067
979,8	3,867
980,2	6,267
980,6	8,21
981	7,981
981,5	6,867
981,9	9,61
982,3	11,238
982,7	8,867
983,1	5,781
983,6	6,038
984	8,524
984,4	9,21
984,8	9,781
985,2	9,438
985,6	8,838
986,1	11,524
986,5	5,524
986,9	5,981
987,3	6,381
987,7	8,581
988,2	6,867
988,6	10,724
989	6,895
989,4	15,038
989,8	14,324
990,3	12,381
990,7	14,695
991,1	17,61
991,5	15,81
991,9	15,895
992,3	10,867
992,8	11,924
993,2	15,467
993,6	9,124
994	5,552
994,4	7,41
994,9	6,581
995,3	12,781
995,7	14,238
996,1	14,581
996,5	14,895
996,9	15,895
997,4	13,01
997,8	16,838
998,2	11,41
998,6	10,781
999	10,61
999,5	12,467
999,9	11,838
1000,3	15,238
1000,7	13,181
1001,1	13,324
1001,5	15,638
1002	14,495
1002,4	18,295
1002,8	18,01
1003,2	16,324
1003,6	19,867
1004	23,152
1004,5	18,495
1004,9	20,381
1005,3	15,867
1005,7	14,124
1006,1	14,038
1006,6	8,895
1007	2,267
1007,4	3,181
1007,8	7,781
1008,2	8,295
1008,6	12,295
1009,1	13,724
1009,5	15,581
1009,9	20,152
1010,3	17,638
1010,7	14,438
1011,1	17,152
1011,6	17,724
1012	14,41
1012,4	16,095
1012,8	14,781
1013,2	17,152
1013,6	10,667
1014,1	3,695
1014,5	-0,333
1014,9	0,41
1015,3	-2,39
1015,7	0,781
1016,1	-2,362
1016,6	-2,533
1017	5,124
1017,4	6,695
1017,8	-2,59
1018,2	-1,59
1018,6	-1,705
1019,1	-0,076
1019,5	2,467
1019,9	2,724
1020,3	3,552
1020,7	11,867
1021,1	13,324
1021,6	9,381
1022	12,667
1022,4	14,495
1022,8	9,01
1023,2	8,61
1023,6	7,581
1024,1	1,924
1024,5	4,895
1024,9	5,724
1025,3	5,581
1025,7	11,924
1026,1	14,038
1026,6	20,095
1027	25,981
1027,4	26,752
1027,8	19,695
1028,2	14,495
1028,6	13,438
1029	9,41
1029,5	8,152
1029,9	8,01
1030,3	10,495
1030,7	16,724
1031,1	21,295
1031,5	21,21
1032	20,524
1032,4	18,695
1032,8	17,381
1033,2	14,41
1033,6	12,952
1034	13,581
1034,4	10,124
1034,9	15,01
1035,3	19,124
1035,7	17,638
1036,1	18,781
1036,5	21,41
1036,9	20,724
1037,4	20,467
1037,8	23,124
1038,2	19,352
1038,6	22,038
1039	17,752
1039,4	14,838
1039,8	12,324
1040,3	16,61
1040,7	9,581
1041,1	5,81
1041,5	7,152
1041,9	10,41
1042,3	7,267
1042,7	5,524
1043,2	0,838
1043,6	3,352
1044	5,752
1044,4	-1,505
1044,8	-0,562
1045,2	4,181
1045,6	8,838
1046,1	7,438
1046,5	6,724
1046,9	5,981
1047,3	12,295
1047,7	11,981
1048,1	9,724
1048,5	10,124
1049	16,667
1049,4	16,124
1049,8	17,867
1050,2	15,838
1050,6	14,524
1051	15,61
1051,4	14,781
1051,9	10,895
1052,3	13,61
1052,7	15,381
1053,1	15,924
1053,5	16,81
1053,9	20,352
1054,3	18,895
1054,8	17,752
1055,2	10,867
1055,6	9,295
1056	8,524
1056,4	7,867
1056,8	7,152
1057,2	10,352
1057,6	14,352
1058,1	21,352
1058,5	18,295
1058,9	14,924
1059,3	13,638
1059,7	12,667
1060,1	8,495
1060,5	2,467
1061	0,352
1061,4	10,324
1061,8	17,467
1062,2	14,695
1062,6	16,124
1063	19,01
1063,4	18,324
1063,8	16,752
1064,3	7,867
1064,7	6,952
1065,1	11,724
1065,5	10,581
1065,9	11,81
1066,3	14,552
1066,7	14,41
1067,1	16,895
1067,6	13,038
1068	12,724
1068,4	7,467
1068,8	1,124
1069,2	4,352
1069,6	5,152
1070	7,352
1070,4	10,21
1070,9	7,924
1071,3	15,724
1071,7	21,724
1072,1	21,181
1072,5	22,952
1072,9	17,867
1073,3	16,838
1073,7	18,524
1074,2	15,524
1074,6	8,238
1075	5,924
1075,4	6,695
1075,8	7,695
1076,2	9,81
1076,6	7,295
1077	7,124
1077,5	12,41
1077,9	8,61
1078,3	3,752
1078,7	-3,076
1079,1	-5,533
1079,5	-6,905
1079,9	-6,162
1080,3	-5,276
1080,7	0,438
1081,2	7,381
1081,6	14,924
1082	16,152
1082,4	15,067
1082,8	12,867
1083,2	12,552
1083,6	8,495
1084	3,438
1084,5	4,838
1084,9	-1,076
1085,3	-0,333
1085,7	-0,19
1086,1	-3,819
1086,5	0,838
1086,9	0,01
1087,3	-4,333
1087,7	-0,219
1088,2	2,438
1088,6	6,667
1089	10,581
1089,4	6,01
1089,8	9,41
1090,2	10,61
1090,6	13,495
1091	11,695
1091,4	9,295
1091,9	10,752
1092,3	12,81
1092,7	12,81
1093,1	14,895
1093,5	10,924
1093,9	11,695
1094,3	11,981
1094,7	14,01
1095,1	14,867
1095,5	8,924
1096	6,238
1096,4	5,867
1096,8	3,295
1097,2	2,838
1097,6	0,267
1098	3,552
1098,4	4,667
1098,8	3,667
1099,2	2,124
1099,6	5,438
1100,1	6,524
1100,5	6,524
1100,9	6,324
1101,3	8,81
1101,7	8,81
1102,1	14,724
1102,5	10,924
1102,9	6,124
1103,3	5,067
1103,7	0,552
1104,2	3,124
1104,6	9,352
1105	8,524
1105,4	12,667
1105,8	14,01
1106,2	11,895
1106,6	11,467
1107	8,381
1107,4	4,333
1107,8	1,347
1108,3	-0,783
