Data from Subt2_00073.txt Node
Date: Mon Aug 28 13:28:51 MSK 2023
User: vat
Spectrometer: MAYP114033
Trigger mode: 0
Integration Time (sec): 1,000000E0
Scans to average: 5
Electric dark correction enabled: true
Nonlinearity correction enabled: false
Boxcar width: 3
XAxis mode: Wavelengths
Number of Pixels in Spectrum: 2068
>>>>>Begin Spectral Data<<<<<
199,4	-0,7
199,9	-8,02
200,4	-3,6
200,8	-1,643
201,3	-0,214
201,8	0,786
202,2	0,557
202,7	-0,214
203,2	8,729
203,6	9,414
204,1	7,786
204,6	8,243
205	6,5
205,5	4,9
206	6,557
206,4	4,271
206,9	1,9
207,4	3,957
207,8	2,071
208,3	0,443
208,8	2,186
209,2	1,786
209,7	1,529
210,2	1,871
210,6	0,186
211,1	0,957
211,5	3,643
212	2,471
212,5	2,557
212,9	-0,443
213,4	-0,357
213,9	0,1
214,3	0,643
214,8	4,843
215,3	9,357
215,7	9,814
216,2	14,586
216,7	16,843
217,1	14,243
217,6	10,271
218,1	10,214
218,5	6,557
219	5,357
219,5	3,157
219,9	0,129
220,4	9,671
220,9	12,214
221,3	9,843
221,8	11,071
222,3	15,1
222,7	18,843
223,2	16,071
223,6	7,5
224,1	12,957
224,6	14,786
225	15,014
225,5	9,129
226	4,929
226,4	12,129
226,9	12,871
227,4	15,643
227,8	11,3
228,3	8,129
228,8	11,014
229,2	14,529
229,7	10,1
230,2	15,5
230,6	9,786
231,1	13,414
231,5	22,786
232	27,3
232,5	25,243
232,9	25,957
233,4	21,357
233,9	22,7
234,3	20,7
234,8	16,386
235,3	10,671
235,7	11,5
236,2	9,986
236,7	5,929
237,1	6,871
237,6	6,186
238,1	5,271
238,5	5,729
239	6,129
239,4	7,014
239,9	8,557
240,4	6,271
240,8	8,014
241,3	5,729
241,8	5,729
242,2	2,9
242,7	-0,643
243,2	5,871
243,6	9,129
244,1	7,471
244,6	4,643
245	7,5
245,5	9,414
245,9	18,3
246,4	15,757
246,9	13,3
247,3	15,243
247,8	20,214
248,3	24,643
248,7	24,786
249,2	20,214
249,7	22,5
250,1	19,614
250,6	16,871
251	11,214
251,5	1,471
252	-1,386
252,4	-2,129
252,9	-4,357
253,4	-2,814
253,8	-2,071
254,3	0,814
254,8	4,786
255,2	4,329
255,7	3,7
256,1	-1,014
256,6	-0,614
257,1	-1,757
257,5	-0,529
258	-3,529
258,5	-3,9
258,9	-8,014
259,4	-3,929
259,9	-5,157
260,3	-2,757
260,8	-5,386
261,2	-1,3
261,7	3,471
262,2	9,3
262,6	7,357
263,1	10,357
263,6	5,071
264	6,557
264,5	5,443
264,9	4,271
265,4	1,5
265,9	3,271
266,3	-2,7
266,8	1,757
267,3	3,529
267,7	3,843
268,2	2,014
268,7	3,814
269,1	-2,357
269,6	-0,214
270	-6,557
270,5	-2,9
271	-5,214
271,4	-3,757
271,9	-4,7
272,4	-0,071
272,8	-0,786
273,3	3,871
273,7	-1,957
274,2	-0,243
274,7	0,614
275,1	2,3
275,6	4,586
276,1	5,929
276,5	7,643
277	7,414
277,4	7,329
277,9	3,157
278,4	-2,157
278,8	-4,643
279,3	-1,386
279,8	-2,471
280,2	3,357
280,7	3,471
281,1	2,271
281,6	7,643
282,1	10,614
282,5	11,157
283	11,443
283,4	8,129
283,9	7,243
284,4	8,9
284,8	6,843
285,3	4,471
285,8	-0,186
286,2	-0,443
286,7	-0,071
287,1	0,529
287,6	2,7
288,1	3,586
288,5	6,043
289	6,157
289,5	8,329
289,9	8,7
290,4	7,7
290,8	4,129
291,3	6,586
291,8	3,157
292,2	4,614
292,7	2,843
293,1	-0,843
293,6	-0,329
294,1	0,243
294,5	-0,186
295	-0,214
295,5	3,386
295,9	8,186
296,4	10,471
296,8	11,929
297,3	15,586
297,8	20,186
298,2	22,957
298,7	19,986
299,1	15,471
299,6	14,7
300,1	12,071
300,5	7,014
301	1,614
301,5	0,471
301,9	-2,5
302,4	-3,729
302,8	-2,7
303,3	3,529
303,8	9,843
304,2	10,7
304,7	8,814
305,1	12,014
305,6	15,529
306,1	15,986
306,5	5,843
307	2,871
307,4	-0,043
307,9	-0,043
308,4	-2,814
308,8	-3,5
309,3	-4,529
309,8	2,586
310,2	4,271
310,7	4,586
311,1	6,414
311,6	6,443
312,1	1,786
312,5	4,386
313	4,671
313,4	6,557
313,9	7,357
314,4	7,729
314,8	10,871
315,3	14,414
315,7	12,557
316,2	12,9
316,7	14,729
317,1	10,929
317,6	12,843
318	11,071
318,5	11,386
319	10,557
319,4	9,214
319,9	2,243
320,3	6,271
320,8	2,014
321,3	-1,643
321,7	1,5
322,2	-0,129
322,6	3,757
323,1	4,329
323,6	3,957
324	4,214
324,5	9,986
324,9	7,614
325,4	8,214
325,9	4,643
326,3	8,357
326,8	7,871
327,2	6,014
327,7	1,529
328,2	3,1
328,6	7,014
329,1	1,043
329,5	-0,814
330	3,586
330,5	10,986
330,9	10,7
331,4	5,957
331,8	3,386
332,3	11,043
332,8	10,843
333,2	10,1
333,7	2,557
334,1	0,671
334,6	1,1
335,1	5,671
335,5	2,386
336	6,214
336,4	5,5
336,9	7,329
337,4	12,3
337,8	15,3
338,3	10,786
338,7	9,529
339,2	4,729
339,7	2,586
340,1	4,443
340,6	5,043
341	-1,129
341,5	-1,5
342	0,7
342,4	-4,214
342,9	-1,5
343,3	0,871
343,8	1,157
344,2	6,729
344,7	6,7
345,2	2,071
345,6	7,014
346,1	1,7
346,5	1,329
347	-3,5
347,5	-3,957
347,9	-4,443
348,4	0,929
348,8	3,157
349,3	3,586
349,8	1,557
350,2	8,671
350,7	11,557
351,1	13,071
351,6	14,414
352	16,329
352,5	24,243
353	33,786
353,4	38,614
353,9	48,414
354,3	67,3
354,8	78,043
355,3	102,957
355,7	123,929
356,2	142,986
356,6	173,271
357,1	204,671
357,5	237,586
358	286,129
358,5	328,357
358,9	382,929
359,4	448,386
359,8	514,643
360,3	590,929
360,8	675,414
361,2	769,014
361,7	875,586
362,1	995,529
362,6	1119,929
363	1263,357
363,5	1413,386
364	1571,471
364,4	1738,9
364,9	1903,471
365,3	2066,614
365,8	2238,986
366,3	2382,071
366,7	2514,1
367,2	2631,3
367,6	2727,529
368,1	2804,643
368,5	2858,9
369	2880,786
369,5	2893,586
369,9	2883,9
370,4	2844,271
370,8	2783,471
371,3	2707,129
371,7	2615,814
372,2	2508,843
372,7	2386,729
373,1	2261,871
373,6	2137,243
374	2006,871
374,5	1877,157
374,9	1748,557
375,4	1623,386
375,9	1511,271
376,3	1388,843
376,8	1277,586
377,2	1174,9
377,7	1078,671
378,2	988,786
378,6	907,414
379,1	823,986
379,5	761,129
380	702,014
380,4	646,871
380,9	593,786
381,4	543,5
381,8	499,729
382,3	464,671
382,7	428,729
383,2	392,843
383,6	364,529
384,1	341,843
384,6	319,786
385	298,643
385,5	278,329
385,9	262,043
386,4	252,471
386,8	233,529
387,3	214,729
387,7	200,471
388,2	187,129
388,7	174,014
389,1	157,643
389,6	142,357
390	136,814
390,5	132,014
390,9	121,814
391,4	112,557
391,9	107,757
392,3	108,243
392,8	100,9
393,2	98,186
393,7	90,871
394,1	84,186
394,6	82,614
395,1	80,843
395,5	73,443
396	68,929
396,4	59,043
396,9	57,443
397,3	59,414
397,8	56,443
398,2	45,929
398,7	41,786
399,2	42,586
399,6	45,871
400,1	37,1
400,5	37,214
401	37,471
401,4	40,3
401,9	43,7
402,4	41,329
402,8	40,386
403,3	46,357
403,7	43,214
404,2	39,986
404,6	40,329
405,1	42,271
405,5	46,014
406	47,014
406,5	46,729
406,9	50,529
407,4	52,1
407,8	55,557
408,3	50,471
408,7	49,014
409,2	43,129
409,6	45,071
410,1	40,7
410,6	38,814
411	38,071
411,5	38,7
411,9	36,614
412,4	48,157
412,8	49,186
413,3	52,243
413,7	58,614
414,2	56,357
414,7	58,586
415,1	63,443
415,6	58,871
416	57,871
416,5	67,186
416,9	70,757
417,4	80,671
417,8	83,3
418,3	85,014
418,8	84,7
419,2	87,957
419,7	84,214
420,1	79,957
420,6	78,671
421	85,186
421,5	91,843
421,9	96,671
422,4	100,014
422,8	103,271
423,3	109,929
423,8	110,129
424,2	105,729
424,7	105,671
425,1	102,957
425,6	103,3
426	103,071
426,5	99,129
426,9	98,414
427,4	105,957
427,9	107,129
428,3	111,7
428,8	114,3
429,2	113,071
429,7	118,3
430,1	118,071
430,6	111,386
431	107,871
431,5	108,129
431,9	110,157
432,4	111,271
432,8	112,157
433,3	115,329
433,8	120,729
434,2	129,329
434,7	128,7
435,1	138,214
435,6	143,643
436	148,443
436,5	158,643
436,9	167,7
437,4	171,729
437,8	180,5
438,3	182,414
438,8	191,357
439,2	198,557
439,7	207,957
440,1	214,357
440,6	218,043
441	228,786
441,5	232,129
441,9	242,129
442,4	254,014
442,8	264,357
443,3	273,529
443,7	282,329
444,2	294,357
444,7	310,786
445,1	327,614
445,6	339,471
446	351,7
446,5	367,186
446,9	391,014
447,4	410,1
447,8	430,271
448,3	444,014
448,7	463,757
449,2	480,986
449,6	501,957
450,1	516,643
450,6	539,214
451	553,586
451,5	580,557
451,9	601,9
452,4	622,671
452,8	645,3
453,3	667,386
453,7	685,157
454,2	708,957
454,6	726,5
455,1	750,329
455,5	774,043
456	801,643
456,4	830,214
456,9	860,243
457,3	895,471
457,8	921,7
458,3	946,814
458,7	980,557
459,2	1005,443
459,6	1037,3
460,1	1068,7
460,5	1091,729
461	1129,157
461,4	1163,3
461,9	1194,071
462,3	1229,814
462,8	1264,186
463,2	1294,786
463,7	1330,557
464,1	1363,186
464,6	1400,671
465	1438,186
465,5	1465,386
466	1503,986
466,4	1545,729
466,9	1588,729
467,3	1626,471
467,8	1668,043
468,2	1706,614
468,7	1762,443
469,1	1799,9
469,6	1829,986
470	1873,757
470,5	1913,357
470,9	1951,071
471,4	1991,843
471,8	2023,5
472,3	2063,3
472,7	2112,814
473,2	2147,871
473,6	2186,929
474,1	2224,186
474,5	2262,214
475	2301,843
475,4	2342,129
475,9	2376,071
476,4	2417,357
476,8	2460,671
477,3	2499,414
477,7	2542,5
478,2	2583,443
478,6	2625,471
479,1	2668,129
479,5	2705,157
480	2747,671
480,4	2790,643
480,9	2825,071
481,3	2862,671
481,8	2892,414
482,2	2935,071
482,7	2963,214
483,1	2986,929
483,6	3016,471
484	3047,071
484,5	3074,214
484,9	3104,871
485,4	3124,643
485,8	3165,414
486,3	3194,214
486,7	3222,871
487,2	3252,014
487,6	3273,843
488,1	3298,443
488,5	3317,329
489	3337,3
489,4	3366,471
489,9	3391,214
490,4	3410,129
490,8	3437,786
491,3	3463,843
491,7	3492,643
492,2	3509,043
492,6	3527,986
493,1	3547,3
493,5	3563,957
494	3586,5
494,4	3604,471
494,9	3619,986
495,3	3640,271
495,8	3658,414
496,2	3671,7
496,7	3694,9
497,1	3698,529
497,6	3709,871
498	3729,271
498,5	3741,7
498,9	3752,557
499,4	3761,3
499,8	3771,329
500,3	3791,271
500,7	3805,957
501,2	3809,586
501,6	3817,7
502,1	3828,871
502,5	3844,729
503	3851,329
503,4	3859,786
503,9	3870,443
504,3	3884,7
504,8	3901,5
505,2	3913,643
505,7	3923,843
506,1	3928,271
506,6	3938,757
507	3944,357
507,5	3950,014
507,9	3950,7
508,4	3954,557
508,8	3958,471
509,3	3974,271
509,7	3984,043
510,2	3991,1
510,6	3997,271
511,1	4001,729
511,5	4005,614
512	4013,129
512,4	4019,871
512,9	4025,529
513,3	4031,386
513,8	4038,729
514,2	4048,357
514,7	4057,214
515,1	4062,786
515,6	4067,071
516	4067,729
516,5	4073,757
516,9	4078,929
517,4	4086,729
517,8	4090,586
518,3	4094,557
518,7	4106,186
519,2	4115,929
519,6	4118,757
520,1	4129,3
520,5	4131,329
521	4134,357
521,4	4144,443
521,9	4138,529
522,3	4146,9
522,8	4162,986
523,2	4162,957
523,7	4170,929
524,1	4180,757
524,6	4182,586
525	4193,786
525,5	4197,586
525,9	4198,529
526,4	4205,071
526,8	4215,7
527,3	4219,529
527,7	4235,271
528,2	4241,814
528,6	4252,5
529,1	4257,871
529,5	4272,157
530	4282,814
530,4	4295,443
530,9	4303,471
531,3	4315,129
531,8	4321,071
532,2	4329,929
532,6	4336,643
533,1	4339,614
533,5	4348,043
534	4352,357
534,4	4363,329
534,9	4379,757
535,3	4394,986
535,8	4412,014
536,2	4417,329
536,7	4432,157
537,1	4446,7
537,6	4457,271
538	4465,186
538,5	4482,471
538,9	4487,357
539,4	4505,7
539,8	4514,9
540,3	4524,071
540,7	4534,014
541,2	4545,729
541,6	4552,129
542,1	4559,614
542,5	4567,186
543	4571,357
543,4	4580,557
543,9	4591,357
544,3	4602,071
544,8	4610,014
545,2	4623,643
545,7	4638,1
546,1	4654,529
546,5	4667,557
547	4677,414
547,4	4684,357
547,9	4698,214
548,3	4710,214
548,8	4710,386
549,2	4723,471
549,7	4729,443
550,1	4736,271
550,6	4747,329
551	4757,014
551,5	4763,1
551,9	4778,471
552,4	4781,329
552,8	4794,986
553,3	4806,414
553,7	4816,243
554,2	4823,7
554,6	4840,929
555,1	4857,3
555,5	4868,186
555,9	4873,243
556,4	4883,529
556,8	4893,729
557,3	4897,329
557,7	4901,5
558,2	4910,586
558,6	4918,071
559,1	4928,443
559,5	4938,271
560	4946,786
560,4	4956,443
560,9	4960,586
561,3	4965,214
561,8	4976,329
562,2	4984,186
562,7	4984,871
563,1	4991,643
563,6	4999,3
564	5007,329
564,4	5010,586
564,9	5018,757
565,3	5027,014
565,8	5037,357
566,2	5041,757
566,7	5057,614
567,1	5067,729
567,6	5074,871
568	5072,329
568,5	5069,729
568,9	5074,043
569,4	5073,957
569,8	5067,643
570,3	5067,129
570,7	5070,014
571,1	5073,386
571,6	5085,443
572	5090,414
572,5	5090,414
572,9	5082,071
573,4	5076,471
573,8	5080,129
574,3	5082,186
574,7	5076,014
575,2	5072,614
575,6	5076,614
576,1	5087,1
576,5	5088,243
576,9	5080,957
577,4	5084,671
577,8	5081,871
578,3	5073,957
578,7	5067,586
579,2	5057,3
579,6	5064,786
580,1	5064,043
580,5	5054,186
581	5057,186
581,4	5058,757
581,9	5053,7
582,3	5044,786
582,7	5024,443
583,2	5013,271
583,6	5004,443
584,1	4988,329
584,5	4978,557
585	4965,729
585,4	4963,986
585,9	4959,586
586,3	4946,5
586,8	4939,529
587,2	4936,214
587,6	4929,243
588,1	4935,214
588,5	4928,129
589	4924,243
589,4	4930,386
589,9	4921,786
590,3	4907,471
590,8	4890,071
591,2	4874,9
591,7	4868,471
592,1	4869,471
592,5	4858,329
593	4855,214
593,4	4853,129
593,9	4863,986
594,3	4860,957
594,8	4857,443
595,2	4839,529
595,7	4833,1
596,1	4816,757
596,6	4803,671
597	4790,814
597,4	4777,529
597,9	4762,929
598,3	4759,043
598,8	4747,071
599,2	4747,043
599,7	4746,643
600,1	4737,586
600,6	4734,329
601	4732,614
601,4	4715,157
601,9	4700,271
602,3	4689,129
602,8	4674,643
603,2	4656,214
603,7	4638,9
604,1	4617,7
604,6	4613,3
605	4610,729
605,4	4598,586
605,9	4580,9
606,3	4571,186
606,8	4560,214
607,2	4556,414
607,7	4539,843
608,1	4526,214
608,6	4515,243
609	4510,471
609,4	4499,186
609,9	4485,757
610,3	4470,3
610,8	4457,929
611,2	4439,3
611,7	4421,129
612,1	4398,729
612,6	4379,443
613	4359,443
613,4	4343,1
613,9	4325,329
614,3	4312,871
614,8	4293,9
615,2	4286,243
615,7	4281,929
616,1	4275,529
616,6	4261,157
617	4251,671
617,4	4232,786
617,9	4223,5
618,3	4197,1
618,8	4178,586
619,2	4162,986
619,7	4146,043
620,1	4123,729
620,5	4111,129
621	4093,157
621,4	4088,5
621,9	4067,014
622,3	4049,329
622,8	4030,357
623,2	4018,471
623,6	3994,9
624,1	3979,929
624,5	3951,214
625	3934,986
625,4	3914,071
625,9	3898,557
626,3	3879,643
626,8	3865,043
627,2	3841,9
627,6	3833,1
628,1	3811,1
628,5	3793,329
629	3775,443
629,4	3755,443
629,9	3742,9
630,3	3724,329
630,7	3698,814
631,2	3677,643
631,6	3662,043
632,1	3639,386
632,5	3618,586
633	3594,386
633,4	3578,729
633,8	3565,243
634,3	3551,471
634,7	3531,043
635,2	3509,871
635,6	3497,071
636,1	3480,529
636,5	3462,586
636,9	3445,557
637,4	3429,471
637,8	3411,671
638,3	3396,186
638,7	3374,443
639,2	3354,957
639,6	3340,329
640	3321,7
640,5	3300,271
640,9	3278,443
641,4	3261,5
641,8	3248,986
642,2	3229,386
642,7	3210,614
643,1	3195,557
643,6	3190,1
644	3178,729
644,5	3173,214
644,9	3154,157
645,3	3143,357
645,8	3126,9
646,2	3106,729
646,7	3084,443
647,1	3065,9
647,6	3041,786
648	3025,729
648,4	3007,757
648,9	2993,671
649,3	2983,129
649,8	2963,671
650,2	2954,757
650,6	2946,7
651,1	2930,786
651,5	2918,129
652	2903,586
652,4	2884,329
652,9	2866,3
653,3	2843,729
653,7	2825,643
654,2	2810,986
654,6	2794,9
655,1	2777,729
655,5	2762,471
655,9	2750,386
656,4	2738,043
656,8	2717,357
657,3	2700,614
657,7	2684,843
658,2	2669,357
658,6	2652,7
659	2638,614
659,5	2621,243
659,9	2600,1
660,4	2586,643
660,8	2564,643
661,2	2546,757
661,7	2541,786
662,1	2529,471
662,6	2516,071
663	2510,586
663,4	2493,729
663,9	2480,843
664,3	2466,014
664,8	2443,9
665,2	2423,786
665,6	2403,786
666,1	2385,786
666,5	2370,757
667	2361,614
667,4	2352,3
667,9	2337,414
668,3	2326,671
668,7	2313,243
669,2	2299,014
669,6	2282,7
670,1	2262,671
670,5	2240,557
670,9	2226,186
671,4	2208,443
671,8	2196,329
672,3	2183,614
672,7	2174,014
673,1	2162,729
673,6	2149,529
674	2132,671
674,5	2118,214
674,9	2101,986
675,3	2082,986
675,8	2065,9
676,2	2051,1
676,7	2040,414
677,1	2027,3
677,5	2018,214
678	2006,671
678,4	1996,129
678,9	1984,3
679,3	1971,557
679,7	1959,529
680,2	1945,986
680,6	1936,871
681,1	1926,329
681,5	1912,871
681,9	1898,929
682,4	1889,414
682,8	1878,1
683,3	1872,843
683,7	1856,071
684,1	1842,614
684,6	1831,014
685	1816,357
685,5	1804,9
685,9	1792,043
686,3	1772,1
686,8	1760,443
687,2	1748,357
687,7	1737,871
688,1	1731,443
688,5	1720,157
689	1706,786
689,4	1702,071
689,9	1690,1
690,3	1685,1
690,7	1671,386
691,2	1653,9
691,6	1642,529
692	1629,529
692,5	1618,243
692,9	1603,071
693,4	1585,557
693,8	1581,1
694,2	1578,043
694,7	1570,529
695,1	1567,071
695,6	1559,129
696	1555,986
696,4	1548,671
696,9	1531,957
697,3	1511,386
697,8	1495,243
698,2	1479,471
698,6	1462,443
699,1	1454,871
699,5	1443,014
699,9	1437,643
700,4	1435,043
700,8	1432,043
701,3	1424,929
701,7	1423,214
702,1	1410,014
702,6	1398,529
703	1389,329
703,5	1376,529
703,9	1363,129
704,3	1351,157
704,8	1337,129
705,2	1327,643
705,6	1322,214
706,1	1308,243
706,5	1307,357
707	1303,614
707,4	1298,414
707,8	1284,843
708,3	1277,586
708,7	1265,043
709,2	1261,986
709,6	1249,814
710	1237,529
710,5	1226,871
710,9	1223,014
711,3	1210,786
711,8	1206,157
712,2	1196,557
712,7	1188,186
713,1	1176,986
713,5	1167,157
714	1159,757
714,4	1154,243
714,8	1141,3
715,3	1131,186
715,7	1125,157
716,2	1119,729
716,6	1109,729
717	1098,814
717,5	1087,471
717,9	1085,214
718,3	1076,1
718,8	1068,957
719,2	1057,157
719,7	1053,843
720,1	1047,014
720,5	1041,443
721	1028,471
721,4	1023,014
721,8	1011,929
722,3	1009,386
722,7	1004,357
723,2	1000,5
723,6	994,414
724	985,471
724,5	975,786
724,9	970,071
725,3	961,243
725,8	951,443
726,2	935,757
726,7	933,814
727,1	928,757
727,5	925,043
728	911,386
728,4	904,814
728,8	896,471
729,3	892,414
729,7	882,357
730,1	875,757
730,6	864,957
731	864,814
731,5	855,529
731,9	856,843
732,3	856,814
732,8	852,1
733,2	846,614
733,6	845,443
734,1	840,443
734,5	840,271
734,9	826,671
735,4	823,929
735,8	813,7
736,3	810,643
736,7	804,443
737,1	805,157
737,6	800,043
738	797,471
738,4	786,357
738,9	780,243
739,3	777,643
739,7	770,957
740,2	760,814
740,6	758,557
741,1	751,671
741,5	749,014
741,9	744,243
742,4	735,7
742,8	736,471
743,2	733,414
743,7	719,9
744,1	716,957
744,5	709,1
745	705,471
745,4	701,243
745,8	694,729
746,3	688,7
746,7	683,471
747,2	677,929
747,6	674,614
748	674,071
748,5	670,729
748,9	665,043
749,3	654,957
749,8	657,443
750,2	652,271
750,6	649,271
751,1	642,786
751,5	640,7
751,9	636,586
752,4	638,1
752,8	631,9
753,3	630,529
753,7	623,157
754,1	617,814
754,6	610,957
755	605,529
755,4	603,157
755,9	598,186
756,3	592,443
756,7	593,357
757,2	589,986
757,6	591,186
758	587,871
758,5	581,671
758,9	574,129
759,3	567,386
759,8	559,186
760,2	551,814
760,6	543,871
761,1	540,271
761,5	535,614
761,9	536,5
762,4	532,186
762,8	527,529
763,3	522,329
763,7	515,757
764,1	509,814
764,6	508,471
765	500,357
765,4	500,243
765,9	494,843
766,3	497,1
766,7	495,814
767,2	495,614
767,6	492,014
768	490,7
768,5	489,786
768,9	492,871
769,3	487,214
769,8	485,414
770,2	481,871
770,6	476,757
771,1	473,157
771,5	468,729
771,9	466,043
772,4	463,157
772,8	459,071
773,2	451,814
773,7	446,9
774,1	444,443
774,5	435,957
775	426,186
775,4	423,7
775,8	417,871
776,3	417,929
776,7	414,671
777,1	409,414
777,6	409,243
778	413,186
778,4	414,871
778,9	414,271
779,3	408,357
779,7	403,529
780,2	404,957
780,6	397,129
781	388,671
781,5	380,271
781,9	377,843
782,3	377,9
782,8	383,443
783,2	380,5
783,6	385,986
784,1	384,5
784,5	383,957
784,9	381,986
785,4	376,729
785,8	370,1
786,2	365,214
786,7	360,243
787,1	359,557
787,5	354,643
788	349,271
788,4	346,271
788,8	342,729
789,3	339,443
789,7	339,3
790,1	337,157
790,6	336,471
791	338,357
791,4	339,614
791,9	335,443
792,3	331,243
792,7	323,843
793,2	321,1
793,6	317,5
794	310,7
794,5	304,614
794,9	305,871
795,3	308,557
795,8	311,986
796,2	309,929
796,6	309,529
797,1	303,643
797,5	307,5
797,9	306,271
798,4	298,643
798,8	291,843
799,2	291,5
799,7	287,243
800,1	288,986
800,5	284,357
801	282,129
801,4	288,243
801,8	284,729
802,2	280,7
802,7	284,7
803,1	283,643
803,5	279,871
804	271,957
804,4	266,014
804,8	266,243
805,3	269,014
805,7	263,643
806,1	262,843
806,6	258,5
807	256,786
807,4	252,271
807,9	248,186
808,3	236,9
808,7	232,386
809,2	231,214
809,6	233,786
810	235,129
810,4	234,014
810,9	231,1
811,3	234,271
811,7	236,329
812,2	231,214
812,6	225,786
813	222,014
813,5	216,929
813,9	222,614
814,3	219,929
814,8	214,5
815,2	213,7
815,6	213,614
816,1	207,843
816,5	210,929
816,9	201,243
817,3	200,929
817,8	200,043
818,2	198,071
818,6	198,386
819,1	202,214
819,5	198,357
819,9	200,671
820,4	197,757
820,8	191,814
821,2	191,3
821,7	187,329
822,1	183,557
822,5	181,586
822,9	179,957
823,4	183,014
823,8	185,243
824,2	187,814
824,7	189,414
825,1	186,614
825,5	185,186
826	184,643
826,4	180,043
826,8	181,786
827,3	175,014
827,7	170,671
828,1	174,614
828,5	173,671
829	172,071
829,4	165,671
829,8	161,814
830,3	161,986
830,7	162,529
831,1	157,329
831,6	159,986
832	159,3
832,4	161,357
832,8	156,443
833,3	155,271
833,7	147,386
834,1	150,443
834,6	145,471
835	144,157
835,4	140,957
835,8	141,386
836,3	140,271
836,7	145,271
837,1	139,871
837,6	136,9
838	135,357
838,4	136,614
838,9	136,7
839,3	137,957
839,7	138,586
840,1	136,443
840,6	138,414
841	137,986
841,4	137,414
841,9	136,043
842,3	133,986
842,7	128,871
843,1	131,3
843,6	128,329
844	125,986
844,4	124,186
844,9	120,243
845,3	121,157
845,7	121,529
846,2	121,386
846,6	121,929
847	120,814
847,4	116,614
847,9	116,957
848,3	112,357
848,7	113,671
849,2	111,929
849,6	111,329
850	112,386
850,4	113,214
850,9	110,757
851,3	109,443
851,7	104,1
852,2	103,643
852,6	102,414
853	95,129
853,4	93,3
853,9	93,729
854,3	93,757
854,7	95,557
855,2	95,7
855,6	96,757
856	99,643
856,4	102,9
856,9	106,729
857,3	101,129
857,7	99,243
858,2	94,357
858,6	89,357
859	87,243
859,4	86,871
859,9	84,871
860,3	87,757
860,7	87,3
861,1	92,957
861,6	96,043
862	97,214
862,4	92,786
862,9	94,986
863,3	91,129
863,7	93,9
864,1	87,471
864,6	84,614
865	83,071
865,4	86,7
865,9	79,986
866,3	81,243
866,7	77,9
867,1	76,7
867,6	79,529
868	81,271
868,4	76,5
868,8	76,757
869,3	80,357
869,7	80,957
870,1	82,243
870,6	74,729
871	94,386
871,4	93,186
871,8	94,957
872,3	91,014
872,7	92,071
873,1	91,214
873,5	95,614
874	69,357
874,4	66,186
874,8	64,386
875,3	65,471
875,7	59,043
876,1	56,843
876,5	54,3
877	58,7
877,4	64,014
877,8	65,843
878,2	58,9
878,7	60,557
879,1	60,929
879,5	61,243
879,9	61,786
880,4	58,214
880,8	55,529
881,2	60,7
881,7	59,1
882,1	58,5
882,5	57,157
882,9	56,471
883,4	59,329
883,8	56,129
884,2	52,7
884,6	55,386
885,1	54,843
885,5	53,386
885,9	54,729
886,3	53,786
886,8	56,929
887,2	53,357
887,6	46,9
888	46,014
888,5	47,1
888,9	41,843
889,3	38,843
889,8	38,471
890,2	40,3
890,6	44,871
891	43,586
891,5	42,643
891,9	45,643
892,3	46,986
892,7	46,557
893,2	50,157
893,6	47,414
894	47,329
894,4	48,1
894,9	44,757
895,3	45,786
895,7	44,757
896,1	42,243
896,6	44,386
897	44,557
897,4	43,443
897,8	44,529
898,3	44,814
898,7	42,871
899,1	43,129
899,5	41,357
900	42,129
900,4	42,986
900,8	39,957
901,2	35,014
901,7	32,243
902,1	38,186
902,5	34,757
902,9	32,186
903,4	31,157
903,8	33,3
904,2	32,129
904,6	34,586
905,1	32,157
905,5	39,471
905,9	42,271
906,3	40,757
906,8	40,329
907,2	40,329
907,6	42,986
908	35,929
908,5	30,214
908,9	29,586
909,3	30,757
909,7	30,186
910,2	34,957
910,6	29,643
911	28,786
911,4	26,186
911,9	24,071
912,3	22,729
912,7	21,671
913,1	17,3
913,6	17,5
914	21,843
914,4	20,243
914,8	22,386
915,3	22,529
915,7	24,186
916,1	27,186
916,5	31,471
916,9	29,3
917,4	35,5
917,8	36,014
918,2	37,357
918,6	37,014
919,1	35,071
919,5	35,414
919,9	37,557
920,3	33,929
920,8	35,271
921,2	31,157
921,6	31,386
922	31,843
922,5	26,5
922,9	26,3
923,3	28,957
923,7	25,757
924,2	29,814
924,6	29,586
925	27,471
925,4	33,071
925,8	33,329
926,3	36,786
926,7	33,786
927,1	29,871
927,5	29,671
928	27,586
928,4	24,814
928,8	24,386
929,2	20,671
929,7	26,043
930,1	29,643
930,5	31,586
930,9	32,7
931,3	29,671
931,8	27,329
932,2	27,357
932,6	25,129
933	22,014
933,5	21,1
933,9	22,471
934,3	22,443
934,7	20,814
935,2	22,129
935,6	23,643
936	21,671
936,4	18,929
936,8	18,186
937,3	17,643
937,7	17,329
938,1	8,043
938,5	2,471
939	5,643
939,4	7,386
939,8	9,671
940,2	13,757
940,6	14,386
941,1	21,214
941,5	25,643
941,9	29,443
942,3	25,043
942,8	23,471
943,2	22,757
943,6	25,814
944	23,871
944,4	24,586
944,9	21,1
945,3	20,3
945,7	21,271
946,1	19,271
946,6	14,986
947	15,214
947,4	9,871
947,8	11,871
948,2	12,9
948,7	8,814
949,1	12,1
949,5	14,271
949,9	14,157
950,3	15,329
950,8	15,5
951,2	17,557
951,6	15,214
952	10,014
952,5	8,5
952,9	8,357
953,3	8,586
953,7	7,671
954,1	6,129
954,6	8,586
955	9,786
955,4	14,414
955,8	19,929
956,2	22,214
956,7	20,529
957,1	19,757
957,5	19,557
957,9	21,814
958,3	15,929
958,8	11,186
959,2	14,329
959,6	10,271
960	11,186
960,5	9,214
960,9	10,614
961,3	11,043
961,7	9,529
962,1	7,329
962,6	9,414
963	9,843
963,4	12,7
963,8	12,129
964,2	16,157
964,7	19,157
965,1	12,643
965,5	14,1
965,9	16,071
966,3	16,1
966,8	15,843
967,2	9,957
967,6	7,757
968	9,386
968,4	8,929
968,9	8,157
969,3	8,871
969,7	3,471
970,1	4,757
970,5	4,357
971	4,157
971,4	2,129
971,8	-1,529
972,2	-1,643
972,6	1,929
973,1	5,1
973,5	4,443
973,9	8,5
974,3	8,386
974,7	11,643
975,2	8,529
975,6	9,7
976	7,786
976,4	11,186
976,8	9,786
977,3	13,014
977,7	8,557
978,1	9,929
978,5	6,471
978,9	5,386
979,4	3,1
979,8	0,986
980,2	-3,786
980,6	-2,557
981	-0,043
981,5	3,329
981,9	3,443
982,3	2,643
982,7	4,043
983,1	6,986
983,6	10,471
984	8,3
984,4	6,957
984,8	9,043
985,2	9,586
985,6	7,529
986,1	8,243
986,5	4,7
986,9	5,471
987,3	2,729
987,7	0,214
988,2	2,243
988,6	5,7
989	5,443
989,4	9,9
989,8	5,443
990,3	3,7
990,7	10,357
991,1	9,986
991,5	6,357
991,9	2,643
992,3	-0,786
992,8	4,529
993,2	9,671
993,6	5,329
994	2,643
994,4	10,614
994,9	16,614
995,3	19,129
995,7	14,529
996,1	12,243
996,5	9,357
996,9	9,814
997,4	3,957
997,8	3,071
998,2	1,071
998,6	4,357
999	7,214
999,5	9,843
999,9	10,243
1000,3	12,729
1000,7	12,986
1001,1	12,329
1001,5	17,586
1002	16,386
1002,4	17,614
1002,8	18,814
1003,2	16,986
1003,6	14,443
1004	14,7
1004,5	4,671
1004,9	4,129
1005,3	0,3
1005,7	-0,614
1006,1	1,386
1006,6	-0,129
1007	-1,357
1007,4	3,557
1007,8	5,9
1008,2	6,329
1008,6	4,586
1009,1	3,957
1009,5	3,357
1009,9	4,471
1010,3	3,929
1010,7	3,786
1011,1	6,986
1011,6	9,243
1012	4,986
1012,4	8,614
1012,8	9,529
1013,2	10,3
1013,6	9,443
1014,1	3,929
1014,5	3,443
1014,9	3,186
1015,3	0,329
1015,7	2,014
1016,1	-1,7
1016,6	-7,671
1017	-3,586
1017,4	-5,529
1017,8	-6,271
1018,2	-6,214
1018,6	-9,1
1019,1	-3,414
1019,5	-0,071
1019,9	0,414
1020,3	4,614
1020,7	6,643
1021,1	9,586
1021,6	6,529
1022	5,729
1022,4	9,3
1022,8	5,386
1023,2	1,529
1023,6	-0,3
1024,1	-2,586
1024,5	-0,3
1024,9	-1,843
1025,3	-4,157
1025,7	1,357
1026,1	5,986
1026,6	12,014
1027	14,729
1027,4	20,929
1027,8	19,814
1028,2	19,757
1028,6	20,7
1029	17,643
1029,5	15,243
1029,9	16,414
1030,3	16,243
1030,7	17,643
1031,1	16,3
1031,5	17,357
1032	14,357
1032,4	16,529
1032,8	12,986
1033,2	9,357
1033,6	9,214
1034	10,814
1034,4	5,386
1034,9	10,929
1035,3	12,5
1035,7	8,757
1036,1	9,043
1036,5	9,443
1036,9	10,3
1037,4	14,1
1037,8	12,071
1038,2	5,214
1038,6	10,843
1039	11,1
1039,4	14,443
1039,8	13,386
1040,3	10,043
1040,7	8,214
1041,1	9,471
1041,5	8,843
1041,9	4,643
1042,3	0,843
1042,7	-2,529
1043,2	2,9
1043,6	6,129
1044	10,271
1044,4	13,186
1044,8	16,614
1045,2	18,043
1045,6	18,471
1046,1	13,271
1046,5	10,471
1046,9	8,071
1047,3	9,214
1047,7	8,871
1048,1	5,786
1048,5	9,929
1049	13,586
1049,4	17,9
1049,8	14,129
1050,2	8,871
1050,6	10,329
1051	10,014
1051,4	4,243
1051,9	-2,3
1052,3	-5,729
1052,7	-2,729
1053,1	-1,414
1053,5	-3,586
1053,9	-2,043
1054,3	-2,043
1054,8	0,671
1055,2	-1,729
1055,6	-0,157
1056	-1,957
1056,4	-0,643
1056,8	1,529
1057,2	10,671
1057,6	12,557
1058,1	15,843
1058,5	10,643
1058,9	8,443
1059,3	10,443
1059,7	10,586
1060,1	3,243
1060,5	1,957
1061	0,129
1061,4	3,643
1061,8	7,386
1062,2	2,871
1062,6	6,871
1063	9,329
1063,4	11,957
1063,8	13,729
1064,3	15,757
1064,7	16,414
1065,1	21,243
1065,5	18,1
1065,9	20,071
1066,3	16,414
1066,7	10,271
1067,1	5,643
1067,6	5,271
1068	3,1
1068,4	-0,757
1068,8	-4,7
1069,2	-3,443
1069,6	0,471
1070	7,986
1070,4	7,557
1070,9	9,957
1071,3	14,5
1071,7	19,586
1072,1	18,129
1072,5	21,7
1072,9	14,843
1073,3	19,5
1073,7	19,3
1074,2	16,814
1074,6	10,671
1075	11,986
1075,4	9,729
1075,8	11,957
1076,2	6,786
1076,6	5,614
1077	1,557
1077,5	5,7
1077,9	5,243
1078,3	4,614
1078,7	3,071
1079,1	5,443
1079,5	-0,3
1079,9	2,5
1080,3	1,014
1080,7	6,671
1081,2	7,529
1081,6	5,1
1082	6,929
1082,4	6,614
1082,8	5,357
1083,2	6,129
1083,6	-0,271
1084	1,586
1084,5	4,443
1084,9	-1,271
1085,3	1,243
1085,7	3,7
1086,1	0,071
1086,5	-0,557
1086,9	-4,9
1087,3	-5,671
1087,7	-5,471
1088,2	0,214
1088,6	1,3
1089	1,671
1089,4	3,1
1089,8	5,043
1090,2	2,7
1090,6	5,614
1091	1,671
1091,4	1,214
1091,9	4,157
1092,3	7,271
1092,7	8,786
1093,1	10,3
1093,5	9,871
1093,9	8,729
1094,3	7,186
1094,7	4,986
1095,1	1,871
1095,5	-4,386
1096	-1,1
1096,4	-4,329
1096,8	-3,5
1097,2	-2,386
1097,6	0,443
1098	1,329
1098,4	4,643
1098,8	6,643
1099,2	5,529
1099,6	4,614
1100,1	6,557
1100,5	5,3
1100,9	7,957
1101,3	11,5
1101,7	4,243
1102,1	9,757
1102,5	6,7
1102,9	-2,271
1103,3	-1,986
1103,7	-3,271
1104,2	-4,5
1104,6	4,814
1105	4,043
1105,4	8,957
1105,8	14,557
1106,2	13,557
1106,6	11,471
1107	9,671
1107,4	4,633
1107,8	2,06
1108,3	-0,15
