Data from Subt2_00104.txt Node
Date: Mon Aug 28 13:37:56 MSK 2023
User: vat
Spectrometer: MAYP114033
Trigger mode: 0
Integration Time (sec): 1,000000E0
Scans to average: 5
Electric dark correction enabled: true
Nonlinearity correction enabled: false
Boxcar width: 3
XAxis mode: Wavelengths
Number of Pixels in Spectrum: 2068
>>>>>Begin Spectral Data<<<<<
199,4	-1,617
199,9	-3,687
200,4	-0,2
200,8	2,976
201,3	5,919
201,8	7,262
202,2	10,833
202,7	9,348
203,2	13,776
203,6	13,605
204,1	11,09
204,6	8,433
205	6,29
205,5	3,462
206	5,548
206,4	2,633
206,9	2,09
207,4	1,205
207,8	4,519
208,3	8,662
208,8	6,89
209,2	13,119
209,7	17,205
210,2	21,319
210,6	21,948
211,1	22,605
211,5	20,662
212	22,548
212,5	15,29
212,9	12,119
213,4	10,976
213,9	14,119
214,3	13,205
214,8	15,319
215,3	16,633
215,7	15,976
216,2	20,805
216,7	22,205
217,1	17,548
217,6	16,605
218,1	15,719
218,5	12,719
219	14,205
219,5	16,319
219,9	10,89
220,4	14,29
220,9	14,176
221,3	12,262
221,8	11,805
222,3	15,519
222,7	12,548
223,2	10,519
223,6	10,433
224,1	15,062
224,6	19,005
225	20,09
225,5	15,319
226	7,862
226,4	13,89
226,9	14,862
227,4	13,348
227,8	10,662
228,3	11,205
228,8	13,462
229,2	18,09
229,7	18,29
230,2	20,862
230,6	18,633
231,1	17,833
231,5	21,519
232	24,033
232,5	23,119
232,9	23,033
233,4	17,462
233,9	19,262
234,3	21,176
234,8	21,662
235,3	19,948
235,7	20,805
236,2	16,09
236,7	14,576
237,1	13,948
237,6	14,919
238,1	13,176
238,5	13,519
239	11,69
239,4	13,948
239,9	16,49
240,4	14,176
240,8	15,576
241,3	15,148
241,8	13,89
242,2	13,319
242,7	12,148
243,2	15,148
243,6	19,09
244,1	18,033
244,6	17,805
245	17,976
245,5	21,576
245,9	23,176
246,4	21,89
246,9	17,976
247,3	17,719
247,8	15,719
248,3	17,776
248,7	16,605
249,2	14,89
249,7	14,205
250,1	13,862
250,6	9,633
251	7,148
251,5	4,576
252	4,376
252,4	2,462
252,9	6,319
253,4	8,376
253,8	8,69
254,3	9,662
254,8	12,176
255,2	13,119
255,7	14,376
256,1	8,519
256,6	7,633
257,1	10,976
257,5	11,233
258	7,09
258,5	6,833
258,9	7,405
259,4	9,033
259,9	4,233
260,3	0,119
260,8	3,548
261,2	11,148
261,7	12,548
262,2	13,348
262,6	15,605
263,1	21,405
263,6	22,948
264	21,548
264,5	17,633
264,9	17,662
265,4	17,976
265,9	15,976
266,3	13,576
266,8	16,29
267,3	16,376
267,7	17,919
268,2	16,662
268,7	16,062
269,1	12,262
269,6	9,49
270	4,033
270,5	10,29
271	5,662
271,4	3,233
271,9	0,376
272,4	2,576
272,8	7,148
273,3	8,862
273,7	3,49
274,2	2,576
274,7	5,748
275,1	11,29
275,6	14,062
276,1	13,862
276,5	17,348
277	16,576
277,4	21,605
277,9	18,662
278,4	13,862
278,8	13,262
279,3	11,862
279,8	13,348
280,2	17,176
280,7	15,033
281,1	10,833
281,6	13,29
282,1	12,69
282,5	13,919
283	8,748
283,4	7,748
283,9	7,605
284,4	11,29
284,8	9,976
285,3	7,976
285,8	6,776
286,2	9,433
286,7	8,576
287,1	5,776
287,6	7,49
288,1	6,89
288,5	9,119
289	8,519
289,5	6,89
289,9	1,262
290,4	2,462
290,8	3,833
291,3	9,576
291,8	6,748
292,2	8,233
292,7	9,519
293,1	16,49
293,6	16,976
294,1	16,09
294,5	13,862
295	15,262
295,5	16,548
295,9	20,233
296,4	15,433
296,8	16,033
297,3	15,576
297,8	17,09
298,2	15,805
298,7	17,376
299,1	12,89
299,6	17,976
300,1	19,376
300,5	18,748
301	16,976
301,5	21,376
301,9	16,462
302,4	15,576
302,8	17,205
303,3	22,319
303,8	24,719
304,2	23,976
304,7	22,005
305,1	21,748
305,6	19,833
306,1	13,833
306,5	5,69
307	1,805
307,4	-1,624
307,9	-4,224
308,4	-2,852
308,8	0,319
309,3	2,919
309,8	4,69
310,2	4,748
310,7	7,662
311,1	11,348
311,6	12,405
312,1	9,262
312,5	10,205
313	13,519
313,4	18,776
313,9	17,519
314,4	13,919
314,8	13,662
315,3	20,433
315,7	22,262
316,2	16,433
316,7	16,033
317,1	13,805
317,6	11,976
318	12,376
318,5	8,49
319	4,376
319,4	9,176
319,9	5,005
320,3	9,776
320,8	13,405
321,3	11,262
321,7	14,433
322,2	12,005
322,6	10,319
323,1	10,119
323,6	7,548
324	5,605
324,5	9,89
324,9	12,948
325,4	16,405
325,9	15,176
326,3	17,205
326,8	19,348
327,2	22,005
327,7	18,748
328,2	14,29
328,6	17,633
329,1	15,69
329,5	15,833
330	15,576
330,5	17,405
330,9	20,119
331,4	19,919
331,8	13,119
332,3	19,119
332,8	20,833
333,2	17,662
333,7	11,462
334,1	3,976
334,6	3,262
335,1	6,176
335,5	0,033
336	-0,91
336,4	3,576
336,9	4,89
337,4	8,033
337,8	10,49
338,3	14,262
338,7	15,976
339,2	9,576
339,7	9,69
340,1	8,948
340,6	9,948
341	7,576
341,5	3,833
342	5,119
342,4	4,148
342,9	2,176
343,3	7,805
343,8	12,262
344,2	10,833
344,7	12,976
345,2	11,319
345,6	18,919
346,1	19,176
346,5	16,976
347	11,376
347,5	14,69
347,9	11,062
348,4	12,548
348,8	10,919
349,3	9,719
349,8	11,176
350,2	18,29
350,7	18,062
351,1	22,348
351,6	24,205
352	25,776
352,5	36,005
353	42,462
353,4	45,805
353,9	57,576
354,3	70,119
354,8	75,062
355,3	90,633
355,7	103,005
356,2	120,948
356,6	138,262
357,1	156,119
357,5	178,119
358	219,719
358,5	252,805
358,9	290,948
359,4	337,405
359,8	390,49
360,3	447,205
360,8	511,833
361,2	579,89
361,7	662,033
362,1	747,262
362,6	837,233
363	940,862
363,5	1052,89
364	1168,319
364,4	1285,09
364,9	1397,376
365,3	1514,062
365,8	1634,662
366,3	1735,89
366,7	1821,89
367,2	1905,633
367,6	1970,69
368,1	2024,69
368,5	2058,262
369	2066,89
369,5	2065,405
369,9	2059,233
370,4	2023,89
370,8	1975,519
371,3	1920,948
371,7	1854,09
372,2	1778,262
372,7	1694,462
373,1	1605,119
373,6	1512,976
374	1424,376
374,5	1325,205
374,9	1236,233
375,4	1149,348
375,9	1072,176
376,3	980,948
376,8	902,576
377,2	828,348
377,7	771,033
378,2	708,176
378,6	649,89
379,1	586,919
379,5	544,262
380	502,262
380,4	464,748
380,9	422,119
381,4	387,262
381,8	354,062
382,3	332,062
382,7	308,033
383,2	283,462
383,6	262,805
384,1	247,176
384,6	231,805
385	221,662
385,5	208,605
385,9	199,033
386,4	192,233
386,8	182,09
387,3	170,09
387,7	157,462
388,2	145,519
388,7	135,719
389,1	124,148
389,6	115,119
390	108,519
390,5	102,576
390,9	98,29
391,4	89,205
391,9	88,319
392,3	89,119
392,8	84,548
393,2	82,262
393,7	79,89
394,1	74,262
394,6	77,748
395,1	76,462
395,5	73,948
396	75,148
396,4	68,176
396,9	64,662
397,3	64,833
397,8	56,719
398,2	51,09
398,7	46,805
399,2	41,69
399,6	47,262
400,1	43,205
400,5	42,719
401	50,833
401,4	47,919
401,9	47,319
402,4	43,862
402,8	42,29
403,3	45,748
403,7	46,462
404,2	40,462
404,6	41,719
405,1	44,548
405,5	47,29
406	45,148
406,5	44,519
406,9	49,376
407,4	50,176
407,8	52,176
408,3	46,833
408,7	49,69
409,2	52,49
409,6	53,09
410,1	52,462
410,6	53,605
411	54,49
411,5	53,376
411,9	51,348
412,4	56,405
412,8	58,29
413,3	59,005
413,7	62,09
414,2	63,69
414,7	70,119
415,1	77,433
415,6	71,833
416	74,548
416,5	83,09
416,9	87,662
417,4	91,119
417,8	95,805
418,3	91,833
418,8	100,548
419,2	102,833
419,7	101,09
420,1	100,033
420,6	106,719
421	112,176
421,5	119,205
421,9	115,205
422,4	116,005
422,8	113,005
423,3	114,633
423,8	107,548
424,2	103,033
424,7	103,176
425,1	104,062
425,6	107,49
426	108,09
426,5	109,919
426,9	113,348
427,4	118,576
427,9	121,119
428,3	123,205
428,8	121,919
429,2	125,748
429,7	125,976
430,1	125,033
430,6	121,062
431	119,776
431,5	119,919
431,9	120,148
432,4	119,89
432,8	125,062
433,3	127,548
433,8	130,776
434,2	135,633
434,7	137,833
435,1	149,005
435,6	148,805
436	149,919
436,5	153,348
436,9	161,948
437,4	165,119
437,8	171,262
438,3	174,262
438,8	185,29
439,2	194,033
439,7	206,348
440,1	209,49
440,6	219,176
441	234,662
441,5	243,49
441,9	250,719
442,4	259,862
442,8	270,005
443,3	286,233
443,7	295,119
444,2	301,748
444,7	314,862
445,1	329,176
445,6	337,748
446	352,548
446,5	363,833
446,9	382,433
447,4	398,005
447,8	412,805
448,3	432,548
448,7	453,49
449,2	468,148
449,6	484,433
450,1	497,776
450,6	524,433
451	545,033
451,5	568,633
451,9	590,176
452,4	611,319
452,8	632,348
453,3	657,205
453,7	674,348
454,2	690,348
454,6	706,833
455,1	732,776
455,5	756,49
456	785,948
456,4	807,805
456,9	832,576
457,3	865,748
457,8	896,148
458,3	920,748
458,7	951,119
459,2	977,519
459,6	1007,576
460,1	1040,062
460,5	1065,062
461	1093,176
461,4	1124,519
461,9	1157,976
462,3	1196,319
462,8	1232,633
463,2	1265,69
463,7	1305,462
464,1	1343,119
464,6	1381,719
465	1417,348
465,5	1448,49
466	1494,062
466,4	1535,519
466,9	1567,719
467,3	1606,405
467,8	1648,062
468,2	1684,519
468,7	1730,548
469,1	1762,519
469,6	1794,748
470	1845,148
470,5	1880,89
470,9	1916,69
471,4	1960,119
471,8	1992,662
472,3	2028,605
472,7	2071,776
473,2	2102,776
473,6	2147,376
474,1	2185,748
474,5	2221,348
475	2257,005
475,4	2295,633
475,9	2331,176
476,4	2377,062
476,8	2413,662
477,3	2449,805
477,7	2492,148
478,2	2538,919
478,6	2576,605
479,1	2616,976
479,5	2652,433
480	2688,89
480,4	2731,548
480,9	2766,69
481,3	2794,633
481,8	2829,605
482,2	2860,805
482,7	2891,519
483,1	2918,519
483,6	2944,233
484	2973,605
484,5	3012,633
484,9	3042,376
485,4	3075,433
485,8	3102,719
486,3	3131,833
486,7	3157,748
487,2	3186,405
487,6	3203,29
488,1	3228,748
488,5	3252,119
489	3274,89
489,4	3302,319
489,9	3326,89
490,4	3349,29
490,8	3374,119
491,3	3395,405
491,7	3415,748
492,2	3437,976
492,6	3455,919
493,1	3480,605
493,5	3494,176
494	3515,262
494,4	3532,033
494,9	3543,976
495,3	3557,405
495,8	3571,805
496,2	3579,833
496,7	3605,462
497,1	3608,033
497,6	3627,376
498	3645,976
498,5	3663,49
498,9	3678,176
499,4	3696,319
499,8	3699,433
500,3	3722,548
500,7	3729,976
501,2	3740,748
501,6	3750,69
502,1	3760,49
502,5	3756,462
503	3765,833
503,4	3769,576
503,9	3782,976
504,3	3789,519
504,8	3793,976
505,2	3800,89
505,7	3821,062
506,1	3824,09
506,6	3830,976
507	3836,633
507,5	3838,919
507,9	3844,576
508,4	3854,776
508,8	3863,119
509,3	3875,462
509,7	3876,976
510,2	3881,605
510,6	3889,262
511,1	3894,862
511,5	3892,633
512	3895,548
512,4	3901,119
512,9	3913,29
513,3	3915,119
513,8	3926,29
514,2	3937,919
514,7	3948,062
515,1	3954,262
515,6	3952,976
516	3955,09
516,5	3962,176
516,9	3963,89
517,4	3963,833
517,8	3965,719
518,3	3966,376
518,7	3975,976
519,2	3986,776
519,6	3987,89
520,1	3994,148
520,5	3997,148
521	4006,519
521,4	4009,748
521,9	4014,233
522,3	4014,748
522,8	4018,376
523,2	4023,233
523,7	4033,748
524,1	4035,862
524,6	4038,776
525	4044,462
525,5	4053,148
525,9	4068,176
526,4	4068,748
526,8	4071,405
527,3	4078,548
527,7	4096,119
528,2	4098,776
528,6	4108,833
529,1	4111,262
529,5	4126,69
530	4139,033
530,4	4147,805
530,9	4147,548
531,3	4159,576
531,8	4163,348
532,2	4171,09
532,6	4174,319
533,1	4176,319
533,5	4181,033
534	4188,005
534,4	4195,719
534,9	4201,662
535,3	4217,376
535,8	4230,148
536,2	4240,605
536,7	4247,433
537,1	4258,605
537,6	4263,519
538	4278,748
538,5	4282,776
538,9	4285,662
539,4	4293,519
539,8	4304,033
540,3	4311,748
540,7	4325,948
541,2	4331,29
541,6	4338,205
542,1	4348,69
542,5	4360,119
543	4370,805
543,4	4379,205
543,9	4389,833
544,3	4398,119
544,8	4404,09
545,2	4413,89
545,7	4421,862
546,1	4431,605
546,5	4438,319
547	4444,233
547,4	4452,376
547,9	4462,805
548,3	4468,976
548,8	4472,405
549,2	4482,119
549,7	4498,605
550,1	4502,89
550,6	4507,348
551	4517,348
551,5	4526,69
551,9	4540,633
552,4	4544,205
552,8	4548,919
553,3	4560,348
553,7	4574,348
554,2	4584,09
554,6	4587,062
555,1	4587,633
555,5	4600,576
555,9	4606,919
556,4	4611,29
556,8	4617,633
557,3	4622,519
557,7	4638,405
558,2	4649,462
558,6	4648,033
559,1	4655,29
559,5	4665,09
560	4667,805
560,4	4674,262
560,9	4673,662
561,3	4674,776
561,8	4685,119
562,2	4690,719
562,7	4692,576
563,1	4702,462
563,6	4703,405
564	4714,576
564,4	4725,519
564,9	4731,576
565,3	4738,719
565,8	4746,833
566,2	4746,29
566,7	4758,376
567,1	4763,462
567,6	4775,062
568	4774,233
568,5	4777,29
568,9	4778,862
569,4	4781,119
569,8	4781,433
570,3	4779,919
570,7	4776,062
571,1	4787,605
571,6	4785,576
572	4792,576
572,5	4795,49
572,9	4795,69
573,4	4792,262
573,8	4792,662
574,3	4789,262
574,7	4787,633
575,2	4784,033
575,6	4790,69
576,1	4793,89
576,5	4800,548
576,9	4793,205
577,4	4790,148
577,8	4791,69
578,3	4783,548
578,7	4772,119
579,2	4764,548
579,6	4762,29
580,1	4761,405
580,5	4760,09
581	4757,69
581,4	4756,633
581,9	4747,776
582,3	4738,976
582,7	4729,976
583,2	4726,262
583,6	4714,176
584,1	4702,348
584,5	4694,176
585	4693,29
585,4	4683,89
585,9	4676,005
586,3	4660,662
586,8	4651,519
587,2	4648,005
587,6	4640,348
588,1	4630,376
588,5	4625,176
589	4618,519
589,4	4623,605
589,9	4613,919
590,3	4599,89
590,8	4592,605
591,2	4588,319
591,7	4585,062
592,1	4579,262
592,5	4567,348
593	4570,948
593,4	4564,033
593,9	4560,062
594,3	4551,862
594,8	4544,633
595,2	4534,09
595,7	4527,005
596,1	4515,69
596,6	4513,719
597	4505,405
597,4	4495,09
597,9	4493,405
598,3	4488,576
598,8	4479,576
599,2	4475,319
599,7	4473,805
600,1	4461,805
600,6	4456,976
601	4439,319
601,4	4428,319
601,9	4416,176
602,3	4400,919
602,8	4389,348
603,2	4387,176
603,7	4376,719
604,1	4362,89
604,6	4346,062
605	4346,033
605,4	4335,548
605,9	4320,719
606,3	4303,49
606,8	4289,633
607,2	4287,148
607,7	4280,605
608,1	4264,262
608,6	4252,233
609	4236,776
609,4	4223,519
609,9	4214,548
610,3	4189,89
610,8	4180,262
611,2	4166,29
611,7	4154,748
612,1	4138,919
612,6	4127,205
613	4105,519
613,4	4102,805
613,9	4082,605
614,3	4072,376
614,8	4055,348
615,2	4037,49
615,7	4025,29
616,1	4016,89
616,6	3998,033
617	3985,205
617,4	3964,548
617,9	3957,49
618,3	3948,205
618,8	3932,205
619,2	3915,005
619,7	3899,205
620,1	3883,519
620,5	3866,405
621	3844,205
621,4	3830,662
621,9	3813,49
622,3	3801,176
622,8	3782,862
623,2	3764,348
623,6	3743,948
624,1	3728,662
624,5	3712,319
625	3688,405
625,4	3665,576
625,9	3650,719
626,3	3642,548
626,8	3624,633
627,2	3605,805
627,6	3590,433
628,1	3577,719
628,5	3559,862
629	3541,319
629,4	3518,119
629,9	3506,376
630,3	3491,262
630,7	3471,948
631,2	3459,433
631,6	3443,262
632,1	3423,233
632,5	3407,776
633	3384,89
633,4	3363,576
633,8	3349,605
634,3	3324,576
634,7	3311,605
635,2	3298,29
635,6	3280,29
636,1	3269,262
636,5	3251,976
636,9	3230,062
637,4	3218,605
637,8	3200,205
638,3	3178,176
638,7	3164,062
639,2	3145,948
639,6	3134,376
640	3112,205
640,5	3100,948
640,9	3082,376
641,4	3075,805
641,8	3057,662
642,2	3043,033
642,7	3026,462
643,1	3016,519
643,6	3001,662
644	2991,062
644,5	2974,062
644,9	2960,262
645,3	2945,405
645,8	2928,49
646,2	2914,319
646,7	2887,205
647,1	2875,033
647,6	2856,29
648	2838,005
648,4	2824,976
648,9	2814,605
649,3	2800,919
649,8	2793,576
650,2	2781,148
650,6	2771,833
651,1	2760,176
651,5	2743,605
652	2725,119
652,4	2711,833
652,9	2699,033
653,3	2675,233
653,7	2663,005
654,2	2650,233
654,6	2631,89
655,1	2617,376
655,5	2604,662
655,9	2589,262
656,4	2578,748
656,8	2561,776
657,3	2540,148
657,7	2533,862
658,2	2524,176
658,6	2507,69
659	2488,119
659,5	2470,948
659,9	2447,319
660,4	2433,976
660,8	2415,405
661,2	2397,348
661,7	2380,262
662,1	2375,49
662,6	2364,976
663	2352,633
663,4	2339,433
663,9	2325,948
664,3	2311,862
664,8	2295,09
665,2	2272,405
665,6	2259,205
666,1	2246,605
666,5	2231,49
667	2217,633
667,4	2201,548
667,9	2200,89
668,3	2193,462
668,7	2177,262
669,2	2163,376
669,6	2146,233
670,1	2128,176
670,5	2116,633
670,9	2097,748
671,4	2077,833
671,8	2064,348
672,3	2053,49
672,7	2045,776
673,1	2041,69
673,6	2028,776
674	2014,576
674,5	2006,376
674,9	1992,69
675,3	1978,262
675,8	1963,262
676,2	1939,376
676,7	1924,29
677,1	1909,548
677,5	1891,319
678	1881,748
678,4	1874,462
678,9	1863,89
679,3	1857,405
679,7	1847,576
680,2	1833,748
680,6	1829,776
681,1	1818,89
681,5	1802,833
681,9	1793,233
682,4	1784,948
682,8	1772,605
683,3	1761,719
683,7	1746,919
684,1	1731,633
684,6	1724,005
685	1708,062
685,5	1691,776
685,9	1681,233
686,3	1673,49
686,8	1663,033
687,2	1652,262
687,7	1636,09
688,1	1631,548
688,5	1625,376
689	1618,862
689,4	1602,033
689,9	1590,69
690,3	1585,976
690,7	1580,776
691,2	1563,519
691,6	1547,662
692	1532,205
692,5	1527,319
692,9	1514,49
693,4	1501,148
693,8	1494,633
694,2	1485,748
694,7	1477,662
695,1	1470,233
695,6	1458,262
696	1451,29
696,4	1444,948
696,9	1427,319
697,3	1418,062
697,8	1411,29
698,2	1396,405
698,6	1384,09
699,1	1379,862
699,5	1359,005
699,9	1354,262
700,4	1350,119
700,8	1338,062
701,3	1335,805
701,7	1330,49
702,1	1313,405
702,6	1308,862
703	1298,976
703,5	1284,262
703,9	1273,69
704,3	1259,976
704,8	1250,919
705,2	1246,262
705,6	1236,576
706,1	1229,119
706,5	1226,605
707	1223,548
707,4	1212,862
707,8	1200,233
708,3	1193,09
708,7	1188,348
709,2	1178,49
709,6	1166,776
710	1159,633
710,5	1156,462
710,9	1154,176
711,3	1142,948
711,8	1134,29
712,2	1122,519
712,7	1118,176
713,1	1107,605
713,5	1099,205
714	1093,548
714,4	1086,176
714,8	1076,462
715,3	1074,262
715,7	1064,176
716,2	1053,662
716,6	1043,948
717	1030,348
717,5	1021,69
717,9	1019,262
718,3	1011,833
718,8	1006,719
719,2	995,805
719,7	989,976
720,1	986,69
720,5	977,348
721	965,005
721,4	957,29
721,8	948,919
722,3	952,89
722,7	944,948
723,2	937,976
723,6	931,233
724	922,262
724,5	908,548
724,9	904,605
725,3	892,233
725,8	883,976
726,2	871,919
726,7	869,49
727,1	867,719
727,5	867,519
728	856,176
728,4	850,576
728,8	848,462
729,3	843,919
729,7	838,976
730,1	830,49
730,6	823,09
731	819,09
731,5	808,548
731,9	806,262
732,3	805,805
732,8	800,319
733,2	798,433
733,6	797,862
734,1	793,433
734,5	794,462
734,9	783,29
735,4	775,033
735,8	769,205
736,3	762,748
736,7	756,319
737,1	753,69
737,6	749,833
738	746,948
738,4	741,805
738,9	739,605
739,3	735,976
739,7	728,605
740,2	718,776
740,6	712,005
741,1	706,976
741,5	709,319
741,9	703,462
742,4	698,033
742,8	694,09
743,2	698,805
743,7	693,948
744,1	698,005
744,5	687,833
745	674,262
745,4	670,176
745,8	669,119
746,3	659,462
746,7	661,69
747,2	651,233
747,6	649,519
748	653,69
748,5	649,348
748,9	641,033
749,3	628,662
749,8	621,49
750,2	616,633
750,6	614,148
751,1	608,862
751,5	603,919
751,9	601,119
752,4	602,119
752,8	595,09
753,3	588,805
753,7	576,462
754,1	571,919
754,6	568,233
755	563,576
755,4	564,262
755,9	560,948
756,3	562,49
756,7	562,462
757,2	557,69
757,6	553,319
758	549,29
758,5	542,719
758,9	539,09
759,3	529,948
759,8	526,319
760,2	519,262
760,6	515,605
761,1	512,833
761,5	512,176
761,9	511,776
762,4	509,919
762,8	502,605
763,3	503,805
763,7	499,576
764,1	500,062
764,6	495,89
765	483,176
765,4	480,633
765,9	482,833
766,3	476,233
766,7	474,433
767,2	467,976
767,6	465,805
768	463,262
768,5	459,433
768,9	457,176
769,3	456,519
769,8	452,176
770,2	446,462
770,6	444,29
771,1	448,205
771,5	445,576
771,9	442,805
772,4	442,862
772,8	441,919
773,2	439,319
773,7	430,576
774,1	429,719
774,5	419,662
775	410,919
775,4	404,119
775,8	401,319
776,3	402,633
776,7	402,776
777,1	398,948
777,6	399,148
778	399,833
778,4	400,405
778,9	395,148
779,3	386,233
779,7	383,462
780,2	379,09
780,6	381,605
781	378,69
781,5	376,148
781,9	377,519
782,3	378,49
782,8	379,948
783,2	375,119
783,6	373,205
784,1	370,033
784,5	363,49
784,9	357,519
785,4	354,948
785,8	347,462
786,2	345,376
786,7	338,062
787,1	340,605
787,5	340,005
788	339,776
788,4	333,262
788,8	325,719
789,3	322,119
789,7	328,462
790,1	321,805
790,6	319,948
791	319,919
791,4	322,119
791,9	320,462
792,3	320,719
792,7	308,662
793,2	303,005
793,6	304,205
794	295,805
794,5	293,948
794,9	298,69
795,3	295,09
795,8	293,605
796,2	295,262
796,6	290,576
797,1	288,633
797,5	288,805
797,9	285,976
798,4	282,89
798,8	282,033
799,2	283,948
799,7	282,176
800,1	283,062
800,5	277,233
801	270,548
801,4	268,662
801,8	263,519
802,2	257,576
802,7	257,548
803,1	255,376
803,5	254,89
804	255,319
804,4	254,119
804,8	255,09
805,3	258,319
805,7	251,89
806,1	247,748
806,6	242,148
807	243,776
807,4	243,29
807,9	242,89
808,3	234,433
808,7	231,662
809,2	230,948
809,6	233,548
810	224,376
810,4	219,919
810,9	217,49
811,3	218,176
811,7	226,09
812,2	226,062
812,6	219,719
813	218,262
813,5	213,548
813,9	211,062
814,3	206,548
814,8	198,719
815,2	195,862
815,6	196,919
816,1	200,205
816,5	204,376
816,9	205,405
817,3	207,719
817,8	203,605
818,2	201,09
818,6	197,548
819,1	196,319
819,5	193,89
819,9	188,405
820,4	184,719
820,8	183,776
821,2	183,862
821,7	185,233
822,1	180,176
822,5	175,748
822,9	180,462
823,4	183,662
823,8	182,176
824,2	182,205
824,7	180,662
825,1	180,09
825,5	179,89
826	175,576
826,4	169,805
826,8	170,148
827,3	170,119
827,7	169,576
828,1	170,376
828,5	170,948
829	171,633
829,4	168,405
829,8	166,205
830,3	161,062
830,7	159,29
831,1	160,948
831,6	161,576
832	158,348
832,4	160,662
832,8	156,29
833,3	159,319
833,7	155,719
834,1	156,033
834,6	154,633
835	156,233
835,4	152,376
835,8	153,805
836,3	151,033
836,7	153,433
837,1	147,976
837,6	141,862
838	136,976
838,4	137,148
838,9	135,919
839,3	134,433
839,7	136,033
840,1	132,176
840,6	130,205
841	133,976
841,4	133,033
841,9	130,09
842,3	129,005
842,7	121,376
843,1	126,005
843,6	131,862
844	126,633
844,4	122,776
844,9	124,005
845,3	124,49
845,7	121,519
846,2	118,662
846,6	112,348
847	112,233
847,4	108,319
847,9	107,976
848,3	106,033
848,7	109,548
849,2	110,405
849,6	110,462
850	109,005
850,4	112,89
850,9	111,205
851,3	109,205
851,7	106,548
852,2	101,005
852,6	101,262
853	96,69
853,4	93,005
853,9	89,776
854,3	89,805
854,7	91,319
855,2	95,919
855,6	93,462
856	99,119
856,4	99,976
856,9	102,519
857,3	101,805
857,7	101,262
858,2	92,033
858,6	90,719
859	87,976
859,4	87,376
859,9	87,776
860,3	83,833
860,7	83,633
861,1	89,605
861,6	97,433
862	92,262
862,4	89,719
862,9	86,919
863,3	83,662
863,7	85,29
864,1	79,719
864,6	72,062
865	76,948
865,4	79,348
865,9	81,948
866,3	87,605
866,7	84,433
867,1	83,833
867,6	88,948
868	92,976
868,4	92,262
868,8	88,348
869,3	85,319
869,7	85,519
870,1	89,148
870,6	79,548
871	108,376
871,4	106,176
871,8	105,205
872,3	106,348
872,7	105,748
873,1	101,776
873,5	108,719
874	70,205
874,4	71,405
874,8	75,919
875,3	72,519
875,7	69,548
876,1	68,948
876,5	62,805
877	65,919
877,4	66,462
877,8	64,833
878,2	62,605
878,7	64,462
879,1	65,833
879,5	65,148
879,9	63,376
880,4	67,119
880,8	65,605
881,2	71,033
881,7	67,062
882,1	67,662
882,5	71,005
882,9	68,833
883,4	63,805
883,8	61,005
884,2	57,09
884,6	62,033
885,1	60,948
885,5	57,548
885,9	57,748
886,3	54,376
886,8	53,376
887,2	51,576
887,6	46,348
888	46,662
888,5	47,833
888,9	50,462
889,3	55,005
889,8	56,262
890,2	56,233
890,6	54,862
891	52,89
891,5	54,205
891,9	53,148
892,3	47,576
892,7	49,176
893,2	52,176
893,6	55,148
894	53,205
894,4	47,89
894,9	47,519
895,3	48,033
895,7	43,976
896,1	44,49
896,6	44,319
897	44,805
897,4	49,319
897,8	48,919
898,3	54,576
898,7	53,948
899,1	53,262
899,5	48,976
900	49,205
900,4	47,776
900,8	44,233
901,2	39,976
901,7	41,148
902,1	43,548
902,5	44,748
902,9	41,805
903,4	39,033
903,8	39,976
904,2	41,719
904,6	43,033
905,1	43,319
905,5	48,805
905,9	53,919
906,3	54,519
906,8	52,548
907,2	50,119
907,6	55,29
908	49,576
908,5	45,69
908,9	42,319
909,3	43,205
909,7	48,462
910,2	51,033
910,6	42,376
911	42,662
911,4	39,776
911,9	37,348
912,3	34,033
912,7	28,348
913,1	23,462
913,6	22,776
914	24,205
914,4	20,633
914,8	24,176
915,3	27,005
915,7	32,719
916,1	36,633
916,5	40,09
916,9	36,976
917,4	42,49
917,8	36,376
918,2	34,833
918,6	31,69
919,1	31,776
919,5	30,69
919,9	33,748
920,3	35,176
920,8	42,462
921,2	42,176
921,6	44,09
922	44,805
922,5	47,176
922,9	45,49
923,3	43,119
923,7	43,376
924,2	45,405
924,6	43,09
925	39,205
925,4	35,805
925,8	37,262
926,3	43,119
926,7	41,348
927,1	38,919
927,5	42,005
928	41,805
928,4	41,805
928,8	39,262
929,2	31,519
929,7	29,033
930,1	28,69
930,5	27,862
930,9	23,405
931,3	21,719
931,8	22,633
932,2	29,519
932,6	29,605
933	25,09
933,5	22,69
933,9	24,233
934,3	28,976
934,7	25,976
935,2	23,919
935,6	21,833
936	25,09
936,4	28,376
936,8	33,319
937,3	25,148
937,7	26,519
938,1	18,062
938,5	18,605
939	21,833
939,4	14,719
939,8	14,119
940,2	15,976
940,6	14,176
941,1	21,776
941,5	24,576
941,9	28,576
942,3	28,89
942,8	26,233
943,2	35,005
943,6	36,948
944	33,833
944,4	33,719
944,9	28,833
945,3	30,348
945,7	31,89
946,1	24,548
946,6	21,919
947	20,548
947,4	20,376
947,8	20,89
948,2	20,062
948,7	16,233
949,1	15,319
949,5	16,719
949,9	16,633
950,3	15,033
950,8	14,233
951,2	16,862
951,6	15,862
952	17,005
952,5	14,776
952,9	16,833
953,3	16,405
953,7	14,405
954,1	13,576
954,6	16,605
955	14,862
955,4	22,348
955,8	24,633
956,2	29,519
956,7	32,348
957,1	25,69
957,5	25,176
957,9	25,862
958,3	18,433
958,8	13,319
959,2	9,348
959,6	5,89
960	14,033
960,5	10,576
960,9	12,29
961,3	12,948
961,7	13,176
962,1	14,376
962,6	15,519
963	9,976
963,4	14,348
963,8	11,49
964,2	16,29
964,7	15,805
965,1	11,176
965,5	11,176
965,9	15,805
966,3	11,605
966,8	12,862
967,2	5,89
967,6	7,948
968	10,09
968,4	11,776
968,9	11,319
969,3	13,119
969,7	12,919
970,1	16,405
970,5	15,205
971	15,776
971,4	12,119
971,8	8,776
972,2	11,548
972,6	11,89
973,1	8,976
973,5	7,805
973,9	4,576
974,3	5,433
974,7	5,433
975,2	6,719
975,6	6,519
976	9,49
976,4	10,605
976,8	11,576
977,3	15,89
977,7	15,062
978,1	12,833
978,5	12,519
978,9	8,948
979,4	11,633
979,8	15,348
980,2	8,662
980,6	12,176
981	11,519
981,5	13,348
981,9	14,262
982,3	11,633
982,7	8,176
983,1	8,376
983,6	7,948
984	7,262
984,4	10,89
984,8	14,29
985,2	15,176
985,6	16,005
986,1	19,062
986,5	19,033
986,9	20,862
987,3	13,662
987,7	13,062
988,2	15,29
988,6	18,176
989	17,576
989,4	21,319
989,8	20,462
990,3	19,576
990,7	21,148
991,1	20,376
991,5	22,033
991,9	20,262
992,3	16,605
992,8	14,376
993,2	18,348
993,6	13,862
994	9,719
994,4	10,119
994,9	16,033
995,3	21,119
995,7	23,29
996,1	20,548
996,5	22,176
996,9	23,948
997,4	18,833
997,8	15,919
998,2	9,776
998,6	9,462
999	11,319
999,5	12,319
999,9	12,033
1000,3	14,176
1000,7	14,89
1001,1	14,176
1001,5	18,319
1002	17,976
1002,4	18,919
1002,8	18,548
1003,2	19,748
1003,6	21,348
1004	24,862
1004,5	19,205
1004,9	19,005
1005,3	17,49
1005,7	18,633
1006,1	19,605
1006,6	14,519
1007	8,29
1007,4	9,062
1007,8	13,119
1008,2	13,89
1008,6	16,376
1009,1	14,348
1009,5	13,605
1009,9	16,833
1010,3	17,519
1010,7	16,433
1011,1	20,033
1011,6	17,005
1012	16,205
1012,4	19,09
1012,8	18,29
1013,2	21,719
1013,6	18,805
1014,1	14,233
1014,5	15,262
1014,9	14,319
1015,3	13,376
1015,7	18,205
1016,1	12,348
1016,6	9,69
1017	12,862
1017,4	11,405
1017,8	6,29
1018,2	7,776
1018,6	6,805
1019,1	11,119
1019,5	14,119
1019,9	12,633
1020,3	15,748
1020,7	22,69
1021,1	24,119
1021,6	19,462
1022	21,376
1022,4	26,376
1022,8	23,348
1023,2	19,09
1023,6	16,176
1024,1	15,405
1024,5	16,805
1024,9	11,833
1025,3	7,719
1025,7	10,976
1026,1	12,29
1026,6	17,833
1027	15,348
1027,4	17,548
1027,8	14,233
1028,2	12,09
1028,6	9,862
1029	11,376
1029,5	8,776
1029,9	9,262
1030,3	10,776
1030,7	14,205
1031,1	14,576
1031,5	18,462
1032	17,576
1032,4	14,776
1032,8	18,09
1033,2	15,833
1033,6	16,29
1034	18,976
1034,4	19,148
1034,9	18,205
1035,3	20,948
1035,7	22,548
1036,1	20,69
1036,5	23,948
1036,9	21,405
1037,4	17,205
1037,8	21,49
1038,2	18,148
1038,6	16,662
1039	17,919
1039,4	18,005
1039,8	19,919
1040,3	24,49
1040,7	22,033
1041,1	23,948
1041,5	24,519
1041,9	21,148
1042,3	16,919
1042,7	14,49
1043,2	12,719
1043,6	18,519
1044	20,69
1044,4	18,233
1044,8	22,719
1045,2	26,119
1045,6	29,49
1046,1	28,719
1046,5	18,748
1046,9	19,033
1047,3	19,376
1047,7	20,09
1048,1	19,948
1048,5	18,633
1049	23,805
1049,4	28,262
1049,8	23,376
1050,2	21,805
1050,6	18,233
1051	15,49
1051,4	15,176
1051,9	10,662
1052,3	11,748
1052,7	14,89
1053,1	17,49
1053,5	21,119
1053,9	26,233
1054,3	21,776
1054,8	19,633
1055,2	14,119
1055,6	17,748
1056	15,919
1056,4	13,833
1056,8	10,919
1057,2	16,805
1057,6	19,519
1058,1	24,948
1058,5	20,29
1058,9	22,462
1059,3	25,062
1059,7	21,433
1060,1	19,719
1060,5	18,405
1061	14,833
1061,4	18,89
1061,8	17,748
1062,2	13,719
1062,6	18,776
1063	17,405
1063,4	16,548
1063,8	20,005
1064,3	15,319
1064,7	16,319
1065,1	18,062
1065,5	15,205
1065,9	14,376
1066,3	14,376
1066,7	6,748
1067,1	9,062
1067,6	7,919
1068	10,69
1068,4	10,662
1068,8	11,319
1069,2	13,919
1069,6	16,462
1070	18,633
1070,4	23,49
1070,9	19,833
1071,3	21,205
1071,7	25,062
1072,1	20,69
1072,5	26,948
1072,9	21,262
1073,3	18,433
1073,7	21,976
1074,2	22,805
1074,6	19,833
1075	20,119
1075,4	16,633
1075,8	20,033
1076,2	18,205
1076,6	15,49
1077	15,062
1077,5	17,29
1077,9	17,662
1078,3	13,748
1078,7	7,69
1079,1	7,062
1079,5	4,633
1079,9	4,69
1080,3	3,29
1080,7	3,862
1081,2	11,605
1081,6	15,433
1082	15,348
1082,4	16,176
1082,8	13,833
1083,2	15,119
1083,6	13,29
1084	11,148
1084,5	17,576
1084,9	10,748
1085,3	10,205
1085,7	12,005
1086,1	6,862
1086,5	9,919
1086,9	8,605
1087,3	-2,024
1087,7	5,462
1088,2	7,976
1088,6	8,748
1089	9,948
1089,4	6,29
1089,8	6,719
1090,2	11,548
1090,6	11,462
1091	14,062
1091,4	12,833
1091,9	15,49
1092,3	20,005
1092,7	18,805
1093,1	15,433
1093,5	14,233
1093,9	12,29
1094,3	10,605
1094,7	7,519
1095,1	3,919
1095,5	-0,367
1096	2,948
1096,4	4,462
1096,8	2,976
1097,2	3,662
1097,6	3,262
1098	6,148
1098,4	7,519
1098,8	7,433
1099,2	5,148
1099,6	5,262
1100,1	8,49
1100,5	13,376
1100,9	14,862
1101,3	15,976
1101,7	16,262
1102,1	18,89
1102,5	16,033
1102,9	9,519
1103,3	8,148
1103,7	6,89
1104,2	11,69
1104,6	14,205
1105	13,605
1105,4	14,119
1105,8	16,062
1106,2	13,662
1106,6	10,919
1107	6,433
1107,4	2,933
1107,8	-0,367
1108,3	0,183
