Data from Subt2_00027.txt Node
Date: Mon Aug 28 13:12:46 MSK 2023
User: vat
Spectrometer: MAYP114033
Trigger mode: 0
Integration Time (sec): 1,000000E0
Scans to average: 5
Electric dark correction enabled: true
Nonlinearity correction enabled: false
Boxcar width: 3
XAxis mode: Wavelengths
Number of Pixels in Spectrum: 2068
>>>>>Begin Spectral Data<<<<<
199,4	0,317
199,9	1,847
200,4	-1,267
200,8	-0,719
201,3	2,881
201,8	5,967
202,2	5,081
202,7	8,024
203,2	11,281
203,6	15,081
204,1	17,938
204,6	16,652
205	17,338
205,5	23,91
206	22,91
206,4	20,424
206,9	22,852
207,4	23,995
207,8	25,424
208,3	27,167
208,8	26,481
209,2	28,71
209,7	27,738
210,2	22,538
210,6	23,11
211,1	18,395
211,5	18,195
212	16,452
212,5	16,681
212,9	18,681
213,4	20,167
213,9	18,595
214,3	19,881
214,8	20,424
215,3	21,567
215,7	19,081
216,2	18,424
216,7	23,167
217,1	21,681
217,6	24,71
218,1	19,681
218,5	15,424
219	18,852
219,5	19,567
219,9	16,51
220,4	15,481
220,9	15,281
221,3	17,081
221,8	16,538
222,3	16,681
222,7	13,167
223,2	13,938
223,6	18,652
224,1	17,452
224,6	16,881
225	20,91
225,5	15,681
226	19,11
226,4	22,081
226,9	17,967
227,4	21,281
227,8	21,967
228,3	20,138
228,8	26,395
229,2	28,452
229,7	26,195
230,2	26,824
230,6	20,452
231,1	18,767
231,5	18,938
232	17,624
232,5	14,167
232,9	11,91
233,4	13,795
233,9	22,71
234,3	24,481
234,8	27,024
235,3	15,595
235,7	13,595
236,2	12,367
236,7	9,424
237,1	5,51
237,6	7,652
238,1	3,995
238,5	12,452
239	14,481
239,4	15,367
239,9	20,024
240,4	19,738
240,8	19,395
241,3	25,395
241,8	24,51
242,2	23,538
242,7	31,538
243,2	30,138
243,6	33,081
244,1	31,738
244,6	30,167
245	33,395
245,5	36,881
245,9	26,51
246,4	21,567
246,9	19,281
247,3	16,567
247,8	12,967
248,3	11,452
248,7	12,481
249,2	16,224
249,7	20,367
250,1	15,138
250,6	19,252
251	17,452
251,5	22,71
252	16,452
252,4	16,824
252,9	14,395
253,4	21,081
253,8	18,852
254,3	19,052
254,8	13,995
255,2	18,167
255,7	19,195
256,1	22,595
256,6	22,195
257,1	22,938
257,5	24,195
258	17,938
258,5	16,11
258,9	14,224
259,4	12,31
259,9	9,081
260,3	9,767
260,8	12,938
261,2	18,938
261,7	19,681
262,2	22,338
262,6	22,567
263,1	22,31
263,6	20,138
264	19,624
264,5	17,795
264,9	20,367
265,4	17,195
265,9	18,881
266,3	20,767
266,8	23,995
267,3	22,738
267,7	25,31
268,2	20,31
268,7	23,567
269,1	24,224
269,6	26,138
270	24,824
270,5	25,138
271	25,738
271,4	29,91
271,9	29,567
272,4	30,424
272,8	32,024
273,3	27,852
273,7	21,338
274,2	19,338
274,7	14,252
275,1	15,595
275,6	14,481
276,1	10,252
276,5	14,71
277	24,224
277,4	24,395
277,9	28,338
278,4	24,11
278,8	24,91
279,3	21,938
279,8	19,624
280,2	13,91
280,7	12,967
281,1	12,995
281,6	15,338
282,1	10,652
282,5	13,452
283	10,481
283,4	12,652
283,9	17,11
284,4	16,538
284,8	15,167
285,3	19,138
285,8	20,995
286,2	23,595
286,7	24,51
287,1	25,195
287,6	26,367
288,1	29,31
288,5	25,681
289	25,881
289,5	27,081
289,9	32,224
290,4	26,91
290,8	25,195
291,3	27,481
291,8	29,71
292,2	26,31
292,7	28,767
293,1	22,11
293,6	18,224
294,1	22,51
294,5	17,595
295	16,138
295,5	15,681
295,9	10,995
296,4	16,51
296,8	20,595
297,3	17,881
297,8	15,595
298,2	17,024
298,7	20,91
299,1	20,795
299,6	19,138
300,1	21,31
300,5	20,652
301	21,195
301,5	17,595
301,9	16,395
302,4	18,795
302,8	12,595
303,3	11,91
303,8	15,967
304,2	13,567
304,7	20,767
305,1	18,167
305,6	19,624
306,1	21,567
306,5	23,91
307	18,767
307,4	21,167
307,9	17,195
308,4	19,91
308,8	19,481
309,3	20,938
309,8	21,052
310,2	21,11
310,7	21,967
311,1	22,367
311,6	24,91
312,1	23,481
312,5	22,424
313	18,224
313,4	24,767
313,9	23,281
314,4	25,51
314,8	21,967
315,3	26,224
315,7	28,052
316,2	32,252
316,7	21,824
317,1	22,452
317,6	18,71
318	20,052
318,5	18,938
319	20,91
319,4	20,767
319,9	23,024
320,3	25,31
320,8	31,595
321,3	30,538
321,7	26,11
322,2	26,652
322,6	22,967
323,1	23,338
323,6	23,281
324	21,052
324,5	21,11
324,9	22,024
325,4	16,052
325,9	17,481
326,3	19,767
326,8	16,624
327,2	13,395
327,7	11,91
328,2	14,11
328,6	20,938
329,1	17,824
329,5	17,367
330	16,738
330,5	15,424
330,9	16,595
331,4	20,567
331,8	20,938
332,3	27,081
332,8	28,681
333,2	30,824
333,7	31,024
334,1	32,338
334,6	26,938
335,1	24,824
335,5	22,824
336	23,167
336,4	27,224
336,9	26,052
337,4	26,367
337,8	27,167
338,3	25,31
338,7	27,481
339,2	26,338
339,7	22,967
340,1	21,481
340,6	15,681
341	13,767
341,5	15,767
342	13,224
342,4	19,281
342,9	18,31
343,3	21,281
343,8	24,452
344,2	29,967
344,7	30,224
345,2	29,767
345,6	25,967
346,1	30,852
346,5	26,824
347	29,624
347,5	23,852
347,9	19,367
348,4	20,71
348,8	16,624
349,3	21,338
349,8	28,995
350,2	32,11
350,7	37,567
351,1	43,367
351,6	48,51
352	57,652
352,5	57,081
353	62,51
353,4	71,224
353,9	75,967
354,3	87,624
354,8	96,738
355,3	110,138
355,7	125,024
356,2	145,052
356,6	168,081
357,1	199,738
357,5	230,795
358	263,881
358,5	306,91
358,9	362,624
359,4	419,681
359,8	480,567
360,3	548,024
360,8	624,195
361,2	718,424
361,7	815,252
362,1	908,11
362,6	1020,452
363	1138,367
363,5	1273,538
364	1415,681
364,4	1557,795
364,9	1702,424
365,3	1851,481
365,8	1989,852
366,3	2120,081
366,7	2233,995
367,2	2336,395
367,6	2416,167
368,1	2477,538
368,5	2521,31
369	2546,938
369,5	2550,71
369,9	2533,31
370,4	2489,738
370,8	2441,624
371,3	2372,71
371,7	2292,452
372,2	2193,795
372,7	2089,652
373,1	1980,91
373,6	1871,91
374	1748,681
374,5	1632,195
374,9	1517,938
375,4	1405,938
375,9	1301,595
376,3	1202,91
376,8	1109,624
377,2	1023,51
377,7	943,938
378,2	867,31
378,6	796,995
379,1	730,167
379,5	666,91
380	611,881
380,4	561,852
380,9	516,824
381,4	473,738
381,8	440,538
382,3	407,395
382,7	381,367
383,2	350,481
383,6	328,51
384,1	304,224
384,6	291,31
385	276,995
385,5	263,024
385,9	245,252
386,4	232,395
386,8	218,452
387,3	205,852
387,7	191,424
388,2	173,795
388,7	159,424
389,1	145,395
389,6	136,51
390	129,195
390,5	119,51
390,9	109,624
391,4	103,424
391,9	100,652
392,3	101,338
392,8	99,824
393,2	93,195
393,7	87,91
394,1	87,881
394,6	87,338
395,1	83,91
395,5	77,367
396	71,281
396,4	70,995
396,9	71,595
397,3	66,367
397,8	63,91
398,2	61,567
398,7	63,367
399,2	65,51
399,6	64,31
400,1	62,652
400,5	63,967
401	66,567
401,4	71,138
401,9	67,995
402,4	65,881
402,8	70,252
403,3	76,595
403,7	74,452
404,2	76,052
404,6	70,567
405,1	78,881
405,5	78,024
406	76,881
406,5	75,595
406,9	80,538
407,4	84,71
407,8	94,738
408,3	93,71
408,7	101,452
409,2	107,881
409,6	114,052
410,1	118,167
410,6	124,51
411	132,538
411,5	143,938
411,9	157,767
412,4	165,738
412,8	174,881
413,3	189,052
413,7	198,195
414,2	202,167
414,7	210,481
415,1	218,11
415,6	230,738
416	245,967
416,5	259,31
416,9	277,738
417,4	300,881
417,8	317,51
418,3	333,852
418,8	354,024
419,2	372,795
419,7	392,481
420,1	409,51
420,6	423,881
421	451,538
421,5	482,167
421,9	509,481
422,4	541,138
422,8	569,024
423,3	600,967
423,8	639,452
424,2	671,31
424,7	699,538
425,1	734,595
425,6	768,91
426	805,252
426,5	842,538
426,9	889,481
427,4	931,481
427,9	980,195
428,3	1035,367
428,8	1084,881
429,2	1141,252
429,7	1202,11
430,1	1257,167
430,6	1324,881
431	1394,738
431,5	1459,081
431,9	1537,11
432,4	1620,681
432,8	1703,424
433,3	1799,31
433,8	1893,224
434,2	1986,767
434,7	2084,795
435,1	2189,31
435,6	2294,967
436	2411,252
436,5	2522,824
436,9	2647,11
437,4	2775,51
437,8	2910,967
438,3	3049,31
438,8	3200,681
439,2	3355,71
439,7	3507,224
440,1	3662,795
440,6	3831,881
441	4004,195
441,5	4185,881
441,9	4367,367
442,4	4555,138
442,8	4762,91
443,3	4974,138
443,7	5186,538
444,2	5404,852
444,7	5629,738
445,1	5861,824
445,6	6096,91
446	6340,11
446,5	6586,224
446,9	6851,195
447,4	7121,31
447,8	7385,281
448,3	7664,452
448,7	7942,595
449,2	8225,395
449,6	8521,167
450,1	8813,252
450,6	9107,11
451	9414,167
451,5	9725,938
451,9	10047,595
452,4	10377,11
452,8	10707,624
453,3	11041,624
453,7	11389,11
454,2	11740,881
454,6	12094,967
455,1	12460,338
455,5	12820,767
456	13196,567
456,4	13568,567
456,9	13953,767
457,3	14335,052
457,8	14723,052
458,3	15116,481
458,7	15513,738
459,2	15908,167
459,6	16310,852
460,1	16700,738
460,5	17104,881
461	17499,252
461,4	17899,624
461,9	18308,167
462,3	18701,881
462,8	19102,052
463,2	19520,452
463,7	19927,167
464,1	20329,738
464,6	20731,767
465	21124,31
465,5	21538,481
466	21939,024
466,4	22322,624
466,9	22712,424
467,3	23107,767
467,8	23500,11
468,2	23902,452
468,7	24282,738
469,1	24666,167
469,6	25057,538
470	25440,538
470,5	25815,824
470,9	26173,738
471,4	26516,538
471,8	26860,681
472,3	27205,31
472,7	27546,338
473,2	27886,338
473,6	28212,967
474,1	28528,881
474,5	28851,252
475	29153,31
475,4	29469,767
475,9	29760,338
476,4	30052,538
476,8	30339,681
477,3	30618,91
477,7	30895,767
478,2	31152,424
478,6	31397,824
479,1	31617,51
479,5	31834,995
480	32048,995
480,4	32251,481
480,9	32427,824
481,3	32620,481
481,8	32788,052
482,2	32961,852
482,7	33106,881
483,1	33253,538
483,6	33392,71
484	33520,681
484,5	33644,367
484,9	33745,252
485,4	33834,424
485,8	33923,824
486,3	33989,167
486,7	34059,081
487,2	34111,567
487,6	34150,681
488,1	34187,224
488,5	34226,967
489	34234,91
489,4	34251,31
489,9	34220,824
490,4	34211,11
490,8	34188,767
491,3	34149,11
491,7	34101,395
492,2	34058,538
492,6	33988,11
493,1	33928,11
493,5	33839,967
494	33744,91
494,4	33667,167
494,9	33546,824
495,3	33426,538
495,8	33323,595
496,2	33226,824
496,7	33119,938
497,1	33017,967
497,6	32889,881
498	32776,081
498,5	32646,538
498,9	32485,624
499,4	32316,967
499,8	32148,51
500,3	31972,595
500,7	31800,967
501,2	31622,167
501,6	31453,195
502,1	31293,281
502,5	31128,652
503	30953,338
503,4	30776,081
503,9	30577,567
504,3	30396,995
504,8	30199,595
505,2	29987,824
505,7	29770,767
506,1	29562,367
506,6	29324,052
507	29115,824
507,5	28888,052
507,9	28668,367
508,4	28443,367
508,8	28222,852
509,3	28002,852
509,7	27789,252
510,2	27550,338
510,6	27322,91
511,1	27081,424
511,5	26828,824
512	26587,824
512,4	26330,252
512,9	26074,538
513,3	25829,081
513,8	25577,91
514,2	25337,71
514,7	25098,91
515,1	24853,081
515,6	24616,938
516	24390,595
516,5	24148,195
516,9	23899,995
517,4	23643,624
517,8	23398,452
518,3	23152,567
518,7	22909,195
519,2	22648,252
519,6	22393,081
520,1	22160,424
520,5	21923,938
521	21691,738
521,4	21447,624
521,9	21205,224
522,3	20975,767
522,8	20745,852
523,2	20505,367
523,7	20268,51
524,1	20035,138
524,6	19807,624
525	19583,824
525,5	19364,367
525,9	19151,452
526,4	18944,967
526,8	18720,995
527,3	18512,052
527,7	18303,252
528,2	18080,71
528,6	17863,081
529,1	17651,281
529,5	17434,567
530	17252,795
530,4	17060,681
530,9	16856,138
531,3	16682,652
531,8	16494,881
532,2	16313,11
532,6	16127,938
533,1	15922,71
533,5	15720,967
534	15545,224
534,4	15351,081
534,9	15178,567
535,3	14993,31
535,8	14809,138
536,2	14641,824
536,7	14479,567
537,1	14310,195
537,6	14144,795
538	13971,852
538,5	13810,224
538,9	13654,767
539,4	13509,167
539,8	13350,367
540,3	13201,138
540,7	13047,452
541,2	12903,11
541,6	12757,681
542,1	12616,338
542,5	12466,595
543	12321,795
543,4	12187,424
543,9	12051,424
544,3	11909,995
544,8	11767,538
545,2	11635,167
545,7	11514,138
546,1	11384,195
546,5	11244,052
547	11115,852
547,4	10989,91
547,9	10879,938
548,3	10755,167
548,8	10635,967
549,2	10530,795
549,7	10420,195
550,1	10305,024
550,6	10200,738
551	10085,652
551,5	9979,052
551,9	9868,481
552,4	9752,91
552,8	9648,767
553,3	9553,281
553,7	9455,795
554,2	9354,967
554,6	9250,767
555,1	9151,281
555,5	9059,138
555,9	8971,367
556,4	8876,91
556,8	8778,967
557,3	8693,567
557,7	8617,538
558,2	8532,538
558,6	8450,824
559,1	8361,452
559,5	8287,738
560	8212,395
560,4	8126,852
560,9	8046,595
561,3	7967,995
561,8	7885,738
562,2	7808,938
562,7	7723,824
563,1	7642,995
563,6	7573,081
564	7497,852
564,4	7427,852
564,9	7358,224
565,3	7294,938
565,8	7225,652
566,2	7160,024
566,7	7096,795
567,1	7026,424
567,6	6956,538
568	6893,024
568,5	6820,31
568,9	6756,652
569,4	6688,024
569,8	6612,452
570,3	6553,052
570,7	6487,452
571,1	6431,31
571,6	6374,081
572	6312,767
572,5	6259,281
572,9	6207,71
573,4	6152,881
573,8	6104,767
574,3	6046,538
574,7	5996,738
575,2	5945,338
575,6	5895,567
576,1	5845,11
576,5	5796,652
576,9	5736,567
577,4	5688,224
577,8	5623,167
578,3	5571,452
578,7	5514,91
579,2	5463,138
579,6	5406,51
580,1	5366,767
580,5	5316,967
581	5279,767
581,4	5236,195
581,9	5197,767
582,3	5150,824
582,7	5105,424
583,2	5054,167
583,6	5005,624
584,1	4966,624
584,5	4923,824
585	4881,767
585,4	4836,481
585,9	4795,538
586,3	4761,538
586,8	4720,252
587,2	4678,138
587,6	4637,881
588,1	4597,624
588,5	4563,195
589	4519,652
589,4	4479,395
589,9	4447,338
590,3	4415,11
590,8	4380,738
591,2	4337,938
591,7	4305,395
592,1	4279,681
592,5	4245,138
593	4210,167
593,4	4171,481
593,9	4140,138
594,3	4118,938
594,8	4087,395
595,2	4057,852
595,7	4025,481
596,1	4003,567
596,6	3972,224
597	3944,624
597,4	3908,852
597,9	3881,195
598,3	3851,195
598,8	3822,024
599,2	3788,91
599,7	3771,767
600,1	3744,424
600,6	3719,052
601	3697,452
601,4	3669,881
601,9	3650,452
602,3	3630,081
602,8	3595,681
603,2	3567,452
603,7	3544,252
604,1	3518,424
604,6	3499,652
605	3479,795
605,4	3452,11
605,9	3429,224
606,3	3401,824
606,8	3377,738
607,2	3348,995
607,7	3324,024
608,1	3286,538
608,6	3260,995
609	3237,138
609,4	3217,424
609,9	3200,538
610,3	3181,452
610,8	3164,167
611,2	3154,167
611,7	3132,624
612,1	3111,91
612,6	3085,567
613	3053,824
613,4	3030,452
613,9	3002,767
614,3	2977,31
614,8	2951,481
615,2	2929,367
615,7	2909,395
616,1	2892,452
616,6	2875,967
617	2849,338
617,4	2827,624
617,9	2809,738
618,3	2794,424
618,8	2782,424
619,2	2755,881
619,7	2737,195
620,1	2719,938
620,5	2697,395
621	2678,824
621,4	2662,795
621,9	2640,024
622,3	2633,395
622,8	2606,795
623,2	2592,167
623,6	2572,738
624,1	2559,738
624,5	2535,538
625	2513,995
625,4	2492,252
625,9	2476,595
626,3	2458,338
626,8	2447,052
627,2	2423,624
627,6	2405,395
628,1	2392,481
628,5	2373,052
629	2359,252
629,4	2338,081
629,9	2312,424
630,3	2296,824
630,7	2277,652
631,2	2255,652
631,6	2232,195
632,1	2206,995
632,5	2196,167
633	2186,252
633,4	2166,11
633,8	2151,224
634,3	2137,681
634,7	2130,31
635,2	2116,081
635,6	2094,91
636,1	2068,767
636,5	2057,767
636,9	2039,795
637,4	2025,624
637,8	2004,081
638,3	1999,338
638,7	1987,795
639,2	1984,852
639,6	1970,738
640	1966,71
640,5	1950,481
640,9	1940,195
641,4	1924,767
641,8	1906,652
642,2	1896,338
642,7	1885,595
643,1	1863,595
643,6	1853,052
644	1842,538
644,5	1824,081
644,9	1816,367
645,3	1798,052
645,8	1784,11
646,2	1770,31
646,7	1758,595
647,1	1741,452
647,6	1734,595
648	1726,052
648,4	1718,338
648,9	1704,71
649,3	1695,395
649,8	1682,824
650,2	1672,538
650,6	1660,681
651,1	1644,424
651,5	1628,452
652	1623,081
652,4	1612,252
652,9	1606,624
653,3	1599,481
653,7	1586,138
654,2	1577,224
654,6	1570,11
655,1	1552,71
655,5	1543,595
655,9	1529,395
656,4	1516,938
656,8	1507,367
657,3	1500,938
657,7	1488,624
658,2	1486,024
658,6	1474,91
659	1465,024
659,5	1455,681
659,9	1444,424
660,4	1432,795
660,8	1422,738
661,2	1405,852
661,7	1397,995
662,1	1389,338
662,6	1382,367
663	1371,081
663,4	1362,567
663,9	1351,681
664,3	1339,71
664,8	1330,767
665,2	1318,538
665,6	1306,224
666,1	1300,11
666,5	1289,281
667	1283,052
667,4	1277,338
667,9	1263,995
668,3	1258,795
668,7	1250,538
669,2	1237,367
669,6	1226,652
670,1	1220,652
670,5	1213,367
670,9	1203,338
671,4	1189,024
671,8	1181,71
672,3	1178,567
672,7	1165,967
673,1	1155,195
673,6	1147,138
674	1141,252
674,5	1135,081
674,9	1126,224
675,3	1114,481
675,8	1112,71
676,2	1102,595
676,7	1092,967
677,1	1086,567
677,5	1080,795
678	1070,452
678,4	1065,681
678,9	1052,538
679,3	1045,395
679,7	1042,195
680,2	1038,71
680,6	1028,995
681,1	1024,652
681,5	1016,652
681,9	1009,91
682,4	1003,767
682,8	994,452
683,3	986,624
683,7	978,795
684,1	967,938
684,6	960,795
685	954,167
685,5	938,481
685,9	927,967
686,3	917,195
686,8	912,11
687,2	909,652
687,7	905,224
688,1	901,624
688,5	900,452
689	899,024
689,4	889,338
689,9	884,995
690,3	877,595
690,7	871,738
691,2	869,967
691,6	866,881
692	858,338
692,5	855,138
692,9	847,195
693,4	840,167
693,8	834,224
694,2	824,595
694,7	817,252
695,1	812,71
695,6	812,681
696	805,024
696,4	802,738
696,9	796,31
697,3	791,538
697,8	787,338
698,2	780,938
698,6	771,538
699,1	774,567
699,5	767,31
699,9	760,367
700,4	758,167
700,8	755,224
701,3	748,567
701,7	742,167
702,1	731,11
702,6	723,024
703	714,224
703,5	704,252
703,9	699,624
704,3	696,452
704,8	689,681
705,2	685,424
705,6	684,424
706,1	681,938
706,5	683,138
707	677,824
707,4	675,052
707,8	672,881
708,3	670,824
708,7	664,195
709,2	659,795
709,6	653,395
710	646,081
710,5	635,31
710,9	631,567
711,3	623,624
711,8	617,538
712,2	615,338
712,7	603,995
713,1	599,91
713,5	600,681
714	598,195
714,4	590,824
714,8	590,11
715,3	590,052
715,7	588,938
716,2	584,395
716,6	577,824
717	572,995
717,5	570,767
717,9	562,395
718,3	552,881
718,8	552,967
719,2	552,452
719,7	551,481
720,1	544,824
720,5	543,51
721	542,824
721,4	537,881
721,8	529,052
722,3	522,538
722,7	516,681
723,2	515,595
723,6	512,31
724	506,652
724,5	505,852
724,9	505,624
725,3	500,624
725,8	498,11
726,2	490,652
726,7	481,51
727,1	479,51
727,5	474,567
728	464,995
728,4	464,767
728,8	461,624
729,3	461,138
729,7	460,71
730,1	457,767
730,6	452,681
731	453,481
731,5	449,052
731,9	445,024
732,3	441,738
732,8	440,11
733,2	439,538
733,6	439,71
734,1	433,538
734,5	431,967
734,9	422,71
735,4	418,595
735,8	410,367
736,3	396,652
736,7	393,367
737,1	391,052
737,6	387,995
738	395,338
738,4	395,795
738,9	399,11
739,3	407,595
739,7	407,51
740,2	407,91
740,6	406,452
741,1	401,652
741,5	399,652
741,9	395,138
742,4	395,081
742,8	389,167
743,2	388,252
743,7	385,681
744,1	381,567
744,5	380,595
745	378,424
745,4	373,824
745,8	374,881
746,3	369,938
746,7	363,567
747,2	357,881
747,6	350,738
748	351,538
748,5	352,852
748,9	345,452
749,3	345,795
749,8	343,224
750,2	346,595
750,6	342,338
751,1	341,195
751,5	338,824
751,9	339,738
752,4	341,281
752,8	346,995
753,3	341,567
753,7	341,281
754,1	341,424
754,6	332,024
755	329,481
755,4	329,024
755,9	324,824
756,3	328,738
756,7	331,71
757,2	321,224
757,6	318,624
758	320,052
758,5	314,281
758,9	312,967
759,3	306,024
759,8	300,767
760,2	301,567
760,6	307,738
761,1	305,881
761,5	300,224
761,9	296,795
762,4	293,652
762,8	292,824
763,3	292,452
763,7	289,652
764,1	285,11
764,6	283,224
765	279,824
765,4	284,138
765,9	283,567
766,3	280,195
766,7	276,538
767,2	272,624
767,6	275,824
768	270,91
768,5	264,167
768,9	259,51
769,3	258,338
769,8	251,338
770,2	248,91
770,6	244,738
771,1	245,481
771,5	245,595
771,9	246,852
772,4	245,338
772,8	250,938
773,2	253,91
773,7	254,252
774,1	254,91
774,5	250,538
775	247,167
775,4	245,024
775,8	238,767
776,3	234,852
776,7	231,995
777,1	228,024
777,6	229,31
778	229,481
778,4	230,052
778,9	229,281
779,3	228,738
779,7	227,138
780,2	230,881
780,6	230,738
781	229,795
781,5	224,167
781,9	224,795
782,3	220,395
782,8	221,624
783,2	214,938
783,6	212,538
784,1	208,138
784,5	210,138
784,9	208,481
785,4	210,167
785,8	206,195
786,2	204,538
786,7	201,967
787,1	207,881
787,5	206,852
788	202,252
788,4	202,881
788,8	197,538
789,3	200,167
789,7	200,195
790,1	195,224
790,6	197,338
791	195,881
791,4	194,281
791,9	194,852
792,3	194,224
792,7	192,824
793,2	191,167
793,6	185,167
794	183,538
794,5	177,91
794,9	181,167
795,3	179,167
795,8	180,51
796,2	174,338
796,6	173,824
797,1	177,081
797,5	178,71
797,9	173,995
798,4	172,281
798,8	170,338
799,2	172,938
799,7	176,881
800,1	178,367
800,5	178,767
801	180,652
801,4	179,252
801,8	173,081
802,2	170,652
802,7	163,452
803,1	159,852
803,5	156,795
804	149,367
804,4	147,595
804,8	150,767
805,3	151,281
805,7	151,31
806,1	146,881
806,6	150,138
807	153,967
807,4	153,424
807,9	149,31
808,3	152,224
808,7	156,052
809,2	156,938
809,6	158,51
810	160,51
810,4	159,538
810,9	164,252
811,3	163,052
811,7	156,567
812,2	153,252
812,6	142,995
813	143,538
813,5	141,424
813,9	138,024
814,3	128,252
814,8	130,452
815,2	130,081
815,6	133,681
816,1	130,367
816,5	131,824
816,9	132,967
817,3	137,081
817,8	137,395
818,2	137,224
818,6	133,852
819,1	129,195
819,5	125,967
819,9	123,167
820,4	127,395
820,8	123,424
821,2	124,824
821,7	121,31
822,1	119,595
822,5	121,967
822,9	119,71
823,4	116,938
823,8	116,824
824,2	115,31
824,7	116,995
825,1	117,738
825,5	116,595
826	113,052
826,4	109,224
826,8	106,195
827,3	107,967
827,7	108,795
828,1	107,824
828,5	108,51
829	110,395
829,4	107,167
829,8	109,595
830,3	104,71
830,7	103,452
831,1	105,967
831,6	104,995
832	104,91
832,4	108,224
832,8	100,738
833,3	101,567
833,7	94,31
834,1	94,252
834,6	93,71
835	92,367
835,4	88,652
835,8	94,052
836,3	93,281
836,7	99,938
837,1	97,338
837,6	91,795
838	90,995
838,4	88,51
838,9	89,624
839,3	91,91
839,7	90,652
840,1	90,281
840,6	93,195
841	93,967
841,4	93,767
841,9	91,167
842,3	84,424
842,7	80,881
843,1	77,852
843,6	73,595
844	71,967
844,4	78,538
844,9	80,481
845,3	83,881
845,7	83,795
846,2	86,338
846,6	87,338
847	88,481
847,4	86,481
847,9	81,938
848,3	76,052
848,7	79,252
849,2	73,824
849,6	74,024
850	73,71
850,4	67,767
850,9	69,51
851,3	74,338
851,7	72,824
852,2	75,91
852,6	74,538
853	75,052
853,4	78,424
853,9	78,481
854,3	79,481
854,7	81,652
855,2	82,595
855,6	81,881
856	80,852
856,4	77,91
856,9	74,938
857,3	71,252
857,7	71,338
858,2	69,224
858,6	65,995
859	66,595
859,4	68,395
859,9	69,31
860,3	67,452
860,7	63,71
861,1	66,224
861,6	72,538
862	71,052
862,4	67,795
862,9	69,595
863,3	70,11
863,7	68,567
864,1	63,538
864,6	59,167
865	58,395
865,4	63,338
865,9	61,738
866,3	64,538
866,7	63,395
867,1	63,824
867,6	63,91
868	58,824
868,4	53,052
868,8	51,967
869,3	51,481
869,7	55,395
870,1	57,91
870,6	58,452
871	74,395
871,4	77,052
871,8	76,024
872,3	74,51
872,7	67,767
873,1	59,938
873,5	56,338
874	48,652
874,4	49,167
874,8	45,624
875,3	45,824
875,7	47,767
876,1	56,452
876,5	57,31
877	51,452
877,4	49,738
877,8	50,51
878,2	50,195
878,7	52,195
879,1	47,881
879,5	46,281
879,9	40,652
880,4	39,71
880,8	46,567
881,2	40,567
881,7	41,224
882,1	39,31
882,5	41,252
882,9	47,967
883,4	48,881
883,8	44,481
884,2	46,967
884,6	44,052
885,1	45,738
885,5	46,624
885,9	44,881
886,3	45,967
886,8	49,081
887,2	48,567
887,6	46,967
888	46,481
888,5	44,052
888,9	40,767
889,3	36,081
889,8	35,652
890,2	32,795
890,6	36,681
891	36,138
891,5	38,081
891,9	38,538
892,3	41,252
892,7	35,252
893,2	42,195
893,6	36,681
894	39,424
894,4	33,567
894,9	35,024
895,3	31,71
895,7	34,395
896,1	30,281
896,6	33,967
897	35,938
897,4	38,281
897,8	39,881
898,3	43,967
898,7	40,367
899,1	39,195
899,5	41,195
900	35,195
900,4	36,367
900,8	29,91
901,2	25,395
901,7	31,595
902,1	32,567
902,5	31,024
902,9	31,71
903,4	35,681
903,8	38,567
904,2	41,795
904,6	38,738
905,1	41,852
905,5	42,424
905,9	40,881
906,3	37,281
906,8	33,767
907,2	30,967
907,6	27,938
908	23,11
908,5	18,71
908,9	20,824
909,3	20,367
909,7	22,595
910,2	23,252
910,6	26,795
911	30,71
911,4	30,852
911,9	30,881
912,3	30,624
912,7	33,052
913,1	32,738
913,6	33,567
914	36,138
914,4	39,624
914,8	40,11
915,3	42,681
915,7	43,138
916,1	45,938
916,5	42,11
916,9	38,195
917,4	36,281
917,8	33,881
918,2	33,767
918,6	32,252
919,1	30,567
919,5	32,91
919,9	34,081
920,3	34,195
920,8	37,338
921,2	38,252
921,6	40,938
922	36,138
922,5	36,595
922,9	37,995
923,3	39,795
923,7	33,852
924,2	33,281
924,6	28,795
925	34,224
925,4	30,224
925,8	25,767
926,3	20,395
926,7	25,252
927,1	22,967
927,5	26,252
928	24,31
928,4	23,195
928,8	25,738
929,2	30,167
929,7	31,881
930,1	33,881
930,5	30,395
930,9	31,452
931,3	35,167
931,8	33,281
932,2	32,91
932,6	26,424
933	18,138
933,5	20,595
933,9	19,881
934,3	18,624
934,7	19,452
935,2	15,938
935,6	16,767
936	17,367
936,4	15,624
936,8	16,567
937,3	19,424
937,7	18,852
938,1	20,138
938,5	16,795
939	20,967
939,4	21,224
939,8	20,424
940,2	18,681
940,6	17,71
941,1	15,081
941,5	18,11
941,9	17,424
942,3	16,91
942,8	15,538
943,2	9,681
943,6	8,538
944	11,138
944,4	14,967
944,9	10,71
945,3	11,138
945,7	14,11
946,1	15,995
946,6	15,967
947	17,567
947,4	12,881
947,8	18,167
948,2	20,395
948,7	13,652
949,1	18,138
949,5	20,195
949,9	22,224
950,3	19,367
950,8	21,51
951,2	20,624
951,6	23,138
952	20,395
952,5	15,91
952,9	13,91
953,3	17,367
953,7	14,595
954,1	15,852
954,6	19,081
955	23,31
955,4	25,91
955,8	25,967
956,2	25,71
956,7	26,824
957,1	27,424
957,5	23,767
957,9	15,967
958,3	17,31
958,8	17,624
959,2	20,538
959,6	27,252
960	25,852
960,5	24,481
960,9	32,481
961,3	29,052
961,7	31,281
962,1	29,452
962,6	22,567
963	23,681
963,4	30,11
963,8	24,995
964,2	26,195
964,7	24,852
965,1	28,995
965,5	30,024
965,9	28,167
966,3	26,624
966,8	27,51
967,2	31,595
967,6	27,252
968	22,967
968,4	26,052
968,9	22,167
969,3	22,567
969,7	24,681
970,1	21,91
970,5	19,424
971	22,824
971,4	18,195
971,8	22,31
972,2	21,452
972,6	16,567
973,1	12,281
973,5	20,081
973,9	16,11
974,3	11,938
974,7	11,852
975,2	11,795
975,6	14,224
976	18,195
976,4	12,71
976,8	15,252
977,3	19,824
977,7	18,452
978,1	18,824
978,5	20,338
978,9	25,052
979,4	26,967
979,8	23,595
980,2	27,824
980,6	28,31
981	24,195
981,5	22,081
981,9	19,281
982,3	18,338
982,7	17,224
983,1	11,567
983,6	8,681
984	12,71
984,4	14,452
984,8	12,024
985,2	14,995
985,6	15,081
986,1	12,624
986,5	16,481
986,9	12,938
987,3	9,052
987,7	11,91
988,2	6,024
988,6	8,824
989	12,138
989,4	7,195
989,8	12,224
990,3	12,424
990,7	8,852
991,1	11,452
991,5	9,652
991,9	6,281
992,3	9,367
992,8	2,367
993,2	4,51
993,6	4,738
994	9,252
994,4	16,424
994,9	23,767
995,3	24,338
995,7	27,71
996,1	22,91
996,5	20,281
996,9	19,624
997,4	13,167
997,8	9,767
998,2	9,138
998,6	12,452
999	16,795
999,5	21,71
999,9	18,31
1000,3	18,624
1000,7	21,367
1001,1	24,624
1001,5	24,081
1002	24,11
1002,4	22,967
1002,8	24,967
1003,2	22,967
1003,6	19,51
1004	18,31
1004,5	16,967
1004,9	15,452
1005,3	14,995
1005,7	16,652
1006,1	14,51
1006,6	14,852
1007	10,91
1007,4	6,852
1007,8	11,11
1008,2	17,195
1008,6	12,795
1009,1	16,452
1009,5	19,167
1009,9	20,795
1010,3	29,224
1010,7	29,052
1011,1	22,367
1011,6	23,424
1012	24,767
1012,4	21,252
1012,8	19,395
1013,2	13,024
1013,6	13,367
1014,1	13,167
1014,5	14,481
1014,9	15,681
1015,3	15,767
1015,7	21,31
1016,1	23,11
1016,6	26,081
1017	27,224
1017,4	24,481
1017,8	26,852
1018,2	26,281
1018,6	22,595
1019,1	18,51
1019,5	13,281
1019,9	12,11
1020,3	12,224
1020,7	10,481
1021,1	7,624
1021,6	8,852
1022	12,795
1022,4	10,995
1022,8	11,052
1023,2	10,567
1023,6	8,481
1024,1	15,052
1024,5	14,538
1024,9	17,938
1025,3	24,11
1025,7	22,338
1026,1	22,081
1026,6	22,481
1027	15,538
1027,4	18,252
1027,8	12,881
1028,2	10,338
1028,6	14,51
1029	13,852
1029,5	10,481
1029,9	17,052
1030,3	14,767
1030,7	22,567
1031,1	24,767
1031,5	24,31
1032	27,71
1032,4	34,224
1032,8	29,081
1033,2	28,767
1033,6	24,195
1034	16,481
1034,4	15,252
1034,9	18,995
1035,3	19,624
1035,7	18,967
1036,1	24,938
1036,5	18,31
1036,9	20,881
1037,4	20,71
1037,8	14,967
1038,2	12,452
1038,6	16,281
1039	10,395
1039,4	18,252
1039,8	25,795
1040,3	28,938
1040,7	33,138
1041,1	26,881
1041,5	32,424
1041,9	36,195
1042,3	34,052
1042,7	24,338
1043,2	24,395
1043,6	21,138
1044	27,31
1044,4	27,167
1044,8	23,995
1045,2	21,881
1045,6	28,395
1046,1	29,824
1046,5	29,824
1046,9	29,595
1047,3	26,51
1047,7	21,481
1048,1	21,052
1048,5	15,938
1049	10,338
1049,4	8,681
1049,8	9,452
1050,2	6,195
1050,6	9,11
1051	12,824
1051,4	15,938
1051,9	17,795
1052,3	22,681
1052,7	20,567
1053,1	18,824
1053,5	18,51
1053,9	16,452
1054,3	13,481
1054,8	13,681
1055,2	10,51
1055,6	13,71
1056	12,167
1056,4	9,767
1056,8	10,252
1057,2	10,595
1057,6	14,795
1058,1	17,824
1058,5	9,881
1058,9	9,452
1059,3	10,852
1059,7	13,938
1060,1	14,024
1060,5	9,91
1061	4,767
1061,4	8,967
1061,8	14,452
1062,2	17,367
1062,6	15,167
1063	16,852
1063,4	18,538
1063,8	19,995
1064,3	25,367
1064,7	26,452
1065,1	24,481
1065,5	23,938
1065,9	25,795
1066,3	22,71
1066,7	31,452
1067,1	24,738
1067,6	28,081
1068	33,281
1068,4	31,424
1068,8	33,681
1069,2	35,195
1069,6	24,681
1070	28,852
1070,4	21,052
1070,9	17,738
1071,3	21,767
1071,7	15,481
1072,1	13,138
1072,5	16,567
1072,9	15,51
1073,3	15,852
1073,7	14,71
1074,2	12,367
1074,6	13,51
1075	18,167
1075,4	20,595
1075,8	20,167
1076,2	24,252
1076,6	26,481
1077	25,852
1077,5	28,052
1077,9	19,452
1078,3	13,995
1078,7	12,938
1079,1	11,738
1079,5	9,595
1079,9	13,024
1080,3	10,852
1080,7	18,767
1081,2	24,767
1081,6	22,395
1082	23,795
1082,4	25,367
1082,8	21,224
1083,2	18,71
1083,6	13,281
1084	11,338
1084,5	15,824
1084,9	13,367
1085,3	13,71
1085,7	11,024
1086,1	17,51
1086,5	18,338
1086,9	18,024
1087,3	19,195
1087,7	21,71
1088,2	23,595
1088,6	29,11
1089	28,11
1089,4	33,852
1089,8	27,767
1090,2	19,624
1090,6	14,767
1091	10,138
1091,4	8,31
1091,9	5,824
1092,3	7,252
1092,7	13,595
1093,1	21,995
1093,5	24,081
1093,9	25,51
1094,3	24,967
1094,7	23,567
1095,1	24,024
1095,5	25,481
1096	23,195
1096,4	24,224
1096,8	26,567
1097,2	26,538
1097,6	30,71
1098	24,938
1098,4	22,567
1098,8	19,91
1099,2	17,995
1099,6	16,11
1100,1	17,995
1100,5	14,91
1100,9	11,31
1101,3	9,052
1101,7	10,338
1102,1	12,395
1102,5	8,424
1102,9	6,595
1103,3	8,452
1103,7	11,224
1104,2	10,31
1104,6	11,281
1105	8,081
1105,4	12,338
1105,8	10,452
1106,2	6,852
1106,6	5,91
1107	5,595
1107,4	3,367
1107,8	3,887
1108,3	0,667
