Data from Subt2_00041.txt Node
Date: Mon Aug 28 13:18:26 MSK 2023
User: vat
Spectrometer: MAYP114033
Trigger mode: 0
Integration Time (sec): 1,000000E0
Scans to average: 5
Electric dark correction enabled: true
Nonlinearity correction enabled: false
Boxcar width: 3
XAxis mode: Wavelengths
Number of Pixels in Spectrum: 2068
>>>>>Begin Spectral Data<<<<<
199,4	-0,133
199,9	2,387
200,4	0,567
200,8	3,867
201,3	4,552
201,8	7,152
202,2	7,638
202,7	9,152
203,2	10,667
203,6	14,067
204,1	14,152
204,6	17,724
205	17,61
205,5	21,695
206	23,61
206,4	22,981
206,9	24,238
207,4	24,067
207,8	23,267
208,3	25,21
208,8	25,638
209,2	29,01
209,7	27,638
210,2	25,181
210,6	25,352
211,1	23,61
211,5	21,81
212	20,124
212,5	20,067
212,9	23,41
213,4	26,095
213,9	26,038
214,3	24,524
214,8	25,81
215,3	25,352
215,7	21,467
216,2	22,638
216,7	22,352
217,1	24,181
217,6	28,524
218,1	28,524
218,5	26,981
219	27,495
219,5	25,838
219,9	26,524
220,4	26,21
220,9	27,781
221,3	28,838
221,8	30,438
222,3	34,752
222,7	35,667
223,2	38,524
223,6	39,067
224,1	37,867
224,6	35,524
225	36,352
225,5	31,61
226	29,095
226,4	27,895
226,9	24,467
227,4	26,181
227,8	23,752
228,3	26,21
228,8	31,01
229,2	35,867
229,7	35,752
230,2	33,295
230,6	31,781
231,1	35,381
231,5	33,981
232	31,438
232,5	30,41
232,9	27,095
233,4	34,21
233,9	31,267
234,3	30,638
234,8	30,952
235,3	23,924
235,7	19,867
236,2	15,638
236,7	10,267
237,1	14,667
237,6	13,352
238,1	7,924
238,5	16,467
239	16,638
239,4	23,724
239,9	26,838
240,4	22,152
240,8	28,895
241,3	38,867
241,8	36,095
242,2	38,152
242,7	37,61
243,2	33,981
243,6	38,838
244,1	28,552
244,6	25,524
245	31,152
245,5	29,152
245,9	24,581
246,4	26,752
246,9	27,152
247,3	30,638
247,8	26,552
248,3	23,81
248,7	26,124
249,2	29,495
249,7	32,952
250,1	29,352
250,6	32,552
251	31,952
251,5	32,238
252	30,552
252,4	32,495
252,9	30,867
253,4	32,924
253,8	29,124
254,3	30,238
254,8	28,524
255,2	28,924
255,7	30,895
256,1	30,895
256,6	32,267
257,1	33,267
257,5	32,952
258	28,038
258,5	25,267
258,9	20,867
259,4	19,295
259,9	15,895
260,3	17,038
260,8	15,695
261,2	21,181
261,7	25,21
262,2	28,41
262,6	26,295
263,1	26,724
263,6	27,838
264	31,067
264,5	30,01
264,9	27,295
265,4	26,21
265,9	29,038
266,3	30,581
266,8	28,095
267,3	28,295
267,7	30,438
268,2	34,238
268,7	30,067
269,1	31,381
269,6	34,381
270	35,381
270,5	31,981
271	29,152
271,4	27,067
271,9	35,181
272,4	36,067
272,8	30,152
273,3	29,038
273,7	29,067
274,2	28,124
274,7	25,067
275,1	22,067
275,6	21,495
276,1	20,552
276,5	22,495
277	28,095
277,4	27,181
277,9	29,438
278,4	23,638
278,8	24,895
279,3	27,581
279,8	23,61
280,2	19,581
280,7	18,81
281,1	20,667
281,6	21,752
282,1	18,01
282,5	15,067
283	14,81
283,4	16,41
283,9	19,952
284,4	19,495
284,8	20,552
285,3	24,924
285,8	29,01
286,2	31,41
286,7	29,552
287,1	29,067
287,6	28,495
288,1	31,61
288,5	27,867
289	29,181
289,5	30,952
289,9	35,181
290,4	35,381
290,8	33,352
291,3	33,495
291,8	34,752
292,2	33,638
292,7	34,295
293,1	30,352
293,6	29,81
294,1	34,124
294,5	31,095
295	31,581
295,5	31,124
295,9	29,895
296,4	32,61
296,8	31,752
297,3	28,067
297,8	22,838
298,2	21,381
298,7	21,895
299,1	22,41
299,6	20,41
300,1	23,038
300,5	23,81
301	33,21
301,5	32,781
301,9	27,667
302,4	26,324
302,8	27,381
303,3	26,61
303,8	24,924
304,2	19,667
304,7	22,267
305,1	22,981
305,6	25,581
306,1	22,152
306,5	24,924
307	27,838
307,4	29,724
307,9	26,067
308,4	29,752
308,8	29,495
309,3	33,495
309,8	33,152
310,2	31,61
310,7	35,952
311,1	37,124
311,6	37,438
312,1	34,01
312,5	32,924
313	27,524
313,4	34,467
313,9	30,038
314,4	32,495
314,8	31,667
315,3	35,467
315,7	34,981
316,2	39,838
316,7	31,61
317,1	30,352
317,6	27,01
318	26,581
318,5	28,695
319	31,067
319,4	29,181
319,9	31,01
320,3	29,81
320,8	31,924
321,3	30,667
321,7	24,667
322,2	23,781
322,6	22,81
323,1	20,952
323,6	26,41
324	24,981
324,5	27,267
324,9	30,495
325,4	31,838
325,9	29,495
326,3	26,438
326,8	22,038
327,2	25,867
327,7	23,81
328,2	23,352
328,6	22,152
329,1	22,295
329,5	25,695
330	27,181
330,5	23,038
330,9	23,067
331,4	20,781
331,8	23,238
332,3	24,467
332,8	25,838
333,2	26,61
333,7	26,895
334,1	28,895
334,6	31,838
335,1	28,067
335,5	28,524
336	27,81
336,4	27,981
336,9	25,495
337,4	24,724
337,8	24,267
338,3	26,181
338,7	25,61
339,2	26,495
339,7	30,352
340,1	32,41
340,6	29,467
341	28,381
341,5	26,352
342	27,495
342,4	31,381
342,9	28,524
343,3	26,752
343,8	27,867
344,2	31,152
344,7	35,295
345,2	36,381
345,6	33,867
346,1	34,638
346,5	37,781
347	40,124
347,5	38,924
347,9	36,524
348,4	37,61
348,8	34,781
349,3	38,638
349,8	36,238
350,2	37,981
350,7	40,152
351,1	43,267
351,6	43,467
352	49,552
352,5	50,667
353	57,724
353,4	62,438
353,9	70,038
354,3	77,41
354,8	90,324
355,3	103,152
355,7	116,324
356,2	134,61
356,6	157,495
357,1	179,267
357,5	208,295
358	238,81
358,5	279,238
358,9	316,01
359,4	365,638
359,8	421,381
360,3	480,438
360,8	545,667
361,2	625,81
361,7	708,752
362,1	802,895
362,6	900,152
363	1003,667
363,5	1120,124
364	1242,61
364,4	1365,181
364,9	1491,41
365,3	1625,267
365,8	1751,895
366,3	1874,238
366,7	1984,124
367,2	2080,952
367,6	2161,495
368,1	2220,695
368,5	2267,41
369	2301,124
369,5	2301,838
369,9	2292,581
370,4	2266,667
370,8	2218,867
371,3	2163,124
371,7	2090,724
372,2	2008,895
372,7	1922,952
373,1	1825,61
373,6	1724,981
374	1623,381
374,5	1524,038
374,9	1422,124
375,4	1319,524
375,9	1225,838
376,3	1134,638
376,8	1048,61
377,2	971,524
377,7	898,181
378,2	831,067
378,6	764,467
379,1	705,495
379,5	652,324
380	598,267
380,4	553,295
380,9	508,181
381,4	468,552
381,8	438,01
382,3	407,124
382,7	378,552
383,2	355,695
383,6	333,095
384,1	314,61
384,6	300,01
385	279,667
385,5	263,038
385,9	247,867
386,4	235,695
386,8	224,41
387,3	207,295
387,7	190,667
388,2	181,324
388,7	170,695
389,1	157,61
389,6	153,095
390	144,438
390,5	137,095
390,9	129,981
391,4	116,438
391,9	112,124
392,3	112,181
392,8	108,438
393,2	105,267
393,7	102,352
394,1	99,981
394,6	101,524
395,1	99,01
395,5	92,638
396	81,438
396,4	77,924
396,9	77,524
397,3	73,781
397,8	67,552
398,2	66,552
398,7	68,181
399,2	72,324
399,6	72,41
400,1	74,838
400,5	79,267
401	87,895
401,4	87,438
401,9	92,438
402,4	93,81
402,8	91,238
403,3	89,895
403,7	85,638
404,2	86,01
404,6	87,895
405,1	86,095
405,5	80,581
406	82,438
406,5	85,581
406,9	91,61
407,4	94,038
407,8	96,981
408,3	97,981
408,7	103,324
409,2	110,981
409,6	117,752
410,1	121,952
410,6	127,381
411	132,181
411,5	143,924
411,9	157,61
412,4	163,324
412,8	169,01
413,3	177,295
413,7	183,924
414,2	193,152
414,7	202,581
415,1	213,152
415,6	226,438
416	241,838
416,5	259,667
416,9	278,124
417,4	301,238
417,8	319,467
418,3	333,895
418,8	356,61
419,2	378,124
419,7	397,838
420,1	418,352
420,6	431,867
421	456,895
421,5	486,01
421,9	509,695
422,4	535,952
422,8	563,638
423,3	590,01
423,8	620,752
424,2	645,21
424,7	672,695
425,1	706,295
425,6	741,295
426	778,238
426,5	818,552
426,9	863,152
427,4	906,238
427,9	951,552
428,3	1003,01
428,8	1054,41
429,2	1110,781
429,7	1169,981
430,1	1229,01
430,6	1297,267
431	1366,238
431,5	1431,381
431,9	1501,01
432,4	1567,038
432,8	1647,752
433,3	1735,152
433,8	1829,01
434,2	1918,152
434,7	2013,324
435,1	2118,81
435,6	2238,952
436	2350,381
436,5	2456,838
436,9	2571,21
437,4	2694,552
437,8	2821,752
438,3	2948,552
438,8	3083,038
439,2	3226,352
439,7	3382,838
440,1	3532,61
440,6	3697,524
441	3868,952
441,5	4046,238
441,9	4225,438
442,4	4405,495
442,8	4594,267
443,3	4792,524
443,7	4996,21
444,2	5202,21
444,7	5418,124
445,1	5633,924
445,6	5866,267
446	6108,01
446,5	6346,381
446,9	6589,924
447,4	6836,324
447,8	7083,924
448,3	7345,638
448,7	7605,81
449,2	7866,438
449,6	8143,838
450,1	8429,61
450,6	8723,41
451	9018,21
451,5	9324,638
451,9	9642,067
452,4	9969,524
452,8	10287,924
453,3	10615,724
453,7	10945,695
454,2	11296,581
454,6	11640,467
455,1	11979,324
455,5	12318,724
456	12678,724
456,4	13034,238
456,9	13393,695
457,3	13746,895
457,8	14115,552
458,3	14498,838
458,7	14878,524
459,2	15256,838
459,6	15636,324
460,1	16033,381
460,5	16426,21
461	16808,495
461,4	17196,01
461,9	17580,495
462,3	17978,981
462,8	18366,552
463,2	18746,181
463,7	19123,181
464,1	19510,438
464,6	19894,724
465	20270,324
465,5	20638,752
466	21028,095
466,4	21409,381
466,9	21801,667
467,3	22176,552
467,8	22552,438
468,2	22939,095
468,7	23313,81
469,1	23674,067
469,6	24038,724
470	24406,295
470,5	24777,381
470,9	25118,724
471,4	25469,695
471,8	25797,124
472,3	26141,01
472,7	26460,181
473,2	26785,181
473,6	27085,181
474,1	27409,438
474,5	27713,695
475	28036,467
475,4	28330,81
475,9	28632,895
476,4	28901,638
476,8	29173,581
477,3	29429,495
477,7	29677,695
478,2	29923,81
478,6	30155,581
479,1	30361,467
479,5	30570,21
480	30784,581
480,4	30977,095
480,9	31169,61
481,3	31353,124
481,8	31524,438
482,2	31698,81
482,7	31851,152
483,1	31992,41
483,6	32136,667
484	32247,581
484,5	32324,181
484,9	32424,381
485,4	32517,981
485,8	32595,924
486,3	32658,438
486,7	32713,952
487,2	32786,752
487,6	32844,438
488,1	32867,381
488,5	32904,01
489	32935,267
489,4	32951,581
489,9	32948,41
490,4	32917,295
490,8	32908,895
491,3	32888,038
491,7	32831,667
492,2	32776,781
492,6	32718,381
493,1	32655,667
493,5	32600,01
494	32519,238
494,4	32436,41
494,9	32342,467
495,3	32233,895
495,8	32120,324
496,2	32005,838
496,7	31873,381
497,1	31747,867
497,6	31619,924
498	31501,038
498,5	31387,552
498,9	31256,61
499,4	31116,524
499,8	30982,41
500,3	30848,467
500,7	30696,61
501,2	30541,638
501,6	30377,152
502,1	30208,838
502,5	30043,181
503	29876,181
503,4	29689,667
503,9	29507,924
504,3	29332,638
504,8	29152,638
505,2	28971,124
505,7	28784,324
506,1	28587,324
506,6	28381,152
507	28174,638
507,5	27959,752
507,9	27735,752
508,4	27512,095
508,8	27281,438
509,3	27058,781
509,7	26833,41
510,2	26608,438
510,6	26385,695
511,1	26173,61
511,5	25940,152
512	25722,21
512,4	25487,467
512,9	25265,01
513,3	25034,81
513,8	24811,581
514,2	24573,781
514,7	24346,21
515,1	24099,981
515,6	23866,552
516	23614,838
516,5	23387,867
516,9	23139,01
517,4	22891,41
517,8	22673,067
518,3	22451,981
518,7	22205,467
519,2	21986,81
519,6	21750,581
520,1	21522,038
520,5	21296,495
521	21047,724
521,4	20817,581
521,9	20602,981
522,3	20382,41
522,8	20164,524
523,2	19937,638
523,7	19724,81
524,1	19503,61
524,6	19277,438
525	19070,838
525,5	18856,695
525,9	18641,667
526,4	18436,752
526,8	18226,152
527,3	18038,952
527,7	17843,181
528,2	17628,638
528,6	17430,552
529,1	17238,095
529,5	17033,438
530	16835,095
530,4	16642,724
530,9	16448,352
531,3	16274,124
531,8	16080,838
532,2	15886,438
532,6	15711,324
533,1	15532,61
533,5	15353,924
534	15177,895
534,4	15000,81
534,9	14835,41
535,3	14666,267
535,8	14495,21
536,2	14332,067
536,7	14160,981
537,1	14002,895
537,6	13833,352
538	13681,41
538,5	13532,638
538,9	13370,381
539,4	13216,981
539,8	13070,267
540,3	12922,495
540,7	12774,295
541,2	12627,581
541,6	12488,61
542,1	12355,381
542,5	12215,61
543	12079,41
543,4	11938,638
543,9	11811,21
544,3	11680,981
544,8	11548,095
545,2	11422,238
545,7	11295,924
546,1	11165,981
546,5	11052,038
547	10934,067
547,4	10807,638
547,9	10682,381
548,3	10558,495
548,8	10448,238
549,2	10334,41
549,7	10219,181
550,1	10110,095
550,6	10005,924
551	9902,038
551,5	9804,667
551,9	9699,867
552,4	9607,838
552,8	9511,581
553,3	9418,381
553,7	9319,495
554,2	9235,495
554,6	9148,095
555,1	9056,181
555,5	8956,981
555,9	8865,581
556,4	8771,752
556,8	8690,41
557,3	8589,781
557,7	8509,981
558,2	8425,581
558,6	8346,41
559,1	8263,067
559,5	8184,238
560	8106,352
560,4	8026,581
560,9	7943,238
561,3	7863,267
561,8	7786,981
562,2	7707,238
562,7	7634,467
563,1	7553,924
563,6	7489,524
564	7418,981
564,4	7345,152
564,9	7282,21
565,3	7212,81
565,8	7140,638
566,2	7078,638
566,7	7007,552
567,1	6943,124
567,6	6885,267
568	6820,095
568,5	6765,838
568,9	6702,467
569,4	6637,267
569,8	6580,895
570,3	6512,181
570,7	6451,867
571,1	6389,81
571,6	6328,552
572	6278,81
572,5	6217,895
572,9	6164,41
573,4	6121,181
573,8	6074,524
574,3	6023,21
574,7	5971,867
575,2	5916,581
575,6	5868,467
576,1	5812,581
576,5	5749,21
576,9	5687,467
577,4	5636,924
577,8	5586,467
578,3	5539,981
578,7	5489,467
579,2	5442,267
579,6	5397,981
580,1	5358,61
580,5	5312,295
581	5266,667
581,4	5214,01
581,9	5170,324
582,3	5131,867
582,7	5085,438
583,2	5041,695
583,6	4998,781
584,1	4959,752
584,5	4917,267
585	4875,41
585,4	4826,524
585,9	4788,438
586,3	4747,295
586,8	4704,895
587,2	4655,981
587,6	4619,095
588,1	4579,41
588,5	4535,267
589	4492,924
589,4	4457,124
589,9	4421,61
590,3	4397,524
590,8	4365,695
591,2	4337,895
591,7	4312,695
592,1	4290,467
592,5	4262,438
593	4235,295
593,4	4193,752
593,9	4158,81
594,3	4125,524
594,8	4091,952
595,2	4055,181
595,7	4018,352
596,1	3990,067
596,6	3967,724
597	3941,324
597,4	3915,781
597,9	3889,038
598,3	3870,295
598,8	3845,667
599,2	3812,61
599,7	3787,41
600,1	3759,01
600,6	3726,41
601	3703,667
601,4	3670,952
601,9	3643,181
602,3	3625,581
602,8	3596,324
603,2	3574,552
603,7	3551,81
604,1	3527,581
604,6	3499,524
605	3475,924
605,4	3448,695
605,9	3427,295
606,3	3398,81
606,8	3377,295
607,2	3355,981
607,7	3338,438
608,1	3314,124
608,6	3284,581
609	3261,41
609,4	3249,924
609,9	3233,295
610,3	3206,924
610,8	3187,581
611,2	3164,838
611,7	3149,638
612,1	3123,61
612,6	3095,524
613	3063,41
613,4	3036,524
613,9	3010,124
614,3	2991,61
614,8	2963,01
615,2	2946,952
615,7	2931,61
616,1	2913,724
616,6	2903,838
617	2884,524
617,4	2860,524
617,9	2839,752
618,3	2821,552
618,8	2794,381
619,2	2775,781
619,7	2751,095
620,1	2732,695
620,5	2707,467
621	2694,41
621,4	2674,752
621,9	2653,552
622,3	2632,352
622,8	2614,01
623,2	2591,724
623,6	2578,181
624,1	2558,981
624,5	2538,124
625	2514,81
625,4	2502,438
625,9	2483,838
626,3	2467,324
626,8	2455,124
627,2	2434,838
627,6	2416,81
628,1	2407,61
628,5	2384,124
629	2369,524
629,4	2350,952
629,9	2323,238
630,3	2307,324
630,7	2290,067
631,2	2272,524
631,6	2254,61
632,1	2236,124
632,5	2223,095
633	2213,781
633,4	2198,295
633,8	2184,41
634,3	2165,695
634,7	2149,152
635,2	2135,238
635,6	2114,724
636,1	2095,867
636,5	2079,41
636,9	2062,41
637,4	2050,981
637,8	2043,181
638,3	2030,952
638,7	2018,752
639,2	2006,21
639,6	1993,667
640	1977,752
640,5	1960,495
640,9	1945,41
641,4	1931,581
641,8	1915,41
642,2	1907,267
642,7	1895,181
643,1	1891,01
643,6	1882,552
644	1872,924
644,5	1861,695
644,9	1851,667
645,3	1837,895
645,8	1825,295
646,2	1807,21
646,7	1788,867
647,1	1774,067
647,6	1754,495
648	1739,067
648,4	1731,295
648,9	1719,467
649,3	1706,467
649,8	1701,81
650,2	1691,981
650,6	1684,61
651,1	1674,638
651,5	1659,495
652	1652,552
652,4	1645,381
652,9	1629,152
653,3	1610,038
653,7	1599,438
654,2	1587,952
654,6	1570,81
655,1	1554,724
655,5	1540,524
655,9	1530,61
656,4	1523,895
656,8	1512,381
657,3	1510,41
657,7	1504,724
658,2	1499,895
658,6	1488,095
659	1478,552
659,5	1463,381
659,9	1453,267
660,4	1443,61
660,8	1427,752
661,2	1412,381
661,7	1404,552
662,1	1397,781
662,6	1392,324
663	1381,781
663,4	1370,981
663,9	1364,124
664,3	1349,81
664,8	1339,667
665,2	1331,038
665,6	1317,61
666,1	1307,41
666,5	1294,267
667	1285,495
667,4	1283,381
667,9	1274,21
668,3	1264,838
668,7	1255,438
669,2	1240,352
669,6	1227,61
670,1	1219,267
670,5	1207,238
670,9	1195,552
671,4	1182,41
671,8	1177,152
672,3	1175,038
672,7	1169,438
673,1	1162,895
673,6	1155,467
674	1146,067
674,5	1137,952
674,9	1127,067
675,3	1118,524
675,8	1113,181
676,2	1100,838
676,7	1094,867
677,1	1091,067
677,5	1084,01
678	1078,238
678,4	1071,095
678,9	1058,981
679,3	1051,81
679,7	1040,324
680,2	1030,867
680,6	1022,238
681,1	1017,638
681,5	1010,41
681,9	1004,181
682,4	997,524
682,8	987,752
683,3	981,667
683,7	975,61
684,1	966,924
684,6	963,438
685	954,838
685,5	943,267
685,9	939,552
686,3	936,267
686,8	930,952
687,2	922,181
687,7	910,095
688,1	904,952
688,5	902,01
689	901,267
689,4	887,61
689,9	880,295
690,3	877,267
690,7	875,038
691,2	869,295
691,6	865,952
692	857,095
692,5	851,238
692,9	841,924
693,4	834,61
693,8	827,067
694,2	823,638
694,7	816,981
695,1	814,067
695,6	810,781
696	806,324
696,4	799,695
696,9	794,324
697,3	786,552
697,8	783,495
698,2	771,552
698,6	767,381
699,1	766,01
699,5	761,238
699,9	753,895
700,4	751,21
700,8	742,952
701,3	736,381
701,7	727,581
702,1	720,752
702,6	713,295
703	708,581
703,5	700,895
703,9	698,295
704,3	696,181
704,8	691,352
705,2	682,467
705,6	680,438
706,1	674,81
706,5	669,438
707	669,295
707,4	670,352
707,8	669,038
708,3	669,238
708,7	666,524
709,2	664,981
709,6	665,981
710	657,638
710,5	646,781
710,9	643,381
711,3	634,895
711,8	625,524
712,2	618,838
712,7	610,61
713,1	606,324
713,5	602,495
714	596,752
714,4	592,324
714,8	592,581
715,3	590,381
715,7	584,695
716,2	589,181
716,6	583,981
717	582,01
717,5	581,295
717,9	573,438
718,3	569,41
718,8	566,724
719,2	551,581
719,7	551,238
720,1	547,41
720,5	544,467
721	540,724
721,4	537,381
721,8	533,838
722,3	531,838
722,7	525,352
723,2	519,867
723,6	520,781
724	520,952
724,5	515,581
724,9	508,81
725,3	501,267
725,8	496,752
726,2	492,181
726,7	478,981
727,1	471,638
727,5	467,067
728	461,41
728,4	461,581
728,8	458,667
729,3	456,124
729,7	457,438
730,1	454,867
730,6	450,895
731	450,981
731,5	449,524
731,9	448,01
732,3	451,61
732,8	448,095
733,2	448,724
733,6	450,981
734,1	444,81
734,5	442,467
734,9	435,267
735,4	423,981
735,8	421,667
736,3	410,467
736,7	405,124
737,1	405,752
737,6	398,667
738	403,238
738,4	402,41
738,9	400,867
739,3	409,01
739,7	409,267
740,2	407,124
740,6	407,81
741,1	401,667
741,5	400,124
741,9	397,267
742,4	396,581
742,8	389,838
743,2	384,638
743,7	379,295
744,1	377,524
744,5	374,352
745	371,695
745,4	366,781
745,8	366,41
746,3	365,095
746,7	361,81
747,2	359,181
747,6	354,952
748	354,267
748,5	348,81
748,9	345,867
749,3	347,095
749,8	346,867
750,2	343,21
750,6	338,838
751,1	336,667
751,5	337,381
751,9	333,752
752,4	335,781
752,8	333,952
753,3	334,01
753,7	337,638
754,1	335,924
754,6	331,552
755	332,524
755,4	329,324
755,9	332,01
756,3	330,238
756,7	327,295
757,2	321,552
757,6	319,952
758	316,467
758,5	308,41
758,9	306,667
759,3	301,724
759,8	296,61
760,2	297,495
760,6	299,524
761,1	300,467
761,5	300,324
761,9	293,552
762,4	295,81
762,8	296,467
763,3	296,81
763,7	289,324
764,1	284,41
764,6	281,61
765	278,381
765,4	274,095
765,9	276,181
766,3	272,381
766,7	272,981
767,2	271,524
767,6	272,952
768	269,552
768,5	265,524
768,9	259,924
769,3	258,181
769,8	253,267
770,2	248,667
770,6	246,638
771,1	247,324
771,5	248,867
771,9	247,181
772,4	245,01
772,8	243,695
773,2	249,152
773,7	244,267
774,1	246,124
774,5	243,924
775	240,41
775,4	240,981
775,8	241,352
776,3	235,952
776,7	237,724
777,1	234,067
777,6	232,352
778	229,495
778,4	224,467
778,9	221,61
779,3	220,638
779,7	220,638
780,2	216,095
780,6	219,295
781	224,21
781,5	222,552
781,9	225,41
782,3	223,495
782,8	222,467
783,2	224,552
783,6	222,41
784,1	221,181
784,5	221,067
784,9	217,638
785,4	217,038
785,8	212,152
786,2	207,895
786,7	203,267
787,1	200,838
787,5	200,095
788	198,295
788,4	197,324
788,8	195,295
789,3	197,781
789,7	196,095
790,1	197,267
790,6	195,067
791	193,095
791,4	194,924
791,9	194,067
792,3	194,01
792,7	196,838
793,2	192,695
793,6	192,267
794	189,838
794,5	188,095
794,9	192,895
795,3	193,981
795,8	194,552
796,2	190,752
796,6	189,638
797,1	188,467
797,5	185,381
797,9	182,21
798,4	178,067
798,8	174,381
799,2	175,295
799,7	175,324
800,1	176,838
800,5	179,238
801	177,381
801,4	173,067
801,8	168,781
802,2	168,124
802,7	165,267
803,1	164,038
803,5	160,981
804	161,667
804,4	166,152
804,8	168,581
805,3	165,781
805,7	168,467
806,1	164,724
806,6	164,495
807	159,981
807,4	156,524
807,9	150,267
808,3	150,924
808,7	145,095
809,2	146,295
809,6	147,581
810	146,524
810,4	144,067
810,9	149,952
811,3	149,667
811,7	148,981
812,2	149,781
812,6	143,381
813	142,21
813,5	145,01
813,9	140,61
814,3	135,467
814,8	134,467
815,2	134,981
815,6	135,752
816,1	140,181
816,5	136,495
816,9	137,124
817,3	141,981
817,8	143,524
818,2	140,181
818,6	140,095
819,1	135,61
819,5	135,667
819,9	133,124
820,4	132,324
820,8	129,752
821,2	126,438
821,7	119,81
822,1	120,181
822,5	120,781
822,9	120,667
823,4	117,124
823,8	118,352
824,2	120,952
824,7	123,181
825,1	122,981
825,5	117,067
826	111,552
826,4	108,495
826,8	104,352
827,3	103,181
827,7	103,638
828,1	100,581
828,5	105,067
829	110,781
829,4	109,81
829,8	114,01
830,3	115,324
830,7	114,267
831,1	114,324
831,6	110,438
832	105,61
832,4	110,781
832,8	107,067
833,3	100,124
833,7	96,152
834,1	91,581
834,6	91,81
835	94,352
835,4	88,924
835,8	88,21
836,3	90,095
836,7	93,924
837,1	97,324
837,6	92,238
838	90,095
838,4	88,581
838,9	91,295
839,3	91,352
839,7	91,667
840,1	91,095
840,6	96,524
841	96,695
841,4	95,381
841,9	92,267
842,3	94,21
842,7	89,381
843,1	88,924
843,6	86,638
844	84,524
844,4	89,867
844,9	91,467
845,3	90,867
845,7	93,667
846,2	95,038
846,6	96,381
847	100,038
847,4	100,867
847,9	96,01
848,3	92,124
848,7	89,667
849,2	83,924
849,6	81,124
850	80,495
850,4	74,81
850,9	73,781
851,3	74,438
851,7	73,41
852,2	74,467
852,6	75,867
853	75,381
853,4	77,581
853,9	82,238
854,3	86,838
854,7	87,41
855,2	88,467
855,6	86,124
856	85,895
856,4	82,01
856,9	80,81
857,3	73,667
857,7	77,581
858,2	76,324
858,6	73,895
859	71,238
859,4	73,41
859,9	71,124
860,3	71,61
860,7	64,781
861,1	68,267
861,6	72,495
862	74,895
862,4	73,124
862,9	72,324
863,3	72,267
863,7	74,267
864,1	69,81
864,6	71,295
865	68,838
865,4	67,752
865,9	69,152
866,3	71,524
866,7	71,095
867,1	70,895
867,6	69,467
868	65,638
868,4	66,952
868,8	66,152
869,3	69,781
869,7	70,924
870,1	74,467
870,6	71,695
871	59,095
871,4	61,81
871,8	59,924
872,3	52,267
872,7	47,152
873,1	37,724
873,5	34,238
874	49,867
874,4	46,21
874,8	45,238
875,3	45,724
875,7	46,352
876,1	56,981
876,5	54,867
877	52,067
877,4	52,667
877,8	50,095
878,2	54,095
878,7	58,267
879,1	53,381
879,5	54,152
879,9	51,695
880,4	49,638
880,8	57,038
881,2	49,981
881,7	50,752
882,1	48,21
882,5	50,21
882,9	54,124
883,4	55,981
883,8	47,895
884,2	51,124
884,6	44,21
885,1	41,81
885,5	40,438
885,9	39,781
886,3	39,438
886,8	44,181
887,2	43,067
887,6	45,067
888	48,524
888,5	48,41
888,9	46,695
889,3	45,038
889,8	45,867
890,2	46,352
890,6	47,381
891	49,21
891,5	51,267
891,9	50,095
892,3	54,41
892,7	49,21
893,2	49,01
893,6	43,981
894	39,838
894,4	38,752
894,9	40,295
895,3	35,981
895,7	37,524
896,1	37,467
896,6	40,81
897	45,952
897,4	48,124
897,8	49,695
898,3	52,695
898,7	48,781
899,1	51,21
899,5	53,895
900	48,438
900,4	43,838
900,8	35,21
901,2	30,581
901,7	35,038
902,1	32,238
902,5	27,41
902,9	30,467
903,4	32,124
903,8	35,095
904,2	37,838
904,6	35,667
905,1	35,667
905,5	42,181
905,9	41,667
906,3	43,124
906,8	42,381
907,2	40,781
907,6	43,81
908	41,41
908,5	34,867
908,9	31,581
909,3	28,952
909,7	35,695
910,2	37,924
910,6	34,838
911	38,838
911,4	42,181
911,9	43,695
912,3	45,438
912,7	40,924
913,1	37,095
913,6	41,01
914	41,895
914,4	40,581
914,8	44,038
915,3	42,067
915,7	45,467
916,1	45,41
916,5	41,238
916,9	37,095
917,4	36,467
917,8	28,152
918,2	33,267
918,6	27,495
919,1	28,924
919,5	32,952
919,9	33,467
920,3	36,838
920,8	41,867
921,2	37,067
921,6	38,01
922	33,838
922,5	32,324
922,9	30,838
923,3	29,952
923,7	29,495
924,2	30,867
924,6	32,352
925	35,61
925,4	36,01
925,8	36,524
926,3	33,552
926,7	34,124
927,1	34,752
927,5	39,781
928	40,295
928,4	35,267
928,8	36,81
929,2	38,467
929,7	42,41
930,1	41,467
930,5	35,181
930,9	37,381
931,3	44,524
931,8	45,124
932,2	42,01
932,6	40,095
933	33,952
933,5	36,21
933,9	33,495
934,3	26,067
934,7	27,667
935,2	30,067
935,6	24,838
936	22,41
936,4	22,41
936,8	23,61
937,3	30,895
937,7	30,695
938,1	32,152
938,5	33,952
939	37,352
939,4	35,61
939,8	36,552
940,2	32,61
940,6	28,781
941,1	24,867
941,5	23,838
941,9	26,267
942,3	26,81
942,8	23,981
943,2	20,181
943,6	20,038
944	21,952
944,4	22,781
944,9	20,067
945,3	21,724
945,7	22,438
946,1	24,781
946,6	22,381
947	22,067
947,4	18,581
947,8	25,067
948,2	27,552
948,7	24,552
949,1	26,524
949,5	27,467
949,9	30,067
950,3	31,638
950,8	30,61
951,2	24,752
951,6	30,524
952	30,552
952,5	28,924
952,9	24,01
953,3	23,21
953,7	16,981
954,1	17,267
954,6	13,295
955	15,152
955,4	17,524
955,8	23,238
956,2	23,352
956,7	29,81
957,1	31,552
957,5	29,752
957,9	22,352
958,3	24,924
958,8	24,781
959,2	26,381
959,6	29,181
960	30,295
960,5	31,524
960,9	37,838
961,3	37,638
961,7	35,838
962,1	37,124
962,6	33,038
963	34,61
963,4	39,21
963,8	34,895
964,2	31,61
964,7	29,381
965,1	30,152
965,5	29,581
965,9	24,638
966,3	23,667
966,8	25,152
967,2	29,295
967,6	32,01
968	30,181
968,4	34,067
968,9	37,867
969,3	35,867
969,7	31,924
970,1	29,01
970,5	27,267
971	28,238
971,4	23,81
971,8	17,924
972,2	14,295
972,6	17,952
973,1	15,781
973,5	14,352
973,9	10,181
974,3	12,61
974,7	13,324
975,2	14,667
975,6	12,952
976	17,181
976,4	16,352
976,8	21,324
977,3	17,981
977,7	19,267
978,1	25,124
978,5	27,781
978,9	25,924
979,4	25,895
979,8	22,524
980,2	27,41
980,6	30,552
981	22,781
981,5	19,067
981,9	21,067
982,3	21,867
982,7	23,21
983,1	19,41
983,6	16,61
984	24,01
984,4	24,61
984,8	25,01
985,2	28,781
985,6	28,895
986,1	24,267
986,5	27,895
986,9	20,467
987,3	20,21
987,7	21,124
988,2	15,038
988,6	14,352
989	21,981
989,4	16,895
989,8	21,638
990,3	26,41
990,7	19,781
991,1	18,895
991,5	17,752
991,9	13,867
992,3	13,667
992,8	10,038
993,2	8,067
993,6	10,867
994	15,981
994,4	18,952
994,9	21,41
995,3	26,724
995,7	26,152
996,1	25,238
996,5	25,981
996,9	28,952
997,4	25,638
997,8	26,981
998,2	29,095
998,6	32,038
999	33,067
999,5	32,895
999,9	27,152
1000,3	30,352
1000,7	30,495
1001,1	26,981
1001,5	26,61
1002	26,352
1002,4	25,352
1002,8	29,038
1003,2	27,867
1003,6	26,067
1004	25,067
1004,5	23,438
1004,9	22,01
1005,3	18,438
1005,7	20,467
1006,1	20,352
1006,6	18,524
1007	13,267
1007,4	13,095
1007,8	17,267
1008,2	24,981
1008,6	15,895
1009,1	12,581
1009,5	16,524
1009,9	21,438
1010,3	23,01
1010,7	18,781
1011,1	14,067
1011,6	15,895
1012	20,038
1012,4	16,181
1012,8	14,152
1013,2	13,752
1013,6	17,867
1014,1	15,838
1014,5	21,724
1014,9	19,981
1015,3	17,695
1015,7	18,067
1016,1	20,124
1016,6	20,352
1017	23,524
1017,4	19,924
1017,8	23,181
1018,2	22,01
1018,6	25,495
1019,1	20,324
1019,5	18,495
1019,9	19,067
1020,3	19,781
1020,7	18,381
1021,1	18,752
1021,6	17,895
1022	23,21
1022,4	19,495
1022,8	18,324
1023,2	15,438
1023,6	14,61
1024,1	20,267
1024,5	19,781
1024,9	20,295
1025,3	26,352
1025,7	26,695
1026,1	25,181
1026,6	28,924
1027	26,752
1027,4	28,552
1027,8	23,895
1028,2	23,724
1028,6	22,61
1029	23,952
1029,5	21,838
1029,9	22,981
1030,3	20,61
1030,7	24,095
1031,1	24,324
1031,5	24,81
1032	26,781
1032,4	29,238
1032,8	27,61
1033,2	25,552
1033,6	24,638
1034	16,667
1034,4	18,61
1034,9	25,752
1035,3	22,067
1035,7	22,21
1036,1	30,552
1036,5	31,638
1036,9	38,81
1037,4	41,495
1037,8	36,61
1038,2	40,581
1038,6	42,667
1039	36,067
1039,4	39,638
1039,8	42,324
1040,3	41,038
1040,7	45,981
1041,1	38,038
1041,5	38,552
1041,9	41,267
1042,3	41,295
1042,7	35,238
1043,2	34,038
1043,6	32,667
1044	38,124
1044,4	38,267
1044,8	37,324
1045,2	33,638
1045,6	36,895
1046,1	37,867
1046,5	30,667
1046,9	27,867
1047,3	27,552
1047,7	25,181
1048,1	22,467
1048,5	18,924
1049	16,295
1049,4	18,124
1049,8	23,667
1050,2	26,152
1050,6	27,924
1051	33,467
1051,4	31,867
1051,9	33,095
1052,3	32,238
1052,7	27,895
1053,1	22,895
1053,5	20,181
1053,9	18,324
1054,3	16,781
1054,8	12,924
1055,2	15,867
1055,6	18,181
1056	19,095
1056,4	24,667
1056,8	26,095
1057,2	32,867
1057,6	39,952
1058,1	37,695
1058,5	34,867
1058,9	35,067
1059,3	33,067
1059,7	29,552
1060,1	27,61
1060,5	22,21
1061	23,038
1061,4	20,495
1061,8	21,01
1062,2	20,552
1062,6	24,038
1063	23,067
1063,4	27,267
1063,8	27,867
1064,3	35,067
1064,7	38,467
1065,1	40,924
1065,5	40,41
1065,9	44,495
1066,3	42,952
1066,7	45,152
1067,1	40,552
1067,6	40,781
1068	43,124
1068,4	40,181
1068,8	34,895
1069,2	34,438
1069,6	31,752
1070	36,581
1070,4	28,21
1070,9	23,495
1071,3	24,952
1071,7	22,952
1072,1	19,295
1072,5	22,524
1072,9	18,638
1073,3	21,038
1073,7	19,267
1074,2	20,924
1074,6	21,552
1075	28,324
1075,4	26,01
1075,8	20,352
1076,2	21,638
1076,6	21,41
1077	20,495
1077,5	26,952
1077,9	19,295
1078,3	13,952
1078,7	19,267
1079,1	21,152
1079,5	22,638
1079,9	22,781
1080,3	18,381
1080,7	23,81
1081,2	28,095
1081,6	27,495
1082	28,438
1082,4	28,752
1082,8	28,324
1083,2	25,352
1083,6	22,295
1084	19,838
1084,5	20,295
1084,9	13,467
1085,3	12,352
1085,7	11,581
1086,1	17,21
1086,5	16,667
1086,9	18,067
1087,3	22,067
1087,7	30,21
1088,2	30,695
1088,6	29,752
1089	28,952
1089,4	33,895
1089,8	34,067
1090,2	28,838
1090,6	25,238
1091	21,81
1091,4	21,524
1091,9	23,038
1092,3	20,124
1092,7	19,095
1093,1	21,21
1093,5	19,924
1093,9	23,152
1094,3	23,01
1094,7	19,781
1095,1	19,838
1095,5	19,352
1096	19,724
1096,4	20,81
1096,8	21,238
1097,2	22,295
1097,6	22,181
1098	22,181
1098,4	25,352
1098,8	24,61
1099,2	25,381
1099,6	26,467
1100,1	26,467
1100,5	23,924
1100,9	23,695
1101,3	19,695
1101,7	18,524
1102,1	18,295
1102,5	14,524
1102,9	11,781
1103,3	15,924
1103,7	18,095
1104,2	20,21
1104,6	21,752
1105	18,724
1105,4	20,81
1105,8	20,067
1106,2	16,267
1106,6	10,781
1107	8,352
1107,4	4,7
1107,8	4,867
1108,3	0,717
