Data from Subt2_00031.txt Node
Date: Mon Aug 28 13:14:16 MSK 2023
User: vat
Spectrometer: MAYP114033
Trigger mode: 0
Integration Time (sec): 1,000000E0
Scans to average: 5
Electric dark correction enabled: true
Nonlinearity correction enabled: false
Boxcar width: 3
XAxis mode: Wavelengths
Number of Pixels in Spectrum: 2068
>>>>>Begin Spectral Data<<<<<
199,4	0,6
199,9	-1,9
200,4	-0,633
200,8	2,014
201,3	2,214
201,8	6,614
202,2	7,7
202,7	9,9
203,2	14,843
203,6	14,329
204,1	17,386
204,6	21,157
205	21,757
205,5	23,643
206	23,557
206,4	21,843
206,9	22,614
207,4	21,643
207,8	22,329
208,3	22,071
208,8	24,071
209,2	24,986
209,7	26,614
210,2	23,329
210,6	24,1
211,1	20,614
211,5	21,3
212	18,471
212,5	19,243
212,9	19,186
213,4	26,557
213,9	27,5
214,3	29,329
214,8	27,329
215,3	26,786
215,7	27,186
216,2	29,9
216,7	28,471
217,1	27,5
217,6	27,871
218,1	27,357
218,5	26,557
219	25,814
219,5	23,243
219,9	22,5
220,4	18,7
220,9	19,1
221,3	22,3
221,8	24,729
222,3	29,3
222,7	27,414
223,2	27,986
223,6	29,643
224,1	30,186
224,6	27,043
225	22,7
225,5	14,614
226	16,3
226,4	16,586
226,9	17,071
227,4	14,243
227,8	15,129
228,3	18,7
228,8	20,643
229,2	24,843
229,7	25,471
230,2	19,843
230,6	17,1
231,1	13,557
231,5	15,129
232	18,957
232,5	16,157
232,9	9,529
233,4	15,243
233,9	20,471
234,3	24,557
234,8	22,157
235,3	16,671
235,7	13,986
236,2	18,557
236,7	14,414
237,1	20,9
237,6	20,5
238,1	20,529
238,5	24,071
239	21,957
239,4	23,329
239,9	26,786
240,4	17,043
240,8	17,529
241,3	22,671
241,8	22,557
242,2	30,014
242,7	31,614
243,2	31,157
243,6	38,843
244,1	34,814
244,6	32,129
245	33,243
245,5	30,643
245,9	25,843
246,4	24,386
246,9	22,529
247,3	24,157
247,8	21,843
248,3	21,671
248,7	22,329
249,2	22,386
249,7	24,329
250,1	17,186
250,6	19,3
251	19,5
251,5	20,786
252	17,014
252,4	20,471
252,9	17,414
253,4	25,729
253,8	25,671
254,3	24,129
254,8	20,729
255,2	19,843
255,7	21,414
256,1	27,5
256,6	23,7
257,1	25,9
257,5	29,357
258	28,786
258,5	29,986
258,9	27,986
259,4	26,129
259,9	24,443
260,3	19,586
260,8	15,814
261,2	17,729
261,7	18,529
262,2	17,757
262,6	11,843
263,1	14,071
263,6	15,471
264	19,986
264,5	17,9
264,9	19,414
265,4	16,271
265,9	20,786
266,3	19,329
266,8	20,386
267,3	17,843
267,7	16,5
268,2	16,129
268,7	22,5
269,1	23,614
269,6	28,3
270	25,329
270,5	23,214
271	28,071
271,4	30,843
271,9	27,871
272,4	26,957
272,8	23,814
273,3	23,7
273,7	24,986
274,2	23,271
274,7	16,871
275,1	18,9
275,6	18,014
276,1	14,729
276,5	17,557
277	18,843
277,4	19,1
277,9	21,529
278,4	18,1
278,8	19,1
279,3	21,9
279,8	19,386
280,2	18,214
280,7	15,843
281,1	15,929
281,6	18,9
282,1	16,329
282,5	13,5
283	16,529
283,4	18,186
283,9	21,014
284,4	23,3
284,8	21,214
285,3	27,871
285,8	30,7
286,2	24,157
286,7	22,3
287,1	22,929
287,6	21,729
288,1	26,757
288,5	23,043
289	27,7
289,5	30,357
289,9	36,986
290,4	40,614
290,8	39,5
291,3	33,557
291,8	32,786
292,2	26,643
292,7	28,957
293,1	25,414
293,6	18,129
294,1	21,271
294,5	24,843
295	27,243
295,5	23,671
295,9	26,729
296,4	26,643
296,8	27,986
297,3	24,843
297,8	19,814
298,2	18,614
298,7	20,471
299,1	19,443
299,6	15,271
300,1	17,643
300,5	18,157
301	18,129
301,5	14,014
301,9	15,871
302,4	12,986
302,8	13,071
303,3	13,843
303,8	13,214
304,2	14,386
304,7	21,014
305,1	21,129
305,6	25,557
306,1	27,814
306,5	27,929
307	27,471
307,4	27,614
307,9	22,271
308,4	24,129
308,8	22,529
309,3	25,529
309,8	24,9
310,2	25,643
310,7	29,557
311,1	32,7
311,6	30,814
312,1	27,643
312,5	24,271
313	19,614
313,4	25,671
313,9	20,757
314,4	20,186
314,8	19,814
315,3	21,129
315,7	21,643
316,2	28,1
316,7	19,671
317,1	19,643
317,6	15,786
318	22,071
318,5	22,957
319	26,643
319,4	24,014
319,9	24,214
320,3	25,386
320,8	31,043
321,3	25,243
321,7	22,071
322,2	19,043
322,6	13,9
323,1	15,957
323,6	20,157
324	18,871
324,5	21,7
324,9	24,214
325,4	22,986
325,9	26,014
326,3	25,014
326,8	20,671
327,2	21,243
327,7	16,957
328,2	14,5
328,6	12,5
329,1	9,529
329,5	7,9
330	8,814
330,5	6,357
330,9	6,786
331,4	12,043
331,8	17,271
332,3	21,357
332,8	22,671
333,2	24,9
333,7	22,471
334,1	24,929
334,6	24,071
335,1	21,014
335,5	20,729
336	20,414
336,4	17,557
336,9	18,586
337,4	19,671
337,8	17,414
338,3	20,329
338,7	20,757
339,2	24,814
339,7	27,671
340,1	24,871
340,6	20,643
341	18,871
341,5	20,443
342	22,643
342,4	22,271
342,9	24,729
343,3	32,329
343,8	30,7
344,2	36,414
344,7	37,329
345,2	34,643
345,6	35,9
346,1	34,843
346,5	30,843
347	34,386
347,5	31,186
347,9	26,186
348,4	26,414
348,8	22,014
349,3	21,671
349,8	23,5
350,2	25,557
350,7	30,157
351,1	34,214
351,6	38,757
352	43,986
352,5	47,986
353	54,243
353,4	59,157
353,9	61,757
354,3	70,529
354,8	76,729
355,3	90,414
355,7	98,529
356,2	111,614
356,6	129,157
357,1	154,814
357,5	176,814
358	205,7
358,5	235,9
358,9	277,243
359,4	315,786
359,8	361,1
360,3	406,129
360,8	462,729
361,2	525,757
361,7	593,614
362,1	662,243
362,6	744,3
363	827,157
363,5	923,243
364	1028,929
364,4	1133,871
364,9	1239,843
365,3	1345,157
365,8	1444,929
366,3	1539,414
366,7	1621,614
367,2	1687,586
367,6	1739,157
368,1	1779,586
368,5	1809,443
369	1823,586
369,5	1823,271
369,9	1809,729
370,4	1783,443
370,8	1749,786
371,3	1696,557
371,7	1642,871
372,2	1580,071
372,7	1506,871
373,1	1430,871
373,6	1343,1
374	1256,071
374,5	1175,071
374,9	1088,557
375,4	1003,671
375,9	927,929
376,3	852,071
376,8	789,386
377,2	729,729
377,7	678,186
378,2	626,043
378,6	583,271
379,1	535,7
379,5	494,957
380	455,529
380,4	420,557
380,9	383,957
381,4	352,471
381,8	322,757
382,3	303,986
382,7	281,929
383,2	262,3
383,6	245,329
384,1	230,671
384,6	218,843
385	210,586
385,5	198,043
385,9	188,071
386,4	177,186
386,8	165,129
387,3	152,186
387,7	141,157
388,2	126,9
388,7	118,757
389,1	106,871
389,6	101,386
390	100,957
390,5	94,9
390,9	88,671
391,4	80,357
391,9	79,9
392,3	84,5
392,8	80,786
393,2	78,043
393,7	74,557
394,1	75,414
394,6	79,157
395,1	72,643
395,5	63,557
396	59,814
396,4	53,157
396,9	55,243
397,3	53,386
397,8	47,5
398,2	48,014
398,7	54,586
399,2	60,1
399,6	60,414
400,1	65,3
400,5	67,243
401	74,386
401,4	75,786
401,9	70,557
402,4	70,786
402,8	70,643
403,3	67,529
403,7	67,529
404,2	66,471
404,6	65,186
405,1	67,986
405,5	66,043
406	67,386
406,5	69,043
406,9	71,871
407,4	72,843
407,8	79,414
408,3	85,586
408,7	89,157
409,2	101,329
409,6	109,471
410,1	112,7
410,6	119,586
411	124,843
411,5	132,271
411,9	145,043
412,4	150,557
412,8	156,014
413,3	167,871
413,7	182,9
414,2	194,157
414,7	205,157
415,1	211,9
415,6	219,386
416	237,157
416,5	250,9
416,9	266,529
417,4	286,5
417,8	299,471
418,3	317,529
418,8	341,3
419,2	356,386
419,7	378,471
420,1	393,1
420,6	404,014
421	433,643
421,5	460,271
421,9	484,871
422,4	513,5
422,8	536,443
423,3	562,071
423,8	595,243
424,2	624,157
424,7	655,243
425,1	685,214
425,6	716,071
426	750,986
426,5	794,1
426,9	840,557
427,4	880,5
427,9	928,1
428,3	980,186
428,8	1029,157
429,2	1085,729
429,7	1139,186
430,1	1191,7
430,6	1255,757
431	1317,7
431,5	1375,043
431,9	1447,329
432,4	1519,9
432,8	1603,929
433,3	1689,557
433,8	1776,357
434,2	1861,814
434,7	1962,586
435,1	2062,671
435,6	2164,986
436	2268,757
436,5	2375,843
436,9	2490,757
437,4	2616,671
437,8	2742,586
438,3	2874,386
438,8	3011,757
439,2	3150,871
439,7	3298,1
440,1	3447,586
440,6	3601,014
441	3765,043
441,5	3932,757
441,9	4105,529
442,4	4283,671
442,8	4473,043
443,3	4665,243
443,7	4866,929
444,2	5070,043
444,7	5280,786
445,1	5502,271
445,6	5731,757
446	5967,814
446,5	6204,557
446,9	6438,014
447,4	6688,557
447,8	6935,871
448,3	7183,043
448,7	7447,271
449,2	7711,386
449,6	7988,729
450,1	8276,014
450,6	8553,5
451	8838,214
451,5	9147,757
451,9	9448,814
452,4	9762,157
452,8	10076,5
453,3	10392,671
453,7	10725,614
454,2	11076,043
454,6	11409,443
455,1	11748,614
455,5	12084,986
456	12424,843
456,4	12776,814
456,9	13127,814
457,3	13481,186
457,8	13846,1
458,3	14211,329
458,7	14580,871
459,2	14957,186
459,6	15348,443
460,1	15730,157
460,5	16109,386
461	16490,643
461,4	16879,414
461,9	17262,471
462,3	17649,3
462,8	18023,214
463,2	18413,471
463,7	18803,5
464,1	19177,557
464,6	19546,414
465	19927,214
465,5	20303,986
466	20695,157
466,4	21072,214
466,9	21440,786
467,3	21810,5
467,8	22190,357
468,2	22559,986
468,7	22928,871
469,1	23280,786
469,6	23635,186
470	23994,5
470,5	24361,414
470,9	24709,614
471,4	25055,957
471,8	25381,129
472,3	25708,3
472,7	26035,557
473,2	26356,871
473,6	26659,871
474,1	26960,557
474,5	27251,814
475	27569,786
475,4	27862,271
475,9	28138,129
476,4	28419,557
476,8	28684,814
477,3	28943,071
477,7	29204,643
478,2	29432,757
478,6	29668,214
479,1	29874,271
479,5	30074,671
480	30283,557
480,4	30473,186
480,9	30661,271
481,3	30836,614
481,8	30998,386
482,2	31157,643
482,7	31310,414
483,1	31449,929
483,6	31600,243
484	31717,1
484,5	31839,014
484,9	31943,529
485,4	32058,471
485,8	32137,871
486,3	32212,957
486,7	32262,3
487,2	32317,7
487,6	32368,557
488,1	32410,3
488,5	32431,329
489	32457,357
489,4	32457,671
489,9	32476,129
490,4	32457,157
490,8	32430,386
491,3	32396,586
491,7	32366,929
492,2	32315,986
492,6	32271,157
493,1	32184,757
493,5	32115,471
494	32027,214
494,4	31937,843
494,9	31832,043
495,3	31720,986
495,8	31627,9
496,2	31524,643
496,7	31410,614
497,1	31302,157
497,6	31198,329
498	31089,7
498,5	30991,7
498,9	30850,929
499,4	30725,643
499,8	30588,471
500,3	30446,557
500,7	30292,157
501,2	30122,7
501,6	29948,586
502,1	29774,929
502,5	29602,871
503	29432,957
503,4	29253,3
503,9	29077,7
504,3	28920,643
504,8	28727,5
505,2	28547,586
505,7	28362,443
506,1	28177,5
506,6	27970,443
507	27758,471
507,5	27534,529
507,9	27332,357
508,4	27123,586
508,8	26913,443
509,3	26684,9
509,7	26481,529
510,2	26266,643
510,6	26045,671
511,1	25818,786
511,5	25581,843
512	25345,671
512,4	25112,414
512,9	24872,557
513,3	24636,214
513,8	24405,557
514,2	24168,757
514,7	23943,814
515,1	23717,614
515,6	23487,7
516	23259,786
516,5	23018,5
516,9	22786,929
517,4	22564,157
517,8	22330,443
518,3	22095,7
518,7	21865,786
519,2	21632,157
519,6	21398,557
520,1	21171,3
520,5	20949,043
521	20729,5
521,4	20508,414
521,9	20290,014
522,3	20067,3
522,8	19858,957
523,2	19640,071
523,7	19419,271
524,1	19186,9
524,6	18957,9
525	18752,786
525,5	18542,471
525,9	18336,014
526,4	18131,043
526,8	17922,3
527,3	17739,9
527,7	17552,186
528,2	17353,329
528,6	17163,1
529,1	16969,414
529,5	16778,014
530	16589,3
530,4	16393,871
530,9	16193,271
531,3	16006,243
531,8	15821,043
532,2	15635,186
532,6	15455,471
533,1	15278,671
533,5	15107,671
534	14945,329
534,4	14770,357
534,9	14599,871
535,3	14441,3
535,8	14268,814
536,2	14109,3
536,7	13933,786
537,1	13770,3
537,6	13610,471
538	13451,071
538,5	13291,414
538,9	13145,357
539,4	12988,329
539,8	12845,014
540,3	12701,986
540,7	12564,1
541,2	12420,586
541,6	12285,157
542,1	12143,071
542,5	12004,786
543	11878,186
543,4	11739,071
543,9	11608,929
544,3	11487,614
544,8	11356,614
545,2	11229,157
545,7	11111,7
546,1	10983,129
546,5	10866,814
547	10742,014
547,4	10622,529
547,9	10504,5
548,3	10385,243
548,8	10269,157
549,2	10162,043
549,7	10050,5
550,1	9940,786
550,6	9833,443
551	9730,786
551,5	9632,1
551,9	9529,014
552,4	9423,329
552,8	9336,329
553,3	9238,129
553,7	9144,9
554,2	9052,271
554,6	8967,271
555,1	8869,129
555,5	8790,7
555,9	8695,557
556,4	8614,071
556,8	8526,9
557,3	8435,329
557,7	8352,957
558,2	8273,1
558,6	8192,329
559,1	8111,071
559,5	8034,957
560	7963,729
560,4	7881,5
560,9	7801,586
561,3	7734,986
561,8	7649,271
562,2	7566,814
562,7	7493,214
563,1	7416,129
563,6	7348,329
564	7275,1
564,4	7201,043
564,9	7136,871
565,3	7073,814
565,8	6999,986
566,2	6929,929
566,7	6870,1
567,1	6806,586
567,6	6746,557
568	6688,786
568,5	6630,871
568,9	6570,729
569,4	6514,9
569,8	6449,9
570,3	6391,443
570,7	6330,786
571,1	6267,7
571,6	6208,757
572	6155,557
572,5	6095,443
572,9	6039,557
573,4	5984,986
573,8	5932,443
574,3	5878,843
574,7	5833,729
575,2	5783,014
575,6	5730,643
576,1	5688,757
576,5	5637,586
576,9	5581,814
577,4	5536,043
577,8	5477,671
578,3	5427,386
578,7	5381,071
579,2	5331,214
579,6	5285,814
580,1	5247,243
580,5	5200,957
581	5160,214
581,4	5118,186
581,9	5076,071
582,3	5030,986
582,7	4986,329
583,2	4942,071
583,6	4896,671
584,1	4858,586
584,5	4816,7
585	4773,414
585,4	4734,786
585,9	4695,529
586,3	4660,214
586,8	4619,471
587,2	4583,671
587,6	4543,614
588,1	4508,014
588,5	4466,271
589	4429,014
589,4	4387,014
589,9	4356,1
590,3	4318,414
590,8	4284,9
591,2	4253,329
591,7	4228,814
592,1	4199,3
592,5	4174,043
593	4146,129
593,4	4111,043
593,9	4073,843
594,3	4041,843
594,8	4011,357
595,2	3978,643
595,7	3943,471
596,1	3916,786
596,6	3890,386
597	3868,757
597,4	3842,557
597,9	3806,643
598,3	3780,014
598,8	3752,986
599,2	3721,471
599,7	3697,443
600,1	3674,3
600,6	3647,043
601	3630,071
601,4	3606,586
601,9	3584,357
602,3	3560,443
602,8	3528,7
603,2	3497,957
603,7	3472,7
604,1	3444,386
604,6	3419,043
605	3395,357
605,4	3367,357
605,9	3344,243
606,3	3328,529
606,8	3301,9
607,2	3282,9
607,7	3259,7
608,1	3238,414
608,6	3217,329
609	3198,814
609,4	3170,471
609,9	3153,043
610,3	3133,957
610,8	3112,271
611,2	3086,529
611,7	3062,957
612,1	3040,671
612,6	3020,586
613	2995,271
613,4	2962,757
613,9	2948,814
614,3	2931,014
614,8	2911,586
615,2	2891,3
615,7	2870,443
616,1	2852,3
616,6	2837,9
617	2811,614
617,4	2792,614
617,9	2771,929
618,3	2753,357
618,8	2736,5
619,2	2718,1
619,7	2694,843
620,1	2677,871
620,5	2651,271
621	2637,871
621,4	2617,3
621,9	2593,157
622,3	2573,757
622,8	2558,186
623,2	2541,443
623,6	2523,3
624,1	2498,414
624,5	2482,614
625	2464,214
625,4	2446,729
625,9	2429,9
626,3	2411,843
626,8	2399,957
627,2	2383,443
627,6	2363,271
628,1	2347,5
628,5	2329,186
629	2310,786
629,4	2290,071
629,9	2272,157
630,3	2253,071
630,7	2239,043
631,2	2226,757
631,6	2208,243
632,1	2192,186
632,5	2174,1
633	2160,214
633,4	2151,7
633,8	2135,214
634,3	2112,786
634,7	2102,9
635,2	2088,1
635,6	2074,843
636,1	2051,557
636,5	2035,243
636,9	2017,043
637,4	2007,671
637,8	1991,814
638,3	1982,271
638,7	1967,129
639,2	1960,071
639,6	1949,5
640	1938,586
640,5	1927,129
640,9	1915,043
641,4	1900,557
641,8	1887,786
642,2	1871,986
642,7	1859,414
643,1	1845,414
643,6	1836,043
644	1824,814
644,5	1814,043
644,9	1802,7
645,3	1796,186
645,8	1782,671
646,2	1769,1
646,7	1750,243
647,1	1732,186
647,6	1715,357
648	1708,5
648,4	1693,9
648,9	1681,043
649,3	1672,186
649,8	1665,071
650,2	1656,1
650,6	1648,186
651,1	1629,1
651,5	1619,557
652	1609,586
652,4	1601,786
652,9	1585,957
653,3	1575,129
653,7	1561,357
654,2	1551,957
654,6	1541,271
655,1	1529,043
655,5	1514,529
655,9	1505,986
656,4	1497,357
656,8	1487,357
657,3	1485,329
657,7	1470,5
658,2	1464,929
658,6	1455,643
659	1443,1
659,5	1434,043
659,9	1429,243
660,4	1414,529
660,8	1404,014
661,2	1387,186
661,7	1375,9
662,1	1368,786
662,6	1359,7
663	1344,243
663,4	1331,786
663,9	1329,814
664,3	1317,443
664,8	1306,757
665,2	1296,5
665,6	1288,357
666,1	1279,3
666,5	1272,586
667	1255,271
667,4	1250,3
667,9	1243,7
668,3	1232,243
668,7	1220,329
669,2	1206,729
669,6	1195,243
670,1	1192,071
670,5	1185,386
670,9	1180,729
671,4	1172,614
671,8	1164,471
672,3	1161,786
672,7	1156,471
673,1	1151,729
673,6	1140,871
674	1126,843
674,5	1122,5
674,9	1109,557
675,3	1099,157
675,8	1090,557
676,2	1076,786
676,7	1071,786
677,1	1065,9
677,5	1058,071
678	1056,129
678,4	1051,586
678,9	1047,929
679,3	1044,014
679,7	1031,929
680,2	1025,186
680,6	1014,729
681,1	1002,671
681,5	996,929
681,9	986,586
682,4	977,186
682,8	971,329
683,3	965,643
683,7	961,843
684,1	957,5
684,6	949,043
685	937,471
685,5	925,871
685,9	915,386
686,3	908,986
686,8	901,157
687,2	898,329
687,7	887,643
688,1	887,1
688,5	884,443
689	885,129
689,4	875,214
689,9	870,243
690,3	859,443
690,7	855,071
691,2	850,986
691,6	846,271
692	841,671
692,5	835,329
692,9	828,414
693,4	822,729
693,8	821,129
694,2	811,614
694,7	801,5
695,1	799,757
695,6	796,9
696	790,1
696,4	785,871
696,9	775,3
697,3	772,329
697,8	770,386
698,2	756,071
698,6	751,557
699,1	750,871
699,5	747,843
699,9	744,757
700,4	740,3
700,8	737,157
701,3	734,157
701,7	724,214
702,1	718,443
702,6	710,014
703	703,471
703,5	696,529
703,9	691,9
704,3	687,271
704,8	684,586
705,2	681,986
705,6	677,443
706,1	672,157
706,5	670,9
707	669,386
707,4	668,9
707,8	664,729
708,3	660,729
708,7	658,186
709,2	655,357
709,6	647,443
710	637,471
710,5	628,786
710,9	628,014
711,3	616,529
711,8	610,186
712,2	606,471
712,7	598,529
713,1	592,529
713,5	595,186
714	586,443
714,4	581,643
714,8	578,786
715,3	577,043
715,7	575,929
716,2	575,557
716,6	565,786
717	566,586
717,5	563,814
717,9	559,3
718,3	552,443
718,8	548,586
719,2	544,671
719,7	539,757
720,1	532,729
720,5	532,843
721	526,7
721,4	523,9
721,8	520,014
722,3	515,557
722,7	508,443
723,2	502,871
723,6	499,7
724	500,729
724,5	497,643
724,9	493,7
725,3	486,529
725,8	481,843
726,2	478,871
726,7	468,7
727,1	461,329
727,5	453,7
728	446,014
728,4	447,529
728,8	444,214
729,3	441,214
729,7	441,643
730,1	437,871
730,6	437,729
731	436,557
731,5	433,014
731,9	433,729
732,3	437,757
732,8	439,357
733,2	443,814
733,6	443,586
734,1	439,614
734,5	439,186
734,9	436,243
735,4	426,357
735,8	418,957
736,3	406,729
736,7	404,243
737,1	401,214
737,6	394,814
738	391,129
738,4	389,986
738,9	391,3
739,3	396,614
739,7	394,643
740,2	394,043
740,6	390,157
741,1	389,243
741,5	384,814
741,9	381,614
742,4	380,186
742,8	378,1
743,2	375,557
743,7	373,471
744,1	371,7
744,5	371,986
745	367,129
745,4	366,414
745,8	360,786
746,3	360,757
746,7	356,157
747,2	350,986
747,6	350,3
748	349,043
748,5	340,671
748,9	339,643
749,3	338,929
749,8	338,243
750,2	338,214
750,6	331,814
751,1	332,757
751,5	334,7
751,9	330,386
752,4	331,9
752,8	333,186
753,3	328,7
753,7	328,643
754,1	325,986
754,6	317,557
755	317,786
755,4	313,214
755,9	312,157
756,3	314,871
756,7	316,3
757,2	311,3
757,6	313,014
758	309,614
758,5	304,586
758,9	301,043
759,3	301,357
759,8	294,214
760,2	291,557
760,6	296,1
761,1	296,529
761,5	296,586
761,9	292,043
762,4	291,3
762,8	295,5
763,3	295,271
763,7	289,671
764,1	285,786
764,6	285,043
765	286,7
765,4	280,386
765,9	277,186
766,3	275,129
766,7	269,271
767,2	268,729
767,6	268,043
768	263,529
768,5	261,443
768,9	252,443
769,3	252,843
769,8	250,5
770,2	246,5
770,6	242,214
771,1	238,157
771,5	240,3
771,9	243,986
772,4	241,043
772,8	243,814
773,2	243,9
773,7	243,443
774,1	250,271
774,5	246,871
775	245,414
775,4	245,071
775,8	242,957
776,3	241,671
776,7	241,929
777,1	236,786
777,6	232,986
778	230,529
778,4	228,129
778,9	224,757
779,3	224,071
779,7	222,671
780,2	220,586
780,6	223,614
781	223,557
781,5	222,729
781,9	219,986
782,3	215,786
782,8	215,786
783,2	212,586
783,6	207,7
784,1	207,414
784,5	206,214
784,9	208,129
785,4	213,729
785,8	207,986
786,2	207,5
786,7	205,557
787,1	204,786
787,5	200,871
788	196,871
788,4	191,529
788,8	190,671
789,3	194,414
789,7	194,357
790,1	195,729
790,6	196,643
791	195,414
791,4	193,786
791,9	190,186
792,3	184,757
792,7	184,243
793,2	183,614
793,6	182,443
794	182,843
794,5	181,929
794,9	184,929
795,3	186,643
795,8	188,471
796,2	175,614
796,6	175,357
797,1	174,271
797,5	174,214
797,9	176,329
798,4	172,3
798,8	168,529
799,2	176,9
799,7	176,014
800,1	176,871
800,5	178,243
801	174,071
801,4	172,129
801,8	168,471
802,2	164,7
802,7	162,357
803,1	159,271
803,5	155,643
804	151,557
804,4	151,671
804,8	155,957
805,3	158,157
805,7	155,186
806,1	152,9
806,6	154,157
807	152,9
807,4	153,7
807,9	147,186
808,3	143,186
808,7	144,557
809,2	145,271
809,6	143,7
810	144,757
810,4	143,129
810,9	145,614
811,3	143,357
811,7	139,386
812,2	140,1
812,6	139,957
813	143,329
813,5	142,329
813,9	141,9
814,3	139,471
814,8	139,814
815,2	139,3
815,6	137,614
816,1	137,043
816,5	136,986
816,9	132,729
817,3	134,129
817,8	137,7
818,2	136,957
818,6	132,129
819,1	125,186
819,5	120,7
819,9	125,243
820,4	130,043
820,8	124,071
821,2	117,729
821,7	116,129
822,1	117,214
822,5	120,757
822,9	114,129
823,4	109,014
823,8	113,157
824,2	117,814
824,7	116,586
825,1	112,529
825,5	109,243
826	110,129
826,4	107,557
826,8	99,671
827,3	97,5
827,7	99,557
828,1	103,071
828,5	104,929
829	104,129
829,4	105,843
829,8	107,643
830,3	109,071
830,7	107,929
831,1	105,529
831,6	103,614
832	103,529
832,4	104,786
832,8	102,614
833,3	97,5
833,7	92,843
834,1	91,786
834,6	92,357
835	90,929
835,4	83,757
835,8	86,5
836,3	87,471
836,7	92,443
837,1	93,014
837,6	87,3
838	86,186
838,4	87,586
838,9	87,871
839,3	90,071
839,7	86,3
840,1	91,129
840,6	93,1
841	93,471
841,4	92,614
841,9	91,071
842,3	85,7
842,7	84,814
843,1	76,843
843,6	78,814
844	80,871
844,4	84,357
844,9	83,443
845,3	86,186
845,7	87,157
846,2	91,729
846,6	90,643
847	89,786
847,4	87,043
847,9	86,7
848,3	83,871
848,7	82,557
849,2	77,9
849,6	79,157
850	76,814
850,4	74,5
850,9	74,043
851,3	78,386
851,7	78,1
852,2	76,643
852,6	78,414
853	79,957
853,4	82,586
853,9	80,814
854,3	75,586
854,7	77,1
855,2	79,643
855,6	73,643
856	73,129
856,4	70,586
856,9	75,129
857,3	72,843
857,7	74,843
858,2	70,957
858,6	68,729
859	65,043
859,4	64,5
859,9	56,986
860,3	59,186
860,7	51,5
861,1	56,614
861,6	59,071
862	62,071
862,4	60,871
862,9	68,071
863,3	63,843
863,7	68,329
864,1	63,957
864,6	66,757
865	63,129
865,4	63,357
865,9	55,929
866,3	60,814
866,7	57,271
867,1	55,871
867,6	53,986
868	53,186
868,4	50,7
868,8	50,814
869,3	51,557
869,7	58,929
870,1	63,814
870,6	59,586
871	47,471
871,4	52,929
871,8	53,014
872,3	48,357
872,7	42,214
873,1	33,757
873,5	30,7
874	42,557
874,4	40,186
874,8	41,214
875,3	44,671
875,7	45,1
876,1	48,814
876,5	50,729
877	51,1
877,4	51,757
877,8	51,243
878,2	50,871
878,7	51,729
879,1	50,214
879,5	49,9
879,9	46,186
880,4	39,329
880,8	44,357
881,2	43,529
881,7	40,043
882,1	42,271
882,5	44,186
882,9	47,957
883,4	52,614
883,8	48,814
884,2	46,7
884,6	47,014
885,1	44,586
885,5	43,957
885,9	43,643
886,3	42,843
886,8	45,129
887,2	41,357
887,6	40,7
888	40,129
888,5	41,671
888,9	37,814
889,3	33,814
889,8	33,614
890,2	33,186
890,6	34,814
891	35,757
891,5	34,5
891,9	34,614
892,3	41,557
892,7	32,643
893,2	38,986
893,6	33,414
894	33,386
894,4	27,329
894,9	32,1
895,3	28,214
895,7	32,986
896,1	28,129
896,6	35,414
897	41,814
897,4	45,9
897,8	47,129
898,3	45,843
898,7	43,043
899,1	42,329
899,5	40,1
900	32,9
900,4	31,386
900,8	24,843
901,2	24,071
901,7	27,157
902,1	30,329
902,5	31,729
902,9	31,1
903,4	29,871
903,8	31,929
904,2	37,957
904,6	38,957
905,1	35,757
905,5	30,186
905,9	28,529
906,3	31,329
906,8	30,071
907,2	27,214
907,6	24,1
908	26,271
908,5	25,871
908,9	29,443
909,3	31,243
909,7	34,1
910,2	28,671
910,6	28,271
911	27,7
911,4	31,929
911,9	31,7
912,3	29,586
912,7	30,643
913,1	33,271
913,6	35,214
914	38,386
914,4	38,986
914,8	38,157
915,3	40,671
915,7	39,843
916,1	41,529
916,5	36,443
916,9	31,329
917,4	27,443
917,8	24,129
918,2	27,586
918,6	25,614
919,1	23,357
919,5	30,071
919,9	36,529
920,3	37,786
920,8	41,414
921,2	32,386
921,6	30,957
922	31,043
922,5	29,814
922,9	25,929
923,3	28,471
923,7	29,529
924,2	31,214
924,6	32,529
925	35,271
925,4	39,757
925,8	38,471
926,3	35,3
926,7	32,043
927,1	33,071
927,5	35,957
928	33,357
928,4	23,386
928,8	27,443
929,2	27,5
929,7	28,414
930,1	29,014
930,5	24,529
930,9	28,071
931,3	37,157
931,8	33,557
932,2	33,071
932,6	32,186
933	27,071
933,5	29,1
933,9	28,329
934,3	21,586
934,7	22,386
935,2	22,243
935,6	22,9
936	27,043
936,4	26,3
936,8	25,014
937,3	26,386
937,7	24,557
938,1	26,471
938,5	24,186
939	23,386
939,4	22,443
939,8	20,129
940,2	19,9
940,6	21,043
941,1	20,443
941,5	22,014
941,9	21,1
942,3	22,1
942,8	21,986
943,2	15,3
943,6	12,871
944	9,9
944,4	9,643
944,9	12,843
945,3	15,071
945,7	16,9
946,1	20,5
946,6	20,643
947	23,757
947,4	23,843
947,8	26,443
948,2	25,757
948,7	22,757
949,1	25,271
949,5	27,729
949,9	23,871
950,3	23,329
950,8	19,614
951,2	15,957
951,6	20,471
952	20,7
952,5	15,814
952,9	17,614
953,3	14,014
953,7	10,529
954,1	13,014
954,6	10,043
955	13,243
955,4	14,5
955,8	16,757
956,2	20,614
956,7	22,786
957,1	24,557
957,5	25,5
957,9	24,1
958,3	28,414
958,8	26,7
959,2	27,671
959,6	35,843
960	31,1
960,5	27,871
960,9	27,214
961,3	23,614
961,7	27,1
962,1	26,9
962,6	21,7
963	29,214
963,4	36,957
963,8	33,729
964,2	33,929
964,7	32,5
965,1	31,5
965,5	34,271
965,9	27,129
966,3	23,7
966,8	25,671
967,2	26,557
967,6	23,129
968	21,757
968,4	20,643
968,9	19,243
969,3	18,5
969,7	15,9
970,1	14,5
970,5	16,814
971	19,729
971,4	16,043
971,8	13,529
972,2	11,157
972,6	13,271
973,1	17,214
973,5	16,643
973,9	10,3
974,3	14,3
974,7	19,929
975,2	23,9
975,6	22,843
976	21,414
976,4	22,043
976,8	25,329
977,3	19,557
977,7	16,786
978,1	13,843
978,5	15,957
978,9	15,271
979,4	14,471
979,8	16,414
980,2	19,643
980,6	24,243
981	19,471
981,5	17,786
981,9	22,443
982,3	22,157
982,7	18,529
983,1	18,129
983,6	15,357
984	22,757
984,4	18,929
984,8	14,043
985,2	18,3
985,6	20,186
986,1	12,129
986,5	13,157
986,9	8,214
987,3	11,957
987,7	13,1
988,2	8,386
988,6	8,5
989	13,014
989,4	11,157
989,8	13,3
990,3	13,9
990,7	13,643
991,1	14,3
991,5	12,157
991,9	9,729
992,3	7,357
992,8	3,9
993,2	3,1
993,6	-1,5
994	-1,443
994,4	4,243
994,9	8,243
995,3	13,271
995,7	15,357
996,1	15,529
996,5	17,443
996,9	20,957
997,4	17,843
997,8	17,014
998,2	16,5
998,6	21,757
999	19,3
999,5	21,243
999,9	19,614
1000,3	18,586
1000,7	23,157
1001,1	21,7
1001,5	17,614
1002	21,929
1002,4	22,129
1002,8	21,9
1003,2	22,043
1003,6	18,529
1004	21,1
1004,5	19,9
1004,9	16,214
1005,3	12,5
1005,7	15,643
1006,1	15,043
1006,6	13,586
1007	7,443
1007,4	8,814
1007,8	12,014
1008,2	19,157
1008,6	14,557
1009,1	19,014
1009,5	27,329
1009,9	33,157
1010,3	38,414
1010,7	40,414
1011,1	36,786
1011,6	37,1
1012	36,757
1012,4	27,643
1012,8	23,614
1013,2	15,157
1013,6	13,614
1014,1	14,357
1014,5	16,014
1014,9	15,271
1015,3	17,071
1015,7	20,729
1016,1	26,329
1016,6	25,1
1017	24,386
1017,4	22,443
1017,8	22,071
1018,2	20,986
1018,6	19,5
1019,1	17,071
1019,5	13,043
1019,9	14,071
1020,3	12,014
1020,7	14,043
1021,1	12,414
1021,6	13,157
1022	12,729
1022,4	18,671
1022,8	16,186
1023,2	19,329
1023,6	13,757
1024,1	20,243
1024,5	19,471
1024,9	22,557
1025,3	23,471
1025,7	24,014
1026,1	24,043
1026,6	31,443
1027	28,529
1027,4	30,1
1027,8	24,843
1028,2	23,586
1028,6	24,386
1029	18,414
1029,5	11,843
1029,9	11,643
1030,3	8,671
1030,7	15,214
1031,1	17,386
1031,5	17,7
1032	21,871
1032,4	28,871
1032,8	28,586
1033,2	28,586
1033,6	22,586
1034	17,1
1034,4	16,529
1034,9	22,071
1035,3	17,814
1035,7	17,443
1036,1	22,071
1036,5	21,986
1036,9	23,214
1037,4	22,586
1037,8	16,243
1038,2	18,214
1038,6	16,3
1039	13,7
1039,4	19,7
1039,8	25,529
1040,3	27,557
1040,7	32,243
1041,1	26,443
1041,5	32,271
1041,9	36,5
1042,3	33,129
1042,7	25,471
1043,2	26,414
1043,6	25,3
1044	29,671
1044,4	29,186
1044,8	25,843
1045,2	26,986
1045,6	33,5
1046,1	34,1
1046,5	34,329
1046,9	35,186
1047,3	35,1
1047,7	30,957
1048,1	26,271
1048,5	22,014
1049	20,214
1049,4	17,614
1049,8	20,643
1050,2	18,471
1050,6	19,786
1051	25,157
1051,4	26,129
1051,9	28,786
1052,3	27,986
1052,7	24,5
1053,1	21,871
1053,5	23,157
1053,9	19,529
1054,3	15,014
1054,8	8,843
1055,2	12,471
1055,6	13,129
1056	11,614
1056,4	7,129
1056,8	9,271
1057,2	11,529
1057,6	16,529
1058,1	20,043
1058,5	14,243
1058,9	21,014
1059,3	24,786
1059,7	26,071
1060,1	27,329
1060,5	27,443
1061	18,071
1061,4	18,729
1061,8	16,471
1062,2	16,757
1062,6	14,186
1063	15,643
1063,4	12,186
1063,8	16,3
1064,3	26,986
1064,7	30,929
1065,1	31,929
1065,5	36,043
1065,9	39,5
1066,3	38,7
1066,7	45,214
1067,1	37,271
1067,6	32,557
1068	32,414
1068,4	29,7
1068,8	25,271
1069,2	27,986
1069,6	17,786
1070	19,929
1070,4	22,5
1070,9	21,471
1071,3	23,157
1071,7	23,9
1072,1	22,671
1072,5	26,986
1072,9	25,929
1073,3	25,729
1073,7	22,929
1074,2	22,729
1074,6	24,014
1075	25,729
1075,4	26,186
1075,8	26,471
1076,2	24,014
1076,6	24,614
1077	24,157
1077,5	22,9
1077,9	16,843
1078,3	11,357
1078,7	12,214
1079,1	13,986
1079,5	17,529
1079,9	19,786
1080,3	21,529
1080,7	27,871
1081,2	30,671
1081,6	26,586
1082	25,729
1082,4	25,443
1082,8	23,786
1083,2	15,843
1083,6	12,729
1084	14,986
1084,5	16,7
1084,9	14,271
1085,3	15,586
1085,7	15,557
1086,1	19,586
1086,5	16,329
1086,9	15,271
1087,3	15,443
1087,7	21,814
1088,2	22,9
1088,6	22,443
1089	25,243
1089,4	31,814
1089,8	29,814
1090,2	30,471
1090,6	19,014
1091	13,557
1091,4	11,9
1091,9	9,614
1092,3	9,243
1092,7	9,5
1093,1	9,7
1093,5	13,5
1093,9	13,929
1094,3	15,643
1094,7	16,986
1095,1	18,1
1095,5	21,9
1096	21,871
1096,4	28,814
1096,8	29,643
1097,2	28,986
1097,6	28,929
1098	23,3
1098,4	23,414
1098,8	24,357
1099,2	18,843
1099,6	20,986
1100,1	18,071
1100,5	17,786
1100,9	19,614
1101,3	17,014
1101,7	16,414
1102,1	17,814
1102,5	16,329
1102,9	16,157
1103,3	15,157
1103,7	15,843
1104,2	16,1
1104,6	14,3
1105	15,529
1105,4	17,986
1105,8	17,786
1106,2	15,786
1106,6	13,443
1107	10,443
1107,4	10
1107,8	6,46
1108,3	0,45
