Data from Subt2_00001.txt Node
Date: Mon Aug 28 13:04:07 MSK 2023
User: vat
Spectrometer: MAYP114033
Trigger mode: 0
Integration Time (sec): 1,000000E0
Scans to average: 5
Electric dark correction enabled: true
Nonlinearity correction enabled: false
Boxcar width: 3
XAxis mode: Wavelengths
Number of Pixels in Spectrum: 2068
>>>>>Begin Spectral Data<<<<<
199,4	0,417
199,9	2,987
200,4	2
200,8	3,238
201,3	4,81
201,8	6,238
202,2	8,124
202,7	7,495
203,2	6,667
203,6	8,952
204,1	10,41
204,6	10,924
205	12,295
205,5	16,581
206	16,267
206,4	17,295
206,9	18,924
207,4	19,381
207,8	21,01
208,3	21,552
208,8	19,438
209,2	23,981
209,7	19,81
210,2	13,267
210,6	10,838
211,1	6,524
211,5	6,267
212	1,81
212,5	0,41
212,9	3,295
213,4	5,981
213,9	6,095
214,3	7,124
214,8	7,752
215,3	6,895
215,7	8,095
216,2	9,295
216,7	11,638
217,1	14,295
217,6	15,295
218,1	9,467
218,5	8,524
219	5,81
219,5	4,495
219,9	2,781
220,4	-1,648
220,9	-4,476
221,3	-1,39
221,8	2,381
222,3	3,81
222,7	5,067
223,2	8,752
223,6	11,495
224,1	15,238
224,6	14,981
225	15,152
225,5	15,552
226	15,61
226,4	12,324
226,9	9,01
227,4	6,752
227,8	9,067
228,3	10,524
228,8	9,781
229,2	11,067
229,7	13,324
230,2	11,667
230,6	9,667
231,1	8,095
231,5	7,324
232	10,067
232,5	6,838
232,9	2,238
233,4	7,352
233,9	9,667
234,3	6,981
234,8	9,095
235,3	1,981
235,7	1,238
236,2	1,981
236,7	-2,762
237,1	3,638
237,6	6,41
238,1	1,61
238,5	5,724
239	2,41
239,4	5,41
239,9	10,524
240,4	4,895
240,8	4,324
241,3	12,952
241,8	14,61
242,2	20,238
242,7	23,752
243,2	21,21
243,6	24,21
244,1	22,924
244,6	21,352
245	21,381
245,5	23,324
245,9	18,352
246,4	20,438
246,9	20,124
247,3	22,981
247,8	15,467
248,3	15,724
248,7	18,638
249,2	14,838
249,7	12,381
250,1	12,467
250,6	7,61
251	5,838
251,5	4,61
252	-1,962
252,4	1,381
252,9	0,581
253,4	2,181
253,8	3,381
254,3	7,981
254,8	6,438
255,2	5,038
255,7	7,61
256,1	11,381
256,6	7,238
257,1	9,895
257,5	10,924
258	7,667
258,5	9,152
258,9	10,238
259,4	9,838
259,9	8,01
260,3	7,295
260,8	5,295
261,2	8,981
261,7	11,81
262,2	8,238
262,6	5,41
263,1	8,781
263,6	6,724
264	8,581
264,5	5,952
264,9	5,038
265,4	2,067
265,9	1,61
266,3	4,467
266,8	5,124
267,3	5,752
267,7	6,724
268,2	7,038
268,7	12,01
269,1	13,467
269,6	11,895
270	14,895
270,5	10,267
271	13,838
271,4	13,838
271,9	14,438
272,4	17,981
272,8	15,61
273,3	13,952
273,7	11,867
274,2	11,152
274,7	7,41
275,1	9,381
275,6	10,41
276,1	7,895
276,5	12,781
277	17,495
277,4	17,924
277,9	19,867
278,4	14,724
278,8	12,381
279,3	12,952
279,8	6,21
280,2	3,267
280,7	0,124
281,1	0,21
281,6	1,038
282,1	0,295
282,5	3,524
283	5,21
283,4	6,152
283,9	9,238
284,4	11,21
284,8	11,152
285,3	14,781
285,8	15,095
286,2	11,867
286,7	15,581
287,1	15,067
287,6	11,81
288,1	14,581
288,5	7,981
289	10,724
289,5	13,267
289,9	14,438
290,4	18,181
290,8	22,038
291,3	23,924
291,8	28,181
292,2	20,552
292,7	22,381
293,1	22,781
293,6	20,81
294,1	22,867
294,5	18,552
295	16,838
295,5	18,181
295,9	17,981
296,4	17,638
296,8	19,238
297,3	12,181
297,8	4,867
298,2	6,524
298,7	9,724
299,1	12,61
299,6	8,01
300,1	5,095
300,5	5,924
301	14,781
301,5	10,981
301,9	9,067
302,4	1,495
302,8	2,752
303,3	-0,99
303,8	0,695
304,2	-2,762
304,7	-0,019
305,1	1,867
305,6	6,895
306,1	4,324
306,5	10,952
307	10,752
307,4	12,267
307,9	11,981
308,4	9,295
308,8	7,924
309,3	13,495
309,8	10,181
310,2	9,81
310,7	12,181
311,1	12,838
311,6	16,181
312,1	16,781
312,5	13,295
313	10,924
313,4	15,981
313,9	11,838
314,4	12,952
314,8	9,581
315,3	11,867
315,7	14,895
316,2	19,095
316,7	10,895
317,1	16,752
317,6	13,724
318	16,267
318,5	16,095
319	16,467
319,4	13,21
319,9	15,038
320,3	12,267
320,8	16,352
321,3	15,638
321,7	15,895
322,2	15,838
322,6	13,867
323,1	15,524
323,6	16,352
324	14,21
324,5	13,781
324,9	12,124
325,4	9,61
325,9	14,238
326,3	15,21
326,8	9,981
327,2	9,781
327,7	8,724
328,2	8,838
328,6	8,924
329,1	8,124
329,5	6,952
330	11,267
330,5	12,124
330,9	14,352
331,4	15,41
331,8	17,324
332,3	20,524
332,8	23,095
333,2	24,181
333,7	21,352
334,1	22,752
334,6	22,01
335,1	23,724
335,5	19,152
336	14,21
336,4	16,724
336,9	15,838
337,4	13,124
337,8	11,438
338,3	5,581
338,7	7,381
339,2	13,038
339,7	9,21
340,1	8,781
340,6	6,524
341	4,438
341,5	11,267
342	12,01
342,4	11,667
342,9	12,552
343,3	17,038
343,8	17,01
344,2	22,667
344,7	22,581
345,2	20,581
345,6	19,638
346,1	21,238
346,5	18,095
347	22,581
347,5	18,838
347,9	10,695
348,4	10,295
348,8	8,267
349,3	11,352
349,8	13,724
350,2	13,638
350,7	16,295
351,1	25,724
351,6	32,924
352	36,895
352,5	39,81
353	47,781
353,4	53,924
353,9	61,867
354,3	70,124
354,8	82,181
355,3	101,124
355,7	112,295
356,2	126,552
356,6	151,581
357,1	178,41
357,5	209,238
358	238,438
358,5	275,21
358,9	325,324
359,4	380,324
359,8	437,952
360,3	501,781
360,8	576,924
361,2	664,124
361,7	754,181
362,1	844,124
362,6	949,781
363	1061,038
363,5	1187,438
364	1307,181
364,4	1434,781
364,9	1561,067
365,3	1693,267
365,8	1813,21
366,3	1928,467
366,7	2027,924
367,2	2116,352
367,6	2184,438
368,1	2240,838
368,5	2274,61
369	2290,524
369,5	2288,667
369,9	2266,467
370,4	2235,181
370,8	2182,495
371,3	2116,924
371,7	2041,638
372,2	1962,981
372,7	1866,981
373,1	1769,095
373,6	1663,981
374	1554,638
374,5	1448,895
374,9	1345,41
375,4	1241,81
375,9	1148,267
376,3	1057,752
376,8	975,61
377,2	903,467
377,7	837,267
378,2	772,067
378,6	712,124
379,1	653,895
379,5	600,752
380	547,581
380,4	507,067
380,9	464,438
381,4	429,81
381,8	397,381
382,3	367,981
382,7	341,152
383,2	317,781
383,6	292,352
384,1	272,352
384,6	255,067
385	237,581
385,5	224,638
385,9	213,238
386,4	201,638
386,8	190,295
387,3	177,438
387,7	165,095
388,2	154,124
388,7	142,095
389,1	127,924
389,6	125,524
390	121,552
390,5	113,152
390,9	107,238
391,4	97,038
391,9	95,524
392,3	97,152
392,8	89,295
393,2	86,124
393,7	84,01
394,1	82,124
394,6	82,752
395,1	80,038
395,5	76,524
396	71,581
396,4	63,695
396,9	61,924
397,3	60,067
397,8	55,81
398,2	52,61
398,7	53,181
399,2	56,41
399,6	60,267
400,1	58,01
400,5	62,295
401	69,41
401,4	70,667
401,9	68,61
402,4	65,21
402,8	61,781
403,3	67,81
403,7	63,438
404,2	60,581
404,6	58,867
405,1	63,638
405,5	62,724
406	66,01
406,5	63,638
406,9	66,581
407,4	72,124
407,8	77,981
408,3	80,638
408,7	89,095
409,2	98,124
409,6	106,495
410,1	109,981
410,6	117,295
411	123,695
411,5	130,038
411,9	141,524
412,4	150,981
412,8	159,838
413,3	174,924
413,7	185,981
414,2	194,667
414,7	204,781
415,1	216,124
415,6	225,124
416	241,81
416,5	253,581
416,9	266,667
417,4	292,038
417,8	308,238
418,3	325,867
418,8	345,524
419,2	363,381
419,7	385,952
420,1	404,124
420,6	415,695
421	442,467
421,5	472,238
421,9	499,667
422,4	526,895
422,8	552,895
423,3	587,752
423,8	621,781
424,2	647,038
424,7	671,81
425,1	706,381
425,6	742,981
426	782,467
426,5	825,152
426,9	871,61
427,4	916,981
427,9	966,895
428,3	1015,924
428,8	1071,181
429,2	1127,695
429,7	1178,667
430,1	1238,638
430,6	1312,124
431	1380,952
431,5	1444,952
431,9	1517,067
432,4	1594,781
432,8	1682,524
433,3	1774,295
433,8	1867,41
434,2	1958,038
434,7	2064,895
435,1	2166,552
435,6	2269,667
436	2384,552
436,5	2494,352
436,9	2611,038
437,4	2740,295
437,8	2872,524
438,3	3005,61
438,8	3149,495
439,2	3298,267
439,7	3452,438
440,1	3607,41
440,6	3771,152
441	3939,295
441,5	4117,981
441,9	4301,01
442,4	4485,952
442,8	4683,124
443,3	4884,667
443,7	5092,467
444,2	5307,524
444,7	5530,638
445,1	5759,952
445,6	5992,524
446	6236,667
446,5	6484,981
446,9	6739,267
447,4	7001,638
447,8	7262,638
448,3	7535,124
448,7	7807,01
449,2	8082,724
449,6	8371,724
450,1	8670,352
450,6	8969,952
451	9275,638
451,5	9594,695
451,9	9913,181
452,4	10248,581
452,8	10581,581
453,3	10902,867
453,7	11234,524
454,2	11583,981
454,6	11920,41
455,1	12278,981
455,5	12619,581
456	12977,267
456,4	13350,324
456,9	13725,895
457,3	14102,181
457,8	14484,238
458,3	14865,21
458,7	15261,438
459,2	15648,381
459,6	16044,838
460,1	16444,381
460,5	16841,895
461	17246,981
461,4	17640,981
461,9	18045,41
462,3	18446,981
462,8	18835,524
463,2	19228,781
463,7	19630,295
464,1	20033,895
464,6	20437,61
465	20830,867
465,5	21231,352
466	21636,981
466,4	22031,867
466,9	22425,952
467,3	22798,61
467,8	23190,552
468,2	23576,324
468,7	23955,61
469,1	24324,238
469,6	24705,438
470	25070,324
470,5	25449,981
470,9	25807,324
471,4	26152,924
471,8	26496,524
472,3	26853,981
472,7	27184,324
473,2	27530,667
473,6	27842,552
474,1	28165,324
474,5	28486,667
475	28801,381
475,4	29103,724
475,9	29397,552
476,4	29666,038
476,8	29946,724
477,3	30218,267
477,7	30477,524
478,2	30731,095
478,6	30970,295
479,1	31203,267
479,5	31432,352
480	31645,867
480,4	31846,781
480,9	32040,495
481,3	32227,352
481,8	32395,81
482,2	32570,067
482,7	32735,124
483,1	32889,038
483,6	33031,895
484	33150,924
484,5	33268,067
484,9	33369,952
485,4	33460,924
485,8	33523,295
486,3	33595,524
486,7	33645,895
487,2	33717,152
487,6	33761,895
488,1	33788,581
488,5	33817,524
489	33853,524
489,4	33860,895
489,9	33870,181
490,4	33845,41
490,8	33827,324
491,3	33806,924
491,7	33765,41
492,2	33708,524
492,6	33649,524
493,1	33573,667
493,5	33498,552
494	33410,952
494,4	33333,552
494,9	33249,924
495,3	33150,352
495,8	33050,095
496,2	32945,495
496,7	32852,067
497,1	32744,638
497,6	32619,667
498	32483,867
498,5	32348,41
498,9	32208,81
499,4	32076,152
499,8	31924,267
500,3	31769,61
500,7	31617,01
501,2	31444,095
501,6	31274,895
502,1	31098,667
502,5	30925,21
503	30753,038
503,4	30583,552
503,9	30399,952
504,3	30215,781
504,8	30036,752
505,2	29843,267
505,7	29632,467
506,1	29423,295
506,6	29179,981
507	28966,695
507,5	28760,238
507,9	28547,41
508,4	28329,295
508,8	28112,467
509,3	27874,981
509,7	27669,952
510,2	27435,81
510,6	27205,352
511,1	26964,038
511,5	26729,438
512	26491,752
512,4	26246,038
512,9	25999,41
513,3	25765,41
513,8	25526,781
514,2	25278,295
514,7	25039,124
515,1	24798,238
515,6	24569,095
516	24328,467
516,5	24082,952
516,9	23835,295
517,4	23603,981
517,8	23358,038
518,3	23111,838
518,7	22873,667
519,2	22640,152
519,6	22405,667
520,1	22175,152
520,5	21941,552
521	21699,752
521,4	21466,724
521,9	21233,324
522,3	20995,638
522,8	20754,295
523,2	20516,352
523,7	20283,467
524,1	20058,752
524,6	19827,61
525	19609,495
525,5	19395,724
525,9	19186,867
526,4	18972,638
526,8	18759,867
527,3	18562,495
527,7	18357,952
528,2	18141,81
528,6	17942,067
529,1	17731,695
529,5	17530,21
530	17331,038
530,4	17127,124
530,9	16931,695
531,3	16748,467
531,8	16546,752
532,2	16361,952
532,6	16180,324
533,1	15987,981
533,5	15803,924
534	15621,981
534,4	15431,381
534,9	15264,667
535,3	15089,695
535,8	14913,924
536,2	14748,41
536,7	14581,295
537,1	14410,867
537,6	14250,267
538	14091,581
538,5	13935,067
538,9	13763,324
539,4	13612,638
539,8	13457,695
540,3	13316,667
540,7	13177,867
541,2	13020,781
541,6	12874,152
542,1	12743,124
542,5	12595,781
543	12454,724
543,4	12307,581
543,9	12155,438
544,3	12018,438
544,8	11876,352
545,2	11737,867
545,7	11606,352
546,1	11480,924
546,5	11357,781
547	11232,238
547,4	11100,838
547,9	10985,638
548,3	10874,781
548,8	10757,524
549,2	10645,152
549,7	10529,924
550,1	10418,152
550,6	10314,495
551	10201,295
551,5	10088,524
551,9	9986,152
552,4	9878,524
552,8	9778,467
553,3	9686,581
553,7	9585,095
554,2	9485,81
554,6	9391,867
555,1	9292,438
555,5	9198,724
555,9	9105,667
556,4	9011,495
556,8	8927,952
557,3	8835,952
557,7	8749,895
558,2	8669,267
558,6	8577,667
559,1	8494,067
559,5	8410,81
560	8319,952
560,4	8249,581
560,9	8170,981
561,3	8092,238
561,8	8022,295
562,2	7944,267
562,7	7857,981
563,1	7791,038
563,6	7708,781
564	7634,495
564,4	7555,352
564,9	7481,295
565,3	7412,324
565,8	7350,61
566,2	7274,724
566,7	7210,238
567,1	7134,352
567,6	7070,61
568	7004,467
568,5	6934,01
568,9	6871,438
569,4	6803,524
569,8	6742,267
570,3	6684,895
570,7	6630,524
571,1	6573,038
571,6	6516,41
572	6455,61
572,5	6401,724
572,9	6347,238
573,4	6293,438
573,8	6230,838
574,3	6170,01
574,7	6121,095
575,2	6073,667
575,6	6027,181
576,1	5972,61
576,5	5919,095
576,9	5862,438
577,4	5821,81
577,8	5771,038
578,3	5718,267
578,7	5661,21
579,2	5614,295
579,6	5558,61
580,1	5513,924
580,5	5467,61
581	5418,095
581,4	5366,924
581,9	5322,724
582,3	5280,495
582,7	5236,952
583,2	5185,238
583,6	5137,61
584,1	5096,638
584,5	5049,752
585	5011,61
585,4	4962,01
585,9	4920,552
586,3	4879,267
586,8	4829,952
587,2	4789,495
587,6	4756,181
588,1	4714,981
588,5	4670,695
589	4634,438
589,4	4597,41
589,9	4563,667
590,3	4527,152
590,8	4489,324
591,2	4456,238
591,7	4424,638
592,1	4391,952
592,5	4368,581
593	4336,81
593,4	4295,01
593,9	4264,781
594,3	4223,324
594,8	4198,295
595,2	4170,381
595,7	4135,21
596,1	4110,267
596,6	4082,352
597	4054,267
597,4	4031,21
597,9	4001,552
598,3	3974,638
598,8	3948,352
599,2	3911,438
599,7	3894,238
600,1	3866,295
600,6	3841,924
601	3814,01
601,4	3783,981
601,9	3756,61
602,3	3738,495
602,8	3714,581
603,2	3683,724
603,7	3654,667
604,1	3628,81
604,6	3605,067
605	3585,924
605,4	3558,095
605,9	3525,238
606,3	3500,752
606,8	3475,381
607,2	3447,752
607,7	3421,867
608,1	3386,924
608,6	3357,067
609	3328,581
609,4	3309,324
609,9	3289,095
610,3	3268,695
610,8	3245,095
611,2	3230,752
611,7	3212,752
612,1	3193,01
612,6	3169,495
613	3136,238
613,4	3112,324
613,9	3089,581
614,3	3067,295
614,8	3047,695
615,2	3027,61
615,7	3000,838
616,1	2984,267
616,6	2966,038
617	2947,524
617,4	2924,067
617,9	2901,21
618,3	2877,381
618,8	2858,238
619,2	2838,81
619,7	2817,01
620,1	2796,81
620,5	2772,667
621	2751,781
621,4	2736,01
621,9	2716,667
622,3	2703,038
622,8	2682,695
623,2	2661,267
623,6	2642,095
624,1	2624,838
624,5	2609,981
625	2591,152
625,4	2570,695
625,9	2554,667
626,3	2539,981
626,8	2526,781
627,2	2503,924
627,6	2480,695
628,1	2463,981
628,5	2442,41
629	2421,152
629,4	2399,467
629,9	2380,152
630,3	2361,552
630,7	2348,124
631,2	2333,752
631,6	2318,552
632,1	2301,581
632,5	2289,467
633	2275,067
633,4	2260,124
633,8	2242,095
634,3	2216,752
634,7	2198,867
635,2	2186,781
635,6	2166,838
636,1	2142,352
636,5	2127,01
636,9	2106,695
637,4	2099,467
637,8	2084,838
638,3	2070,21
638,7	2051,61
639,2	2041,952
639,6	2029,781
640	2018,381
640,5	2002,267
640,9	1987,981
641,4	1975,21
641,8	1964,21
642,2	1952,181
642,7	1944,067
643,1	1930,781
643,6	1923,867
644	1915,295
644,5	1901,438
644,9	1888,467
645,3	1873,61
645,8	1848,695
646,2	1831,41
646,7	1812,581
647,1	1797,038
647,6	1780,267
648	1770,152
648,4	1760,524
648,9	1753,067
649,3	1742,467
649,8	1736,267
650,2	1722,581
650,6	1716,638
651,1	1701,867
651,5	1690,01
652	1685,352
652,4	1676,41
652,9	1658,895
653,3	1645,667
653,7	1634,038
654,2	1625,152
654,6	1613,724
655,1	1595,924
655,5	1584,867
655,9	1572,21
656,4	1562,41
656,8	1546,867
657,3	1538,067
657,7	1523,752
658,2	1514,495
658,6	1504,552
659	1498,667
659,5	1489,952
659,9	1483,581
660,4	1471,724
660,8	1465,638
661,2	1457,438
661,7	1445,895
662,1	1435,81
662,6	1429,21
663	1413,495
663,4	1402,924
663,9	1389,667
664,3	1373,495
664,8	1360,81
665,2	1356,124
665,6	1344,524
666,1	1335,667
666,5	1325,152
667	1315,381
667,4	1309,61
667,9	1305,295
668,3	1287,438
668,7	1275,467
669,2	1265,038
669,6	1257,038
670,1	1249,781
670,5	1241,695
670,9	1229,61
671,4	1217,61
671,8	1212,667
672,3	1204,495
672,7	1191,01
673,1	1186,838
673,6	1177,81
674	1170,924
674,5	1165,838
674,9	1156,81
675,3	1145,781
675,8	1140,867
676,2	1128,152
676,7	1121,067
677,1	1110,924
677,5	1105,638
678	1097,267
678,4	1096,067
678,9	1086,438
679,3	1080,267
679,7	1071,21
680,2	1062,895
680,6	1050,695
681,1	1042,41
681,5	1034,152
681,9	1026,867
682,4	1019,124
682,8	1008,638
683,3	1004,181
683,7	1003,781
684,1	992,438
684,6	983,581
685	977,01
685,5	963,638
685,9	954,752
686,3	949,41
686,8	937,781
687,2	937,295
687,7	930,267
688,1	922,581
688,5	915,981
689	920,238
689,4	909,752
689,9	904,838
690,3	892,324
690,7	887,952
691,2	882,838
691,6	879,524
692	870,067
692,5	862,495
692,9	854,067
693,4	849,438
693,8	842,981
694,2	836,267
694,7	829,095
695,1	823,867
695,6	820,238
696	814,552
696,4	809,724
696,9	802,638
697,3	801,124
697,8	793,981
698,2	781,038
698,6	776,638
699,1	774,41
699,5	769,552
699,9	763,524
700,4	755,124
700,8	754,41
701,3	748,181
701,7	736,524
702,1	731,152
702,6	719,352
703	714,667
703,5	708,038
703,9	703,667
704,3	702,21
704,8	700,81
705,2	694,495
705,6	697,267
706,1	689,467
706,5	689,495
707	684,381
707,4	681,981
707,8	678,924
708,3	672,867
708,7	666,438
709,2	663,867
709,6	656,41
710	648,552
710,5	640,638
710,9	638,41
711,3	632,895
711,8	627,067
712,2	622,295
712,7	616,981
713,1	612,895
713,5	612,838
714	604,467
714,4	596,21
714,8	594,181
715,3	594,381
715,7	588,781
716,2	590,381
716,6	580,038
717	579,867
717,5	579,067
717,9	570,724
718,3	562,695
718,8	560,095
719,2	549,495
719,7	546,267
720,1	538,867
720,5	540,267
721	541,952
721,4	535,038
721,8	528,638
722,3	526,124
722,7	524,124
723,2	521,124
723,6	514,238
724	509,752
724,5	506,152
724,9	504,81
725,3	498,181
725,8	494,552
726,2	487,152
726,7	480,267
727,1	471,038
727,5	468,467
728	459,352
728,4	456,981
728,8	448,352
729,3	446,81
729,7	442,467
730,1	435,467
730,6	433,352
731	433,752
731,5	433,724
731,9	433,638
732,3	431,752
732,8	432,695
733,2	435,981
733,6	433,495
734,1	431,095
734,5	424,752
734,9	424,152
735,4	416,61
735,8	409,038
736,3	403,724
736,7	402,01
737,1	398,895
737,6	396,095
738	394,067
738,4	394,552
738,9	395,981
739,3	401,867
739,7	400,638
740,2	397,552
740,6	397,895
741,1	392,21
741,5	388,895
741,9	387,724
742,4	380,838
742,8	373,295
743,2	372,41
743,7	369,752
744,1	369,752
744,5	370,838
745	365,438
745,4	364,81
745,8	367,467
746,3	366,552
746,7	360,638
747,2	355,695
747,6	353,581
748	356,067
748,5	354,524
748,9	349,781
749,3	345,752
749,8	345,467
750,2	344,981
750,6	338,724
751,1	332,267
751,5	329,981
751,9	328,124
752,4	330,067
752,8	332,81
753,3	330,838
753,7	330,581
754,1	330,381
754,6	323,41
755	321,41
755,4	315,752
755,9	313,295
756,3	315,924
756,7	319,467
757,2	316,238
757,6	315,895
758	312,724
758,5	309,21
758,9	306,524
759,3	298,695
759,8	290,181
760,2	290,695
760,6	292,667
761,1	294,038
761,5	296,124
761,9	290,867
762,4	289,495
762,8	289,952
763,3	285,267
763,7	280,181
764,1	275,524
764,6	272,238
765	274,495
765,4	277,352
765,9	274,381
766,3	273,61
766,7	271,81
767,2	273,267
767,6	275,067
768	265,838
768,5	258,352
768,9	257,41
769,3	258,81
769,8	250,895
770,2	245,495
770,6	240,295
771,1	241,181
771,5	239,524
771,9	237,067
772,4	234,41
772,8	237,981
773,2	238,438
773,7	235,867
774,1	237,381
774,5	238,867
775	238,524
775,4	235,381
775,8	234,81
776,3	231,81
776,7	231,01
777,1	228,124
777,6	221,924
778	222,124
778,4	222,21
778,9	219,152
779,3	220,838
779,7	217,381
780,2	217,152
780,6	223,667
781	219,581
781,5	217,095
781,9	214,495
782,3	211,324
782,8	215,667
783,2	212,438
783,6	207,01
784,1	208,838
784,5	207,038
784,9	209,724
785,4	209,895
785,8	204,524
786,2	202,324
786,7	205,41
787,1	205,552
787,5	206,867
788	199,41
788,4	199,152
788,8	197,667
789,3	201,895
789,7	195,352
790,1	193,181
790,6	189,467
791	191,581
791,4	186,038
791,9	183,724
792,3	179,01
792,7	180,867
793,2	179,695
793,6	178,952
794	178,324
794,5	178,495
794,9	180,638
795,3	179,724
795,8	178,581
796,2	168,981
796,6	166,038
797,1	167,867
797,5	165,467
797,9	165,352
798,4	162,552
798,8	164,381
799,2	170,01
799,7	167,781
800,1	163,41
800,5	163,952
801	162,124
801,4	164,038
801,8	155,467
802,2	150,952
802,7	151,752
803,1	153,438
803,5	151,01
804	149,752
804,4	148,095
804,8	151,638
805,3	150,41
805,7	151,21
806,1	144,867
806,6	148,21
807	144,095
807,4	143,01
807,9	141,381
808,3	142,838
808,7	141,781
809,2	143,095
809,6	140,981
810	143,324
810,4	143,038
810,9	141,724
811,3	143,467
811,7	139,552
812,2	141,067
812,6	134,638
813	133,895
813,5	134,01
813,9	132,438
814,3	126,838
814,8	128,724
815,2	128,01
815,6	129,752
816,1	130,038
816,5	125,838
816,9	126,295
817,3	128,895
817,8	124,638
818,2	121,838
818,6	121,638
819,1	116,495
819,5	113,981
819,9	114,495
820,4	117,524
820,8	119,01
821,2	118,867
821,7	116,152
822,1	115,01
822,5	119,752
822,9	114,524
823,4	106,21
823,8	106,352
824,2	107,181
824,7	107,181
825,1	105,095
825,5	100,552
826	100,495
826,4	104,295
826,8	100,838
827,3	97,924
827,7	99,095
828,1	99,981
828,5	104,152
829	105,352
829,4	98,524
829,8	101,524
830,3	102,61
830,7	100,524
831,1	100,352
831,6	93,552
832	92,41
832,4	97,181
832,8	90,895
833,3	88,638
833,7	85,01
834,1	84,524
834,6	84,267
835	82,952
835,4	77,41
835,8	80,524
836,3	79,381
836,7	81,81
837,1	81,552
837,6	78,924
838	78,638
838,4	80,581
838,9	82,095
839,3	79,895
839,7	79,181
840,1	82,895
840,6	86,524
841	82,552
841,4	79,467
841,9	76,695
842,3	76,781
842,7	76,638
843,1	73,01
843,6	71,952
844	74,067
844,4	77,61
844,9	78,695
845,3	79,638
845,7	74,81
846,2	76,238
846,6	76,981
847	80,895
847,4	82,038
847,9	79,752
848,3	74,667
848,7	79,81
849,2	74,381
849,6	70,01
850	66,524
850,4	64,838
850,9	65,552
851,3	68,381
851,7	65,81
852,2	67,095
852,6	70,352
853	70,552
853,4	68,81
853,9	67,724
854,3	70,524
854,7	71,124
855,2	74,61
855,6	73,724
856	74,381
856,4	71,952
856,9	70,124
857,3	64,352
857,7	66,381
858,2	58,267
858,6	56,695
859	52,895
859,4	57,552
859,9	60,124
860,3	64,067
860,7	58,067
861,1	61,895
861,6	61,01
862	63,41
862,4	57,895
862,9	54,752
863,3	49,124
863,7	52,838
864,1	50,581
864,6	51,267
865	50,581
865,4	51,952
865,9	50,952
866,3	57,781
866,7	51,895
867,1	50,838
867,6	54,695
868	49,552
868,4	46,324
868,8	46,838
869,3	47,352
869,7	53,724
870,1	55,524
870,6	51,41
871	60,81
871,4	66,181
871,8	68,438
872,3	63,152
872,7	56,495
873,1	53,952
873,5	50,867
874	45,01
874,4	39,238
874,8	39,381
875,3	38,01
875,7	39,067
876,1	43,038
876,5	41,781
877	37,867
877,4	40,695
877,8	38,41
878,2	43,01
878,7	44,324
879,1	40,867
879,5	43,724
879,9	45,21
880,4	38,952
880,8	41,324
881,2	34,295
881,7	32,61
882,1	31,095
882,5	29,952
882,9	31,895
883,4	39,038
883,8	33,781
884,2	35,61
884,6	34,324
885,1	35,467
885,5	33,352
885,9	33,21
886,3	29,352
886,8	33,21
887,2	34,524
887,6	38,867
888	38,667
888,5	40,152
888,9	35,495
889,3	33,152
889,8	30,867
890,2	26,21
890,6	24,067
891	21,981
891,5	23,438
891,9	26,21
892,3	30,724
892,7	29,381
893,2	34,638
893,6	31,124
894	32,61
894,4	30,838
894,9	30,524
895,3	31,181
895,7	30,552
896,1	24,038
896,6	28,81
897	30,838
897,4	29,81
897,8	29,01
898,3	27,181
898,7	26,952
899,1	33,467
899,5	31,695
900	29,867
900,4	29,867
900,8	22,552
901,2	17,924
901,7	21,695
902,1	16,095
902,5	16,81
902,9	18,181
903,4	15,61
903,8	17,495
904,2	20,781
904,6	16,638
905,1	21,524
905,5	19,495
905,9	15,295
906,3	17,781
906,8	20,467
907,2	21,381
907,6	23,724
908	21,838
908,5	20,952
908,9	23,324
909,3	25,152
909,7	27,152
910,2	26,067
910,6	25,752
911	27,81
911,4	28,981
911,9	24,724
912,3	24,61
912,7	25,21
913,1	24,381
913,6	24,152
914	22,181
914,4	25,552
914,8	30,124
915,3	28,61
915,7	28,867
916,1	30,238
916,5	27,924
916,9	27,495
917,4	22,352
917,8	19,067
918,2	24,324
918,6	21,467
919,1	19,067
919,5	21,781
919,9	26,038
920,3	25,838
920,8	30,495
921,2	23,61
921,6	25,552
922	26,667
922,5	22,267
922,9	17,124
923,3	22,067
923,7	18,552
924,2	21,61
924,6	22,838
925	22,381
925,4	23,324
925,8	25,61
926,3	23,81
926,7	23,067
927,1	19,581
927,5	20,438
928	19,667
928,4	18,267
928,8	19,724
929,2	17,61
929,7	21,924
930,1	24,495
930,5	23,467
930,9	21,324
931,3	25,981
931,8	23,352
932,2	23,867
932,6	21,267
933	17,41
933,5	11,781
933,9	16,067
934,3	16,181
934,7	18,41
935,2	14,381
935,6	13,124
936	7,981
936,4	11,867
936,8	12,724
937,3	10,152
937,7	6,01
938,1	10,467
938,5	9,01
939	14,981
939,4	16,495
939,8	11,695
940,2	12,267
940,6	11,581
941,1	12,752
941,5	13,152
941,9	12,867
942,3	9,638
942,8	15,238
943,2	7,981
943,6	6,552
944	1,981
944,4	4,41
944,9	4,21
945,3	6,152
945,7	2,924
946,1	9,124
946,6	9,381
947	12,352
947,4	7,095
947,8	13,61
948,2	15,381
948,7	11,181
949,1	9,238
949,5	11,095
949,9	12,381
950,3	14,381
950,8	8,124
951,2	6,01
951,6	11,21
952	12,81
952,5	10,21
952,9	4,781
953,3	6,352
953,7	3,895
954,1	2,81
954,6	3,038
955	3,867
955,4	4,324
955,8	9,524
956,2	8,781
956,7	14,21
957,1	13,295
957,5	15,238
957,9	14,981
958,3	18,61
958,8	18,095
959,2	19,638
959,6	22,381
960	23,752
960,5	20,324
960,9	20,581
961,3	18,381
961,7	18,41
962,1	17,581
962,6	14,781
963	19,267
963,4	20,752
963,8	18,352
964,2	17,267
964,7	16,238
965,1	18,238
965,5	16,81
965,9	11,495
966,3	12,81
966,8	13,152
967,2	17,838
967,6	14,124
968	8,81
968,4	10,038
968,9	10,438
969,3	6,267
969,7	2,81
970,1	-0,476
970,5	0,495
971	7,695
971,4	5,152
971,8	3,781
972,2	7,952
972,6	14,467
973,1	15,124
973,5	16,152
973,9	8,981
974,3	10,838
974,7	11,438
975,2	9,152
975,6	6,381
976	6,438
976,4	7,724
976,8	10,81
977,3	7,095
977,7	8,952
978,1	9,267
978,5	10,638
978,9	11,181
979,4	8,21
979,8	6,981
980,2	11,867
980,6	15,21
981	9,295
981,5	8,61
981,9	9,038
982,3	10,095
982,7	11,438
983,1	8,61
983,6	2,324
984	9,981
984,4	6,952
984,8	6,495
985,2	8,695
985,6	6,752
986,1	5,695
986,5	8,895
986,9	3,838
987,3	5,324
987,7	3,495
988,2	0,924
988,6	-2,762
989	3,724
989,4	0,267
989,8	3,295
990,3	1,581
990,7	-0,476
991,1	-3,39
991,5	2,495
991,9	-7,448
992,3	-6,476
992,8	-11,133
993,2	-8,819
993,6	-6,962
994	1,924
994,4	4,81
994,9	10,41
995,3	9,324
995,7	14,581
996,1	15,524
996,5	14,295
996,9	14,21
997,4	4,981
997,8	0,867
998,2	3,41
998,6	0,695
999	-0,705
999,5	1,581
999,9	0,552
1000,3	2,41
1000,7	9,095
1001,1	8,667
1001,5	12,867
1002	14,81
1002,4	13,181
1002,8	10,552
1003,2	10,495
1003,6	6,724
1004	8,267
1004,5	6,467
1004,9	3,495
1005,3	4,981
1005,7	7,41
1006,1	6,21
1006,6	4,752
1007	1,781
1007,4	1,41
1007,8	4,295
1008,2	10,21
1008,6	7,752
1009,1	10,724
1009,5	15,324
1009,9	17,667
1010,3	18,581
1010,7	20,01
1011,1	13,724
1011,6	8,495
1012	10,552
1012,4	6,152
1012,8	5,124
1013,2	1,41
1013,6	0,41
1014,1	-1,019
1014,5	4,295
1014,9	2,21
1015,3	0,781
1015,7	3,01
1016,1	7,467
1016,6	7,038
1017	6,981
1017,4	5,01
1017,8	12,467
1018,2	13,952
1018,6	13,781
1019,1	9,238
1019,5	9,41
1019,9	11,952
1020,3	11,895
1020,7	6,581
1021,1	3,267
1021,6	-0,59
1022	0,438
1022,4	2,067
1022,8	5,038
1023,2	1,381
1023,6	1,752
1024,1	6,381
1024,5	10,352
1024,9	13,867
1025,3	12,952
1025,7	8,667
1026,1	12,81
1026,6	18,495
1027	16,724
1027,4	14,752
1027,8	10,095
1028,2	10,638
1028,6	13,152
1029	6,838
1029,5	2,695
1029,9	4,038
1030,3	4,324
1030,7	8,324
1031,1	8,238
1031,5	3,381
1032	8,838
1032,4	11,267
1032,8	11,01
1033,2	6,467
1033,6	2,81
1034	-3,562
1034,4	-0,476
1034,9	2,81
1035,3	-1,133
1035,7	-2,533
1036,1	5,467
1036,5	6,095
1036,9	8,352
1037,4	9,724
1037,8	6,067
1038,2	8,181
1038,6	8,867
1039	6,695
1039,4	12,352
1039,8	15,752
1040,3	17,124
1040,7	19,895
1041,1	13,981
1041,5	17,238
1041,9	20,295
1042,3	17,21
1042,7	15,638
1043,2	13,267
1043,6	18,152
1044	23,038
1044,4	22,381
1044,8	16,352
1045,2	15,01
1045,6	19,552
1046,1	18,695
1046,5	13,381
1046,9	12,838
1047,3	13,81
1047,7	11,41
1048,1	8,267
1048,5	2,152
1049	-0,819
1049,4	-5,648
1049,8	-4,505
1050,2	-8,648
1050,6	-8,505
1051	-3,019
1051,4	-3,619
1051,9	1,467
1052,3	5,21
1052,7	4,352
1053,1	7,381
1053,5	6,667
1053,9	4,981
1054,3	1,952
1054,8	-2,619
1055,2	-0,333
1055,6	-0,476
1056	-4,219
1056,4	-5,305
1056,8	-5,562
1057,2	-2,762
1057,6	6,438
1058,1	8,295
1058,5	5,495
1058,9	3,867
1059,3	8,067
1059,7	8,895
1060,1	15,21
1060,5	7,81
1061	3,781
1061,4	2,124
1061,8	6,667
1062,2	6,981
1062,6	4,438
1063	1,724
1063,4	2,01
1063,8	1,01
1064,3	4,467
1064,7	4,981
1065,1	4,724
1065,5	7,924
1065,9	7,552
1066,3	8,352
1066,7	15,781
1067,1	17,638
1067,6	20,067
1068	25,238
1068,4	20,81
1068,8	19,981
1069,2	22,695
1069,6	15,067
1070	14,467
1070,4	8,095
1070,9	5,667
1071,3	7,667
1071,7	5,352
1072,1	1,667
1072,5	3,495
1072,9	5,038
1073,3	6,524
1073,7	2,61
1074,2	6,41
1074,6	8,638
1075	9,181
1075,4	12,867
1075,8	8,295
1076,2	12,981
1076,6	15,295
1077	15,381
1077,5	17,895
1077,9	11,924
1078,3	4,695
1078,7	7,295
1079,1	6,438
1079,5	6,067
1079,9	6,181
1080,3	6,495
1080,7	15,495
1081,2	20,21
1081,6	18,867
1082	20,638
1082,4	18,067
1082,8	15,81
1083,2	9,01
1083,6	4,638
1084	2,552
1084,5	6,324
1084,9	-0,162
1085,3	1,381
1085,7	-0,419
1086,1	4,867
1086,5	2,552
1086,9	5,552
1087,3	5,21
1087,7	9,81
1088,2	13,581
1088,6	16,638
1089	16,695
1089,4	21,467
1089,8	17,21
1090,2	12,581
1090,6	6,038
1091	0,981
1091,4	-1,962
1091,9	-4,705
1092,3	-3,219
1092,7	-4,733
1093,1	-2,905
1093,5	0,981
1093,9	4,095
1094,3	5,724
1094,7	4,352
1095,1	2,895
1095,5	8,067
1096	9,124
1096,4	8,352
1096,8	8,867
1097,2	10,438
1097,6	13,781
1098	10,867
1098,4	7,267
1098,8	7,124
1099,2	8,01
1099,6	8,952
1100,1	7,181
1100,5	5,238
1100,9	5,581
1101,3	7,581
1101,7	7,867
1102,1	8,667
1102,5	5,352
1102,9	3,924
1103,3	5,152
1103,7	9,552
1104,2	8,152
1104,6	8,438
1105	6,61
1105,4	9,952
1105,8	9,867
1106,2	8,781
1106,6	5,352
1107	5,467
1107,4	3,1
1107,8	4,707
1108,3	0,717
