Data from Subt2_00053.txt Node
Date: Mon Aug 28 13:21:06 MSK 2023
User: vat
Spectrometer: MAYP114033
Trigger mode: 0
Integration Time (sec): 1,000000E0
Scans to average: 5
Electric dark correction enabled: true
Nonlinearity correction enabled: false
Boxcar width: 3
XAxis mode: Wavelengths
Number of Pixels in Spectrum: 2068
>>>>>Begin Spectral Data<<<<<
199,4	-0,067
199,9	5,513
200,4	7,2
200,8	9,29
201,3	11,748
201,8	16,119
202,2	17,633
202,7	19,862
203,2	21,433
203,6	23,005
204,1	24,833
204,6	26,776
205	27,319
205,5	33,176
206	33,833
206,4	32,262
206,9	34,805
207,4	33,176
207,8	30,748
208,3	31,319
208,8	28,633
209,2	30,805
209,7	28,976
210,2	20,233
210,6	20,805
211,1	21,319
211,5	22,033
212	22,033
212,5	22,262
212,9	23,005
213,4	29,719
213,9	30,948
214,3	31,233
214,8	30,29
215,3	30,233
215,7	29,49
216,2	29,748
216,7	31,433
217,1	30,062
217,6	32,348
218,1	29,662
218,5	28,719
219	27,719
219,5	30,605
219,9	27,233
220,4	27,433
220,9	25,148
221,3	26,519
221,8	32,776
222,3	36,919
222,7	37,89
223,2	38,205
223,6	37,833
224,1	41,205
224,6	40,576
225	33,433
225,5	28,49
226	28,49
226,4	29,89
226,9	30,433
227,4	31,062
227,8	32,633
228,3	31,405
228,8	33,805
229,2	37,09
229,7	38,805
230,2	38,033
230,6	35,89
231,1	39,205
231,5	44,548
232	44,348
232,5	42,09
232,9	38,976
233,4	41,233
233,9	40,233
234,3	34,748
234,8	32,233
235,3	24,776
235,7	16,833
236,2	17,205
236,7	13,09
237,1	19,919
237,6	20,69
238,1	20,148
238,5	28,776
239	29,548
239,4	32,29
239,9	36,805
240,4	31,148
240,8	34,576
241,3	36,119
241,8	33,805
242,2	38,633
242,7	39,605
243,2	38,633
243,6	42,119
244,1	34,948
244,6	34,119
245	37,49
245,5	34,09
245,9	29,005
246,4	28,09
246,9	23,319
247,3	23,805
247,8	22,433
248,3	17,262
248,7	22,748
249,2	25,519
249,7	23,633
250,1	21,833
250,6	26,49
251	26,976
251,5	28,862
252	20,748
252,4	20,205
252,9	20,462
253,4	27,319
253,8	25,633
254,3	25,433
254,8	27,748
255,2	34,948
255,7	36,776
256,1	38,948
256,6	39,205
257,1	44,348
257,5	43,005
258	39,519
258,5	35,319
258,9	31,005
259,4	31,033
259,9	26,719
260,3	19,719
260,8	23,833
261,2	25,748
261,7	31,633
262,2	33,919
262,6	31,976
263,1	32,605
263,6	35,976
264	36,805
264,5	36,862
264,9	34,69
265,4	30,662
265,9	33,205
266,3	32,748
266,8	29,919
267,3	27,519
267,7	27,862
268,2	23,862
268,7	28,205
269,1	25,748
269,6	26,833
270	35,005
270,5	34,319
271	32,605
271,4	37,319
271,9	41,262
272,4	42,862
272,8	44,49
273,3	38,948
273,7	37,519
274,2	37,805
274,7	33,605
275,1	32,29
275,6	36,405
276,1	33,348
276,5	34,462
277	36,49
277,4	39,205
277,9	42,49
278,4	39,605
278,8	37,805
279,3	36,205
279,8	30,49
280,2	29,29
280,7	24,776
281,1	19,919
281,6	20,433
282,1	21,433
282,5	22,576
283	25,319
283,4	29,205
283,9	31,205
284,4	34,833
284,8	31,748
285,3	30,49
285,8	30,319
286,2	26,29
286,7	20,033
287,1	22,205
287,6	22,776
288,1	30,119
288,5	28,748
289	31,462
289,5	35,805
289,9	41,976
290,4	40,148
290,8	38,719
291,3	35,805
291,8	35,776
292,2	34,348
292,7	34,433
293,1	31,205
293,6	29,119
294,1	30,119
294,5	28,462
295	28,262
295,5	28,062
295,9	30,433
296,4	31,233
296,8	36,319
297,3	32,69
297,8	33,519
298,2	33,262
298,7	32,09
299,1	31,662
299,6	27,262
300,1	26,405
300,5	28,605
301	27,919
301,5	25,176
301,9	24,805
302,4	21,605
302,8	22,833
303,3	23,29
303,8	24,348
304,2	17,348
304,7	19,776
305,1	21,033
305,6	25,976
306,1	26,605
306,5	27,09
307	26,576
307,4	33,748
307,9	31,348
308,4	31,29
308,8	29,319
309,3	31,662
309,8	30,348
310,2	31,776
310,7	35,319
311,1	36,833
311,6	39,805
312,1	36,576
312,5	34,576
313	34,09
313,4	36,948
313,9	32,262
314,4	32,976
314,8	32,176
315,3	37,376
315,7	38,148
316,2	37,262
316,7	28,348
317,1	28,548
317,6	28,576
318	30,69
318,5	28,519
319	31,319
319,4	29,119
319,9	29,519
320,3	33,919
320,8	36,49
321,3	31,748
321,7	27,062
322,2	28,576
322,6	30,719
323,1	32,919
323,6	30,205
324	29,748
324,5	27,262
324,9	29,405
325,4	27,433
325,9	27,948
326,3	25,262
326,8	25,119
327,2	23,89
327,7	25,919
328,2	28,119
328,6	26,748
329,1	24,062
329,5	24,69
330	23,719
330,5	20,319
330,9	21,776
331,4	23,719
331,8	26,319
332,3	29,433
332,8	32,49
333,2	31,89
333,7	31,605
334,1	32,462
334,6	31,633
335,1	29,062
335,5	30,519
336	27,976
336,4	28,89
336,9	29,405
337,4	28,376
337,8	28,49
338,3	26,776
338,7	28,776
339,2	32,119
339,7	30,69
340,1	31,605
340,6	30,605
341	28,062
341,5	31,805
342	29,748
342,4	34,348
342,9	35,005
343,3	34,948
343,8	34,605
344,2	36,319
344,7	38,833
345,2	34,376
345,6	29,89
346,1	29,233
346,5	30,976
347	31,719
347,5	30,462
347,9	26,348
348,4	28,148
348,8	29,09
349,3	35,548
349,8	36,119
350,2	42,09
350,7	43,833
351,1	47,605
351,6	55,205
352	62,348
352,5	64,605
353	72,833
353,4	78,548
353,9	90,49
354,3	104,062
354,8	111,919
355,3	129,862
355,7	145,776
356,2	166,662
356,6	192,376
357,1	220,862
357,5	253,29
358	294,748
358,5	335,119
358,9	384,69
359,4	444,062
359,8	509,662
360,3	583,948
360,8	663,319
361,2	757,262
361,7	858,919
362,1	970,776
362,6	1093,49
363	1224,576
363,5	1363,119
364	1516,548
364,4	1667,09
364,9	1822,29
365,3	1978,69
365,8	2121,605
366,3	2256,976
366,7	2392,233
367,2	2500,005
367,6	2590,776
368,1	2663,548
368,5	2716,148
369	2746,976
369,5	2756,148
369,9	2729,433
370,4	2692,919
370,8	2639,548
371,3	2566,548
371,7	2481,976
372,2	2386,748
372,7	2277,119
373,1	2168,605
373,6	2047,462
374	1925,262
374,5	1803,29
374,9	1679,89
375,4	1562,29
375,9	1447,576
376,3	1337,519
376,8	1239,148
377,2	1145,948
377,7	1057,062
378,2	974,948
378,6	897,176
379,1	827,748
379,5	758,948
380	694,805
380,4	639,805
380,9	586,519
381,4	541,805
381,8	500,062
382,3	462,548
382,7	434,948
383,2	405,605
383,6	377,176
384,1	354,633
384,6	333,376
385	313,433
385,5	294,548
385,9	278,49
386,4	263,748
386,8	251,09
387,3	237,148
387,7	220,376
388,2	207,576
388,7	197,119
389,1	178,633
389,6	170,576
390	157,062
390,5	145,09
390,9	133,605
391,4	122,29
391,9	114,919
392,3	112,548
392,8	105,205
393,2	101,948
393,7	93,605
394,1	96,89
394,6	96,148
395,1	95,662
395,5	92,376
396	86,319
396,4	84,376
396,9	89,062
397,3	84,148
397,8	78,833
398,2	72,005
398,7	71,176
399,2	74,519
399,6	77,29
400,1	79,49
400,5	80,319
401	81,262
401,4	84,062
401,9	85,748
402,4	86,29
402,8	81,262
403,3	77,919
403,7	76,348
404,2	80,119
404,6	78,29
405,1	81,576
405,5	77,548
406	80,519
406,5	82,862
406,9	86,833
407,4	89,719
407,8	100,776
408,3	98,29
408,7	103,776
409,2	106,176
409,6	110,948
410,1	114,376
410,6	124,29
411	123,062
411,5	133,976
411,9	148,462
412,4	161,319
412,8	172,376
413,3	183,605
413,7	190,805
414,2	199,405
414,7	207,176
415,1	211,233
415,6	219,262
416	228,519
416,5	242,919
416,9	257,89
417,4	276,205
417,8	287,376
418,3	300,776
418,8	318,89
419,2	337,233
419,7	353,176
420,1	363,89
420,6	376,719
421	406,319
421,5	432,548
421,9	454,948
422,4	479,948
422,8	500,033
423,3	528,633
423,8	560,233
424,2	580,69
424,7	604,69
425,1	632,462
425,6	658,519
426	691,919
426,5	724,519
426,9	765,005
427,4	802,205
427,9	845,948
428,3	890,49
428,8	934,519
429,2	978,662
429,7	1026,119
430,1	1071,576
430,6	1127,605
431	1180,862
431,5	1234,69
431,9	1299,719
432,4	1368,09
432,8	1438,519
433,3	1515,176
433,8	1595,262
434,2	1675,976
434,7	1756,519
435,1	1847,919
435,6	1937,262
436	2031,605
436,5	2123,633
436,9	2219,376
437,4	2326,862
437,8	2442,205
438,3	2551,005
438,8	2667,576
439,2	2792,405
439,7	2926,062
440,1	3057,748
440,6	3197,862
441	3333,376
441,5	3472,976
441,9	3625,119
442,4	3776,748
442,8	3939,405
443,3	4105,89
443,7	4268,776
444,2	4448,576
444,7	4637,262
445,1	4825,519
445,6	5019,748
446	5218,433
446,5	5424,805
446,9	5633,548
447,4	5850,033
447,8	6064,976
448,3	6294,376
448,7	6523,148
449,2	6746,948
449,6	6978,29
450,1	7222,576
450,6	7463,376
451	7713,862
451,5	7964,976
451,9	8224,376
452,4	8487,833
452,8	8757,862
453,3	9015,148
453,7	9293,719
454,2	9578,09
454,6	9862,576
455,1	10149,005
455,5	10435,462
456	10728,348
456,4	11042,576
456,9	11345,405
457,3	11646,862
457,8	11955,033
458,3	12263,233
458,7	12595,49
459,2	12920,462
459,6	13240,976
460,1	13572,805
460,5	13908,49
461	14240,062
461,4	14581,09
461,9	14895,233
462,3	15218,948
462,8	15538,005
463,2	15850,605
463,7	16159,462
464,1	16469,576
464,6	16778,919
465	17098,262
465,5	17401,262
466	17715,233
466,4	18022,633
466,9	18344,319
467,3	18666,548
467,8	18981,662
468,2	19287,719
468,7	19601,176
469,1	19910,49
469,6	20213,976
470	20506,119
470,5	20792,405
470,9	21088,033
471,4	21370,548
471,8	21642,919
472,3	21914,176
472,7	22175,119
473,2	22439,919
473,6	22702,09
474,1	22955,748
474,5	23204,005
475	23465,833
475,4	23711,576
475,9	23956,748
476,4	24183,662
476,8	24393,576
477,3	24596,29
477,7	24805,348
478,2	25003,205
478,6	25204,89
479,1	25379,976
479,5	25559,205
480	25722,29
480,4	25885,89
480,9	26031,405
481,3	26175,176
481,8	26289,719
482,2	26420,433
482,7	26528,405
483,1	26656,776
483,6	26751,576
484	26853,89
484,5	26931,405
484,9	27019,948
485,4	27082,405
485,8	27151,405
486,3	27205,148
486,7	27251,519
487,2	27296,49
487,6	27343,948
488,1	27363,49
488,5	27397,433
489	27415,29
489,4	27412,776
489,9	27430,148
490,4	27423,862
490,8	27403,433
491,3	27389,805
491,7	27345,662
492,2	27301,348
492,6	27253,948
493,1	27170,862
493,5	27092,176
494	27007,548
494,4	26914,005
494,9	26850,348
495,3	26754,119
495,8	26676,405
496,2	26599,433
496,7	26523,89
497,1	26442,262
497,6	26345,662
498	26241,948
498,5	26146,862
498,9	26033,005
499,4	25918,233
499,8	25793,433
500,3	25668,719
500,7	25544,462
501,2	25412,005
501,6	25271,719
502,1	25134,976
502,5	24989,662
503	24848,205
503,4	24714,033
503,9	24567,719
504,3	24401,148
504,8	24251,605
505,2	24090,319
505,7	23926,433
506,1	23758,605
506,6	23570,462
507	23393,433
507,5	23225,176
507,9	23060,776
508,4	22868,805
508,8	22706,462
509,3	22524,519
509,7	22345,119
510,2	22165,319
510,6	21989,948
511,1	21800,062
511,5	21617,319
512	21415,033
512,4	21209,833
512,9	21006,29
513,3	20815,376
513,8	20622,176
514,2	20421,49
514,7	20232,89
515,1	20025,948
515,6	19826,49
516	19643,462
516,5	19449,605
516,9	19245,805
517,4	19054,49
517,8	18856,948
518,3	18682,262
518,7	18491,062
519,2	18300,176
519,6	18103,862
520,1	17910,919
520,5	17704,919
521	17511,119
521,4	17313,948
521,9	17141,262
522,3	16950,776
522,8	16769,719
523,2	16599,719
523,7	16432,805
524,1	16247,576
524,6	16064,433
525	15879,519
525,5	15697,09
525,9	15522,319
526,4	15339,833
526,8	15164,233
527,3	14995,719
527,7	14829,062
528,2	14659,376
528,6	14506,005
529,1	14330,348
529,5	14167,348
530	14006,805
530,4	13848,548
530,9	13683,062
531,3	13531,119
531,8	13367,29
532,2	13229,805
532,6	13072,176
533,1	12912,033
533,5	12758,862
534	12624,605
534,4	12470,062
534,9	12323,29
535,3	12175,548
535,8	12042,148
536,2	11909,405
536,7	11781,576
537,1	11630,948
537,6	11502,519
538	11376,548
538,5	11244,69
538,9	11106,605
539,4	10977,348
539,8	10853,233
540,3	10735,233
540,7	10619,833
541,2	10495,29
541,6	10372,462
542,1	10256,776
542,5	10144,005
543	10032,205
543,4	9919,576
543,9	9806,348
544,3	9692,69
544,8	9583,862
545,2	9482,576
545,7	9379,633
546,1	9268,433
546,5	9169,662
547	9067,976
547,4	8964,862
547,9	8869,548
548,3	8766,805
548,8	8664,405
549,2	8572,862
549,7	8484,862
550,1	8388,433
550,6	8302,262
551	8207,062
551,5	8121,262
551,9	8034,862
552,4	7941,176
552,8	7844,776
553,3	7758,119
553,7	7680,748
554,2	7593,262
554,6	7510,09
555,1	7430,005
555,5	7357,205
555,9	7287,776
556,4	7219,919
556,8	7142,462
557,3	7078,376
557,7	7014,148
558,2	6941,776
558,6	6872,576
559,1	6803,148
559,5	6738,433
560	6677,89
560,4	6602,776
560,9	6535,233
561,3	6474,405
561,8	6410,548
562,2	6353,833
562,7	6282,662
563,1	6217,376
563,6	6164,09
564	6100,033
564,4	6044,148
564,9	5984,605
565,3	5918,976
565,8	5857,976
566,2	5796,205
566,7	5743,776
567,1	5690,976
567,6	5626,376
568	5573,262
568,5	5520,062
568,9	5473,062
569,4	5425,405
569,8	5369,89
570,3	5316,748
570,7	5269,89
571,1	5224,119
571,6	5176,719
572	5134,176
572,5	5080,119
572,9	5039,576
573,4	4993,09
573,8	4948,148
574,3	4897,805
574,7	4857,462
575,2	4818,719
575,6	4786,376
576,1	4747,262
576,5	4707,776
576,9	4661,89
577,4	4624,262
577,8	4575,548
578,3	4525,605
578,7	4475,919
579,2	4426,805
579,6	4382,748
580,1	4348,062
580,5	4305,376
581	4269,09
581,4	4231,862
581,9	4191,205
582,3	4155,262
582,7	4120,462
583,2	4080,662
583,6	4043,005
584,1	4003,69
584,5	3966,49
585	3934,719
585,4	3897,919
585,9	3859,548
586,3	3830,633
586,8	3799,719
587,2	3767,319
587,6	3731,49
588,1	3696,805
588,5	3668,548
589	3636,176
589,4	3602,09
589,9	3570,348
590,3	3540,633
590,8	3520,033
591,2	3490,205
591,7	3457,005
592,1	3432,69
592,5	3410,89
593	3387,462
593,4	3357,062
593,9	3333,433
594,3	3308,805
594,8	3285,348
595,2	3264,548
595,7	3235,29
596,1	3206,205
596,6	3184,033
597	3155,376
597,4	3135,776
597,9	3113,233
598,3	3089,033
598,8	3065,948
599,2	3042,69
599,7	3028,09
600,1	3002,348
600,6	2977,948
601	2963,405
601,4	2943,948
601,9	2924,062
602,3	2901,605
602,8	2875,433
603,2	2853,348
603,7	2834,405
604,1	2805,29
604,6	2784,948
605	2761,662
605,4	2746,205
605,9	2724,233
606,3	2706,462
606,8	2683,662
607,2	2663,176
607,7	2642,833
608,1	2622,405
608,6	2605,919
609	2587,519
609,4	2567,29
609,9	2556,348
610,3	2541,719
610,8	2523,69
611,2	2507,976
611,7	2488,919
612,1	2472,519
612,6	2451,176
613	2419,519
613,4	2396,205
613,9	2375,919
614,3	2354,605
614,8	2329,033
615,2	2313,548
615,7	2297,462
616,1	2288,605
616,6	2276,062
617	2256,89
617,4	2244,176
617,9	2231,005
618,3	2206,319
618,8	2193,262
619,2	2176,09
619,7	2157,919
620,1	2144,89
620,5	2125,376
621	2111,519
621,4	2102,176
621,9	2081,805
622,3	2070,462
622,8	2054,033
623,2	2033,576
623,6	2020,89
624,1	2005,576
624,5	1987,519
625	1975,319
625,4	1959,976
625,9	1945,662
626,3	1933,148
626,8	1919,09
627,2	1900,976
627,6	1888,548
628,1	1874,919
628,5	1858,233
629	1838,262
629,4	1820,49
629,9	1804,205
630,3	1790,519
630,7	1779,548
631,2	1768,319
631,6	1744,462
632,1	1739,176
632,5	1736,605
633	1722,376
633,4	1709,976
633,8	1689,748
634,3	1672,833
634,7	1667,062
635,2	1656,49
635,6	1636,462
636,1	1625,69
636,5	1611,176
636,9	1602,005
637,4	1592,148
637,8	1581,748
638,3	1567,29
638,7	1552,69
639,2	1539,605
639,6	1532,89
640	1520,376
640,5	1508,662
640,9	1499,633
641,4	1493,376
641,8	1484,233
642,2	1471,233
642,7	1465,662
643,1	1453,948
643,6	1444,833
644	1435,205
644,5	1422,862
644,9	1418,976
645,3	1412,633
645,8	1396,862
646,2	1387,462
646,7	1375,233
647,1	1362,49
647,6	1343,348
648	1331,205
648,4	1321,29
648,9	1311,548
649,3	1302,776
649,8	1296,205
650,2	1290,29
650,6	1292,376
651,1	1280,148
651,5	1270,862
652	1266,005
652,4	1258,833
652,9	1247,49
653,3	1232,919
653,7	1220,433
654,2	1216,862
654,6	1211,262
655,1	1196,005
655,5	1186,262
655,9	1179,405
656,4	1175,233
656,8	1166,233
657,3	1158,833
657,7	1144,833
658,2	1140,405
658,6	1135,348
659	1132,09
659,5	1126,49
659,9	1121,548
660,4	1111,776
660,8	1107,062
661,2	1096,576
661,7	1085,176
662,1	1073,09
662,6	1065,119
663	1052,262
663,4	1042,719
663,9	1033,605
664,3	1022,862
664,8	1018,033
665,2	1012,976
665,6	1002,348
666,1	1001,719
666,5	991,662
667	982,433
667,4	982,519
667,9	976,033
668,3	964,49
668,7	957,319
669,2	944,376
669,6	939,09
670,1	936,89
670,5	926,976
670,9	915,948
671,4	903,205
671,8	901,062
672,3	895,748
672,7	891,033
673,1	886,29
673,6	884,205
674	880,948
674,5	885,062
674,9	871,69
675,3	864,09
675,8	855,948
676,2	845,976
676,7	833,49
677,1	828,49
677,5	820,862
678	818,548
678,4	820,319
678,9	813,633
679,3	807,262
679,7	804,262
680,2	798,662
680,6	788,262
681,1	783,576
681,5	775,29
681,9	774,89
682,4	770,976
682,8	762,69
683,3	758,29
683,7	756,805
684,1	746,805
684,6	737,605
685	724,69
685,5	712,633
685,9	709,462
686,3	705,662
686,8	702,09
687,2	701,148
687,7	695,033
688,1	693,262
688,5	689,233
689	689,69
689,4	681,833
689,9	675,49
690,3	669,49
690,7	669,319
691,2	668,062
691,6	669,662
692	660,033
692,5	655,148
692,9	649,233
693,4	642,605
693,8	632,176
694,2	624,69
694,7	618,376
695,1	618,519
695,6	615,805
696	611,833
696,4	608,119
696,9	605,148
697,3	602,29
697,8	598,205
698,2	586,205
698,6	579,319
699,1	578,405
699,5	574,862
699,9	570,005
700,4	565,033
700,8	562,462
701,3	558,69
701,7	550,262
702,1	546,433
702,6	540,29
703	538,776
703,5	531,662
703,9	529,89
704,3	530,348
704,8	532,462
705,2	526,548
705,6	526,719
706,1	517,633
706,5	521,062
707	516,148
707,4	515,176
707,8	511,576
708,3	509,69
708,7	504,119
709,2	504,662
709,6	502,233
710	491,005
710,5	483,662
710,9	481,119
711,3	475,176
711,8	466,09
712,2	463,519
712,7	454,405
713,1	457,719
713,5	457,262
714	454,062
714,4	447,005
714,8	454,776
715,3	452,205
715,7	447,919
716,2	447,776
716,6	441,033
717	438,519
717,5	437,462
717,9	431,548
718,3	428,376
718,8	427,833
719,2	423,748
719,7	421,319
720,1	415,09
720,5	415,776
721	412,033
721,4	410,148
721,8	407,49
722,3	403,376
722,7	400,233
723,2	396,433
723,6	394,69
724	390,119
724,5	387,919
724,9	384,176
725,3	378,29
725,8	377,176
726,2	376,519
726,7	367,29
727,1	366,148
727,5	361,148
728	352,519
728,4	351,462
728,8	346,633
729,3	345,433
729,7	346,833
730,1	339,919
730,6	338,919
731	341,205
731,5	341,862
731,9	338,29
732,3	333,948
732,8	328,776
733,2	332,005
733,6	330,776
734,1	325,976
734,5	321,462
734,9	320,005
735,4	315,405
735,8	313,09
736,3	308,062
736,7	304,862
737,1	304,148
737,6	302,433
738	303,776
738,4	306,633
738,9	310,005
739,3	309,719
739,7	309,233
740,2	310,662
740,6	310,548
741,1	304,348
741,5	300,033
741,9	297,176
742,4	298,548
742,8	298,462
743,2	296,462
743,7	293,719
744,1	293,49
744,5	288,548
745	283,319
745,4	281,148
745,8	278,176
746,3	275,976
746,7	272,262
747,2	269,148
747,6	271,89
748	276,033
748,5	273,262
748,9	269,433
749,3	267,976
749,8	268,233
750,2	267,433
750,6	263,605
751,1	259,833
751,5	260,976
751,9	261,548
752,4	264,776
752,8	261,348
753,3	260,69
753,7	260,376
754,1	257,833
754,6	249,005
755	247,09
755,4	242,805
755,9	243,205
756,3	245,376
756,7	247,005
757,2	243,69
757,6	245,576
758	241,576
758,5	238,633
758,9	235,348
759,3	233,69
759,8	226,405
760,2	226,948
760,6	232,719
761,1	234,29
761,5	234,605
761,9	233,148
762,4	232,433
762,8	237,062
763,3	235,376
763,7	230,833
764,1	226,69
764,6	222,776
765	227,833
765,4	226,605
765,9	228,29
766,3	229,29
766,7	226,29
767,2	224,576
767,6	231,405
768	222,462
768,5	217,119
768,9	210,748
769,3	209,319
769,8	206,519
770,2	206,833
770,6	198,262
771,1	195,948
771,5	197,948
771,9	199,462
772,4	197,262
772,8	194,976
773,2	198,433
773,7	196,605
774,1	207,462
774,5	204,976
775	203,005
775,4	198,976
775,8	198,062
776,3	194,205
776,7	194,29
777,1	186,005
777,6	182,69
778	179,69
778,4	183,09
778,9	181,49
779,3	178,976
779,7	174,376
780,2	177,09
780,6	179,033
781	176,005
781,5	174,262
781,9	177,976
782,3	176,862
782,8	178,862
783,2	173,405
783,6	172,09
784,1	176,348
784,5	175,29
784,9	172,519
785,4	174,033
785,8	174,49
786,2	173,633
786,7	169,862
787,1	169,662
787,5	165,605
788	162,148
788,4	162,805
788,8	159,205
789,3	159,776
789,7	157,719
790,1	154,89
790,6	156,176
791	157,376
791,4	152,719
791,9	154,005
792,3	152,148
792,7	153,862
793,2	153,405
793,6	151,605
794	150,348
794,5	149,319
794,9	151,205
795,3	150,719
795,8	155,89
796,2	151,89
796,6	151,833
797,1	151,948
797,5	150,776
797,9	148,719
798,4	149,062
798,8	143,319
799,2	146,89
799,7	146,433
800,1	146,09
800,5	148,462
801	147,662
801,4	145,062
801,8	143,09
802,2	138,748
802,7	139,69
803,1	136,433
803,5	132,576
804	128,433
804,4	127,862
804,8	130,462
805,3	130,776
805,7	130,062
806,1	128,176
806,6	132,919
807	130,033
807,4	129,319
807,9	126,576
808,3	126,09
808,7	118,462
809,2	119,233
809,6	115,948
810	122,433
810,4	120,148
810,9	119,148
811,3	122,09
811,7	125,576
812,2	126,205
812,6	123,833
813	119,548
813,5	122,919
813,9	119,89
814,3	113,005
814,8	112,348
815,2	110,49
815,6	108,662
816,1	110,833
816,5	106,89
816,9	109,862
817,3	110,205
817,8	111,376
818,2	111,033
818,6	112,205
819,1	108,348
819,5	110,462
819,9	113,148
820,4	117,862
820,8	116,29
821,2	114,805
821,7	110,405
822,1	111,919
822,5	114,005
822,9	109,662
823,4	103,662
823,8	102,862
824,2	104,548
824,7	103,376
825,1	100,348
825,5	96,033
826	92,233
826,4	92,605
826,8	91,519
827,3	88,633
827,7	93,89
828,1	95,862
828,5	96,548
829	99,805
829,4	99,405
829,8	102,148
830,3	106,49
830,7	104,148
831,1	104,033
831,6	100,319
832	98,776
832,4	100,519
832,8	97,433
833,3	95,005
833,7	89,09
834,1	88,719
834,6	91,462
835	92,262
835,4	86,548
835,8	85,976
836,3	81,29
836,7	80,89
837,1	78,462
837,6	72,176
838	67,89
838,4	67,233
838,9	69,233
839,3	73,405
839,7	78,062
840,1	78,262
840,6	84,405
841	85,519
841,4	86,119
841,9	83,919
842,3	79,433
842,7	74,605
843,1	74,548
843,6	70,262
844	73,605
844,4	75,976
844,9	76,433
845,3	78,29
845,7	80,405
846,2	81,005
846,6	83,776
847	82,576
847,4	84,205
847,9	79,233
848,3	73,719
848,7	75,319
849,2	74,005
849,6	71,462
850	74,062
850,4	68,148
850,9	68,376
851,3	80,319
851,7	79,205
852,2	77,348
852,6	78,119
853	72,29
853,4	73,548
853,9	74,005
854,3	69,033
854,7	71,376
855,2	72,548
855,6	69,776
856	73,319
856,4	73,319
856,9	74,662
857,3	69,319
857,7	69,69
858,2	68,09
858,6	66,662
859	61,576
859,4	66,919
859,9	68,633
860,3	67,548
860,7	63,548
861,1	64,49
861,6	72,09
862	74,719
862,4	66,976
862,9	61,576
863,3	62,062
863,7	60,09
864,1	58,148
864,6	55,89
865	54,405
865,4	57,09
865,9	58,462
866,3	61,09
866,7	59,948
867,1	62,262
867,6	60,576
868	59,062
868,4	57,433
868,8	57,976
869,3	56,719
869,7	63,748
870,1	62,062
870,6	59,433
871	101,976
871,4	102,176
871,8	103,89
872,3	104,976
872,7	96,176
873,1	91,69
873,5	89,862
874	51,319
874,4	50,89
874,8	46,005
875,3	40,519
875,7	39,662
876,1	44,262
876,5	46,376
877	43,09
877,4	45,748
877,8	45,376
878,2	53,519
878,7	59,89
879,1	59,976
879,5	62,29
879,9	58,49
880,4	52,805
880,8	58,976
881,2	53,576
881,7	50,29
882,1	49,548
882,5	46,462
882,9	49,833
883,4	57,033
883,8	53,605
884,2	53,148
884,6	50,09
885,1	45,976
885,5	45,862
885,9	46,148
886,3	41,005
886,8	45,033
887,2	41,119
887,6	44,89
888	48,376
888,5	47,662
888,9	42,405
889,3	42,776
889,8	39,833
890,2	43,262
890,6	42,29
891	40,462
891,5	41,29
891,9	39,805
892,3	42,062
892,7	40,033
893,2	43,033
893,6	40,805
894	43,462
894,4	41,319
894,9	48,49
895,3	46,348
895,7	47,976
896,1	43,09
896,6	45,976
897	48,776
897,4	52,09
897,8	48,919
898,3	47,89
898,7	48,69
899,1	49,519
899,5	49,433
900	44,062
900,4	39,89
900,8	32,433
901,2	29,348
901,7	27,176
902,1	27,662
902,5	26,805
902,9	27,548
903,4	31,062
903,8	37,062
904,2	43,948
904,6	42,433
905,1	42,69
905,5	43,919
905,9	42,376
906,3	39,662
906,8	40,176
907,2	35,862
907,6	36,29
908	34,433
908,5	29,405
908,9	30,119
909,3	33,205
909,7	32,29
910,2	33,462
910,6	31,405
911	35,69
911,4	39,119
911,9	39,605
912,3	37,348
912,7	39,748
913,1	35,233
913,6	38,176
914	38,433
914,4	40,29
914,8	40,862
915,3	38,205
915,7	38,948
916,1	39,405
916,5	37,548
916,9	35,576
917,4	29,976
917,8	27,148
918,2	34,376
918,6	30,862
919,1	32,29
919,5	34,062
919,9	32,462
920,3	41,376
920,8	47,805
921,2	41,033
921,6	41,262
922	39,776
922,5	41,005
922,9	42,919
923,3	38,833
923,7	33,519
924,2	38,633
924,6	39,776
925	42,433
925,4	43,062
925,8	40,833
926,3	38,148
926,7	36,119
927,1	34,348
927,5	34,862
928	29,805
928,4	23,89
928,8	25,405
929,2	27,233
929,7	32,205
930,1	32,776
930,5	30,462
930,9	38,633
931,3	40,919
931,8	41,919
932,2	41,29
932,6	36,948
933	31,148
933,5	31,719
933,9	29,576
934,3	30,69
934,7	28,576
935,2	26,405
935,6	28,319
936	24,919
936,4	25,462
936,8	21,348
937,3	21,348
937,7	21,119
938,1	23,233
938,5	18,948
939	23,719
939,4	22,205
939,8	23,319
940,2	21,148
940,6	20,776
941,1	19,805
941,5	23,948
941,9	26,433
942,3	26,919
942,8	33,662
943,2	29,405
943,6	28,776
944	23,833
944,4	21,376
944,9	17,119
945,3	22,748
945,7	18,519
946,1	24,49
946,6	25,49
947	32,662
947,4	30,748
947,8	37,49
948,2	37,062
948,7	36,662
949,1	34,919
949,5	35,119
949,9	31,776
950,3	33,233
950,8	31,348
951,2	28,119
951,6	28,519
952	30,748
952,5	27,89
952,9	27,576
953,3	28,319
953,7	23,776
954,1	22,976
954,6	19,919
955	24,49
955,4	27,433
955,8	33,433
956,2	35,633
956,7	40,176
957,1	40,719
957,5	45,462
957,9	39,605
958,3	40,405
958,8	35,805
959,2	37,062
959,6	40,576
960	39,348
960,5	36,376
960,9	38,319
961,3	36,405
961,7	41,205
962,1	41,033
962,6	37,205
963	42,605
963,4	41,662
963,8	40,205
964,2	40,948
964,7	34,319
965,1	32,805
965,5	36,09
965,9	31,176
966,3	35,033
966,8	33,376
967,2	34,776
967,6	35,976
968	36,633
968,4	34,576
968,9	34,433
969,3	31,89
969,7	29,148
970,1	26,09
970,5	27,205
971	23,662
971,4	20,548
971,8	22,605
972,2	20,062
972,6	23,633
973,1	23,548
973,5	23,633
973,9	25,148
974,3	24,605
974,7	24,29
975,2	28,205
975,6	27,033
976	29,348
976,4	27,69
976,8	27,433
977,3	26,262
977,7	24,319
978,1	23,662
978,5	26,862
978,9	26,89
979,4	30,033
979,8	26,776
980,2	31,462
980,6	33,69
981	33,633
981,5	30,062
981,9	29,519
982,3	26,89
982,7	28,49
983,1	26,405
983,6	26,89
984	24,948
984,4	23,748
984,8	27,09
985,2	25,433
985,6	29,348
986,1	26,69
986,5	26,748
986,9	26,833
987,3	24,776
987,7	24,262
988,2	24,805
988,6	20,519
989	27,176
989,4	25,548
989,8	28,148
990,3	33,29
990,7	29,09
991,1	30,376
991,5	33,005
991,9	25,29
992,3	21,376
992,8	15,662
993,2	14,633
993,6	13,805
994	18,948
994,4	22,948
994,9	25,662
995,3	26,376
995,7	27,376
996,1	26,005
996,5	26,005
996,9	27,233
997,4	21,433
997,8	21,948
998,2	24,319
998,6	24,062
999	23,233
999,5	23,605
999,9	16,433
1000,3	16,062
1000,7	21,89
1001,1	24,548
1001,5	28,548
1002	30,862
1002,4	29,633
1002,8	33,148
1003,2	32,319
1003,6	25,319
1004	25,176
1004,5	23,405
1004,9	23,719
1005,3	24,348
1005,7	25,119
1006,1	24,462
1006,6	22,805
1007	16,49
1007,4	16,119
1007,8	17,49
1008,2	23,319
1008,6	20,29
1009,1	19,233
1009,5	26,176
1009,9	31,49
1010,3	30,348
1010,7	33,719
1011,1	32,29
1011,6	26,605
1012	31,376
1012,4	25,662
1012,8	23,748
1013,2	26,205
1013,6	23,405
1014,1	17,062
1014,5	24,262
1014,9	24,205
1015,3	27,462
1015,7	27,005
1016,1	29,062
1016,6	29,576
1017	34,49
1017,4	29,805
1017,8	36,148
1018,2	32,548
1018,6	29,662
1019,1	27,776
1019,5	20,948
1019,9	18,919
1020,3	21,462
1020,7	17,262
1021,1	14,262
1021,6	16,976
1022	15,519
1022,4	18,976
1022,8	19,605
1023,2	17,605
1023,6	17,062
1024,1	26,748
1024,5	31,948
1024,9	34,919
1025,3	38,205
1025,7	37,862
1026,1	41,005
1026,6	39,433
1027	31,776
1027,4	28,719
1027,8	25,89
1028,2	28,29
1028,6	28,319
1029	25,605
1029,5	25,69
1029,9	35,576
1030,3	30,805
1030,7	36,862
1031,1	35,69
1031,5	32,948
1032	34,976
1032,4	39,005
1032,8	28,062
1033,2	27,776
1033,6	20,09
1034	13,262
1034,4	18,576
1034,9	19,176
1035,3	14,805
1035,7	19,405
1036,1	27,776
1036,5	29,119
1036,9	35,033
1037,4	33,462
1037,8	32,719
1038,2	36,119
1038,6	34,005
1039	32,233
1039,4	38,576
1039,8	43,148
1040,3	46,148
1040,7	49,833
1041,1	42,033
1041,5	46,89
1041,9	48,919
1042,3	46,176
1042,7	34,976
1043,2	33,033
1043,6	34,776
1044	42,519
1044,4	39,233
1044,8	32,948
1045,2	32,233
1045,6	42,433
1046,1	43,576
1046,5	36,976
1046,9	36,805
1047,3	40,033
1047,7	41,233
1048,1	35,262
1048,5	27,976
1049	26,262
1049,4	23,033
1049,8	23,005
1050,2	20,719
1050,6	20,862
1051	27,633
1051,4	27,805
1051,9	26,748
1052,3	31,719
1052,7	31,576
1053,1	31,176
1053,5	31,176
1053,9	28,09
1054,3	26,948
1054,8	28,005
1055,2	27,89
1055,6	26,033
1056	25,89
1056,4	25,89
1056,8	28,148
1057,2	28,433
1057,6	33,948
1058,1	39,462
1058,5	33,576
1058,9	30,319
1059,3	31,776
1059,7	29,576
1060,1	33,29
1060,5	31,462
1061	23,833
1061,4	26,719
1061,8	25,348
1062,2	24,033
1062,6	24,805
1063	26,348
1063,4	21,462
1063,8	23,776
1064,3	32,433
1064,7	37,976
1065,1	39,233
1065,5	37,633
1065,9	33,662
1066,3	35,748
1066,7	38,69
1067,1	31,376
1067,6	33,233
1068	35,319
1068,4	37,433
1068,8	40,49
1069,2	40,548
1069,6	39,462
1070	43,176
1070,4	39,376
1070,9	39,376
1071,3	41,405
1071,7	40,262
1072,1	40,719
1072,5	37,89
1072,9	36,948
1073,3	34,833
1073,7	30,062
1074,2	28,776
1074,6	27,662
1075	29,69
1075,4	34,633
1075,8	31,576
1076,2	38,376
1076,6	38,29
1077	40,748
1077,5	42,062
1077,9	33,148
1078,3	27,233
1078,7	27,033
1079,1	25,09
1079,5	28,29
1079,9	25,319
1080,3	26,919
1080,7	32,919
1081,2	34,262
1081,6	35,433
1082	34,976
1082,4	33,862
1082,8	34,69
1083,2	27,462
1083,6	24,833
1084	26,233
1084,5	26,69
1084,9	25,376
1085,3	26,519
1085,7	23,405
1086,1	27,319
1086,5	29,948
1086,9	27,976
1087,3	29,976
1087,7	33,548
1088,2	33,348
1088,6	35,548
1089	36,376
1089,4	38,262
1089,8	36,09
1090,2	30,005
1090,6	23,405
1091	19,148
1091,4	17,833
1091,9	15,49
1092,3	14,662
1092,7	17,605
1093,1	22,948
1093,5	23,576
1093,9	22,862
1094,3	26,148
1094,7	30,148
1095,1	32,176
1095,5	32,89
1096	32,348
1096,4	34,262
1096,8	42,319
1097,2	36,805
1097,6	36,69
1098	32,062
1098,4	30,233
1098,8	33,176
1099,2	31,919
1099,6	25,433
1100,1	28,576
1100,5	24,605
1100,9	25,262
1101,3	25,005
1101,7	19,348
1102,1	19,862
1102,5	19,69
1102,9	15,033
1103,3	20,319
1103,7	20,176
1104,2	19,776
1104,6	20,69
1105	18,89
1105,4	24,005
1105,8	24,719
1106,2	17,605
1106,6	13,748
1107	11,319
1107,4	9,5
1107,8	9,593
1108,3	0,633
