Data from Subt2_00078.txt Node
Date: Mon Aug 28 13:30:16 MSK 2023
User: vat
Spectrometer: MAYP114033
Trigger mode: 0
Integration Time (sec): 1,000000E0
Scans to average: 5
Electric dark correction enabled: true
Nonlinearity correction enabled: false
Boxcar width: 3
XAxis mode: Wavelengths
Number of Pixels in Spectrum: 2068
>>>>>Begin Spectral Data<<<<<
199,4	-1,85
199,9	-4,06
200,4	-4,9
200,8	0,957
201,3	1,043
201,8	0,7
202,2	3,014
202,7	1,243
203,2	5,1
203,6	8,529
204,1	5,043
204,6	7,757
205	8,157
205,5	4,614
206	5,957
206,4	4,814
206,9	4,671
207,4	2,814
207,8	2,157
208,3	2,471
208,8	2,186
209,2	7,214
209,7	8,186
210,2	8,071
210,6	9,186
211,1	11,7
211,5	12,157
212	16,557
212,5	11,1
212,9	10,443
213,4	9,986
213,9	11,671
214,3	12,157
214,8	13,129
215,3	12,329
215,7	17,471
216,2	17,7
216,7	18,443
217,1	10,386
217,6	8,243
218,1	10,757
218,5	7,271
219	9,986
219,5	9,271
219,9	5,214
220,4	16,471
220,9	13,786
221,3	9,014
221,8	9,1
222,3	5,671
222,7	10,386
223,2	10,186
223,6	4,214
224,1	7,529
224,6	12,814
225	16,043
225,5	14,929
226	5,414
226,4	12,7
226,9	12,1
227,4	14,843
227,8	12,129
228,3	10,014
228,8	8,414
229,2	15,414
229,7	12,186
230,2	15,529
230,6	11,471
231,1	10,9
231,5	13,757
232	16,7
232,5	11,443
232,9	13,071
233,4	9,443
233,9	9,729
234,3	8,5
234,8	6,957
235,3	5,386
235,7	7,929
236,2	4,071
236,7	2,043
237,1	3,986
237,6	8,586
238,1	9,1
238,5	6,729
239	7,957
239,4	11,729
239,9	15,786
240,4	11,071
240,8	8,071
241,3	8,871
241,8	8,671
242,2	6,386
242,7	5,3
243,2	11,557
243,6	15,357
244,1	15,671
244,6	12,443
245	12,7
245,5	15,871
245,9	16,386
246,4	6,757
246,9	4,443
247,3	7,5
247,8	3,786
248,3	8,214
248,7	6,5
249,2	3,414
249,7	7,871
250,1	8,986
250,6	4,671
251	9,586
251,5	5,071
252	-0,814
252,4	-0,129
252,9	-1,243
253,4	-4,471
253,8	-7,329
254,3	-6,271
254,8	-0,357
255,2	5,043
255,7	2,271
256,1	3,1
256,6	7,529
257,1	9,614
257,5	5,129
258	-1,043
258,5	-0,529
258,9	-1,5
259,4	-1,129
259,9	-3,5
260,3	-2,9
260,8	-1,557
261,2	2,357
261,7	3,186
262,2	6,157
262,6	7,386
263,1	7,529
263,6	2,129
264	6,614
264,5	6,271
264,9	6,9
265,4	9,814
265,9	6,614
266,3	3,986
266,8	12,329
267,3	8,443
267,7	6,843
268,2	6,3
268,7	7,986
269,1	5,271
269,6	12,3
270	4,414
270,5	6,529
271	4,643
271,4	0,043
271,9	-7,529
272,4	-4,871
272,8	-8,786
273,3	-7,014
273,7	-9,557
274,2	-8,243
274,7	-5,043
275,1	-2,386
275,6	1,386
276,1	0,586
276,5	6,614
277	9,3
277,4	9,9
277,9	6,271
278,4	4,929
278,8	0,786
279,3	1,814
279,8	1,043
280,2	6,186
280,7	6,1
281,1	6,329
281,6	5,757
282,1	7,7
282,5	8,643
283	5,329
283,4	-0,329
283,9	-0,986
284,4	2,129
284,8	5,043
285,3	3,757
285,8	2,5
286,2	3,757
286,7	6,986
287,1	5,443
287,6	2,957
288,1	2,529
288,5	2,757
289	3,643
289,5	6,1
289,9	3,7
290,4	6,129
290,8	10,043
291,3	12,243
291,8	9,643
292,2	10,929
292,7	6,157
293,1	10,271
293,6	6,757
294,1	5,529
294,5	5,557
295	9,5
295,5	7,671
295,9	5,357
296,4	3,243
296,8	5,186
297,3	6,986
297,8	12,186
298,2	11,814
298,7	12,186
299,1	14,557
299,6	13,986
300,1	16,243
300,5	14,443
301	8,614
301,5	5,014
301,9	-0,014
302,4	-1,814
302,8	-3,7
303,3	-4,729
303,8	-0,1
304,2	1,586
304,7	2,729
305,1	2,443
305,6	5,814
306,1	5,243
306,5	2,214
307	-2,357
307,4	-6,929
307,9	-4,614
308,4	-1,186
308,8	-2,729
309,3	4,243
309,8	7,9
310,2	5,443
310,7	6,643
311,1	8,1
311,6	9,529
312,1	12,386
312,5	3,357
313	4,929
313,4	10,643
313,9	11,329
314,4	10,014
314,8	10,671
315,3	10,9
315,7	11,586
316,2	10,014
316,7	7,671
317,1	5,729
317,6	5,871
318	5,614
318,5	7,529
319	9,129
319,4	5,243
319,9	0,414
320,3	3,871
320,8	1,643
321,3	-2,843
321,7	-5,443
322,2	-8,243
322,6	-1,271
323,1	3,729
323,6	2,9
324	3,186
324,5	10,671
324,9	15,757
325,4	17,271
325,9	11,9
326,3	7,9
326,8	9,643
327,2	11,014
327,7	2,186
328,2	0,614
328,6	4,1
329,1	2,357
329,5	6,129
330	6,643
330,5	11,043
330,9	13,357
331,4	7,043
331,8	4,729
332,3	9,1
332,8	9,186
333,2	7,471
333,7	0,986
334,1	-1,386
334,6	0,443
335,1	-1,643
335,5	-4,129
336	-6,671
336,4	-5,414
336,9	-3,814
337,4	1,129
337,8	3,729
338,3	7,986
338,7	7,157
339,2	7,3
339,7	2,871
340,1	-1,186
340,6	-0,414
341	-1,7
341,5	-4,129
342	-3,129
342,4	-4,957
342,9	0,843
343,3	6,214
343,8	5,871
344,2	8,329
344,7	5,9
345,2	6,157
345,6	6,443
346,1	2,614
346,5	1,529
347	-2,786
347,5	-3,186
347,9	-4,557
348,4	-1,529
348,8	4,271
349,3	1,957
349,8	2,871
350,2	4,443
350,7	0,071
351,1	1,871
351,6	-2,014
352	-4,643
352,5	-2,814
353	-3,443
353,4	-1,843
353,9	6,671
354,3	14,129
354,8	11,386
355,3	12,386
355,7	15,729
356,2	16,871
356,6	20,186
357,1	18,757
357,5	16,957
358	27,5
358,5	28,9
358,9	34,443
359,4	39,357
359,8	44,757
360,3	44,214
360,8	52,557
361,2	54,386
361,7	66,814
362,1	70,014
362,6	78,1
363	89,5
363,5	105,786
364	115,271
364,4	132,586
364,9	144,357
365,3	162,357
365,8	185,986
366,3	196,529
366,7	205,671
367,2	218,186
367,6	228,271
368,1	235,643
368,5	241,586
369	238,643
369,5	246,586
369,9	259,014
370,4	256,929
370,8	251,7
371,3	250,557
371,7	249,614
372,2	247,414
372,7	239,529
373,1	226,729
373,6	221,814
374	218,7
374,5	210,786
374,9	199,929
375,4	188,871
375,9	182,986
376,3	169,014
376,8	159,757
377,2	147,471
377,7	139,243
378,2	133,957
378,6	127,814
379,1	111,729
379,5	108,786
380	101,586
380,4	95,386
380,9	86,043
381,4	79,186
381,8	71,1
382,3	72,043
382,7	71,529
383,2	67,043
383,6	67,986
384,1	67,529
384,6	58,214
385	60,129
385,5	54,1
385,9	48,9
386,4	53,1
386,8	43,5
387,3	40,814
387,7	44,014
388,2	37,329
388,7	37,157
389,1	32,243
389,6	24,671
390	32,043
390,5	32,614
390,9	28,643
391,4	28,529
391,9	28,929
392,3	32,757
392,8	32,3
393,2	29,643
393,7	30,243
394,1	31,3
394,6	32,271
395,1	38,1
395,5	36,357
396	36,7
396,4	31,157
396,9	26,557
397,3	25,529
397,8	18,871
398,2	10,814
398,7	6,157
399,2	5,871
399,6	7,157
400,1	3,586
400,5	4,957
401	14,586
401,4	13,214
401,9	13,043
402,4	6,986
402,8	11,1
403,3	15,3
403,7	12,243
404,2	5,7
404,6	7,186
405,1	10,557
405,5	16,243
406	15,386
406,5	15,071
406,9	21,414
407,4	21,071
407,8	21,271
408,3	18,557
408,7	18,3
409,2	12,643
409,6	15,471
410,1	11,871
410,6	10,614
411	10,014
411,5	8,614
411,9	8,043
412,4	14,1
412,8	9,586
413,3	7,586
413,7	8,3
414,2	5,729
414,7	7,129
415,1	10,271
415,6	5,729
416	8,1
416,5	16,843
416,9	22,643
417,4	28,1
417,8	31,3
418,3	26,443
418,8	30,1
419,2	27,9
419,7	19,929
420,1	12,986
420,6	14,243
421	17,071
421,5	21,929
421,9	19,271
422,4	21,043
422,8	20,557
423,3	24,871
423,8	24,1
424,2	23,271
424,7	24,871
425,1	23,757
425,6	23,529
426	29,357
426,5	29,871
426,9	29,557
427,4	30,957
427,9	29,157
428,3	33,529
428,8	36,586
429,2	35,529
429,7	38,357
430,1	36,929
430,6	31,443
431	31,957
431,5	28,3
431,9	29,9
432,4	25,386
432,8	22,1
433,3	24,671
433,8	30,443
434,2	28,814
434,7	30,643
435,1	32,243
435,6	29,271
436	31,157
436,5	29,071
436,9	27,9
437,4	28,329
437,8	27,671
438,3	25,957
438,8	31,871
439,2	31,929
439,7	30,614
440,1	28,157
440,6	28,186
441	30,757
441,5	28,243
441,9	24,929
442,4	22,729
442,8	24,157
443,3	25,929
443,7	23,129
444,2	25,643
444,7	30,071
445,1	34,357
445,6	34,7
446	39,5
446,5	40,071
446,9	48,357
447,4	50,5
447,8	50,7
448,3	54,214
448,7	59,443
449,2	56,243
449,6	56,214
450,1	56,329
450,6	59,929
451	61,414
451,5	67,443
451,9	67,814
452,4	70,386
452,8	75,129
453,3	77,243
453,7	77,329
454,2	77,529
454,6	72,386
455,1	74,757
455,5	77,843
456	80,843
456,4	81,3
456,9	80,471
457,3	85,586
457,8	88,729
458,3	90,529
458,7	91,786
459,2	92,1
459,6	98,243
460,1	103,5
460,5	103,186
461	106,443
461,4	110,757
461,9	114,871
462,3	118,214
462,8	116,9
463,2	115,443
463,7	122,129
464,1	124,014
464,6	123,5
465	122,1
465,5	122,843
466	128,5
466,4	133,129
466,9	129,5
467,3	131,557
467,8	135,843
468,2	142,729
468,7	149,871
469,1	150,243
469,6	148,329
470	154,9
470,5	157,471
470,9	159,729
471,4	163,871
471,8	162,786
472,3	161,814
472,7	167,386
473,2	166,186
473,6	166,757
474,1	166,071
474,5	163,014
475	164,471
475,4	168,529
475,9	167,1
476,4	169,443
476,8	173,529
477,3	177,614
477,7	179,871
478,2	182,386
478,6	180,957
479,1	190,786
479,5	194,357
480	195,186
480,4	197,671
480,9	201,329
481,3	199,129
481,8	203,871
482,2	203,414
482,7	204,1
483,1	200,929
483,6	202,7
484	197,843
484,5	204,843
484,9	204,471
485,4	200,357
485,8	201,129
486,3	204,7
486,7	205,757
487,2	219,529
487,6	215,529
488,1	214,957
488,5	215,843
489	218,386
489,4	222,986
489,9	223,243
490,4	213,329
490,8	212,071
491,3	216,871
491,7	221,643
492,2	220,986
492,6	218,786
493,1	222,986
493,5	231,386
494	239,557
494,4	239,3
494,9	243,043
495,3	245,786
495,8	249,814
496,2	247,357
496,7	248,671
497,1	245,929
497,6	251,1
498	251,414
498,5	253,757
498,9	251,929
499,4	247,786
499,8	246,871
500,3	250,9
500,7	251,043
501,2	251,386
501,6	250,5
502,1	258,386
502,5	263,929
503	264,1
503,4	265,671
503,9	266,043
504,3	265,986
504,8	272,529
505,2	269,157
505,7	269,357
506,1	268,586
506,6	266,157
507	267,214
507,5	266,557
507,9	265,243
508,4	270,729
508,8	271,043
509,3	274,043
509,7	280,843
510,2	285,843
510,6	288,671
511,1	287,557
511,5	287,786
512	291,614
512,4	297,786
512,9	296,129
513,3	296,071
513,8	298,843
514,2	302,214
514,7	302,243
515,1	302,9
515,6	298,643
516	295,957
516,5	293,586
516,9	292,471
517,4	293,043
517,8	290,643
518,3	296,7
518,7	299,071
519,2	308,557
519,6	308,843
520,1	315,814
520,5	315,214
521	318,614
521,4	318,014
521,9	319,9
522,3	315,157
522,8	318,386
523,2	315,043
523,7	316,729
524,1	316,957
524,6	315,243
525	316,1
525,5	318,329
525,9	320,786
526,4	322,986
526,8	324,443
527,3	327,043
527,7	331,329
528,2	331,7
528,6	337,243
529,1	339,643
529,5	343,7
530	346,471
530,4	352,129
530,9	354,586
531,3	360,071
531,8	355,786
532,2	354,471
532,6	356,157
533,1	356,043
533,5	352,586
534	352,3
534,4	352,214
534,9	357,071
535,3	365,529
535,8	368,757
536,2	367,357
536,7	367,1
537,1	373,357
537,6	372,671
538	375,529
538,5	372,9
538,9	368,614
539,4	377,186
539,8	382,271
540,3	379,414
540,7	382,186
541,2	383,443
541,6	383,586
542,1	386,557
542,5	384,986
543	383,3
543,4	382,986
543,9	384,9
544,3	386,386
544,8	389,757
545,2	392,786
545,7	395,671
546,1	396,757
546,5	401,7
547	405,614
547,4	407,871
547,9	410,529
548,3	413,586
548,8	411,443
549,2	420,586
549,7	418,643
550,1	417,643
550,6	419,214
551	418,786
551,5	412,3
551,9	418,043
552,4	414,386
552,8	420,443
553,3	421,871
553,7	421,129
554,2	425,329
554,6	432,814
555,1	433,357
555,5	437,1
555,9	432,843
556,4	435,129
556,8	440,329
557,3	439,7
557,7	440,443
558,2	445,043
558,6	440,414
559,1	445,786
559,5	448,729
560	441,957
560,4	441,243
560,9	441,243
561,3	436,386
561,8	440,871
562,2	441,043
562,7	436,643
563,1	446,7
563,6	447,986
564	448,957
564,4	454,929
564,9	459,929
565,3	461,357
565,8	466,814
566,2	464,529
566,7	466,214
567,1	468,443
567,6	466,414
568	463,529
568,5	464,5
568,9	468,386
569,4	466,871
569,8	466,329
570,3	467,071
570,7	469,157
571,1	471,014
571,6	471,786
572	468,243
572,5	467,1
572,9	469,9
573,4	469,157
573,8	470,1
574,3	470,929
574,7	471,157
575,2	470,014
575,6	477,929
576,1	475,843
576,5	476,929
576,9	480,271
577,4	483,671
577,8	482,586
578,3	486,7
578,7	482,129
579,2	485,529
579,6	490,3
580,1	488,757
580,5	490,214
581	488,3
581,4	487,071
581,9	485,471
582,3	483,7
582,7	476,414
583,2	480,557
583,6	471,357
584,1	474,214
584,5	471,357
585	471,071
585,4	468,671
585,9	470,9
586,3	462,1
586,8	462,9
587,2	462,814
587,6	465,729
588,1	468,014
588,5	468,386
589	470,043
589,4	471,814
589,9	474,757
590,3	473,014
590,8	469,557
591,2	468,186
591,7	467,786
592,1	470,871
592,5	470,729
593	472,386
593,4	472,986
593,9	474,671
594,3	477,471
594,8	481,671
595,2	476,7
595,7	476,5
596,1	474,729
596,6	473,843
597	473,843
597,4	472,786
597,9	470,329
598,3	466,043
598,8	460,443
599,2	460,614
599,7	463,843
600,1	457,843
600,6	452,671
601	450,586
601,4	457,386
601,9	461,243
602,3	453,243
602,8	447,5
603,2	447,014
603,7	449,357
604,1	446,186
604,6	433,929
605	431,957
605,4	433,986
605,9	433,3
606,3	439,014
606,8	438,986
607,2	442,186
607,7	445,671
608,1	447,129
608,6	454,871
609	456,5
609,4	454,386
609,9	450,014
610,3	446,843
610,8	454,329
611,2	450,871
611,7	443,814
612,1	439,471
612,6	434,157
613	432,071
613,4	432,814
613,9	426,186
614,3	426,614
614,8	425,786
615,2	425,586
615,7	426,814
616,1	431,186
616,6	426,757
617	423,414
617,4	420,129
617,9	419,586
618,3	415,471
618,8	417,986
619,2	413,986
619,7	417,157
620,1	421,043
620,5	419,557
621	414,443
621,4	419,757
621,9	411,757
622,3	406,614
622,8	399,357
623,2	394,843
623,6	390,043
624,1	389,071
624,5	382,9
625	379,9
625,4	378,586
625,9	382,471
626,3	384,929
626,8	384,5
627,2	386,5
627,6	389,7
628,1	390,529
628,5	391,1
629	385,5
629,4	377,3
629,9	381,186
630,3	382,3
630,7	374,586
631,2	376,843
631,6	377,471
632,1	380,043
632,5	379,443
633	377,5
633,4	371,9
633,8	374,814
634,3	370,329
634,7	370,243
635,2	364,843
635,6	366,386
636,1	361,071
636,5	355,871
636,9	355,557
637,4	355,929
637,8	351,357
638,3	349,9
638,7	349,786
639,2	348,643
639,6	351,586
640	348,071
640,5	344,471
640,9	340,129
641,4	335,529
641,8	332,7
642,2	332,843
642,7	326,529
643,1	322,3
643,6	324,043
644	325,1
644,5	330,243
644,9	323,157
645,3	325,043
645,8	329,357
646,2	330,129
646,7	322,214
647,1	319,843
647,6	314,214
648	315,643
648,4	310,157
648,9	304,357
649,3	303,929
649,8	305,214
650,2	306,014
650,6	304,7
651,1	303,614
651,5	296,557
652	297,929
652,4	290,929
652,9	293,843
653,3	292,271
653,7	293,414
654,2	288,757
654,6	290,671
655,1	289,5
655,5	293,3
655,9	290,129
656,4	287,1
656,8	282,243
657,3	281,9
657,7	284,071
658,2	278,729
658,6	277,043
659	275,529
659,5	272,9
659,9	269,9
660,4	268,986
660,8	266,814
661,2	266,014
661,7	265,386
662,1	268,814
662,6	271,3
663	273,214
663,4	275,729
663,9	273,3
664,3	273,043
664,8	267,986
665,2	259,357
665,6	256,786
666,1	259,357
666,5	257,814
667	260,357
667,4	260,9
667,9	266,329
668,3	264,929
668,7	258,757
669,2	250,071
669,6	242,071
670,1	237,386
670,5	235,414
670,9	226,329
671,4	225,071
671,8	225,871
672,3	229,786
672,7	234,357
673,1	234,729
673,6	231,757
674	231,871
674,5	228,271
674,9	230,214
675,3	226,471
675,8	222,243
676,2	216,529
676,7	217,586
677,1	217,529
677,5	216,929
678	218,329
678,4	218,471
678,9	218,3
679,3	223,557
679,7	219,243
680,2	215,443
680,6	221,214
681,1	220,157
681,5	218,7
681,9	217,7
682,4	212,643
682,8	214,214
683,3	217,757
683,7	214,757
684,1	209,271
684,6	205,329
685	205,614
685,5	201,271
685,9	195,186
686,3	193,671
686,8	189,586
687,2	190,643
687,7	189,014
688,1	186,986
688,5	188,986
689	192,986
689,4	191,243
689,9	194,157
690,3	193,471
690,7	192,786
691,2	186,7
691,6	190,043
692	186,471
692,5	181,329
692,9	173,214
693,4	167,443
693,8	170,443
694,2	173,843
694,7	169,243
695,1	174,557
695,6	177,643
696	180,9
696,4	183,443
696,9	178,7
697,3	172,214
697,8	172,1
698,2	164,957
698,6	162,443
699,1	166,3
699,5	158,586
699,9	161,471
700,4	166,929
700,8	165,043
701,3	167,614
701,7	165,214
702,1	154,529
702,6	158,871
703	156,586
703,5	151,157
703,9	146,729
704,3	140,443
704,8	142,129
705,2	143,186
705,6	142,357
706,1	138,871
706,5	142,5
707	142,7
707,4	145,243
707,8	140,929
708,3	144,786
708,7	142,214
709,2	144,786
709,6	138,357
710	139,586
710,5	137,671
710,9	137,929
711,3	129,386
711,8	128,129
712,2	127,243
712,7	129,671
713,1	125,414
713,5	121,757
714	125,5
714,4	131,386
714,8	133,157
715,3	129,557
715,7	127,357
716,2	127,014
716,6	129,5
717	123,443
717,5	119,557
717,9	120,843
718,3	119,557
718,8	119,843
719,2	118,243
719,7	116,214
720,1	116,357
720,5	120,414
721	111,614
721,4	113,843
721,8	113,929
722,3	117,214
722,7	118,186
723,2	117,271
723,6	112,7
724	111,243
724,5	108,843
724,9	111,729
725,3	108,9
725,8	104,329
726,2	99,614
726,7	104,186
727,1	111,786
727,5	111,871
728	104,986
728,4	105,5
728,8	109,043
729,3	109,843
729,7	108,7
730,1	103,157
730,6	98,557
731	104,986
731,5	102,643
731,9	104,329
732,3	108,357
732,8	102,357
733,2	106,129
733,6	109,614
734,1	105,557
734,5	110,243
734,9	104,586
735,4	101,586
735,8	102,557
736,3	99,271
736,7	91,529
737,1	91,529
737,6	83,929
738	84,871
738,4	86,757
738,9	85,071
739,3	85,414
739,7	93,643
740,2	91,1
740,6	95,671
741,1	93,243
741,5	92,329
741,9	94,129
742,4	89,129
742,8	86,214
743,2	88,5
743,7	81,071
744,1	82,586
744,5	84,157
745	77,357
745,4	80,529
745,8	79,814
746,3	78,671
746,7	80,529
747,2	80,7
747,6	75,357
748	80,386
748,5	77,471
748,9	73,414
749,3	65,643
749,8	65,471
750,2	64,643
750,6	66,9
751,1	63,557
751,5	65,5
751,9	67,843
752,4	71,671
752,8	72,271
753,3	71,557
753,7	66,3
754,1	66,786
754,6	67,414
755	66,7
755,4	70,071
755,9	70,7
756,3	71,386
756,7	78,786
757,2	80,5
757,6	78,214
758	81,186
758,5	80,729
758,9	79,614
759,3	76,186
759,8	73,557
760,2	69,329
760,6	68,957
761,1	66,671
761,5	70,443
761,9	70,5
762,4	70,529
762,8	65,357
763,3	66,157
763,7	63,957
764,1	65,157
764,6	54,214
765	52,7
765,4	54,1
765,9	58,386
766,3	59,929
766,7	62,786
767,2	58,271
767,6	62,129
768	64,014
768,5	63,7
768,9	65,471
769,3	64,157
769,8	63,129
770,2	62,329
770,6	64,557
771,1	63,614
771,5	62,443
771,9	64,3
772,4	65,529
772,8	62,986
773,2	64,414
773,7	58,3
774,1	56,557
774,5	49,729
775	38,7
775,4	35,3
775,8	38,929
776,3	38,414
776,7	39,386
777,1	37,986
777,6	39,329
778	43,614
778,4	43,643
778,9	39,643
779,3	36,843
779,7	37,671
780,2	40,843
780,6	45,014
781	44,986
781,5	47,643
781,9	51,586
782,3	54,786
782,8	59,043
783,2	55,986
783,6	55,443
784,1	54,3
784,5	52,071
784,9	48,557
785,4	46,243
785,8	42,043
786,2	40,986
786,7	41,471
787,1	43,5
787,5	42,214
788	40,3
788,4	41,414
788,8	39,7
789,3	37,729
789,7	37,386
790,1	34,614
790,6	33,757
791	33,9
791,4	33,329
791,9	31,357
792,3	34,929
792,7	29,871
793,2	32,586
793,6	32,643
794	35,3
794,5	32,786
794,9	35,214
795,3	38,071
795,8	39,586
796,2	39,814
796,6	42,786
797,1	33,843
797,5	38,214
797,9	36,929
798,4	32,186
798,8	32,586
799,2	35,843
799,7	30,1
800,1	41,043
800,5	38,557
801	41,586
801,4	43,529
801,8	44,357
802,2	37,5
802,7	43,071
803,1	36,9
803,5	35,443
804	34,357
804,4	33,471
804,8	35,1
805,3	35,014
805,7	29,871
806,1	31,1
806,6	29,1
807	26,5
807,4	25,557
807,9	27,357
808,3	28,986
808,7	27,586
809,2	28,557
809,6	33,529
810	35,243
810,4	36,443
810,9	30,129
811,3	30,7
811,7	36,414
812,2	33,071
812,6	31,071
813	27,014
813,5	25,243
813,9	28,5
814,3	27,414
814,8	23,043
815,2	25,7
815,6	25,414
816,1	28,3
816,5	29,557
816,9	23,471
817,3	23,471
817,8	24,614
818,2	23,443
818,6	18,786
819,1	21,329
819,5	18,529
819,9	26,043
820,4	25,871
820,8	24,643
821,2	27,071
821,7	34,157
822,1	30,443
822,5	29,5
822,9	26,5
823,4	30,1
823,8	31,157
824,2	34,414
824,7	31,271
825,1	30,814
825,5	32,329
826	35,586
826,4	31,814
826,8	31,529
827,3	26,5
827,7	29,614
828,1	29,614
828,5	27,786
829	27,757
829,4	24,014
829,8	22,5
830,3	19,729
830,7	14,386
831,1	18,043
831,6	19,529
832	20,443
832,4	19,7
832,8	15,729
833,3	19,814
833,7	19,643
834,1	20,586
834,6	19,386
835	17,043
835,4	16,614
835,8	25,071
836,3	22,757
836,7	26,014
837,1	21,043
837,6	19,586
838	16,414
838,4	21,957
838,9	17,1
839,3	21,643
839,7	21,043
840,1	17,986
840,6	22,843
841	22,386
841,4	22,614
841,9	22,214
842,3	19,557
842,7	16,929
843,1	21,729
843,6	19,357
844	20,671
844,4	13,557
844,9	16,243
845,3	15,986
845,7	15,557
846,2	14,5
846,6	12,414
847	16,329
847,4	15,729
847,9	14,557
848,3	14,9
848,7	17,186
849,2	16,586
849,6	17,7
850	15,271
850,4	22,329
850,9	19,271
851,3	18,5
851,7	15,814
852,2	15,471
852,6	14,7
853	13,5
853,4	10,9
853,9	13,843
854,3	10,671
854,7	14,843
855,2	18,5
855,6	20,871
856	21,414
856,4	20,1
856,9	20,757
857,3	19,129
857,7	19,157
858,2	11,186
858,6	10,1
859	5,386
859,4	9,157
859,9	9,5
860,3	9,529
860,7	8,071
861,1	11,986
861,6	12,443
862	14,329
862,4	8,529
862,9	11,129
863,3	11,329
863,7	11,357
864,1	10,729
864,6	12,843
865	16,957
865,4	18,671
865,9	17,414
866,3	19,271
866,7	21,414
867,1	19,9
867,6	18,271
868	20,329
868,4	22,186
868,8	19,729
869,3	21,414
869,7	20,786
870,1	24,986
870,6	22,014
871	75,614
871,4	74,014
871,8	75,9
872,3	72,614
872,7	71,643
873,1	68,9
873,5	70,443
874	8,329
874,4	7,986
874,8	9,186
875,3	11,7
875,7	10,757
876,1	10,557
876,5	8,814
877	13,557
877,4	12,214
877,8	9,871
878,2	4,814
878,7	7,329
879,1	9,443
879,5	8,271
879,9	7,929
880,4	15,1
880,8	11,586
881,2	15,557
881,7	10,471
882,1	12,271
882,5	17,357
882,9	15,843
883,4	14,329
883,8	16,443
884,2	12,986
884,6	14,414
885,1	8,3
885,5	4,643
885,9	7,871
886,3	3,157
886,8	4,3
887,2	5,071
887,6	8,214
888	11,757
888,5	13,329
888,9	13,214
889,3	11,471
889,8	11,443
890,2	9,329
890,6	6,014
891	3,757
891,5	4,5
891,9	2,214
892,3	1,443
892,7	2,529
893,2	7,671
893,6	8,443
894	7,843
894,4	8,214
894,9	7,757
895,3	12,529
895,7	11,186
896,1	14,014
896,6	13,586
897	14,814
897,4	14,614
897,8	16,529
898,3	15,729
898,7	13,729
899,1	12,443
899,5	12,7
900	12,214
900,4	14,386
900,8	13,471
901,2	14,129
901,7	15,7
902,1	17,586
902,5	15,014
902,9	14,243
903,4	9,243
903,8	9,043
904,2	8,871
904,6	5,9
905,1	4,929
905,5	8,157
905,9	10,329
906,3	9,129
906,8	7,214
907,2	2,957
907,6	7,929
908	4,243
908,5	2,7
908,9	6,3
909,3	10,329
909,7	14,043
910,2	21,186
910,6	15,9
911	15,929
911,4	13,043
911,9	8,443
912,3	4,186
912,7	-1,871
913,1	-7,129
913,6	-7,129
914	-1,929
914,4	-4,586
914,8	-2,357
915,3	1,186
915,7	7,5
916,1	7,3
916,5	10,557
916,9	5,271
917,4	12,671
917,8	11,214
918,2	10,729
918,6	7,471
919,1	9,129
919,5	9,529
919,9	9,9
920,3	7,5
920,8	8,986
921,2	8,071
921,6	10,929
922	13,986
922,5	13,043
922,9	15,5
923,3	16,7
923,7	16,214
924,2	18,986
924,6	16,586
925	12,9
925,4	12,957
925,8	14,843
926,3	20,157
926,7	20,786
927,1	20,9
927,5	26,957
928	24,014
928,4	26,014
928,8	18,557
929,2	11,471
929,7	13,557
930,1	10,071
930,5	5,414
930,9	8,186
931,3	5,757
931,8	9,843
932,2	14,071
932,6	8,671
933	7,157
933,5	11,329
933,9	10,786
934,3	13,271
934,7	13,271
935,2	12,186
935,6	13,786
936	13,357
936,4	11,757
936,8	13,786
937,3	10,014
937,7	7,9
938,1	3,014
938,5	2,357
939	7,557
939,4	4,043
939,8	-0,186
940,2	1,186
940,6	2,157
941,1	3,357
941,5	4,357
941,9	6,329
942,3	1,757
942,8	7,414
943,2	10,7
943,6	11,071
944	11,443
944,4	13,7
944,9	12,1
945,3	14,157
945,7	12,157
946,1	5,986
946,6	7,471
947	10,043
947,4	7,843
947,8	5,7
948,2	5,671
948,7	2,243
949,1	7,871
949,5	7,071
949,9	4,243
950,3	5,1
950,8	7,157
951,2	10,586
951,6	15,129
952	12,871
952,5	12,614
952,9	14,5
953,3	15,586
953,7	15,271
954,1	12,357
954,6	10,5
955	9,5
955,4	11,357
955,8	13,157
956,2	12,757
956,7	11,214
957,1	7,5
957,5	7,529
957,9	9,443
958,3	4,357
958,8	1,129
959,2	-2,786
959,6	-2,814
960	3,729
960,5	-1,757
960,9	0,357
961,3	3,386
961,7	2,386
962,1	5,129
962,6	1,871
963	0,014
963,4	8,186
963,8	6,757
964,2	8,757
964,7	8,557
965,1	2,386
965,5	4,843
965,9	5,186
966,3	3,129
966,8	3,843
967,2	-3,414
967,6	0,957
968	4,214
968,4	5,129
968,9	7,643
969,3	4,671
969,7	0,614
970,1	2,529
970,5	-1,986
971	-4,357
971,4	-9,271
971,8	-12,586
972,2	-7,929
972,6	-4,957
973,1	-3,043
973,5	-1,014
973,9	2,243
974,3	6,9
974,7	5,586
975,2	4,614
975,6	4,5
976	6,357
976,4	7,586
976,8	5,443
977,3	5,557
977,7	10,614
978,1	10,757
978,5	7,271
978,9	6,071
979,4	3,757
979,8	3,3
980,2	0,871
980,6	-3,986
981	-4,986
981,5	-2,957
981,9	-6,043
982,3	-3,443
982,7	-0,071
983,1	-3,443
983,6	-2,014
984	-6,414
984,4	-3,5
984,8	-0,471
985,2	-1,186
985,6	-1,214
986,1	2,843
986,5	2,871
986,9	5,3
987,3	0,957
987,7	3,357
988,2	2,186
988,6	3,329
989	4,357
989,4	6,643
989,8	5,357
990,3	3,1
990,7	2,957
991,1	4,786
991,5	5,386
991,9	1,529
992,3	-2,557
992,8	5,814
993,2	6,014
993,6	-0,386
994	2,471
994,4	6,9
994,9	11,5
995,3	19,957
995,7	11,5
996,1	13,1
996,5	16,329
996,9	8,843
997,4	1,986
997,8	4,329
998,2	0,129
998,6	2,7
999	4,3
999,5	7,271
999,9	10,3
1000,3	14,929
1000,7	13,7
1001,1	9,214
1001,5	10,071
1002	12,5
1002,4	15,071
1002,8	19,043
1003,2	14,957
1003,6	15,814
1004	17,786
1004,5	15,757
1004,9	17,443
1005,3	9,614
1005,7	3,471
1006,1	5,871
1006,6	0,757
1007	-1,5
1007,4	-2,557
1007,8	-3,071
1008,2	1,586
1008,6	3,414
1009,1	0,3
1009,5	1,757
1009,9	6,243
1010,3	7,014
1010,7	6,357
1011,1	8,1
1011,6	11,529
1012	14,157
1012,4	18,414
1012,8	16,014
1013,2	18,7
1013,6	16,957
1014,1	12,9
1014,5	8,643
1014,9	7,186
1015,3	3,814
1015,7	5,957
1016,1	1,786
1016,6	-0,129
1017	2,243
1017,4	4,157
1017,8	3,386
1018,2	1,071
1018,6	-0,071
1019,1	4,957
1019,5	3,929
1019,9	5,157
1020,3	8,929
1020,7	10,671
1021,1	11,643
1021,6	11,5
1022	10,557
1022,4	13,786
1022,8	9,929
1023,2	4,386
1023,6	-0,871
1024,1	-3,586
1024,5	-4,929
1024,9	-4,357
1025,3	-7,329
1025,7	-3,957
1026,1	-1,957
1026,6	7,329
1027	11,671
1027,4	16,243
1027,8	11,271
1028,2	11,129
1028,6	11,043
1029	9,271
1029,5	6,471
1029,9	6,986
1030,3	7,414
1030,7	12,443
1031,1	15,843
1031,5	17,214
1032	18,986
1032,4	15,643
1032,8	18,843
1033,2	18,043
1033,6	15,843
1034	14,071
1034,4	14,871
1034,9	16,214
1035,3	17,814
1035,7	12,014
1036,1	8,814
1036,5	12,843
1036,9	14,929
1037,4	13,1
1037,8	11,014
1038,2	8,3
1038,6	9,214
1039	11,843
1039,4	9,471
1039,8	8,871
1040,3	11,186
1040,7	9,414
1041,1	12,586
1041,5	14,671
1041,9	11,786
1042,3	11,014
1042,7	7,214
1043,2	5,157
1043,6	9,243
1044	12,529
1044,4	10,157
1044,8	9,129
1045,2	11,586
1045,6	14,557
1046,1	10,414
1046,5	10,157
1046,9	4,1
1047,3	7,129
1047,7	10,843
1048,1	6,643
1048,5	11,7
1049	17,671
1049,4	14,671
1049,8	11,757
1050,2	7,443
1050,6	2,386
1051	2,071
1051,4	-1,671
1051,9	-8,271
1052,3	-5,557
1052,7	-0,329
1053,1	1,557
1053,5	3,871
1053,9	6,329
1054,3	-0,814
1054,8	3,214
1055,2	-0,071
1055,6	5,929
1056	6,014
1056,4	7,443
1056,8	10,271
1057,2	15,986
1057,6	15,986
1058,1	21,729
1058,5	14,386
1058,9	13,957
1059,3	17,557
1059,7	10,614
1060,1	7,586
1060,5	6,014
1061	1,271
1061,4	1,671
1061,8	5,671
1062,2	1,529
1062,6	8,386
1063	13,414
1063,4	12,586
1063,8	15,9
1064,3	17,129
1064,7	17,786
1065,1	13,671
1065,5	8,871
1065,9	5,643
1066,3	7,471
1066,7	2,643
1067,1	1,929
1067,6	-5,357
1068	-2,214
1068,4	-2,186
1068,8	-3,186
1069,2	-4,014
1069,6	-6,186
1070	-3,1
1070,4	0,157
1070,9	2,414
1071,3	5,586
1071,7	7,471
1072,1	8,071
1072,5	14,957
1072,9	10,929
1073,3	13,986
1073,7	13,414
1074,2	8,757
1074,6	7,414
1075	6,386
1075,4	2,929
1075,8	6,1
1076,2	4,871
1076,6	3,5
1077	5,386
1077,5	9,7
1077,9	9,129
1078,3	5,414
1078,7	-0,271
1079,1	-0,471
1079,5	0,157
1079,9	0,014
1080,3	-2,814
1080,7	0,843
1081,2	7,014
1081,6	8,471
1082	12,071
1082,4	10,957
1082,8	11,386
1083,2	11,014
1083,6	7,186
1084	6,757
1084,5	8,586
1084,9	-0,557
1085,3	-1,043
1085,7	-1,643
1086,1	-6,014
1086,5	-8,7
1086,9	-9,671
1087,3	-13,386
1087,7	-10,929
1088,2	-7,386
1088,6	-9,529
1089	-6,186
1089,4	-3,3
1089,8	-1,214
1090,2	0,9
1090,6	2,643
1091	1,157
1091,4	3,386
1091,9	4,671
1092,3	4,643
1092,7	0,443
1093,1	-4,157
1093,5	-4,871
1093,9	-7,1
1094,3	-6,157
1094,7	-10,529
1095,1	-8,414
1095,5	-8,671
1096	-3,814
1096,4	-3,729
1096,8	-0,957
1097,2	-2,357
1097,6	4,157
1098	3,586
1098,4	3,614
1098,8	3,957
1099,2	-0,9
1099,6	-3,643
1100,1	-2,671
1100,5	-1,529
1100,9	-0,157
1101,3	1,414
1101,7	1,529
1102,1	7,871
1102,5	4,186
1102,9	-0,014
1103,3	-1,871
1103,7	-5,386
1104,2	-5,871
1104,6	-1,214
1105	-1,271
1105,4	3,986
1105,8	7,986
1106,2	5,729
1106,6	6,529
1107	7,129
1107,4	3,267
1107,8	1,82
1108,3	0,5
