Data from Subt2_00062.txt Node
Date: Mon Aug 28 13:25:56 MSK 2023
User: vat
Spectrometer: MAYP114033
Trigger mode: 0
Integration Time (sec): 1,000000E0
Scans to average: 5
Electric dark correction enabled: true
Nonlinearity correction enabled: false
Boxcar width: 3
XAxis mode: Wavelengths
Number of Pixels in Spectrum: 2068
>>>>>Begin Spectral Data<<<<<
199,4	-0,983
199,9	-6,693
200,4	-8,8
200,8	-5,876
201,3	-5,39
201,8	-1,076
202,2	-0,305
202,7	-1,048
203,2	5,267
203,6	9,867
204,1	9,01
204,6	10,981
205	5,495
205,5	0,638
206	0,581
206,4	-1,105
206,9	-0,019
207,4	-1,933
207,8	-5,048
208,3	-4,733
208,8	1,552
209,2	2,981
209,7	2,952
210,2	0,838
210,6	2,41
211,1	5,867
211,5	5,21
212	4,524
212,5	6,895
212,9	5,438
213,4	4,81
213,9	2,152
214,3	1,324
214,8	4,495
215,3	2,667
215,7	1,295
216,2	0,467
216,7	4,838
217,1	4,181
217,6	3,781
218,1	1,838
218,5	-0,59
219	-0,876
219,5	4,267
219,9	-4,333
220,4	6,638
220,9	4,867
221,3	5,838
221,8	11,981
222,3	17,067
222,7	19,467
223,2	21,781
223,6	13,038
224,1	15,181
224,6	14,181
225	10,124
225,5	5,21
226	-3,219
226,4	3,924
226,9	5,495
227,4	9,781
227,8	11,267
228,3	10,695
228,8	10,924
229,2	14,838
229,7	7,724
230,2	9,01
230,6	4,61
231,1	5,581
231,5	9,61
232	8,124
232,5	7,124
232,9	12,438
233,4	10,067
233,9	14,867
234,3	17,581
234,8	15,524
235,3	17,581
235,7	17,752
236,2	19,095
236,7	17,01
237,1	13,267
237,6	10,067
238,1	12,01
238,5	10,238
239	10,01
239,4	4,038
239,9	7,81
240,4	3,924
240,8	5,067
241,3	2,124
241,8	1,924
242,2	1,838
242,7	4,838
243,2	8,524
243,6	17,467
244,1	14,324
244,6	12,61
245	12,867
245,5	15,152
245,9	15,81
246,4	10,667
246,9	5,324
247,3	7,924
247,8	8,41
248,3	11,61
248,7	11,352
249,2	8,752
249,7	14,781
250,1	10,981
250,6	8,324
251	7,667
251,5	3,181
252	-1,048
252,4	-1,848
252,9	-5,048
253,4	0,01
253,8	0,381
254,3	1,81
254,8	5,01
255,2	5,981
255,7	7,81
256,1	4,41
256,6	0,981
257,1	1,667
257,5	-0,705
258	-6,562
258,5	-1,248
258,9	-2,876
259,4	2,981
259,9	-0,99
260,3	-0,876
260,8	-1,933
261,2	7,238
261,7	4,124
262,2	5,695
262,6	-0,905
263,1	1,524
263,6	-2,59
264	0,895
264,5	-4,333
264,9	-4,962
265,4	-4,276
265,9	0,01
266,3	-0,619
266,8	3,524
267,3	4,638
267,7	6,352
268,2	7,467
268,7	9,467
269,1	5,295
269,6	6,238
270	0,581
270,5	8,752
271	6,067
271,4	2,81
271,9	-4,219
272,4	-1,79
272,8	-1,019
273,3	3,552
273,7	-7,019
274,2	-4,248
274,7	-1,876
275,1	-1,019
275,6	5,267
276,1	7,752
276,5	6,41
277	8,667
277,4	7,81
277,9	3,295
278,4	3,952
278,8	-2,619
279,3	-2,39
279,8	0,524
280,2	4,181
280,7	1,21
281,1	1,924
281,6	5,524
282,1	4,695
282,5	7,752
283	4,695
283,4	-0,219
283,9	0,41
284,4	4,61
284,8	1,438
285,3	0,124
285,8	-7,076
286,2	-6,99
286,7	-6,39
287,1	-7,619
287,6	-9,733
288,1	-7,419
288,5	-4,505
289	-4,276
289,5	-0,933
289,9	2,181
290,4	3,238
290,8	6,152
291,3	6,41
291,8	4,752
292,2	8,895
292,7	11,724
293,1	9,21
293,6	13,124
294,1	10,924
294,5	9,095
295	8,781
295,5	7,981
295,9	2,867
296,4	4,124
296,8	3,238
297,3	8,524
297,8	14,238
298,2	13,695
298,7	13,867
299,1	14,067
299,6	14,295
300,1	10,524
300,5	4,181
301	-1,705
301,5	-0,248
301,9	-2,848
302,4	-5,048
302,8	-6,076
303,3	0,381
303,8	8,067
304,2	9,724
304,7	6,41
305,1	5,352
305,6	6,781
306,1	5,552
306,5	-1,019
307	-6,19
307,4	-7,762
307,9	-3,219
308,4	-2,333
308,8	1,952
309,3	5,81
309,8	7,61
310,2	6,352
310,7	7,924
311,1	8,752
311,6	9,152
312,1	2,152
312,5	-1,533
313	-1,448
313,4	1,638
313,9	0,295
314,4	-4,962
314,8	-2,59
315,3	5,438
315,7	6,752
316,2	6,838
316,7	5,152
317,1	6,152
317,6	7,581
318	7,667
318,5	4,781
319	3,81
319,4	4,924
319,9	1,01
320,3	-0,876
320,8	0,324
321,3	-3,619
321,7	-1,933
322,2	-5,219
322,6	-2,819
323,1	-3,962
323,6	1,124
324	2,01
324,5	2,667
324,9	6,095
325,4	8,21
325,9	6,01
326,3	9,41
326,8	4,895
327,2	1,095
327,7	1,61
328,2	-1,733
328,6	2,467
329,1	-2,676
329,5	-1,162
330	3,124
330,5	10,552
330,9	12,895
331,4	7,752
331,8	2,781
332,3	7,781
332,8	7,41
333,2	5,667
333,7	-0,076
334,1	-7,076
334,6	-5,819
335,1	-3,19
335,5	-4,305
336	-0,933
336,4	0,067
336,9	4,524
337,4	8,01
337,8	10,61
338,3	10,924
338,7	10,695
339,2	6,038
339,7	2,724
340,1	-2,876
340,6	-0,533
341	-2,762
341,5	-2,676
342	-2,248
342,4	-6,419
342,9	-5,533
343,3	-2,162
343,8	1,924
344,2	2,895
344,7	-1,762
345,2	-1,419
345,6	4,01
346,1	0,667
346,5	2,552
347	-4,219
347,5	-2,019
347,9	-0,762
348,4	-1,019
348,8	1,124
349,3	0,838
349,8	-1,048
350,2	4,181
350,7	5,638
351,1	10,21
351,6	12,038
352	9,181
352,5	16,752
353	22,238
353,4	25,552
353,9	31,21
354,3	41,924
354,8	48,895
355,3	61,524
355,7	75,352
356,2	87,095
356,6	103,295
357,1	122,181
357,5	139,181
358	167,067
358,5	193,181
358,9	225,552
359,4	262,124
359,8	303,21
360,3	345,838
360,8	398,695
361,2	454,267
361,7	520,61
362,1	585,838
362,6	659,81
363	741,324
363,5	828,067
364	913,267
364,4	1004,095
364,9	1094,095
365,3	1182,667
365,8	1274,01
366,3	1353,724
366,7	1418,695
367,2	1481,81
367,6	1529,895
368,1	1569,21
368,5	1594,981
369	1599,438
369,5	1599,752
369,9	1594,781
370,4	1567,352
370,8	1531,552
371,3	1484,724
371,7	1428,152
372,2	1367,01
372,7	1298,838
373,1	1230,038
373,6	1161,981
374	1091,467
374,5	1015,01
374,9	947,41
375,4	880,981
375,9	817,21
376,3	748,038
376,8	687,895
377,2	632,952
377,7	584,724
378,2	540,124
378,6	494,21
379,1	446,352
379,5	412,552
380	376,895
380,4	341,581
380,9	314,038
381,4	283,238
381,8	261,61
382,3	243,21
382,7	225,267
383,2	204,724
383,6	198,838
384,1	186,781
384,6	173,781
385	160,952
385,5	150,581
385,9	141,581
386,4	143,181
386,8	127,752
387,3	117,752
387,7	113,21
388,2	106,381
388,7	101,01
389,1	90,867
389,6	79,952
390	77,267
390,5	73,067
390,9	66,095
391,4	63,867
391,9	58,41
392,3	56,724
392,8	54,238
393,2	51,638
393,7	51,21
394,1	52,324
394,6	52,352
395,1	57,581
395,5	56,781
396	54,01
396,4	48,695
396,9	43,867
397,3	45,095
397,8	41,095
398,2	32,21
398,7	26,724
399,2	24,352
399,6	22,895
400,1	22,524
400,5	20,124
401	24,981
401,4	24,495
401,9	28,438
402,4	28,095
402,8	33,038
403,3	34,467
403,7	34,81
404,2	32,038
404,6	31,352
405,1	33,924
405,5	36,495
406	37,267
406,5	39,095
406,9	41,981
407,4	40,41
407,8	45,467
408,3	42,381
408,7	40,981
409,2	40,124
409,6	41,552
410,1	38,695
410,6	37,124
411	37,667
411,5	39,038
411,9	38,124
412,4	41,552
412,8	40,181
413,3	41,352
413,7	44,21
414,2	43,581
414,7	43,781
415,1	55,067
415,6	57,524
416	63,152
416,5	69,895
416,9	77,238
417,4	81,638
417,8	89,581
418,3	87,438
418,8	87,038
419,2	85,267
419,7	85,352
420,1	84,524
420,6	90,067
421	90,867
421,5	94,695
421,9	92,981
422,4	96,524
422,8	96,581
423,3	95,924
423,8	92,895
424,2	91,667
424,7	93,152
425,1	94,067
425,6	92,61
426	96,095
426,5	97,095
426,9	99,781
427,4	105,21
427,9	105,038
428,3	112,438
428,8	113,695
429,2	110,981
429,7	117,467
430,1	116,21
430,6	110,067
431	108,181
431,5	105,81
431,9	108,21
432,4	106,181
432,8	107,924
433,3	111,038
433,8	116,695
434,2	124,495
434,7	125,438
435,1	135,067
435,6	140,724
436	145,781
436,5	153,181
436,9	162,524
437,4	167,524
437,8	179,01
438,3	182,981
438,8	193,581
439,2	199,067
439,7	202,895
440,1	206,238
440,6	214,924
441	221,524
441,5	226,952
441,9	234,01
442,4	245,81
442,8	260,61
443,3	274,638
443,7	280,438
444,2	289,352
444,7	303,552
445,1	320,438
445,6	333,838
446	344,638
446,5	355,01
446,9	374,438
447,4	394,124
447,8	410,381
448,3	424,21
448,7	439,495
449,2	457,495
449,6	480,838
450,1	501,095
450,6	518,467
451	538,438
451,5	565,895
451,9	584,238
452,4	603,381
452,8	622,21
453,3	638,952
453,7	662,21
454,2	682,095
454,6	698,981
455,1	726,21
455,5	754,381
456	782,724
456,4	813,952
456,9	844,638
457,3	873,981
457,8	903,095
458,3	928,438
458,7	960,181
459,2	989,01
459,6	1019,524
460,1	1051,181
460,5	1084,181
461	1117,724
461,4	1156,638
461,9	1184,752
462,3	1221,895
462,8	1254,838
463,2	1287,638
463,7	1325,952
464,1	1355,467
464,6	1386,781
465	1425,324
465,5	1460,895
466	1503,238
466,4	1541,095
466,9	1575,41
467,3	1618,552
467,8	1661,724
468,2	1703,381
468,7	1745,61
469,1	1782,581
469,6	1822,038
470	1865,495
470,5	1905,152
470,9	1942,352
471,4	1986,695
471,8	2021,41
472,3	2060,238
472,7	2098,41
473,2	2134,067
473,6	2175,638
474,1	2213,695
474,5	2244,638
475	2280,467
475,4	2318,267
475,9	2357,267
476,4	2399,381
476,8	2439,638
477,3	2477,752
477,7	2522,295
478,2	2569,124
478,6	2607,724
479,1	2647,438
479,5	2683,952
480	2720,152
480,4	2759,552
480,9	2790,752
481,3	2818,781
481,8	2848,724
482,2	2884,438
482,7	2926,152
483,1	2961,952
483,6	2994,867
484	3031,41
484,5	3065,467
484,9	3104,667
485,4	3134,41
485,8	3156,238
486,3	3181,524
486,7	3209,01
487,2	3237,038
487,6	3262,267
488,1	3285,095
488,5	3304,552
489	3336,295
489,4	3359,895
489,9	3384,152
490,4	3399,752
490,8	3425,267
491,3	3445,981
491,7	3473,067
492,2	3482,952
492,6	3501,952
493,1	3524,695
493,5	3547,095
494	3571,152
494,4	3590,41
494,9	3606,267
495,3	3622,724
495,8	3636,295
496,2	3650,181
496,7	3667,152
497,1	3675,752
497,6	3687,038
498	3699,838
498,5	3719,21
498,9	3736,81
499,4	3744,352
499,8	3753,581
500,3	3770,467
500,7	3783,61
501,2	3795,895
501,6	3810,895
502,1	3824,352
502,5	3837,895
503	3855,867
503,4	3857,867
503,9	3868,41
504,3	3878,352
504,8	3879,61
505,2	3884,381
505,7	3890,524
506,1	3892,295
506,6	3897,152
507	3906,352
507,5	3912,267
507,9	3922,124
508,4	3926,152
508,8	3937,152
509,3	3946,21
509,7	3954,81
510,2	3961,352
510,6	3969,152
511,1	3976,324
511,5	3985,152
512	3987,524
512,4	3991,695
512,9	3994,524
513,3	3998,781
513,8	4004,038
514,2	4004,952
514,7	4009,41
515,1	4012,724
515,6	4018,095
516	4034,381
516,5	4042,495
516,9	4046,981
517,4	4052,724
517,8	4058,81
518,3	4064,867
518,7	4068,924
519,2	4069,552
519,6	4063,924
520,1	4074,638
520,5	4073,438
521	4071,61
521,4	4082,352
521,9	4080,124
522,3	4082,667
522,8	4093,181
523,2	4090,41
523,7	4106,038
524,1	4115,724
524,6	4116,781
525	4136,095
525,5	4142,295
525,9	4150,667
526,4	4156,838
526,8	4160,667
527,3	4176,781
527,7	4189,095
528,2	4197,667
528,6	4212,867
529,1	4224,867
529,5	4243,095
530	4258,61
530,4	4262,352
530,9	4272,238
531,3	4278,124
531,8	4286,152
532,2	4291,21
532,6	4293,61
533,1	4298,152
533,5	4304,267
534	4303,895
534,4	4308,21
534,9	4310,124
535,3	4320,952
535,8	4327,438
536,2	4333,581
536,7	4346,01
537,1	4356,724
537,6	4366,381
538	4379,238
538,5	4386,638
538,9	4398,267
539,4	4407,667
539,8	4417,752
540,3	4434,41
540,7	4435,867
541,2	4442,038
541,6	4450,152
542,1	4457,81
542,5	4463,324
543	4471,152
543,4	4468,924
543,9	4484,638
544,3	4498,952
544,8	4507,295
545,2	4515,838
545,7	4527,267
546,1	4530,867
546,5	4548,01
547	4563,61
547,4	4570,181
547,9	4578,581
548,3	4589,524
548,8	4601,552
549,2	4616,924
549,7	4626,638
550,1	4625,267
550,6	4635,124
551	4643,552
551,5	4643,895
551,9	4647,067
552,4	4647,667
552,8	4653,838
553,3	4663,152
553,7	4669,867
554,2	4683,724
554,6	4697,695
555,1	4708,952
555,5	4720,267
555,9	4724,01
556,4	4729,438
556,8	4741,238
557,3	4742,41
557,7	4754,095
558,2	4762,524
558,6	4770,495
559,1	4783,952
559,5	4794,952
560	4793,495
560,4	4800,638
560,9	4804,781
561,3	4810,438
561,8	4815,952
562,2	4820,838
562,7	4825,352
563,1	4835,067
563,6	4839,552
564	4842,352
564,4	4846,352
564,9	4854,067
565,3	4861,467
565,8	4870,838
566,2	4871,495
566,7	4881,095
567,1	4887,524
567,6	4890,867
568	4892,295
568,5	4889,781
568,9	4892,438
569,4	4897,552
569,8	4894,867
570,3	4890,267
570,7	4886,067
571,1	4885,867
571,6	4891,01
572	4892,838
572,5	4887,495
572,9	4888,752
573,4	4893,667
573,8	4906,867
574,3	4911,152
574,7	4903,21
575,2	4899,667
575,6	4906,095
576,1	4907,324
576,5	4905,952
576,9	4900,352
577,4	4899,924
577,8	4899,981
578,3	4899,724
578,7	4889,41
579,2	4880,467
579,6	4874,067
580,1	4872,81
580,5	4865,752
581	4859,495
581,4	4852,781
581,9	4848,41
582,3	4844,981
582,7	4840,952
583,2	4828,495
583,6	4817,067
584,1	4813,667
584,5	4801,724
585	4799,295
585,4	4793,324
585,9	4785,752
586,3	4776,352
586,8	4769,838
587,2	4766,581
587,6	4765,181
588,1	4752,638
588,5	4744,981
589	4738,067
589,4	4728,381
589,9	4722,438
590,3	4704,781
590,8	4694,124
591,2	4695,952
591,7	4688,267
592,1	4683,267
592,5	4682,095
593	4679,324
593,4	4675,238
593,9	4675,238
594,3	4663,81
594,8	4656,752
595,2	4643,895
595,7	4640,41
596,1	4629,524
596,6	4627,924
597	4613,81
597,4	4604,267
597,9	4594,781
598,3	4589,638
598,8	4577,524
599,2	4572,524
599,7	4567,781
600,1	4562,752
600,6	4551,581
601	4544,724
601,4	4533,152
601,9	4522,981
602,3	4506,895
602,8	4486,867
603,2	4470,438
603,7	4463,752
604,1	4450,067
604,6	4437,467
605	4423,352
605,4	4410,324
605,9	4400,267
606,3	4397,352
606,8	4381,267
607,2	4374,438
607,7	4371,581
608,1	4359,638
608,6	4357,152
609	4348,438
609,4	4323,038
609,9	4312,838
610,3	4294,352
610,8	4272,638
611,2	4261,324
611,7	4239,638
612,1	4218,095
612,6	4204,724
613	4178,895
613,4	4166,038
613,9	4157,524
614,3	4145,552
614,8	4134,667
615,2	4127,124
615,7	4125,324
616,1	4121,552
616,6	4109,381
617	4093,124
617,4	4077,467
617,9	4063,438
618,3	4043,124
618,8	4019,067
619,2	4006,638
619,7	3989,981
620,1	3969,895
620,5	3951,01
621	3927,667
621,4	3912,552
621,9	3896,124
622,3	3874,41
622,8	3852,61
623,2	3836,752
623,6	3819,067
624,1	3807,581
624,5	3790,067
625	3774,924
625,4	3760,181
625,9	3751,238
626,3	3736,524
626,8	3714,41
627,2	3691,781
627,6	3673,352
628,1	3652,324
628,5	3631,238
629	3603,81
629,4	3587,867
629,9	3577,81
630,3	3566,895
630,7	3549,667
631,2	3531,895
631,6	3518,467
632,1	3508,867
632,5	3485,81
633	3461,267
633,4	3437,981
633,8	3424,095
634,3	3408,695
634,7	3390,552
635,2	3364,638
635,6	3350,238
636,1	3337,895
636,5	3321,695
636,9	3299,724
637,4	3283,724
637,8	3261,724
638,3	3248,581
638,7	3230,438
639,2	3210,181
639,6	3193,095
640	3178,181
640,5	3158,895
640,9	3142,924
641,4	3119,438
641,8	3107,752
642,2	3093,81
642,7	3082,981
643,1	3073,81
643,6	3063,381
644	3049,552
644,5	3045,695
644,9	3024,095
645,3	3012,152
645,8	2991,095
646,2	2968,581
646,7	2941,067
647,1	2930,352
647,6	2913,067
648	2901,124
648,4	2881,152
648,9	2866,981
649,3	2853,581
649,8	2846,81
650,2	2825,895
650,6	2817,867
651,1	2799,638
651,5	2785,267
652	2771,524
652,4	2754,238
652,9	2738,152
653,3	2729,981
653,7	2711,41
654,2	2696,895
654,6	2682,724
655,1	2666,41
655,5	2654,552
655,9	2644,152
656,4	2628,295
656,8	2612,324
657,3	2602,295
657,7	2589,924
658,2	2579,238
658,6	2564,124
659	2546,352
659,5	2528,41
659,9	2508,067
660,4	2486,81
660,8	2468,238
661,2	2448,352
661,7	2434,267
662,1	2424,124
662,6	2410,01
663	2395,438
663,4	2380,781
663,9	2363,524
664,3	2349,152
664,8	2327,638
665,2	2306,781
665,6	2292,752
666,1	2276,124
666,5	2262,181
667	2255,41
667,4	2242,21
667,9	2239,981
668,3	2228,01
668,7	2214,924
669,2	2201,552
669,6	2186,724
670,1	2169,267
670,5	2155,381
670,9	2134,695
671,4	2118,01
671,8	2101,952
672,3	2090,181
672,7	2076,752
673,1	2061,61
673,6	2050,552
674	2032,238
674,5	2014,495
674,9	1997,667
675,3	1984,638
675,8	1976,581
676,2	1960,552
676,7	1944,638
677,1	1936,381
677,5	1929,838
678	1925,324
678,4	1913,295
678,9	1898,295
679,3	1892,267
679,7	1879,581
680,2	1862,952
680,6	1848,495
681,1	1841,495
681,5	1829,61
681,9	1818,467
682,4	1805,267
682,8	1797,01
683,3	1788,495
683,7	1777,352
684,1	1755,695
684,6	1741,895
685	1726,581
685,5	1715,467
685,9	1699,81
686,3	1688,267
686,8	1681,838
687,2	1671,324
687,7	1662,295
688,1	1652,095
688,5	1642,21
689	1631,895
689,4	1619,524
689,9	1606,238
690,3	1593,152
690,7	1583,552
691,2	1572,21
691,6	1559,667
692	1548,781
692,5	1540,181
692,9	1526,752
693,4	1513,181
693,8	1502,724
694,2	1489,638
694,7	1478,152
695,1	1469,581
695,6	1460,095
696	1455,495
696,4	1455,495
696,9	1444,981
697,3	1433,495
697,8	1423,524
698,2	1408,467
698,6	1396,324
699,1	1384,867
699,5	1366,581
699,9	1360,667
700,4	1359,981
700,8	1355,067
701,3	1351,238
701,7	1342,838
702,1	1334,467
702,6	1331,667
703	1320,095
703,5	1303,895
703,9	1289,867
704,3	1276,124
704,8	1268,295
705,2	1254,924
705,6	1244,381
706,1	1226,981
706,5	1223,181
707	1214,581
707,4	1212,038
707,8	1200,895
708,3	1196,695
708,7	1186,295
709,2	1185,467
709,6	1173,61
710	1171,638
710,5	1158,638
710,9	1156,01
711,3	1141,667
711,8	1134,295
712,2	1127,695
712,7	1125,438
713,1	1111,467
713,5	1106,695
714	1094,152
714,4	1092,21
714,8	1084,667
715,3	1077,695
715,7	1069,267
716,2	1065,695
716,6	1055,238
717	1050,495
717,5	1038,495
717,9	1034,781
718,3	1024,552
718,8	1018,924
719,2	1011,381
719,7	1007,295
720,1	1001,41
720,5	994,295
721	983,61
721,4	977,781
721,8	964,724
722,3	954,067
722,7	944,495
723,2	935,038
723,6	930,838
724	923,181
724,5	909,724
724,9	906,695
725,3	899,467
725,8	893,238
726,2	883,752
726,7	876,781
727,1	873,638
727,5	870,895
728	864,324
728,4	858,695
728,8	850,581
729,3	844,838
729,7	839,381
730,1	825,752
730,6	820,981
731	814,781
731,5	808,238
731,9	808,238
732,3	807,838
732,8	803,238
733,2	806,867
733,6	806,038
734,1	803,41
734,5	798,21
734,9	791,667
735,4	782,81
735,8	777,324
736,3	772,467
736,7	765,381
737,1	762,01
737,6	759,152
738	753,724
738,4	749,838
738,9	746,352
739,3	740,41
739,7	732,638
740,2	724,724
740,6	718,21
741,1	710,095
741,5	705,924
741,9	699,724
742,4	694,381
742,8	693,038
743,2	687,838
743,7	680,781
744,1	680,467
744,5	677,638
745	669,638
745,4	662,038
745,8	659,438
746,3	654,238
746,7	653,724
747,2	648,81
747,6	637,867
748	636,724
748,5	633,295
748,9	618,038
749,3	615,01
749,8	613,41
750,2	607,724
750,6	611,981
751,1	605,21
751,5	600,467
751,9	605,724
752,4	600,495
752,8	595,752
753,3	588,61
753,7	577,781
754,1	575,01
754,6	572,467
755	563,495
755,4	565,124
755,9	563,724
756,3	564,695
756,7	568,524
757,2	565,495
757,6	561,41
758	560,067
758,5	554,667
758,9	544,152
759,3	538,124
759,8	528,924
760,2	519,952
760,6	518,724
761,1	512,981
761,5	510,638
761,9	507,552
762,4	501,867
762,8	499,524
763,3	501,838
763,7	493,267
764,1	493,867
764,6	488,095
765	482,924
765,4	484,981
765,9	481,467
766,3	476,752
766,7	472,581
767,2	470,81
767,6	469,695
768	470,838
768,5	465,41
768,9	465,41
769,3	457,752
769,8	455,324
770,2	447,067
770,6	439,724
771,1	435,324
771,5	432,952
771,9	426,952
772,4	431,41
772,8	428,552
773,2	427,895
773,7	426,124
774,1	423,267
774,5	414,695
775	408,152
775,4	399,581
775,8	400,838
776,3	400,01
776,7	395,467
777,1	386,61
777,6	385,381
778	383,838
778,4	386,981
778,9	379,21
779,3	371,867
779,7	368,638
780,2	376,01
780,6	373,667
781	369,924
781,5	369,61
781,9	370,01
782,3	367,181
782,8	369,438
783,2	361,781
783,6	363,152
784,1	362,638
784,5	353,01
784,9	349,81
785,4	349,581
785,8	339,181
786,2	333,152
786,7	329,61
787,1	328,781
787,5	326,695
788	322,495
788,4	318,21
788,8	317,067
789,3	315,295
789,7	315,781
790,1	311,867
790,6	312,41
791	311,924
791,4	313,381
791,9	311,067
792,3	311,267
792,7	303,724
793,2	302,781
793,6	299,695
794	296,695
794,5	295,01
794,9	295,81
795,3	294,21
795,8	292,952
796,2	290,438
796,6	292,467
797,1	285,752
797,5	283,61
797,9	282,781
798,4	280,838
798,8	276,952
799,2	272,867
799,7	267,095
800,1	270,41
800,5	269,638
801	266,324
801,4	266,21
801,8	264,952
802,2	269,781
802,7	269,752
803,1	268,81
803,5	263,01
804	262,867
804,4	256,952
804,8	257,124
805,3	254,895
805,7	250,867
806,1	248,81
806,6	247,752
807	242,552
807,4	244,981
807,9	243,095
808,3	235,295
808,7	230,81
809,2	231,067
809,6	230,895
810	229,524
810,4	225,381
810,9	223,352
811,3	223,438
811,7	227,438
812,2	222,895
812,6	214,01
813	212,495
813,5	208,21
813,9	205,41
814,3	202,981
814,8	194,552
815,2	189,01
815,6	189,81
816,1	189,524
816,5	190,867
816,9	187,667
817,3	188,181
817,8	191,238
818,2	193,038
818,6	192,067
819,1	191,667
819,5	189,438
819,9	191,124
820,4	190,095
820,8	188,524
821,2	189,352
821,7	189,667
822,1	184,295
822,5	183,867
822,9	181,495
823,4	182,981
823,8	177,895
824,2	177,438
824,7	177,981
825,1	175,552
825,5	171,524
826	170,21
826,4	161,838
826,8	161,352
827,3	159,095
827,7	157,41
828,1	163,81
828,5	163,724
829	164,152
829,4	160,952
829,8	158,867
830,3	155,552
830,7	148,095
831,1	143,895
831,6	141,752
832	142,552
832,4	143,267
832,8	141,267
833,3	142,524
833,7	141,752
834,1	139,152
834,6	136,667
835	136,524
835,4	131,81
835,8	134,524
836,3	129,152
836,7	130,324
837,1	129,21
837,6	126,581
838	117,781
838,4	121,952
838,9	116,981
839,3	122,152
839,7	124,41
840,1	117,238
840,6	124,467
841	127,095
841,4	126,21
841,9	124,41
842,3	116,867
842,7	115,181
843,1	120,667
843,6	113,981
844	112,867
844,4	111,352
844,9	112,095
845,3	113,695
845,7	110,952
846,2	110,038
846,6	110,038
847	111,21
847,4	107,21
847,9	105,381
848,3	102,038
848,7	101,552
849,2	98,695
849,6	96,181
850	92,867
850,4	92,895
850,9	91,838
851,3	94,067
851,7	90,352
852,2	89,695
852,6	89,41
853	89,867
853,4	89,238
853,9	91,038
854,3	91,295
854,7	92,924
855,2	97,981
855,6	100,067
856	97,181
856,4	99,438
856,9	99,038
857,3	94,21
857,7	94,667
858,2	84,181
858,6	83,295
859	81,067
859,4	82,21
859,9	81,81
860,3	80,381
860,7	80,752
861,1	86,838
861,6	86,781
862	87,238
862,4	83,495
862,9	83,524
863,3	78,981
863,7	74,981
864,1	71,01
864,6	69,552
865	68,695
865,4	67,324
865,9	64,124
866,3	69,581
866,7	74,352
867,1	71,724
867,6	72,61
868	78,724
868,4	79,124
868,8	78,81
869,3	80,381
869,7	74,981
870,1	77,067
870,6	72,581
871	88,638
871,4	84,324
871,8	82,21
872,3	80,067
872,7	81,781
873,1	79,267
873,5	79,124
874	52,724
874,4	57,895
874,8	65,924
875,3	62,867
875,7	64,895
876,1	61,581
876,5	59,552
877	62,038
877,4	60,124
877,8	54,038
878,2	52,152
878,7	51,181
879,1	54,781
879,5	51,61
879,9	51,81
880,4	53,495
880,8	53,61
881,2	59,61
881,7	52,924
882,1	52,838
882,5	60,952
882,9	57,895
883,4	55,495
883,8	51,952
884,2	46,267
884,6	51,238
885,1	49,667
885,5	44,781
885,9	48,667
886,3	45,152
886,8	46,01
887,2	42,324
887,6	39,01
888	42,124
888,5	42,438
888,9	40,667
889,3	41,238
889,8	43,238
890,2	44,695
890,6	42,324
891	39,267
891,5	41,61
891,9	44,124
892,3	46,124
892,7	41,552
893,2	44,352
893,6	46,924
894	48,838
894,4	48,067
894,9	42,981
895,3	38,981
895,7	43,324
896,1	42,267
896,6	44,181
897	42,124
897,4	44,21
897,8	46,895
898,3	50,981
898,7	44,524
899,1	47,295
899,5	45,467
900	43,781
900,4	42,467
900,8	42,867
901,2	40,724
901,7	43,838
902,1	43,124
902,5	38,752
902,9	38,695
903,4	33,152
903,8	29,667
904,2	27,352
904,6	26,781
905,1	29,667
905,5	32,267
905,9	33,552
906,3	30,667
906,8	31,61
907,2	30,324
907,6	34,638
908	25,781
908,5	26,21
908,9	24,552
909,3	27,524
909,7	24,638
910,2	32,524
910,6	26,838
911	26,21
911,4	23,895
911,9	19,581
912,3	15,895
912,7	13,924
913,1	4,61
913,6	5,352
914	11,981
914,4	7,095
914,8	12,981
915,3	16,724
915,7	19,667
916,1	21,667
916,5	24,552
916,9	20,181
917,4	27,781
917,8	24,495
918,2	23,867
918,6	26,581
919,1	27,152
919,5	25,01
919,9	25,981
920,3	24,238
920,8	25,638
921,2	21,638
921,6	22,952
922	24,21
922,5	27,838
922,9	27,267
923,3	28,752
923,7	33,352
924,2	38,924
924,6	36,152
925	33,838
925,4	29,667
925,8	30,638
926,3	30,467
926,7	26,924
927,1	28,952
927,5	34,495
928	33,895
928,4	34,524
928,8	33,667
929,2	28,524
929,7	25,895
930,1	21,124
930,5	14,581
930,9	14,924
931,3	15,038
931,8	16,61
932,2	20,667
932,6	20,41
933	22,495
933,5	25,352
933,9	24,752
934,3	21,352
934,7	14,495
935,2	16,867
935,6	14,752
936	10,267
936,4	11,124
936,8	14,038
937,3	15,667
937,7	17,981
938,1	12,324
938,5	16,295
939	22,152
939,4	12,952
939,8	11,838
940,2	10,352
940,6	10,667
941,1	12,038
941,5	13,381
941,9	13,381
942,3	19,924
942,8	24,495
943,2	26,267
943,6	27,267
944	24,095
944,4	23,095
944,9	19,381
945,3	15,467
945,7	5,695
946,1	2,152
946,6	2,21
947	4,438
947,4	0,01
947,8	2,21
948,2	4,581
948,7	5,295
949,1	9,695
949,5	9,267
949,9	8,267
950,3	9,867
950,8	9,524
951,2	8,724
951,6	11,552
952	8,352
952,5	6,095
952,9	5,781
953,3	8,067
953,7	7,952
954,1	6,781
954,6	7,152
955	6,552
955,4	13,01
955,8	19,41
956,2	20,61
956,7	21,838
957,1	21,81
957,5	21,838
957,9	27,581
958,3	20,61
958,8	13,952
959,2	9,895
959,6	6,581
960	7,381
960,5	3,267
960,9	1,524
961,3	2,381
961,7	2,752
962,1	5,552
962,6	7,81
963	7,81
963,4	10,21
963,8	9,038
964,2	12,01
964,7	10,952
965,1	3,152
965,5	1,324
965,9	1,21
966,3	-0,819
966,8	-2,39
967,2	-8,99
967,6	-5,59
968	-1,333
968,4	-1,076
968,9	-1,562
969,3	-1,476
969,7	-0,305
970,1	4,524
970,5	5,352
971	3,552
971,4	1,752
971,8	3,952
972,2	7,181
972,6	4,067
973,1	4,181
973,5	-0,505
973,9	3,524
974,3	5,181
974,7	1,952
975,2	3,324
975,6	5,21
976	3,21
976,4	6,21
976,8	5,781
977,3	6,438
977,7	8,552
978,1	7,867
978,5	7,324
978,9	6,181
979,4	7,81
979,8	8,638
980,2	9,352
980,6	7,724
981	8,952
981,5	8,238
981,9	11,152
982,3	9,552
982,7	11,61
983,1	3,267
983,6	5,152
984	1,867
984,4	2,724
984,8	4,01
985,2	4,838
985,6	2,695
986,1	7,924
986,5	4,01
986,9	4,695
987,3	3,152
987,7	3,124
988,2	2,067
988,6	1,981
989	-0,905
989,4	6,581
989,8	8,238
990,3	6,61
990,7	6,295
991,1	7,667
991,5	6,61
991,9	8,095
992,3	2,324
992,8	1,724
993,2	5,41
993,6	2,324
994	-0,219
994,4	3,724
994,9	6,495
995,3	12,781
995,7	12,438
996,1	12,752
996,5	14,552
996,9	13,238
997,4	7,724
997,8	8,295
998,2	1,581
998,6	2,552
999	3,895
999,5	5,152
999,9	7,638
1000,3	8,867
1000,7	6,981
1001,1	5,295
1001,5	7,467
1002	6,695
1002,4	6,838
1002,8	6,381
1003,2	4,381
1003,6	6,667
1004	7,781
1004,5	3,124
1004,9	-0,933
1005,3	-2,762
1005,7	-5,705
1006,1	-0,676
1006,6	-4,99
1007	-2,933
1007,4	-2,676
1007,8	3,724
1008,2	7,038
1008,6	12,124
1009,1	10,067
1009,5	14,781
1009,9	14,952
1010,3	8,838
1010,7	10,152
1011,1	9,01
1011,6	8,724
1012	11,41
1012,4	10,524
1012,8	11,152
1013,2	19,781
1013,6	13,838
1014,1	12,381
1014,5	6,952
1014,9	5,581
1015,3	3,838
1015,7	5,781
1016,1	0,124
1016,6	-0,219
1017	3,067
1017,4	7,81
1017,8	5,124
1018,2	7,752
1018,6	5,467
1019,1	7,438
1019,5	7,381
1019,9	4,295
1020,3	0,752
1020,7	0,724
1021,1	-2,19
1021,6	-3,105
1022	-1,219
1022,4	2,524
1022,8	2,838
1023,2	5,324
1023,6	1,552
1024,1	4,238
1024,5	1,495
1024,9	1,038
1025,3	0,752
1025,7	0,324
1026,1	3,524
1026,6	10,552
1027	8,838
1027,4	15,81
1027,8	12,924
1028,2	6,724
1028,6	11,638
1029	7,524
1029,5	8,181
1029,9	10,524
1030,3	5,867
1030,7	5,838
1031,1	12,295
1031,5	7,867
1032	8,324
1032,4	6,752
1032,8	5,238
1033,2	3,61
1033,6	3,752
1034	0,067
1034,4	1,467
1034,9	1,181
1035,3	-3,505
1035,7	-5,733
1036,1	-6,048
1036,5	-1,59
1036,9	-2,79
1037,4	-1,933
1037,8	-2,505
1038,2	2,095
1038,6	2,924
1039	4,381
1039,4	3,524
1039,8	1,867
1040,3	5,038
1040,7	6,924
1041,1	2,324
1041,5	6,581
1041,9	0,238
1042,3	-0,476
1042,7	2,981
1043,2	2,752
1043,6	4,352
1044	8,781
1044,4	3,01
1044,8	10,295
1045,2	13,467
1045,6	15,41
1046,1	8,524
1046,5	8,21
1046,9	7,724
1047,3	13,781
1047,7	15,924
1048,1	9,438
1048,5	10,495
1049	17,038
1049,4	14,124
1049,8	12,095
1050,2	5,81
1050,6	4,067
1051	4,152
1051,4	2,095
1051,9	-3,762
1052,3	-4,476
1052,7	-2,476
1053,1	0,124
1053,5	-0,476
1053,9	0,61
1054,3	-2,819
1054,8	-4,105
1055,2	-10,048
1055,6	-6,162
1056	-5,99
1056,4	-0,762
1056,8	2,238
1057,2	5,495
1057,6	13,524
1058,1	21,552
1058,5	14,838
1058,9	13,181
1059,3	8,867
1059,7	3,21
1060,1	2,095
1060,5	-5,219
1061	-6,076
1061,4	-3,19
1061,8	1,324
1062,2	1,61
1062,6	9,752
1063	9,895
1063,4	15,41
1063,8	16,181
1064,3	15,752
1064,7	13,667
1065,1	16,267
1065,5	17,581
1065,9	17,667
1066,3	16,067
1066,7	13,781
1067,1	12,867
1067,6	13,21
1068	9,838
1068,4	1,581
1068,8	-0,019
1069,2	0,067
1069,6	-0,419
1070	1,867
1070,4	1,295
1070,9	2,752
1071,3	11,21
1071,7	14,581
1072,1	12,895
1072,5	11,981
1072,9	9,695
1073,3	12,638
1073,7	13,724
1074,2	11,895
1074,6	7,095
1075	4,867
1075,4	6,495
1075,8	6,638
1076,2	3,981
1076,6	2,495
1077	-4,448
1077,5	-1,076
1077,9	-2,533
1078,3	-1,133
1078,7	-5,933
1079,1	-4,39
1079,5	-6,562
1079,9	-5,019
1080,3	-8,276
1080,7	-3,876
1081,2	-1,562
1081,6	0,124
1082	-1,362
1082,4	-1,276
1082,8	-2,105
1083,2	3,867
1083,6	-1,019
1084	-2,905
1084,5	0,381
1084,9	-5,333
1085,3	-6,276
1085,7	-1,533
1086,1	-5,876
1086,5	-2,105
1086,9	-3,876
1087,3	-3,39
1087,7	-0,219
1088,2	2,638
1088,6	-1,019
1089	1,352
1089,4	1,152
1089,8	2,038
1090,2	-1,076
1090,6	1,552
1091	2,61
1091,4	5,495
1091,9	3,438
1092,3	4,495
1092,7	7,381
1093,1	8,724
1093,5	2,81
1093,9	1,952
1094,3	0,352
1094,7	2,581
1095,1	1,21
1095,5	-3,333
1096	-1,305
1096,4	0,295
1096,8	-1,362
1097,2	1,295
1097,6	3,867
1098	3,895
1098,4	7,667
1098,8	4,867
1099,2	6,295
1099,6	9,01
1100,1	8,21
1100,5	4,81
1100,9	7,438
1101,3	5,41
1101,7	8,924
1102,1	13,095
1102,5	6,838
1102,9	4,724
1103,3	5,952
1103,7	0,667
1104,2	3,181
1104,6	4,181
1105	3,21
1105,4	5,552
1105,8	6,238
1106,2	4,524
1106,6	6,667
1107	3,867
1107,4	0,867
1107,8	-1,733
1108,3	-0,133
