Data from Subt2_00015.txt Node
Date: Mon Aug 28 13:07:36 MSK 2023
User: vat
Spectrometer: MAYP114033
Trigger mode: 0
Integration Time (sec): 1,000000E0
Scans to average: 5
Electric dark correction enabled: true
Nonlinearity correction enabled: false
Boxcar width: 3
XAxis mode: Wavelengths
Number of Pixels in Spectrum: 2068
>>>>>Begin Spectral Data<<<<<
199,4	-1,117
199,9	0,533
200,4	-0,433
200,8	1,39
201,3	0,533
201,8	3,276
202,2	6,476
202,7	8,876
203,2	8,505
203,6	8,248
204,1	6,219
204,6	8,905
205	8,39
205,5	8,79
206	6,762
206,4	9,505
206,9	12,476
207,4	15,333
207,8	14,762
208,3	16,162
208,8	16,619
209,2	22,333
209,7	19,876
210,2	13,333
210,6	11,819
211,1	9,162
211,5	10,733
212	7,99
212,5	5,39
212,9	6,276
213,4	12,448
213,9	12,562
214,3	13,533
214,8	10,333
215,3	10,248
215,7	9,619
216,2	7,276
216,7	7,59
217,1	8,19
217,6	9,248
218,1	7,39
218,5	5,448
219	7,79
219,5	10,79
219,9	12,076
220,4	10,562
220,9	12,848
221,3	15,505
221,8	20,39
222,3	20,048
222,7	17,933
223,2	14,676
223,6	18,676
224,1	17,39
224,6	11,676
225	9,19
225,5	6,819
226	5,448
226,4	9,019
226,9	5,162
227,4	6,133
227,8	14,848
228,3	13,733
228,8	14,076
229,2	19,676
229,7	17,048
230,2	14,933
230,6	13,705
231,1	12,105
231,5	11,819
232	12,619
232,5	8,248
232,9	6,99
233,4	12,39
233,9	10,476
234,3	6,705
234,8	8,533
235,3	2,99
235,7	3,048
236,2	2,333
236,7	-0,695
237,1	8,333
237,6	9,848
238,1	8,905
238,5	14,933
239	16,79
239,4	21,99
239,9	26,848
240,4	17,048
240,8	16,876
241,3	19,019
241,8	14,99
242,2	15,276
242,7	14,419
243,2	9,962
243,6	16,448
244,1	16,59
244,6	11,648
245	14,019
245,5	13,99
245,9	10,533
246,4	7,99
246,9	7,562
247,3	9,648
247,8	11,048
248,3	13,705
248,7	16,419
249,2	17,562
249,7	23,476
250,1	20,733
250,6	16,162
251	13,105
251,5	14,305
252	9,448
252,4	11,105
252,9	4,819
253,4	7,762
253,8	10,819
254,3	13,19
254,8	11,99
255,2	13,819
255,7	12,962
256,1	17,876
256,6	16,648
257,1	18,762
257,5	21,962
258	16,848
258,5	14,276
258,9	19,419
259,4	20,333
259,9	15,933
260,3	10,162
260,8	8,819
261,2	11,533
261,7	15,876
262,2	9,39
262,6	5,019
263,1	6,276
263,6	8,933
264	10,048
264,5	8,876
264,9	8,962
265,4	10,248
265,9	13,705
266,3	17,305
266,8	17,276
267,3	15,39
267,7	13,79
268,2	11,819
268,7	11,59
269,1	10,076
269,6	10,076
270	10,533
270,5	11,305
271	13,476
271,4	11,933
271,9	19,048
272,4	22,219
272,8	23,962
273,3	24,505
273,7	22,133
274,2	23,79
274,7	18,905
275,1	11,962
275,6	11,79
276,1	7,962
276,5	9,905
277	12,905
277,4	10,733
277,9	15,848
278,4	13,162
278,8	10,105
279,3	10,876
279,8	4,305
280,2	0,962
280,7	-0,61
281,1	-0,495
281,6	3,876
282,1	0,219
282,5	0,676
283	4,819
283,4	10,448
283,9	15,79
284,4	19,076
284,8	17,733
285,3	22,59
285,8	20,048
286,2	15,362
286,7	11,59
287,1	9,619
287,6	8,305
288,1	8,819
288,5	11,133
289	14,705
289,5	18,676
289,9	25,648
290,4	28,505
290,8	29,105
291,3	30,076
291,8	30,162
292,2	28,448
292,7	27,762
293,1	24,133
293,6	16,733
294,1	16,076
294,5	10,848
295	6,962
295,5	5,19
295,9	6,676
296,4	3,59
296,8	8,476
297,3	5,619
297,8	4,419
298,2	7,619
298,7	9,676
299,1	9,705
299,6	13,162
300,1	14,19
300,5	11,276
301	17,133
301,5	10,648
301,9	9,333
302,4	8,219
302,8	3,962
303,3	0,962
303,8	3,905
304,2	-2,095
304,7	0,676
305,1	0,105
305,6	0,79
306,1	1,219
306,5	2,79
307	7,533
307,4	11,59
307,9	13,876
308,4	15,305
308,8	16,362
309,3	22,19
309,8	23,562
310,2	20,99
310,7	22,419
311,1	22,333
311,6	24,533
312,1	25,133
312,5	20,533
313	17,619
313,4	19,362
313,9	18,333
314,4	19,905
314,8	14,276
315,3	13,19
315,7	18,133
316,2	18,419
316,7	13,733
317,1	14,219
317,6	10,333
318	14,59
318,5	16,562
319	13,048
319,4	15,476
319,9	19,705
320,3	22,219
320,8	27,448
321,3	25,076
321,7	22,162
322,2	21,876
322,6	16,676
323,1	16,59
323,6	13,162
324	6,848
324,5	7,933
324,9	9,105
325,4	10,305
325,9	14,362
326,3	11,39
326,8	11,19
327,2	14,533
327,7	11,533
328,2	11,39
328,6	8,533
329,1	5,048
329,5	5,533
330	8,219
330,5	8,876
330,9	10,305
331,4	9,648
331,8	15,562
332,3	16,305
332,8	14,276
333,2	10,648
333,7	5,648
334,1	9,476
334,6	8,819
335,1	6,276
335,5	7,562
336	9,676
336,4	14,076
336,9	18,105
337,4	18,79
337,8	21,448
338,3	17,048
338,7	16,733
339,2	18,305
339,7	18,619
340,1	14,048
340,6	9,076
341	6,905
341,5	8,505
342	9,676
342,4	12,962
342,9	9,59
343,3	12,419
343,8	14,105
344,2	15,219
344,7	20,476
345,2	19,733
345,6	17,762
346,1	19,962
346,5	18,362
347	19,962
347,5	17,39
347,9	11,048
348,4	11,99
348,8	8,162
349,3	8,562
349,8	11,905
350,2	11,276
350,7	12,962
351,1	15,019
351,6	18,562
352	23,305
352,5	28,162
353	30,876
353,4	38,705
353,9	46,19
354,3	56,533
354,8	64,333
355,3	73,619
355,7	79,619
356,2	93,505
356,6	109,933
357,1	129,276
357,5	151,99
358	173,562
358,5	202,648
358,9	240,419
359,4	282,133
359,8	323,59
360,3	371,962
360,8	419,333
361,2	480,819
361,7	545,676
362,1	608,762
362,6	682,905
363	756,448
363,5	842,276
364	933,705
364,4	1023,248
364,9	1111,276
365,3	1202,276
365,8	1289,333
366,3	1372,933
366,7	1441,476
367,2	1502,762
367,6	1551,733
368,1	1591,705
368,5	1622,133
369	1633,048
369,5	1629,619
369,9	1619,733
370,4	1595,019
370,8	1563,362
371,3	1518,39
371,7	1459,79
372,2	1399,419
372,7	1337,533
373,1	1265,048
373,6	1191,99
374	1111,99
374,5	1040,276
374,9	971,705
375,4	898,048
375,9	828,59
376,3	765,19
376,8	705,962
377,2	652,305
377,7	601,905
378,2	555,619
378,6	512,048
379,1	470,848
379,5	430,876
380	397,305
380,4	367,59
380,9	336,276
381,4	308,505
381,8	288,076
382,3	268,076
382,7	250,133
383,2	230,076
383,6	215,19
384,1	204,219
384,6	192,105
385	180,848
385,5	170,305
385,9	161,105
386,4	154,99
386,8	142,562
387,3	130,762
387,7	124,733
388,2	116,105
388,7	107,762
389,1	96,305
389,6	91,419
390	92,905
390,5	88,933
390,9	82,19
391,4	73,219
391,9	74,39
392,3	81,448
392,8	79,162
393,2	73,248
393,7	67,533
394,1	62,305
394,6	60,448
395,1	55,19
395,5	48,648
396	42,733
396,4	38,79
396,9	37,819
397,3	39,019
397,8	35,962
398,2	34,705
398,7	37,362
399,2	38,248
399,6	42,048
400,1	44,648
400,5	48,59
401	59,705
401,4	64,762
401,9	60,705
402,4	63,648
402,8	63,248
403,3	68,305
403,7	65,162
404,2	60,076
404,6	57,133
405,1	58,59
405,5	57,133
406	58,962
406,5	56,762
406,9	63,59
407,4	71,819
407,8	79,619
408,3	86,448
408,7	92,39
409,2	95,819
409,6	103,219
410,1	107,876
410,6	116,99
411	119,962
411,5	127,705
411,9	138,99
412,4	152,076
412,8	161,562
413,3	173,648
413,7	182,476
414,2	193,362
414,7	205,19
415,1	214,362
415,6	224,448
416	238,305
416,5	250,619
416,9	266,19
417,4	286,019
417,8	299,848
418,3	317,533
418,8	338,019
419,2	358,105
419,7	378,448
420,1	396,39
420,6	411,476
421	437,962
421,5	463,076
421,9	488,99
422,4	517,105
422,8	543,876
423,3	567,162
423,8	600,676
424,2	633,276
424,7	663,848
425,1	695,362
425,6	729,019
426	765,962
426,5	806,733
426,9	849,676
427,4	889,162
427,9	942,248
428,3	994,876
428,8	1045,19
429,2	1095,99
429,7	1155,705
430,1	1215,59
430,6	1279,048
431	1342,562
431,5	1408,39
431,9	1478,648
432,4	1556,905
432,8	1635,419
433,3	1721,419
433,8	1815,733
434,2	1904,162
434,7	1995,419
435,1	2096,79
435,6	2201,79
436	2314,79
436,5	2429,19
436,9	2547,162
437,4	2675,876
437,8	2805,419
438,3	2941,133
438,8	3083,505
439,2	3227,162
439,7	3375,219
440,1	3526,39
440,6	3686,048
441	3854,676
441,5	4021,762
441,9	4194,819
442,4	4372,648
442,8	4565,99
443,3	4762,876
443,7	4959,362
444,2	5166,99
444,7	5391,133
445,1	5614,733
445,6	5850,876
446	6085,362
446,5	6328,848
446,9	6581,305
447,4	6838,419
447,8	7084,59
448,3	7344,762
448,7	7605,133
449,2	7873,133
449,6	8141,99
450,1	8419,962
450,6	8711,59
451	9008,162
451,5	9315,79
451,9	9627,705
452,4	9939,533
452,8	10266,362
453,3	10588,248
453,7	10917,99
454,2	11260,533
454,6	11596,848
455,1	11942,876
455,5	12292,533
456	12639,133
456,4	13004,562
456,9	13367,419
457,3	13738,505
457,8	14111,676
458,3	14491,076
458,7	14871,99
459,2	15257,648
459,6	15634,333
460,1	16023,276
460,5	16407,076
461	16790,505
461,4	17177,59
461,9	17566,79
462,3	17961,848
462,8	18363,333
463,2	18749,476
463,7	19130,733
464,1	19518,819
464,6	19890,819
465	20270,905
465,5	20653,305
466	21033,562
466,4	21415,305
466,9	21802,533
467,3	22180,305
467,8	22566,276
468,2	22941,59
468,7	23308,162
469,1	23671,248
469,6	24038,476
470	24402,333
470,5	24760,219
470,9	25104,762
471,4	25466,076
471,8	25801,79
472,3	26136,076
472,7	26448,476
473,2	26770,505
473,6	27089,876
474,1	27407,705
474,5	27716,333
475	28030,133
475,4	28326,019
475,9	28624,419
476,4	28911,819
476,8	29186,962
477,3	29459,105
477,7	29706,59
478,2	29940,59
478,6	30176,848
479,1	30397,105
479,5	30612,162
480	30819,733
480,4	31004,705
480,9	31180,933
481,3	31363,39
481,8	31539,048
482,2	31702,333
482,7	31850,076
483,1	31988,39
483,6	32138,648
484	32270,762
484,5	32388,562
484,9	32487,933
485,4	32576,219
485,8	32649,619
486,3	32737,419
486,7	32802,162
487,2	32850,019
487,6	32892,705
488,1	32922,476
488,5	32974,505
489	33013,79
489,4	33010,676
489,9	32999,362
490,4	33000,448
490,8	32990,619
491,3	32974,162
491,7	32916,333
492,2	32871,19
492,6	32811,076
493,1	32740,219
493,5	32667,305
494	32592,505
494,4	32498,448
494,9	32408,933
495,3	32293,133
495,8	32212,819
496,2	32122,505
496,7	32014,533
497,1	31887,505
497,6	31777,076
498	31664,048
498,5	31535,219
498,9	31390,733
499,4	31253,448
499,8	31110,248
500,3	30969,848
500,7	30814,248
501,2	30645,105
501,6	30496,533
502,1	30329,876
502,5	30159,733
503	29998,99
503,4	29825,99
503,9	29638,533
504,3	29467,105
504,8	29262,505
505,2	29068,79
505,7	28868,048
506,1	28646,305
506,6	28426,876
507	28217,162
507,5	27992,59
507,9	27787,219
508,4	27572,276
508,8	27339,505
509,3	27113,305
509,7	26894,705
510,2	26672,848
510,6	26452,105
511,1	26227,619
511,5	25996,79
512	25780,533
512,4	25547,362
512,9	25314,076
513,3	25081,476
513,8	24846,79
514,2	24605,419
514,7	24376,048
515,1	24134,333
515,6	23913,105
516	23671,705
516,5	23435,819
516,9	23186,962
517,4	22949,305
517,8	22712,905
518,3	22488,162
518,7	22248,305
519,2	22022,733
519,6	21787,276
520,1	21571,39
520,5	21338,933
521	21094,933
521,4	20860,162
521,9	20623,219
522,3	20388,248
522,8	20169,79
523,2	19943,705
523,7	19733,619
524,1	19517,933
524,6	19287,533
525	19085,219
525,5	18875,848
525,9	18662,762
526,4	18455,019
526,8	18236,705
527,3	18037,79
527,7	17837,248
528,2	17630,562
528,6	17438,476
529,1	17241,333
529,5	17038,162
530	16855,848
530,4	16658,419
530,9	16465,59
531,3	16277,848
531,8	16091,19
532,2	15907,305
532,6	15723,79
533,1	15523,533
533,5	15342,562
534	15167,048
534,4	14997,305
534,9	14818,333
535,3	14654,133
535,8	14489,533
536,2	14333,933
536,7	14170,19
537,1	14003,79
537,6	13833,19
538	13674,848
538,5	13507,705
538,9	13347,59
539,4	13198,705
539,8	13053,133
540,3	12917,162
540,7	12770,705
541,2	12627,819
541,6	12486,848
542,1	12358,333
542,5	12209,162
543	12070,448
543,4	11922,476
543,9	11799,19
544,3	11665,019
544,8	11532,619
545,2	11395,133
545,7	11282,39
546,1	11153,733
546,5	11035,876
547	10904,362
547,4	10780,362
547,9	10669,105
548,3	10552,448
548,8	10429,933
549,2	10321,533
549,7	10217,19
550,1	10104,99
550,6	10004,076
551	9894,79
551,5	9783,476
551,9	9683,419
552,4	9576,619
552,8	9483,733
553,3	9387,876
553,7	9294,648
554,2	9200,448
554,6	9114,933
555,1	9016,819
555,5	8924,848
555,9	8829,219
556,4	8739,19
556,8	8646,276
557,3	8557,476
557,7	8467,562
558,2	8382,762
558,6	8305,533
559,1	8226,305
559,5	8147,905
560	8062,333
560,4	7973,933
560,9	7899,819
561,3	7831,848
561,8	7747,876
562,2	7663,105
562,7	7585,819
563,1	7520,333
563,6	7459,448
564	7391,79
564,4	7318,019
564,9	7252,676
565,3	7183,19
565,8	7118,533
566,2	7047,733
566,7	6977,59
567,1	6910,619
567,6	6838,99
568	6776,533
568,5	6718,333
568,9	6651,333
569,4	6591,562
569,8	6529,876
570,3	6464,248
570,7	6413,276
571,1	6360,733
571,6	6299,705
572	6257,676
572,5	6194,848
572,9	6143,048
573,4	6094,448
573,8	6035,076
574,3	5974,219
574,7	5927,819
575,2	5868,762
575,6	5818,819
576,1	5764,648
576,5	5711,819
576,9	5655,333
577,4	5609,648
577,8	5552,248
578,3	5501,019
578,7	5451,39
579,2	5404,619
579,6	5355,105
580,1	5320,476
580,5	5273,962
581	5229,933
581,4	5187,305
581,9	5149,105
582,3	5104,848
582,7	5060,076
583,2	5009,562
583,6	4954,076
584,1	4913,933
584,5	4867,333
585	4824,876
585,4	4782,076
585,9	4742,762
586,3	4706,276
586,8	4675,362
587,2	4635,933
587,6	4600,305
588,1	4567,362
588,5	4524,105
589	4485,648
589,4	4441,419
589,9	4405,305
590,3	4365,276
590,8	4333,819
591,2	4296,105
591,7	4267,076
592,1	4238,39
592,5	4205,933
593	4181,876
593,4	4154,648
593,9	4120,533
594,3	4086,962
594,8	4061,99
595,2	4034,419
595,7	4013,762
596,1	3982,219
596,6	3955,333
597	3931,962
597,4	3904,162
597,9	3878,562
598,3	3848,933
598,8	3821,648
599,2	3791,39
599,7	3771,133
600,1	3740,562
600,6	3711,305
601	3684,705
601,4	3658,79
601,9	3632,733
602,3	3612,305
602,8	3574,762
603,2	3545,99
603,7	3522,79
604,1	3497,476
604,6	3474,333
605	3448,448
605,4	3414,505
605,9	3393,105
606,3	3374,133
606,8	3354,162
607,2	3327,162
607,7	3298,733
608,1	3275,133
608,6	3256,619
609	3234,133
609,4	3209,362
609,9	3184,79
610,3	3160,533
610,8	3139,819
611,2	3116,619
611,7	3088,876
612,1	3068,19
612,6	3041,533
613	3012,105
613,4	2991,705
613,9	2968,448
614,3	2947,248
614,8	2928,533
615,2	2912,048
615,7	2895,276
616,1	2882,305
616,6	2861,676
617	2845,019
617,4	2826,99
617,9	2805,476
618,3	2782,762
618,8	2763,533
619,2	2743,248
619,7	2717,248
620,1	2701,105
620,5	2677,733
621	2662,99
621,4	2646,162
621,9	2621,362
622,3	2608,733
622,8	2596,505
623,2	2578,648
623,6	2564,848
624,1	2542,305
624,5	2520,533
625	2504,105
625,4	2482,79
625,9	2465,733
626,3	2442,219
626,8	2422,248
627,2	2408,676
627,6	2391,048
628,1	2380,848
628,5	2358,362
629	2336,733
629,4	2321,248
629,9	2303,876
630,3	2281,562
630,7	2267,905
631,2	2248,19
631,6	2229,39
632,1	2217,133
632,5	2197,933
633	2180,619
633,4	2171,19
633,8	2150,219
634,3	2128,419
634,7	2112,933
635,2	2093,162
635,6	2079,562
636,1	2061,39
636,5	2048,648
636,9	2034,933
637,4	2025,333
637,8	2016,305
638,3	2006,533
638,7	1991,676
639,2	1977,39
639,6	1953,619
640	1940,476
640,5	1928,276
640,9	1919,219
641,4	1908,39
641,8	1891,705
642,2	1883,105
642,7	1875,276
643,1	1861,076
643,6	1849,705
644	1835,276
644,5	1826,419
644,9	1819,562
645,3	1810,448
645,8	1797,19
646,2	1786,876
646,7	1767,819
647,1	1745,876
647,6	1727,019
648	1711,39
648,4	1696,733
648,9	1686,733
649,3	1672,648
649,8	1665,819
650,2	1662,419
650,6	1655,648
651,1	1648,333
651,5	1633,962
652	1623,133
652,4	1616,533
652,9	1602,59
653,3	1584,933
653,7	1566,705
654,2	1557,762
654,6	1549,048
655,1	1536,076
655,5	1527,39
655,9	1516,79
656,4	1509,705
656,8	1500,105
657,3	1488,59
657,7	1477,219
658,2	1469,476
658,6	1456,733
659	1452,762
659,5	1444,762
659,9	1436,876
660,4	1425,248
660,8	1414,648
661,2	1399,59
661,7	1391,019
662,1	1382,933
662,6	1375,648
663	1362,476
663,4	1354,533
663,9	1346,419
664,3	1334,59
664,8	1320,419
665,2	1307,905
665,6	1294,79
666,1	1287,848
666,5	1275,105
667	1262,962
667,4	1260,933
667,9	1253,533
668,3	1240,819
668,7	1230,19
669,2	1220,076
669,6	1207,476
670,1	1199,876
670,5	1190,305
670,9	1182,305
671,4	1171,448
671,8	1164,248
672,3	1156,19
672,7	1155,676
673,1	1150,962
673,6	1144,276
674	1135,619
674,5	1128,448
674,9	1120,133
675,3	1116,19
675,8	1103,019
676,2	1090,505
676,7	1083,39
677,1	1074,733
677,5	1067,248
678	1060,848
678,4	1051,162
678,9	1048,819
679,3	1043,876
679,7	1034,133
680,2	1029,019
680,6	1021,39
681,1	1012,19
681,5	1004,305
681,9	991,276
682,4	987,276
682,8	981,105
683,3	976,533
683,7	970,905
684,1	962,962
684,6	955,162
685	947,819
685,5	929,305
685,9	918,305
686,3	909,419
686,8	906,305
687,2	900,505
687,7	895,048
688,1	890,333
688,5	891,533
689	888,819
689,4	875,533
689,9	869,019
690,3	866,448
690,7	863,676
691,2	859,305
691,6	855,19
692	845,876
692,5	842,219
692,9	834,876
693,4	829,076
693,8	820,419
694,2	809,733
694,7	802,219
695,1	800,905
695,6	796,448
696	789,733
696,4	780,962
696,9	772,419
697,3	774,419
697,8	768,533
698,2	756,562
698,6	752,59
699,1	747,79
699,5	741,362
699,9	736,019
700,4	731,305
700,8	726,505
701,3	725,476
701,7	715,762
702,1	712,933
702,6	706,562
703	703,562
703,5	692,533
703,9	689,39
704,3	681,362
704,8	681,99
705,2	677,505
705,6	675,648
706,1	666,905
706,5	664,648
707	660,105
707,4	664,533
707,8	661,476
708,3	652,962
708,7	649,19
709,2	650,733
709,6	645,676
710	640,848
710,5	627,762
710,9	622,819
711,3	617,733
711,8	609,448
712,2	603,79
712,7	595,048
713,1	588,762
713,5	588,733
714	578,876
714,4	576,79
714,8	574,448
715,3	571,733
715,7	569,905
716,2	569,505
716,6	561,505
717	560,648
717,5	557,476
717,9	551,905
718,3	549,019
718,8	547,762
719,2	537,762
719,7	533,905
720,1	527,162
720,5	523,362
721	520,619
721,4	513,59
721,8	507,076
722,3	503,648
722,7	499,248
723,2	499,305
723,6	495,419
724	491,562
724,5	487,476
724,9	482,676
725,3	479,39
725,8	477,133
726,2	467,276
726,7	461,733
727,1	454,99
727,5	450,048
728	441,705
728,4	440,619
728,8	439,076
729,3	439,19
729,7	432,905
730,1	436,162
730,6	435,476
731	437,276
731,5	433,705
731,9	431,448
732,3	434,105
732,8	434,733
733,2	430,305
733,6	427,333
734,1	425,162
734,5	423,505
734,9	410,79
735,4	405,648
735,8	401,076
736,3	390,905
736,7	388,476
737,1	386,962
737,6	380,276
738	387,619
738,4	386,105
738,9	386,648
739,3	393,248
739,7	393,533
740,2	394,39
740,6	395,048
741,1	390,99
741,5	383,705
741,9	378,933
742,4	380,305
742,8	375,905
743,2	371,99
743,7	370,419
744,1	371,99
744,5	373,133
745	370,876
745,4	364,305
745,8	360,276
746,3	359,39
746,7	355,105
747,2	346,162
747,6	343,505
748	344,819
748,5	344,133
748,9	340,048
749,3	336,819
749,8	335,505
750,2	333,619
750,6	331,076
751,1	325,476
751,5	323,962
751,9	322,505
752,4	323,848
752,8	322,819
753,3	320,448
753,7	318,248
754,1	317,705
754,6	311,733
755	310,533
755,4	309,276
755,9	309,219
756,3	313,19
756,7	311,219
757,2	305,905
757,6	304,533
758	303,076
758,5	293,019
758,9	290,162
759,3	287,105
759,8	283,848
760,2	285,933
760,6	289,305
761,1	286,819
761,5	290,619
761,9	288,619
762,4	286,762
762,8	289,019
763,3	285,276
763,7	282,476
764,1	280,019
764,6	274,333
765	273,362
765,4	270,848
765,9	268,333
766,3	267,248
766,7	262,162
767,2	261,762
767,6	264,933
768	256,876
768,5	254,333
768,9	250,39
769,3	250,762
769,8	245,048
770,2	243,933
770,6	238,762
771,1	241,705
771,5	239,819
771,9	238,619
772,4	236,419
772,8	234,019
773,2	235,676
773,7	231,248
774,1	234,276
774,5	233,39
775	233,333
775,4	232,848
775,8	236,105
776,3	231,705
776,7	232,819
777,1	228,19
777,6	223,362
778	222,619
778,4	218,162
778,9	218,048
779,3	217,248
779,7	218,848
780,2	215,676
780,6	220,448
781	215,676
781,5	216,99
781,9	215,505
782,3	212,676
782,8	208,019
783,2	204,819
783,6	201,305
784,1	201,333
784,5	200,39
784,9	195,705
785,4	194,619
785,8	194,562
786,2	194,762
786,7	190,562
787,1	195,162
787,5	189,219
788	188,619
788,4	190,476
788,8	189,819
789,3	191,305
789,7	191,219
790,1	185,962
790,6	187,505
791	189,276
791,4	187,162
791,9	181,99
792,3	179,305
792,7	182,076
793,2	182,733
793,6	184,619
794	183,248
794,5	180,848
794,9	181,162
795,3	181,876
795,8	180,476
796,2	171,533
796,6	169,105
797,1	168,79
797,5	164,733
797,9	167,048
798,4	166,362
798,8	163,048
799,2	169,048
799,7	162,79
800,1	160,79
800,5	164,619
801	166,133
801,4	162,819
801,8	161,448
802,2	156,676
802,7	156,933
803,1	156,476
803,5	155,019
804	147,819
804,4	148,533
804,8	148,076
805,3	145,905
805,7	148,533
806,1	143,448
806,6	141,219
807	144,105
807,4	141,762
807,9	139,876
808,3	140,99
808,7	141,762
809,2	143,39
809,6	143,448
810	143,476
810,4	141,676
810,9	142,762
811,3	140,876
811,7	136,362
812,2	134,305
812,6	132,019
813	132,505
813,5	132,648
813,9	129,619
814,3	127,076
814,8	127,505
815,2	127,419
815,6	125,362
816,1	121,019
816,5	120,733
816,9	121,305
817,3	122,848
817,8	120,59
818,2	121,048
818,6	123,048
819,1	120,648
819,5	117,362
819,9	117,333
820,4	120,676
820,8	119,362
821,2	116,762
821,7	114,59
822,1	113,105
822,5	117,619
822,9	115,133
823,4	108,705
823,8	109,19
824,2	108,848
824,7	105,648
825,1	104,133
825,5	98,448
826	95,048
826,4	97,305
826,8	96,59
827,3	96,562
827,7	99,733
828,1	102,848
828,5	106,305
829	107,59
829,4	101,905
829,8	102,448
830,3	98,762
830,7	90,533
831,1	88,476
831,6	85,276
832	84,962
832,4	88,619
832,8	84,733
833,3	84,933
833,7	86,762
834,1	88,676
834,6	88,105
835	88,79
835,4	83,619
835,8	89,333
836,3	85,419
836,7	88,276
837,1	83,505
837,6	80,333
838	76,105
838,4	78,705
838,9	73,448
839,3	79,39
839,7	78,248
840,1	81,59
840,6	84,105
841	84,133
841,4	80,733
841,9	80,533
842,3	74,933
842,7	74,076
843,1	71,333
843,6	68,19
844	72,019
844,4	76,39
844,9	74,105
845,3	77,905
845,7	78,419
846,2	80,79
846,6	80,362
847	78,562
847,4	80,533
847,9	78,676
848,3	73,733
848,7	68,39
849,2	64,448
849,6	64,876
850	63,505
850,4	58,705
850,9	60,619
851,3	65,219
851,7	69,962
852,2	65,419
852,6	66,333
853	68,762
853,4	67,905
853,9	67,676
854,3	64,219
854,7	63,248
855,2	71,448
855,6	69,905
856	71,048
856,4	70,19
856,9	67,79
857,3	64,705
857,7	64,39
858,2	56,676
858,6	53,562
859	49,362
859,4	51,248
859,9	52,962
860,3	49,79
860,7	46,105
861,1	50,533
861,6	57,105
862	56,705
862,4	52,99
862,9	53,448
863,3	58,99
863,7	60,79
864,1	59,105
864,6	55,419
865	54,105
865,4	56,276
865,9	57,59
866,3	59,705
866,7	58,562
867,1	57,648
867,6	59,59
868	57,333
868,4	55,39
868,8	52,019
869,3	49,905
869,7	52,505
870,1	56,105
870,6	53,105
871	95,619
871,4	97,762
871,8	98,79
872,3	97,59
872,7	91,476
873,1	85,79
873,5	82,476
874	43,733
874,4	42,705
874,8	43,162
875,3	43,79
875,7	45,99
876,1	47,333
876,5	48,619
877	46,219
877,4	45,905
877,8	41,733
878,2	43,99
878,7	44,848
879,1	43,476
879,5	40,933
879,9	39,019
880,4	35,705
880,8	43,248
881,2	39,105
881,7	40,333
882,1	40,79
882,5	43,59
882,9	43,648
883,4	45,048
883,8	36,476
884,2	36,076
884,6	33,733
885,1	33,676
885,5	32,905
885,9	34,19
886,3	34,648
886,8	40,99
887,2	37,733
887,6	38,562
888	36,848
888,5	35,333
888,9	32,019
889,3	33,19
889,8	29,476
890,2	31,105
890,6	32,19
891	34,933
891,5	39,533
891,9	37,448
892,3	35,505
892,7	31,362
893,2	33,105
893,6	31,048
894	26,876
894,4	18,333
894,9	23,648
895,3	22,648
895,7	25,019
896,1	20,876
896,6	21,19
897	25,933
897,4	31,705
897,8	35,276
898,3	36,533
898,7	37,848
899,1	44,333
899,5	44,39
900	37,705
900,4	34,019
900,8	20,819
901,2	18,733
901,7	19,619
902,1	16,848
902,5	14,79
902,9	17,476
903,4	21,276
903,8	24,133
904,2	26,248
904,6	23,105
905,1	24,105
905,5	26,105
905,9	26,59
906,3	24,533
906,8	25,876
907,2	25,905
907,6	26,448
908	25,333
908,5	22,048
908,9	24,105
909,3	21,476
909,7	24,105
910,2	21,333
910,6	20,676
911	25,19
911,4	28,705
911,9	27,448
912,3	29,705
912,7	28,619
913,1	27,333
913,6	27,79
914	26,962
914,4	22,048
914,8	22,99
915,3	22,59
915,7	25,648
916,1	28,333
916,5	25,505
916,9	17,476
917,4	20,39
917,8	12,79
918,2	17,39
918,6	10,762
919,1	10,79
919,5	16,905
919,9	21,876
920,3	23,076
920,8	31,79
921,2	26,676
921,6	30,619
922	28,133
922,5	26,705
922,9	29,419
923,3	31,705
923,7	25,248
924,2	27,105
924,6	25,962
925	28,876
925,4	29,733
925,8	29,019
926,3	23,876
926,7	23,905
927,1	22,448
927,5	27,99
928	25,048
928,4	19,848
928,8	14,79
929,2	15,505
929,7	21,648
930,1	18,276
930,5	12,848
930,9	15,505
931,3	21,105
931,8	24,448
932,2	23,533
932,6	21,39
933	22,162
933,5	26,305
933,9	25,848
934,3	19,648
934,7	17,39
935,2	16,276
935,6	12,419
936	11,762
936,4	11,162
936,8	11,448
937,3	16,79
937,7	15,876
938,1	20,419
938,5	22,99
939	27,533
939,4	27,819
939,8	25,505
940,2	23,019
940,6	23,762
941,1	21,305
941,5	23,162
941,9	19,905
942,3	19,076
942,8	22,562
943,2	15,676
943,6	16,962
944	15,276
944,4	10,019
944,9	9,648
945,3	9,819
945,7	9,305
946,1	13,448
946,6	9,248
947	12,505
947,4	12,276
947,8	13,905
948,2	13,476
948,7	9,39
949,1	12,505
949,5	13,076
949,9	12,79
950,3	12,762
950,8	11,848
951,2	8,276
951,6	10,19
952	9,619
952,5	6,562
952,9	2,333
953,3	5,305
953,7	3,848
954,1	7,333
954,6	7,848
955	9,162
955,4	15,305
955,8	20,048
956,2	18,962
956,7	21,819
957,1	21,019
957,5	23,248
957,9	23,362
958,3	24,019
958,8	26,962
959,2	25,19
959,6	30,19
960	27,59
960,5	22,648
960,9	21,99
961,3	17,505
961,7	14,619
962,1	17,19
962,6	12,733
963	11,848
963,4	14,819
963,8	9,962
964,2	8,819
964,7	7,819
965,1	13,533
965,5	13,733
965,9	13,962
966,3	13,333
966,8	17,533
967,2	21,39
967,6	18,59
968	13,162
968,4	14,819
968,9	14,99
969,3	13,533
969,7	7,733
970,1	7,39
970,5	8,133
971	9,019
971,4	4,848
971,8	5,79
972,2	6,276
972,6	9,219
973,1	9,848
973,5	10,133
973,9	4,019
974,3	5,19
974,7	4,248
975,2	4,819
975,6	6,79
976	4,933
976,4	2,59
976,8	8,362
977,3	6,448
977,7	9,019
978,1	9,248
978,5	10,305
978,9	13,448
979,4	15,933
979,8	14,219
980,2	15,133
980,6	16,905
981	11,962
981,5	7,105
981,9	5,39
982,3	4,419
982,7	5,905
983,1	6,133
983,6	5,733
984	12,876
984,4	10,79
984,8	9,848
985,2	14,505
985,6	14,076
986,1	10,219
986,5	9,705
986,9	6,705
987,3	7,676
987,7	10,048
988,2	5,276
988,6	0,076
989	5,333
989,4	6,333
989,8	4,105
990,3	8,819
990,7	7,733
991,1	6,048
991,5	9,362
991,9	5,619
992,3	-2,895
992,8	-2,924
993,2	-4,552
993,6	-7,067
994	-8,895
994,4	-3,981
994,9	-3,867
995,3	4,59
995,7	3,99
996,1	4,105
996,5	4,133
996,9	15,39
997,4	10,276
997,8	10,505
998,2	6,79
998,6	9,048
999	7,962
999,5	11,133
999,9	4,362
1000,3	5,362
1000,7	8,219
1001,1	6,476
1001,5	6,705
1002	9,676
1002,4	9,705
1002,8	10,762
1003,2	7,762
1003,6	5,762
1004	9,248
1004,5	5,248
1004,9	4,933
1005,3	4,476
1005,7	5,019
1006,1	5,848
1006,6	8,676
1007	4,305
1007,4	5,162
1007,8	4,219
1008,2	6,019
1008,6	7,219
1009,1	8,819
1009,5	10,476
1009,9	14,305
1010,3	20,59
1010,7	23,276
1011,1	20,762
1011,6	19,705
1012	20,619
1012,4	17,39
1012,8	12,933
1013,2	8,733
1013,6	5,933
1014,1	2,733
1014,5	3,39
1014,9	3,076
1015,3	-0,067
1015,7	3,419
1016,1	3,705
1016,6	6,876
1017	11,79
1017,4	7,219
1017,8	10,819
1018,2	12,733
1018,6	13,905
1019,1	15,276
1019,5	13,419
1019,9	12,733
1020,3	16,248
1020,7	13,076
1021,1	11,305
1021,6	10,448
1022	11,733
1022,4	10,419
1022,8	6,99
1023,2	3,219
1023,6	4,076
1024,1	7,933
1024,5	10,962
1024,9	11,648
1025,3	16,133
1025,7	17,048
1026,1	13,333
1026,6	14,362
1027	11,562
1027,4	8,162
1027,8	5,476
1028,2	4,762
1028,6	2,562
1029	6,819
1029,5	3,39
1029,9	6,39
1030,3	2,933
1030,7	6,733
1031,1	6,99
1031,5	11,476
1032	14,133
1032,4	16,99
1032,8	15,105
1033,2	21,162
1033,6	17,562
1034	12,876
1034,4	12,533
1034,9	20,076
1035,3	20,105
1035,7	18,933
1036,1	21,676
1036,5	21,276
1036,9	21,733
1037,4	22,705
1037,8	14,076
1038,2	14,848
1038,6	16,276
1039	14,533
1039,4	17,876
1039,8	26,39
1040,3	23,619
1040,7	24,99
1041,1	19,59
1041,5	25,79
1041,9	25,276
1042,3	19,905
1042,7	11,133
1043,2	13,19
1043,6	18,019
1044	22,533
1044,4	18,562
1044,8	17,076
1045,2	18,762
1045,6	25,533
1046,1	26,448
1046,5	21,048
1046,9	23,076
1047,3	21,733
1047,7	19,619
1048,1	19,39
1048,5	16,419
1049	13,419
1049,4	8,619
1049,8	6,533
1050,2	7,019
1050,6	1,876
1051	6,648
1051,4	3,248
1051,9	3,219
1052,3	7,048
1052,7	5,99
1053,1	4,048
1053,5	5,848
1053,9	3,848
1054,3	-2,724
1054,8	-3,095
1055,2	-3,238
1055,6	1,019
1056	4,848
1056,4	9,105
1056,8	16,705
1057,2	20,276
1057,6	25,705
1058,1	27,905
1058,5	21,39
1058,9	15,933
1059,3	14,248
1059,7	4,505
1060,1	9,705
1060,5	4,762
1061	4,448
1061,4	5,333
1061,8	8,762
1062,2	11,048
1062,6	8,133
1063	6,419
1063,4	7,876
1063,8	6,676
1064,3	11,019
1064,7	12,476
1065,1	11,39
1065,5	18,076
1065,9	17,933
1066,3	15,819
1066,7	18,219
1067,1	15,59
1067,6	19,276
1068	22,248
1068,4	21,705
1068,8	21,19
1069,2	26,648
1069,6	26,848
1070	27,076
1070,4	22,305
1070,9	23,562
1071,3	23,39
1071,7	21,819
1072,1	15,048
1072,5	14,133
1072,9	14,048
1073,3	15,162
1073,7	10,79
1074,2	11,019
1074,6	12,676
1075	17,619
1075,4	19,448
1075,8	13,419
1076,2	13,933
1076,6	13,848
1077	11,333
1077,5	16,362
1077,9	12,762
1078,3	7,248
1078,7	13,276
1079,1	13,648
1079,5	11,162
1079,9	15,705
1080,3	11,39
1080,7	14,933
1081,2	14,219
1081,6	12,619
1082	15,419
1082,4	19,019
1082,8	15,933
1083,2	7,619
1083,6	5,99
1084	7,905
1084,5	10,876
1084,9	1,019
1085,3	-2,352
1085,7	-3,552
1086,1	5,848
1086,5	2,076
1086,9	0,933
1087,3	-1,352
1087,7	5,648
1088,2	12,333
1088,6	16,248
1089	14,819
1089,4	20,648
1089,8	25,448
1090,2	24,762
1090,6	18,848
1091	15,848
1091,4	10,133
1091,9	8,39
1092,3	9,162
1092,7	2,676
1093,1	3,476
1093,5	5,876
1093,9	3,676
1094,3	2,99
1094,7	3,933
1095,1	3,933
1095,5	4,648
1096	6,076
1096,4	9,79
1096,8	13,619
1097,2	16,305
1097,6	19,276
1098	16,819
1098,4	21,219
1098,8	17,733
1099,2	15,59
1099,6	14,933
1100,1	13,733
1100,5	11,562
1100,9	9,99
1101,3	7,619
1101,7	11,076
1102,1	10,848
1102,5	7,048
1102,9	6,676
1103,3	5,705
1103,7	8,248
1104,2	6,333
1104,6	3,533
1105	0,305
1105,4	3,59
1105,8	3,676
1106,2	3,505
1106,6	0,305
1107	1,476
1107,4	1,833
1107,8	4,013
1108,3	0,683
