Data from Subt2_00057.txt Node
Date: Mon Aug 28 13:24:01 MSK 2023
User: vat
Spectrometer: MAYP114033
Trigger mode: 0
Integration Time (sec): 1,000000E0
Scans to average: 5
Electric dark correction enabled: true
Nonlinearity correction enabled: false
Boxcar width: 3
XAxis mode: Wavelengths
Number of Pixels in Spectrum: 2068
>>>>>Begin Spectral Data<<<<<
199,4	0,217
199,9	-2,473
200,4	-1,567
200,8	0,11
201,3	2,052
201,8	3,567
202,2	3,71
202,7	3,91
203,2	7,652
203,6	10,881
204,1	7,681
204,6	6,452
205	7,024
205,5	4,967
206	1,252
206,4	0,367
206,9	-1,976
207,4	-2,233
207,8	-3,605
208,3	-6,205
208,8	-5,548
209,2	1,852
209,7	2,995
210,2	3,595
210,6	8,224
211,1	11,824
211,5	7,767
212	9,624
212,5	5,967
212,9	0,995
213,4	-1,576
213,9	-3,862
214,3	-4,405
214,8	0,91
215,3	1,595
215,7	5,652
216,2	9,224
216,7	15,081
217,1	12,538
217,6	11,795
218,1	10,338
218,5	7,681
219	4,71
219,5	8,138
219,9	0,938
220,4	7,281
220,9	4,395
221,3	4,51
221,8	6,024
222,3	7,252
222,7	7,395
223,2	7,367
223,6	3,367
224,1	8,538
224,6	9,024
225	9,138
225,5	3,852
226	-1,633
226,4	2,538
226,9	1,681
227,4	4,452
227,8	5,767
228,3	4,71
228,8	8,481
229,2	13,795
229,7	11,938
230,2	17,567
230,6	7,081
231,1	8,51
231,5	11,11
232	12,967
232,5	8,595
232,9	9,224
233,4	4,795
233,9	9,024
234,3	9,024
234,8	10,11
235,3	4,195
235,7	7,395
236,2	5,567
236,7	1,31
237,1	2,852
237,6	3,281
238,1	1,967
238,5	4,995
239	0,195
239,4	1,252
239,9	8,31
240,4	7,081
240,8	7,624
241,3	5,281
241,8	2,824
242,2	1,338
242,7	0,195
243,2	-0,205
243,6	2,138
244,1	-1,805
244,6	-3,576
245	-0,005
245,5	4,795
245,9	9,338
246,4	8,595
246,9	7,224
247,3	10,481
247,8	12,424
248,3	13,967
248,7	13,567
249,2	11,91
249,7	16,024
250,1	12,167
250,6	12,052
251	14,052
251,5	9,395
252	6,91
252,4	5,138
252,9	2,11
253,4	6,852
253,8	5,595
254,3	4,624
254,8	8,881
255,2	11,367
255,7	12,138
256,1	8,624
256,6	5,51
257,1	5,481
257,5	4,024
258	-2,433
258,5	1,395
258,9	-3,005
259,4	0,281
259,9	-2,433
260,3	-4,033
260,8	-5,433
261,2	3,538
261,7	-4,919
262,2	0,138
262,6	-4,862
263,1	-2,948
263,6	-7,605
264	-2,033
264,5	-5,405
264,9	-1,319
265,4	-2,462
265,9	0,395
266,3	-0,919
266,8	3,824
267,3	2,567
267,7	3,624
268,2	3,195
268,7	3,624
269,1	-0,748
269,6	4,224
270	0,995
270,5	1,052
271	-2,233
271,4	-4,433
271,9	-7,948
272,4	-3,49
272,8	-6,062
273,3	-2,49
273,7	-4,29
274,2	-0,519
274,7	0,738
275,1	4,71
275,6	4,195
276,1	6,138
276,5	5,424
277	6,681
277,4	4,367
277,9	1,11
278,4	1,052
278,8	-1,005
279,3	-0,748
279,8	2,595
280,2	4,052
280,7	5,881
281,1	5,481
281,6	10,51
282,1	12,967
282,5	11,824
283	10,081
283,4	7,595
283,9	4,767
284,4	9,138
284,8	4,224
285,3	0,652
285,8	1,452
286,2	-0,005
286,7	1,252
287,1	2,881
287,6	5,11
288,1	5,595
288,5	7,395
289	8,91
289,5	9,652
289,9	6,31
290,4	5,738
290,8	5,395
291,3	3,881
291,8	1,995
292,2	-0,49
292,7	-1,919
293,1	0,595
293,6	-0,262
294,1	-3,319
294,5	-1,005
295	0,452
295,5	2,224
295,9	5,452
296,4	2,71
296,8	1,71
297,3	4,338
297,8	8,91
298,2	11,795
298,7	10,252
299,1	6,881
299,6	8,224
300,1	7,624
300,5	5,681
301	2,167
301,5	-0,576
301,9	-3,633
302,4	-3,548
302,8	-3,919
303,3	1,567
303,8	4,167
304,2	-0,376
304,7	-2,548
305,1	-2,776
305,6	-3,433
306,1	-7,405
306,5	-17,205
307	-20,033
307,4	-21,719
307,9	-18,633
308,4	-20,176
308,8	-16,633
309,3	-7,433
309,8	-3,205
310,2	-1,148
310,7	0,767
311,1	2,081
311,6	6,624
312,1	4,224
312,5	0,481
313	2,367
313,4	6,11
313,9	5,824
314,4	3,052
314,8	4,367
315,3	4,738
315,7	3,938
316,2	1,652
316,7	-4,69
317,1	-6,633
317,6	-5,833
318	-4,519
318,5	-5,519
319	-4,833
319,4	2,538
319,9	-2,462
320,3	-1,49
320,8	-0,462
321,3	-4,29
321,7	-2,205
322,2	-2,176
322,6	-3,748
323,1	-0,576
323,6	-0,033
324	1,338
324,5	4,281
324,9	8,938
325,4	7,424
325,9	6,624
326,3	9,71
326,8	11,995
327,2	7,652
327,7	1,624
328,2	-0,348
328,6	3,138
329,1	-5,805
329,5	-4,09
330	-4,662
330,5	3,081
330,9	5,595
331,4	1,795
331,8	-2,862
332,3	6,281
332,8	6,11
333,2	7,395
333,7	-0,89
334,1	-4,633
334,6	-5,205
335,1	-0,205
335,5	-4,262
336	-1,605
336,4	0,195
336,9	3,538
337,4	6,852
337,8	7,424
338,3	5,481
338,7	8,081
339,2	1,138
339,7	-2,776
340,1	-6,605
340,6	-5,005
341	-5,29
341,5	-6,69
342	-9,262
342,4	-12,148
342,9	-8,662
343,3	-1,776
343,8	0,881
344,2	2,338
344,7	1,767
345,2	2,224
345,6	9,281
346,1	7,91
346,5	6,652
347	0,567
347,5	2,395
347,9	2,281
348,4	3,024
348,8	0,91
349,3	-1,833
349,8	-3,205
350,2	1,052
350,7	0,024
351,1	2,338
351,6	7,11
352	9,452
352,5	17,338
353	24,767
353,4	31,052
353,9	40,71
354,3	54,567
354,8	59,31
355,3	75,824
355,7	89,595
356,2	102,195
356,6	119,452
357,1	137,824
357,5	156,995
358	189,738
358,5	211,567
358,9	244,338
359,4	284,881
359,8	331,424
360,3	375,767
360,8	432,424
361,2	491,51
361,7	567,224
362,1	640,024
362,6	721,481
363	807,31
363,5	904,395
364	996,881
364,4	1092,795
364,9	1184,91
365,3	1282,481
365,8	1381,281
366,3	1460,167
366,7	1530,51
367,2	1598,31
367,6	1650,31
368,1	1684,252
368,5	1707,452
369	1703,395
369,5	1698,881
369,9	1685,31
370,4	1648,852
370,8	1604,11
371,3	1557,195
371,7	1496,452
372,2	1433,91
372,7	1361,852
373,1	1284,195
373,6	1206,567
374	1131,538
374,5	1053,567
374,9	977,538
375,4	905,91
375,9	840,281
376,3	770,624
376,8	707,052
377,2	651,167
377,7	598,567
378,2	552,081
378,6	507,738
379,1	462,938
379,5	428,938
380	396,852
380,4	363,281
380,9	334,938
381,4	302,652
381,8	273,767
382,3	256,195
382,7	235,738
383,2	214,538
383,6	200,567
384,1	188,538
384,6	177,081
385	168,681
385,5	156,052
385,9	148,395
386,4	140,195
386,8	127,338
387,3	116,71
387,7	108,395
388,2	100,338
388,7	93,395
389,1	87,567
389,6	87,338
390	85,395
390,5	81,11
390,9	77,51
391,4	72,252
391,9	68,367
392,3	63,195
392,8	58,138
393,2	56,481
393,7	55,881
394,1	54,481
394,6	55,138
395,1	58,367
395,5	56,995
396	55,595
396,4	50,595
396,9	44,71
397,3	44,538
397,8	36,395
398,2	28,567
398,7	24,224
399,2	19,767
399,6	15,738
400,1	14,824
400,5	9,824
401	18,91
401,4	17,51
401,9	20,452
402,4	20,195
402,8	27,281
403,3	26,51
403,7	28,881
404,2	24,481
404,6	27,967
405,1	31,681
405,5	35,167
406	35,167
406,5	39,138
406,9	40,624
407,4	40,481
407,8	41,138
408,3	38,195
408,7	33,138
409,2	29,824
409,6	31,824
410,1	36,224
410,6	35,624
411	38,91
411,5	37,367
411,9	40,595
412,4	48,31
412,8	46,595
413,3	42,767
413,7	47,395
414,2	45,167
414,7	47,367
415,1	57,224
415,6	53,367
416	62,024
416,5	72,052
416,9	76,024
417,4	81,738
417,8	89,167
418,3	85,852
418,8	89,91
419,2	85,11
419,7	79,738
420,1	76,052
420,6	80,338
421	85,052
421,5	88,052
421,9	89,767
422,4	94,852
422,8	99,31
423,3	104,31
423,8	99,31
424,2	93,824
424,7	99,081
425,1	95,995
425,6	94,081
426	98,224
426,5	101,195
426,9	102,995
427,4	106,51
427,9	103,252
428,3	110,195
428,8	112,367
429,2	112,595
429,7	113,824
430,1	117,824
430,6	112,824
431	114,852
431,5	112,738
431,9	117,852
432,4	115,881
432,8	119,338
433,3	120,452
433,8	130,767
434,2	137,11
434,7	140,31
435,1	147,052
435,6	151,452
436	156,738
436,5	165,538
436,9	170,567
437,4	175,795
437,8	181,71
438,3	186,424
438,8	195,652
439,2	200,767
439,7	205,281
440,1	212,081
440,6	221,395
441	234,595
441,5	241,11
441,9	250,11
442,4	262,567
442,8	278,424
443,3	290,824
443,7	300,195
444,2	313,081
444,7	325,338
445,1	339,367
445,6	349,167
446	359,595
446,5	373,252
446,9	391,224
447,4	406,624
447,8	429,052
448,3	447,338
448,7	469,538
449,2	487,71
449,6	510,71
450,1	527,91
450,6	549,852
451	567,338
451,5	588,624
451,9	609,995
452,4	634,595
452,8	655,11
453,3	679,51
453,7	700,938
454,2	726,224
454,6	751,024
455,1	779,71
455,5	805,31
456	830,338
456,4	859,967
456,9	886,938
457,3	916,51
457,8	943,224
458,3	970,71
458,7	1003,167
459,2	1038,91
459,6	1072,624
460,1	1111,767
460,5	1145,224
461	1183,481
461,4	1214,938
461,9	1248,224
462,3	1280,852
462,8	1315,595
463,2	1348,595
463,7	1385,881
464,1	1420,024
464,6	1456,938
465	1496,51
465,5	1537,367
466	1583,195
466,4	1621,681
466,9	1663,11
467,3	1704,681
467,8	1748,795
468,2	1789,224
468,7	1830,338
469,1	1867,767
469,6	1904,795
470	1942,967
470,5	1984,795
470,9	2021,738
471,4	2066,795
471,8	2108,881
472,3	2147,51
472,7	2194,11
473,2	2238,795
473,6	2277,252
474,1	2323,11
474,5	2357,252
475	2394,967
475,4	2430,452
475,9	2467,081
476,4	2504,567
476,8	2548,11
477,3	2587,824
477,7	2631,195
478,2	2672,11
478,6	2720,138
479,1	2762,795
479,5	2805,052
480	2844,595
480,4	2883,795
480,9	2923,11
481,3	2961,738
481,8	2998,167
482,2	3040,167
482,7	3078,252
483,1	3106,852
483,6	3138,624
484	3168,51
484,5	3204,452
484,9	3238,567
485,4	3267,967
485,8	3296,424
486,3	3326,738
486,7	3360,252
487,2	3397,281
487,6	3420,395
488,1	3441,024
488,5	3460,71
489	3489,138
489,4	3521,795
489,9	3537,424
490,4	3551,167
490,8	3574,252
491,3	3598,024
491,7	3622,452
492,2	3639,481
492,6	3655,881
493,1	3685,424
493,5	3705,452
494	3729,51
494,4	3749,252
494,9	3765,71
495,3	3777,71
495,8	3799,681
496,2	3809,995
496,7	3828,338
497,1	3841,11
497,6	3855,995
498	3871,024
498,5	3894,081
498,9	3910,452
499,4	3927,167
499,8	3940,881
500,3	3957,395
500,7	3971,024
501,2	3981,195
501,6	3993,224
502,1	4007,567
502,5	4014,052
503	4028,138
503,4	4034,538
503,9	4044,452
504,3	4059,281
504,8	4059,595
505,2	4063,51
505,7	4077,938
506,1	4075,71
506,6	4079,595
507	4090,652
507,5	4097,052
507,9	4111,91
508,4	4117,281
508,8	4121,652
509,3	4140,795
509,7	4145,51
510,2	4151,024
510,6	4158,024
511,1	4159,31
511,5	4165,024
512	4169,395
512,4	4170,738
512,9	4186,052
513,3	4189,31
513,8	4195,852
514,2	4204,767
514,7	4215,138
515,1	4220,795
515,6	4227,795
516	4225,081
516,5	4223,538
516,9	4233,51
517,4	4239,567
517,8	4240,595
518,3	4251,71
518,7	4256,595
519,2	4278,538
519,6	4288,452
520,1	4295,567
520,5	4300,567
521	4296,738
521,4	4295,024
521,9	4301,252
522,3	4297,138
522,8	4299,281
523,2	4303,881
523,7	4314,824
524,1	4324,852
524,6	4335,995
525	4343,852
525,5	4352,967
525,9	4364,881
526,4	4370,252
526,8	4372,424
527,3	4391,567
527,7	4406,738
528,2	4412,424
528,6	4418,795
529,1	4431,938
529,5	4444,938
530	4462,538
530,4	4471,167
530,9	4476,338
531,3	4484,11
531,8	4496,252
532,2	4498,338
532,6	4502,481
533,1	4493,167
533,5	4492,452
534	4498,367
534,4	4512,624
534,9	4523,824
535,3	4544,281
535,8	4557,852
536,2	4573,338
536,7	4582,824
537,1	4594,995
537,6	4605,595
538	4616,024
538,5	4620,624
538,9	4624,767
539,4	4636,852
539,8	4656,424
540,3	4669,11
540,7	4674,452
541,2	4680,767
541,6	4680,681
542,1	4689,652
542,5	4700,138
543	4709,224
543,4	4714,795
543,9	4723,481
544,3	4741,281
544,8	4759,395
545,2	4773,395
545,7	4787,967
546,1	4789,31
546,5	4797,51
547	4811,024
547,4	4809,624
547,9	4820,624
548,3	4832,452
548,8	4837,538
549,2	4851,167
549,7	4858,767
550,1	4864,052
550,6	4873,481
551	4877,91
551,5	4886,195
551,9	4891,681
552,4	4895,052
552,8	4912,11
553,3	4927,738
553,7	4938,052
554,2	4949,224
554,6	4956,11
555,1	4970,081
555,5	4987,195
555,9	4992,567
556,4	5000,195
556,8	5010,024
557,3	5017,995
557,7	5025,452
558,2	5036,081
558,6	5039,538
559,1	5043,538
559,5	5051,824
560	5054,11
560,4	5057,91
560,9	5057,71
561,3	5059,31
561,8	5071,567
562,2	5079,767
562,7	5075,481
563,1	5085,938
563,6	5087,71
564	5097,395
564,4	5104,967
564,9	5107,281
565,3	5106,71
565,8	5119,167
566,2	5114,881
566,7	5130,681
567,1	5137,681
567,6	5135,11
568	5129,852
568,5	5137,767
568,9	5140,767
569,4	5149,595
569,8	5151,51
570,3	5153,595
570,7	5165,081
571,1	5176,138
571,6	5181,738
572	5179,367
572,5	5179,252
572,9	5175,71
573,4	5173,481
573,8	5175,11
574,3	5174,824
574,7	5166,881
575,2	5164,252
575,6	5176,138
576,1	5178,595
576,5	5179,881
576,9	5173,452
577,4	5169,338
577,8	5170,995
578,3	5172,481
578,7	5156,252
579,2	5152,167
579,6	5147,91
580,1	5149,995
580,5	5150,452
581	5150,91
581,4	5148,224
581,9	5137,252
582,3	5126,395
582,7	5114,224
583,2	5104,452
583,6	5094,567
584,1	5079,081
584,5	5065,995
585	5061,51
585,4	5055,31
585,9	5052,167
586,3	5038,424
586,8	5026,91
587,2	5024,452
587,6	5025,567
588,1	5015,167
588,5	5009,91
589	5005,338
589,4	5001,824
589,9	4990,595
590,3	4977,681
590,8	4964,681
591,2	4965,995
591,7	4957,138
592,1	4950,595
592,5	4944,738
593	4946,51
593,4	4940,624
593,9	4926,424
594,3	4921,681
594,8	4920,31
595,2	4904,367
595,7	4898,138
596,1	4882,995
596,6	4879,024
597	4877,395
597,4	4866,11
597,9	4853,252
598,3	4844,481
598,8	4827,71
599,2	4827,71
599,7	4818,052
600,1	4809,052
600,6	4798,767
601	4784,024
601,4	4779,224
601,9	4772,967
602,3	4751,367
602,8	4741,538
603,2	4726,224
603,7	4714,767
604,1	4702,967
604,6	4684,995
605	4675,71
605,4	4666,995
605,9	4653,967
606,3	4646,538
606,8	4635,538
607,2	4630,738
607,7	4616,167
608,1	4595,652
608,6	4580,795
609	4565,681
609,4	4549,138
609,9	4530,824
610,3	4504,11
610,8	4496,367
611,2	4482,567
611,7	4474,938
612,1	4450,881
612,6	4435,281
613	4421,167
613,4	4419,567
613,9	4402,51
614,3	4389,824
614,8	4369,395
615,2	4366,795
615,7	4343,024
616,1	4331,281
616,6	4312,252
617	4300,538
617,4	4280,081
617,9	4268,452
618,3	4244,081
618,8	4241,224
619,2	4217,852
619,7	4199,138
620,1	4177,995
620,5	4164,852
621	4141,052
621,4	4128,138
621,9	4099,681
622,3	4083,624
622,8	4062,424
623,2	4042,138
623,6	4020,452
624,1	4005,452
624,5	3987,195
625	3976,367
625,4	3955,538
625,9	3942,91
626,3	3926,767
626,8	3903,938
627,2	3887,738
627,6	3871,252
628,1	3850,681
628,5	3833,681
629	3810,538
629,4	3793,538
629,9	3789,795
630,3	3770,967
630,7	3748,024
631,2	3735,338
631,6	3713,852
632,1	3696,024
632,5	3676,795
633	3646,767
633,4	3626,71
633,8	3612,595
634,3	3588,567
634,7	3577,767
635,2	3559,51
635,6	3543,167
636,1	3528,71
636,5	3509,91
636,9	3491,738
637,4	3477,681
637,8	3457,252
638,3	3429,995
638,7	3411,652
639,2	3397,281
639,6	3382,738
640	3358,081
640,5	3337,395
640,9	3316,738
641,4	3308,51
641,8	3293,424
642,2	3271,852
642,7	3245,967
643,1	3231,481
643,6	3217,624
644	3203,224
644,5	3192,367
644,9	3167,767
645,3	3157,767
645,8	3149,367
646,2	3131,11
646,7	3110,967
647,1	3097,967
647,6	3076,338
648	3062,51
648,4	3047,538
648,9	3026,281
649,3	3014,081
649,8	2998,195
650,2	2982,767
650,6	2971,452
651,1	2965,11
651,5	2946,167
652	2938,681
652,4	2923,281
652,9	2908,538
653,3	2891,252
653,7	2877,424
654,2	2858,852
654,6	2839,795
655,1	2819,367
655,5	2805,338
655,9	2791,767
656,4	2774,995
656,8	2755,71
657,3	2731,967
657,7	2712,167
658,2	2694,252
658,6	2678,338
659	2665,824
659,5	2651,967
659,9	2626,852
660,4	2612,052
660,8	2604,995
661,2	2591,11
661,7	2576,252
662,1	2556,167
662,6	2538,738
663	2528,052
663,4	2516,367
663,9	2495,452
664,3	2482,881
664,8	2463,824
665,2	2447,795
665,6	2433,91
666,1	2421,738
666,5	2401,395
667	2392,681
667,4	2372,395
667,9	2360,738
668,3	2344,224
668,7	2327,538
669,2	2311,567
669,6	2299,595
670,1	2279,195
670,5	2263,91
670,9	2248,71
671,4	2230,338
671,8	2217,481
672,3	2205,91
672,7	2192,624
673,1	2179,967
673,6	2167,281
674	2148,052
674,5	2143,652
674,9	2125,167
675,3	2106,281
675,8	2088,395
676,2	2068,795
676,7	2053,11
677,1	2041,71
677,5	2025,424
678	2017,195
678,4	2004,967
678,9	1995,767
679,3	1990,252
679,7	1983,252
680,2	1971,71
680,6	1961,31
681,1	1951,91
681,5	1939,881
681,9	1927,91
682,4	1918,224
682,8	1906,538
683,3	1893,938
683,7	1879,252
684,1	1860,71
684,6	1849,481
685	1837,081
685,5	1819,224
685,9	1801,51
686,3	1789,167
686,8	1778,138
687,2	1771,595
687,7	1757,881
688,1	1745,138
688,5	1733,824
689	1719,595
689,4	1711,11
689,9	1700,367
690,3	1686,595
690,7	1673,452
691,2	1659,052
691,6	1650,795
692	1644,738
692,5	1629,852
692,9	1613,31
693,4	1598,595
693,8	1594,224
694,2	1583,938
694,7	1567,624
695,1	1560,167
695,6	1549,652
696	1542,024
696,4	1534,652
696,9	1521,91
697,3	1514,624
697,8	1509,281
698,2	1495,824
698,6	1484,652
699,1	1479,91
699,5	1463,71
699,9	1452,367
700,4	1444,138
700,8	1432,824
701,3	1425,738
701,7	1418,624
702,1	1403,424
702,6	1396,795
703	1389,052
703,5	1378,91
703,9	1366,024
704,3	1349,367
704,8	1338,938
705,2	1328,252
705,6	1317,995
706,1	1310,852
706,5	1301,452
707	1297,11
707,4	1294,538
707,8	1276,681
708,3	1263,967
708,7	1257,452
709,2	1249,31
709,6	1237,281
710	1228,91
710,5	1221,167
710,9	1221,31
711,3	1214,138
711,8	1206,281
712,2	1197,224
712,7	1185,167
713,1	1174,652
713,5	1162,738
714	1153,081
714,4	1149,081
714,8	1138,138
715,3	1127,624
715,7	1126,081
716,2	1118,081
716,6	1109,252
717	1102,081
717,5	1087,024
717,9	1081,31
718,3	1072,052
718,8	1068,11
719,2	1059,967
719,7	1050,824
720,1	1046,024
720,5	1041,938
721	1032,31
721,4	1025,481
721,8	1014,738
722,3	1005,538
722,7	997,71
723,2	985,367
723,6	980,824
724	972,481
724,5	961,195
724,9	954,595
725,3	945,852
725,8	939,824
726,2	929,881
726,7	923,881
727,1	917,938
727,5	914,481
728	906,167
728,4	900,338
728,8	894,91
729,3	891,824
729,7	882,995
730,1	876,424
730,6	868,824
731	862,052
731,5	851,967
731,9	850,995
732,3	849,281
732,8	845,852
733,2	844,31
733,6	843,024
734,1	841,024
734,5	844,024
734,9	832,538
735,4	825,538
735,8	816,424
736,3	811,795
736,7	802,567
737,1	798,395
737,6	792,424
738	792,91
738,4	783,738
738,9	783,767
739,3	775,967
739,7	768,31
740,2	759,424
740,6	752,738
741,1	738,795
741,5	737,567
741,9	727,452
742,4	723,31
742,8	725,91
743,2	722,852
743,7	717,224
744,1	718,995
744,5	714,91
745	707,881
745,4	704,195
745,8	695,852
746,3	694,052
746,7	691,167
747,2	687,31
747,6	682,052
748	684,167
748,5	676,052
748,9	672,738
749,3	658,938
749,8	655,595
750,2	646,938
750,6	643,252
751,1	639,281
751,5	632,852
751,9	627,938
752,4	629,938
752,8	623,224
753,3	619,91
753,7	611,281
754,1	605,624
754,6	604,71
755	599,767
755,4	595,652
755,9	594,252
756,3	593,281
756,7	593,31
757,2	586,195
757,6	580,738
758	576,167
758,5	571,624
758,9	565,167
759,3	558,51
759,8	553,31
760,2	545,367
760,6	543,481
761,1	539,795
761,5	537,052
761,9	539,081
762,4	535,424
762,8	528,795
763,3	531,395
763,7	524,738
764,1	522,881
764,6	513,395
765	501,395
765,4	497,424
765,9	500,681
766,3	494,424
766,7	492,052
767,2	489,652
767,6	490,624
768	489,967
768,5	490,167
768,9	484,424
769,3	479,481
769,8	479,71
770,2	475,538
770,6	472,738
771,1	468,367
771,5	460,71
771,9	460,281
772,4	462,652
772,8	457,824
773,2	452,081
773,7	448,31
774,1	446,624
774,5	441,538
775	432,481
775,4	425,167
775,8	420,91
776,3	418,395
776,7	415,024
777,1	408,852
777,6	405,281
778	405,281
778,4	407,538
778,9	404,367
779,3	402,824
779,7	401,224
780,2	403,652
780,6	405,767
781	398,681
781,5	393,481
781,9	391,224
782,3	387,138
782,8	385,367
783,2	378,91
783,6	375,195
784,1	374,681
784,5	370,738
784,9	368,052
785,4	364,424
785,8	355,424
786,2	350,71
786,7	349,795
787,1	346,967
787,5	346,395
788	343,481
788,4	340,91
788,8	340,024
789,3	344,052
789,7	341,624
790,1	337,738
790,6	334,138
791	333,767
791,4	333,452
791,9	330,281
792,3	325,281
792,7	316,081
793,2	315,252
793,6	308,452
794	304,71
794,5	304,652
794,9	305,452
795,3	306,024
795,8	310,424
796,2	310,195
796,6	313,852
797,1	305,681
797,5	300,481
797,9	296,938
798,4	289,624
798,8	283,967
799,2	286,31
799,7	281,024
800,1	283,395
800,5	278,567
801	279,252
801,4	282,995
801,8	282,738
802,2	277,024
802,7	275,767
803,1	277,681
803,5	280,024
804	278,538
804,4	272,652
804,8	269,852
805,3	270,224
805,7	267,167
806,1	262,081
806,6	254,252
807	247,51
807,4	242,395
807,9	239,081
808,3	229,624
808,7	229,567
809,2	227,71
809,6	233,91
810	232,91
810,4	234,31
810,9	232,024
811,3	234,567
811,7	231,538
812,2	226,595
812,6	215,195
813	214,338
813,5	210,624
813,9	209,852
814,3	206,481
814,8	205,738
815,2	206,538
815,6	206,91
816,1	200,595
816,5	203,652
816,9	202,338
817,3	200,452
817,8	201,567
818,2	199,652
818,6	199,51
819,1	205,938
819,5	196,995
819,9	195,995
820,4	196,452
820,8	188,395
821,2	187,595
821,7	186,767
822,1	178,51
822,5	178,538
822,9	174,652
823,4	174,395
823,8	171,338
824,2	172,681
824,7	174,424
825,1	176,452
825,5	178,795
826	179,195
826,4	173,224
826,8	176,938
827,3	176,538
827,7	175,195
828,1	174,681
828,5	167,567
829	169,195
829,4	166,138
829,8	163,167
830,3	157,595
830,7	151,081
831,1	151,938
831,6	155,338
832	153,852
832,4	155,138
832,8	151,252
833,3	152,138
833,7	149,167
834,1	147,652
834,6	144,51
835	142,51
835,4	138,91
835,8	142,681
836,3	138,081
836,7	139,51
837,1	135,852
837,6	135,91
838	129,881
838,4	131,852
838,9	126,11
839,3	130,481
839,7	133,71
840,1	125,081
840,6	125,595
841	129,995
841,4	128,995
841,9	127,367
842,3	121,338
842,7	113,338
843,1	119,595
843,6	118,452
844	118,567
844,4	115,395
844,9	115,224
845,3	116,71
845,7	119,538
846,2	116,424
846,6	115,71
847	114,51
847,4	114,052
847,9	114,31
848,3	112,652
848,7	111,024
849,2	113,967
849,6	109,281
850	104,881
850,4	103,252
850,9	99,31
851,3	98,995
851,7	98,31
852,2	94,767
852,6	95,881
853	90,367
853,4	90,938
853,9	94,052
854,3	93,481
854,7	93,881
855,2	98,938
855,6	100,167
856	105,281
856,4	108,624
856,9	107,081
857,3	102,852
857,7	102,11
858,2	91,11
858,6	85,31
859	81,91
859,4	78,252
859,9	79,424
860,3	75,995
860,7	73,081
861,1	76,51
861,6	78,881
862	76,795
862,4	74,967
862,9	71,71
863,3	71,081
863,7	74,424
864,1	69,395
864,6	71,91
865	74,567
865,4	75,424
865,9	74,024
866,3	75,738
866,7	75,31
867,1	79,881
867,6	76,395
868	79,338
868,4	76,91
868,8	81,052
869,3	81,338
869,7	78,481
870,1	78,31
870,6	76,081
871	66,995
871,4	64,567
871,8	63,624
872,3	61,481
872,7	63,195
873,1	62,024
873,5	62,395
874	60,024
874,4	58,51
874,8	60,367
875,3	58,31
875,7	55,338
876,1	52,081
876,5	49,195
877	53,652
877,4	55,967
877,8	51,51
878,2	50,081
878,7	53,052
879,1	55,967
879,5	55,424
879,9	58,995
880,4	61,967
880,8	59,681
881,2	65,71
881,7	58,024
882,1	56,024
882,5	61,452
882,9	58,852
883,4	54,252
883,8	53,938
884,2	44,652
884,6	48,967
885,1	48,995
885,5	45,338
885,9	45,138
886,3	46,481
886,8	46,31
887,2	48,881
887,6	46,367
888	49,71
888,5	49,652
888,9	49,367
889,3	45,395
889,8	48,624
890,2	51,252
890,6	51,367
891	43,938
891,5	44,252
891,9	41,138
892,3	41,595
892,7	39,91
893,2	42,052
893,6	39,51
894	43,024
894,4	35,795
894,9	36,11
895,3	38,31
895,7	32,767
896,1	30,567
896,6	34,51
897	30,71
897,4	34,567
897,8	36,681
898,3	37,538
898,7	39,338
899,1	41,252
899,5	40,652
900	39,11
900,4	40,881
900,8	40,224
901,2	37,481
901,7	35,138
902,1	36,224
902,5	31,881
902,9	33,624
903,4	32,481
903,8	30,481
904,2	27,167
904,6	30,995
905,1	29,51
905,5	31,824
905,9	32,338
906,3	29,195
906,8	30,424
907,2	31,367
907,6	33,138
908	25,538
908,5	23,138
908,9	22,681
909,3	25,195
909,7	24,824
910,2	27,167
910,6	21,452
911	22,452
911,4	21,595
911,9	21,081
912,3	19,052
912,7	14,452
913,1	13,795
913,6	16,195
914	23,795
914,4	22,538
914,8	26,281
915,3	25,538
915,7	33,081
916,1	33,367
916,5	37,624
916,9	31,024
917,4	35,681
917,8	32,767
918,2	34,11
918,6	29,91
919,1	27,795
919,5	21,852
919,9	26,681
920,3	24,967
920,8	24,11
921,2	25,91
921,6	27,795
922	28,767
922,5	32,081
922,9	28,71
923,3	31,11
923,7	37,367
924,2	32,967
924,6	30,652
925	30,681
925,4	30,938
925,8	30,024
926,3	30,452
926,7	22,395
927,1	22,738
927,5	24,652
928	23,367
928,4	24,024
928,8	22,424
929,2	18,167
929,7	22,052
930,1	23,252
930,5	21,71
930,9	20,052
931,3	16,252
931,8	18,71
932,2	21,71
932,6	17,367
933	17,51
933,5	19,052
933,9	17,51
934,3	19,881
934,7	18,252
935,2	16,395
935,6	17,338
936	16,738
936,4	15,138
936,8	19,338
937,3	15,452
937,7	16,452
938,1	9,881
938,5	9,967
939	10,424
939,4	12,567
939,8	11,224
940,2	9,224
940,6	7,595
941,1	11,338
941,5	12,167
941,9	11,852
942,3	4,538
942,8	4,195
943,2	9,367
943,6	8,31
944	9,624
944,4	11,824
944,9	11,195
945,3	10,024
945,7	12,681
946,1	11,967
946,6	17,71
947	19,11
947,4	12,452
947,8	13,595
948,2	19,281
948,7	13,967
949,1	15,167
949,5	11,11
949,9	9,424
950,3	14,424
950,8	16,281
951,2	15,252
951,6	18,51
952	17,624
952,5	16,795
952,9	17,052
953,3	14,852
953,7	9,252
954,1	9,967
954,6	8,767
955	5,252
955,4	9,738
955,8	9,852
956,2	15,395
956,7	20,081
957,1	14,51
957,5	14,338
957,9	18,681
958,3	14,395
958,8	12,11
959,2	7,652
959,6	5,338
960	12,195
960,5	11,11
960,9	10,281
961,3	8,795
961,7	9,795
962,1	8,452
962,6	9,224
963	1,538
963,4	3,824
963,8	0,681
964,2	2,681
964,7	1,567
965,1	-3,348
965,5	-1,548
965,9	3,081
966,3	1,195
966,8	2,167
967,2	-0,805
967,6	3,11
968	5,995
968,4	2,652
968,9	3,338
969,3	1,481
969,7	2,51
970,1	4,824
970,5	1,881
971	1,595
971,4	4,51
971,8	4,024
972,2	8,938
972,6	6,795
973,1	7,567
973,5	4,738
973,9	6,252
974,3	7,252
974,7	4,281
975,2	2,595
975,6	3,738
976	0,224
976,4	-0,119
976,8	0,31
977,3	-0,348
977,7	2,51
978,1	2,567
978,5	-0,348
978,9	-1,29
979,4	3,738
979,8	1,224
980,2	0,938
980,6	0,11
981	0,852
981,5	1,567
981,9	4,824
982,3	6,024
982,7	7,538
983,1	3,31
983,6	6,567
984	1,824
984,4	2,652
984,8	5,252
985,2	2,652
985,6	1,567
986,1	0,852
986,5	-1,062
986,9	4,281
987,3	3,852
987,7	3,452
988,2	7,452
988,6	12,481
989	11,367
989,4	11,881
989,8	7,052
990,3	6,652
990,7	10,167
991,1	7,71
991,5	2,767
991,9	2,052
992,3	-1,576
992,8	2,338
993,2	2,881
993,6	-3,862
994	-8,433
994,4	-2,262
994,9	4,052
995,3	8,738
995,7	6,795
996,1	4,538
996,5	4,481
996,9	3,081
997,4	-0,976
997,8	-4,405
998,2	-7,062
998,6	-4,319
999	3,138
999,5	3,452
999,9	8,367
1000,3	10,595
1000,7	12,11
1001,1	7,567
1001,5	8,938
1002	2,967
1002,4	4,31
1002,8	3,281
1003,2	3,224
1003,6	2,338
1004	5,31
1004,5	-3,148
1004,9	-0,833
1005,3	-2,462
1005,7	-5,49
1006,1	-5,948
1006,6	-6,319
1007	-10,09
1007,4	-9,405
1007,8	-4,576
1008,2	-2,176
1008,6	0,91
1009,1	1,11
1009,5	1,281
1009,9	3,681
1010,3	3,824
1010,7	4,652
1011,1	3,51
1011,6	2,881
1012	2,481
1012,4	5,11
1012,8	9,024
1013,2	11,624
1013,6	4,767
1014,1	4,795
1014,5	5,395
1014,9	3,367
1015,3	-1,633
1015,7	-0,833
1016,1	-2,519
1016,6	-5,833
1017	-3,462
1017,4	-4,976
1017,8	-7,976
1018,2	-6,833
1018,6	-8,205
1019,1	-4,405
1019,5	-5,576
1019,9	-6,348
1020,3	-7,49
1020,7	-2,605
1021,1	2,224
1021,6	0,71
1022	0,167
1022,4	3,367
1022,8	-3,862
1023,2	-1,776
1023,6	-9,233
1024,1	-11,805
1024,5	-11,262
1024,9	-7,748
1025,3	-5,633
1025,7	2,91
1026,1	5,11
1026,6	10,367
1027	11,738
1027,4	16,767
1027,8	8,595
1028,2	3,71
1028,6	2,052
1029	0,31
1029,5	3,995
1029,9	3,624
1030,3	0,938
1030,7	7,424
1031,1	10,167
1031,5	13,31
1032	11,938
1032,4	12,195
1032,8	10,938
1033,2	9,024
1033,6	3,652
1034	6,395
1034,4	3,024
1034,9	6,652
1035,3	4,424
1035,7	5,367
1036,1	5,338
1036,5	10,11
1036,9	8,224
1037,4	9,167
1037,8	9,852
1038,2	4,91
1038,6	3,595
1039	2,652
1039,4	4,481
1039,8	4,538
1040,3	5,424
1040,7	1,395
1041,1	4,595
1041,5	8,595
1041,9	5,167
1042,3	3,424
1042,7	2,967
1043,2	4,652
1043,6	8,395
1044	10,852
1044,4	10,11
1044,8	11,395
1045,2	10,538
1045,6	10,424
1046,1	8,281
1046,5	6,452
1046,9	6,11
1047,3	8,167
1047,7	10,852
1048,1	7,824
1048,5	9,424
1049	9,824
1049,4	7,252
1049,8	2,995
1050,2	-1,033
1050,6	-3,176
1051	-3,319
1051,4	-3,433
1051,9	-3,805
1052,3	-0,919
1052,7	4,367
1053,1	6,195
1053,5	7,51
1053,9	11,024
1054,3	2,995
1054,8	0,024
1055,2	-4,233
1055,6	0,195
1056	-1,49
1056,4	0,824
1056,8	1,338
1057,2	8,081
1057,6	9,167
1058,1	14,081
1058,5	3,967
1058,9	2,367
1059,3	3,967
1059,7	2,11
1060,1	1,624
1060,5	-0,119
1061	-3,405
1061,4	5,167
1061,8	2,367
1062,2	-4,29
1062,6	-0,319
1063	0,795
1063,4	5,71
1063,8	6,938
1064,3	1,567
1064,7	5,252
1065,1	11,567
1065,5	9,995
1065,9	14,367
1066,3	13,538
1066,7	12,738
1067,1	7,938
1067,6	8,338
1068	4,624
1068,4	1,71
1068,8	-7,033
1069,2	-10,919
1069,6	-7,605
1070	-3,776
1070,4	-2,033
1070,9	-1,176
1071,3	0,738
1071,7	7,967
1072,1	7,424
1072,5	4,652
1072,9	4,195
1073,3	2,71
1073,7	7,167
1074,2	4,31
1074,6	-3,319
1075	-1,605
1075,4	1,624
1075,8	3,91
1076,2	8,081
1076,6	6,738
1077	5,11
1077,5	11,052
1077,9	10,938
1078,3	4,881
1078,7	2,624
1079,1	-1,862
1079,5	-1,69
1079,9	-0,919
1080,3	-5,348
1080,7	-2,348
1081,2	3,138
1081,6	0,881
1082	1,367
1082,4	-2,319
1082,8	0,595
1083,2	5,452
1083,6	4,995
1084	2,252
1084,5	4,738
1084,9	-1,233
1085,3	-4,633
1085,7	-3,919
1086,1	-6,548
1086,5	-10,062
1086,9	-10,033
1087,3	-8,89
1087,7	-7,262
1088,2	-0,148
1088,6	-4,262
1089	-2,662
1089,4	-2,262
1089,8	-2,719
1090,2	-4,633
1090,6	-1,69
1091	-1,119
1091,4	2,824
1091,9	3,31
1092,3	4,767
1092,7	5,824
1093,1	10,338
1093,5	11,338
1093,9	9,31
1094,3	6,624
1094,7	4,681
1095,1	5,338
1095,5	4,11
1096	3,224
1096,4	4,938
1096,8	4,595
1097,2	8,795
1097,6	13,395
1098	13,767
1098,4	13,138
1098,8	11,795
1099,2	6,395
1099,6	4,424
1100,1	6,767
1100,5	6,595
1100,9	7,681
1101,3	9,91
1101,7	8,567
1102,1	12,024
1102,5	7,595
1102,9	0,995
1103,3	-2,005
1103,7	-7,548
1104,2	-5,262
1104,6	-1,948
1105	-1,633
1105,4	3,767
1105,8	5,481
1106,2	4,738
1106,6	6,852
1107	3,967
1107,4	1,933
1107,8	0,527
1108,3	-0,333
