Data from Subt2_00046.txt Node
Date: Mon Aug 28 13:19:31 MSK 2023
User: vat
Spectrometer: MAYP114033
Trigger mode: 0
Integration Time (sec): 1,000000E0
Scans to average: 5
Electric dark correction enabled: true
Nonlinearity correction enabled: false
Boxcar width: 3
XAxis mode: Wavelengths
Number of Pixels in Spectrum: 2068
>>>>>Begin Spectral Data<<<<<
199,4	0,183
199,9	2,353
200,4	2,1
200,8	3,948
201,3	4,662
201,8	8,148
202,2	6,948
202,7	9,062
203,2	9,548
203,6	11,119
204,1	13,49
204,6	16,205
205	15,262
205,5	21,005
206	19,348
206,4	21,262
206,9	22,262
207,4	25,976
207,8	23,033
208,3	24,89
208,8	24,748
209,2	30,719
209,7	29,462
210,2	26,833
210,6	20,805
211,1	24,319
211,5	25,919
212	25,348
212,5	23,462
212,9	25,862
213,4	27,348
213,9	31,633
214,3	29,748
214,8	29,005
215,3	29,776
215,7	27,348
216,2	27,233
216,7	28,948
217,1	29,119
217,6	33,005
218,1	28,805
218,5	27,805
219	28,805
219,5	27,662
219,9	28,719
220,4	24,662
220,9	21,348
221,3	24,833
221,8	25,062
222,3	26,49
222,7	27,776
223,2	29,376
223,6	32,262
224,1	32,89
224,6	31,262
225	35,176
225,5	33,233
226	35,748
226,4	33,49
226,9	31,833
227,4	34,262
227,8	35,776
228,3	31,69
228,8	34,462
229,2	33,605
229,7	32,69
230,2	29,662
230,6	26,205
231,1	28,005
231,5	31,662
232	31,805
232,5	29,376
232,9	29,719
233,4	31,662
233,9	36,462
234,3	29,033
234,8	26,205
235,3	23,205
235,7	20,548
236,2	19,576
236,7	18,576
237,1	22,605
237,6	28,348
238,1	28,462
238,5	32,09
239	34,262
239,4	34,776
239,9	38,633
240,4	30,405
240,8	33,348
241,3	38,005
241,8	34,033
242,2	35,976
242,7	40,005
243,2	36,662
243,6	40,033
244,1	31,348
244,6	26,748
245	31,262
245,5	31,776
245,9	29,29
246,4	27,862
246,9	26,148
247,3	26,005
247,8	23,148
248,3	21,119
248,7	20,719
249,2	18,348
249,7	22,662
250,1	21,919
250,6	23,833
251	24,948
251,5	25,805
252	21,062
252,4	22,633
252,9	19,89
253,4	26,005
253,8	27,119
254,3	30,148
254,8	28,262
255,2	26,319
255,7	28,919
256,1	33,605
256,6	26,576
257,1	26,776
257,5	24,805
258	23,49
258,5	26,119
258,9	22,833
259,4	20,29
259,9	20,233
260,3	22,89
260,8	23,89
261,2	24,548
261,7	27,49
262,2	26,69
262,6	25,633
263,1	27,69
263,6	24,062
264	24,29
264,5	23,976
264,9	24,148
265,4	25,49
265,9	25,319
266,3	23,833
266,8	26,262
267,3	28,205
267,7	30,548
268,2	28,633
268,7	26,976
269,1	26,69
269,6	31,033
270	29,748
270,5	27,233
271	28,348
271,4	29,576
271,9	35,176
272,4	38,919
272,8	37,805
273,3	40,49
273,7	38,405
274,2	35,09
274,7	34,205
275,1	32,862
275,6	31,176
276,1	25,776
276,5	24,519
277	24,805
277,4	24,576
277,9	26,09
278,4	21,976
278,8	22,605
279,3	24,833
279,8	21,09
280,2	20,519
280,7	23,205
281,1	22,948
281,6	24,29
282,1	19,405
282,5	20,776
283	21,948
283,4	23,833
283,9	27,405
284,4	27,062
284,8	28,148
285,3	34,862
285,8	36,919
286,2	37,205
286,7	35,719
287,1	33,833
287,6	33,89
288,1	37,319
288,5	31,576
289	35,119
289,5	38,005
289,9	43,205
290,4	41,205
290,8	41,119
291,3	39,29
291,8	42,69
292,2	37,119
292,7	34,69
293,1	30,29
293,6	27,176
294,1	27,433
294,5	25,833
295	26,776
295,5	24,948
295,9	24,176
296,4	25,748
296,8	26,69
297,3	25,919
297,8	19,69
298,2	18,148
298,7	20,148
299,1	20,976
299,6	20,205
300,1	22,805
300,5	23,376
301	32,205
301,5	29,805
301,9	29,862
302,4	27,119
302,8	25,405
303,3	25,29
303,8	26,29
304,2	20,462
304,7	23,005
305,1	25,462
305,6	31,919
306,1	33,405
306,5	31,719
307	28,062
307,4	33,348
307,9	31,633
308,4	28,919
308,8	27,29
309,3	28,776
309,8	31,319
310,2	36,976
310,7	37,205
311,1	37,205
311,6	38,119
312,1	36,833
312,5	33,119
313	30,862
313,4	30,033
313,9	25,119
314,4	28,376
314,8	25,748
315,3	29,662
315,7	35,948
316,2	38,319
316,7	31,148
317,1	33,205
317,6	29,69
318	31,576
318,5	30,062
319	27,29
319,4	25,576
319,9	26,776
320,3	26,719
320,8	26,405
321,3	26,862
321,7	22,662
322,2	22,405
322,6	20,805
323,1	23,662
323,6	22,09
324	23,319
324,5	22,062
324,9	22,89
325,4	24,262
325,9	28,748
326,3	26,576
326,8	30,748
327,2	33,405
327,7	31,262
328,2	32,833
328,6	29,805
329,1	26,548
329,5	29,205
330	27,833
330,5	27,062
330,9	27,376
331,4	28,062
331,8	31,433
332,3	30,462
332,8	30,662
333,2	31,119
333,7	26,376
334,1	33,405
334,6	36,376
335,1	35,862
335,5	37,633
336	36,633
336,4	38,176
336,9	39,148
337,4	32,176
337,8	29,519
338,3	25,233
338,7	27,062
339,2	30,433
339,7	30,919
340,1	31,119
340,6	31,348
341	29,662
341,5	32,719
342	32,719
342,4	33,148
342,9	32,948
343,3	35,033
343,8	33,919
344,2	36,89
344,7	41,919
345,2	42,833
345,6	39,433
346,1	36,862
346,5	35,805
347	39,748
347,5	38,462
347,9	34,033
348,4	32,205
348,8	32,033
349,3	40,633
349,8	42,49
350,2	42,976
350,7	46,405
351,1	47,605
351,6	53,405
352	58,948
352,5	57,49
353	66,348
353,4	78,205
353,9	88,605
354,3	103,405
354,8	114,719
355,3	135,119
355,7	153,119
356,2	176,29
356,6	204,49
357,1	238,519
357,5	271,548
358	312,519
358,5	359,89
358,9	416,005
359,4	477,462
359,8	545,948
360,3	616,805
360,8	704,776
361,2	809,033
361,7	914,69
362,1	1029,462
362,6	1157,748
363	1294,49
363,5	1450,433
364	1609,262
364,4	1768,433
364,9	1926,519
365,3	2089,748
365,8	2239,89
366,3	2384,49
366,7	2508,09
367,2	2615,862
367,6	2702,09
368,1	2779,748
368,5	2830,405
369	2860,948
369,5	2861,919
369,9	2846,262
370,4	2810,005
370,8	2755,919
371,3	2676,462
371,7	2586,89
372,2	2484,976
372,7	2372,633
373,1	2251,662
373,6	2124,005
374	1994,348
374,5	1865,376
374,9	1737,262
375,4	1614,433
375,9	1497,719
376,3	1389,89
376,8	1291,09
377,2	1189,576
377,7	1101,262
378,2	1015,319
378,6	933,176
379,1	855,719
379,5	778,919
380	711,262
380,4	657,376
380,9	605,576
381,4	561,319
381,8	523,548
382,3	491,662
382,7	460,519
383,2	430,033
383,6	403,49
384,1	376,005
384,6	358,176
385	333,405
385,5	308,062
385,9	293,49
386,4	274,633
386,8	255,605
387,3	240,548
387,7	219,69
388,2	207,69
388,7	195,348
389,1	174,976
389,6	168,519
390	160,605
390,5	154,319
390,9	145,29
391,4	132,662
391,9	134,405
392,3	134,548
392,8	130,233
393,2	124,948
393,7	116,148
394,1	113,519
394,6	112,405
395,1	104,548
395,5	101,89
396	93,29
396,4	90,605
396,9	89,348
397,3	83,576
397,8	80,862
398,2	78,405
398,7	78,405
399,2	81,833
399,6	80,033
400,1	78,148
400,5	80,519
401	86,776
401,4	89,433
401,9	87,433
402,4	87,519
402,8	86,862
403,3	90,776
403,7	87,833
404,2	89,09
404,6	86,005
405,1	89,405
405,5	88,633
406	93,262
406,5	95,833
406,9	99,633
407,4	101,29
407,8	107,233
408,3	109,862
408,7	116,176
409,2	120,69
409,6	123,776
410,1	129,148
410,6	133,09
411	134,29
411,5	141,862
411,9	147,29
412,4	158,519
412,8	167,462
413,3	178,89
413,7	187,748
414,2	200,262
414,7	208,976
415,1	221,348
415,6	226,319
416	238,405
416,5	253,262
416,9	268,805
417,4	284,89
417,8	297,176
418,3	309,805
418,8	329,833
419,2	348,69
419,7	364,119
420,1	378,205
420,6	393,405
421	422,919
421,5	447,09
421,9	470,348
422,4	498,262
422,8	523,005
423,3	551,776
423,8	579,519
424,2	602,548
424,7	632,376
425,1	663,605
425,6	691,919
426	721,576
426,5	758,833
426,9	801,433
427,4	839,633
427,9	886,719
428,3	932,919
428,8	979,062
429,2	1034,462
429,7	1085,405
430,1	1139,662
430,6	1200,833
431	1258,576
431,5	1318,233
431,9	1384,633
432,4	1452,148
432,8	1527,576
433,3	1606,262
433,8	1690,462
434,2	1770,49
434,7	1862,719
435,1	1956,719
435,6	2058,919
436	2163,548
436,5	2270,719
436,9	2377,262
437,4	2493,519
437,8	2616,205
438,3	2740,148
438,8	2870,776
439,2	3006,062
439,7	3143,005
440,1	3285,09
440,6	3439,605
441	3584,576
441,5	3740,719
441,9	3903,862
442,4	4071,805
442,8	4252,776
443,3	4439,033
443,7	4628,376
444,2	4824,49
444,7	5035,148
445,1	5238,119
445,6	5455,319
446	5674,062
446,5	5895,605
446,9	6127,29
447,4	6365,919
447,8	6607,862
448,3	6865,319
448,7	7112,005
449,2	7363,748
449,6	7629,605
450,1	7893,49
450,6	8169,662
451	8445,462
451,5	8728,633
451,9	9025,176
452,4	9328,033
452,8	9636,119
453,3	9940,548
453,7	10261,233
454,2	10585,348
454,6	10902,805
455,1	11223,09
455,5	11555,005
456	11881,548
456,4	12230,519
456,9	12567,376
457,3	12912,548
457,8	13266,548
458,3	13631,433
458,7	13996,348
459,2	14367,49
459,6	14728,09
460,1	15099,29
460,5	15464,948
461	15835,405
461,4	16203,376
461,9	16567,033
462,3	16929,262
462,8	17300,519
463,2	17664,805
463,7	18036,09
464,1	18407,576
464,6	18774,633
465	19147,805
465,5	19512,348
466	19893,348
466,4	20262,29
466,9	20627,462
467,3	20991,89
467,8	21359,89
468,2	21716,062
468,7	22088,348
469,1	22432,233
469,6	22790,576
470	23136,119
470,5	23468,662
470,9	23806,033
471,4	24145,69
471,8	24461,805
472,3	24787,919
472,7	25095,005
473,2	25419,919
473,6	25731,405
474,1	26024,005
474,5	26320,176
475	26624,319
475,4	26898,176
475,9	27186,89
476,4	27438,948
476,8	27706,005
477,3	27958,89
477,7	28191,462
478,2	28429,348
478,6	28667,833
479,1	28879,748
479,5	29113,205
480	29313,119
480,4	29514,205
480,9	29700,748
481,3	29865,205
481,8	30025,462
482,2	30186,548
482,7	30327,033
483,1	30475,376
483,6	30592,662
484	30703,405
484,5	30831,176
484,9	30926,09
485,4	31018,833
485,8	31105,919
486,3	31180,29
486,7	31251,005
487,2	31332,776
487,6	31378,433
488,1	31422,519
488,5	31446,348
489	31451,89
489,4	31454,119
489,9	31458,119
490,4	31439,148
490,8	31415,148
491,3	31393,576
491,7	31352,69
492,2	31323,519
492,6	31268,49
493,1	31201,805
493,5	31132,148
494	31053,748
494,4	30965,89
494,9	30902,119
495,3	30810,09
495,8	30726,348
496,2	30637,748
496,7	30540,605
497,1	30443,319
497,6	30343,719
498	30223,976
498,5	30087,576
498,9	29948,519
499,4	29811,662
499,8	29675,776
500,3	29542,49
500,7	29398,805
501,2	29235,776
501,6	29094,948
502,1	28944,319
502,5	28794,548
503	28624,376
503,4	28449,205
503,9	28277,205
504,3	28111,376
504,8	27930,376
505,2	27760,262
505,7	27583,119
506,1	27401,605
506,6	27197,605
507	27000,119
507,5	26794,919
507,9	26597,29
508,4	26391,633
508,8	26175,49
509,3	25959,719
509,7	25759,119
510,2	25536,976
510,6	25333,005
511,1	25115,805
511,5	24891,033
512	24664,633
512,4	24450,262
512,9	24230,348
513,3	24019,633
513,8	23794,605
514,2	23573,033
514,7	23359,976
515,1	23143,69
515,6	22927,519
516	22705,005
516,5	22472,062
516,9	22236,376
517,4	22013,976
517,8	21779,29
518,3	21564,148
518,7	21332,919
519,2	21098,033
519,6	20872,833
520,1	20657,262
520,5	20434,633
521	20211,319
521,4	19974,948
521,9	19762,519
522,3	19545,89
522,8	19334,319
523,2	19131,405
523,7	18918,519
524,1	18700,89
524,6	18500,862
525	18285,776
525,5	18084,862
525,9	17889,862
526,4	17675,976
526,8	17482,862
527,3	17307,662
527,7	17107,462
528,2	16917,09
528,6	16726,29
529,1	16538,633
529,5	16354,148
530	16157,233
530,4	15961,119
530,9	15776,262
531,3	15606,548
531,8	15422,29
532,2	15233,119
532,6	15055,462
533,1	14878,633
533,5	14706,462
534	14541,69
534,4	14371,862
534,9	14217,462
535,3	14056,49
535,8	13896,062
536,2	13746,433
536,7	13586,748
537,1	13423,062
537,6	13254,805
538	13093,948
538,5	12954,119
538,9	12802,862
539,4	12650,89
539,8	12502,69
540,3	12365,519
540,7	12223,319
541,2	12083,948
541,6	11934,233
542,1	11802,548
542,5	11671,633
543	11556,148
543,4	11423,262
543,9	11299,462
544,3	11184,49
544,8	11070,576
545,2	10942,605
545,7	10822,776
546,1	10696,005
546,5	10576,862
547	10461,233
547,4	10332,833
547,9	10217,033
548,3	10110,576
548,8	10001,662
549,2	9883,148
549,7	9772,89
550,1	9660,605
550,6	9563,376
551	9460,719
551,5	9359,433
551,9	9257,319
552,4	9162,176
552,8	9077,519
553,3	8992,69
553,7	8904,519
554,2	8811,948
554,6	8721,576
555,1	8631,662
555,5	8548,033
555,9	8459,776
556,4	8369,319
556,8	8276,176
557,3	8189,748
557,7	8109,319
558,2	8031,405
558,6	7952,719
559,1	7875,405
559,5	7808,519
560	7737,576
560,4	7662,719
560,9	7587,29
561,3	7508,805
561,8	7433,462
562,2	7356,719
562,7	7270,862
563,1	7186,005
563,6	7113,119
564	7046,919
564,4	6973,548
564,9	6904,376
565,3	6839,919
565,8	6779,519
566,2	6725,805
566,7	6666,29
567,1	6606,462
567,6	6554,09
568	6495,233
568,5	6434,319
568,9	6374,376
569,4	6307,548
569,8	6249,862
570,3	6187,062
570,7	6129,348
571,1	6074,119
571,6	6015,833
572	5961,719
572,5	5914,005
572,9	5861,205
573,4	5809,89
573,8	5764,748
574,3	5712,605
574,7	5666,805
575,2	5617,319
575,6	5573,405
576,1	5528,433
576,5	5479,119
576,9	5422,605
577,4	5383,376
577,8	5331,605
578,3	5286,576
578,7	5236,062
579,2	5184,433
579,6	5135,119
580,1	5091,862
580,5	5043,262
581	5005,205
581,4	4957,176
581,9	4915,462
582,3	4877,948
582,7	4844,662
583,2	4797,69
583,6	4754,805
584,1	4719,148
584,5	4680,862
585	4642,548
585,4	4594,833
585,9	4551,662
586,3	4515,862
586,8	4475,519
587,2	4427,519
587,6	4387,233
588,1	4353,005
588,5	4316,205
589	4274,862
589,4	4241,033
589,9	4210,919
590,3	4179,805
590,8	4157,033
591,2	4118,033
591,7	4091,233
592,1	4066,29
592,5	4036,205
593	4001,776
593,4	3969,805
593,9	3933,576
594,3	3912,176
594,8	3887,376
595,2	3854,519
595,7	3824,176
596,1	3803,148
596,6	3780,719
597	3759,69
597,4	3724,062
597,9	3690,148
598,3	3671,948
598,8	3649,005
599,2	3614,062
599,7	3594,833
600,1	3566,776
600,6	3546,719
601	3530,576
601,4	3505,462
601,9	3481,776
602,3	3467,948
602,8	3437,405
603,2	3412,605
603,7	3394,719
604,1	3367,719
604,6	3340,719
605	3312,605
605,4	3280,719
605,9	3259,233
606,3	3235,605
606,8	3206,033
607,2	3183,976
607,7	3161,605
608,1	3138,776
608,6	3118,662
609	3095,662
609,4	3076,919
609,9	3060,69
610,3	3038,833
610,8	3016,148
611,2	2999,148
611,7	2979,033
612,1	2957,548
612,6	2931,49
613	2897,462
613,4	2874,948
613,9	2859,662
614,3	2843,605
614,8	2818,605
615,2	2801,319
615,7	2783,005
616,1	2771,719
616,6	2755,119
617	2733,948
617,4	2709,405
617,9	2695,176
618,3	2674,633
618,8	2658,89
619,2	2644,662
619,7	2621,833
620,1	2603,319
620,5	2584,005
621	2568,719
621,4	2553,319
621,9	2530,748
622,3	2512,919
622,8	2500,776
623,2	2481,919
623,6	2467,605
624,1	2453,062
624,5	2436,376
625	2420,862
625,4	2403,119
625,9	2383,205
626,3	2368,919
626,8	2350,319
627,2	2327,119
627,6	2306,919
628,1	2293,862
628,5	2271,005
629	2257,148
629,4	2240,205
629,9	2220,176
630,3	2200,776
630,7	2189,433
631,2	2175,319
631,6	2158,29
632,1	2145,833
632,5	2131,005
633	2123,033
633,4	2112,062
633,8	2092,062
634,3	2074,833
634,7	2065,205
635,2	2052,433
635,6	2036,205
636,1	2014,948
636,5	2001,633
636,9	1987,148
637,4	1974,748
637,8	1958,519
638,3	1940,233
638,7	1920,576
639,2	1912,519
639,6	1902,062
640	1892,348
640,5	1879,376
640,9	1865,062
641,4	1855,09
641,8	1848,462
642,2	1836,233
642,7	1825,176
643,1	1810,719
643,6	1798,09
644	1792,262
644,5	1776,148
644,9	1764,805
645,3	1758,776
645,8	1739,89
646,2	1729,348
646,7	1713,319
647,1	1698,976
647,6	1692,29
648	1677,548
648,4	1661,748
648,9	1655,89
649,3	1646,319
649,8	1645,605
650,2	1636,005
650,6	1624,005
651,1	1617,205
651,5	1603,49
652	1597,433
652,4	1584,005
652,9	1568,719
653,3	1554,605
653,7	1540,833
654,2	1530,862
654,6	1526,348
655,1	1509,062
655,5	1498,805
655,9	1491,09
656,4	1485,405
656,8	1480,605
657,3	1473,062
657,7	1452,89
658,2	1445,89
658,6	1437,948
659	1432,605
659,5	1423,176
659,9	1413,176
660,4	1405,976
660,8	1403,233
661,2	1390,776
661,7	1379,319
662,1	1363,348
662,6	1356,062
663	1341,833
663,4	1328,519
663,9	1320,719
664,3	1309,033
664,8	1304,176
665,2	1296,833
665,6	1285,29
666,1	1279,833
666,5	1270,462
667	1256,348
667,4	1254,176
667,9	1241,833
668,3	1232,519
668,7	1218,519
669,2	1205,69
669,6	1194,319
670,1	1192,833
670,5	1178,862
670,9	1172,319
671,4	1160,976
671,8	1160,033
672,3	1150,776
672,7	1146,776
673,1	1137,433
673,6	1131,69
674	1120,176
674,5	1112,976
674,9	1102,805
675,3	1096,633
675,8	1089,519
676,2	1079,519
676,7	1076,148
677,1	1074,633
677,5	1070,262
678	1065,833
678,4	1060,719
678,9	1048,862
679,3	1041,862
679,7	1031,662
680,2	1025,976
680,6	1019,49
681,1	1008,833
681,5	1003,148
681,9	998,348
682,4	991,519
682,8	983,29
683,3	979,776
683,7	974,033
684,1	966,576
684,6	960,69
685	953,348
685,5	943,576
685,9	935,376
686,3	923,176
686,8	914,205
687,2	912,176
687,7	905,576
688,1	901,148
688,5	894,519
689	896,833
689,4	888,605
689,9	883,948
690,3	874,319
690,7	871,233
691,2	865,919
691,6	861,062
692	853,519
692,5	848,919
692,9	842,376
693,4	836,433
693,8	827,09
694,2	820,633
694,7	814,262
695,1	804,405
695,6	802,29
696	793,89
696,4	791,805
696,9	783,719
697,3	783,805
697,8	781,69
698,2	774,148
698,6	766,576
699,1	767,148
699,5	759,662
699,9	753,948
700,4	744,576
700,8	740,948
701,3	739,376
701,7	730,719
702,1	723,233
702,6	717,462
703	713,148
703,5	706,576
703,9	703,376
704,3	699,348
704,8	695,233
705,2	688,119
705,6	688,176
706,1	682,776
706,5	680,948
707	676,862
707,4	676,719
707,8	677,748
708,3	676,348
708,7	673,319
709,2	673,49
709,6	668,833
710	660,69
710,5	652,348
710,9	648,233
711,3	639,662
711,8	631,862
712,2	627,376
712,7	619,433
713,1	617,576
713,5	612,605
714	603,49
714,4	600,433
714,8	598,519
715,3	596,176
715,7	595,776
716,2	595,776
716,6	592,176
717	588,49
717,5	583,748
717,9	577,433
718,3	570,405
718,8	563,205
719,2	555,233
719,7	550,233
720,1	545,148
720,5	547,576
721	540,405
721,4	536,633
721,8	533,49
722,3	530,033
722,7	523,919
723,2	519,433
723,6	514,719
724	513,462
724,5	511,062
724,9	508,29
725,3	497,462
725,8	494,462
726,2	492,49
726,7	484,833
727,1	477,719
727,5	471,976
728	461,176
728,4	464,862
728,8	464,119
729,3	459,919
729,7	457,576
730,1	455,433
730,6	455,548
731	459,29
731,5	454,548
731,9	450,29
732,3	449,862
732,8	447,605
733,2	447,662
733,6	446,233
734,1	438,633
734,5	435,29
734,9	430,605
735,4	424,262
735,8	418,233
736,3	411,176
736,7	406,862
737,1	408,119
737,6	406,29
738	408,948
738,4	413,262
738,9	413,29
739,3	418,348
739,7	416,49
740,2	417,89
740,6	417,205
741,1	410,09
741,5	404,719
741,9	400,89
742,4	398,376
742,8	395,405
743,2	392,376
743,7	390,49
744,1	391,833
744,5	389,462
745	388,805
745,4	386,033
745,8	385,89
746,3	379,976
746,7	372,662
747,2	369,976
747,6	369,205
748	369,548
748,5	362,29
748,9	357,348
749,3	358,548
749,8	362,519
750,2	357,948
750,6	353,119
751,1	350,719
751,5	354,49
751,9	351,348
752,4	354,09
752,8	350,919
753,3	348,433
753,7	347,548
754,1	345,576
754,6	335,69
755	335,948
755,4	332,948
755,9	330,662
756,3	333,776
756,7	337,062
757,2	331,833
757,6	330,976
758	329,233
758,5	323,29
758,9	316,89
759,3	311,89
759,8	302,548
760,2	302,919
760,6	309,319
761,1	306,262
761,5	300,233
761,9	300,09
762,4	300,548
762,8	303,776
763,3	299,548
763,7	293,376
764,1	288,89
764,6	292,29
765	295,548
765,4	293,633
765,9	290,148
766,3	291,462
766,7	293,405
767,2	297,405
767,6	296,976
768	291,519
768,5	288,833
768,9	281,976
769,3	278,233
769,8	271,29
770,2	264,09
770,6	260,633
771,1	258,948
771,5	256,748
771,9	260,49
772,4	260,033
772,8	259,805
773,2	262,776
773,7	258,348
774,1	261,376
774,5	256,062
775	253,319
775,4	252,319
775,8	250,09
776,3	249,033
776,7	249,919
777,1	240,033
777,6	240,405
778	238,319
778,4	236,148
778,9	234,89
779,3	229,662
779,7	227,148
780,2	232,348
780,6	233,519
781	234,89
781,5	233,205
781,9	231,205
782,3	233,062
782,8	234,262
783,2	229,633
783,6	229,033
784,1	222,519
784,5	221,29
784,9	224,262
785,4	218,376
785,8	216,433
786,2	215,462
786,7	212,605
787,1	219,519
787,5	217,576
788	214,29
788,4	216,462
788,8	214,69
789,3	214,405
789,7	213,348
790,1	212,319
790,6	210,548
791	206,233
791,4	205,062
791,9	201,205
792,3	199,176
792,7	199,462
793,2	195,205
793,6	194,519
794	198,976
794,5	198,69
794,9	201,49
795,3	198,319
795,8	200,119
796,2	192,89
796,6	192,605
797,1	188,348
797,5	187,376
797,9	189,09
798,4	188,976
798,8	184,605
799,2	186,205
799,7	183,919
800,1	182,719
800,5	181,433
801	177,919
801,4	179,948
801,8	176,89
802,2	175,462
802,7	177,176
803,1	179,09
803,5	172,548
804	165,748
804,4	164,348
804,8	165,376
805,3	164,89
805,7	162,005
806,1	154,148
806,6	161,262
807	161,605
807,4	160,348
807,9	152,805
808,3	155,09
808,7	153,005
809,2	157,69
809,6	153,89
810	152,862
810,4	151,29
810,9	155,462
811,3	154,29
811,7	151,148
812,2	148,519
812,6	149,005
813	154,09
813,5	156,062
813,9	153,776
814,3	148,976
814,8	150,205
815,2	147,29
815,6	143,233
816,1	143,119
816,5	136,605
816,9	140,405
817,3	141,405
817,8	143,519
818,2	143,262
818,6	142,633
819,1	137,319
819,5	141,119
819,9	143,148
820,4	144,176
820,8	138,29
821,2	137,919
821,7	132,976
822,1	127,49
822,5	127,833
822,9	119,719
823,4	117,862
823,8	121,719
824,2	119,433
824,7	120,719
825,1	122,062
825,5	117,89
826	114,919
826,4	110,119
826,8	108,405
827,3	112,262
827,7	114,919
828,1	116,605
828,5	118,148
829	122,69
829,4	119,433
829,8	121,776
830,3	122,376
830,7	120,033
831,1	121,176
831,6	116,862
832	115,148
832,4	117,69
832,8	110,89
833,3	100,605
833,7	96,576
834,1	94,348
834,6	97,405
835	96,776
835,4	98,09
835,8	99,519
836,3	104,376
836,7	108,919
837,1	105,005
837,6	98,748
838	96,262
838,4	92,69
838,9	92,862
839,3	92,376
839,7	89,576
840,1	94,405
840,6	97,662
841	94,548
841,4	96,148
841,9	97,748
842,3	95,576
842,7	93,69
843,1	91,09
843,6	90,205
844	90,976
844,4	93,719
844,9	91,576
845,3	92,605
845,7	91,805
846,2	94,49
846,6	93,89
847	95,033
847,4	92,09
847,9	88,662
848,3	84,09
848,7	86,033
849,2	79,233
849,6	77,233
850	80,148
850,4	77,805
850,9	78,29
851,3	83,319
851,7	81,548
852,2	82,833
852,6	86,033
853	83,176
853,4	84,919
853,9	81,805
854,3	82,49
854,7	82,662
855,2	86,462
855,6	80,176
856	83,433
856,4	82,319
856,9	81,519
857,3	77,205
857,7	75,89
858,2	72,776
858,6	70,433
859	67,062
859,4	68,176
859,9	70,262
860,3	70,062
860,7	68,776
861,1	71,09
861,6	76,576
862	76,005
862,4	70,29
862,9	72,776
863,3	72,005
863,7	71,862
864,1	69,319
864,6	70,69
865	68,09
865,4	72,119
865,9	70,576
866,3	71,233
866,7	68,462
867,1	65,548
867,6	67,662
868	66,776
868,4	64,662
868,8	60,748
869,3	62,948
869,7	67,69
870,1	67,176
870,6	59,976
871	47,119
871,4	47,462
871,8	51,49
872,3	47,719
872,7	45,548
873,1	42,576
873,5	46,29
874	60,376
874,4	62,033
874,8	58,519
875,3	58,662
875,7	59,805
876,1	67,176
876,5	62,176
877	61,519
877,4	63,69
877,8	61,576
878,2	63,719
878,7	62,719
879,1	58,548
879,5	59,033
879,9	55,148
880,4	48,605
880,8	56,519
881,2	51,176
881,7	50,89
882,1	49,519
882,5	50,405
882,9	51,09
883,4	53,005
883,8	46,205
884,2	47,348
884,6	44,89
885,1	45,09
885,5	44,862
885,9	48,919
886,3	48,205
886,8	53,319
887,2	55,148
887,6	58,062
888	58,262
888,5	56,376
888,9	50,348
889,3	51,519
889,8	49,519
890,2	45,062
890,6	44,262
891	45,462
891,5	47,862
891,9	52,262
892,3	50,376
892,7	46,348
893,2	51,69
893,6	47,833
894	47,948
894,4	45,262
894,9	46,633
895,3	49,748
895,7	51,776
896,1	48,09
896,6	48,662
897	47,69
897,4	49,69
897,8	48,519
898,3	47,176
898,7	45,89
899,1	50,119
899,5	54,633
900	52,862
900,4	49,49
900,8	47,69
901,2	43,519
901,7	44,462
902,1	40,005
902,5	39,862
902,9	37,405
903,4	43,748
903,8	41,862
904,2	47,49
904,6	46,976
905,1	50,776
905,5	48,319
905,9	48,919
906,3	46,376
906,8	45,376
907,2	38,89
907,6	40,433
908	35,376
908,5	29,69
908,9	32,176
909,3	29,976
909,7	31,462
910,2	32,519
910,6	29,09
911	33,005
911,4	39,49
911,9	40,633
912,3	42,49
912,7	45,062
913,1	44,69
913,6	48,148
914	48,233
914,4	46,49
914,8	44,576
915,3	41,033
915,7	41,205
916,1	43,148
916,5	42,605
916,9	39,119
917,4	39,519
917,8	35,662
918,2	40,433
918,6	37,262
919,1	39,176
919,5	39,319
919,9	43,633
920,3	44,805
920,8	50,776
921,2	45,862
921,6	46,605
922	42,49
922,5	42,776
922,9	41,605
923,3	41,548
923,7	37,548
924,2	41,033
924,6	40,062
925	43,348
925,4	42,633
925,8	42,348
926,3	36,176
926,7	37,748
927,1	36,062
927,5	38,605
928	41,348
928,4	37,376
928,8	37,548
929,2	43,148
929,7	44,519
930,1	40,49
930,5	36,033
930,9	33,233
931,3	37,405
931,8	36,89
932,2	32,805
932,6	30,662
933	28,605
933,5	33,376
933,9	33,548
934,3	28,262
934,7	28,605
935,2	30,976
935,6	30,176
936	30,005
936,4	26,176
936,8	28,49
937,3	34,148
937,7	31,433
938,1	32,948
938,5	33,29
939	34,348
939,4	36,062
939,8	31,233
940,2	25,633
940,6	24,519
941,1	23,805
941,5	22,405
941,9	30,719
942,3	32,433
942,8	36,233
943,2	33,776
943,6	32,976
944	34,433
944,4	37,062
944,9	29,376
945,3	27,548
945,7	23,833
946,1	23,776
946,6	24,805
947	23,662
947,4	19,776
947,8	23,833
948,2	26,376
948,7	24,519
949,1	30,548
949,5	28,376
949,9	28,919
950,3	31,605
950,8	28,719
951,2	28,262
951,6	31,49
952	34,948
952,5	36,833
952,9	31,519
953,3	30,262
953,7	29,833
954,1	28,805
954,6	27,462
955	24,89
955,4	22,976
955,8	26,948
956,2	24,405
956,7	25,776
957,1	24,605
957,5	24,319
957,9	22,833
958,3	28,005
958,8	29,09
959,2	30,605
959,6	37,148
960	35,09
960,5	32,633
960,9	34,605
961,3	29,748
961,7	32,776
962,1	40,033
962,6	31,405
963	34,948
963,4	40,662
963,8	37,176
964,2	39,205
964,7	35,776
965,1	31,833
965,5	37,033
965,9	33,776
966,3	34,662
966,8	33,976
967,2	36,262
967,6	32,662
968	27,919
968,4	29,948
968,9	31,319
969,3	25,148
969,7	24,862
970,1	24,833
970,5	23,605
971	28,776
971,4	25,519
971,8	25,29
972,2	25,805
972,6	28,719
973,1	26,405
973,5	28,49
973,9	24,919
974,3	24,233
974,7	25,462
975,2	22,976
975,6	19,833
976	19,519
976,4	18,148
976,8	20,005
977,3	20,09
977,7	17,119
978,1	23,005
978,5	26,833
978,9	26,605
979,4	27,633
979,8	24,519
980,2	23,89
980,6	27,662
981	24,919
981,5	22,405
981,9	22,833
982,3	22,319
982,7	23,376
983,1	21,005
983,6	16,719
984	17,776
984,4	14,948
984,8	16,633
985,2	20,805
985,6	19,69
986,1	18,69
986,5	20,576
986,9	17,576
987,3	20,548
987,7	19,348
988,2	15,89
988,6	18,348
989	19,862
989,4	19,405
989,8	20,976
990,3	19,776
990,7	18,405
991,1	19,605
991,5	20,205
991,9	18,719
992,3	16,062
992,8	15,405
993,2	18,033
993,6	22,748
994	22,319
994,4	24,062
994,9	24,633
995,3	24,662
995,7	26,89
996,1	25,919
996,5	20,433
996,9	24,69
997,4	21,205
997,8	20,976
998,2	23,805
998,6	25,576
999	22,633
999,5	27,29
999,9	19,833
1000,3	21,862
1000,7	26,719
1001,1	28,348
1001,5	30,69
1002	36,062
1002,4	34,119
1002,8	39,862
1003,2	38,49
1003,6	37,09
1004	35,89
1004,5	31,119
1004,9	26,805
1005,3	25,033
1005,7	28,376
1006,1	26,662
1006,6	25,576
1007	20,69
1007,4	20,033
1007,8	21,233
1008,2	21,233
1008,6	13,005
1009,1	13,976
1009,5	17,433
1009,9	22,976
1010,3	23,605
1010,7	25,948
1011,1	30,462
1011,6	33,148
1012	35,576
1012,4	33,405
1012,8	28,862
1013,2	25,148
1013,6	24,405
1014,1	16,376
1014,5	15,005
1014,9	13,09
1015,3	10,262
1015,7	12,262
1016,1	19,576
1016,6	18,576
1017	24,919
1017,4	24,862
1017,8	31,062
1018,2	32,148
1018,6	36,605
1019,1	34,49
1019,5	35,89
1019,9	37,833
1020,3	39,69
1020,7	38,976
1021,1	32,348
1021,6	27,662
1022	28,948
1022,4	23,49
1022,8	17,919
1023,2	16,176
1023,6	8,49
1024,1	19,119
1024,5	20,519
1024,9	17,462
1025,3	19,605
1025,7	21,405
1026,1	21,348
1026,6	27,548
1027	24,605
1027,4	24,49
1027,8	20,833
1028,2	22,948
1028,6	20,69
1029	18,319
1029,5	11,376
1029,9	14,548
1030,3	13,976
1030,7	20,576
1031,1	22,176
1031,5	24,633
1032	27,633
1032,4	35,09
1032,8	32,319
1033,2	30,205
1033,6	26,948
1034	19,262
1034,4	20,948
1034,9	24,49
1035,3	22,405
1035,7	18,09
1036,1	28,605
1036,5	28,662
1036,9	40,119
1037,4	39,548
1037,8	38,376
1038,2	38,005
1038,6	41,576
1039	39,005
1039,4	42,69
1039,8	42,49
1040,3	45,09
1040,7	44,833
1041,1	39,376
1041,5	45,462
1041,9	45,005
1042,3	44,262
1042,7	36,548
1043,2	32,748
1043,6	33,405
1044	38,519
1044,4	32,29
1044,8	28,205
1045,2	29,062
1045,6	34,176
1046,1	34,69
1046,5	32,233
1046,9	29,69
1047,3	35,519
1047,7	35,348
1048,1	29,49
1048,5	26,319
1049	26,205
1049,4	25,148
1049,8	31,376
1050,2	24,89
1050,6	24,09
1051	32,976
1051,4	33,605
1051,9	36,062
1052,3	36,89
1052,7	34,633
1053,1	34,205
1053,5	34,29
1053,9	29,148
1054,3	26,348
1054,8	20,233
1055,2	21,548
1055,6	20,49
1056	23,176
1056,4	25,233
1056,8	27,148
1057,2	28,29
1057,6	36,948
1058,1	37,776
1058,5	33,09
1058,9	33,805
1059,3	33,776
1059,7	29,519
1060,1	30,89
1060,5	27,948
1061	26,805
1061,4	25,49
1061,8	24,433
1062,2	26,719
1062,6	26,348
1063	28,519
1063,4	27,833
1063,8	25,919
1064,3	36,033
1064,7	36,662
1065,1	38,319
1065,5	41,919
1065,9	42,662
1066,3	41,319
1066,7	45,633
1067,1	39,719
1067,6	40,919
1068	37,462
1068,4	36,09
1068,8	35,033
1069,2	38,033
1069,6	33,605
1070	40,262
1070,4	34,719
1070,9	35,005
1071,3	34,519
1071,7	27,833
1072,1	21,205
1072,5	23,262
1072,9	15,948
1073,3	18,576
1073,7	16,433
1074,2	19,062
1074,6	25,405
1075	33,148
1075,4	37,519
1075,8	37,862
1076,2	42,519
1076,6	42,148
1077	44,748
1077,5	43,148
1077,9	36,319
1078,3	30,805
1078,7	31,69
1079,1	27,405
1079,5	29,976
1079,9	27,862
1080,3	31,119
1080,7	35,89
1081,2	36,919
1081,6	35,976
1082	38,09
1082,4	34,033
1082,8	33,319
1083,2	27,405
1083,6	24,833
1084	22,176
1084,5	23,148
1084,9	19,005
1085,3	20,319
1085,7	21,348
1086,1	27,576
1086,5	25,348
1086,9	27,119
1087,3	32,233
1087,7	34,405
1088,2	37,319
1088,6	38,405
1089	33,633
1089,4	38,862
1089,8	36,09
1090,2	30,062
1090,6	29,233
1091	24,29
1091,4	20,062
1091,9	21,576
1092,3	20,376
1092,7	20,776
1093,1	23,262
1093,5	20,662
1093,9	23,29
1094,3	21,262
1094,7	18,176
1095,1	18,319
1095,5	23,348
1096	20,69
1096,4	26,09
1096,8	30,176
1097,2	31,719
1097,6	35,69
1098	32,005
1098,4	32,519
1098,8	34,376
1099,2	32,119
1099,6	28,89
1100,1	29,09
1100,5	27,376
1100,9	26,548
1101,3	23,605
1101,7	22,348
1102,1	23,548
1102,5	20,376
1102,9	19,033
1103,3	19,548
1103,7	23,948
1104,2	20,89
1104,6	22,976
1105	20,29
1105,4	21,262
1105,8	19,633
1106,2	15,605
1106,6	9,976
1107	9,319
1107,4	5
1107,8	3,433
1108,3	0,533
