Data from Subt2_00067.txt Node
Date: Mon Aug 28 13:27:21 MSK 2023
User: vat
Spectrometer: MAYP114033
Trigger mode: 0
Integration Time (sec): 1,000000E0
Scans to average: 5
Electric dark correction enabled: true
Nonlinearity correction enabled: false
Boxcar width: 3
XAxis mode: Wavelengths
Number of Pixels in Spectrum: 2068
>>>>>Begin Spectral Data<<<<<
199,4	-0,767
199,9	-1,747
200,4	-2,8
200,8	-0,924
201,3	-1,181
201,8	0,933
202,2	3,248
202,7	3,962
203,2	6,562
203,6	7,048
204,1	7,705
204,6	10,248
205	10,819
205,5	6,99
206	4,619
206,4	1,962
206,9	7,076
207,4	4,933
207,8	0,562
208,3	-0,952
208,8	2,248
209,2	8,676
209,7	10,448
210,2	7,105
210,6	5,362
211,1	12,676
211,5	11,076
212	11,819
212,5	6,076
212,9	5,676
213,4	5,39
213,9	6,962
214,3	4,39
214,8	6,762
215,3	4,19
215,7	5,819
216,2	5,59
216,7	7,762
217,1	5,419
217,6	2,248
218,1	3,048
218,5	6,79
219	8,333
219,5	12,905
219,9	8,19
220,4	17,333
220,9	17,305
221,3	15,076
221,8	12,562
222,3	12,133
222,7	12,448
223,2	9,848
223,6	5,419
224,1	7,076
224,6	8,448
225	10,59
225,5	7,848
226	3,505
226,4	10,848
226,9	9,162
227,4	12,048
227,8	12,276
228,3	7,762
228,8	9,876
229,2	11,019
229,7	12,219
230,2	13,905
230,6	11,562
231,1	11,476
231,5	14,59
232	16,876
232,5	14,99
232,9	12,819
233,4	9,762
233,9	8,762
234,3	9,819
234,8	11,99
235,3	12,248
235,7	13,076
236,2	13,019
236,7	14,219
237,1	15,276
237,6	16,848
238,1	15,048
238,5	9,019
239	13,333
239,4	15,848
239,9	11,99
240,4	9,505
240,8	9,533
241,3	8,076
241,8	6,933
242,2	2,562
242,7	-0,981
243,2	8,876
243,6	13,819
244,1	8,619
244,6	6,705
245	11,276
245,5	10,876
245,9	15,248
246,4	8,562
246,9	5,619
247,3	10,848
247,8	11,733
248,3	17,705
248,7	16,333
249,2	13,533
249,7	18,39
250,1	17,99
250,6	14,99
251	13,133
251,5	6,676
252	5,076
252,4	1,876
252,9	2,79
253,4	3,933
253,8	3,676
254,3	7,79
254,8	12,476
255,2	16,048
255,7	16,39
256,1	11,533
256,6	7,733
257,1	7,705
257,5	6,59
258	3,848
258,5	5,962
258,9	5,733
259,4	8,648
259,9	8,762
260,3	6,276
260,8	6,419
261,2	7,505
261,7	4,619
262,2	8,505
262,6	6,79
263,1	8,448
263,6	8,048
264	8,39
264,5	8,19
264,9	6,419
265,4	2,819
265,9	2,048
266,3	0,105
266,8	0,533
267,3	0,962
267,7	-4,067
268,2	-3,924
268,7	-4,838
269,1	-6,01
269,6	-4,381
270	-6,524
270,5	-2,81
271	-2,152
271,4	-4,61
271,9	-3,352
272,4	-2,895
272,8	-2,324
273,3	-0,352
273,7	-2,352
274,2	3,219
274,7	6,39
275,1	6,99
275,6	10,105
276,1	12,59
276,5	14,705
277	13,19
277,4	10,99
277,9	9,962
278,4	9,79
278,8	7,248
279,3	4,762
279,8	4,733
280,2	3,79
280,7	5,419
281,1	4,99
281,6	2,248
282,1	2,276
282,5	3,533
283	4,105
283,4	3,648
283,9	2,19
284,4	2,448
284,8	6,39
285,3	2,476
285,8	1,076
286,2	-2,038
286,7	-0,381
287,1	-3,838
287,6	-1,152
288,1	-4,095
288,5	-0,238
289	-0,838
289,5	2,362
289,9	3,276
290,4	5,848
290,8	4,905
291,3	6,419
291,8	4,905
292,2	6,019
292,7	2,733
293,1	0,848
293,6	-4,324
294,1	-1,781
294,5	0,905
295	2,19
295,5	4,276
295,9	7,39
296,4	8,762
296,8	13,762
297,3	16,019
297,8	19,562
298,2	18,219
298,7	14,648
299,1	17,562
299,6	16,733
300,1	18,619
300,5	13,848
301	13,362
301,5	16,305
301,9	17,019
302,4	13,219
302,8	15,19
303,3	15,419
303,8	20,819
304,2	14,333
304,7	9,19
305,1	7,305
305,6	6,248
306,1	2,305
306,5	-7,724
307	-12,152
307,4	-11,752
307,9	-7,295
308,4	-4,867
308,8	-4,552
309,3	1,305
309,8	10,448
310,2	7,99
310,7	6,333
311,1	5,133
311,6	4,99
312,1	4,848
312,5	0,019
313	-2,124
313,4	1,048
313,9	5,533
314,4	5,562
314,8	8,619
315,3	7,933
315,7	7,648
316,2	4,705
316,7	5,733
317,1	2,562
317,6	1,105
318	-2,981
318,5	-2,467
319	0,133
319,4	8,619
319,9	3,248
320,3	8,762
320,8	9,59
321,3	8,305
321,7	9,848
322,2	6,448
322,6	3,562
323,1	4,905
323,6	-0,295
324	-2,067
324,5	0,762
324,9	2,733
325,4	1,248
325,9	0,105
326,3	2,133
326,8	1,762
327,2	3,905
327,7	5,562
328,2	3,848
328,6	8,848
329,1	4,19
329,5	3,448
330	5,762
330,5	11,19
330,9	8,99
331,4	10,476
331,8	8,133
332,3	13,105
332,8	14,362
333,2	14,59
333,7	7,733
334,1	6,362
334,6	6,162
335,1	7,933
335,5	7,533
336	9,819
336,4	9,133
336,9	14,533
337,4	15,876
337,8	13,619
338,3	14,476
338,7	8,59
339,2	0,733
339,7	-2,924
340,1	-6,467
340,6	-3,924
341	-0,238
341,5	-1,352
342	2,905
342,4	3,39
342,9	7,048
343,3	8,619
343,8	10,676
344,2	10,276
344,7	7,076
345,2	6,59
345,6	10,733
346,1	5,333
346,5	7,962
347	3,933
347,5	2,876
347,9	3,762
348,4	4,105
348,8	5,676
349,3	8,133
349,8	6,476
350,2	10,276
350,7	10,076
351,1	15,562
351,6	20,648
352	22,048
352,5	31,248
353	35,733
353,4	42,648
353,9	55,79
354,3	71,619
354,8	79,962
355,3	101,619
355,7	119,933
356,2	138,876
356,6	161,505
357,1	185,819
357,5	209,076
358	251,162
358,5	284,305
358,9	333,305
359,4	390,505
359,8	446,39
360,3	511,019
360,8	590,048
361,2	667,505
361,7	765,133
362,1	862,705
362,6	974,39
363	1101,076
363,5	1228,705
364	1357,733
364,4	1495,705
364,9	1631,99
365,3	1767,59
365,8	1899,162
366,3	2015,133
366,7	2117,733
367,2	2211,59
367,6	2289,905
368,1	2346,905
368,5	2377,99
369	2383,219
369,5	2380,562
369,9	2370,448
370,4	2332,79
370,8	2276,648
371,3	2205,648
371,7	2130,019
372,2	2050,848
372,7	1956,419
373,1	1851,533
373,6	1740,762
374	1633,648
374,5	1525,762
374,9	1424,476
375,4	1320,676
375,9	1223,59
376,3	1123,933
376,8	1041,962
377,2	960,705
377,7	887,048
378,2	814,933
378,6	748,905
379,1	683,848
379,5	630,448
380	575,219
380,4	529,276
380,9	485,448
381,4	444,476
381,8	407,076
382,3	379,59
382,7	351,962
383,2	324,019
383,6	300,99
384,1	282,648
384,6	261,733
385	247,962
385,5	229,59
385,9	215,276
386,4	209,19
386,8	191,933
387,3	175,362
387,7	167,933
388,2	152,933
388,7	143,619
389,1	130,419
389,6	119,99
390	117,305
390,5	110,419
390,9	97,562
391,4	91,905
391,9	83,39
392,3	89,133
392,8	80,076
393,2	73,962
393,7	71,79
394,1	70,219
394,6	67,562
395,1	71,79
395,5	63,448
396	64,733
396,4	59,848
396,9	61,648
397,3	66,533
397,8	64,105
398,2	55,19
398,7	47,448
399,2	44,248
399,6	43,562
400,1	34,933
400,5	28,876
401	31,305
401,4	27,533
401,9	29,876
402,4	28,533
402,8	32,133
403,3	34,733
403,7	35,619
404,2	34,705
404,6	39,676
405,1	42,476
405,5	44,505
406	44,876
406,5	44,505
406,9	48,876
407,4	47,19
407,8	49,133
408,3	49,39
408,7	46,905
409,2	43,99
409,6	44,819
410,1	44,819
410,6	41,333
411	39,105
411,5	35,305
411,9	39,59
412,4	43,419
412,8	46,448
413,3	42,99
413,7	49,619
414,2	50,333
414,7	53,933
415,1	55,276
415,6	57,619
416	63,248
416,5	72,619
416,9	81,019
417,4	89,533
417,8	97,019
418,3	97,99
418,8	99,619
419,2	99,819
419,7	96,419
420,1	89,133
420,6	90,99
421	93,905
421,5	102,419
421,9	99,733
422,4	104,448
422,8	104,533
423,3	108,676
423,8	105,762
424,2	104,39
424,7	105,019
425,1	106,505
425,6	105,105
426	108,733
426,5	109,162
426,9	107,39
427,4	113,905
427,9	113,848
428,3	117,619
428,8	115,105
429,2	117,848
429,7	122,419
430,1	129,533
430,6	118,362
431	117,79
431,5	119,248
431,9	122,162
432,4	117,819
432,8	119,619
433,3	120,733
433,8	132,619
434,2	137,333
434,7	139,676
435,1	150,048
435,6	157,59
436	163,533
436,5	170,39
436,9	174,333
437,4	179,019
437,8	187,848
438,3	193,105
438,8	203,076
439,2	210,733
439,7	217,99
440,1	227,048
440,6	237,676
441	245,733
441,5	256,076
441,9	264,248
442,4	273,648
442,8	286,362
443,3	298,99
443,7	302,648
444,2	316,476
444,7	327,505
445,1	345,19
445,6	359,676
446	369,562
446,5	385,59
446,9	406,99
447,4	424,619
447,8	440,048
448,3	455,99
448,7	472,79
449,2	492,962
449,6	507,105
450,1	525,162
450,6	545,305
451	569,648
451,5	592,819
451,9	613,39
452,4	635,162
452,8	659,305
453,3	681,076
453,7	699,448
454,2	716,99
454,6	740,448
455,1	767,705
455,5	795,162
456	821,533
456,4	851,762
456,9	883,819
457,3	915,162
457,8	938,533
458,3	963,39
458,7	992,476
459,2	1024,733
459,6	1057,562
460,1	1090,162
460,5	1119,79
461	1153,333
461,4	1191,419
461,9	1225,99
462,3	1260,562
462,8	1297,962
463,2	1334,105
463,7	1374,933
464,1	1407,99
464,6	1445,019
465	1480,819
465,5	1517,39
466	1558,105
466,4	1595,848
466,9	1634,133
467,3	1681,448
467,8	1724,105
468,2	1768,419
468,7	1812,505
469,1	1850,448
469,6	1886,533
470	1931,819
470,5	1970,905
470,9	2011,105
471,4	2051,362
471,8	2091,333
472,3	2126,676
472,7	2172,333
473,2	2207,476
473,6	2248,533
474,1	2285,562
474,5	2324,362
475	2367,705
475,4	2412,333
475,9	2452,39
476,4	2491,733
476,8	2537,476
477,3	2577,876
477,7	2622,962
478,2	2663,505
478,6	2705,905
479,1	2745,305
479,5	2787,419
480	2825,476
480,4	2857,505
480,9	2889,39
481,3	2922,362
481,8	2957,076
482,2	2994,648
482,7	3031,419
483,1	3059,533
483,6	3103,305
484	3136,533
484,5	3167,905
484,9	3200,848
485,4	3234,562
485,8	3258,333
486,3	3282,962
486,7	3305,619
487,2	3338,048
487,6	3363,19
488,1	3385,762
488,5	3410,533
489	3445,848
489,4	3479,962
489,9	3508,79
490,4	3524,79
490,8	3550,076
491,3	3570,39
491,7	3589,79
492,2	3602,962
492,6	3621,333
493,1	3641,505
493,5	3666,019
494	3687,476
494,4	3706,676
494,9	3724,133
495,3	3740,162
495,8	3757,333
496,2	3778,819
496,7	3792,848
497,1	3803,476
497,6	3823,933
498	3837,99
498,5	3851,762
498,9	3868,648
499,4	3868,819
499,8	3883,79
500,3	3901,819
500,7	3907,133
501,2	3921,876
501,6	3937,476
502,1	3941,19
502,5	3958,305
503	3968,79
503,4	3979,162
503,9	3990,333
504,3	4001,362
504,8	4012,905
505,2	4027,99
505,7	4032,962
506,1	4034,248
506,6	4033,933
507	4042,762
507,5	4041,562
507,9	4046,162
508,4	4049,019
508,8	4060,048
509,3	4071,019
509,7	4081,99
510,2	4090,162
510,6	4091,133
511,1	4099,933
511,5	4106,648
512	4109,648
512,4	4119,019
512,9	4123,962
513,3	4122,505
513,8	4143,048
514,2	4147,962
514,7	4155,962
515,1	4161,076
515,6	4166,676
516	4166,819
516,5	4170,533
516,9	4173,162
517,4	4170,505
517,8	4173,133
518,3	4184,619
518,7	4191,733
519,2	4205,962
519,6	4216,876
520,1	4221,962
520,5	4229,333
521	4231,476
521,4	4235,905
521,9	4234,648
522,3	4234,705
522,8	4239,533
523,2	4247,505
523,7	4260,876
524,1	4268,19
524,6	4269,305
525	4281,105
525,5	4291,448
525,9	4297,133
526,4	4299,79
526,8	4300,019
527,3	4309,933
527,7	4323,105
528,2	4325,848
528,6	4331,733
529,1	4348,19
529,5	4358,962
530	4367,933
530,4	4381,99
530,9	4392,076
531,3	4403,133
531,8	4408,762
532,2	4411,505
532,6	4423,019
533,1	4427,905
533,5	4425,248
534	4420,933
534,4	4425,676
534,9	4437,419
535,3	4452,705
535,8	4461,79
536,2	4476,676
536,7	4490,219
537,1	4506,533
537,6	4525,933
538	4536,105
538,5	4544,79
538,9	4549,305
539,4	4560,79
539,8	4570,705
540,3	4584,162
540,7	4581,962
541,2	4594,219
541,6	4595,705
542,1	4605,533
542,5	4613,305
543	4628,733
543,4	4633,048
543,9	4651,848
544,3	4661,762
544,8	4675,105
545,2	4680,562
545,7	4685,19
546,1	4687,533
546,5	4698,219
547	4705,562
547,4	4712,39
547,9	4719,276
548,3	4734,79
548,8	4747,848
549,2	4755,848
549,7	4767,276
550,1	4771,876
550,6	4784,248
551	4790,333
551,5	4795,133
551,9	4805,819
552,4	4816,99
552,8	4828,19
553,3	4833,419
553,7	4837,933
554,2	4853,59
554,6	4866,533
555,1	4870,79
555,5	4875,99
555,9	4876,676
556,4	4888,848
556,8	4897,048
557,3	4909,419
557,7	4916,933
558,2	4928,562
558,6	4937,162
559,1	4949,048
559,5	4959,219
560	4969,19
560,4	4968,933
560,9	4971,562
561,3	4977,648
561,8	4989,876
562,2	4997,876
562,7	4997,476
563,1	5007,448
563,6	5014,419
564	5026,362
564,4	5030,476
564,9	5030,705
565,3	5026,248
565,8	5040,505
566,2	5042,276
566,7	5046,819
567,1	5046,019
567,6	5049,848
568	5051,276
568,5	5056,048
568,9	5051,648
569,4	5049,876
569,8	5048,505
570,3	5054,162
570,7	5057,533
571,1	5064,762
571,6	5068,876
572	5073,59
572,5	5070,133
572,9	5071,619
573,4	5067,99
573,8	5067,905
574,3	5065,333
574,7	5065,276
575,2	5056,762
575,6	5065,562
576,1	5071,419
576,5	5074,448
576,9	5070,648
577,4	5067,933
577,8	5064,99
578,3	5066,905
578,7	5057,648
579,2	5041,905
579,6	5034,448
580,1	5029,79
580,5	5030,619
581	5025,533
581,4	5025,705
581,9	5024,933
582,3	5025,505
582,7	5015,562
583,2	5017,333
583,6	5003,705
584,1	4995,848
584,5	4982,848
585	4973,105
585,4	4957,19
585,9	4946,219
586,3	4931,19
586,8	4920,676
587,2	4919,076
587,6	4914,39
588,1	4909,305
588,5	4904,619
589	4904,876
589,4	4891,59
589,9	4887,19
590,3	4866,505
590,8	4852,419
591,2	4848,648
591,7	4847,19
592,1	4840,876
592,5	4839,619
593	4832,962
593,4	4835,733
593,9	4834,448
594,3	4818,848
594,8	4811,419
595,2	4802,905
595,7	4795,076
596,1	4784,59
596,6	4770,533
597	4760,933
597,4	4754,133
597,9	4743,305
598,3	4731,533
598,8	4723,905
599,2	4716,933
599,7	4714,219
600,1	4708,39
600,6	4696,419
601	4689,333
601,4	4678,476
601,9	4664,219
602,3	4648,162
602,8	4639,133
603,2	4624,248
603,7	4615,733
604,1	4601,19
604,6	4584,962
605	4573,362
605,4	4571,076
605,9	4551,448
606,3	4536,448
606,8	4521,619
607,2	4510,819
607,7	4500,905
608,1	4491,705
608,6	4475,505
609	4463,79
609,4	4451,533
609,9	4437,048
610,3	4422,19
610,8	4410,076
611,2	4396,733
611,7	4374,59
612,1	4361,648
612,6	4345,562
613	4328,648
613,4	4306,019
613,9	4295,19
614,3	4280,105
614,8	4274,362
615,2	4256,619
615,7	4249,448
616,1	4239,105
616,6	4238,619
617	4212,019
617,4	4189,362
617,9	4173,19
618,3	4156,819
618,8	4139,076
619,2	4116,562
619,7	4099,533
620,1	4092,39
620,5	4080,619
621	4055,648
621,4	4041,562
621,9	4022,848
622,3	4011,219
622,8	3990,333
623,2	3967,305
623,6	3945,048
624,1	3932,019
624,5	3911,962
625	3890,676
625,4	3871,276
625,9	3851,762
626,3	3842,59
626,8	3828,962
627,2	3817,562
627,6	3802,162
628,1	3785,448
628,5	3768,133
629	3745,19
629,4	3718,505
629,9	3698,762
630,3	3674,962
630,7	3658,876
631,2	3634,533
631,6	3617,276
632,1	3603,048
632,5	3584,505
633	3563,59
633,4	3543,819
633,8	3520,905
634,3	3507,505
634,7	3489,105
635,2	3470,648
635,6	3455,562
636,1	3439,705
636,5	3420,619
636,9	3404,705
637,4	3392,048
637,8	3371,448
638,3	3351,705
638,7	3330,162
639,2	3313,762
639,6	3302,019
640	3284,419
640,5	3259,733
640,9	3241,848
641,4	3224,162
641,8	3216,162
642,2	3201,99
642,7	3186,076
643,1	3164,619
643,6	3154,676
644	3142,048
644,5	3135,648
644,9	3114,848
645,3	3092,19
645,8	3071,448
646,2	3060,99
646,7	3039,476
647,1	3017,533
647,6	2996,505
648	2981,19
648,4	2973,333
648,9	2958,819
649,3	2944,19
649,8	2935,505
650,2	2926,59
650,6	2914,762
651,1	2899,676
651,5	2879,962
652	2866,876
652,4	2852,562
652,9	2828,362
653,3	2814,219
653,7	2797,705
654,2	2783,933
654,6	2767,733
655,1	2748,333
655,5	2730,905
655,9	2722,162
656,4	2701,762
656,8	2683,133
657,3	2666,848
657,7	2657,333
658,2	2649,248
658,6	2636,848
659	2619,076
659,5	2601,476
659,9	2580,79
660,4	2558,99
660,8	2539,019
661,2	2512,248
661,7	2501,705
662,1	2488,59
662,6	2477,476
663	2465,876
663,4	2454,448
663,9	2435,362
664,3	2434,048
664,8	2405,59
665,2	2389,248
665,6	2371,905
666,1	2358,933
666,5	2343,933
667	2331,419
667,4	2311,505
667,9	2307,705
668,3	2292,533
668,7	2280,562
669,2	2262,305
669,6	2250,533
670,1	2241,505
670,5	2223,105
670,9	2203,705
671,4	2196,105
671,8	2181,876
672,3	2174,819
672,7	2159,59
673,1	2138,505
673,6	2118,848
674	2104,933
674,5	2081,19
674,9	2065,762
675,3	2042,276
675,8	2027,219
676,2	2014,048
676,7	2005,676
677,1	1990,562
677,5	1981,476
678	1971,076
678,4	1961,962
678,9	1947,133
679,3	1937,333
679,7	1929,79
680,2	1918,905
680,6	1909,848
681,1	1895,362
681,5	1882,39
681,9	1870,533
682,4	1857,876
682,8	1841,79
683,3	1833,99
683,7	1818,676
684,1	1806,276
684,6	1795,562
685	1787,648
685,5	1779,733
685,9	1768,419
686,3	1754,505
686,8	1743,219
687,2	1735,876
687,7	1722,133
688,1	1707,076
688,5	1692,39
689	1679,819
689,4	1667,019
689,9	1653,619
690,3	1644,79
690,7	1633,019
691,2	1619,162
691,6	1607,705
692	1597,819
692,5	1590,448
692,9	1579,819
693,4	1557,933
693,8	1554,133
694,2	1543,19
694,7	1531,533
695,1	1526,305
695,6	1513,876
696	1506,362
696,4	1508,133
696,9	1496,476
697,3	1486,819
697,8	1479,733
698,2	1466,419
698,6	1455,79
699,1	1445,99
699,5	1427,448
699,9	1420,333
700,4	1418,19
700,8	1406,533
701,3	1396,848
701,7	1389,962
702,1	1377,733
702,6	1367,076
703	1354,305
703,5	1338,076
703,9	1326,362
704,3	1316,705
704,8	1306,562
705,2	1300,076
705,6	1296,848
706,1	1283,962
706,5	1279,162
707	1274,048
707,4	1268,505
707,8	1252,505
708,3	1243,248
708,7	1229,162
709,2	1224,733
709,6	1211,305
710	1203,676
710,5	1190,905
710,9	1189,676
711,3	1178,19
711,8	1172,562
712,2	1167,533
712,7	1161,762
713,1	1151,876
713,5	1139,905
714	1128,99
714,4	1118,448
714,8	1107,619
715,3	1095,219
715,7	1086,648
716,2	1077,733
716,6	1071,39
717	1064,448
717,5	1058,448
717,9	1050,19
718,3	1043,448
718,8	1041,876
719,2	1033,448
719,7	1027,905
720,1	1016,248
720,5	1012,619
721	1008,019
721,4	999,762
721,8	989,848
722,3	984,076
722,7	975,962
723,2	968,362
723,6	957,619
724	947,019
724,5	936,048
724,9	931,219
725,3	922,79
725,8	917,848
726,2	909,019
726,7	905,819
727,1	901,59
727,5	896,59
728	887,019
728,4	883,333
728,8	870,705
729,3	871,99
729,7	866,762
730,1	859,819
730,6	854,048
731	850,162
731,5	839,676
731,9	840,619
732,3	834,79
732,8	826,505
733,2	825,162
733,6	824,905
734,1	819,762
734,5	818,79
734,9	807,219
735,4	800,162
735,8	792,848
736,3	785,305
736,7	772,305
737,1	764,705
737,6	759,99
738	760,362
738,4	755,676
738,9	754,733
739,3	753,933
739,7	753,305
740,2	748,819
740,6	743,676
741,1	736,99
741,5	732,648
741,9	727,762
742,4	718,505
742,8	711,848
743,2	708,333
743,7	702,562
744,1	700,276
744,5	699,476
745	691,419
745,4	687,99
745,8	685,962
746,3	678,819
746,7	674,362
747,2	667,533
747,6	659,419
748	658,762
748,5	654,648
748,9	647,162
749,3	642,676
749,8	635,019
750,2	634,019
750,6	631,933
751,1	627,162
751,5	620,562
751,9	616,705
752,4	614,648
752,8	613,648
753,3	604,59
753,7	594,676
754,1	587,562
754,6	586,105
755	586,59
755,4	586,133
755,9	582,248
756,3	584,505
756,7	584,848
757,2	583,076
757,6	576,162
758	567,448
758,5	561,448
758,9	553,476
759,3	543,619
759,8	537,905
760,2	535,162
760,6	531,79
761,1	529,133
761,5	528,39
761,9	529,733
762,4	526,733
762,8	522,676
763,3	520,305
763,7	513,848
764,1	514,133
764,6	506,419
765	497,362
765,4	498,676
765,9	494,962
766,3	489,705
766,7	487,676
767,2	480,733
767,6	476,848
768	477,762
768,5	470,219
768,9	467,333
769,3	457,648
769,8	458,933
770,2	451,533
770,6	448,819
771,1	442,248
771,5	439,505
771,9	439,162
772,4	440,848
772,8	434,819
773,2	437,705
773,7	430,648
774,1	429,305
774,5	423,705
775	415,105
775,4	411,362
775,8	407,162
776,3	402,562
776,7	399,305
777,1	397,819
777,6	395,505
778	397,305
778,4	396,19
778,9	396,133
779,3	390,105
779,7	388,162
780,2	390,419
780,6	386,39
781	381,048
781,5	377,048
781,9	378,476
782,3	377,676
782,8	378,933
783,2	372,019
783,6	375,333
784,1	372,333
784,5	370,905
784,9	364,105
785,4	361,219
785,8	356,476
786,2	349,19
786,7	344,619
787,1	347,248
787,5	344,162
788	340,705
788,4	340,076
788,8	337,619
789,3	338,476
789,7	336,59
790,1	328,533
790,6	326,133
791	324,419
791,4	324,076
791,9	320,676
792,3	323,648
792,7	316,448
793,2	313,762
793,6	311,733
794	309,933
794,5	303,733
794,9	303,848
795,3	299,933
795,8	301,305
796,2	301,076
796,6	299,762
797,1	288,848
797,5	287,962
797,9	285,905
798,4	278,933
798,8	277,219
799,2	276,79
799,7	272,562
800,1	274,105
800,5	270,419
801	268,105
801,4	271,562
801,8	266,048
802,2	266,105
802,7	264,79
803,1	267,562
803,5	266,962
804	263,162
804,4	255,762
804,8	257,219
805,3	254,619
805,7	251,848
806,1	248,019
806,6	245,905
807	245,19
807,4	243,39
807,9	241,905
808,3	234,848
808,7	231,876
809,2	228,79
809,6	228,476
810	224,619
810,4	224,59
810,9	219,105
811,3	222,248
811,7	225,762
812,2	225,905
812,6	220,648
813	218,105
813,5	215,733
813,9	217,076
814,3	209,105
814,8	205,99
815,2	206,533
815,6	202,905
816,1	201,076
816,5	201,59
816,9	194,733
817,3	200,448
817,8	200,419
818,2	196,905
818,6	197,076
819,1	196,905
819,5	193,048
819,9	199,933
820,4	194,39
820,8	184,819
821,2	186,419
821,7	190,79
822,1	188,333
822,5	187,39
822,9	180,076
823,4	181,19
823,8	184,59
824,2	178,962
824,7	174,705
825,1	170,533
825,5	163,905
826	165,362
826,4	162,305
826,8	156,933
827,3	161,248
827,7	162,19
828,1	166,848
828,5	168,39
829	166,648
829,4	161,619
829,8	163,305
830,3	158,305
830,7	153,619
831,1	154,848
831,6	157,676
832	158,048
832,4	156,933
832,8	152,676
833,3	152,248
833,7	146,476
834,1	142,905
834,6	137,848
835	134,39
835,4	132,848
835,8	135,933
836,3	132,962
836,7	137,048
837,1	131,648
837,6	128,419
838	127,705
838,4	131,162
838,9	127,533
839,3	128,305
839,7	128,733
840,1	125,59
840,6	128,276
841	131,448
841,4	130,762
841,9	128,619
842,3	124,533
842,7	122,105
843,1	124,533
843,6	120,762
844	117,048
844,4	113,276
844,9	112,819
845,3	115,133
845,7	112,905
846,2	112,248
846,6	114,848
847	114,019
847,4	109,076
847,9	109,562
848,3	107,19
848,7	103,733
849,2	102,59
849,6	95,048
850	94,305
850,4	98,476
850,9	97,819
851,3	98,048
851,7	95,733
852,2	94,219
852,6	94,219
853	89,448
853,4	89,705
853,9	91,248
854,3	88,219
854,7	92,648
855,2	94,819
855,6	97,819
856	95,19
856,4	95,562
856,9	89,305
857,3	86,133
857,7	85,476
858,2	79,59
858,6	74,648
859	75,962
859,4	73,333
859,9	79,79
860,3	77,762
860,7	79,762
861,1	83,562
861,6	90,276
862	88,505
862,4	85,39
862,9	82,648
863,3	81,533
863,7	81,39
864,1	78,676
864,6	76,133
865	80,162
865,4	80,505
865,9	76,105
866,3	82,79
866,7	79,79
867,1	79,048
867,6	81,59
868	83,133
868,4	82,848
868,8	84,276
869,3	82,305
869,7	77,79
870,1	80,99
870,6	71,533
871	64,305
871,4	65,99
871,8	64,333
872,3	62,733
872,7	64,933
873,1	61,048
873,5	67,105
874	66,019
874,4	59,562
874,8	63,219
875,3	63,019
875,7	62,448
876,1	59,133
876,5	54,533
877	55,619
877,4	57,562
877,8	55,762
878,2	51,79
878,7	52,505
879,1	54,019
879,5	50,733
879,9	52,133
880,4	58,076
880,8	56,933
881,2	58,305
881,7	51,962
882,1	52,105
882,5	59,448
882,9	57,476
883,4	54,419
883,8	54,105
884,2	53,048
884,6	57,162
885,1	58,305
885,5	54,733
885,9	55,762
886,3	54,39
886,8	52,276
887,2	49,076
887,6	46,476
888	45,619
888,5	45,933
888,9	46,533
889,3	45,076
889,8	48,59
890,2	50,962
890,6	48,419
891	47,476
891,5	49,105
891,9	47,619
892,3	46,733
892,7	43,305
893,2	47,533
893,6	49,419
894	49,533
894,4	43,962
894,9	39,448
895,3	39,076
895,7	36,105
896,1	32,362
896,6	36,362
897	34,276
897,4	39,762
897,8	44,676
898,3	44,276
898,7	44,476
899,1	43,905
899,5	42,219
900	42,819
900,4	42,305
900,8	40,99
901,2	42,905
901,7	42,876
902,1	49,333
902,5	47,419
902,9	44,048
903,4	40,733
903,8	41,39
904,2	39,648
904,6	40,076
905,1	36,733
905,5	38,876
905,9	40,933
906,3	40,133
906,8	39,133
907,2	37,105
907,6	38,505
908	33,99
908,5	29,59
908,9	30,362
909,3	33,962
909,7	37,562
910,2	38,448
910,6	33,162
911	28,533
911,4	30,562
911,9	28,762
912,3	23,19
912,7	14,762
913,1	12,99
913,6	12,876
914	17,476
914,4	14,333
914,8	15,962
915,3	17,676
915,7	22,733
916,1	25,648
916,5	30,162
916,9	30,048
917,4	31,362
917,8	30,562
918,2	28,99
918,6	29,105
919,1	26,019
919,5	22,762
919,9	26,048
920,3	24,676
920,8	25,933
921,2	26,076
921,6	27,076
922	28,048
922,5	29,848
922,9	27,219
923,3	29,676
923,7	28,419
924,2	28,162
924,6	23,448
925	25,076
925,4	28,333
925,8	30,39
926,3	31,99
926,7	31,019
927,1	33,848
927,5	38,133
928	35,048
928,4	30,248
928,8	24,448
929,2	22,59
929,7	26,19
930,1	27,019
930,5	27,162
930,9	25,905
931,3	29,19
931,8	29,59
932,2	29,533
932,6	27,019
933	25,305
933,5	24,248
933,9	25,79
934,3	22,105
934,7	20,762
935,2	20,648
935,6	19,448
936	12,619
936,4	13,105
936,8	16,505
937,3	13,476
937,7	16,848
938,1	10,762
938,5	9,933
939	15,562
939,4	10,533
939,8	8,533
940,2	10,876
940,6	7,505
941,1	10,59
941,5	10,819
941,9	14,505
942,3	11,848
942,8	14,648
943,2	20,248
943,6	22,676
944	21,676
944,4	25,076
944,9	22,562
945,3	26,39
945,7	19,076
946,1	12,505
946,6	15,705
947	16,962
947,4	10,39
947,8	9,505
948,2	9,448
948,7	10,048
949,1	14,79
949,5	13,733
949,9	13,59
950,3	16,848
950,8	19,733
951,2	21,276
951,6	26,276
952	21,648
952,5	16,648
952,9	17,305
953,3	17,762
953,7	13,333
954,1	13,019
954,6	6,762
955	9,448
955,4	13,705
955,8	16,676
956,2	17,848
956,7	17,533
957,1	16,476
957,5	20,448
957,9	20,39
958,3	13,619
958,8	11,733
959,2	10,876
959,6	8,362
960	8,848
960,5	5,819
960,9	7,962
961,3	10,79
961,7	9,619
962,1	9,362
962,6	13,105
963	12,219
963,4	17,276
963,8	17,105
964,2	18,99
964,7	19,59
965,1	13,076
965,5	13,419
965,9	14,076
966,3	8,676
966,8	5,333
967,2	3,276
967,6	1,505
968	3,533
968,4	3,248
968,9	3,276
969,3	-0,438
969,7	-0,21
970,1	0,619
970,5	1,905
971	1,962
971,4	1,933
971,8	-4,124
972,2	4,333
972,6	4,79
973,1	5,105
973,5	3,819
973,9	2,962
974,3	3,276
974,7	11,648
975,2	7,476
975,6	8,419
976	10,333
976,4	10,219
976,8	11,819
977,3	12,876
977,7	8,19
978,1	8,676
978,5	5,99
978,9	1,19
979,4	4,562
979,8	5,248
980,2	-1,038
980,6	-0,181
981	-1,438
981,5	1,648
981,9	5,79
982,3	6,305
982,7	8,562
983,1	10,133
983,6	9,39
984	6,619
984,4	5,59
984,8	6,333
985,2	3,105
985,6	-0,838
986,1	-0,838
986,5	1,819
986,9	4,533
987,3	2,248
987,7	4,362
988,2	5,99
988,6	10,419
989	9,99
989,4	9,705
989,8	11,048
990,3	9,533
990,7	7,276
991,1	7,676
991,5	5,362
991,9	6,419
992,3	3,79
992,8	2,676
993,2	5,333
993,6	5,362
994	1,133
994,4	4,533
994,9	7,79
995,3	13,619
995,7	13,733
996,1	12,048
996,5	9,362
996,9	10,79
997,4	8,619
997,8	8,476
998,2	1,848
998,6	3,219
999	5,448
999,5	5,762
999,9	7,248
1000,3	9,962
1000,7	13,219
1001,1	14,619
1001,5	16,105
1002	15,676
1002,4	19,133
1002,8	18,819
1003,2	18,362
1003,6	15,162
1004	14,933
1004,5	12,59
1004,9	14,019
1005,3	11,133
1005,7	8,333
1006,1	7,162
1006,6	1,39
1007	0,648
1007,4	-1,095
1007,8	3,39
1008,2	4,562
1008,6	8,59
1009,1	9,048
1009,5	8,962
1009,9	13,333
1010,3	13,59
1010,7	6,619
1011,1	8,848
1011,6	10,962
1012	8,79
1012,4	15,562
1012,8	7,848
1013,2	13,419
1013,6	15,848
1014,1	12,362
1014,5	9,019
1014,9	8,333
1015,3	4,562
1015,7	8,99
1016,1	2,476
1016,6	-0,295
1017	3,79
1017,4	3,39
1017,8	2,219
1018,2	4,905
1018,6	7,333
1019,1	10,562
1019,5	14,219
1019,9	13,105
1020,3	16,076
1020,7	18,305
1021,1	14,733
1021,6	7,505
1022	5,933
1022,4	5,962
1022,8	-0,352
1023,2	-4,095
1023,6	-3,81
1024,1	-3,952
1024,5	0,162
1024,9	3,105
1025,3	1,79
1025,7	5,305
1026,1	10,99
1026,6	10,676
1027	11,476
1027,4	16,962
1027,8	14,333
1028,2	10,99
1028,6	17,048
1029	11,219
1029,5	11,219
1029,9	12,048
1030,3	12,962
1030,7	15,19
1031,1	17,99
1031,5	14,848
1032	15,305
1032,4	16,19
1032,8	15,619
1033,2	12,419
1033,6	10,848
1034	12,505
1034,4	9,676
1034,9	11,39
1035,3	10,619
1035,7	10,648
1036,1	7,476
1036,5	8,019
1036,9	7,219
1037,4	10,276
1037,8	9,019
1038,2	7,619
1038,6	9,162
1039	12,448
1039,4	10,59
1039,8	6,733
1040,3	4,105
1040,7	3,905
1041,1	3,733
1041,5	4,362
1041,9	1,762
1042,3	2,39
1042,7	1,79
1043,2	4,876
1043,6	9,333
1044	13,619
1044,4	14,076
1044,8	13,59
1045,2	17,562
1045,6	21,076
1046,1	22,133
1046,5	18,676
1046,9	16,905
1047,3	14,619
1047,7	16,648
1048,1	16,019
1048,5	16,219
1049	15,79
1049,4	13,79
1049,8	13,59
1050,2	12,848
1050,6	15,048
1051	6,819
1051,4	5,619
1051,9	0,448
1052,3	2,105
1052,7	2,619
1053,1	5,533
1053,5	1,762
1053,9	12,076
1054,3	6,876
1054,8	6,162
1055,2	2,676
1055,6	2,733
1056	-0,438
1056,4	4,219
1056,8	2,248
1057,2	7,505
1057,6	11,333
1058,1	17,619
1058,5	13,419
1058,9	12,733
1059,3	12,476
1059,7	10,876
1060,1	7,59
1060,5	7,505
1061	3,99
1061,4	11,048
1061,8	10,219
1062,2	5,276
1062,6	6,333
1063	10,076
1063,4	7,933
1063,8	7,19
1064,3	1,762
1064,7	4,562
1065,1	4,333
1065,5	7,99
1065,9	8,448
1066,3	10,276
1066,7	10,162
1067,1	9,705
1067,6	14,533
1068	16,133
1068,4	13,019
1068,8	8,276
1069,2	5,333
1069,6	4,648
1070	6,476
1070,4	5,648
1070,9	5,276
1071,3	6,219
1071,7	12,79
1072,1	12,162
1072,5	12,248
1072,9	13,59
1073,3	11,905
1073,7	14,476
1074,2	11,762
1074,6	5,419
1075	9,019
1075,4	9,676
1075,8	7,448
1076,2	4,962
1076,6	6,79
1077	3,676
1077,5	8,705
1077,9	6,962
1078,3	5,876
1078,7	5,362
1079,1	7,419
1079,5	2,276
1079,9	4,933
1080,3	0,59
1080,7	4,048
1081,2	7,276
1081,6	5,505
1082	3,648
1082,4	3,362
1082,8	6,019
1083,2	8,59
1083,6	3,819
1084	1,648
1084,5	6,762
1084,9	3,362
1085,3	4,648
1085,7	3,333
1086,1	0,79
1086,5	-0,695
1086,9	-1,381
1087,3	-6,152
1087,7	-1,352
1088,2	-0,667
1088,6	-1,61
1089	0,248
1089,4	1,248
1089,8	2,276
1090,2	0,933
1090,6	-1,267
1091	-0,152
1091,4	2,448
1091,9	5,248
1092,3	8,533
1092,7	9,705
1093,1	10,962
1093,5	11,99
1093,9	10,619
1094,3	7,819
1094,7	3,333
1095,1	8,105
1095,5	5,79
1096	6,648
1096,4	5,905
1096,8	6,705
1097,2	6,505
1097,6	9,019
1098	2,19
1098,4	2,648
1098,8	4,648
1099,2	3,19
1099,6	2,276
1100,1	1,019
1100,5	3,476
1100,9	6,333
1101,3	8,133
1101,7	5,79
1102,1	11,476
1102,5	8,705
1102,9	8,562
1103,3	8,533
1103,7	6,019
1104,2	9,19
1104,6	14,648
1105	9,962
1105,4	13,962
1105,8	15,105
1106,2	11,876
1106,6	11,276
1107	7,162
1107,4	3,533
1107,8	4,253
1108,3	0,633
