Data from Subt2_00021.txt Node
Date: Mon Aug 28 13:10:36 MSK 2023
User: vat
Spectrometer: MAYP114033
Trigger mode: 0
Integration Time (sec): 1,000000E0
Scans to average: 5
Electric dark correction enabled: true
Nonlinearity correction enabled: false
Boxcar width: 3
XAxis mode: Wavelengths
Number of Pixels in Spectrum: 2068
>>>>>Begin Spectral Data<<<<<
199,4	-0,5
199,9	2,26
200,4	2,733
200,8	3,929
201,3	2,929
201,8	7,014
202,2	7,871
202,7	10,986
203,2	10,414
203,6	10,9
204,1	11,471
204,6	15,329
205	13,814
205,5	14,5
206	11,671
206,4	11,5
206,9	13,9
207,4	14,729
207,8	8,643
208,3	9,243
208,8	11,5
209,2	14,529
209,7	15,357
210,2	7,157
210,6	7,329
211,1	10,957
211,5	10,957
212	9,1
212,5	10,1
212,9	10,929
213,4	16,986
213,9	19,071
214,3	18,529
214,8	16,614
215,3	17,671
215,7	17,9
216,2	16,786
216,7	15,5
217,1	10,986
217,6	12,157
218,1	8,329
218,5	4,929
219	1,586
219,5	2,986
219,9	2,471
220,4	2,214
220,9	4,329
221,3	8,414
221,8	14,471
222,3	15,471
222,7	16,1
223,2	19,414
223,6	19,814
224,1	20,329
224,6	20,671
225	14,586
225,5	18,671
226	18,271
226,4	15,729
226,9	17,443
227,4	18,5
227,8	17,757
228,3	18,671
228,8	17,729
229,2	22,3
229,7	21,929
230,2	19,043
230,6	15,843
231,1	18,157
231,5	18,843
232	19,757
232,5	15,557
232,9	17,071
233,4	19,329
233,9	19,157
234,3	19,814
234,8	19,957
235,3	11,157
235,7	6,243
236,2	3,129
236,7	0,386
237,1	7,614
237,6	8,1
238,1	7,414
238,5	12,757
239	15,757
239,4	20,329
239,9	27,7
240,4	20,871
240,8	22,043
241,3	27,957
241,8	25,3
242,2	26,843
242,7	28,357
243,2	23,586
243,6	28,471
244,1	24,471
244,6	20,957
245	26,586
245,5	27,786
245,9	23,471
246,4	25,643
246,9	21,786
247,3	21,586
247,8	21,786
248,3	17,157
248,7	16,614
249,2	14,071
249,7	12,043
250,1	7,557
250,6	9,243
251	3,671
251,5	5,7
252	0,1
252,4	2,843
252,9	-0,386
253,4	5,014
253,8	2,157
254,3	5,214
254,8	6,129
255,2	8,957
255,7	11,729
256,1	17,3
256,6	17,557
257,1	19,043
257,5	20,786
258	16,757
258,5	17,157
258,9	14,271
259,4	15,071
259,9	9,443
260,3	8,386
260,8	5,5
261,2	7,814
261,7	11,186
262,2	12,386
262,6	8,3
263,1	9,614
263,6	9,243
264	10,243
264,5	9,929
264,9	7,014
265,4	6,214
265,9	6,071
266,3	11,243
266,8	12,071
267,3	11,014
267,7	5,986
268,2	5,3
268,7	7,643
269,1	9,557
269,6	10,443
270	11,786
270,5	14,357
271	20,043
271,4	18,014
271,9	19,986
272,4	20,129
272,8	13,557
273,3	11,157
273,7	9,557
274,2	11,414
274,7	7,929
275,1	6,186
275,6	3,871
276,1	5,186
276,5	8,9
277	10,157
277,4	9,671
277,9	10,7
278,4	4,329
278,8	5,5
279,3	6,471
279,8	2,671
280,2	0,243
280,7	-3,3
281,1	0,243
281,6	8,443
282,1	6,557
282,5	6,5
283	7,557
283,4	10,014
283,9	11,214
284,4	15,871
284,8	10,414
285,3	15,929
285,8	17,671
286,2	14,243
286,7	15,786
287,1	17,843
287,6	16,757
288,1	21,929
288,5	18,329
289	20,386
289,5	25,443
289,9	26,786
290,4	27,3
290,8	25,386
291,3	20,7
291,8	20,043
292,2	15,157
292,7	13,9
293,1	8,471
293,6	2,786
294,1	4,329
294,5	6,443
295	7,757
295,5	9,814
295,9	9,671
296,4	8,129
296,8	12,586
297,3	11,243
297,8	8,043
298,2	7,243
298,7	6,329
299,1	6,643
299,6	9,329
300,1	5,5
300,5	2,929
301	7,1
301,5	5,329
301,9	6,529
302,4	1,757
302,8	2,214
303,3	5,329
303,8	6,1
304,2	-0,786
304,7	-0,329
305,1	-1,386
305,6	6,929
306,1	9,386
306,5	9,729
307	11,929
307,4	15,814
307,9	14,757
308,4	14,7
308,8	16,386
309,3	17,386
309,8	18,5
310,2	18,271
310,7	21,529
311,1	24,529
311,6	24,557
312,1	19,471
312,5	15,043
313	12,129
313,4	19,043
313,9	17,471
314,4	17,671
314,8	18,043
315,3	22,357
315,7	26,386
316,2	30,757
316,7	21,214
317,1	21,586
317,6	20,129
318	24,043
318,5	18,786
319	19,329
319,4	17,329
319,9	15,814
320,3	16,929
320,8	20,871
321,3	17,3
321,7	19,871
322,2	16,214
322,6	10,814
323,1	14,471
323,6	11,986
324	8,757
324,5	6,929
324,9	7,1
325,4	8,9
325,9	13,586
326,3	11,214
326,8	11,957
327,2	12,157
327,7	13,014
328,2	11,214
328,6	6,443
329,1	4,014
329,5	6,5
330	5,929
330,5	6,529
330,9	2,9
331,4	2,9
331,8	7,1
332,3	11,386
332,8	11,5
333,2	13,329
333,7	8,729
334,1	17,843
334,6	21,014
335,1	24,443
335,5	24,414
336	21,443
336,4	24,986
336,9	26,957
337,4	23,043
337,8	19,5
338,3	17,157
338,7	11,871
339,2	18,9
339,7	14,586
340,1	12,557
340,6	6,7
341	7,157
341,5	8,386
342	12,357
342,4	9,186
342,9	7,871
343,3	10,129
343,8	11,643
344,2	14,614
344,7	17,014
345,2	13,414
345,6	15,3
346,1	17,729
346,5	18,986
347	21,3
347,5	19,329
347,9	12,871
348,4	15,3
348,8	8,214
349,3	8,386
349,8	10,243
350,2	11,871
350,7	10,557
351,1	14,414
351,6	17,443
352	20,786
352,5	22,329
353	22,986
353,4	26,243
353,9	25,929
354,3	24,271
354,8	23,129
355,3	25,071
355,7	21,586
356,2	16,929
356,6	17,843
357,1	21,129
357,5	22,357
358	19,614
358,5	23,243
358,9	28,414
359,4	37,7
359,8	44,186
360,3	46,243
360,8	52,7
361,2	62,157
361,7	67,643
362,1	68,7
362,6	72,043
363	75,557
363,5	83,786
364	92,757
364,4	101,614
364,9	113,5
365,3	128,471
365,8	139,929
366,3	153,157
366,7	163,443
367,2	173,386
367,6	181,986
368,1	188,414
368,5	192,986
369	197,043
369,5	196,329
369,9	201,271
370,4	198,414
370,8	198,557
371,3	194,614
371,7	191,1
372,2	191,014
372,7	187,757
373,1	183,986
373,6	180,643
374	168,129
374,5	158,357
374,9	155,443
375,4	143,729
375,9	132,986
376,3	121,643
376,8	117,129
377,2	113,129
377,7	112,129
378,2	103,986
378,6	100,757
379,1	95,129
379,5	89,7
380	80,5
380,4	78,129
380,9	69,5
381,4	65,071
381,8	63,614
382,3	61,729
382,7	56,814
383,2	51,957
383,6	53,243
384,1	52,471
384,6	53,471
385	51,386
385,5	47,671
385,9	51,5
386,4	51,186
386,8	46,443
387,3	42,357
387,7	36,157
388,2	28,071
388,7	25,329
389,1	15,557
389,6	21,843
390	21,757
390,5	23,671
390,9	22,243
391,4	21,157
391,9	25,843
392,3	35,3
392,8	28,957
393,2	27,443
393,7	23,129
394,1	26,186
394,6	28,157
395,1	26,071
395,5	18,186
396	17,614
396,4	18,643
396,9	22,129
397,3	23,329
397,8	21,5
398,2	19,243
398,7	23,986
399,2	23,957
399,6	23,071
400,1	22,586
400,5	20,586
401	26,414
401,4	27,786
401,9	24,786
402,4	27,9
402,8	27,871
403,3	28,271
403,7	25,129
404,2	24,129
404,6	24,643
405,1	28,186
405,5	21,671
406	19,843
406,5	16,414
406,9	15,357
407,4	15,186
407,8	18,471
408,3	14,186
408,7	14,271
409,2	15,757
409,6	20,129
410,1	23,814
410,6	27,957
411	23,414
411,5	26,986
411,9	34,786
412,4	35,671
412,8	36,986
413,3	38,614
413,7	37,329
414,2	40,071
414,7	42,129
415,1	36,757
415,6	37,014
416	37,357
416,5	42,786
416,9	43,186
417,4	46,957
417,8	44,786
418,3	50,471
418,8	59,529
419,2	65,643
419,7	63,843
420,1	65,586
420,6	63,986
421	74,186
421,5	78,586
421,9	77,414
422,4	81,957
422,8	85,671
423,3	89,071
423,8	92,729
424,2	91,671
424,7	93,186
425,1	98,5
425,6	95,986
426	100,1
426,5	104,071
426,9	111,729
427,4	113,357
427,9	117,3
428,3	121,357
428,8	124,3
429,2	126,957
429,7	133,871
430,1	134,843
430,6	143,3
431	149,586
431,5	154,329
431,9	162,9
432,4	171,243
432,8	177,957
433,3	189,3
433,8	200,957
434,2	206,357
434,7	213,386
435,1	225,986
435,6	232,243
436	241,071
436,5	247,986
436,9	252,9
437,4	265,214
437,8	272,586
438,3	280,357
438,8	294,214
439,2	306,557
439,7	321,471
440,1	332,814
440,6	344,529
441	358,814
441,5	372,614
441,9	386,871
442,4	400,586
442,8	419,957
443,3	440,957
443,7	455,843
444,2	475,557
444,7	495,786
445,1	513,443
445,6	532,157
446	546,329
446,5	558,529
446,9	574,871
447,4	593,7
447,8	607,986
448,3	626,129
448,7	636,7
449,2	650,014
449,6	671,186
450,1	697,043
450,6	717,529
451	734,5
451,5	758,271
451,9	786,129
452,4	807,014
452,8	828,757
453,3	843,243
453,7	858,357
454,2	878,243
454,6	893,186
455,1	912,357
455,5	929,929
456	944,5
456,4	971,843
456,9	993,5
457,3	1023,9
457,8	1044,586
458,3	1064,643
458,7	1089,271
459,2	1114,3
459,6	1128,214
460,1	1151,529
460,5	1161,1
461	1178,414
461,4	1200,043
461,9	1216,443
462,3	1238,1
462,8	1256,929
463,2	1271,3
463,7	1296,043
464,1	1314,214
464,6	1324,786
465	1344,357
465,5	1359,5
466	1378,729
466,4	1392,529
466,9	1405,871
467,3	1426,814
467,8	1449,5
468,2	1461,443
468,7	1476,443
469,1	1491,557
469,6	1506,929
470	1521,586
470,5	1533,443
470,9	1541,529
471,4	1559,586
471,8	1566,557
472,3	1578,614
472,7	1590,786
473,2	1605,014
473,6	1617,1
474,1	1634,129
474,5	1647,557
475	1662,157
475,4	1673,471
475,9	1683,643
476,4	1689,014
476,8	1689,071
477,3	1693,614
477,7	1697,986
478,2	1707,357
478,6	1712,986
479,1	1713,557
479,5	1716,9
480	1729,071
480,4	1725,843
480,9	1726,871
481,3	1725,9
481,8	1725,471
482,2	1731,814
482,7	1729,129
483,1	1729,471
483,6	1733,443
484	1734,014
484,5	1732,643
484,9	1731,3
485,4	1727,3
485,8	1730,014
486,3	1724,3
486,7	1724,729
487,2	1723,271
487,6	1719,386
488,1	1714,814
488,5	1712,843
489	1712,871
489,4	1708,557
489,9	1700,157
490,4	1693,129
490,8	1692,014
491,3	1691,014
491,7	1686,414
492,2	1673,757
492,6	1669,843
493,1	1666,757
493,5	1658,329
494	1641,329
494,4	1631,729
494,9	1625,871
495,3	1615,1
495,8	1607,929
496,2	1595,643
496,7	1587,214
497,1	1589,271
497,6	1576,5
498	1566,357
498,5	1560,757
498,9	1552,471
499,4	1550,871
499,8	1541,671
500,3	1531,9
500,7	1525,157
501,2	1512,814
501,6	1501,529
502,1	1487,214
502,5	1468,3
503	1459,157
503,4	1444,414
503,9	1433,586
504,3	1428,986
504,8	1416,871
505,2	1408,214
505,7	1398,729
506,1	1389,414
506,6	1376,129
507	1366,814
507,5	1356,1
507,9	1346,614
508,4	1331,386
508,8	1323,586
509,3	1310,186
509,7	1302,471
510,2	1285,729
510,6	1269,643
511,1	1266,071
511,5	1254,871
512	1238,7
512,4	1224,757
512,9	1208,5
513,3	1197,271
513,8	1184,329
514,2	1169,214
514,7	1157,7
515,1	1146,843
515,6	1139,357
516	1135,471
516,5	1128,043
516,9	1117,586
517,4	1105,329
517,8	1094,529
518,3	1084,329
518,7	1072,7
519,2	1057,157
519,6	1043,671
520,1	1035,786
520,5	1026,414
521	1015,814
521,4	1000,729
521,9	990,357
522,3	980,271
522,8	967,843
523,2	952,3
523,7	936,129
524,1	928,157
524,6	918,843
525	903,586
525,5	891,071
525,9	884,243
526,4	872,271
526,8	859,814
527,3	847,243
527,7	842,814
528,2	832,614
528,6	823,471
529,1	813,243
529,5	803,071
530	798,786
530,4	788,043
530,9	776,929
531,3	773,814
531,8	764,3
532,2	752,529
532,6	744,529
533,1	730,5
533,5	724,7
534	712,586
534,4	699,129
534,9	691,443
535,3	686,3
535,8	678,386
536,2	674,557
536,7	664,7
537,1	655,243
537,6	649,986
538	644,957
538,5	635,243
538,9	626,814
539,4	617,614
539,8	612,929
540,3	610,414
540,7	603,729
541,2	592,843
541,6	587,7
542,1	579,529
542,5	577,557
543	569,557
543,4	557,871
543,9	547,129
544,3	539,043
544,8	528,671
545,2	526,014
545,7	516,443
546,1	508,929
546,5	505,186
547	502,729
547,4	497,957
547,9	497,757
548,3	489,1
548,8	480,529
549,2	474,843
549,7	468,243
550,1	460,186
550,6	457,757
551	448,843
551,5	441,986
551,9	439,071
552,4	433,129
552,8	429,186
553,3	423,729
553,7	416,471
554,2	407,729
554,6	400,843
555,1	393,329
555,5	387,443
555,9	385,014
556,4	381,814
556,8	376,186
557,3	375,129
557,7	378,071
558,2	376,3
558,6	374,129
559,1	365,786
559,5	362,3
560	359,243
560,4	352,129
560,9	353,643
561,3	350,157
561,8	344,157
562,2	344,129
562,7	335,7
563,1	333,157
563,6	331,471
564	320,186
564,4	318,671
564,9	315,843
565,3	308,843
565,8	305,957
566,2	296,843
566,7	291,271
567,1	292,129
567,6	284,5
568	282,643
568,5	282,471
568,9	282,871
569,4	285,843
569,8	280,243
570,3	267,7
570,7	262,214
571,1	253,043
571,6	246,614
572	242,9
572,5	235,957
572,9	236,643
573,4	239,529
573,8	240,814
574,3	241,7
574,7	244,671
575,2	243,986
575,6	240,7
576,1	241,757
576,5	238,757
576,9	227,5
577,4	229,3
577,8	218,643
578,3	212,243
578,7	207,414
579,2	202,7
579,6	198,843
580,1	205,271
580,5	197,614
581	199,786
581,4	201,5
581,9	200,957
582,3	197,9
582,7	195,871
583,2	193,214
583,6	193,729
584,1	195,1
584,5	191,014
585	190,043
585,4	186,271
585,9	182,357
586,3	182,9
586,8	180,1
587,2	175,014
587,6	167,271
588,1	167,3
588,5	164,5
589	164,271
589,4	153,643
589,9	152,443
590,3	151,357
590,8	156,157
591,2	150,386
591,7	150,7
592,1	148,7
592,5	153,729
593	155,1
593,4	151,186
593,9	147,214
594,3	147,529
594,8	146,9
595,2	145,357
595,7	139,157
596,1	136,671
596,6	134,014
597	136,157
597,4	133,614
597,9	131,329
598,3	136,414
598,8	138,014
599,2	134,271
599,7	135,957
600,1	129,871
600,6	128,814
601	127,586
601,4	122,129
601,9	122,471
602,3	122,9
602,8	118,986
603,2	120,986
603,7	119,871
604,1	119,957
604,6	118,814
605	118,529
605,4	113,586
605,9	115,043
606,3	115,414
606,8	112,443
607,2	114,7
607,7	115,129
608,1	110,271
608,6	108,986
609	110,1
609,4	107,986
609,9	110,757
610,3	107,414
610,8	105,586
611,2	110,643
611,7	111,329
612,1	107,786
612,6	103,386
613	97,671
613,4	91,329
613,9	94,329
614,3	89,929
614,8	90,871
615,2	89,214
615,7	92,471
616,1	98,5
616,6	106,786
617	99,957
617,4	97,786
617,9	95,814
618,3	97,5
618,8	96,043
619,2	89,186
619,7	80,414
620,1	85,586
620,5	81,643
621	80,386
621,4	77,043
621,9	70,757
622,3	76,843
622,8	77,329
623,2	71,1
623,6	77,043
624,1	80,5
624,5	81,729
625	87,214
625,4	83,471
625,9	86,243
626,3	88,071
626,8	85,414
627,2	77,071
627,6	75,614
628,1	74,557
628,5	75,643
629	73,786
629,4	68,557
629,9	65,414
630,3	64,5
630,7	68,557
631,2	66,157
631,6	62,271
632,1	60,5
632,5	67,414
633	73,529
633,4	76,614
633,8	69,7
634,3	67,214
634,7	66,786
635,2	68,843
635,6	60,1
636,1	51,929
636,5	51,929
636,9	54,386
637,4	57,529
637,8	57,1
638,3	57,186
638,7	56,443
639,2	58,329
639,6	60,5
640	60,529
640,5	62,3
640,9	65,586
641,4	63,671
641,8	67,786
642,2	71,7
642,7	73,729
643,1	70,214
643,6	65,129
644	62,3
644,5	67,729
644,9	69,529
645,3	69,671
645,8	66,1
646,2	63,814
646,7	63,7
647,1	62,643
647,6	59,186
648	57,014
648,4	54,271
648,9	50,986
649,3	54,5
649,8	53,814
650,2	53,957
650,6	52,671
651,1	50,443
651,5	48,643
652	53,643
652,4	53,3
652,9	52,986
653,3	47,986
653,7	46,814
654,2	46,157
654,6	44,586
655,1	39,643
655,5	40,471
655,9	40,929
656,4	49,529
656,8	49,671
657,3	50,357
657,7	51,1
658,2	51,157
658,6	52,7
659	55,957
659,5	52,186
659,9	52,414
660,4	53,843
660,8	53,557
661,2	52,386
661,7	47,929
662,1	47,586
662,6	49,386
663	47,871
663,4	45,586
663,9	46,586
664,3	45,7
664,8	46,9
665,2	45,357
665,6	41,5
666,1	43,557
666,5	46,471
667	44,9
667,4	50,443
667,9	48,186
668,3	48,757
668,7	45,786
669,2	44,9
669,6	40,386
670,1	41,5
670,5	39,043
670,9	41,271
671,4	38,1
671,8	40,243
672,3	39,357
672,7	44,7
673,1	45,471
673,6	46,271
674	44,271
674,5	49,786
674,9	54,1
675,3	51,5
675,8	47,871
676,2	44,071
676,7	43,614
677,1	45,214
677,5	42,871
678	41,186
678,4	45,471
678,9	45,1
679,3	47,357
679,7	42,729
680,2	42,671
680,6	40,7
681,1	42,186
681,5	40,014
681,9	34,814
682,4	34,729
682,8	36,786
683,3	39,5
683,7	39,271
684,1	35,957
684,6	32,243
685	36,443
685,5	27,271
685,9	24,043
686,3	22,9
686,8	25,329
687,2	27,5
687,7	29,3
688,1	29,729
688,5	36,986
689	46,529
689,4	37,814
689,9	36,843
690,3	37,729
690,7	43,957
691,2	47,871
691,6	46,471
692	41,471
692,5	44,329
692,9	43,129
693,4	41,414
693,8	35,843
694,2	30,243
694,7	28,871
695,1	28,586
695,6	34,043
696	32,271
696,4	29,157
696,9	27,071
697,3	31,243
697,8	33,643
698,2	30,757
698,6	27,129
699,1	27,243
699,5	28,5
699,9	29,871
700,4	27,414
700,8	28,443
701,3	30,786
701,7	30,443
702,1	31,186
702,6	28,986
703	29,157
703,5	29,443
703,9	27,614
704,3	26,014
704,8	26,929
705,2	26,5
705,6	29,757
706,1	26,157
706,5	28,929
707	31,214
707,4	33,443
707,8	34,014
708,3	31,586
708,7	32,014
709,2	33,843
709,6	31,671
710	28,443
710,5	28,471
710,9	27,986
711,3	29,529
711,8	27,871
712,2	29,643
712,7	27,557
713,1	27,586
713,5	25,529
714	21,014
714,4	21,671
714,8	23,214
715,3	24,3
715,7	25,586
716,2	31,129
716,6	31,386
717	37,043
717,5	33,157
717,9	30,243
718,3	27,443
718,8	27,357
719,2	23,957
719,7	25,357
720,1	23,7
720,5	30,986
721	36,414
721,4	39,014
721,8	40,843
722,3	43,014
722,7	38,843
723,2	37,214
723,6	35,529
724	30,214
724,5	29,271
724,9	27,014
725,3	19,586
725,8	20,671
726,2	18,729
726,7	16,9
727,1	16,757
727,5	16,157
728	9,786
728,4	15,443
728,8	14,214
729,3	17,357
729,7	17,471
730,1	16,443
730,6	17,757
731	19,414
731,5	21,557
731,9	23,1
732,3	23,643
732,8	21,271
733,2	27,386
733,6	27,957
734,1	32,557
734,5	33,243
734,9	30,757
735,4	31,471
735,8	29,014
736,3	22,129
736,7	20,729
737,1	21,471
737,6	17,014
738	19,1
738,4	20,5
738,9	27,443
739,3	32,471
739,7	37,043
740,2	33,414
740,6	33,129
741,1	31,671
741,5	27,014
741,9	23,557
742,4	24,214
742,8	17,071
743,2	14,871
743,7	11,071
744,1	17,414
744,5	19,071
745	21,3
745,4	17,9
745,8	19,871
746,3	25,5
746,7	30,386
747,2	25,386
747,6	25,671
748	24,643
748,5	25,329
748,9	24,386
749,3	21,586
749,8	22,986
750,2	24,443
750,6	24,614
751,1	24,7
751,5	27,814
751,9	29,986
752,4	32,471
752,8	30,186
753,3	27,729
753,7	28,786
754,1	26,414
754,6	20,214
755	16,814
755,4	21,329
755,9	22,386
756,3	27,386
756,7	29,071
757,2	29,671
757,6	32,786
758	33,529
758,5	26,814
758,9	25,357
759,3	23,129
759,8	20,357
760,2	19,214
760,6	24,557
761,1	24,529
761,5	24,929
761,9	23,5
762,4	25,557
762,8	28,3
763,3	32,643
763,7	28,843
764,1	26,043
764,6	23,1
765	25,757
765,4	25,357
765,9	22,671
766,3	17,043
766,7	18,271
767,2	21,643
767,6	27,271
768	23,557
768,5	19,671
768,9	19,414
769,3	20,843
769,8	12,043
770,2	11,786
770,6	7,7
771,1	6,814
771,5	9,671
771,9	7,929
772,4	6,157
772,8	11,471
773,2	12,614
773,7	13,443
774,1	19,014
774,5	17,471
775	17,414
775,4	19,5
775,8	21,586
776,3	19,414
776,7	15,614
777,1	12,3
777,6	8,357
778	9,7
778,4	11,843
778,9	8,814
779,3	8,271
779,7	9,357
780,2	11,329
780,6	19,014
781	20,5
781,5	18,529
781,9	20,157
782,3	20,443
782,8	23,929
783,2	20,243
783,6	14,843
784,1	11,471
784,5	10,071
784,9	11,214
785,4	15,643
785,8	17,186
786,2	18,3
786,7	19,443
787,1	25,843
787,5	25,871
788	24,3
788,4	24,929
788,8	19,957
789,3	20,671
789,7	22,3
790,1	20,014
790,6	22,814
791	18,529
791,4	15,414
791,9	18,414
792,3	18,843
792,7	20,157
793,2	15,443
793,6	16,186
794	21,014
794,5	19,529
794,9	19,214
795,3	22,757
795,8	21,357
796,2	13,557
796,6	14,214
797,1	14,243
797,5	16,214
797,9	16,586
798,4	12,871
798,8	8,1
799,2	16,414
799,7	14,3
800,1	12,7
800,5	13,214
801	15,129
801,4	15,357
801,8	16,957
802,2	17,814
802,7	18,957
803,1	22,043
803,5	18,643
804	19,214
804,4	19,414
804,8	22,586
805,3	22,614
805,7	20,529
806,1	18,471
806,6	23,386
807	19,071
807,4	17,614
807,9	17,129
808,3	19,014
808,7	20,671
809,2	20,414
809,6	20,9
810	26,414
810,4	25,871
810,9	24,329
811,3	23,814
811,7	21,329
812,2	17,986
812,6	14,614
813	12,9
813,5	16,957
813,9	18,729
814,3	15,929
814,8	18,614
815,2	22,843
815,6	23,814
816,1	20,129
816,5	21,529
816,9	24,557
817,3	28,671
817,8	28,843
818,2	27,671
818,6	28,871
819,1	32,014
819,5	28,443
819,9	25,9
820,4	26,843
820,8	19,757
821,2	20,043
821,7	15,386
822,1	12,986
822,5	17,214
822,9	12,557
823,4	9,729
823,8	14,557
824,2	15,929
824,7	17,7
825,1	18,243
825,5	11,643
826	14,271
826,4	12,1
826,8	13,157
827,3	10,357
827,7	13,414
828,1	11,157
828,5	14,843
829	13,757
829,4	12,243
829,8	13,871
830,3	14,529
830,7	10,586
831,1	14,414
831,6	13,5
832	16,5
832,4	19,957
832,8	16,129
833,3	14,786
833,7	14,157
834,1	15,814
834,6	18,1
835	17,643
835,4	13,214
835,8	15,329
836,3	16,7
836,7	19,243
837,1	15,329
837,6	8,214
838	7,843
838,4	5,529
838,9	5,614
839,3	8,414
839,7	5,643
840,1	12,471
840,6	15,929
841	10,529
841,4	15,186
841,9	13,729
842,3	11,871
842,7	13,5
843,1	8,986
843,6	8,243
844	13,557
844,4	19,871
844,9	20,443
845,3	18,271
845,7	16,271
846,2	15,129
846,6	19,557
847	21,157
847,4	17,557
847,9	15,586
848,3	13,243
848,7	15,957
849,2	14,014
849,6	14,671
850	14,071
850,4	13,1
850,9	16,671
851,3	23,157
851,7	23,929
852,2	25,757
852,6	25,357
853	28,729
853,4	31,214
853,9	32,843
854,3	30,929
854,7	29,557
855,2	29,7
855,6	25,529
856	22,414
856,4	17,271
856,9	12,329
857,3	11,471
857,7	14,214
858,2	14,929
858,6	12,986
859	9,129
859,4	7,329
859,9	10,586
860,3	9,786
860,7	8,043
861,1	11,071
861,6	12,957
862	15,529
862,4	16,814
862,9	14,814
863,3	12,843
863,7	12,071
864,1	7,614
864,6	11,1
865	10,271
865,4	10,643
865,9	13,043
866,3	15,243
866,7	11,3
867,1	8,671
867,6	7,843
868	1,043
868,4	3,243
868,8	-0,357
869,3	2,671
869,7	11,043
870,1	17,271
870,6	16,014
871	82,014
871,4	83,643
871,8	86,643
872,3	83,986
872,7	76,814
873,1	71,071
873,5	70,271
874	11,671
874,4	8,929
874,8	7,729
875,3	6,386
875,7	6,271
876,1	10,814
876,5	10,729
877	6,557
877,4	8,357
877,8	4,871
878,2	8,043
878,7	10,3
879,1	8,014
879,5	8,043
879,9	11,386
880,4	7,243
880,8	14,557
881,2	10,729
881,7	9,157
882,1	7,986
882,5	6,043
882,9	5,614
883,4	6,557
883,8	2,557
884,2	2,243
884,6	1,757
885,1	1,214
885,5	5,1
885,9	5,471
886,3	12,614
886,8	17,729
887,2	19,386
887,6	20,443
888	21,071
888,5	20,5
888,9	15,986
889,3	10,157
889,8	4,014
890,2	4,271
890,6	6,9
891	11,414
891,5	9,271
891,9	12,271
892,3	15,757
892,7	16,386
893,2	17,414
893,6	15,271
894	12,843
894,4	11,5
894,9	12,271
895,3	11,014
895,7	15,614
896,1	12,5
896,6	11,7
897	14,3
897,4	17,643
897,8	20,271
898,3	18,414
898,7	12,1
899,1	13,443
899,5	14,414
900	10,386
900,4	11,414
900,8	3,729
901,2	2,557
901,7	5,871
902,1	3,043
902,5	1,957
902,9	2,043
903,4	2,929
903,8	7,271
904,2	10,786
904,6	10,1
905,1	15,3
905,5	15,986
905,9	15,843
906,3	12,586
906,8	14,471
907,2	14,614
907,6	14,586
908	10,271
908,5	7,043
908,9	6,5
909,3	5,957
909,7	3,157
910,2	2,929
910,6	1,986
911	3,357
911,4	8,843
911,9	11,614
912,3	11,357
912,7	14,671
913,1	11,7
913,6	14,586
914	17,929
914,4	16,214
914,8	16,614
915,3	15,271
915,7	15,186
916,1	20,757
916,5	16,129
916,9	10,957
917,4	9,957
917,8	6,386
918,2	13,357
918,6	14,271
919,1	9,643
919,5	12,643
919,9	20,243
920,3	23,643
920,8	29,357
921,2	23,729
921,6	21,843
922	20,529
922,5	22,414
922,9	16,043
923,3	12,9
923,7	6,614
924,2	7,157
924,6	6,1
925	9,814
925,4	5,957
925,8	8,443
926,3	8,329
926,7	9,986
927,1	13,157
927,5	14,357
928	12,7
928,4	13,414
928,8	14,671
929,2	16,614
929,7	19,671
930,1	20,643
930,5	17,3
930,9	19,186
931,3	23,357
931,8	21,786
932,2	19,357
932,6	17,7
933	8,071
933,5	10,557
933,9	10,329
934,3	6,557
934,7	10,329
935,2	9,757
935,6	7,614
936	7,157
936,4	9,557
936,8	6,957
937,3	8,786
937,7	5,814
938,1	10,729
938,5	8,243
939	14,786
939,4	14,614
939,8	11,329
940,2	10,614
940,6	5,671
941,1	3,129
941,5	7,014
941,9	8,329
942,3	5,214
942,8	9,271
943,2	2,329
943,6	8,471
944	7,643
944,4	6,271
944,9	2,7
945,3	5,129
945,7	5,5
946,1	12,614
946,6	6,243
947	7,529
947,4	8,3
947,8	13,757
948,2	15,586
948,7	13,043
949,1	13,386
949,5	15,957
949,9	15,157
950,3	11,929
950,8	3,557
951,2	-0,729
951,6	3,957
952	2,614
952,5	3,729
952,9	3,386
953,3	3,357
953,7	7,071
954,1	8,157
954,6	6,1
955	6,929
955,4	5,071
955,8	8,186
956,2	10,9
956,7	13,929
957,1	16,3
957,5	18,386
957,9	18,357
958,3	21,729
958,8	23,643
959,2	27,443
959,6	29,729
960	28,214
960,5	26,986
960,9	27,129
961,3	24,386
961,7	22,671
962,1	18,957
962,6	15,071
963	17,129
963,4	18,671
963,8	20,957
964,2	20,586
964,7	19,243
965,1	21,843
965,5	25,043
965,9	23,414
966,3	21,786
966,8	13,157
967,2	18,986
967,6	16,986
968	12,757
968,4	12,214
968,9	7,9
969,3	7,271
969,7	12,129
970,1	6,243
970,5	5,9
971	8,929
971,4	8,214
971,8	11,957
972,2	9,157
972,6	9,871
973,1	12,243
973,5	9,5
973,9	9,214
974,3	8,7
974,7	4,871
975,2	8,214
975,6	7,471
976	7,186
976,4	9,214
976,8	10,186
977,3	10,357
977,7	10,9
978,1	9,614
978,5	12,529
978,9	14,843
979,4	16,129
979,8	13,986
980,2	15,357
980,6	23,071
981	18,814
981,5	15,186
981,9	14,414
982,3	12,7
982,7	12,043
983,1	8,9
983,6	3,643
984	9,157
984,4	9,1
984,8	6,986
985,2	9,929
985,6	9,671
986,1	8,129
986,5	7,9
986,9	2,129
987,3	3,1
987,7	3,671
988,2	2,386
988,6	-0,014
989	-0,014
989,4	-1,757
989,8	3,157
990,3	1,186
990,7	0,471
991,1	-0,243
991,5	4,843
991,9	5,986
992,3	5,157
992,8	0,443
993,2	3,129
993,6	5,243
994	4,3
994,4	6,529
994,9	7,071
995,3	12,786
995,7	16,643
996,1	15,386
996,5	12,329
996,9	18,1
997,4	13,529
997,8	10,643
998,2	8,071
998,6	5,3
999	3,243
999,5	4,786
999,9	2,757
1000,3	4,1
1000,7	9,643
1001,1	10,671
1001,5	15,357
1002	18,9
1002,4	17,929
1002,8	19,3
1003,2	18,271
1003,6	17,3
1004	16,9
1004,5	15,7
1004,9	12,271
1005,3	14,7
1005,7	14,214
1006,1	13,014
1006,6	9,929
1007	8,071
1007,4	4,586
1007,8	9,643
1008,2	11,357
1008,6	11,5
1009,1	12,5
1009,5	13,186
1009,9	13,157
1010,3	16,957
1010,7	14,529
1011,1	11,271
1011,6	5,529
1012	7,243
1012,4	5,986
1012,8	3,957
1013,2	1,186
1013,6	1,614
1014,1	-1,014
1014,5	5,386
1014,9	3,957
1015,3	6,7
1015,7	10,243
1016,1	16,443
1016,6	16,557
1017	18,986
1017,4	14,271
1017,8	17,214
1018,2	14,386
1018,6	13,957
1019,1	11,357
1019,5	10,471
1019,9	13,157
1020,3	13,1
1020,7	11,529
1021,1	7,843
1021,6	6,843
1022	3,871
1022,4	2,271
1022,8	-2,929
1023,2	-4,986
1023,6	-8,186
1024,1	0,3
1024,5	2,3
1024,9	6,9
1025,3	7,329
1025,7	9,9
1026,1	6,871
1026,6	12,814
1027	8,7
1027,4	9,843
1027,8	5,014
1028,2	7,586
1028,6	6,214
1029	10,843
1029,5	7,3
1029,9	12,357
1030,3	8,3
1030,7	12,843
1031,1	16,357
1031,5	16,157
1032	17,071
1032,4	22,386
1032,8	16,843
1033,2	19,1
1033,6	16,586
1034	12,471
1034,4	12,643
1034,9	17,871
1035,3	16,7
1035,7	16,814
1036,1	19,986
1036,5	19,586
1036,9	20,814
1037,4	21,157
1037,8	15,5
1038,2	13,471
1038,6	11,614
1039	7,871
1039,4	11,757
1039,8	11,014
1040,3	16,329
1040,7	21,757
1041,1	13,471
1041,5	21,329
1041,9	23,843
1042,3	17,843
1042,7	11,243
1043,2	8,329
1043,6	10,414
1044	16,614
1044,4	13,471
1044,8	14,3
1045,2	18,557
1045,6	31,786
1046,1	32,1
1046,5	24,729
1046,9	28,3
1047,3	28,929
1047,7	24,557
1048,1	22,986
1048,5	16,071
1049	12,471
1049,4	13,414
1049,8	13,357
1050,2	10,757
1050,6	9,614
1051	13,129
1051,4	8,671
1051,9	7,3
1052,3	8,243
1052,7	7,843
1053,1	5,986
1053,5	8,071
1053,9	3,443
1054,3	-0,414
1054,8	3,3
1055,2	2,786
1055,6	1,5
1056	0,357
1056,4	-2,957
1056,8	-2,071
1057,2	5,129
1057,6	6,5
1058,1	8,929
1058,5	5,671
1058,9	5,014
1059,3	9,614
1059,7	12,643
1060,1	15,443
1060,5	14,671
1061	10,786
1061,4	7,129
1061,8	14,3
1062,2	16,386
1062,6	14,586
1063	15,671
1063,4	21,1
1063,8	21,243
1064,3	31,214
1064,7	31,043
1065,1	29,3
1065,5	30,529
1065,9	26,757
1066,3	21,986
1066,7	29,786
1067,1	22,929
1067,6	25,3
1068	26,871
1068,4	26,329
1068,8	26,5
1069,2	25,443
1069,6	21,1
1070	20,614
1070,4	15,757
1070,9	14,757
1071,3	14,529
1071,7	12,329
1072,1	11,471
1072,5	9,529
1072,9	11,843
1073,3	12,357
1073,7	10,043
1074,2	10,157
1074,6	10,757
1075	16,471
1075,4	19,3
1075,8	15,529
1076,2	16,157
1076,6	17,043
1077	20,786
1077,5	24,843
1077,9	13,3
1078,3	10,443
1078,7	10,5
1079,1	11,3
1079,5	13,529
1079,9	9,443
1080,3	8,357
1080,7	14,7
1081,2	15,3
1081,6	16,471
1082	18,7
1082,4	17,5
1082,8	19,043
1083,2	15,1
1083,6	14,043
1084	13,071
1084,5	19,386
1084,9	12,157
1085,3	9,986
1085,7	10,043
1086,1	12,357
1086,5	13,414
1086,9	14,671
1087,3	13,671
1087,7	19,3
1088,2	27,157
1088,6	25,386
1089	26,786
1089,4	29,9
1089,8	28,586
1090,2	23,643
1090,6	19,729
1091	7,471
1091,4	7,043
1091,9	6,471
1092,3	4,271
1092,7	1,071
1093,1	2,9
1093,5	4,757
1093,9	10,014
1094,3	8,586
1094,7	6,757
1095,1	5,643
1095,5	10,386
1096	14,329
1096,4	16,557
1096,8	17,414
1097,2	16,5
1097,6	19,643
1098	18,871
1098,4	17,5
1098,8	15,557
1099,2	13,386
1099,6	13,214
1100,1	16,271
1100,5	14,5
1100,9	12,614
1101,3	12,186
1101,7	9,271
1102,1	11,186
1102,5	7,014
1102,9	3,614
1103,3	4,957
1103,7	9,757
1104,2	7,671
1104,6	11,443
1105	4,671
1105,4	11,957
1105,8	12,671
1106,2	9,814
1106,6	6,414
1107	6,557
1107,4	3,133
1107,8	7,38
1108,3	0,15
