Data from Subt2_00077.txt Node
Date: Mon Aug 28 13:30:11 MSK 2023
User: vat
Spectrometer: MAYP114033
Trigger mode: 0
Integration Time (sec): 1,000000E0
Scans to average: 5
Electric dark correction enabled: true
Nonlinearity correction enabled: false
Boxcar width: 3
XAxis mode: Wavelengths
Number of Pixels in Spectrum: 2068
>>>>>Begin Spectral Data<<<<<
199,4	-1,083
199,9	-6,233
200,4	-5,567
200,8	-3,262
201,3	-3,405
201,8	-0,119
202,2	2,424
202,7	2,138
203,2	6,767
203,6	6,967
204,1	4,167
204,6	6,881
205	4,338
205,5	2,624
206	5,024
206,4	2,338
206,9	4,31
207,4	5,11
207,8	0,424
208,3	-1,948
208,8	-3,262
209,2	-2,376
209,7	-0,205
210,2	-1,033
210,6	-2,862
211,1	3,938
211,5	6,51
212	7,367
212,5	3,852
212,9	3,91
213,4	2,31
213,9	5,481
214,3	2,595
214,8	5,024
215,3	7,681
215,7	6,51
216,2	5,595
216,7	8,881
217,1	7,31
217,6	7,367
218,1	6,938
218,5	7,367
219	8,595
219,5	11,224
219,9	9,538
220,4	15,281
220,9	14,138
221,3	12,138
221,8	11,652
222,3	12,252
222,7	14,395
223,2	9,652
223,6	4,51
224,1	11,11
224,6	13,652
225	10,224
225,5	11,052
226	7,452
226,4	14,852
226,9	14,367
227,4	11,538
227,8	11,824
228,3	11,024
228,8	8,881
229,2	9,167
229,7	4,167
230,2	7,795
230,6	3,081
231,1	0,052
231,5	-0,319
232	1,11
232,5	-3,062
232,9	2,91
233,4	-0,09
233,9	1,967
234,3	4,852
234,8	9,824
235,3	11,195
235,7	11,938
236,2	9,052
236,7	5,138
237,1	5,824
237,6	3,452
238,1	1,452
238,5	1,452
239	5,252
239,4	2,767
239,9	5,367
240,4	3,824
240,8	8,367
241,3	7,738
241,8	5,281
242,2	4,481
242,7	6,767
243,2	12,024
243,6	16,167
244,1	11,052
244,6	9,252
245	7,252
245,5	12,738
245,9	13,452
246,4	11,195
246,9	7,081
247,3	11,167
247,8	12,567
248,3	18,367
248,7	11,395
249,2	11,538
249,7	12,681
250,1	11,452
250,6	8,424
251	7,052
251,5	4,11
252	6,71
252,4	4,624
252,9	0,481
253,4	1,052
253,8	-1,376
254,3	-0,576
254,8	-1,262
255,2	-2,548
255,7	-1,176
256,1	-1,262
256,6	-2,29
257,1	2,824
257,5	1,11
258	-0,976
258,5	2,452
258,9	0,595
259,4	4,138
259,9	6,424
260,3	2,081
260,8	3,51
261,2	10,624
261,7	6,91
262,2	7,738
262,6	7,081
263,1	3,11
263,6	2,224
264	4,567
264,5	3,767
264,9	7,367
265,4	5,224
265,9	3,795
266,3	5,224
266,8	8,767
267,3	8,71
267,7	7,738
268,2	4,452
268,7	8,138
269,1	6,024
269,6	8,395
270	-1,919
270,5	2,081
271	-0,005
271,4	-4,49
271,9	-8,405
272,4	-3,205
272,8	-3,576
273,3	5,11
273,7	0,31
274,2	-1,948
274,7	5,252
275,1	7,31
275,6	9,852
276,1	12,138
276,5	8,767
277	10,567
277,4	9,967
277,9	7,395
278,4	8,795
278,8	2,738
279,3	-0,805
279,8	3,567
280,2	0,624
280,7	5,31
281,1	4,167
281,6	2,938
282,1	4,395
282,5	8,538
283	7,281
283,4	13,91
283,9	14,31
284,4	13,652
284,8	14,567
285,3	10,052
285,8	8,081
286,2	7,824
286,7	4,595
287,1	3,938
287,6	3,281
288,1	4,795
288,5	10,367
289	6,967
289,5	7,252
289,9	3,967
290,4	2,195
290,8	3,624
291,3	3,367
291,8	1,424
292,2	5,767
292,7	6,595
293,1	7,281
293,6	5,852
294,1	9,595
294,5	9,138
295	9,881
295,5	6,652
295,9	6,767
296,4	4,138
296,8	6,138
297,3	7,367
297,8	8,938
298,2	10,452
298,7	11,424
299,1	11,51
299,6	14,367
300,1	16,767
300,5	15,852
301	16,281
301,5	11,538
301,9	12,738
302,4	9,624
302,8	11,624
303,3	13,795
303,8	11,681
304,2	11,167
304,7	12,281
305,1	9,738
305,6	7,481
306,1	6,395
306,5	-1,433
307	-4,633
307,4	-8,548
307,9	-4,319
308,4	-2,976
308,8	-0,205
309,3	2,281
309,8	7,967
310,2	7,938
310,7	5,824
311,1	-0,005
311,6	-2,405
312,1	-2,576
312,5	-4,405
313	-7,119
313,4	-3,89
313,9	1,167
314,4	4,138
314,8	6,967
315,3	10,31
315,7	8,395
316,2	7,452
316,7	7,995
317,1	6,281
317,6	5,024
318	6,852
318,5	7,424
319	8,024
319,4	10,31
319,9	6,567
320,3	6,138
320,8	7,881
321,3	6,595
321,7	3,938
322,2	3,938
322,6	6,338
323,1	7,395
323,6	5,795
324	3,11
324,5	1,452
324,9	4,91
325,4	2,224
325,9	-1,462
326,3	-1,805
326,8	-0,233
327,2	0,624
327,7	3,91
328,2	8,538
328,6	13,71
329,1	9,881
329,5	11,738
330	11,367
330,5	16,424
330,9	14,71
331,4	6,681
331,8	1,138
332,3	8,052
332,8	8,595
333,2	9,795
333,7	1,31
334,1	-3,405
334,6	-4,148
335,1	0,481
335,5	-5,405
336	-5,376
336,4	-3,29
336,9	1,71
337,4	5,652
337,8	7,595
338,3	9,31
338,7	9,967
339,2	6,567
339,7	-1,005
340,1	-0,89
340,6	-2,233
341	-5,919
341,5	-8,319
342	-8,148
342,4	-12,119
342,9	-1,262
343,3	0,91
343,8	4,167
344,2	7,938
344,7	6,367
345,2	8,681
345,6	12,938
346,1	6,281
346,5	2,167
347	-5,348
347,5	-7,433
347,9	-10,519
348,4	-13,405
348,8	-9,348
349,3	-10,49
349,8	-9,662
350,2	-5,262
350,7	-3,005
351,1	-1,519
351,6	1,938
352	-1,433
352,5	5,224
353	2,681
353,4	5,167
353,9	8,052
354,3	14,224
354,8	8,11
355,3	10,51
355,7	8,652
356,2	11,281
356,6	11,824
357,1	9,852
357,5	9,252
358	24,967
358,5	22,738
358,9	23,138
359,4	32,624
359,8	34,995
360,3	39,338
360,8	45,024
361,2	43,995
361,7	56,252
362,1	68,281
362,6	72,71
363	88,738
363,5	102,852
364	116,881
364,4	132,281
364,9	147,824
365,3	159,167
365,8	180,938
366,3	190,881
366,7	199,995
367,2	208,91
367,6	225,081
368,1	230,767
368,5	240,11
369	240,424
369,5	244,481
369,9	250,481
370,4	249,195
370,8	239,795
371,3	241,967
371,7	238,252
372,2	235,224
372,7	228,71
373,1	224,738
373,6	219,052
374	209,224
374,5	197,938
374,9	187,052
375,4	175,138
375,9	169,795
376,3	152,567
376,8	142,852
377,2	138,281
377,7	129,138
378,2	123,452
378,6	117,881
379,1	101,024
379,5	96,652
380	89,71
380,4	81,452
380,9	76,738
381,4	66,567
381,8	64,252
382,3	64,91
382,7	63,71
383,2	57,424
383,6	60,31
384,1	60,967
384,6	59,795
385	57,51
385,5	60,024
385,9	56,224
386,4	59,024
386,8	53,852
387,3	45,167
387,7	45,595
388,2	42,51
388,7	37,995
389,1	36,138
389,6	35,367
390	33,91
390,5	37,91
390,9	35,195
391,4	28,167
391,9	30,281
392,3	33,938
392,8	33,338
393,2	35,652
393,7	33,338
394,1	32,967
394,6	35,852
395,1	35,852
395,5	32,367
396	30,224
396,4	20,11
396,9	19,11
397,3	22,738
397,8	16,938
398,2	8,281
398,7	2,852
399,2	5,195
399,6	8,852
400,1	6,852
400,5	4,567
401	14,31
401,4	14,252
401,9	22,995
402,4	18,995
402,8	22,51
403,3	25,567
403,7	24,881
404,2	20,681
404,6	22,652
405,1	22,395
405,5	21,395
406	19,11
406,5	17,395
406,9	21,824
407,4	18,081
407,8	21,481
408,3	15,024
408,7	15,624
409,2	10,881
409,6	8,995
410,1	5,281
410,6	6,024
411	3,624
411,5	0,395
411,9	0,167
412,4	3,51
412,8	3,51
413,3	1,424
413,7	3,481
414,2	5,767
414,7	9,538
415,1	13,281
415,6	9,681
416	12,395
416,5	15,738
416,9	18,595
417,4	18,91
417,8	19,052
418,3	15,738
418,8	19,995
419,2	17,767
419,7	15,938
420,1	10,538
420,6	13,195
421	17,71
421,5	22,567
421,9	22,052
422,4	27,624
422,8	28,767
423,3	32,367
423,8	27,081
424,2	23,567
424,7	20,71
425,1	20,281
425,6	15,967
426	18,31
426,5	21,624
426,9	26,367
427,4	29,081
427,9	33,167
428,3	36,052
428,8	36,395
429,2	37,538
429,7	37,567
430,1	33,824
430,6	29,167
431	23,338
431,5	19,995
431,9	21,967
432,4	15,31
432,8	15,424
433,3	16,424
433,8	18,652
434,2	18,824
434,7	17,367
435,1	16,195
435,6	18,624
436	15,652
436,5	17,567
436,9	18,51
437,4	21,024
437,8	22,824
438,3	28,452
438,8	30,738
439,2	34,852
439,7	32,567
440,1	32,71
440,6	32,452
441	31,138
441,5	28,138
441,9	23,338
442,4	21,995
442,8	23,881
443,3	26,938
443,7	26,938
444,2	30,195
444,7	33,138
445,1	40,51
445,6	40,31
446	41,338
446,5	41,167
446,9	47,595
447,4	50,224
447,8	53,51
448,3	50,767
448,7	53,481
449,2	58,367
449,6	61,224
450,1	59,224
450,6	63,795
451	64,71
451,5	72,938
451,9	75,767
452,4	75,11
452,8	76,938
453,3	75,681
453,7	75,081
454,2	71,338
454,6	69,024
455,1	73,481
455,5	74,252
456	76,795
456,4	81,138
456,9	85,338
457,3	90,595
457,8	88,195
458,3	84,595
458,7	90,995
459,2	91,31
459,6	96,11
460,1	95,71
460,5	94,938
461	100,881
461,4	103,224
461,9	103,081
462,3	104,567
462,8	105,595
463,2	106,538
463,7	110,995
464,1	112,167
464,6	115,652
465	115,652
465,5	117,51
466	121,367
466,4	126,481
466,9	129,71
467,3	130,367
467,8	135,024
468,2	141,11
468,7	147,795
469,1	148,424
469,6	142,995
470	144,481
470,5	148,624
470,9	147,71
471,4	150,795
471,8	149,681
472,3	150,738
472,7	158,538
473,2	156,31
473,6	156,767
474,1	157,938
474,5	154,052
475	154,652
475,4	154,452
475,9	155,767
476,4	160,31
476,8	167,852
477,3	171,681
477,7	176,51
478,2	180,11
478,6	182,395
479,1	188,338
479,5	191,624
480	190,538
480,4	191,538
480,9	185,967
481,3	189,652
481,8	193,138
482,2	193,281
482,7	193,081
483,1	190,852
483,6	189,367
484	195,738
484,5	199,967
484,9	201,567
485,4	201,995
485,8	202,938
486,3	202,338
486,7	210,624
487,2	217,852
487,6	211,052
488,1	211,595
488,5	209,938
489	214,595
489,4	220,538
489,9	217,024
490,4	212,995
490,8	216,052
491,3	218,081
491,7	220,881
492,2	218,081
492,6	216,367
493,1	218,052
493,5	218,452
494	222,767
494,4	223,395
494,9	227,681
495,3	228,967
495,8	234,024
496,2	234,481
496,7	238,795
497,1	238,967
497,6	243,481
498	244,967
498,5	246,195
498,9	248,11
499,4	246,052
499,8	246,452
500,3	246,91
500,7	244,681
501,2	242,224
501,6	244,024
502,1	244,081
502,5	249,767
503	251,024
503,4	248,71
503,9	250,538
504,3	253,71
504,8	256,681
505,2	258,138
505,7	258,91
506,1	253,024
506,6	253,195
507	254,024
507,5	251,195
507,9	252,51
508,4	252,767
508,8	251,738
509,3	260,795
509,7	264,281
510,2	266,567
510,6	267,824
511,1	270,881
511,5	269,424
512	271,052
512,4	269,338
512,9	269,281
513,3	271,338
513,8	276,91
514,2	275,481
514,7	281,11
515,1	283,795
515,6	283,824
516	285,167
516,5	284,452
516,9	282,767
517,4	285,91
517,8	284,195
518,3	285,195
518,7	291,338
519,2	301,51
519,6	301,995
520,1	305,452
520,5	301,624
521	300,881
521,4	301,795
521,9	299,595
522,3	295,31
522,8	294,138
523,2	295,652
523,7	297,281
524,1	302,252
524,6	301,71
525	304,738
525,5	303,367
525,9	311,167
526,4	309,538
526,8	314,024
527,3	312,738
527,7	319,281
528,2	321,91
528,6	327,538
529,1	324,338
529,5	328,567
530	330,71
530,4	335,967
530,9	338,767
531,3	337,281
531,8	334,51
532,2	338,652
532,6	336,452
533,1	335,367
533,5	333,738
534	330,11
534,4	330,738
534,9	334,767
535,3	340,91
535,8	350,452
536,2	352,938
536,7	352,652
537,1	356,91
537,6	359,252
538	360,281
538,5	358,967
538,9	360,052
539,4	361,195
539,8	365,738
540,3	368,824
540,7	372,195
541,2	373,51
541,6	372,538
542,1	368,224
542,5	368,024
543	370,824
543,4	368,91
543,9	371,51
544,3	376,252
544,8	379,195
545,2	383,424
545,7	390,767
546,1	394,767
546,5	400,595
547	400,51
547,4	399,338
547,9	399,967
548,3	401,195
548,8	398,938
549,2	400,167
549,7	399,367
550,1	398,452
550,6	402,367
551	400,652
551,5	397,738
551,9	396,738
552,4	395,967
552,8	395,281
553,3	397,595
553,7	396,824
554,2	401,452
554,6	407,081
555,1	412,681
555,5	413,081
555,9	412,967
556,4	415,824
556,8	422,167
557,3	420,138
557,7	422,567
558,2	422,967
558,6	421,767
559,1	427,11
559,5	427,424
560	422,224
560,4	428,795
560,9	427,11
561,3	429,91
561,8	438,881
562,2	440,167
562,7	438,767
563,1	444,138
563,6	442,081
564	444,167
564,4	442,881
564,9	438,652
565,3	438,71
565,8	445,91
566,2	446,995
566,7	449,452
567,1	450,167
567,6	454,51
568	453,052
568,5	452,052
568,9	452,995
569,4	452,51
569,8	451,338
570,3	451,195
570,7	449,767
571,1	453,138
571,6	452,938
572	450,795
572,5	447,024
572,9	447,481
573,4	446,51
573,8	452,681
574,3	454,624
574,7	456,224
575,2	455,595
575,6	461,081
576,1	465,738
576,5	471,767
576,9	463,824
577,4	464,71
577,8	466,824
578,3	468,595
578,7	463,595
579,2	458,281
579,6	461,167
580,1	466,195
580,5	467,738
581	464,281
581,4	469,881
581,9	471,452
582,3	474,11
582,7	461,995
583,2	463,881
583,6	453,567
584,1	453,167
584,5	446,881
585	446,252
585,4	447,138
585,9	454,71
586,3	448,11
586,8	453,681
587,2	458,224
587,6	456,481
588,1	456,252
588,5	458,51
589	455,824
589,4	456,052
589,9	452,51
590,3	448,852
590,8	445,195
591,2	446,938
591,7	441,995
592,1	446,995
592,5	447,91
593	449,424
593,4	448,395
593,9	454,052
594,3	456,31
594,8	456,567
595,2	452,195
595,7	452,024
596,1	453,338
596,6	453,881
597	454,138
597,4	450,795
597,9	445,91
598,3	443,224
598,8	440,167
599,2	442,624
599,7	445,367
600,1	441,024
600,6	435,452
601	436,595
601,4	436,995
601,9	435,081
602,3	430,367
602,8	427,967
603,2	427,167
603,7	432,652
604,1	433,424
604,6	431,767
605	438,51
605,4	439,595
605,9	435,281
606,3	439,11
606,8	435,395
607,2	439,967
607,7	440,681
608,1	435,538
608,6	439,967
609	443,167
609,4	436,71
609,9	436,424
610,3	429,167
610,8	432,281
611,2	430,081
611,7	421,424
612,1	417,395
612,6	416,738
613	410,252
613,4	411,995
613,9	406,995
614,3	407,281
614,8	405,824
615,2	406,881
615,7	409,481
616,1	412,91
616,6	415,395
617	411,71
617,4	410,367
617,9	411,995
618,3	409,824
618,8	407,252
619,2	409,881
619,7	407,281
620,1	405,881
620,5	406,052
621	400,567
621,4	398,824
621,9	396,052
622,3	390,452
622,8	384,195
623,2	386,995
623,6	382,538
624,1	380,424
624,5	377,995
625	375,738
625,4	374,767
625,9	374,624
626,3	371,624
626,8	368,252
627,2	372,652
627,6	369,538
628,1	372,138
628,5	370,252
629	367,995
629,4	364,595
629,9	370,795
630,3	364,11
630,7	367,195
631,2	364,91
631,6	364,967
632,1	361,71
632,5	360,167
633	354,767
633,4	352,138
633,8	348,938
634,3	345,824
634,7	345,652
635,2	345,595
635,6	345,852
636,1	343,31
636,5	345,052
636,9	344,195
637,4	346,31
637,8	342,167
638,3	337,881
638,7	338,367
639,2	334,538
639,6	337,624
640	333,595
640,5	329,938
640,9	326,824
641,4	327,995
641,8	325,767
642,2	325,167
642,7	320,881
643,1	317,852
643,6	319,281
644	321,824
644,5	327,252
644,9	323,938
645,3	325,624
645,8	324,052
646,2	323,967
646,7	312,967
647,1	309,138
647,6	303,538
648	301,024
648,4	298,281
648,9	298,138
649,3	295,452
649,8	298,595
650,2	297,795
650,6	299,795
651,1	299,367
651,5	295,824
652	290,881
652,4	288,567
652,9	287,195
653,3	284,195
653,7	279,967
654,2	276,51
654,6	273,338
655,1	271,138
655,5	273,91
655,9	275,052
656,4	275,995
656,8	271,024
657,3	273,31
657,7	274,995
658,2	276,91
658,6	276,081
659	273,995
659,5	271,967
659,9	270,881
660,4	263,167
660,8	261,91
661,2	259,395
661,7	257,881
662,1	256,881
662,6	254,195
663	253,652
663,4	258,595
663,9	257,595
664,3	256,224
664,8	254,652
665,2	250,881
665,6	251,081
666,1	252,195
666,5	248,138
667	247,624
667,4	246,91
667,9	249,567
668,3	249,11
668,7	247,681
669,2	242,595
669,6	240,338
670,1	237,681
670,5	234,767
670,9	228,281
671,4	224,652
671,8	221,71
672,3	217,281
672,7	221,967
673,1	220,995
673,6	222,167
674	220,795
674,5	220,938
674,9	221,938
675,3	225,852
675,8	219,824
676,2	216,995
676,7	212,51
677,1	211,538
677,5	210,167
678	209,91
678,4	207,51
678,9	207,624
679,3	211,681
679,7	213,024
680,2	212,367
680,6	215,538
681,1	214,195
681,5	213,71
681,9	213,681
682,4	210,738
682,8	209,824
683,3	209,281
683,7	205,767
684,1	201,11
684,6	201,681
685	197,252
685,5	194,395
685,9	193,167
686,3	191,31
686,8	192,31
687,2	192,481
687,7	187,795
688,1	191,881
688,5	194,652
689	191,738
689,4	194,195
689,9	192,11
690,3	195,138
690,7	195,795
691,2	189,024
691,6	189,252
692	187,11
692,5	180,91
692,9	175,224
693,4	167,367
693,8	171,195
694,2	172,595
694,7	166,395
695,1	171,567
695,6	172,538
696	174,767
696,4	180,31
696,9	175,938
697,3	175,824
697,8	176,967
698,2	169,795
698,6	164,452
699,1	167,881
699,5	157,11
699,9	154,167
700,4	151,338
700,8	152,081
701,3	155,138
701,7	159,052
702,1	153,338
702,6	156,052
703	156,081
703,5	152,852
703,9	147,224
704,3	144,338
704,8	143,767
705,2	139,595
705,6	141,538
706,1	138,71
706,5	145,852
707	148,824
707,4	147,795
707,8	140,995
708,3	143,995
708,7	140,138
709,2	142,824
709,6	134,395
710	130,481
710,5	133,624
710,9	136,681
711,3	131,967
711,8	133,767
712,2	129,767
712,7	131,852
713,1	131,795
713,5	125,681
714	128,138
714,4	129,91
714,8	128,767
715,3	125,052
715,7	121,681
716,2	121,995
716,6	119,767
717	114,11
717,5	109,995
717,9	110,138
718,3	112,395
718,8	114,852
719,2	110,167
719,7	112,281
720,1	111,852
720,5	114,852
721	110,452
721,4	111,481
721,8	109,51
722,3	113,138
722,7	115,767
723,2	117,452
723,6	115,338
724	115,538
724,5	113,738
724,9	116,138
725,3	111,395
725,8	108,71
726,2	103,681
726,7	109,71
727,1	111,71
727,5	110,081
728	106,395
728,4	106,195
728,8	99,91
729,3	103,31
729,7	98,252
730,1	95,652
730,6	93,024
731	91,91
731,5	87,767
731,9	91,91
732,3	90,795
732,8	92,595
733,2	93,367
733,6	97,167
734,1	97,652
734,5	100,367
734,9	93,595
735,4	93,652
735,8	87,767
736,3	86,652
736,7	83,938
737,1	84,224
737,6	87,51
738	95,338
738,4	93,738
738,9	93,31
739,3	93,252
739,7	91,995
740,2	87,452
740,6	86,138
741,1	79,252
741,5	77,967
741,9	78,567
742,4	77,024
742,8	76,51
743,2	80,595
743,7	78,024
744,1	82,624
744,5	85,91
745	83,738
745,4	83,938
745,8	85,167
746,3	83,338
746,7	82,281
747,2	77,395
747,6	71,367
748	72,31
748,5	72,967
748,9	66,995
749,3	58,681
749,8	57,595
750,2	60,767
750,6	67,652
751,1	64,738
751,5	63,252
751,9	67,567
752,4	70,681
752,8	73,224
753,3	68,624
753,7	61,538
754,1	62,538
754,6	60,138
755	57,424
755,4	67,195
755,9	66,681
756,3	70,595
756,7	74,681
757,2	74,424
757,6	76,624
758	78,995
758,5	73,624
758,9	72,252
759,3	68,281
759,8	64,538
760,2	63,024
760,6	66,338
761,1	62,995
761,5	63,652
761,9	67,567
762,4	68,481
762,8	67,595
763,3	68,081
763,7	59,91
764,1	66,681
764,6	64,138
765	55,71
765,4	56,195
765,9	59,481
766,3	58,967
766,7	62,824
767,2	55,652
767,6	53,452
768	56,024
768,5	55,595
768,9	54,91
769,3	51,795
769,8	51,795
770,2	50,852
770,6	51,91
771,1	51,852
771,5	49,795
771,9	50,652
772,4	56,024
772,8	56,138
773,2	60,624
773,7	58,31
774,1	58,138
774,5	53,452
775	46,538
775,4	40,795
775,8	38,824
776,3	39,995
776,7	37,252
777,1	36,224
777,6	39,71
778	44,424
778,4	48,31
778,9	45,338
779,3	40,367
779,7	39,452
780,2	43,995
780,6	46,567
781	41,938
781,5	39,567
781,9	40,51
782,3	42,224
782,8	51,338
783,2	46,538
783,6	45,081
784,1	46,281
784,5	47,481
784,9	47,681
785,4	44,795
785,8	41,081
786,2	36,852
786,7	35,595
787,1	37,052
787,5	36,967
788	34,852
788,4	35,681
788,8	30,767
789,3	35,938
789,7	37,824
790,1	34,767
790,6	32,91
791	35,652
791,4	36,081
791,9	40,052
792,3	38,852
792,7	36,252
793,2	36,795
793,6	41,052
794	37,481
794,5	39,995
794,9	41,167
795,3	45,281
795,8	43,024
796,2	45,681
796,6	41,052
797,1	39,224
797,5	40,395
797,9	40,881
798,4	33,224
798,8	37,367
799,2	40,71
799,7	44,824
800,1	49,967
800,5	45,052
801	43,11
801,4	50,024
801,8	46,367
802,2	43,71
802,7	42,11
803,1	40,995
803,5	40,595
804	36,424
804,4	34,138
804,8	37,395
805,3	37,424
805,7	35,51
806,1	32,624
806,6	33,31
807	37,481
807,4	34,71
807,9	33,681
808,3	31,852
808,7	29,481
809,2	34,852
809,6	37,481
810	33,052
810,4	31,652
810,9	27,681
811,3	28,424
811,7	31,681
812,2	30,938
812,6	25,481
813	27,624
813,5	26,138
813,9	28,738
814,3	24,967
814,8	22,538
815,2	21,081
815,6	25,338
816,1	26,024
816,5	26,624
816,9	21,538
817,3	23,938
817,8	23,91
818,2	23,081
818,6	18,138
819,1	22,567
819,5	22,395
819,9	27,195
820,4	27,395
820,8	27,367
821,2	29,31
821,7	33,71
822,1	29,624
822,5	31,281
822,9	30,11
823,4	31,452
823,8	30,11
824,2	33,395
824,7	33,081
825,1	30,338
825,5	26,91
826	26,738
826,4	20,967
826,8	22,995
827,3	18,51
827,7	17,452
828,1	18,738
828,5	19,538
829	22,795
829,4	23,595
829,8	20,31
830,3	18,452
830,7	19,024
831,1	19,71
831,6	24,881
832	26,824
832,4	28,652
832,8	28,738
833,3	27,395
833,7	21,995
834,1	20,224
834,6	17,052
835	15,052
835,4	12,824
835,8	12,852
836,3	10,967
836,7	12,367
837,1	14,252
837,6	12,767
838	9,395
838,4	11,71
838,9	14,481
839,3	22,367
839,7	26,338
840,1	21,681
840,6	23,281
841	25,595
841,4	24,481
841,9	23,967
842,3	18,738
842,7	15,224
843,1	18,767
843,6	18,481
844	16,367
844,4	17,538
844,9	17,224
845,3	16,195
845,7	17,052
846,2	12,938
846,6	14,624
847	15,91
847,4	6,995
847,9	4,824
848,3	8,052
848,7	7,567
849,2	12,024
849,6	4,91
850	5,938
850,4	16,452
850,9	16,481
851,3	15,995
851,7	15,11
852,2	17,481
852,6	19,538
853	17,595
853,4	14,71
853,9	12,995
854,3	12,167
854,7	11,681
855,2	11,538
855,6	14,938
856	14,452
856,4	14,11
856,9	18,881
857,3	17,824
857,7	21,681
858,2	12,51
858,6	8,281
859	7,995
859,4	13,452
859,9	12,052
860,3	10,481
860,7	5,938
861,1	14,167
861,6	17,767
862	17,967
862,4	9,481
862,9	10,481
863,3	9,624
863,7	15,395
864,1	10,652
864,6	8,424
865	11,738
865,4	12,452
865,9	11,995
866,3	14,938
866,7	16,395
867,1	15,081
867,6	18,395
868	19,452
868,4	20,081
868,8	18,824
869,3	19,281
869,7	17,452
870,1	21,338
870,6	16,052
871	66,91
871,4	64,995
871,8	68,024
872,3	64,767
872,7	61,11
873,1	57,738
873,5	61,881
874	5,252
874,4	8,852
874,8	12,338
875,3	13,995
875,7	14,852
876,1	15,652
876,5	13,624
877	15,624
877,4	15,338
877,8	8,481
878,2	5,338
878,7	9,367
879,1	6,338
879,5	5,224
879,9	4,024
880,4	7,738
880,8	7,995
881,2	14,595
881,7	8,195
882,1	17,567
882,5	21,424
882,9	20,881
883,4	20,195
883,8	22,11
884,2	16,995
884,6	18,938
885,1	16,51
885,5	13,024
885,9	15,795
886,3	11,252
886,8	7,51
887,2	5,138
887,6	3,481
888	3,567
888,5	5,767
888,9	9,567
889,3	10,795
889,8	13,138
890,2	15,452
890,6	16,395
891	15,338
891,5	17,081
891,9	11,595
892,3	12,424
892,7	16,338
893,2	18,767
893,6	18,795
894	20,51
894,4	19,452
894,9	17,138
895,3	14,395
895,7	7,195
896,1	6,767
896,6	8,938
897	5,024
897,4	6,338
897,8	8,652
898,3	14,395
898,7	18,11
899,1	15,195
899,5	12,624
900	10,252
900,4	9,767
900,8	11,138
901,2	8,138
901,7	5,052
902,1	7,967
902,5	4,395
902,9	8,052
903,4	3,452
903,8	3,767
904,2	1,567
904,6	2,481
905,1	6,424
905,5	8,081
905,9	8,167
906,3	9,652
906,8	9,795
907,2	8,938
907,6	11,31
908	3,51
908,5	5,91
908,9	6,167
909,3	7,595
909,7	2,652
910,2	6,567
910,6	3,081
911	6,081
911,4	6,195
911,9	0,167
912,3	-5,119
912,7	-6,69
913,1	-6,976
913,6	-6,262
914	-3,919
914,4	-9,89
914,8	-5,176
915,3	0,452
915,7	10,681
916,1	6,11
916,5	7,595
916,9	2,795
917,4	6,51
917,8	4,738
918,2	5,824
918,6	2,852
919,1	6,91
919,5	5,71
919,9	10,31
920,3	10,224
920,8	13,252
921,2	11,995
921,6	13,024
922	13,11
922,5	12,052
922,9	10,052
923,3	13,538
923,7	12,652
924,2	12,024
924,6	8,052
925	7,881
925,4	11,424
925,8	11,224
926,3	12,052
926,7	13,11
927,1	15,367
927,5	16,795
928	14,852
928,4	16,052
928,8	15,195
929,2	10,652
929,7	10,195
930,1	8,71
930,5	7,681
930,9	5,595
931,3	2,367
931,8	4,052
932,2	9,081
932,6	6,024
933	1,138
933,5	6,167
933,9	7,767
934,3	10,595
934,7	7,11
935,2	7,081
935,6	7,138
936	6,995
936,4	4,367
936,8	4,11
937,3	0,91
937,7	5,167
938,1	-1,433
938,5	0,567
939	3,71
939,4	-0,49
939,8	1,767
940,2	5,167
940,6	4,052
941,1	11,224
941,5	12,738
941,9	15,367
942,3	15,767
942,8	15,595
943,2	16,367
943,6	18,052
944	13,252
944,4	11,138
944,9	8,595
945,3	8,652
945,7	6,71
946,1	2,31
946,6	2,195
947	6,11
947,4	4,481
947,8	5,795
948,2	7,567
948,7	5,71
949,1	10,167
949,5	5,881
949,9	3,881
950,3	4,71
950,8	6,195
951,2	3,367
951,6	6,11
952	2,824
952,5	7,024
952,9	7,081
953,3	8,024
953,7	7,338
954,1	10,052
954,6	9,938
955	9,91
955,4	11,024
955,8	13,595
956,2	12,881
956,7	9,567
957,1	2,481
957,5	2,224
957,9	3,338
958,3	-2,09
958,8	-4,833
959,2	-3,462
959,6	-2,148
960	4,852
960,5	1,024
960,9	3,595
961,3	4,71
961,7	3,967
962,1	3,138
962,6	4,452
963	4,052
963,4	8,167
963,8	4,595
964,2	4,824
964,7	5,652
965,1	3,567
965,5	3,538
965,9	4,71
966,3	6,11
966,8	6,024
967,2	4,595
967,6	4,11
968	3,481
968,4	6,167
968,9	2,881
969,3	1,338
969,7	0,481
970,1	0,795
970,5	-0,09
971	0,167
971,4	-2,376
971,8	-5,005
972,2	-3,148
972,6	-3,519
973,1	-5,262
973,5	-5,605
973,9	-3,348
974,3	-5,119
974,7	-1,719
975,2	-2,148
975,6	-0,176
976	4,224
976,4	3,852
976,8	2,881
977,3	7,281
977,7	5,51
978,1	3,395
978,5	5,281
978,9	1,852
979,4	5,138
979,8	5,224
980,2	0,91
980,6	2,11
981	7,138
981,5	2,052
981,9	4,967
982,3	6,138
982,7	6,852
983,1	4,395
983,6	6,252
984	1,738
984,4	5,024
984,8	6,767
985,2	0,452
985,6	0,31
986,1	2,995
986,5	1,624
986,9	0,481
987,3	-3,233
987,7	-2,862
988,2	1,91
988,6	0,881
989	-0,348
989,4	2,195
989,8	2,167
990,3	3,767
990,7	2,195
991,1	0,624
991,5	3,281
991,9	4,51
992,3	-0,49
992,8	1,081
993,2	4,824
993,6	1,624
994	0,138
994,4	3,652
994,9	4,738
995,3	13,51
995,7	11,167
996,1	9,767
996,5	8,852
996,9	9,195
997,4	3,595
997,8	6,167
998,2	1,538
998,6	4,052
999	4,967
999,5	5,71
999,9	7,195
1000,3	12,252
1000,7	11,852
1001,1	9,424
1001,5	12,938
1002	12,11
1002,4	14,652
1002,8	13,652
1003,2	9,624
1003,6	6,31
1004	8,795
1004,5	6,51
1004,9	1,11
1005,3	2,195
1005,7	3,481
1006,1	5,367
1006,6	2,31
1007	-1,09
1007,4	-6,033
1007,8	4,367
1008,2	7,195
1008,6	6,195
1009,1	4,795
1009,5	6,081
1009,9	9,967
1010,3	10,71
1010,7	7,424
1011,1	6,052
1011,6	10,481
1012	11,652
1012,4	14,652
1012,8	11,338
1013,2	17,424
1013,6	14,367
1014,1	11,995
1014,5	4,538
1014,9	1,938
1015,3	1,538
1015,7	7,367
1016,1	0,167
1016,6	2,338
1017	5,024
1017,4	9,91
1017,8	4,195
1018,2	5,967
1018,6	5,281
1019,1	9,31
1019,5	7,195
1019,9	6,081
1020,3	-0,119
1020,7	8,052
1021,1	3,995
1021,6	0,767
1022	2,481
1022,4	4,967
1022,8	-1,433
1023,2	1,281
1023,6	-2,662
1024,1	-4,748
1024,5	-6,119
1024,9	-6,548
1025,3	-6,719
1025,7	0,024
1026,1	7,795
1026,6	12,967
1027	18,652
1027,4	22,11
1027,8	18,424
1028,2	15,224
1028,6	13,281
1029	6,767
1029,5	4,795
1029,9	5,252
1030,3	1,967
1030,7	5,681
1031,1	10,281
1031,5	12,91
1032	11,538
1032,4	11,052
1032,8	8,967
1033,2	13,652
1033,6	12,51
1034	11,595
1034,4	9,881
1034,9	12,91
1035,3	12,081
1035,7	12,938
1036,1	9,281
1036,5	11,31
1036,9	7,71
1037,4	8,052
1037,8	7,938
1038,2	6,767
1038,6	3,738
1039	1,595
1039,4	-2,233
1039,8	-2,462
1040,3	-1,319
1040,7	-4,348
1041,1	-7,776
1041,5	-1,119
1041,9	-0,948
1042,3	0,052
1042,7	1,538
1043,2	2,567
1043,6	9,738
1044	18,31
1044,4	15,081
1044,8	18,195
1045,2	18,224
1045,6	20,395
1046,1	13,767
1046,5	4,595
1046,9	-0,148
1047,3	-1,262
1047,7	-1,348
1048,1	0,567
1048,5	-1,633
1049	3,567
1049,4	7,052
1049,8	7,51
1050,2	5,281
1050,6	4,31
1051	-0,405
1051,4	-5,633
1051,9	-9,605
1052,3	-7,09
1052,7	-9,262
1053,1	-6,862
1053,5	-6,633
1053,9	-5,033
1054,3	-3,376
1054,8	-2,49
1055,2	-6,405
1055,6	-3,748
1056	-4,405
1056,4	-3,605
1056,8	1,652
1057,2	3,367
1057,6	5,31
1058,1	11,395
1058,5	7,024
1058,9	6,767
1059,3	5,538
1059,7	-0,376
1060,1	-0,605
1060,5	-6,29
1061	-11,89
1061,4	-4,148
1061,8	-5,405
1062,2	-6,462
1062,6	-3,748
1063	-3,548
1063,4	4,624
1063,8	6,367
1064,3	0,224
1064,7	5,767
1065,1	7,795
1065,5	8,481
1065,9	7,852
1066,3	8,11
1066,7	7,51
1067,1	4,652
1067,6	1,052
1068	1,881
1068,4	-0,605
1068,8	-1,033
1069,2	-3,405
1069,6	-4,062
1070	5,538
1070,4	7,481
1070,9	3,395
1071,3	6,824
1071,7	11,081
1072,1	12,367
1072,5	13,567
1072,9	9,452
1073,3	8,424
1073,7	10,367
1074,2	7,281
1074,6	4,624
1075	3,167
1075,4	3,081
1075,8	5,481
1076,2	4,195
1076,6	8,652
1077	6,995
1077,5	10,395
1077,9	8,91
1078,3	6,167
1078,7	-2,433
1079,1	0,167
1079,5	-3,89
1079,9	-1,89
1080,3	-5,548
1080,7	-4,348
1081,2	0,652
1081,6	3,738
1082	4,424
1082,4	2,567
1082,8	2,31
1083,2	5,624
1083,6	2,367
1084	-2,69
1084,5	3,424
1084,9	-5,262
1085,3	-5,49
1085,7	-3,919
1086,1	-6,205
1086,5	-6,976
1086,9	-5,033
1087,3	-11,833
1087,7	-8,805
1088,2	-6,862
1088,6	-7,69
1089	-9,805
1089,4	-9,262
1089,8	-9,462
1090,2	-6,605
1090,6	-3,376
1091	-3,033
1091,4	-2,748
1091,9	0,624
1092,3	4,452
1092,7	7,967
1093,1	7,567
1093,5	7,281
1093,9	6,252
1094,3	4,538
1094,7	3,395
1095,1	-0,233
1095,5	-6,862
1096	-3,776
1096,4	-7,29
1096,8	-7,376
1097,2	-6,49
1097,6	-3,805
1098	-2,605
1098,4	-1,376
1098,8	-2,319
1099,2	0,395
1099,6	3,681
1100,1	3,052
1100,5	-0,376
1100,9	2,624
1101,3	5,595
1101,7	4,681
1102,1	7,595
1102,5	-0,29
1102,9	-1,662
1103,3	-0,605
1103,7	-2,948
1104,2	0,167
1104,6	2,395
1105	0,452
1105,4	7,081
1105,8	9,281
1106,2	8,281
1106,6	7,881
1107	4,624
1107,4	2,833
1107,8	1,887
1108,3	-0,083
