Data from Subt2_00007.txt Node
Date: Mon Aug 28 13:05:36 MSK 2023
User: vat
Spectrometer: MAYP114033
Trigger mode: 0
Integration Time (sec): 1,000000E0
Scans to average: 5
Electric dark correction enabled: true
Nonlinearity correction enabled: false
Boxcar width: 3
XAxis mode: Wavelengths
Number of Pixels in Spectrum: 2068
>>>>>Begin Spectral Data<<<<<
199,4	-1,433
199,9	0,947
200,4	-0,033
200,8	1,21
201,3	-0,133
201,8	1,867
202,2	4,352
202,7	6,01
203,2	5,324
203,6	5,324
204,1	6,924
204,6	10,352
205	10,838
205,5	12,867
206	12,724
206,4	13,695
206,9	20,438
207,4	19,781
207,8	18,667
208,3	20,467
208,8	16,752
209,2	19,838
209,7	19,067
210,2	10,01
210,6	9,352
211,1	7,552
211,5	10,838
212	11,781
212,5	9,695
212,9	10,924
213,4	15,067
213,9	16,067
214,3	15,067
214,8	12,724
215,3	12,495
215,7	12,21
216,2	13,238
216,7	14,01
217,1	12,352
217,6	12,152
218,1	5,581
218,5	4,838
219	3,867
219,5	1,067
219,9	2,895
220,4	1,267
220,9	5,438
221,3	7,952
221,8	10,867
222,3	14,61
222,7	15,838
223,2	15,581
223,6	18,552
224,1	17,638
224,6	18,781
225	16,952
225,5	14,152
226	16,867
226,4	15,124
226,9	16,61
227,4	15,61
227,8	13,267
228,3	11,381
228,8	13,895
229,2	15,124
229,7	16,41
230,2	12,238
230,6	11,181
231,1	14,067
231,5	17,038
232	16,895
232,5	9,895
232,9	4,124
233,4	5,495
233,9	10,095
234,3	7,381
234,8	9,781
235,3	4,181
235,7	5,095
236,2	5,981
236,7	2,467
237,1	6,81
237,6	8,495
238,1	0,41
238,5	7,238
239	4,295
239,4	9,181
239,9	14,41
240,4	6,924
240,8	7,067
241,3	18,181
241,8	12,924
242,2	21,21
242,7	25,695
243,2	23,21
243,6	27,552
244,1	21,324
244,6	16,61
245	16,81
245,5	17,581
245,9	9,438
246,4	14,295
246,9	11,267
247,3	13,838
247,8	12,295
248,3	15,867
248,7	15,01
249,2	15,381
249,7	14,352
250,1	14,01
250,6	16,724
251	11,295
251,5	9,01
252	3,238
252,4	4,981
252,9	1,21
253,4	4,781
253,8	4,981
254,3	8,667
254,8	11,638
255,2	12,267
255,7	13,895
256,1	14,638
256,6	14,895
257,1	15,324
257,5	14,181
258	8,467
258,5	10,781
258,9	7,952
259,4	6,781
259,9	2,981
260,3	3,152
260,8	4,467
261,2	10,01
261,7	9,61
262,2	10,181
262,6	14,152
263,1	13,695
263,6	13,81
264	14,752
264,5	12,781
264,9	11,81
265,4	10,638
265,9	10,695
266,3	13,81
266,8	10,838
267,3	11,41
267,7	10,238
268,2	13,267
268,7	13,667
269,1	11,695
269,6	13,095
270	18,467
270,5	17,524
271	16,924
271,4	19,352
271,9	22,552
272,4	22,495
272,8	19,181
273,3	18,524
273,7	13,81
274,2	14,638
274,7	7,41
275,1	5,41
275,6	2,352
276,1	1,152
276,5	2,038
277	8,495
277,4	9,467
277,9	13,41
278,4	12,238
278,8	14,61
279,3	15,667
279,8	6,038
280,2	1,724
280,7	-1,276
281,1	-5,848
281,6	-3,705
282,1	-8,848
282,5	-8,848
283	-2,562
283,4	-0,048
283,9	2,952
284,4	4,067
284,8	1,21
285,3	7,295
285,8	5,124
286,2	-0,419
286,7	-1,019
287,1	0,181
287,6	2,838
288,1	9,095
288,5	9,524
289	13,124
289,5	17,81
289,9	24,21
290,4	24,095
290,8	25,324
291,3	20,867
291,8	23,067
292,2	19,667
292,7	24,152
293,1	21,352
293,6	20,438
294,1	20,667
294,5	21,838
295	17,724
295,5	20,01
295,9	14,152
296,4	15,295
296,8	15,695
297,3	12,21
297,8	9,638
298,2	12,467
298,7	13,724
299,1	18,495
299,6	12,352
300,1	10,524
300,5	10,667
301	14,381
301,5	9,752
301,9	2,467
302,4	-1,19
302,8	-1,448
303,3	-3,733
303,8	-1,476
304,2	-9,305
304,7	-7,133
305,1	-1,219
305,6	-1,648
306,1	-0,762
306,5	7,267
307	5,295
307,4	10,924
307,9	12,838
308,4	13,581
308,8	16,01
309,3	18,381
309,8	14,152
310,2	16,495
310,7	20,095
311,1	18,495
311,6	19,41
312,1	17,524
312,5	16,752
313	14,295
313,4	15,952
313,9	10,381
314,4	9,581
314,8	4,981
315,3	7,095
315,7	5,981
316,2	8,324
316,7	2,438
317,1	2,781
317,6	1,381
318	5,867
318,5	4,01
319	7,924
319,4	8,695
319,9	7,981
320,3	8,61
320,8	14,695
321,3	15,467
321,7	13,267
322,2	12,01
322,6	7,495
323,1	11,895
323,6	12,467
324	10,381
324,5	7,895
324,9	10,124
325,4	8,352
325,9	11,067
326,3	8,895
326,8	9,724
327,2	7,524
327,7	8,495
328,2	8,838
328,6	10,352
329,1	11,467
329,5	11,838
330	11,038
330,5	14,61
330,9	12,467
331,4	15,867
331,8	17,724
332,3	19,152
332,8	18,667
333,2	19,381
333,7	19,838
334,1	21,952
334,6	21,952
335,1	20,438
335,5	20,952
336	21,324
336,4	23,838
336,9	22,324
337,4	24,238
337,8	24,295
338,3	23,181
338,7	20,495
339,2	24,181
339,7	23,895
340,1	19,381
340,6	13,41
341	9,61
341,5	12,267
342	14,41
342,4	15,467
342,9	14,695
343,3	14,01
343,8	14,152
344,2	16,41
344,7	15,581
345,2	14,981
345,6	10,695
346,1	6,152
346,5	7,324
347	12,181
347,5	12,724
347,9	10,524
348,4	6,21
348,8	6,724
349,3	10,952
349,8	16,124
350,2	16,495
350,7	17,067
351,1	17,981
351,6	23,81
352	26,695
352,5	31,238
353	33,895
353,4	40,495
353,9	42,781
354,3	55,667
354,8	67,867
355,3	83,152
355,7	90,667
356,2	106,295
356,6	122,524
357,1	146,067
357,5	167,667
358	190,895
358,5	218,952
358,9	258,667
359,4	298,667
359,8	343,895
360,3	395,581
360,8	451,524
361,2	513,924
361,7	577,352
362,1	646,524
362,6	720,724
363	803,067
363,5	897,524
364	992,295
364,4	1091,981
364,9	1197,067
365,3	1301,41
365,8	1401,581
366,3	1490,61
366,7	1568,295
367,2	1635,438
367,6	1690,61
368,1	1736,124
368,5	1761,838
369	1772,552
369,5	1770,838
369,9	1752,152
370,4	1720,438
370,8	1680,895
371,3	1621,124
371,7	1567,181
372,2	1503,124
372,7	1435,438
373,1	1364,524
373,6	1292,324
374	1209,124
374,5	1134,752
374,9	1052,21
375,4	977,467
375,9	900,067
376,3	829,01
376,8	762,867
377,2	704,695
377,7	651,21
378,2	599,724
378,6	550,152
379,1	507,352
379,5	464,638
380	425,324
380,4	393,581
380,9	360,181
381,4	333,724
381,8	312,552
382,3	290,61
382,7	271,752
383,2	255,267
383,6	237,295
384,1	225,581
384,6	211,381
385	198,867
385,5	186,581
385,9	177,152
386,4	167,752
386,8	155,438
387,3	140,895
387,7	129,752
388,2	116,352
388,7	108,381
389,1	95,21
389,6	90,467
390	86,81
390,5	81,41
390,9	76,581
391,4	69,381
391,9	67,638
392,3	69,952
392,8	64,438
393,2	63,924
393,7	61,038
394,1	60,238
394,6	65,01
395,1	64,238
395,5	58,067
396	56,152
396,4	53,981
396,9	54,695
397,3	53,152
397,8	48,467
398,2	44,867
398,7	45,952
399,2	46,667
399,6	48,61
400,1	49,295
400,5	52,667
401	57,038
401,4	57,952
401,9	61,895
402,4	62,095
402,8	58,238
403,3	60,781
403,7	57,352
404,2	56,495
404,6	54,81
405,1	55,067
405,5	51,981
406	49,038
406,5	49,21
406,9	51,295
407,4	55,095
407,8	65,038
408,3	69,01
408,7	78,552
409,2	88,267
409,6	93,381
410,1	100,124
410,6	108,438
411	112,81
411,5	120,724
411,9	130,667
412,4	140,181
412,8	148,638
413,3	159,895
413,7	166,324
414,2	174,467
414,7	182,667
415,1	189,181
415,6	198,552
416	214,524
416,5	227,695
416,9	243,867
417,4	260,495
417,8	273,41
418,3	288,724
418,8	311,438
419,2	330,067
419,7	348,324
420,1	365,524
420,6	381,438
421	409,552
421,5	435,667
421,9	456,552
422,4	482,467
422,8	506,324
423,3	532,638
423,8	565,895
424,2	593,152
424,7	622,838
425,1	653,61
425,6	682,21
426	717,352
426,5	752,524
426,9	793,467
427,4	829,81
427,9	873,181
428,3	921,095
428,8	969,981
429,2	1018,895
429,7	1073,124
430,1	1123,695
430,6	1194,552
431	1261,524
431,5	1322,352
431,9	1386,267
432,4	1458,695
432,8	1537,924
433,3	1621,752
433,8	1701,952
434,2	1782,438
434,7	1874,524
435,1	1976,038
435,6	2076,781
436	2180,41
436,5	2281,238
436,9	2388,752
437,4	2509,238
437,8	2631,724
438,3	2754,524
438,8	2889,267
439,2	3025,467
439,7	3171,238
440,1	3317,695
440,6	3465,895
441	3620,124
441,5	3785,724
441,9	3949,61
442,4	4117,752
442,8	4303,324
443,3	4489,952
443,7	4681,438
444,2	4881,781
444,7	5087,552
445,1	5298,867
445,6	5518,838
446	5738,981
446,5	5964,924
446,9	6198,524
447,4	6447,324
447,8	6685,581
448,3	6936,667
448,7	7194,667
449,2	7455,838
449,6	7722,638
450,1	7999,581
450,6	8264,838
451	8547,295
451,5	8843,552
451,9	9140,352
452,4	9434,324
452,8	9743,095
453,3	10050,638
453,7	10372,467
454,2	10702,495
454,6	11028,667
455,1	11362,81
455,5	11695,61
456	12037,895
456,4	12383,952
456,9	12744,181
457,3	13101,352
457,8	13458,924
458,3	13821,867
458,7	14201,381
459,2	14563,381
459,6	14939,352
460,1	15301,381
460,5	15665,81
461	16028,438
461,4	16405,295
461,9	16781,581
462,3	17160,924
462,8	17533,01
463,2	17912,324
463,7	18285,695
464,1	18662,695
464,6	19032,095
465	19402,552
465,5	19775,952
466	20158,095
466,4	20523,667
466,9	20910,867
467,3	21289,152
467,8	21654,838
468,2	22034,352
468,7	22394,81
469,1	22738,267
469,6	23100,41
470	23449,781
470,5	23789,924
470,9	24121,552
471,4	24448,495
471,8	24782,21
472,3	25108,467
472,7	25425,581
473,2	25748,095
473,6	26074,724
474,1	26392,867
474,5	26690,095
475	26984,01
475,4	27277,01
475,9	27555,181
476,4	27813,61
476,8	28068,21
477,3	28330,067
477,7	28578,095
478,2	28811,981
478,6	29047,238
479,1	29270,552
479,5	29483,752
480	29701,095
480,4	29897,667
480,9	30088,238
481,3	30280,038
481,8	30447,895
482,2	30620,695
482,7	30768,524
483,1	30898,067
483,6	31032,981
484	31151,695
484,5	31264,724
484,9	31372,124
485,4	31462,152
485,8	31539,724
486,3	31615,952
486,7	31659,381
487,2	31720,61
487,6	31764,238
488,1	31808,381
488,5	31841,181
489	31878,952
489,4	31891,695
489,9	31907,467
490,4	31902,924
490,8	31889,667
491,3	31856,552
491,7	31823,895
492,2	31770,495
492,6	31715,838
493,1	31659,152
493,5	31589,295
494	31514,81
494,4	31438,095
494,9	31359,124
495,3	31281,067
495,8	31196,724
496,2	31095,495
496,7	30986,352
497,1	30872,381
497,6	30768,752
498	30637,638
498,5	30516,638
498,9	30372,981
499,4	30234,295
499,8	30092,181
500,3	29964,41
500,7	29821,352
501,2	29675,495
501,6	29509,181
502,1	29357,867
502,5	29205,324
503	29050,41
503,4	28891,438
503,9	28711,21
504,3	28535,038
504,8	28357,695
505,2	28185,524
505,7	27996,467
506,1	27799,867
506,6	27581,924
507	27377,724
507,5	27169,724
507,9	26968,495
508,4	26748,552
508,8	26531,552
509,3	26316,41
509,7	26102,381
510,2	25893,267
510,6	25682,61
511,1	25468,067
511,5	25249,267
512	25031,324
512,4	24813,181
512,9	24595,124
513,3	24353,752
513,8	24122,981
514,2	23897,724
514,7	23672,21
515,1	23441,295
515,6	23213,695
516	22989,924
516,5	22768,552
516,9	22546,667
517,4	22319,095
517,8	22097,867
518,3	21880,238
518,7	21650,438
519,2	21429,781
519,6	21204,238
520,1	20976,895
520,5	20748,01
521	20521,552
521,4	20293,467
521,9	20067,01
522,3	19838,152
522,8	19634,181
523,2	19416,067
523,7	19206,21
524,1	18999,124
524,6	18789,752
525	18588,21
525,5	18385,152
525,9	18164,41
526,4	17965,867
526,8	17760,638
527,3	17548,752
527,7	17352,152
528,2	17158,067
528,6	16957,152
529,1	16771,295
529,5	16582,495
530	16400,467
530,4	16215,952
530,9	16031,181
531,3	15851,152
531,8	15676,495
532,2	15492,81
532,6	15311,324
533,1	15125,267
533,5	14956,095
534	14790,838
534,4	14626,152
534,9	14455,467
535,3	14292,952
535,8	14135,381
536,2	13988,524
536,7	13842,667
537,1	13684,238
537,6	13516,981
538	13371,581
538,5	13227,467
538,9	13058,552
539,4	12899,067
539,8	12744,067
540,3	12600,181
540,7	12464,924
541,2	12321,781
541,6	12175,495
542,1	12052,981
542,5	11921,21
543	11784,01
543,4	11646,038
543,9	11522,324
544,3	11390,21
544,8	11265,61
545,2	11139,867
545,7	11022,095
546,1	10904,581
546,5	10791,124
547	10673,324
547,4	10551,095
547,9	10441,81
548,3	10332,667
548,8	10220,895
549,2	10110,838
549,7	10010,667
550,1	9901,267
550,6	9808,724
551	9700,781
551,5	9601,381
551,9	9503,267
552,4	9402,038
552,8	9310,124
553,3	9218,381
553,7	9123,752
554,2	9033,924
554,6	8938,61
555,1	8843,438
555,5	8762,124
555,9	8667,638
556,4	8581,41
556,8	8498,124
557,3	8414,324
557,7	8333,724
558,2	8262,495
558,6	8183,152
559,1	8105,324
559,5	8020,924
560	7948,21
560,4	7874,181
560,9	7803,867
561,3	7722,352
561,8	7644,695
562,2	7564,695
562,7	7496,695
563,1	7422,867
563,6	7354,752
564	7280,81
564,4	7215,695
564,9	7145,867
565,3	7083,752
565,8	7019,124
566,2	6956,495
566,7	6894,552
567,1	6834,152
567,6	6771,752
568	6716,038
568,5	6652,524
568,9	6588,01
569,4	6523,41
569,8	6460,981
570,3	6401,381
570,7	6342,838
571,1	6281,295
571,6	6229,581
572	6182,667
572,5	6127,867
572,9	6077,781
573,4	6024,295
573,8	5970,867
574,3	5915,695
574,7	5871,438
575,2	5820,524
575,6	5777,238
576,1	5731,152
576,5	5682,981
576,9	5627,581
577,4	5592,238
577,8	5535,438
578,3	5493,181
578,7	5440,01
579,2	5383,295
579,6	5335,724
580,1	5297,981
580,5	5249,01
581	5209,638
581,4	5161,352
581,9	5119,695
582,3	5082,295
582,7	5044,41
583,2	4994,324
583,6	4956,381
584,1	4912,838
584,5	4872,524
585	4826,924
585,4	4783,695
585,9	4734,695
586,3	4708,238
586,8	4660,495
587,2	4617,61
587,6	4574,381
588,1	4545,781
588,5	4512,467
589	4472,838
589,4	4430,695
589,9	4400,695
590,3	4377,238
590,8	4345,381
591,2	4304,095
591,7	4269,152
592,1	4246,61
592,5	4216,295
593	4181,438
593,4	4142,095
593,9	4108,01
594,3	4083,21
594,8	4056,895
595,2	4028,695
595,7	3999,095
596,1	3978,752
596,6	3945,695
597	3921,267
597,4	3894,21
597,9	3863,495
598,3	3842,638
598,8	3819,867
599,2	3791,924
599,7	3783,095
600,1	3761,21
600,6	3729,467
601	3705,61
601,4	3673,095
601,9	3644,067
602,3	3618,181
602,8	3583,238
603,2	3557,952
603,7	3531,61
604,1	3506,667
604,6	3483,838
605	3467,495
605,4	3442,81
605,9	3417,352
606,3	3391,981
606,8	3371,095
607,2	3345,324
607,7	3326,152
608,1	3296,552
608,6	3271,752
609	3254,238
609,4	3236,01
609,9	3219,924
610,3	3203,381
610,8	3179,124
611,2	3155,095
611,7	3130,867
612,1	3109,038
612,6	3081,095
613	3054,638
613,4	3030,095
613,9	3010,238
614,3	2994,352
614,8	2971,352
615,2	2948,267
615,7	2925,381
616,1	2909,61
616,6	2892,01
617	2867,781
617,4	2844,524
617,9	2829,352
618,3	2811,438
618,8	2800,095
619,2	2778,438
619,7	2754,895
620,1	2739,324
620,5	2713,581
621	2692,552
621,4	2670,21
621,9	2643,695
622,3	2630,438
622,8	2620,924
623,2	2599,21
623,6	2590,41
624,1	2578,181
624,5	2560,981
625	2547,638
625,4	2522,638
625,9	2495,467
626,3	2478,81
626,8	2460,667
627,2	2434,181
627,6	2416,438
628,1	2400,981
628,5	2377,067
629	2360,467
629,4	2337,267
629,9	2315,095
630,3	2299,724
630,7	2279,267
631,2	2259,638
631,6	2246,781
632,1	2229,981
632,5	2221,01
633	2211,81
633,4	2195,867
633,8	2183,838
634,3	2163,267
634,7	2152,238
635,2	2139,552
635,6	2118,81
636,1	2097,21
636,5	2080,324
636,9	2060,638
637,4	2047,21
637,8	2035,552
638,3	2024,981
638,7	2014,152
639,2	2004,124
639,6	1990,038
640	1983,238
640,5	1974,981
640,9	1957,381
641,4	1940,552
641,8	1928,01
642,2	1911,21
642,7	1904,124
643,1	1888,124
643,6	1875,467
644	1867,467
644,5	1858,352
644,9	1846,952
645,3	1839,524
645,8	1820,638
646,2	1804,467
646,7	1786,495
647,1	1767,61
647,6	1748,61
648	1741,095
648,4	1723,495
648,9	1709,924
649,3	1702,21
649,8	1699,41
650,2	1687,895
650,6	1675,638
651,1	1659,238
651,5	1648,01
652	1650,124
652,4	1634,495
652,9	1620,638
653,3	1610,438
653,7	1600,695
654,2	1587,295
654,6	1579,21
655,1	1558,152
655,5	1549,581
655,9	1530,267
656,4	1521,81
656,8	1514,438
657,3	1507,552
657,7	1495,752
658,2	1489,152
658,6	1478,152
659	1472,867
659,5	1462,61
659,9	1453,124
660,4	1441,695
660,8	1427,867
661,2	1412,981
661,7	1407,41
662,1	1396,752
662,6	1385,352
663	1369,924
663,4	1359,352
663,9	1356,381
664,3	1345,352
664,8	1332,81
665,2	1324,352
665,6	1313,724
666,1	1308,838
666,5	1298,981
667	1284,838
667,4	1280,352
667,9	1269,524
668,3	1259,981
668,7	1248,467
669,2	1235,124
669,6	1223,095
670,1	1216,924
670,5	1209,095
670,9	1201,438
671,4	1190,324
671,8	1185,295
672,3	1177,238
672,7	1173,181
673,1	1164,781
673,6	1157,324
674	1150,352
674,5	1144,981
674,9	1135,867
675,3	1128,324
675,8	1117,724
676,2	1103,01
676,7	1094,152
677,1	1082,295
677,5	1076,381
678	1068,524
678,4	1064,895
678,9	1054,752
679,3	1050,381
679,7	1042,181
680,2	1039,352
680,6	1027,352
681,1	1022,581
681,5	1015,724
681,9	1010,067
682,4	1000,752
682,8	990,61
683,3	981,01
683,7	975,181
684,1	961,21
684,6	950,41
685	939,381
685,5	930,695
685,9	924,381
686,3	919,381
686,8	916,838
687,2	917,581
687,7	913,81
688,1	913,41
688,5	906,924
689	906,667
689,4	891,781
689,9	878,81
690,3	867,181
690,7	858,152
691,2	854,381
691,6	852,81
692	838,752
692,5	837,21
692,9	832,924
693,4	828,41
693,8	820,952
694,2	810,21
694,7	798,952
695,1	795,667
695,6	795,724
696	789,524
696,4	783,724
696,9	774,867
697,3	770,552
697,8	769,352
698,2	759,21
698,6	743,438
699,1	735,267
699,5	728,867
699,9	725,724
700,4	718,181
700,8	712,467
701,3	712,41
701,7	710,61
702,1	706,752
702,6	699,467
703	697,724
703,5	691,438
703,9	686,81
704,3	680,381
704,8	678,524
705,2	677,552
705,6	678,695
706,1	670,981
706,5	672,695
707	666,695
707,4	666,581
707,8	663,01
708,3	660,21
708,7	652,21
709,2	650,124
709,6	644,81
710	640,181
710,5	630,695
710,9	623,781
711,3	614,124
711,8	605,752
712,2	600,552
712,7	594,238
713,1	588,324
713,5	585,895
714	580,467
714,4	575,038
714,8	576,695
715,3	573,467
715,7	565,238
716,2	567,752
716,6	562,524
717	561,552
717,5	560,581
717,9	552,381
718,3	543,895
718,8	543,438
719,2	539,467
719,7	532,21
720,1	529,438
720,5	520,038
721	518,467
721,4	516,667
721,8	513,152
722,3	506,952
722,7	503,124
723,2	495,41
723,6	498,438
724	494,581
724,5	490,21
724,9	483,952
725,3	476,924
725,8	473,01
726,2	468,581
726,7	459,667
727,1	452,095
727,5	449,638
728	444,181
728,4	441,81
728,8	438,952
729,3	438,724
729,7	436,21
730,1	437,952
730,6	434,238
731	431,295
731,5	432,924
731,9	431,067
732,3	432,038
732,8	430,895
733,2	427,21
733,6	426,295
734,1	425,352
734,5	421,781
734,9	416,238
735,4	406,095
735,8	403,352
736,3	397,267
736,7	390,438
737,1	387,952
737,6	380,267
738	386,238
738,4	389,581
738,9	389,752
739,3	391,895
739,7	393,467
740,2	389,724
740,6	389,924
741,1	380,781
741,5	373,952
741,9	368,324
742,4	369,952
742,8	363,867
743,2	363,152
743,7	360,752
744,1	362,895
744,5	364,838
745	362,61
745,4	356,724
745,8	356,495
746,3	355,467
746,7	346,41
747,2	340,495
747,6	336,124
748	338,01
748,5	334,552
748,9	331,41
749,3	329,124
749,8	332,238
750,2	329,01
750,6	322,552
751,1	316,752
751,5	318,867
751,9	317,867
752,4	318,581
752,8	319,21
753,3	321,381
753,7	319,781
754,1	317,61
754,6	309,752
755	307,667
755,4	305,695
755,9	301,552
756,3	299,838
756,7	301,867
757,2	295,467
757,6	294,41
758	288,095
758,5	279,867
758,9	277,267
759,3	272,552
759,8	263,124
760,2	265,781
760,6	270,181
761,1	274,552
761,5	274,524
761,9	270,438
762,4	268,095
762,8	274,267
763,3	271,638
763,7	267,324
764,1	262,724
764,6	262,181
765	266,467
765,4	268,352
765,9	267,781
766,3	266,552
766,7	260,924
767,2	261,352
767,6	264,581
768	259,41
768,5	254,438
768,9	246,838
769,3	246,952
769,8	241,21
770,2	234,467
770,6	225,381
771,1	222,181
771,5	218,667
771,9	218,41
772,4	215,952
772,8	216,61
773,2	221,667
773,7	220,695
774,1	225,01
774,5	224,01
775	223,552
775,4	222,724
775,8	223,41
776,3	222,838
776,7	224,581
777,1	221,724
777,6	221,124
778	219,924
778,4	219,895
778,9	218,781
779,3	218,581
779,7	213,838
780,2	208,381
780,6	210,267
781	210,381
781,5	207,324
781,9	208,752
782,3	202,924
782,8	205,781
783,2	205,895
783,6	204,295
784,1	202,438
784,5	199,781
784,9	198,41
785,4	195,01
785,8	191,01
786,2	190,181
786,7	187,724
787,1	189,981
787,5	189,295
788	185,21
788,4	189,924
788,8	188,924
789,3	187,81
789,7	186,181
790,1	183,41
790,6	182,838
791	179,352
791,4	176,152
791,9	176,61
792,3	177,895
792,7	178,695
793,2	177,067
793,6	176,095
794	177,438
794,5	175,781
794,9	175,381
795,3	169,895
795,8	168,067
796,2	158,981
796,6	159,381
797,1	159,124
797,5	154,41
797,9	153,495
798,4	156,838
798,8	153,867
799,2	160,01
799,7	156,095
800,1	156,352
800,5	159,781
801	157,638
801,4	153,895
801,8	154,295
802,2	152,238
802,7	152,324
803,1	150,952
803,5	149,581
804	142,095
804,4	142,81
804,8	142,238
805,3	142,752
805,7	143,924
806,1	139,552
806,6	140,324
807	144,924
807,4	143,038
807,9	143,438
808,3	140,752
808,7	138,438
809,2	137,095
809,6	134,295
810	133,095
810,4	133,01
810,9	133,267
811,3	131,924
811,7	128,181
812,2	129,295
812,6	127,067
813	130,781
813,5	130,438
813,9	128,438
814,3	125,124
814,8	124,924
815,2	125,524
815,6	125,095
816,1	118,552
816,5	116,895
816,9	115,752
817,3	116,467
817,8	116,41
818,2	112,438
818,6	110,695
819,1	110,81
819,5	107,01
819,9	105,124
820,4	109,924
820,8	109,81
821,2	108,752
821,7	106,695
822,1	105,752
822,5	109,552
822,9	107,467
823,4	103,267
823,8	104,667
824,2	109,095
824,7	110,124
825,1	108,067
825,5	103,438
826	101,495
826,4	101,352
826,8	96,238
827,3	92,095
827,7	93,238
828,1	96,067
828,5	102,295
829	102,752
829,4	97,095
829,8	100,895
830,3	100,352
830,7	98,152
831,1	94,524
831,6	88,638
832	90,41
832,4	93,838
832,8	84,61
833,3	82,467
833,7	77,695
834,1	79,81
834,6	81,495
835	78,352
835,4	73,667
835,8	77,41
836,3	78,667
836,7	82,895
837,1	79,467
837,6	75,381
838	74,838
838,4	75,01
838,9	78,695
839,3	78,124
839,7	77,81
840,1	81,324
840,6	84,61
841	83,724
841,4	82,238
841,9	78,924
842,3	75,981
842,7	69,638
843,1	66,324
843,6	61,438
844	62,781
844,4	67,352
844,9	67,152
845,3	67,152
845,7	68,495
846,2	70,438
846,6	70,61
847	70,638
847,4	67,667
847,9	68,067
848,3	65,467
848,7	67,467
849,2	62,695
849,6	63,381
850	59,838
850,4	59,238
850,9	59,695
851,3	65,067
851,7	63,752
852,2	63,067
852,6	63,724
853	68,352
853,4	66,181
853,9	64,695
854,3	64,867
854,7	66,124
855,2	69,61
855,6	64,581
856	62,581
856,4	65,838
856,9	65,124
857,3	62,695
857,7	64,667
858,2	62,21
858,6	63,438
859	60,181
859,4	57,438
859,9	56,695
860,3	51,495
860,7	44,924
861,1	45,867
861,6	50,781
862	53,61
862,4	54,981
862,9	52,067
863,3	55,324
863,7	58,267
864,1	57,21
864,6	55,495
865	53,124
865,4	54,552
865,9	53,438
866,3	56,467
866,7	52,495
867,1	48,238
867,6	44,552
868	40,324
868,4	38,01
868,8	38,238
869,3	35,324
869,7	39,781
870,1	45,552
870,6	45,895
871	92,238
871,4	90,238
871,8	90,581
872,3	92,495
872,7	85,81
873,1	80,21
873,5	80,038
874	39,924
874,4	44,352
874,8	44,781
875,3	41,467
875,7	42,038
876,1	41,81
876,5	45,038
877	42,21
877,4	39,667
877,8	40,552
878,2	40,81
878,7	45,238
879,1	48,952
879,5	45,067
879,9	42,724
880,4	39,752
880,8	42,724
881,2	41,895
881,7	40,152
882,1	33,781
882,5	32,667
882,9	30,724
883,4	34,838
883,8	27,695
884,2	27,038
884,6	27,181
885,1	31,467
885,5	29,124
885,9	34,695
886,3	32,124
886,8	37,467
887,2	35,41
887,6	35,067
888	33,038
888,5	35,695
888,9	29,695
889,3	29,267
889,8	27,838
890,2	25,695
890,6	26,61
891	29,181
891,5	31,838
891,9	30,952
892,3	34,21
892,7	32,352
893,2	37,724
893,6	33,695
894	32,638
894,4	25,61
894,9	27,895
895,3	24,01
895,7	24,552
896,1	20,01
896,6	24,467
897	28,067
897,4	32,667
897,8	35,552
898,3	38,181
898,7	40,038
899,1	39,467
899,5	39,352
900	34,238
900,4	30,267
900,8	21,581
901,2	13,667
901,7	13,552
902,1	13,124
902,5	12,952
902,9	12,752
903,4	16,752
903,8	20,695
904,2	30,495
904,6	26,095
905,1	29,267
905,5	25,581
905,9	22,438
906,3	20,152
906,8	16,181
907,2	9,295
907,6	12,01
908	8,581
908,5	7,352
908,9	9,724
909,3	10,124
909,7	14,61
910,2	14,895
910,6	13,267
911	17,581
911,4	20,724
911,9	19,724
912,3	18,638
912,7	20,838
913,1	22,238
913,6	23,752
914	25,638
914,4	26,552
914,8	28,895
915,3	30,067
915,7	29,324
916,1	27,21
916,5	20,238
916,9	17,095
917,4	17,267
917,8	14,067
918,2	19,81
918,6	18,181
919,1	19,21
919,5	27,752
919,9	30,524
920,3	29,01
920,8	32,81
921,2	24,667
921,6	27,952
922	25,924
922,5	24,81
922,9	24,381
923,3	22,981
923,7	23,581
924,2	25,667
924,6	21,638
925	23,895
925,4	24,781
925,8	23,095
926,3	22,41
926,7	18,81
927,1	16,61
927,5	15,524
928	16,752
928,4	12,267
928,8	14,781
929,2	16,724
929,7	18,095
930,1	19,21
930,5	17,752
930,9	18,781
931,3	23,181
931,8	18,095
932,2	15,952
932,6	15,21
933	12,524
933,5	16,067
933,9	14,552
934,3	8,81
934,7	9,581
935,2	8,01
935,6	8,552
936	5,581
936,4	7,295
936,8	5,095
937,3	10,895
937,7	13,952
938,1	17,324
938,5	13,21
939	18,781
939,4	20,981
939,8	19,781
940,2	12,952
940,6	10,267
941,1	8,895
941,5	13,667
941,9	16,152
942,3	13,152
942,8	13,21
943,2	9,352
943,6	8,552
944	10,41
944,4	7,724
944,9	7,667
945,3	7,438
945,7	10,781
946,1	16,21
946,6	18,067
947	18,867
947,4	14,495
947,8	14,324
948,2	14,41
948,7	10,324
949,1	14,495
949,5	10,867
949,9	4,581
950,3	7,038
950,8	2,61
951,2	1,552
951,6	7,41
952	3,638
952,5	2,438
952,9	6,038
953,3	8,724
953,7	11,21
954,1	11,752
954,6	8,124
955	10,724
955,4	13,295
955,8	16,667
956,2	12,695
956,7	15,181
957,1	13,581
957,5	10,41
957,9	9,01
958,3	3,81
958,8	1,638
959,2	9,352
959,6	11,238
960	12,581
960,5	14,638
960,9	18,067
961,3	25,781
961,7	28,838
962,1	25,867
962,6	21,21
963	22,838
963,4	25,61
963,8	21,295
964,2	15,467
964,7	11,324
965,1	9,981
965,5	13,467
965,9	10,438
966,3	14,038
966,8	15,524
967,2	21,924
967,6	21,552
968	19,181
968,4	22,81
968,9	22,552
969,3	19,238
969,7	14,781
970,1	11,781
970,5	11,524
971	17,352
971,4	10,61
971,8	10,581
972,2	8,324
972,6	8,381
973,1	8,067
973,5	11,667
973,9	8,638
974,3	7,695
974,7	8,467
975,2	9,152
975,6	11,781
976	12,438
976,4	9,067
976,8	9,867
977,3	6,638
977,7	3,581
978,1	3,838
978,5	2,295
978,9	5,467
979,4	5,41
979,8	4,61
980,2	8,924
980,6	12,352
981	8,981
981,5	11,838
981,9	9,695
982,3	9,124
982,7	9,067
983,1	10,41
983,6	7,867
984	14,238
984,4	11,781
984,8	11,467
985,2	15,781
985,6	16,638
986,1	11,581
986,5	17,581
986,9	10,61
987,3	12,352
987,7	11,467
988,2	4,867
988,6	3,524
989	5,752
989,4	-0,419
989,8	3,181
990,3	1,324
990,7	0,181
991,1	2,952
991,5	3,895
991,9	1,952
992,3	2,038
992,8	0,352
993,2	0,267
993,6	-0,19
994	-3,105
994,4	-2,562
994,9	-5,362
995,3	-0,219
995,7	0,238
996,1	3,01
996,5	1,981
996,9	10,895
997,4	8,495
997,8	14,067
998,2	13,924
998,6	13,81
999	10,895
999,5	13,781
999,9	9,01
1000,3	11,038
1000,7	13,867
1001,1	7,01
1001,5	10,21
1002	11,038
1002,4	10,095
1002,8	12,267
1003,2	8,352
1003,6	5,495
1004	11,81
1004,5	11,638
1004,9	10,81
1005,3	7,895
1005,7	6,324
1006,1	6,838
1006,6	4,781
1007	2,581
1007,4	1,181
1007,8	3,552
1008,2	9,181
1008,6	8,467
1009,1	11,581
1009,5	15,41
1009,9	15,838
1010,3	15,981
1010,7	16,752
1011,1	9,981
1011,6	8,152
1012	6,695
1012,4	3,667
1012,8	0,838
1013,2	-3,076
1013,6	-2,39
1014,1	3,124
1014,5	6,038
1014,9	6,552
1015,3	6,81
1015,7	8,267
1016,1	10,067
1016,6	12,295
1017	9,181
1017,4	6,524
1017,8	8,695
1018,2	10,381
1018,6	7,01
1019,1	7,667
1019,5	3,295
1019,9	6,067
1020,3	2,981
1020,7	1,895
1021,1	-5,362
1021,6	-1,19
1022	-0,248
1022,4	-3,133
1022,8	-4,619
1023,2	-1,933
1023,6	-1,762
1024,1	6,267
1024,5	9,381
1024,9	11,724
1025,3	15,581
1025,7	14,21
1026,1	13,838
1026,6	16,095
1027	12,495
1027,4	7,924
1027,8	5,724
1028,2	6,495
1028,6	8,981
1029	4,952
1029,5	-2,448
1029,9	4,61
1030,3	0,724
1030,7	0,781
1031,1	-1,248
1031,5	-1,276
1032	5,038
1032,4	15,524
1032,8	8,381
1033,2	10,438
1033,6	7,552
1034	6,81
1034,4	3,524
1034,9	6,238
1035,3	1,638
1035,7	1,267
1036,1	11,41
1036,5	13,41
1036,9	12,41
1037,4	16,267
1037,8	9,267
1038,2	10,467
1038,6	15,552
1039	9,095
1039,4	9,895
1039,8	17,01
1040,3	17,695
1040,7	20,695
1041,1	15,21
1041,5	16,438
1041,9	22,038
1042,3	19,467
1042,7	12,81
1043,2	8,981
1043,6	14,124
1044	18,295
1044,4	13,352
1044,8	11,01
1045,2	12,21
1045,6	18,581
1046,1	23,752
1046,5	13,581
1046,9	12,181
1047,3	14,924
1047,7	8,038
1048,1	7,638
1048,5	5,01
1049	0,924
1049,4	3,381
1049,8	4,124
1050,2	1,695
1050,6	3,981
1051	9,638
1051,4	2,01
1051,9	2,295
1052,3	-0,819
1052,7	2,467
1053,1	1,581
1053,5	1,495
1053,9	-1,648
1054,3	-0,819
1054,8	-2,248
1055,2	3,295
1055,6	1,695
1056	3,124
1056,4	0,267
1056,8	0,867
1057,2	3,695
1057,6	11,295
1058,1	16,095
1058,5	12,638
1058,9	11,581
1059,3	12,21
1059,7	9,695
1060,1	12,295
1060,5	7,81
1061	2,438
1061,4	0,21
1061,8	-0,219
1062,2	2,438
1062,6	2,638
1063	0,667
1063,4	-0,505
1063,8	-0,305
1064,3	7,952
1064,7	6,21
1065,1	10,752
1065,5	13,324
1065,9	15,238
1066,3	11,895
1066,7	18,067
1067,1	13,752
1067,6	18,695
1068	16,352
1068,4	15,552
1068,8	13,838
1069,2	18,81
1069,6	11,124
1070	12,41
1070,4	12,267
1070,9	9,638
1071,3	13,924
1071,7	15,638
1072,1	12,552
1072,5	17,81
1072,9	16,352
1073,3	17,295
1073,7	20,181
1074,2	13,838
1074,6	13,952
1075	19,038
1075,4	16,41
1075,8	13,952
1076,2	12,552
1076,6	9,238
1077	14,21
1077,5	15,838
1077,9	9,381
1078,3	8,067
1078,7	8,438
1079,1	8,581
1079,5	9,438
1079,9	6,895
1080,3	6,324
1080,7	10,61
1081,2	12,181
1081,6	12,752
1082	18,095
1082,4	20,238
1082,8	18,638
1083,2	17,038
1083,6	14,352
1084	14,238
1084,5	15,524
1084,9	5,752
1085,3	5,924
1085,7	6,381
1086,1	7,381
1086,5	5,867
1086,9	7,895
1087,3	8,181
1087,7	15,924
1088,2	17,038
1088,6	16,581
1089	16,667
1089,4	22,324
1089,8	19,124
1090,2	15,01
1090,6	8,152
1091	5,552
1091,4	4,324
1091,9	2,638
1092,3	1,781
1092,7	0,838
1093,1	7,838
1093,5	10,267
1093,9	9,324
1094,3	11,724
1094,7	10,581
1095,1	13,924
1095,5	18,838
1096	17,181
1096,4	18,581
1096,8	21,781
1097,2	22,552
1097,6	24,981
1098	21,638
1098,4	19,267
1098,8	17,952
1099,2	16,867
1099,6	16,181
1100,1	14,267
1100,5	12,038
1100,9	10,095
1101,3	10,61
1101,7	10,067
1102,1	11,324
1102,5	10,038
1102,9	8,295
1103,3	7,61
1103,7	8,752
1104,2	9,152
1104,6	11,724
1105	8,152
1105,4	7,724
1105,8	8,552
1106,2	8,895
1106,6	6,752
1107	4,124
1107,4	0,5
1107,8	1,947
1108,3	0,717
