Data from Subt2_00028.txt Node
Date: Mon Aug 28 13:12:51 MSK 2023
User: vat
Spectrometer: MAYP114033
Trigger mode: 0
Integration Time (sec): 1,000000E0
Scans to average: 5
Electric dark correction enabled: true
Nonlinearity correction enabled: false
Boxcar width: 3
XAxis mode: Wavelengths
Number of Pixels in Spectrum: 2068
>>>>>Begin Spectral Data<<<<<
199,4	-0,6
199,9	2,86
200,4	1,133
200,8	1,671
201,3	2,957
201,8	6,1
202,2	8,586
202,7	8,157
203,2	6,5
203,6	10,5
204,1	15,157
204,6	17,814
205	18,043
205,5	20,414
206	22,957
206,4	24,671
206,9	19,414
207,4	16,9
207,8	13,586
208,3	13,329
208,8	11,557
209,2	18,357
209,7	16,757
210,2	15,614
210,6	13,129
211,1	14,186
211,5	14,9
212	13,414
212,5	8,643
212,9	11,357
213,4	19,186
213,9	21,643
214,3	20,957
214,8	22,014
215,3	21,929
215,7	20,471
216,2	22,5
216,7	22,929
217,1	23,957
217,6	23,871
218,1	21,586
218,5	19,157
219	19,271
219,5	19,757
219,9	19,529
220,4	18,271
220,9	20,014
221,3	21,071
221,8	24,957
222,3	31,871
222,7	27,329
223,2	28,214
223,6	30,014
224,1	32,643
224,6	29,071
225	28,786
225,5	24,786
226	25,529
226,4	22,786
226,9	25,814
227,4	26,643
227,8	32,871
228,3	32,729
228,8	31,986
229,2	38,814
229,7	37,986
230,2	29,386
230,6	25,386
231,1	19,729
231,5	22,871
232	25,9
232,5	19,071
232,9	20,3
233,4	27,7
233,9	31,014
234,3	32,214
234,8	28,7
235,3	19,671
235,7	17,729
236,2	13,443
236,7	6,529
237,1	4,986
237,6	4,414
238,1	2,9
238,5	9,814
239	10,471
239,4	15,157
239,9	18,271
240,4	15,129
240,8	18,186
241,3	23,157
241,8	18,986
242,2	22,414
242,7	23,243
243,2	22,243
243,6	26,586
244,1	24,157
244,6	23,186
245	27,186
245,5	27,7
245,9	22,329
246,4	23,3
246,9	21,557
247,3	20,043
247,8	14,329
248,3	14,214
248,7	12,871
249,2	15,7
249,7	13,814
250,1	12,329
250,6	15,471
251	17,186
251,5	17,014
252	13,386
252,4	14,414
252,9	15,786
253,4	19,557
253,8	17,043
254,3	18,414
254,8	17,643
255,2	21,7
255,7	23,414
256,1	24,186
256,6	24,129
257,1	26,843
257,5	25,986
258	22,329
258,5	17,671
258,9	15,614
259,4	15,129
259,9	9,957
260,3	10,186
260,8	12,9
261,2	16,1
261,7	22,729
262,2	24,871
262,6	23,157
263,1	26,329
263,6	24,643
264	24,1
264,5	19,3
264,9	14,329
265,4	12,414
265,9	17,157
266,3	17,7
266,8	16,643
267,3	16,471
267,7	17,757
268,2	16,5
268,7	14,729
269,1	13,7
269,6	13,386
270	14,586
270,5	12,557
271	17,986
271,4	21,814
271,9	23,814
272,4	24,186
272,8	22,586
273,3	23,929
273,7	22,757
274,2	19,557
274,7	18,129
275,1	21,186
275,6	21,529
276,1	20,357
276,5	19,757
277	24,386
277,4	26,357
277,9	26,214
278,4	19,243
278,8	18,957
279,3	22,414
279,8	15,986
280,2	11,271
280,7	7,9
281,1	6,614
281,6	8,929
282,1	6,786
282,5	6,9
283	8,814
283,4	12,557
283,9	14,9
284,4	16,929
284,8	19,986
285,3	19,643
285,8	21,614
286,2	23,186
286,7	19,386
287,1	17,529
287,6	15,9
288,1	18,871
288,5	17,414
289	16,786
289,5	18,414
289,9	24,271
290,4	23,129
290,8	26,757
291,3	24,957
291,8	26,786
292,2	24,014
292,7	26,243
293,1	22,5
293,6	23,871
294,1	23,614
294,5	24,471
295	28,7
295,5	27,5
295,9	25,9
296,4	27,043
296,8	27,786
297,3	26,329
297,8	18,986
298,2	16,586
298,7	19,814
299,1	21,9
299,6	19,414
300,1	19,329
300,5	20,957
301	21,5
301,5	18,386
301,9	13,671
302,4	8,786
302,8	14,414
303,3	10,471
303,8	5,214
304,2	4,757
304,7	5,1
305,1	7,729
305,6	11,329
306,1	3,586
306,5	13,043
307	16,471
307,4	17,729
307,9	17,329
308,4	16,243
308,8	16,243
309,3	23,843
309,8	19,414
310,2	19,586
310,7	22,357
311,1	22,557
311,6	25,3
312,1	24,186
312,5	21,157
313	18,529
313,4	19,1
313,9	17,386
314,4	21,929
314,8	19,186
315,3	23,557
315,7	21,5
316,2	25,786
316,7	19,1
317,1	19,386
317,6	14,986
318	15,3
318,5	12,186
319	15,271
319,4	15,414
319,9	17,729
320,3	16,814
320,8	21,786
321,3	19,3
321,7	18,3
322,2	19,014
322,6	13,186
323,1	15,529
323,6	16,214
324	16,157
324,5	19,243
324,9	19,986
325,4	17,414
325,9	23,957
326,3	23,7
326,8	23,3
327,2	18,471
327,7	17,643
328,2	17,3
328,6	16,186
329,1	12,443
329,5	12,129
330	12,271
330,5	15,157
330,9	14,186
331,4	13,386
331,8	19,5
332,3	20,7
332,8	22,443
333,2	25,157
333,7	22,814
334,1	27,186
334,6	24,986
335,1	26,043
335,5	26,071
336	24,957
336,4	28,557
336,9	29,386
337,4	27,529
337,8	32,043
338,3	25,014
338,7	28,1
339,2	31,7
339,7	29,671
340,1	26,243
340,6	24,414
341	21,7
341,5	21,786
342	19,243
342,4	19,614
342,9	17,757
343,3	18,929
343,8	19,386
344,2	21,386
344,7	26,9
345,2	26,814
345,6	28,071
346,1	26,1
346,5	29,243
347	29,586
347,5	30,529
347,9	28,271
348,4	28,271
348,8	20,757
349,3	26,129
349,8	28,7
350,2	30,871
350,7	28,871
351,1	30,9
351,6	37,014
352	49,043
352,5	52,214
353	59,014
353,4	68,329
353,9	75,957
354,3	89,214
354,8	95,871
355,3	105,357
355,7	119,129
356,2	134,814
356,6	153,614
357,1	181,557
357,5	208,043
358	246,186
358,5	287,214
358,9	330,929
359,4	384,957
359,8	446,386
360,3	514,871
360,8	588,386
361,2	669,9
361,7	759,929
362,1	856,3
362,6	960,529
363	1072,643
363,5	1197,929
364	1328,9
364,4	1463,814
364,9	1597,129
365,3	1737,414
365,8	1858,986
366,3	1977,7
366,7	2078,757
367,2	2168,586
367,6	2240,7
368,1	2304,386
368,5	2343,043
369	2367,129
369,5	2370,643
369,9	2352,329
370,4	2321,7
370,8	2275,414
371,3	2202,586
371,7	2126,186
372,2	2040,071
372,7	1941,729
373,1	1841,129
373,6	1731,929
374	1617,957
374,5	1511,643
374,9	1401,871
375,4	1303,186
375,9	1207,414
376,3	1119,329
376,8	1035,1
377,2	955,614
377,7	883,557
378,2	815,757
378,6	747,3
379,1	686,271
379,5	627,643
380	575,729
380,4	530,7
380,9	490,186
381,4	450,443
381,8	420,729
382,3	389,986
382,7	363,7
383,2	338,757
383,6	315,329
384,1	290,5
384,6	275,329
385	257,671
385,5	242,957
385,9	225,329
386,4	209,443
386,8	198,471
387,3	186,386
387,7	171,243
388,2	155,386
388,7	143,471
389,1	134,043
389,6	129,843
390	123,3
390,5	116,786
390,9	111,443
391,4	103,357
391,9	101,386
392,3	101,757
392,8	95,014
393,2	91,471
393,7	86,586
394,1	85,071
394,6	84,443
395,1	82,957
395,5	80,243
396	77,843
396,4	76,729
396,9	75,471
397,3	74,586
397,8	75,3
398,2	68,443
398,7	65,957
399,2	64,471
399,6	63,129
400,1	66,471
400,5	67,386
401	71,586
401,4	74,957
401,9	77,243
402,4	82,186
402,8	82,957
403,3	82,957
403,7	78,671
404,2	79,129
404,6	79,929
405,1	80,5
405,5	76,471
406	77,814
406,5	75,243
406,9	81,043
407,4	83,786
407,8	91,557
408,3	95,043
408,7	101,957
409,2	106,5
409,6	115,357
410,1	120,357
410,6	128,614
411	131,757
411,5	139,729
411,9	149,814
412,4	157,243
412,8	168,586
413,3	183,843
413,7	193,357
414,2	205,3
414,7	218,329
415,1	232,643
415,6	246,443
416	257,843
416,5	267,414
416,9	281,271
417,4	298,786
417,8	311,271
418,3	325,271
418,8	344,614
419,2	365,129
419,7	387,729
420,1	407,471
420,6	423,7
421	453,5
421,5	481,3
421,9	511,586
422,4	542,043
422,8	569,357
423,3	601,786
423,8	636,243
424,2	668,071
424,7	699,871
425,1	731,471
425,6	764,071
426	803,243
426,5	842,357
426,9	889,9
427,4	932,5
427,9	978,357
428,3	1028,043
428,8	1087,1
429,2	1141,986
429,7	1197,614
430,1	1254,671
430,6	1319,3
431	1388,729
431,5	1464,329
431,9	1537,386
432,4	1616,643
432,8	1702,443
433,3	1794,843
433,8	1890,186
434,2	1981,957
434,7	2077,186
435,1	2185,014
435,6	2298,157
436	2418,071
436,5	2531,757
436,9	2649,814
437,4	2784,157
437,8	2920,471
438,3	3058,729
438,8	3197,329
439,2	3345,986
439,7	3502,271
440,1	3669,043
440,6	3834,557
441	4004,129
441,5	4181,586
441,9	4374,986
442,4	4558,5
442,8	4759,814
443,3	4964,529
443,7	5179,357
444,2	5396,529
444,7	5623,7
445,1	5847,014
445,6	6088,729
446	6332,214
446,5	6584,271
446,9	6836,843
447,4	7102,357
447,8	7361,443
448,3	7635,443
448,7	7911,557
449,2	8193,471
449,6	8484,1
450,1	8784,443
450,6	9091,214
451	9396,271
451,5	9715,529
451,9	10040,5
452,4	10372,843
452,8	10701,843
453,3	11032,557
453,7	11372,7
454,2	11732,986
454,6	12090,843
455,1	12450,271
455,5	12801,014
456	13166,5
456,4	13541,929
456,9	13921,986
457,3	14297,814
457,8	14676,671
458,3	15073,1
458,7	15469,986
459,2	15867,757
459,6	16268,557
460,1	16663,5
460,5	17061,357
461	17464,243
461,4	17845,843
461,9	18253,586
462,3	18667,671
462,8	19072,7
463,2	19473,186
463,7	19881,157
464,1	20288,129
464,6	20702,3
465	21101,757
465,5	21494,843
466	21883,986
466,4	22285,643
466,9	22675,271
467,3	23068,214
467,8	23461,9
468,2	23843,386
468,7	24231,071
469,1	24625,071
469,6	25002,186
470	25386,014
470,5	25750,071
470,9	26103,643
471,4	26479,529
471,8	26830,529
472,3	27178,614
472,7	27514,471
473,2	27852,614
473,6	28178,814
474,1	28516,357
474,5	28829,157
475	29145,586
475,4	29444,643
475,9	29753,471
476,4	30043,186
476,8	30329,386
477,3	30605,129
477,7	30882,071
478,2	31113,814
478,6	31364,814
479,1	31599,014
479,5	31819,814
480	32032,414
480,4	32225,929
480,9	32395,871
481,3	32606,443
481,8	32780,014
482,2	32944,957
482,7	33107,586
483,1	33263,843
483,6	33410,271
484	33531,929
484,5	33638,443
484,9	33731,814
485,4	33820,157
485,8	33883,471
486,3	33941,214
486,7	33986,7
487,2	34059,929
487,6	34096,129
488,1	34134,014
488,5	34159,843
489	34177,986
489,4	34179,871
489,9	34189,014
490,4	34177,1
490,8	34151,014
491,3	34117,271
491,7	34069,243
492,2	34026,986
492,6	33966,214
493,1	33876,9
493,5	33774,614
494	33695,357
494,4	33596,5
494,9	33495,529
495,3	33395,614
495,8	33290,386
496,2	33190,471
496,7	33085,186
497,1	32952,414
497,6	32831,643
498	32691,957
498,5	32545,014
498,9	32400,329
499,4	32258,043
499,8	32098,843
500,3	31948,957
500,7	31777,471
501,2	31618,557
501,6	31456,043
502,1	31277,271
502,5	31110,414
503	30937,414
503,4	30750,529
503,9	30569,014
504,3	30374,529
504,8	30164,3
505,2	29982,414
505,7	29766,443
506,1	29553,7
506,6	29330,386
507	29107,786
507,5	28900,129
507,9	28689,729
508,4	28452,557
508,8	28218,357
509,3	27990,129
509,7	27765,529
510,2	27538,5
510,6	27288,729
511,1	27045,614
511,5	26808,071
512	26563,1
512,4	26315,214
512,9	26054,929
513,3	25814,3
513,8	25574,329
514,2	25319,357
514,7	25074,414
515,1	24832,471
515,6	24583,671
516	24357,1
516,5	24100,129
516,9	23855,357
517,4	23615,157
517,8	23369,443
518,3	23122,329
518,7	22890,471
519,2	22646,929
519,6	22406,729
520,1	22170,671
520,5	21928,643
521	21678,043
521,4	21433,243
521,9	21188,986
522,3	20948,9
522,8	20719,1
523,2	20466,786
523,7	20234,271
524,1	20011,843
524,6	19789,957
525	19552,643
525,5	19335,814
525,9	19123,129
526,4	18917,471
526,8	18696,357
527,3	18490,243
527,7	18280,443
528,2	18066,643
528,6	17862,129
529,1	17648,129
529,5	17440,957
530	17245,786
530,4	17042,7
530,9	16847,729
531,3	16669,9
531,8	16469,071
532,2	16284,271
532,6	16103,271
533,1	15902,643
533,5	15710,9
534	15538,014
534,4	15342,586
534,9	15170,843
535,3	14988,129
535,8	14810,957
536,2	14669,186
536,7	14504,471
537,1	14319,186
537,6	14162,843
538	13995,157
538,5	13843,443
538,9	13678,643
539,4	13504,5
539,8	13349,5
540,3	13201,814
540,7	13049,9
541,2	12895,157
541,6	12733,643
542,1	12586,443
542,5	12442,443
543	12302,471
543,4	12166,043
543,9	12037,586
544,3	11905,643
544,8	11772,1
545,2	11644,957
545,7	11522,643
546,1	11392,071
546,5	11259,157
547	11120,529
547,4	10993,929
547,9	10873,5
548,3	10748,071
548,8	10618,586
549,2	10506,986
549,7	10392,557
550,1	10285,414
550,6	10171,814
551	10057,014
551,5	9953,243
551,9	9855,557
552,4	9745,814
552,8	9650,757
553,3	9554,071
553,7	9459,786
554,2	9367,757
554,6	9273,9
555,1	9178,814
555,5	9080,7
555,9	8984,214
556,4	8884,786
556,8	8792,986
557,3	8703,157
557,7	8612,186
558,2	8520,386
558,6	8435,1
559,1	8351,729
559,5	8271,243
560	8190,129
560,4	8099,786
560,9	8021,614
561,3	7943,729
561,8	7871,271
562,2	7792,014
562,7	7718,7
563,1	7645,9
563,6	7582,071
564	7509,5
564,4	7444,614
564,9	7367,671
565,3	7285,757
565,8	7215,1
566,2	7141,957
566,7	7073,614
567,1	7003,586
567,6	6931,5
568	6870,786
568,5	6815,643
568,9	6748,1
569,4	6688,414
569,8	6626,671
570,3	6572,671
570,7	6509,386
571,1	6446,243
571,6	6386,814
572	6330,271
572,5	6272,614
572,9	6211,243
573,4	6151,957
573,8	6091,071
574,3	6038,357
574,7	5979,329
575,2	5933,1
575,6	5876,129
576,1	5827,986
576,5	5776,643
576,9	5729,1
577,4	5682,1
577,8	5626,443
578,3	5568,929
578,7	5518,614
579,2	5470,1
579,6	5412,671
580,1	5367,329
580,5	5314,471
581	5276,443
581,4	5232,1
581,9	5189,871
582,3	5143,014
582,7	5099,043
583,2	5051,414
583,6	5009,271
584,1	4970,786
584,5	4930,986
585	4888,471
585,4	4846,329
585,9	4807,7
586,3	4771,3
586,8	4724,414
587,2	4680,386
587,6	4636,1
588,1	4598,414
588,5	4552,671
589	4509,157
589,4	4468,814
589,9	4439,5
590,3	4405,986
590,8	4364,043
591,2	4323,957
591,7	4297,043
592,1	4266,5
592,5	4237,786
593	4200,529
593,4	4168,271
593,9	4143,071
594,3	4116,957
594,8	4085,271
595,2	4060,557
595,7	4030,529
596,1	4006,671
596,6	3972,529
597	3950,443
597,4	3921,5
597,9	3892,5
598,3	3863,443
598,8	3835,7
599,2	3804,614
599,7	3780,757
600,1	3750,929
600,6	3722,214
601	3700,186
601,4	3673,871
601,9	3646,986
602,3	3628,386
602,8	3608,186
603,2	3578,271
603,7	3557,243
604,1	3531,557
604,6	3508,129
605	3478,414
605,4	3447,271
605,9	3415,471
606,3	3391,157
606,8	3359,186
607,2	3330,871
607,7	3308,3
608,1	3284,557
608,6	3257,271
609	3231,529
609,4	3212,243
609,9	3199,1
610,3	3178,671
610,8	3152,186
611,2	3132,1
611,7	3112,157
612,1	3089,471
612,6	3065,357
613	3036,586
613,4	3009,643
613,9	2991,157
614,3	2968,643
614,8	2946,586
615,2	2929,329
615,7	2905,786
616,1	2886,157
616,6	2871,357
617	2848,986
617,4	2828,9
617,9	2813,3
618,3	2788,814
618,8	2767,9
619,2	2748,957
619,7	2726,614
620,1	2706,586
620,5	2685,671
621	2659,186
621,4	2646,614
621,9	2627,757
622,3	2608,843
622,8	2592,929
623,2	2574,271
623,6	2558,614
624,1	2540,443
624,5	2518,1
625	2498,5
625,4	2484,9
625,9	2464,557
626,3	2451,671
626,8	2432,729
627,2	2414,329
627,6	2404,157
628,1	2390,471
628,5	2371,614
629	2356,643
629,4	2333,014
629,9	2315,843
630,3	2301,271
630,7	2280,986
631,2	2263,043
631,6	2242,243
632,1	2221,071
632,5	2211,071
633	2195,671
633,4	2183,929
633,8	2164,643
634,3	2148,671
634,7	2132,014
635,2	2125,3
635,6	2105,357
636,1	2090,814
636,5	2070,357
636,9	2049,9
637,4	2033,529
637,8	2020,586
638,3	1999,729
638,7	1983,186
639,2	1968,9
639,6	1955,386
640	1948,529
640,5	1941,386
640,9	1928,843
641,4	1920,729
641,8	1906,129
642,2	1890,786
642,7	1881,129
643,1	1868,986
643,6	1853,271
644	1841,043
644,5	1828,614
644,9	1818,329
645,3	1807,671
645,8	1793,643
646,2	1778,471
646,7	1767,3
647,1	1749,357
647,6	1733,643
648	1723,7
648,4	1712,129
648,9	1699,871
649,3	1690,871
649,8	1678,443
650,2	1674,814
650,6	1665,3
651,1	1652,129
651,5	1641,414
652	1632,1
652,4	1622,471
652,9	1611,871
653,3	1592,586
653,7	1576,814
654,2	1568,871
654,6	1560,471
655,1	1549,986
655,5	1535,186
655,9	1523,671
656,4	1516,843
656,8	1509,043
657,3	1504,3
657,7	1488,214
658,2	1479,329
658,6	1472,586
659	1465,071
659,5	1456,329
659,9	1450,443
660,4	1433,471
660,8	1425,3
661,2	1410,929
661,7	1396,357
662,1	1384,471
662,6	1372,157
663	1359,929
663,4	1350,157
663,9	1345,7
664,3	1335,329
664,8	1328,757
665,2	1318,7
665,6	1308,271
666,1	1298,043
666,5	1290,471
667	1278,586
667,4	1274,443
667,9	1266,814
668,3	1262,214
668,7	1257,5
669,2	1244,7
669,6	1229,214
670,1	1222,043
670,5	1215,414
670,9	1202,3
671,4	1189,271
671,8	1181,471
672,3	1177,186
672,7	1174,157
673,1	1162,814
673,6	1152,129
674	1143,329
674,5	1140,671
674,9	1130,529
675,3	1121,9
675,8	1114,271
676,2	1103,386
676,7	1093,757
677,1	1087,1
677,5	1074,586
678	1064,986
678,4	1054,529
678,9	1046,986
679,3	1044,214
679,7	1037,443
680,2	1031,7
680,6	1022,871
681,1	1018,129
681,5	1014,5
681,9	1006,786
682,4	999,014
682,8	990,357
683,3	986,614
683,7	981,386
684,1	973,843
684,6	966,071
685	952,643
685,5	937,3
685,9	933,129
686,3	926,1
686,8	919,929
687,2	915,357
687,7	907,186
688,1	907,643
688,5	908,071
689	899,586
689,4	887,3
689,9	883,757
690,3	876,586
690,7	874,443
691,2	868,214
691,6	862,786
692	855,643
692,5	853,071
692,9	841,929
693,4	836,929
693,8	829,071
694,2	819,329
694,7	813,671
695,1	815,414
695,6	818,957
696	814,271
696,4	807,1
696,9	800,443
697,3	800,043
697,8	793,414
698,2	779,471
698,6	764,014
699,1	762,5
699,5	759,814
699,9	757,071
700,4	750,5
700,8	744,871
701,3	746,671
701,7	739,9
702,1	734,043
702,6	725,271
703	714,357
703,5	710,014
703,9	706,757
704,3	697,671
704,8	697,586
705,2	689,986
705,6	686,386
706,1	679,9
706,5	676,614
707	673,329
707,4	672,7
707,8	667,1
708,3	667,3
708,7	663,614
709,2	668,786
709,6	661,014
710	652,957
710,5	643,557
710,9	640,386
711,3	631,929
711,8	624,957
712,2	613,929
712,7	608,871
713,1	604,157
713,5	603,786
714	598,243
714,4	591,3
714,8	587,729
715,3	588,414
715,7	585,1
716,2	586,9
716,6	580,214
717	576,757
717,5	573,157
717,9	568,243
718,3	564,043
718,8	560,1
719,2	552,443
719,7	546,729
720,1	536,129
720,5	532,814
721	529,471
721,4	520,9
721,8	519,129
722,3	520,643
722,7	517,5
723,2	518,843
723,6	517,843
724	515,443
724,5	513,814
724,9	506,071
725,3	490,471
725,8	486,214
726,2	482,386
726,7	475,186
727,1	468,1
727,5	462,443
728	452,557
728,4	457,1
728,8	453,271
729,3	449,271
729,7	446,357
730,1	444,986
730,6	445,043
731	447,643
731,5	444,243
731,9	445,414
732,3	445,443
732,8	444,671
733,2	447,671
733,6	446,671
734,1	442,386
734,5	443,157
734,9	434,7
735,4	428,157
735,8	421,214
736,3	410,414
736,7	408,986
737,1	408,7
737,6	401,614
738	404,357
738,4	406,329
738,9	409,871
739,3	413,7
739,7	409,757
740,2	406,471
740,6	409,3
741,1	403,157
741,5	397,671
741,9	396,729
742,4	395,186
742,8	388,757
743,2	385,414
743,7	376,271
744,1	379,357
744,5	379,729
745	374,386
745,4	372,071
745,8	372,643
746,3	371,471
746,7	370,271
747,2	362,557
747,6	356,986
748	356,9
748,5	353,357
748,9	347,986
749,3	349,071
749,8	347,357
750,2	345,786
750,6	341,729
751,1	339,671
751,5	337,243
751,9	337,871
752,4	340,757
752,8	341,386
753,3	341,043
753,7	343,586
754,1	339,443
754,6	332,786
755	330,929
755,4	328,586
755,9	325,157
756,3	326,671
756,7	327,7
757,2	323,529
757,6	323,214
758	318,9
758,5	311,7
758,9	309,9
759,3	305,214
759,8	294,843
760,2	295,614
760,6	301,529
761,1	301,443
761,5	301,243
761,9	297,757
762,4	297,443
762,8	300,9
763,3	299,557
763,7	292,529
764,1	289,443
764,6	285,043
765	284,214
765,4	281,471
765,9	280,929
766,3	278,243
766,7	276,357
767,2	276,7
767,6	280,1
768	276,586
768,5	272,871
768,9	268,643
769,3	266,5
769,8	260,129
770,2	254,643
770,6	248,614
771,1	245,5
771,5	243,586
771,9	242,786
772,4	243,043
772,8	243,614
773,2	247,471
773,7	245,786
774,1	252,986
774,5	253,414
775	250,5
775,4	247,786
775,8	247,471
776,3	240,9
776,7	239,1
777,1	233,271
777,6	230,7
778	227,643
778,4	223,9
778,9	226,043
779,3	226,357
779,7	224,014
780,2	222,586
780,6	221,843
781	224,786
781,5	222,814
781,9	219,129
782,3	220,729
782,8	224,071
783,2	222,043
783,6	221,071
784,1	219,014
784,5	218,186
784,9	219,3
785,4	214,386
785,8	212,786
786,2	210,243
786,7	209,443
787,1	212,557
787,5	211,986
788	209,357
788,4	214,129
788,8	208,3
789,3	207,586
789,7	205,557
790,1	199,871
790,6	198,843
791	194,957
791,4	194,214
791,9	191,986
792,3	190,3
792,7	186,386
793,2	187,1
793,6	187,986
794	184,757
794,5	178,586
794,9	182,814
795,3	184,214
795,8	185,329
796,2	177,157
796,6	180,757
797,1	182,414
797,5	181,157
797,9	177,214
798,4	174,414
798,8	172,271
799,2	177,729
799,7	173,529
800,1	171,1
800,5	172,929
801	174,7
801,4	175,471
801,8	173,757
802,2	168,614
802,7	163,786
803,1	163,157
803,5	159,329
804	154,243
804,4	154,357
804,8	155,414
805,3	157,243
805,7	160,357
806,1	157,129
806,6	162,1
807	161,929
807,4	156,614
807,9	158,386
808,3	156,186
808,7	156,586
809,2	155,757
809,6	151,1
810	149,9
810,4	149,643
810,9	148,071
811,3	150,757
811,7	140,871
812,2	140,214
812,6	136,957
813	137,9
813,5	137,386
813,9	134,243
814,3	125,386
814,8	128,586
815,2	130,586
815,6	129,443
816,1	131,843
816,5	131,757
816,9	134,557
817,3	136,843
817,8	142,214
818,2	138,386
818,6	138,586
819,1	133,7
819,5	127,243
819,9	121,9
820,4	124,671
820,8	118,557
821,2	119,471
821,7	113,586
822,1	113,214
822,5	120,386
822,9	119,843
823,4	116,814
823,8	115,814
824,2	112,1
824,7	113,986
825,1	110,271
825,5	107,529
826	105,586
826,4	103,557
826,8	97,757
827,3	100,329
827,7	101,271
828,1	105,186
828,5	103,729
829	104,614
829,4	101,414
829,8	105,3
830,3	105,014
830,7	104,843
831,1	104,5
831,6	101,986
832	97,643
832,4	100,386
832,8	95,3
833,3	94,243
833,7	90,671
834,1	89,7
834,6	88,7
835	89,871
835,4	85,643
835,8	90,357
836,3	92,3
836,7	94,7
837,1	89,986
837,6	87,786
838	88,214
838,4	90,357
838,9	87,7
839,3	82,071
839,7	81,157
840,1	89,014
840,6	92,186
841	87,7
841,4	85,9
841,9	86,614
842,3	90,843
842,7	86,329
843,1	80,9
843,6	77,871
844	77,7
844,4	81,643
844,9	81,214
845,3	76,729
845,7	78,614
846,2	76,957
846,6	80,929
847	86,471
847,4	85,9
847,9	86,557
848,3	84,443
848,7	84,414
849,2	84,471
849,6	81,329
850	81,214
850,4	78,271
850,9	74,843
851,3	80,186
851,7	78,614
852,2	74,843
852,6	75,5
853	73,814
853,4	72,957
853,9	72,386
854,3	71,386
854,7	73,986
855,2	77,357
855,6	73,471
856	73,386
856,4	72,014
856,9	76,643
857,3	72,814
857,7	72,386
858,2	67,529
858,6	67,529
859	64,9
859,4	66,557
859,9	62,729
860,3	60,757
860,7	58,043
861,1	59,814
861,6	59,671
862	62,586
862,4	56,186
862,9	60,357
863,3	62,557
863,7	64,329
864,1	64,843
864,6	68,071
865	65,614
865,4	68,814
865,9	66,671
866,3	71,043
866,7	65,386
867,1	63,929
867,6	61,443
868	59,786
868,4	58,271
868,8	52,1
869,3	50,5
869,7	55,471
870,1	55,671
870,6	52,9
871	58,329
871,4	60,014
871,8	61,643
872,3	58,043
872,7	52,129
873,1	49,214
873,5	51,329
874	46,986
874,4	48,5
874,8	48,986
875,3	44,986
875,7	43,929
876,1	48,957
876,5	48,186
877	46,643
877,4	42,986
877,8	42,5
878,2	50,7
878,7	53,957
879,1	54,7
879,5	55,271
879,9	55,271
880,4	56,843
880,8	58,586
881,2	52,329
881,7	52,071
882,1	48,7
882,5	48,014
882,9	46,271
883,4	43,471
883,8	41,843
884,2	42,3
884,6	40,043
885,1	37,043
885,5	32,986
885,9	36,786
886,3	39,5
886,8	42,357
887,2	41,643
887,6	44,443
888	46,929
888,5	46,129
888,9	38,443
889,3	36,271
889,8	38,529
890,2	37,5
890,6	37,157
891	38,357
891,5	43,843
891,9	46,5
892,3	50,443
892,7	41,786
893,2	43,3
893,6	38,5
894	37,814
894,4	36,214
894,9	38,957
895,3	35,757
895,7	38,671
896,1	37,843
896,6	40,7
897	40,471
897,4	42,471
897,8	42,014
898,3	44,586
898,7	45,871
899,1	45,757
899,5	47,871
900	44,157
900,4	39,3
900,8	35,157
901,2	30,129
901,7	31,243
902,1	31,529
902,5	32,1
902,9	34,643
903,4	34,071
903,8	30,843
904,2	32,7
904,6	25,386
905,1	25,671
905,5	22,986
905,9	23,243
906,3	25,9
906,8	28,386
907,2	25,757
907,6	27,5
908	24,071
908,5	20,7
908,9	18,071
909,3	16,443
909,7	21,443
910,2	23,929
910,6	24,671
911	26,329
911,4	30,329
911,9	31,214
912,3	32,443
912,7	30,557
913,1	28,614
913,6	32,786
914	33,129
914,4	33,1
914,8	34,871
915,3	35,9
915,7	37,186
916,1	36,9
916,5	33,271
916,9	32,814
917,4	35,757
917,8	30,186
918,2	29,814
918,6	27,529
919,1	29,243
919,5	30,814
919,9	31,929
920,3	28,643
920,8	34,786
921,2	34,414
921,6	34,5
922	31,671
922,5	29,786
922,9	30,9
923,3	33,014
923,7	30,186
924,2	30,814
924,6	30,614
925	33,014
925,4	33,271
925,8	33,729
926,3	30,186
926,7	31,986
927,1	32,186
927,5	35,9
928	37,557
928,4	35,186
928,8	32,729
929,2	36,243
929,7	36,986
930,1	34,329
930,5	26,443
930,9	26,529
931,3	28,129
931,8	27,729
932,2	23,186
932,6	20,186
933	17,929
933,5	22,243
933,9	24,271
934,3	22,3
934,7	24,786
935,2	23,357
935,6	21,9
936	19,443
936,4	17,643
936,8	11,586
937,3	15,614
937,7	17,386
938,1	22,757
938,5	21,929
939	26,243
939,4	26,586
939,8	29,1
940,2	26,5
940,6	16,186
941,1	15,357
941,5	16,786
941,9	16,671
942,3	20,643
942,8	20,329
943,2	16,243
943,6	19,814
944	20,7
944,4	22,357
944,9	21,043
945,3	17,7
945,7	17,957
946,1	19,357
946,6	19,157
947	14,729
947,4	10,529
947,8	12,729
948,2	15,814
948,7	12,7
949,1	18,7
949,5	19,5
949,9	21,386
950,3	21,643
950,8	16,986
951,2	12,643
951,6	13,843
952	11,414
952,5	11,757
952,9	11,757
953,3	13,871
953,7	15,757
954,1	19,329
954,6	18,386
955	20,814
955,4	19,786
955,8	22,5
956,2	20,729
956,7	21,929
957,1	21,986
957,5	23,671
957,9	18,214
958,3	21,471
958,8	22,014
959,2	24,557
959,6	31,957
960	27,129
960,5	26,471
960,9	30,071
961,3	29,414
961,7	32,757
962,1	31,786
962,6	25,243
963	29,614
963,4	32,129
963,8	29,043
964,2	25,929
964,7	19,586
965,1	21,614
965,5	25,929
965,9	21,957
966,3	17,129
966,8	16,843
967,2	20,957
967,6	19,129
968	16,9
968,4	15,957
968,9	13,871
969,3	20,071
969,7	18,986
970,1	18,671
970,5	19,014
971	20,5
971,4	17,843
971,8	21,386
972,2	14,643
972,6	15,757
973,1	13,529
973,5	16,271
973,9	9,786
974,3	10,186
974,7	7,643
975,2	13,529
975,6	14,014
976	16,214
976,4	11,729
976,8	17,757
977,3	16,9
977,7	15,186
978,1	14,814
978,5	18,757
978,9	19,986
979,4	21,529
979,8	19,843
980,2	20,557
980,6	29,043
981	23,643
981,5	18,929
981,9	18,929
982,3	20,329
982,7	17,957
983,1	17,271
983,6	9,443
984	11,757
984,4	11,414
984,8	6,814
985,2	9,929
985,6	11,5
986,1	7,186
986,5	15,186
986,9	14,986
987,3	17,843
987,7	18,443
988,2	10,986
988,6	10,586
989	12,3
989,4	5,214
989,8	8,014
990,3	4,471
990,7	4,729
991,1	4,814
991,5	6,043
991,9	6,643
992,3	4,7
992,8	2,757
993,2	2,3
993,6	1,043
994	4,957
994,4	6,329
994,9	6,014
995,3	14,043
995,7	16,157
996,1	16,929
996,5	14,729
996,9	19,5
997,4	19,157
997,8	17,529
998,2	16,814
998,6	13,957
999	15,757
999,5	21,214
999,9	15,357
1000,3	19,529
1000,7	26,9
1001,1	27,157
1001,5	31,5
1002	29,357
1002,4	29,186
1002,8	32,614
1003,2	24,243
1003,6	18,357
1004	15,843
1004,5	9,757
1004,9	14,7
1005,3	14,871
1005,7	16,757
1006,1	19,1
1006,6	21,957
1007	19,214
1007,4	20,957
1007,8	19,414
1008,2	21,471
1008,6	17,1
1009,1	18,329
1009,5	22,214
1009,9	24,271
1010,3	26,9
1010,7	27,786
1011,1	23,871
1011,6	20,9
1012	20,986
1012,4	17,186
1012,8	15,214
1013,2	11,557
1013,6	12,814
1014,1	9,871
1014,5	11,871
1014,9	9,957
1015,3	4,557
1015,7	8,414
1016,1	12,043
1016,6	9,786
1017	13,671
1017,4	15,329
1017,8	21,443
1018,2	19,529
1018,6	15,1
1019,1	14,157
1019,5	12,329
1019,9	14,214
1020,3	10,671
1020,7	8,871
1021,1	9,414
1021,6	9,957
1022	9,329
1022,4	13,814
1022,8	10,129
1023,2	10,443
1023,6	5,614
1024,1	13,671
1024,5	15,929
1024,9	16,843
1025,3	15,443
1025,7	14,871
1026,1	14,3
1026,6	21,443
1027	14,814
1027,4	16,7
1027,8	14,9
1028,2	12,357
1028,6	14,9
1029	16,214
1029,5	9,986
1029,9	18,414
1030,3	16,243
1030,7	17,443
1031,1	22,586
1031,5	21,186
1032	22,1
1032,4	29,614
1032,8	25,157
1033,2	23,071
1033,6	17,671
1034	12,757
1034,4	12,043
1034,9	17,671
1035,3	14,929
1035,7	13,7
1036,1	19,986
1036,5	24,243
1036,9	23,7
1037,4	25,329
1037,8	18,729
1038,2	18,214
1038,6	18,357
1039	16,529
1039,4	21,071
1039,8	26,014
1040,3	27,9
1040,7	31,186
1041,1	25,157
1041,5	26,329
1041,9	27,071
1042,3	21,729
1042,7	13,643
1043,2	12,529
1043,6	10,071
1044	16,557
1044,4	18,557
1044,8	14,814
1045,2	16,614
1045,6	28,729
1046,1	29,529
1046,5	29,3
1046,9	26,814
1047,3	26,443
1047,7	28,586
1048,1	27,471
1048,5	22,9
1049	21,043
1049,4	17,271
1049,8	17,5
1050,2	15,043
1050,6	9,871
1051	13,271
1051,4	7,986
1051,9	10,729
1052,3	13,043
1052,7	12,071
1053,1	12,129
1053,5	10,586
1053,9	7,414
1054,3	6,414
1054,8	-1,1
1055,2	2,957
1055,6	5,586
1056	6,1
1056,4	11,814
1056,8	14,071
1057,2	16,614
1057,6	26,9
1058,1	30,157
1058,5	26,014
1058,9	27,871
1059,3	25,214
1059,7	25,014
1060,1	25,014
1060,5	18,129
1061	9,614
1061,4	9,871
1061,8	9,529
1062,2	14,586
1062,6	9,357
1063	10,529
1063,4	9,043
1063,8	13,3
1064,3	18,414
1064,7	20,214
1065,1	17,986
1065,5	22,157
1065,9	21,271
1066,3	24,014
1066,7	28,3
1067,1	24,757
1067,6	26,9
1068	31,071
1068,4	29,5
1068,8	28,586
1069,2	28,929
1069,6	19,986
1070	23,471
1070,4	19,529
1070,9	18,043
1071,3	20,7
1071,7	25,014
1072,1	22,5
1072,5	28,329
1072,9	26,214
1073,3	26,3
1073,7	19,757
1074,2	21,957
1074,6	19,414
1075	26,729
1075,4	26,071
1075,8	21,3
1076,2	23,3
1076,6	27,157
1077	27,757
1077,5	26,986
1077,9	21,271
1078,3	16,957
1078,7	19,929
1079,1	20,614
1079,5	18,386
1079,9	16,357
1080,3	17,957
1080,7	20,129
1081,2	21,243
1081,6	19,129
1082	18,471
1082,4	21,129
1082,8	19,643
1083,2	12,671
1083,6	8,814
1084	11,7
1084,5	15,014
1084,9	7,643
1085,3	3,071
1085,7	0,071
1086,1	4,1
1086,5	3,214
1086,9	5,414
1087,3	5,386
1087,7	14,157
1088,2	20,014
1088,6	19,7
1089	25,529
1089,4	30,1
1089,8	24,986
1090,2	22,129
1090,6	15,3
1091	13,529
1091,4	14,386
1091,9	10,271
1092,3	12,757
1092,7	16,071
1093,1	16,929
1093,5	18,243
1093,9	12,586
1094,3	12,243
1094,7	10,586
1095,1	7,871
1095,5	7,929
1096	8,529
1096,4	11,3
1096,8	18,814
1097,2	17,7
1097,6	21,814
1098	17,271
1098,4	16,7
1098,8	17,786
1099,2	15,329
1099,6	15,443
1100,1	18,643
1100,5	16,1
1100,9	15,986
1101,3	14,014
1101,7	10,786
1102,1	10,671
1102,5	7,5
1102,9	1,757
1103,3	1,757
1103,7	7,7
1104,2	6,7
1104,6	8,529
1105	5,871
1105,4	6,671
1105,8	10,357
1106,2	7,843
1106,6	3,786
1107	3,443
1107,4	2,4
1107,8	4,1
1108,3	1,05
