Data from Subt2_00081.txt Node
Date: Mon Aug 28 13:32:11 MSK 2023
User: vat
Spectrometer: MAYP114033
Trigger mode: 0
Integration Time (sec): 1,000000E0
Scans to average: 5
Electric dark correction enabled: true
Nonlinearity correction enabled: false
Boxcar width: 3
XAxis mode: Wavelengths
Number of Pixels in Spectrum: 2068
>>>>>Begin Spectral Data<<<<<
199,4	0,483
199,9	-4,567
200,4	-1,567
200,8	0,776
201,3	0,948
201,8	2,49
202,2	3,776
202,7	3,148
203,2	8,005
203,6	6,633
204,1	5,433
204,6	6,405
205	2,919
205,5	3,49
206	4,262
206,4	2,519
206,9	6,919
207,4	6,205
207,8	5,519
208,3	7,29
208,8	4,262
209,2	9,062
209,7	11,462
210,2	8,833
210,6	10,176
211,1	17,633
211,5	18,262
212	22,405
212,5	20,29
212,9	15,576
213,4	14,948
213,9	13,09
214,3	8,69
214,8	12,605
215,3	11,49
215,7	7,319
216,2	10,776
216,7	13,719
217,1	12,576
217,6	9,205
218,1	7,633
218,5	7,033
219	10,719
219,5	11,519
219,9	5,919
220,4	15,805
220,9	15,433
221,3	15,69
221,8	15,148
222,3	16,176
222,7	18,948
223,2	17,748
223,6	7,662
224,1	13,948
224,6	15,633
225	15,233
225,5	12,776
226	7,69
226,4	12,033
226,9	15,462
227,4	16,319
227,8	12,519
228,3	11,376
228,8	12,862
229,2	18,548
229,7	18,605
230,2	19,919
230,6	13,033
231,1	13,605
231,5	20,719
232	18,262
232,5	11,433
232,9	13,89
233,4	12,033
233,9	14,519
234,3	16,69
234,8	11,348
235,3	14,633
235,7	16,176
236,2	12,862
236,7	12,033
237,1	10,919
237,6	9,776
238,1	11,005
238,5	6,119
239	9,205
239,4	12,233
239,9	13,233
240,4	13,49
240,8	15,776
241,3	14,319
241,8	17,319
242,2	16,09
242,7	14,976
243,2	15,433
243,6	14,748
244,1	9,862
244,6	5,519
245	2,89
245,5	2,519
245,9	5,119
246,4	2,89
246,9	1,033
247,3	2,633
247,8	6,262
248,3	14,862
248,7	14,262
249,2	13,348
249,7	21,176
250,1	22,005
250,6	17,976
251	19,519
251,5	13,833
252	12,09
252,4	6,033
252,9	0,919
253,4	2,69
253,8	5,919
254,3	2,748
254,8	4,519
255,2	3,405
255,7	6,433
256,1	3,376
256,6	2,805
257,1	2,976
257,5	0,976
258	-3,167
258,5	2,205
258,9	-2,738
259,4	-1,795
259,9	-2,567
260,3	-4,081
260,8	-1,481
261,2	2,49
261,7	3,005
262,2	8,148
262,6	11,662
263,1	11,833
263,6	11,033
264	10,605
264,5	10,405
264,9	8,862
265,4	8,662
265,9	7,776
266,3	7,49
266,8	9,319
267,3	13,833
267,7	10,148
268,2	8,205
268,7	9,805
269,1	5,176
269,6	7,233
270	1,776
270,5	3,833
271	4,833
271,4	3,519
271,9	1,348
272,4	6,833
272,8	6,376
273,3	10,662
273,7	4,376
274,2	5,805
274,7	7,976
275,1	7,49
275,6	10,748
276,1	7,405
276,5	12,976
277	15,49
277,4	16,548
277,9	14,348
278,4	12,748
278,8	7,119
279,3	13,833
279,8	11,519
280,2	13,976
280,7	10,233
281,1	12,976
281,6	15,69
282,1	15,348
282,5	12,433
283	11,233
283,4	10,433
283,9	12,148
284,4	12,605
284,8	12,548
285,3	9,948
285,8	5,948
286,2	3,29
286,7	0,633
287,1	1,205
287,6	2,148
288,1	-2,224
288,5	3,49
289	1,89
289,5	6,033
289,9	7,29
290,4	6,862
290,8	4,319
291,3	11,09
291,8	7,919
292,2	16,262
292,7	16,176
293,1	16,605
293,6	12,119
294,1	14,176
294,5	10,005
295	7,862
295,5	4,719
295,9	2,976
296,4	1,376
296,8	5,262
297,3	5,005
297,8	8,776
298,2	11,49
298,7	12,662
299,1	14,119
299,6	17,548
300,1	21,062
300,5	22,319
301	18,433
301,5	15,919
301,9	13,405
302,4	12,833
302,8	12,633
303,3	16,776
303,8	16,033
304,2	17,062
304,7	18,776
305,1	16,948
305,6	12,348
306,1	5,976
306,5	-3,881
307	-6,967
307,4	-11,881
307,9	-10,995
308,4	-8,881
308,8	-2,681
309,3	3,262
309,8	4,09
310,2	4,976
310,7	10,862
311,1	10,548
311,6	7,69
312,1	3,49
312,5	1,176
313	1,719
313,4	5,833
313,9	3,29
314,4	-1,652
314,8	3,376
315,3	9,148
315,7	10,233
316,2	11,633
316,7	7,376
317,1	12,09
317,6	17,548
318	15,233
318,5	12,719
319	10,89
319,4	17,005
319,9	16,09
320,3	13,833
320,8	11,462
321,3	8,805
321,7	7,233
322,2	8,719
322,6	6,719
323,1	7,433
323,6	8,376
324	9,89
324,5	12,89
324,9	17,062
325,4	16,433
325,9	14,033
326,3	14,062
326,8	11,062
327,2	11,776
327,7	13,833
328,2	9,719
328,6	12,633
329,1	6,948
329,5	7,119
330	9,519
330,5	14,633
330,9	12,805
331,4	11,719
331,8	7,89
332,3	13,605
332,8	13,862
333,2	17,005
333,7	8,576
334,1	4,176
334,6	5,29
335,1	6,662
335,5	6,462
336	6,09
336,4	3,262
336,9	7,862
337,4	10,576
337,8	10,233
338,3	13,376
338,7	14,548
339,2	13,748
339,7	10,062
340,1	5,119
340,6	2,462
341	2,262
341,5	0,205
342	-3,995
342,4	-7,938
342,9	-2,052
343,3	1,319
343,8	6,719
344,2	7,033
344,7	3,862
345,2	5,719
345,6	11,576
346,1	10,69
346,5	10,833
347	7,062
347,5	9,548
347,9	9,976
348,4	9,49
348,8	9,376
349,3	6,29
349,8	5,662
350,2	11,233
350,7	9,719
351,1	14,719
351,6	17,548
352	20,062
352,5	27,005
353	34,776
353,4	37,29
353,9	50,605
354,3	65,462
354,8	76,29
355,3	91,662
355,7	105,09
356,2	122,862
356,6	140,805
357,1	163,119
357,5	187,976
358	220,576
358,5	252,919
358,9	293,49
359,4	334,89
359,8	388,776
360,3	438,719
360,8	496,89
361,2	562,89
361,7	640,605
362,1	719,49
362,6	808,176
363	903,805
363,5	1001,49
364	1097,833
364,4	1199,862
364,9	1303,205
365,3	1405,433
365,8	1504,376
366,3	1592,976
366,7	1669,748
367,2	1737,805
367,6	1801,262
368,1	1841,262
368,5	1869,033
369	1885,205
369,5	1877,233
369,9	1867,976
370,4	1838,833
370,8	1789,462
371,3	1737,49
371,7	1675,605
372,2	1599,948
372,7	1529,348
373,1	1454,29
373,6	1375,462
374	1293,405
374,5	1213,262
374,9	1136,862
375,4	1063,005
375,9	990,29
376,3	915,233
376,8	850,148
377,2	793,433
377,7	738,148
378,2	686,548
378,6	636,576
379,1	588,776
379,5	546,033
380	509,69
380,4	471,948
380,9	437,805
381,4	405,948
381,8	381,433
382,3	362,862
382,7	343,662
383,2	323,233
383,6	312,576
384,1	297,233
384,6	284,376
385	272,148
385,5	258,462
385,9	249,09
386,4	244,29
386,8	229,148
387,3	219,919
387,7	206,548
388,2	193,548
388,7	185,062
389,1	176,29
389,6	162,519
390	156,662
390,5	146,805
390,9	138,748
391,4	133,29
391,9	126,433
392,3	122,519
392,8	120,348
393,2	112,805
393,7	111,148
394,1	109,09
394,6	107,89
395,1	110,833
395,5	107,205
396	104,862
396,4	100,576
396,9	98,919
397,3	102,233
397,8	96,462
398,2	87,433
398,7	84,262
399,2	80,633
399,6	79,89
400,1	72,376
400,5	68,033
401	69,262
401,4	66,662
401,9	67,262
402,4	66,519
402,8	71,519
403,3	78,376
403,7	74,376
404,2	75,176
404,6	77,205
405,1	80,862
405,5	78,948
406	77,205
406,5	72,205
406,9	77,719
407,4	73,833
407,8	76,605
408,3	68,576
408,7	70,719
409,2	67,205
409,6	71,805
410,1	70,69
410,6	70,233
411	69,205
411,5	67,976
411,9	66,09
412,4	74,976
412,8	72,69
413,3	71,176
413,7	75,548
414,2	76,262
414,7	81,748
415,1	87,148
415,6	81,233
416	84,776
416,5	95,405
416,9	102,776
417,4	108,919
417,8	114,519
418,3	115,805
418,8	121,69
419,2	123,776
419,7	120,948
420,1	115,633
420,6	113,005
421	110,833
421,5	112,548
421,9	111,519
422,4	115,662
422,8	113,09
423,3	116,205
423,8	114,09
424,2	116,776
424,7	120,69
425,1	118,319
425,6	115,776
426	118,662
426,5	123,09
426,9	123,405
427,4	126,233
427,9	123,233
428,3	126,462
428,8	129,119
429,2	131,148
429,7	127,748
430,1	131,805
430,6	124,919
431	125,433
431,5	126,405
431,9	127,919
432,4	130,062
432,8	136,862
433,3	142,29
433,8	147,49
434,2	151,548
434,7	156,633
435,1	163,176
435,6	166,633
436	166,862
436,5	171,976
436,9	181,376
437,4	188,519
437,8	193,176
438,3	200,29
438,8	206,919
439,2	213,805
439,7	219,319
440,1	224,633
440,6	233,005
441	243,748
441,5	249,548
441,9	258,662
442,4	271,748
442,8	286,148
443,3	303,319
443,7	311,576
444,2	324,405
444,7	337,605
445,1	351,062
445,6	363,748
446	379,919
446,5	390,576
446,9	410,433
447,4	427,233
447,8	444,633
448,3	465,433
448,7	487,09
449,2	499,662
449,6	521,062
450,1	540,976
450,6	563,205
451	582,262
451,5	607,233
451,9	625,805
452,4	649,233
452,8	672,976
453,3	694,176
453,7	717,348
454,2	747,776
454,6	766,148
455,1	797,776
455,5	830,176
456	858,119
456,4	888,948
456,9	924,548
457,3	950,662
457,8	982,262
458,3	1008,005
458,7	1042,205
459,2	1075,062
459,6	1110,205
460,1	1141,233
460,5	1176,748
461	1210,805
461,4	1243,805
461,9	1270,519
462,3	1308,719
462,8	1344,062
463,2	1377,348
463,7	1412,69
464,1	1450,662
464,6	1493,262
465	1533,062
465,5	1567,09
466	1610,548
466,4	1653,005
466,9	1695,062
467,3	1737,176
467,8	1782,376
468,2	1828,89
468,7	1877,433
469,1	1921,405
469,6	1960,633
470	2006,205
470,5	2054,005
470,9	2096,433
471,4	2139,119
471,8	2180,119
472,3	2215,462
472,7	2262,633
473,2	2302,633
473,6	2346,376
474,1	2388,776
474,5	2428,119
475	2470,433
475,4	2514,49
475,9	2556,519
476,4	2601,033
476,8	2642,233
477,3	2684,233
477,7	2733,805
478,2	2778,405
478,6	2826,233
479,1	2873,862
479,5	2921,89
480	2963,576
480,4	3006,262
480,9	3041,805
481,3	3077,748
481,8	3113,433
482,2	3146,89
482,7	3180,605
483,1	3215,062
483,6	3244,29
484	3280,833
484,5	3325,005
484,9	3363,69
485,4	3395,205
485,8	3423,176
486,3	3455,262
486,7	3498,433
487,2	3532,69
487,6	3548,633
488,1	3575,805
488,5	3603,005
489	3632,49
489,4	3662,119
489,9	3675,205
490,4	3696,519
490,8	3726,062
491,3	3748,033
491,7	3770,662
492,2	3792,805
492,6	3813,348
493,1	3847,348
493,5	3868,29
494	3895,462
494,4	3909,605
494,9	3931,548
495,3	3949,148
495,8	3965,233
496,2	3977,49
496,7	3993,148
497,1	4000,862
497,6	4027,519
498	4043,919
498,5	4066,262
498,9	4081,09
499,4	4087,776
499,8	4106,89
500,3	4127,09
500,7	4135,176
501,2	4147,805
501,6	4152,633
502,1	4167,319
502,5	4183,919
503	4192,605
503,4	4195,033
503,9	4202,548
504,3	4212,862
504,8	4229,376
505,2	4239,633
505,7	4251,548
506,1	4261,405
506,6	4265,919
507	4280,376
507,5	4287,29
507,9	4292,89
508,4	4298,005
508,8	4304,462
509,3	4315,633
509,7	4333,862
510,2	4337,233
510,6	4344,405
511,1	4351,633
511,5	4356,462
512	4360,09
512,4	4365,69
512,9	4369,69
513,3	4373,919
513,8	4386,605
514,2	4390,205
514,7	4397,519
515,1	4407,719
515,6	4415,662
516	4420,005
516,5	4427,862
516,9	4431,433
517,4	4442,376
517,8	4449,148
518,3	4457,948
518,7	4458,262
519,2	4467,576
519,6	4473,719
520,1	4477,148
520,5	4474,29
521	4472,948
521,4	4477,948
521,9	4484,89
522,3	4487,662
522,8	4496,205
523,2	4497,633
523,7	4507,005
524,1	4516,233
524,6	4513,633
525	4518,862
525,5	4528,633
525,9	4540,148
526,4	4557,09
526,8	4570,262
527,3	4583,976
527,7	4603,405
528,2	4610,462
528,6	4628,576
529,1	4637,376
529,5	4641,576
530	4650,862
530,4	4662,919
530,9	4668,605
531,3	4680,948
531,8	4683,919
532,2	4684,776
532,6	4692,605
533,1	4695,776
533,5	4700,69
534	4707,062
534,4	4710,119
534,9	4714,662
535,3	4730,976
535,8	4743,49
536,2	4754,69
536,7	4761,462
537,1	4770,776
537,6	4788,548
538	4802,662
538,5	4812,89
538,9	4825,976
539,4	4836,433
539,8	4848,633
540,3	4859,148
540,7	4862,519
541,2	4871,176
541,6	4879,005
542,1	4891,433
542,5	4902,69
543	4910,976
543,4	4924,976
543,9	4936,205
544,3	4951,205
544,8	4963,005
545,2	4965,862
545,7	4973,805
546,1	4984,833
546,5	4994,262
547	5015,119
547,4	5020,576
547,9	5029,062
548,3	5044,119
548,8	5048,719
549,2	5064,319
549,7	5071,633
550,1	5071,89
550,6	5076,662
551	5086,033
551,5	5093,062
551,9	5109,405
552,4	5113,519
552,8	5124,976
553,3	5130,348
553,7	5145,89
554,2	5155,09
554,6	5166,376
555,1	5168,262
555,5	5179,462
555,9	5184,576
556,4	5197,233
556,8	5209,148
557,3	5214,976
557,7	5218,348
558,2	5235,148
558,6	5239,262
559,1	5257,148
559,5	5266,919
560	5272,748
560,4	5277,119
560,9	5285,005
561,3	5298,776
561,8	5308,119
562,2	5302,576
562,7	5308,519
563,1	5310,719
563,6	5314,633
564	5319,233
564,4	5315,262
564,9	5318,319
565,3	5329,262
565,8	5332,519
566,2	5335,548
566,7	5346,805
567,1	5347,719
567,6	5347,319
568	5351,29
568,5	5352,405
568,9	5353,662
569,4	5355,376
569,8	5361,205
570,3	5370,005
570,7	5380,719
571,1	5385,805
571,6	5377,405
572	5380,319
572,5	5379,919
572,9	5378,205
573,4	5368,119
573,8	5366,662
574,3	5366,319
574,7	5378,148
575,2	5375,548
575,6	5377,719
576,1	5377,89
576,5	5383,233
576,9	5378,176
577,4	5375,548
577,8	5368,262
578,3	5364,376
578,7	5361,89
579,2	5351,976
579,6	5345,262
580,1	5337,433
580,5	5327,576
581	5320,119
581,4	5316,262
581,9	5306,49
582,3	5304,29
582,7	5296,205
583,2	5291,662
583,6	5281,176
584,1	5272,69
584,5	5258,748
585	5252,69
585,4	5241,233
585,9	5235,605
586,3	5226,405
586,8	5222,49
587,2	5218,348
587,6	5217,605
588,1	5209,148
588,5	5197,148
589	5185,233
589,4	5181,319
589,9	5176,262
590,3	5163,233
590,8	5148,233
591,2	5135,09
591,7	5129,919
592,1	5127,176
592,5	5119,005
593	5106,348
593,4	5100,833
593,9	5099,205
594,3	5096,062
594,8	5083,29
595,2	5064,09
595,7	5052,948
596,1	5047,29
596,6	5041,405
597	5032,662
597,4	5026,748
597,9	5021,29
598,3	5018,776
598,8	5003,519
599,2	4996,348
599,7	4989,233
600,1	4974,005
600,6	4957,205
601	4950,519
601,4	4934,29
601,9	4926,633
602,3	4912,005
602,8	4894,262
603,2	4879,948
603,7	4872,948
604,1	4862,519
604,6	4854,319
605	4842,833
605,4	4830,29
605,9	4817,405
606,3	4813,205
606,8	4798,89
607,2	4783,576
607,7	4769,09
608,1	4760,176
608,6	4749,176
609	4737,948
609,4	4719,919
609,9	4703,119
610,3	4679,348
610,8	4669,062
611,2	4644,205
611,7	4627,29
612,1	4605,262
612,6	4589,462
613	4569,319
613,4	4555,89
613,9	4538,805
614,3	4529,348
614,8	4504,89
615,2	4504,805
615,7	4489,005
616,1	4476,519
616,6	4462,205
617	4442,176
617,4	4421,119
617,9	4413,862
618,3	4382,776
618,8	4364,519
619,2	4349,805
619,7	4333,519
620,1	4313,205
620,5	4290,433
621	4265,805
621,4	4254,605
621,9	4238,176
622,3	4214,376
622,8	4192,462
623,2	4177,376
623,6	4165,948
624,1	4151,776
624,5	4120,033
625	4101,29
625,4	4082,433
625,9	4066,633
626,3	4050,29
626,8	4026,519
627,2	4005,148
627,6	3994,862
628,1	3974,005
628,5	3951,033
629	3928,119
629,4	3906,262
629,9	3893,548
630,3	3872,833
630,7	3851,69
631,2	3834,176
631,6	3820,89
632,1	3803,09
632,5	3781,862
633	3756,748
633,4	3734,576
633,8	3720,29
634,3	3697,462
634,7	3679,262
635,2	3658,748
635,6	3647,319
636,1	3628,319
636,5	3611,348
636,9	3586,005
637,4	3572,405
637,8	3553,519
638,3	3535,119
638,7	3508,948
639,2	3492,576
639,6	3474,348
640	3453,719
640,5	3432,033
640,9	3406,748
641,4	3387,09
641,8	3373,576
642,2	3353,005
642,7	3332,09
643,1	3315,319
643,6	3298,405
644	3289,262
644,5	3279,205
644,9	3258,29
645,3	3246,462
645,8	3235,062
646,2	3218,776
646,7	3195,09
647,1	3176,662
647,6	3153,948
648	3142,69
648,4	3123,719
648,9	3109,176
649,3	3096,09
649,8	3087,89
650,2	3068,205
650,6	3058,405
651,1	3040,748
651,5	3028,662
652	3011,348
652,4	2993,605
652,9	2974,805
653,3	2962,033
653,7	2946,062
654,2	2933,948
654,6	2913,719
655,1	2897,833
655,5	2886,862
655,9	2871,89
656,4	2856,119
656,8	2835,262
657,3	2808,976
657,7	2793,576
658,2	2774,833
658,6	2755,262
659	2739,89
659,5	2719,119
659,9	2705,833
660,4	2690,233
660,8	2672,69
661,2	2655,948
661,7	2639,548
662,1	2629,776
662,6	2620,548
663	2602,205
663,4	2588,262
663,9	2570,89
664,3	2558,833
664,8	2537,576
665,2	2517,233
665,6	2500,776
666,1	2485,919
666,5	2471,376
667	2455,033
667,4	2438,719
667,9	2430,433
668,3	2411,376
668,7	2389,633
669,2	2370,348
669,6	2349,548
670,1	2332,719
670,5	2315,776
670,9	2300,49
671,4	2282,005
671,8	2268,262
672,3	2254,919
672,7	2246,319
673,1	2238,662
673,6	2224,462
674	2206,633
674,5	2196,976
674,9	2181,462
675,3	2163,719
675,8	2144,09
676,2	2122,376
676,7	2108,662
677,1	2094,005
677,5	2073,748
678	2070,433
678,4	2062,176
678,9	2050,348
679,3	2044,662
679,7	2032,976
680,2	2020,348
680,6	2010,462
681,1	1991,748
681,5	1980,176
681,9	1965,89
682,4	1953,005
682,8	1937,776
683,3	1925,319
683,7	1918,348
684,1	1904,176
684,6	1892,062
685	1881,233
685,5	1867,462
685,9	1855,262
686,3	1843,662
686,8	1828,262
687,2	1817,005
687,7	1800,005
688,1	1788,462
688,5	1773,319
689	1760,29
689,4	1749,176
689,9	1740,548
690,3	1730,748
690,7	1720,69
691,2	1708,69
691,6	1701,776
692	1692,319
692,5	1680,319
692,9	1664,29
693,4	1649,662
693,8	1642,033
694,2	1631,405
694,7	1617,233
695,1	1607,833
695,6	1599,576
696	1590,433
696,4	1579,919
696,9	1562,005
697,3	1551,89
697,8	1539,548
698,2	1525,319
698,6	1511,233
699,1	1499,348
699,5	1484,233
699,9	1478,462
700,4	1467,89
700,8	1459,948
701,3	1454,776
701,7	1447,519
702,1	1437,748
702,6	1436,005
703	1424,605
703,5	1414,719
703,9	1398,49
704,3	1384,776
704,8	1372,748
705,2	1362,919
705,6	1348,262
706,1	1338,976
706,5	1338,348
707	1339,89
707,4	1329,948
707,8	1320,033
708,3	1315,233
708,7	1304,69
709,2	1297,748
709,6	1278,862
710	1265,176
710,5	1255,005
710,9	1247,462
711,3	1230,176
711,8	1224,148
712,2	1217,89
712,7	1211,376
713,1	1202,548
713,5	1196,09
714	1189,205
714,4	1183,862
714,8	1175,148
715,3	1162,576
715,7	1155,176
716,2	1146,605
716,6	1143,005
717	1129,89
717,5	1121,633
717,9	1114,633
718,3	1106,148
718,8	1099,348
719,2	1090,205
719,7	1075,719
720,1	1070,205
720,5	1061,033
721	1050,233
721,4	1048,69
721,8	1039,319
722,3	1036,433
722,7	1030,633
723,2	1021,348
723,6	1015,205
724	1008,69
724,5	996,405
724,9	994,605
725,3	979,919
725,8	974,405
726,2	967,348
726,7	962,405
727,1	956,662
727,5	948,948
728	936,805
728,4	934,376
728,8	924,205
729,3	916,833
729,7	910,29
730,1	900,319
730,6	893,576
731	883,148
731,5	874,862
731,9	871,662
732,3	867,262
732,8	857,376
733,2	859,576
733,6	855,062
734,1	858,319
734,5	856,148
734,9	845,919
735,4	842,805
735,8	838,005
736,3	828,262
736,7	823,662
737,1	815,176
737,6	809,205
738	810,49
738,4	802,662
738,9	803,205
739,3	800,89
739,7	795,348
740,2	793,29
740,6	788,948
741,1	778,405
741,5	775,462
741,9	767,433
742,4	758,748
742,8	754,519
743,2	744,805
743,7	737,205
744,1	734,89
744,5	732,948
745	727,319
745,4	724,405
745,8	718,976
746,3	716,062
746,7	709,748
747,2	706,69
747,6	695,776
748	691,605
748,5	685,29
748,9	680,548
749,3	670,148
749,8	668,033
750,2	664,405
750,6	664,576
751,1	659,948
751,5	656,748
751,9	651,919
752,4	648,262
752,8	642,719
753,3	640,176
753,7	630,605
754,1	622,462
754,6	617,148
755	613,49
755,4	616,805
755,9	615,948
756,3	606,776
756,7	606,805
757,2	604,776
757,6	600,805
758	599,348
758,5	593,519
758,9	584,233
759,3	578,319
759,8	571,29
760,2	566,233
760,6	560,319
761,1	553,233
761,5	550,748
761,9	551,862
762,4	551,519
762,8	549,548
763,3	545,833
763,7	542,605
764,1	541,119
764,6	534,119
765	526,89
765,4	520,176
765,9	515,405
766,3	514,576
766,7	511,519
767,2	503,005
767,6	504,062
768	505,262
768,5	502,548
768,9	502,176
769,3	499,576
769,8	495,433
770,2	496,662
770,6	488,976
771,1	479,233
771,5	481,09
771,9	476,262
772,4	471,005
772,8	470,148
773,2	463,776
773,7	457,719
774,1	459,319
774,5	445,576
775	440,262
775,4	438,176
775,8	436,462
776,3	435,09
776,7	434,405
777,1	427,433
777,6	430,262
778	430,233
778,4	426,748
778,9	416,805
779,3	409,176
779,7	408,119
780,2	411,319
780,6	408,776
781	407,89
781,5	405,29
781,9	408,719
782,3	409,805
782,8	406,862
783,2	396,833
783,6	391,576
784,1	383,548
784,5	379,176
784,9	374,176
785,4	369,976
785,8	365,262
786,2	363,005
786,7	364,49
787,1	365,548
787,5	362,205
788	359,833
788,4	356,919
788,8	351,919
789,3	351,09
789,7	347,319
790,1	340,605
790,6	342,205
791	340,919
791,4	341,805
791,9	341,09
792,3	341,805
792,7	336,776
793,2	334,005
793,6	331,09
794	327,29
794,5	321,233
794,9	318,576
795,3	316,405
795,8	313,576
796,2	312,29
796,6	309,376
797,1	304,176
797,5	309,662
797,9	308,233
798,4	301,233
798,8	302,262
799,2	301,919
799,7	299,576
800,1	301,605
800,5	295,205
801	293,976
801,4	295,148
801,8	293,719
802,2	295,49
802,7	293,805
803,1	292,605
803,5	286,005
804	287,09
804,4	283,748
804,8	283,576
805,3	279,49
805,7	274,119
806,1	266,348
806,6	264,119
807	257,433
807,4	255,69
807,9	249,176
808,3	243,519
808,7	243,119
809,2	243,348
809,6	245,205
810	240,662
810,4	235,576
810,9	231,776
811,3	233,033
811,7	234,176
812,2	231,176
812,6	224,433
813	227,548
813,5	224,09
813,9	224,005
814,3	217,862
814,8	209,805
815,2	213,49
815,6	214,69
816,1	211,119
816,5	213,633
816,9	212,948
817,3	215,376
817,8	218,519
818,2	211,833
818,6	213,062
819,1	211,405
819,5	208,833
819,9	206,776
820,4	204,405
820,8	200,462
821,2	200,576
821,7	194,348
822,1	192,49
822,5	192,719
822,9	194,548
823,4	194,605
823,8	194,233
824,2	192,919
824,7	196,862
825,1	195,576
825,5	193,119
826	188,548
826,4	183,462
826,8	180,233
827,3	181,576
827,7	182,119
828,1	181,748
828,5	180,605
829	181,176
829,4	179,148
829,8	181,462
830,3	179,262
830,7	170,319
831,1	168,09
831,6	168,662
832	167,633
832,4	169,233
832,8	160,89
833,3	157,09
833,7	156,348
834,1	156,833
834,6	154,605
835	152,805
835,4	150,662
835,8	152,433
836,3	149,405
836,7	150,519
837,1	148,405
837,6	145,033
838	141,833
838,4	139,605
838,9	140,433
839,3	149,405
839,7	151,976
840,1	145,233
840,6	145,805
841	146,833
841,4	147,948
841,9	143,433
842,3	133,833
842,7	128,576
843,1	133,919
843,6	133,233
844	129,948
844,4	127,833
844,9	129,09
845,3	131,49
845,7	129,176
846,2	126,233
846,6	121,633
847	121,919
847,4	116,29
847,9	112,29
848,3	108,862
848,7	108,662
849,2	107,69
849,6	105,176
850	105,433
850,4	108,033
850,9	110,833
851,3	109,433
851,7	105,148
852,2	102,576
852,6	104,319
853	98,519
853,4	95,376
853,9	93,719
854,3	93,033
854,7	96,49
855,2	101,548
855,6	102,748
856	105,005
856,4	108,49
856,9	108,176
857,3	106,405
857,7	105,262
858,2	98,09
858,6	95,49
859	96,576
859,4	98,833
859,9	100,919
860,3	102,233
860,7	102,776
861,1	104,919
861,6	108,176
862	104,548
862,4	96,719
862,9	93,319
863,3	90,29
863,7	88,719
864,1	86,119
864,6	84,433
865	86,462
865,4	85,89
865,9	86,748
866,3	89,776
866,7	91,49
867,1	85,348
867,6	87,033
868	89,662
868,4	91,319
868,8	91,262
869,3	87,719
869,7	81,719
870,1	87,233
870,6	79,205
871	71,662
871,4	69,69
871,8	67,233
872,3	65,719
872,7	69,033
873,1	70,233
873,5	72,833
874	71,833
874,4	69,176
874,8	71,348
875,3	68,862
875,7	65,49
876,1	61,833
876,5	61,319
877	61,548
877,4	63,833
877,8	59,776
878,2	61,09
878,7	65,862
879,1	67,148
879,5	65,748
879,9	67,548
880,4	72,662
880,8	74,119
881,2	74,833
881,7	70,776
882,1	72,148
882,5	72,405
882,9	70,205
883,4	67,89
883,8	66,748
884,2	63,948
884,6	62,948
885,1	59,319
885,5	60,69
885,9	62,148
886,3	59,49
886,8	57,433
887,2	55,29
887,6	51,776
888	54,09
888,5	51,062
888,9	53,605
889,3	51,005
889,8	53,062
890,2	54,033
890,6	56,919
891	54,633
891,5	59,205
891,9	52,49
892,3	54,376
892,7	52,176
893,2	57,119
893,6	55,205
894	53,519
894,4	51,433
894,9	51,948
895,3	49,033
895,7	48,605
896,1	42,262
896,6	46,176
897	47,605
897,4	44,662
897,8	46,633
898,3	50,805
898,7	50,662
899,1	54,719
899,5	50,69
900	49,69
900,4	51,348
900,8	48,833
901,2	46,948
901,7	47,776
902,1	50,205
902,5	45,833
902,9	38,976
903,4	37,89
903,8	36,633
904,2	35,548
904,6	32,376
905,1	30,319
905,5	37,176
905,9	43,776
906,3	39,319
906,8	42,49
907,2	39,719
907,6	42,719
908	39,005
908,5	38,29
908,9	35,462
909,3	33,433
909,7	32,433
910,2	37,205
910,6	32,205
911	29,433
911,4	22,062
911,9	22,233
912,3	24,862
912,7	29,033
913,1	23,205
913,6	24,376
914	27,176
914,4	30,233
914,8	31,948
915,3	31,376
915,7	28,919
916,1	32,233
916,5	33,833
916,9	32,519
917,4	31,205
917,8	27,833
918,2	30,919
918,6	27,776
919,1	23,976
919,5	24,262
919,9	29,348
920,3	28,376
920,8	33,519
921,2	29,348
921,6	31,89
922	35,805
922,5	35,69
922,9	30,69
923,3	34,948
923,7	31,233
924,2	34,033
924,6	30,69
925	30,89
925,4	28,948
925,8	30,519
926,3	33,605
926,7	33,519
927,1	34,605
927,5	38,862
928	32,805
928,4	41,005
928,8	37,29
929,2	32,833
929,7	35,748
930,1	34,09
930,5	27,376
930,9	26,519
931,3	20,148
931,8	22,605
932,2	25,119
932,6	20,719
933	20,633
933,5	24,262
933,9	25,548
934,3	24,89
934,7	23,833
935,2	23,662
935,6	22,662
936	22,062
936,4	20,948
936,8	25,633
937,3	24,862
937,7	22,862
938,1	15,005
938,5	18,005
939	19,29
939,4	18,776
939,8	13,605
940,2	12,862
940,6	15,148
941,1	20,833
941,5	22,89
941,9	25,319
942,3	23,005
942,8	27,176
943,2	32,462
943,6	31,805
944	30,062
944,4	26,919
944,9	23,005
945,3	23,805
945,7	22,205
946,1	14,633
946,6	15,748
947	17,033
947,4	12,862
947,8	14,062
948,2	13,748
948,7	9,405
949,1	12,062
949,5	11,262
949,9	8,319
950,3	11,719
950,8	11,833
951,2	14,376
951,6	19,89
952	21,205
952,5	18,49
952,9	22,005
953,3	24,29
953,7	23,976
954,1	20,976
954,6	19,033
955	17,405
955,4	25,805
955,8	24,233
956,2	24,062
956,7	24,433
957,1	24,633
957,5	24,348
957,9	26,719
958,3	19,576
958,8	19,69
959,2	18,633
959,6	14,548
960	18,033
960,5	15,69
960,9	14,833
961,3	14,319
961,7	11,605
962,1	15,062
962,6	16,062
963	12,205
963,4	17,262
963,8	15,919
964,2	19,062
964,7	17,69
965,1	11,176
965,5	12,748
965,9	12,976
966,3	8,862
966,8	8,633
967,2	7,148
967,6	8,719
968	9,433
968,4	6,062
968,9	8,805
969,3	4,262
969,7	4,69
970,1	3,376
970,5	4,805
971	1,519
971,4	5,548
971,8	0,605
972,2	7,89
972,6	7,233
973,1	7,805
973,5	9,205
973,9	14,748
974,3	12,062
974,7	13,519
975,2	15,233
975,6	12,548
976	15,148
976,4	11,748
976,8	7,319
977,3	9,662
977,7	11,976
978,1	6,862
978,5	9,09
978,9	7,462
979,4	9,605
979,8	11,376
980,2	11,405
980,6	7,69
981	8,433
981,5	6,805
981,9	6,405
982,3	8,433
982,7	9,948
983,1	5,319
983,6	6,062
984	4,605
984,4	6,148
984,8	3,89
985,2	-0,224
985,6	-0,995
986,1	1,033
986,5	1,576
986,9	5,376
987,3	1,69
987,7	6,262
988,2	11,233
988,6	9,405
989	9,433
989,4	15,262
989,8	12,519
990,3	12,576
990,7	11,862
991,1	13,119
991,5	17,89
991,9	17,376
992,3	10,176
992,8	10,09
993,2	14,176
993,6	8,719
994	5,548
994,4	7,605
994,9	12,748
995,3	20,69
995,7	21,433
996,1	18,976
996,5	21,119
996,9	17,833
997,4	15,462
997,8	14,348
998,2	8,919
998,6	9,462
999	10,719
999,5	14,29
999,9	16,433
1000,3	14,805
1000,7	14,833
1001,1	10,348
1001,5	12,119
1002	11,976
1002,4	10,462
1002,8	10,976
1003,2	9,548
1003,6	9,948
1004	14,862
1004,5	11,462
1004,9	12,719
1005,3	11,69
1005,7	11,433
1006,1	15,148
1006,6	9,319
1007	7,833
1007,4	7,062
1007,8	8,462
1008,2	11,948
1008,6	12,948
1009,1	11,405
1009,5	12,09
1009,9	15,776
1010,3	13,919
1010,7	13,262
1011,1	12,833
1011,6	13,919
1012	13,49
1012,4	16,719
1012,8	11,919
1013,2	17,319
1013,6	17,062
1014,1	11,862
1014,5	8,033
1014,9	9,205
1015,3	8,119
1015,7	12,033
1016,1	8,49
1016,6	2,29
1017	2,919
1017,4	1,49
1017,8	-6,31
1018,2	-6,11
1018,6	-7,567
1019,1	-5,452
1019,5	1,576
1019,9	6,405
1020,3	9,805
1020,7	15,033
1021,1	17,176
1021,6	16,462
1022	15,805
1022,4	14,405
1022,8	9,862
1023,2	9,605
1023,6	7,119
1024,1	4,062
1024,5	6,376
1024,9	11,005
1025,3	11,833
1025,7	12,805
1026,1	16,948
1026,6	22,548
1027	25,662
1027,4	25,548
1027,8	19,69
1028,2	13,462
1028,6	14,376
1029	8,262
1029,5	6,49
1029,9	5,69
1030,3	10,005
1030,7	13,005
1031,1	19,29
1031,5	21,833
1032	24,376
1032,4	21,948
1032,8	20,662
1033,2	13,833
1033,6	13,319
1034	12,433
1034,4	11,833
1034,9	11,89
1035,3	14,748
1035,7	9,605
1036,1	9,833
1036,5	12,548
1036,9	13,205
1037,4	13,548
1037,8	15,49
1038,2	15,719
1038,6	23,462
1039	23,49
1039,4	20,776
1039,8	17,519
1040,3	18,348
1040,7	14,833
1041,1	12,062
1041,5	10,262
1041,9	9,462
1042,3	9,805
1042,7	7,09
1043,2	4,348
1043,6	14,348
1044	18,033
1044,4	18,776
1044,8	23,005
1045,2	26,433
1045,6	31,462
1046,1	28,062
1046,5	12,862
1046,9	10,662
1047,3	9,89
1047,7	6,348
1048,1	-0,31
1048,5	-0,567
1049	2,462
1049,4	9,805
1049,8	8,205
1050,2	8,376
1050,6	8,033
1051	4,776
1051,4	5,376
1051,9	1,833
1052,3	-1,852
1052,7	-1,081
1053,1	-1,624
1053,5	-1,538
1053,9	8,033
1054,3	4,548
1054,8	10,462
1055,2	8,89
1055,6	13,576
1056	11,148
1056,4	14,376
1056,8	12,719
1057,2	15,605
1057,6	14,605
1058,1	17,29
1058,5	10,005
1058,9	8,576
1059,3	8,148
1059,7	6,376
1060,1	3,519
1060,5	-1,452
1061	-4,167
1061,4	2,719
1061,8	7,205
1062,2	3,548
1062,6	4,033
1063	6,376
1063,4	10,49
1063,8	15,605
1064,3	9,662
1064,7	10,49
1065,1	13,148
1065,5	12,119
1065,9	15,462
1066,3	15,948
1066,7	12,033
1067,1	13,176
1067,6	14,319
1068	12,148
1068,4	10,576
1068,8	0,376
1069,2	1,176
1069,6	-0,138
1070	4,005
1070,4	2,433
1070,9	3,119
1071,3	2,319
1071,7	13,148
1072,1	8,519
1072,5	12,233
1072,9	11,576
1073,3	12,89
1073,7	17,976
1074,2	20,005
1074,6	14,319
1075	18,805
1075,4	19,976
1075,8	17,005
1076,2	15,976
1076,6	13,69
1077	11,862
1077,5	10,176
1077,9	9,776
1078,3	8,005
1078,7	7,576
1079,1	4,805
1079,5	0,462
1079,9	0,319
1080,3	1,805
1080,7	1,348
1081,2	4,29
1081,6	3,862
1082	6,348
1082,4	6,633
1082,8	7,348
1083,2	13,976
1083,6	8,919
1084	6,376
1084,5	7,605
1084,9	3,033
1085,3	5,062
1085,7	7,833
1086,1	3,548
1086,5	6,119
1086,9	7,948
1087,3	9,262
1087,7	8,548
1088,2	8,805
1088,6	10,433
1089	11,005
1089,4	12,89
1089,8	13,605
1090,2	9,719
1090,6	14,833
1091	12,833
1091,4	9,433
1091,9	11,89
1092,3	12,376
1092,7	10,005
1093,1	9,69
1093,5	5,805
1093,9	7,005
1094,3	7,319
1094,7	-1,681
1095,1	-3,081
1095,5	-4,681
1096	-2,081
1096,4	-0,795
1096,8	1,405
1097,2	2,776
1097,6	9,262
1098	11,376
1098,4	12,633
1098,8	13,148
1099,2	8,548
1099,6	5,576
1100,1	5,605
1100,5	4,89
1100,9	4,233
1101,3	3,919
1101,7	2,919
1102,1	9,862
1102,5	6,49
1102,9	0,748
1103,3	3,348
1103,7	1,633
1104,2	3,519
1104,6	5,919
1105	6,519
1105,4	10,462
1105,8	13,919
1106,2	10,062
1106,6	9,49
1107	7,29
1107,4	5,2
1107,8	1,513
1108,3	0,183
