Data from Subt2_00006.txt Node
Date: Mon Aug 28 13:05:31 MSK 2023
User: vat
Spectrometer: MAYP114033
Trigger mode: 0
Integration Time (sec): 1,000000E0
Scans to average: 5
Electric dark correction enabled: true
Nonlinearity correction enabled: false
Boxcar width: 3
XAxis mode: Wavelengths
Number of Pixels in Spectrum: 2068
>>>>>Begin Spectral Data<<<<<
199,4	-0,383
199,9	-0,493
200,4	1,867
200,8	3,152
201,3	4,438
201,8	5,895
202,2	6,924
202,7	7,095
203,2	9,324
203,6	8,467
204,1	7,895
204,6	9,581
205	9,781
205,5	11,524
206	11,867
206,4	10,438
206,9	8,867
207,4	10,924
207,8	7,238
208,3	5,81
208,8	3,981
209,2	6,81
209,7	7,152
210,2	4,152
210,6	1,781
211,1	1,924
211,5	7,267
212	9,638
212,5	8,924
212,9	12,895
213,4	19,638
213,9	19,867
214,3	15,61
214,8	10,295
215,3	7,038
215,7	3,01
216,2	0,724
216,7	-2,362
217,1	-1,533
217,6	1,581
218,1	2,895
218,5	3,867
219	4,267
219,5	4,552
219,9	6,667
220,4	6,41
220,9	9,867
221,3	8,181
221,8	10,295
222,3	15,038
222,7	13,781
223,2	14,238
223,6	17,095
224,1	18,695
224,6	18,752
225	15,41
225,5	12,81
226	13,752
226,4	15,324
226,9	10,381
227,4	8,181
227,8	13,524
228,3	14,638
228,8	15,781
229,2	20,238
229,7	17,324
230,2	15,695
230,6	14,667
231,1	12,324
231,5	14,724
232	12,552
232,5	9,295
232,9	8,01
233,4	10,752
233,9	15,067
234,3	11,924
234,8	11,724
235,3	9,295
235,7	5,181
236,2	2,524
236,7	1,667
237,1	3,924
237,6	3,81
238,1	1,581
238,5	7,724
239	6,952
239,4	10,352
239,9	11,467
240,4	5,61
240,8	8,095
241,3	12,124
241,8	10,924
242,2	12,352
242,7	15,552
243,2	18,21
243,6	21,952
244,1	14,581
244,6	11,981
245	11,381
245,5	14,524
245,9	8,838
246,4	7,61
246,9	6,267
247,3	14,41
247,8	15,638
248,3	13,838
248,7	15,438
249,2	15,667
249,7	13,21
250,1	11,095
250,6	9,267
251	4,752
251,5	11,152
252	5,324
252,4	8,467
252,9	7,638
253,4	9,952
253,8	12,695
254,3	16,095
254,8	14,467
255,2	13,638
255,7	14,181
256,1	19,152
256,6	19,724
257,1	19,924
257,5	18,438
258	13,524
258,5	13,467
258,9	12,552
259,4	9,867
259,9	4,838
260,3	2,438
260,8	3,295
261,2	6,638
261,7	10,495
262,2	8,838
262,6	8,524
263,1	12,981
263,6	11,067
264	9,524
264,5	6,61
264,9	6,352
265,4	7,61
265,9	7,152
266,3	8,867
266,8	8,781
267,3	11,01
267,7	13,752
268,2	13,724
268,7	14,124
269,1	16,152
269,6	12,038
270	15,81
270,5	17,267
271	18,352
271,4	18,924
271,9	19,067
272,4	17,81
272,8	19,181
273,3	18,952
273,7	13,467
274,2	8,095
274,7	1,381
275,1	1,41
275,6	3,038
276,1	3,381
276,5	1,324
277	5,295
277,4	10,238
277,9	17,238
278,4	14,352
278,8	12,21
279,3	9,952
279,8	5,01
280,2	3,324
280,7	-3,305
281,1	-4,305
281,6	-3,019
282,1	-2,305
282,5	2,438
283	5,695
283,4	7,552
283,9	12,895
284,4	13,495
284,8	14,181
285,3	14,295
285,8	9,81
286,2	7,381
286,7	6,524
287,1	6,152
287,6	4,638
288,1	9,238
288,5	8,038
289	10,21
289,5	16,581
289,9	19,61
290,4	19,038
290,8	19,724
291,3	16,467
291,8	19,638
292,2	19,581
292,7	16,61
293,1	11,781
293,6	10,952
294,1	11,781
294,5	7,895
295	4,724
295,5	3,552
295,9	3,295
296,4	8,181
296,8	6,181
297,3	2,581
297,8	1,095
298,2	2,01
298,7	4,41
299,1	6,81
299,6	4,152
300,1	6,324
300,5	7,552
301	12,124
301,5	8,838
301,9	5,781
302,4	0,267
302,8	1,067
303,3	0,981
303,8	1,438
304,2	0,238
304,7	2,781
305,1	6,21
305,6	15,438
306,1	12,895
306,5	18,495
307	21,524
307,4	23,438
307,9	26,495
308,4	24,81
308,8	19,924
309,3	23,324
309,8	20,867
310,2	19,867
310,7	20,638
311,1	19,895
311,6	21,267
312,1	20,038
312,5	17,552
313	13,381
313,4	16,295
313,9	13,781
314,4	16,181
314,8	15,638
315,3	17,181
315,7	17,952
316,2	21,01
316,7	16,067
317,1	16,552
317,6	10,524
318	10,667
318,5	11,724
319	12,581
319,4	14,981
319,9	13,067
320,3	15,895
320,8	20,781
321,3	17,438
321,7	17,152
322,2	16,924
322,6	11,667
323,1	13,324
323,6	14,638
324	12,838
324,5	12,467
324,9	12,61
325,4	13,81
325,9	15,495
326,3	16,752
326,8	13,467
327,2	12,638
327,7	13,695
328,2	8,638
328,6	6,352
329,1	6,724
329,5	3,924
330	1,981
330,5	4,981
330,9	8,21
331,4	11,467
331,8	12,752
332,3	11,524
332,8	14,552
333,2	18,581
333,7	15,552
334,1	16,581
334,6	16,267
335,1	15,581
335,5	16,181
336	12,924
336,4	14,81
336,9	13,81
337,4	9,267
337,8	10,552
338,3	7,924
338,7	9,524
339,2	16,524
339,7	14,781
340,1	12,067
340,6	10,495
341	7,067
341,5	11,581
342	10,838
342,4	9,324
342,9	7,01
343,3	8,152
343,8	10,01
344,2	14,838
344,7	17,238
345,2	16,752
345,6	15,524
346,1	16,552
346,5	18,381
347	21,638
347,5	21,867
347,9	16,038
348,4	13,581
348,8	10,838
349,3	14,752
349,8	20,781
350,2	17,181
350,7	16,981
351,1	20,724
351,6	28,467
352	36,524
352,5	38,41
353	39,952
353,4	51,267
353,9	58,924
354,3	69,638
354,8	81,81
355,3	92,867
355,7	107,295
356,2	123,552
356,6	142,467
357,1	163,467
357,5	187,324
358	210,924
358,5	247,181
358,9	286,524
359,4	331,838
359,8	379,838
360,3	439,952
360,8	503,41
361,2	581,838
361,7	658,038
362,1	737,381
362,6	829,467
363	929,095
363,5	1037,495
364	1151,838
364,4	1267,981
364,9	1383,495
365,3	1504,952
365,8	1617,095
366,3	1723,752
366,7	1817,667
367,2	1896,01
367,6	1958,038
368,1	2013,495
368,5	2048,867
369	2066,81
369,5	2064,21
369,9	2045,895
370,4	2019,638
370,8	1975,438
371,3	1909,41
371,7	1841,524
372,2	1769,81
372,7	1684,752
373,1	1600,867
373,6	1503,095
374	1406,667
374,5	1316,81
374,9	1225,552
375,4	1126,295
375,9	1042,581
376,3	956,781
376,8	883,152
377,2	813,752
377,7	749,867
378,2	687,495
378,6	635,981
379,1	584,381
379,5	533,238
380	489,152
380,4	452,952
380,9	417,067
381,4	384,838
381,8	359,781
382,3	334,495
382,7	313,638
383,2	289,952
383,6	270,238
384,1	248,181
384,6	229,667
385	210,952
385,5	196,438
385,9	185,295
386,4	176,41
386,8	162,552
387,3	154,552
387,7	144,095
388,2	132,095
388,7	120,838
389,1	106,752
389,6	103,267
390	99,438
390,5	93,381
390,9	87,152
391,4	80,781
391,9	81,352
392,3	85,667
392,8	81,267
393,2	77,038
393,7	71,895
394,1	73,067
394,6	73,524
395,1	71,01
395,5	65,667
396	63,038
396,4	60,695
396,9	62,21
397,3	61,638
397,8	55,61
398,2	52,21
398,7	51,067
399,2	49,524
399,6	48,295
400,1	49,181
400,5	52,581
401	61,295
401,4	63,981
401,9	63,352
402,4	62,581
402,8	61,752
403,3	60,924
403,7	55,095
404,2	55,467
404,6	55,838
405,1	57,124
405,5	59,838
406	59,924
406,5	61,438
406,9	61,895
407,4	62,838
407,8	67,895
408,3	72,581
408,7	74,495
409,2	81,895
409,6	88,552
410,1	92,895
410,6	100,295
411	104,124
411,5	110,381
411,9	121,695
412,4	130,867
412,8	135,095
413,3	150,781
413,7	163,838
414,2	174,438
414,7	185,352
415,1	197,724
415,6	206,295
416	224,467
416,5	236,21
416,9	243,581
417,4	259,952
417,8	274,61
418,3	287,238
418,8	308,81
419,2	323,752
419,7	344,838
420,1	363,124
420,6	381,61
421	407,038
421,5	435,124
421,9	461,381
422,4	489,581
422,8	513,438
423,3	542,381
423,8	572,695
424,2	600,267
424,7	626,752
425,1	653,581
425,6	689,438
426	719,981
426,5	758,524
426,9	797,867
427,4	834,552
427,9	877,638
428,3	924,124
428,8	966,095
429,2	1021,924
429,7	1077,838
430,1	1134,267
430,6	1198,495
431	1260,352
431,5	1325,924
431,9	1395,238
432,4	1461,152
432,8	1530,724
433,3	1612,924
433,8	1695,61
434,2	1780,667
434,7	1872,095
435,1	1968,01
435,6	2071,181
436	2180,981
436,5	2284,01
436,9	2398,724
437,4	2515,41
437,8	2629,438
438,3	2759,61
438,8	2891,381
439,2	3027,438
439,7	3170,267
440,1	3313,381
440,6	3470,038
441	3629,781
441,5	3788,21
441,9	3958,924
442,4	4133,41
442,8	4317,067
443,3	4503,467
443,7	4693,981
444,2	4895,781
444,7	5100,295
445,1	5309,781
445,6	5526,495
446	5740,895
446,5	5971,41
446,9	6207,924
447,4	6453,381
447,8	6700,752
448,3	6953,067
448,7	7207,781
449,2	7471,867
449,6	7741,895
450,1	8019,467
450,6	8294,267
451	8577,924
451,5	8869,152
451,9	9167,238
452,4	9470,467
452,8	9782,752
453,3	10073,181
453,7	10392,152
454,2	10720,638
454,6	11043,467
455,1	11379,724
455,5	11710,41
456	12037,21
456,4	12389,381
456,9	12730,295
457,3	13095,924
457,8	13462,952
458,3	13822,781
458,7	14190,781
459,2	14563,838
459,6	14938,524
460,1	15315,181
460,5	15674,667
461	16044,752
461,4	16409,895
461,9	16786,552
462,3	17155,01
462,8	17533,895
463,2	17921,124
463,7	18289,524
464,1	18652,267
464,6	19029,21
465	19404,61
465,5	19793,867
466	20168,581
466,4	20532,381
466,9	20903,895
467,3	21265,781
467,8	21642,981
468,2	22012,067
468,7	22369,581
469,1	22731,781
469,6	23094,01
470	23446,181
470,5	23808,552
470,9	24152,295
471,4	24489,41
471,8	24813,924
472,3	25143,095
472,7	25441,095
473,2	25754,724
473,6	26072,124
474,1	26364,267
474,5	26667,781
475	26961,495
475,4	27249,867
475,9	27557,581
476,4	27835,867
476,8	28093,667
477,3	28353,781
477,7	28612,781
478,2	28865,41
478,6	29087,467
479,1	29297,238
479,5	29520,181
480	29721,381
480,4	29926,295
480,9	30099,981
481,3	30275,981
481,8	30450,152
482,2	30610,238
482,7	30757,067
483,1	30918,381
483,6	31048,352
484	31168,781
484,5	31274,381
484,9	31372,638
485,4	31469,638
485,8	31564,61
486,3	31629,552
486,7	31686,952
487,2	31746,838
487,6	31799,21
488,1	31845,038
488,5	31855,952
489	31861,152
489,4	31870,467
489,9	31874,41
490,4	31871,981
490,8	31869,467
491,3	31843,352
491,7	31833,267
492,2	31804,695
492,6	31754,038
493,1	31696,952
493,5	31625,038
494	31543,324
494,4	31466,038
494,9	31367,41
495,3	31273,438
495,8	31184,867
496,2	31095,238
496,7	30987,524
497,1	30875,81
497,6	30760,352
498	30653,467
498,5	30509,867
498,9	30368,638
499,4	30229,867
499,8	30090,21
500,3	29950,924
500,7	29806,752
501,2	29643,838
501,6	29499,724
502,1	29341,124
502,5	29180,152
503	29027,438
503,4	28856,638
503,9	28683,924
504,3	28519,41
504,8	28340,81
505,2	28172,867
505,7	27978,81
506,1	27779,552
506,6	27564,238
507	27350,352
507,5	27147,695
507,9	26940,724
508,4	26723,41
508,8	26513,495
509,3	26298,81
509,7	26100,981
510,2	25905,41
510,6	25699,352
511,1	25500,724
511,5	25274,867
512	25057,695
512,4	24834,038
512,9	24599,067
513,3	24367,038
513,8	24131,267
514,2	23889,495
514,7	23664,124
515,1	23439,667
515,6	23231,01
516	23021,838
516,5	22787,667
516,9	22561,467
517,4	22336,838
517,8	22110,552
518,3	21880,552
518,7	21629,667
519,2	21400,324
519,6	21176,381
520,1	20961,581
520,5	20736,552
521	20515,581
521,4	20297,124
521,9	20087,324
522,3	19868,61
522,8	19649,41
523,2	19417,295
523,7	19209,41
524,1	18996,981
524,6	18788,61
525	18576,467
525,5	18362,981
525,9	18168,01
526,4	17970,067
526,8	17763,267
527,3	17567,81
527,7	17374,295
528,2	17178,438
528,6	16994,152
529,1	16798,124
529,5	16607,181
530	16421,295
530,4	16234,21
530,9	16033,124
531,3	15860,238
531,8	15674,552
532,2	15484,467
532,6	15312,295
533,1	15132,81
533,5	14964,095
534	14791,638
534,4	14612,152
534,9	14442,238
535,3	14289,438
535,8	14123,752
536,2	13966,152
536,7	13806,638
537,1	13660,324
537,6	13516,095
538	13368,638
538,5	13220,667
538,9	13060,01
539,4	12909,095
539,8	12764,924
540,3	12625,724
540,7	12476,895
541,2	12327,581
541,6	12191,01
542,1	12060,724
542,5	11934,667
543	11804,124
543,4	11659,21
543,9	11538,324
544,3	11419,238
544,8	11288,324
545,2	11166,524
545,7	11035,724
546,1	10919,038
546,5	10807,41
547	10683,638
547,4	10568,61
547,9	10457,181
548,3	10354,752
548,8	10245,495
549,2	10125,838
549,7	10018,61
550,1	9910,038
550,6	9807,01
551	9699,581
551,5	9583,438
551,9	9482,752
552,4	9390,867
552,8	9299,324
553,3	9211,61
553,7	9112,352
554,2	9026,295
554,6	8944,667
555,1	8851,838
555,5	8765,238
555,9	8687,067
556,4	8602,181
556,8	8522,552
557,3	8433,181
557,7	8350,21
558,2	8271,752
558,6	8184,381
559,1	8092,524
559,5	8007,638
560	7935,724
560,4	7853,981
560,9	7788,152
561,3	7716,324
561,8	7641,695
562,2	7566,095
562,7	7491,638
563,1	7411,724
563,6	7355,21
564	7274,095
564,4	7206,438
564,9	7141,895
565,3	7076,067
565,8	7015,61
566,2	6945,695
566,7	6877,581
567,1	6815,552
567,6	6752,295
568	6697,181
568,5	6639,438
568,9	6585,581
569,4	6531,81
569,8	6473,438
570,3	6424,267
570,7	6366,124
571,1	6304,695
571,6	6253,438
572	6196,124
572,5	6143,581
572,9	6095,124
573,4	6037,981
573,8	5995,838
574,3	5946,181
574,7	5893,981
575,2	5843,095
575,6	5797,495
576,1	5743,752
576,5	5697,81
576,9	5636,381
577,4	5587,438
577,8	5536,781
578,3	5488,467
578,7	5436,981
579,2	5385,695
579,6	5333,895
580,1	5292,981
580,5	5246,238
581	5205,438
581,4	5158,467
581,9	5119,467
582,3	5079,752
582,7	5033,895
583,2	4988,524
583,6	4944,61
584,1	4901,981
584,5	4858,124
585	4817,81
585,4	4776,524
585,9	4744,181
586,3	4707,867
586,8	4665,467
587,2	4627,81
587,6	4590,21
588,1	4555,752
588,5	4516,552
589	4472,61
589,4	4432,324
589,9	4405,352
590,3	4373,438
590,8	4347,181
591,2	4313,324
591,7	4283,295
592,1	4259,352
592,5	4229,21
593	4196,524
593,4	4158,981
593,9	4118,895
594,3	4084,581
594,8	4054,324
595,2	4020,238
595,7	3987,524
596,1	3964,095
596,6	3937,467
597	3913,152
597,4	3885,867
597,9	3859,438
598,3	3837,981
598,8	3822,467
599,2	3790,638
599,7	3768,981
600,1	3745,552
600,6	3721,952
601	3699,724
601,4	3667,895
601,9	3640,895
602,3	3621,438
602,8	3593,01
603,2	3567,381
603,7	3539,981
604,1	3514,21
604,6	3487,524
605	3463,895
605,4	3435,581
605,9	3411,038
606,3	3390,152
606,8	3364,781
607,2	3341,524
607,7	3322,295
608,1	3294,667
608,6	3269,238
609	3251,41
609,4	3227,61
609,9	3209,352
610,3	3189,838
610,8	3172,781
611,2	3155,295
611,7	3137,381
612,1	3108,552
612,6	3089,038
613	3064,238
613,4	3037,352
613,9	3013,41
614,3	2990,724
614,8	2966,695
615,2	2949,695
615,7	2928,752
616,1	2909,381
616,6	2892,124
617	2870,495
617,4	2849,981
617,9	2828,067
618,3	2807,81
618,8	2785,781
619,2	2765,352
619,7	2744,552
620,1	2728,524
620,5	2708,41
621	2691,01
621,4	2677,124
621,9	2653,095
622,3	2636,152
622,8	2618,895
623,2	2594,552
623,6	2579,467
624,1	2563,81
624,5	2539,038
625	2522,981
625,4	2502,981
625,9	2482,61
626,3	2469,038
626,8	2454,981
627,2	2428,295
627,6	2411,695
628,1	2395,467
628,5	2379,638
629	2363,495
629,4	2338,152
629,9	2312,01
630,3	2298,067
630,7	2280,924
631,2	2265,01
631,6	2244,552
632,1	2225,095
632,5	2215,181
633	2206,867
633,4	2197,695
633,8	2181,438
634,3	2163,781
634,7	2150,21
635,2	2137,01
635,6	2116,867
636,1	2092,152
636,5	2072,61
636,9	2059,867
637,4	2046,238
637,8	2034,667
638,3	2024,695
638,7	2012,467
639,2	1999,952
639,6	1988,038
640	1977,61
640,5	1964,267
640,9	1951,467
641,4	1938,038
641,8	1921,724
642,2	1914,467
642,7	1897,124
643,1	1883,381
643,6	1870,438
644	1855,667
644,5	1844,581
644,9	1834,752
645,3	1820,552
645,8	1807,867
646,2	1793,524
646,7	1776,152
647,1	1760,724
647,6	1745,752
648	1736,495
648,4	1726,238
648,9	1720,01
649,3	1702,467
649,8	1701,124
650,2	1692,61
650,6	1681,467
651,1	1668,095
651,5	1653,981
652	1645,438
652,4	1635,924
652,9	1620,924
653,3	1607,238
653,7	1594,238
654,2	1586,21
654,6	1578,21
655,1	1564,952
655,5	1551,924
655,9	1538,238
656,4	1530,495
656,8	1519,895
657,3	1510,724
657,7	1496,838
658,2	1483,695
658,6	1479,867
659	1473,781
659,5	1464,01
659,9	1458,667
660,4	1446,467
660,8	1436,552
661,2	1426,981
661,7	1416,381
662,1	1408,838
662,6	1398,895
663	1382,867
663,4	1376,095
663,9	1364,781
664,3	1351,295
664,8	1335,21
665,2	1323,867
665,6	1317,21
666,1	1305,924
666,5	1289,467
667	1282,61
667,4	1283,295
667,9	1279,981
668,3	1270,21
668,7	1254,781
669,2	1247,41
669,6	1240,724
670,1	1232,924
670,5	1219,438
670,9	1205,724
671,4	1192,381
671,8	1184,41
672,3	1179,524
672,7	1172,724
673,1	1160,724
673,6	1155,238
674	1146,524
674,5	1142,267
674,9	1133,124
675,3	1119,952
675,8	1109,295
676,2	1098,724
676,7	1085,181
677,1	1077,495
677,5	1069,895
678	1067,381
678,4	1063,124
678,9	1056,81
679,3	1048,695
679,7	1040,038
680,2	1037,095
680,6	1025,724
681,1	1015,81
681,5	1011,095
681,9	1002,952
682,4	998,238
682,8	993,01
683,3	986,895
683,7	980,01
684,1	971,838
684,6	962,352
685	951,41
685,5	940,181
685,9	926,581
686,3	921,467
686,8	909,981
687,2	903,381
687,7	896,724
688,1	893,552
688,5	889,381
689	890,21
689,4	873,695
689,9	873,495
690,3	864,495
690,7	860,724
691,2	854,267
691,6	850,152
692	841,324
692,5	833,638
692,9	830,21
693,4	824,238
693,8	815,867
694,2	810,581
694,7	802,21
695,1	801,895
695,6	805,238
696	800,781
696,4	797,695
696,9	788,352
697,3	783,752
697,8	782,667
698,2	769,867
698,6	760,41
699,1	750,895
699,5	742,467
699,9	741,781
700,4	733,952
700,8	726,981
701,3	726,238
701,7	718,695
702,1	713,581
702,6	709,267
703	702,667
703,5	701,352
703,9	696,295
704,3	688,781
704,8	685,324
705,2	680,181
705,6	672,21
706,1	659,381
706,5	654,152
707	651,752
707,4	650,038
707,8	651,124
708,3	646,752
708,7	646,552
709,2	648,952
709,6	643,581
710	633,067
710,5	629,181
710,9	622,295
711,3	618,381
711,8	612,152
712,2	608,952
712,7	603,524
713,1	601,238
713,5	595,552
714	591,781
714,4	584,524
714,8	584,952
715,3	578,295
715,7	572,095
716,2	571,01
716,6	564,581
717	557,095
717,5	553,152
717,9	544,124
718,3	541,238
718,8	540,924
719,2	534,752
719,7	528,01
720,1	525,238
720,5	522,238
721	520,495
721,4	513,895
721,8	503,324
722,3	503,695
722,7	499,895
723,2	494,067
723,6	493,095
724	488,724
724,5	488,067
724,9	488,067
725,3	473,495
725,8	473,752
726,2	473,524
726,7	462,038
727,1	456,838
727,5	452,324
728	441,21
728,4	444,238
728,8	440,095
729,3	437,61
729,7	436,524
730,1	434,181
730,6	431,524
731	432,495
731,5	430,295
731,9	427,038
732,3	424,952
732,8	425,152
733,2	424,21
733,6	423,352
734,1	425,038
734,5	422,667
734,9	417,01
735,4	412,752
735,8	408,381
736,3	396,381
736,7	392,81
737,1	387,238
737,6	383,267
738	382,324
738,4	383,038
738,9	381,467
739,3	391,267
739,7	386,324
740,2	384,352
740,6	382,038
741,1	379,267
741,5	371,324
741,9	370,267
742,4	371,638
742,8	368,61
743,2	368,038
743,7	365,381
744,1	364,952
744,5	363,324
745	360,81
745,4	355,067
745,8	352,467
746,3	350,952
746,7	345,867
747,2	341,61
747,6	339,981
748	336,952
748,5	330,295
748,9	327,581
749,3	323,924
749,8	325,952
750,2	322,752
750,6	315,181
751,1	314,981
751,5	314,01
751,9	315,695
752,4	319,095
752,8	316,01
753,3	316,81
753,7	323,495
754,1	319,152
754,6	312,267
755	309,952
755,4	308,352
755,9	308,21
756,3	306,095
756,7	300,81
757,2	299,038
757,6	297,61
758	291,752
758,5	282,695
758,9	279,667
759,3	277,867
759,8	273,638
760,2	271,01
760,6	278,01
761,1	276,352
761,5	278,524
761,9	277,781
762,4	275,267
762,8	276,924
763,3	275,838
763,7	266,781
764,1	269,495
764,6	264,638
765	258,724
765,4	262,238
765,9	260,724
766,3	261,181
766,7	261,667
767,2	257,61
767,6	260,552
768	260,467
768,5	254,438
768,9	254,152
769,3	250,781
769,8	246,752
770,2	242,724
770,6	237,067
771,1	234,038
771,5	232,81
771,9	226,21
772,4	225,01
772,8	224,895
773,2	229,095
773,7	228,924
774,1	232,638
774,5	227,895
775	231,238
775,4	230,095
775,8	227,952
776,3	221,924
776,7	222,438
777,1	217,152
777,6	216,581
778	216,067
778,4	215,324
778,9	215,238
779,3	216,495
779,7	213,695
780,2	211,495
780,6	215,41
781	208,81
781,5	205,524
781,9	205,724
782,3	200,781
782,8	201,895
783,2	198,21
783,6	193,895
784,1	192,752
784,5	190,467
784,9	186,238
785,4	190,352
785,8	185,552
786,2	186,61
786,7	188,638
787,1	191,895
787,5	191,552
788	186,952
788,4	183,81
788,8	182,838
789,3	181,952
789,7	180,41
790,1	179,524
790,6	178,152
791	182,581
791,4	180,124
791,9	175,21
792,3	176,61
792,7	175,381
793,2	173,695
793,6	175,61
794	175,495
794,5	175,467
794,9	177,152
795,3	174,781
795,8	172,867
796,2	166,21
796,6	164,638
797,1	163,524
797,5	164,467
797,9	165,152
798,4	161,21
798,8	157,981
799,2	159,038
799,7	159,152
800,1	158,924
800,5	158,81
801	158,81
801,4	162,352
801,8	163,581
802,2	162,781
802,7	161,124
803,1	156,61
803,5	153,238
804	150,924
804,4	149,981
804,8	149,495
805,3	145,067
805,7	144,895
806,1	142,895
806,6	144,324
807	144,038
807,4	139,095
807,9	134,067
808,3	140,695
808,7	138,867
809,2	139,095
809,6	137,895
810	132,781
810,4	132,724
810,9	133,352
811,3	131,981
811,7	125,495
812,2	122,552
812,6	119,667
813	125,124
813,5	127,981
813,9	127,067
814,3	120,724
814,8	120,581
815,2	128,295
815,6	125,781
816,1	123,067
816,5	120,095
816,9	125,667
817,3	128,238
817,8	135,152
818,2	126,667
818,6	126,695
819,1	125,752
819,5	128,295
819,9	122,01
820,4	126,81
820,8	120,781
821,2	119,467
821,7	120,152
822,1	115,438
822,5	111,181
822,9	109,524
823,4	103,581
823,8	103,524
824,2	102,095
824,7	98,61
825,1	98,295
825,5	97,495
826	91,438
826,4	91,438
826,8	86,838
827,3	85,495
827,7	86,695
828,1	87,752
828,5	92,181
829	99,095
829,4	93,124
829,8	96,638
830,3	98,924
830,7	95,952
831,1	95,21
831,6	88,467
832	85,467
832,4	87,095
832,8	82,667
833,3	80,638
833,7	78,61
834,1	80,21
834,6	80,238
835	80,895
835,4	76,667
835,8	79,61
836,3	78,238
836,7	78,667
837,1	74,152
837,6	69,752
838	65,295
838,4	65,981
838,9	67,981
839,3	71,324
839,7	72,467
840,1	77,41
840,6	80,21
841	76,838
841,4	77,695
841,9	72,381
842,3	69,667
842,7	67,352
843,1	61,61
843,6	57,838
844	63,467
844,4	66,267
844,9	67,01
845,3	68,524
845,7	67,838
846,2	68,724
846,6	70,695
847	71,438
847,4	70,981
847,9	73,238
848,3	66,724
848,7	69,438
849,2	69,295
849,6	71,838
850	69,124
850,4	63,638
850,9	57,781
851,3	66,981
851,7	65,41
852,2	60,01
852,6	60,524
853	66,038
853,4	69,01
853,9	72,495
854,3	68,467
854,7	68,467
855,2	74,467
855,6	73,324
856	71,324
856,4	67,581
856,9	65,238
857,3	61,867
857,7	62,181
858,2	57,01
858,6	50,438
859	46,295
859,4	47,724
859,9	46,952
860,3	47,552
860,7	46,495
861,1	51,838
861,6	58,067
862	57,695
862,4	59,438
862,9	61,924
863,3	59,981
863,7	60,952
864,1	58,381
864,6	58,181
865	59,21
865,4	57,752
865,9	54,952
866,3	60,124
866,7	54,895
867,1	48,61
867,6	50,01
868	41,781
868,4	41,61
868,8	43,495
869,3	43,952
869,7	51,21
870,1	55,895
870,6	51,238
871	98,781
871,4	97,724
871,8	96,267
872,3	90,21
872,7	79,01
873,1	73,695
873,5	74,295
874	36,667
874,4	39,295
874,8	37,41
875,3	40,067
875,7	42,61
876,1	51,524
876,5	52,238
877	44,838
877,4	40,438
877,8	44,41
878,2	46,61
878,7	50,01
879,1	46,61
879,5	43,21
879,9	45,324
880,4	47,61
880,8	44,695
881,2	39,781
881,7	40,495
882,1	36,238
882,5	42,695
882,9	43,524
883,4	44,324
883,8	42,238
884,2	43,152
884,6	38,695
885,1	42,381
885,5	36,952
885,9	35,667
886,3	33,324
886,8	38,524
887,2	37,581
887,6	37,324
888	37,867
888,5	34,781
888,9	29,267
889,3	28,381
889,8	23,01
890,2	20,81
890,6	24,867
891	25,181
891,5	28,81
891,9	31,838
892,3	32,267
892,7	32,095
893,2	35,324
893,6	31,124
894	28,152
894,4	23,61
894,9	27,181
895,3	24,667
895,7	24,495
896,1	20,267
896,6	22,81
897	28,01
897,4	28,924
897,8	29,81
898,3	37,438
898,7	39,038
899,1	40,61
899,5	41,495
900	37,152
900,4	36,867
900,8	28,181
901,2	23,381
901,7	24,467
902,1	22,124
902,5	21,21
902,9	18,095
903,4	23,21
903,8	29,467
904,2	30,581
904,6	29,638
905,1	34,581
905,5	36,295
905,9	38,638
906,3	36,21
906,8	33,067
907,2	25,495
907,6	25,467
908	24,095
908,5	12,552
908,9	9,952
909,3	9,61
909,7	14,067
910,2	17,695
910,6	17,781
911	15,781
911,4	22,867
911,9	24,981
912,3	25,038
912,7	26,095
913,1	25,695
913,6	23,41
914	28,152
914,4	30,41
914,8	32,867
915,3	33,924
915,7	32,895
916,1	35,952
916,5	35,867
916,9	29,21
917,4	27,381
917,8	23,981
918,2	27,752
918,6	20,41
919,1	19,181
919,5	21,238
919,9	27,41
920,3	27,752
920,8	28,524
921,2	21,495
921,6	27,581
922	24,238
922,5	21,524
922,9	19,695
923,3	20,781
923,7	21,095
924,2	21,981
924,6	18,152
925	20,01
925,4	18,752
925,8	15,152
926,3	12,295
926,7	11,352
927,1	12,781
927,5	18,124
928	20,638
928,4	21,152
928,8	23,981
929,2	22,838
929,7	23,838
930,1	23,038
930,5	19,038
930,9	18,095
931,3	20,238
931,8	18,695
932,2	17,581
932,6	12,181
933	6,724
933,5	5,981
933,9	4,867
934,3	3,124
934,7	5,41
935,2	3,81
935,6	4,781
936	3,21
936,4	6,495
936,8	9,124
937,3	12,381
937,7	11,038
938,1	17,21
938,5	16,267
939	19,381
939,4	15,952
939,8	12,267
940,2	7,981
940,6	8,781
941,1	7,095
941,5	11,724
941,9	15,438
942,3	14,067
942,8	16,438
943,2	14,581
943,6	13,01
944	13,438
944,4	10,41
944,9	5,552
945,3	7,552
945,7	8,467
946,1	11,381
946,6	10,667
947	9,724
947,4	7,981
947,8	11,495
948,2	15,752
948,7	13,267
949,1	14,152
949,5	16,01
949,9	17,095
950,3	18,152
950,8	19,124
951,2	16,21
951,6	18,867
952	19,552
952,5	17,495
952,9	15,438
953,3	17,638
953,7	13,238
954,1	13,381
954,6	10,638
955	12,067
955,4	10,724
955,8	15,638
956,2	13,267
956,7	14,352
957,1	16,895
957,5	18,152
957,9	12,381
958,3	13,781
958,8	10,438
959,2	12,438
959,6	16,895
960	11,781
960,5	5,981
960,9	11,381
961,3	11,981
961,7	13,924
962,1	17,352
962,6	12,867
963	15,924
963,4	23,238
963,8	19,181
964,2	21,438
964,7	17,095
965,1	17,724
965,5	20,152
965,9	17,695
966,3	14,524
966,8	13,724
967,2	12,095
967,6	18,067
968	13,067
968,4	14,867
968,9	14,638
969,3	15,238
969,7	11,981
970,1	11,238
970,5	6,524
971	8,667
971,4	3,81
971,8	5,667
972,2	7,095
972,6	15,381
973,1	11,924
973,5	13,495
973,9	8,667
974,3	13,724
974,7	11,181
975,2	7,838
975,6	1,267
976	6,152
976,4	0,295
976,8	4,924
977,3	1,781
977,7	-1,476
978,1	1,81
978,5	6,01
978,9	7,552
979,4	12,124
979,8	11,038
980,2	10,952
980,6	13,752
981	8,781
981,5	6,295
981,9	3,752
982,3	2,924
982,7	3,981
983,1	1,638
983,6	3,01
984	7,752
984,4	7,295
984,8	2,324
985,2	5,724
985,6	2,295
986,1	-0,362
986,5	-0,19
986,9	-3,305
987,3	-3,848
987,7	0,724
988,2	-1,819
988,6	0,381
989	8,724
989,4	5,267
989,8	8,238
990,3	12,295
990,7	11,41
991,1	7,095
991,5	8,267
991,9	-0,305
992,3	0,552
992,8	-2,105
993,2	-4,133
993,6	-3,676
994	2,41
994,4	3,181
994,9	8,638
995,3	10,924
995,7	10,41
996,1	13,181
996,5	9,381
996,9	16,895
997,4	14,867
997,8	13,01
998,2	14,181
998,6	14,381
999	12,81
999,5	17,21
999,9	8,867
1000,3	6,152
1000,7	11,695
1001,1	9,724
1001,5	12,324
1002	13,552
1002,4	10,124
1002,8	12,81
1003,2	14,21
1003,6	10,181
1004	11,381
1004,5	7,495
1004,9	3,467
1005,3	3,838
1005,7	1,81
1006,1	3,095
1006,6	3,352
1007	1,638
1007,4	3,41
1007,8	8,467
1008,2	9,552
1008,6	7,238
1009,1	8,581
1009,5	8,067
1009,9	12,695
1010,3	15,81
1010,7	14,581
1011,1	17,152
1011,6	16,695
1012	12,638
1012,4	11,524
1012,8	4,295
1013,2	0,467
1013,6	-1,419
1014,1	-7,505
1014,5	-6,79
1014,9	-3,019
1015,3	-2,333
1015,7	-0,848
1016,1	1,324
1016,6	3,552
1017	8,438
1017,4	8,038
1017,8	6,752
1018,2	4,267
1018,6	3,724
1019,1	2,867
1019,5	1,924
1019,9	3,495
1020,3	4,581
1020,7	3,867
1021,1	5,352
1021,6	9,838
1022	10,895
1022,4	6,467
1022,8	4,438
1023,2	4,067
1023,6	5,552
1024,1	12,495
1024,5	10,724
1024,9	12,981
1025,3	19,867
1025,7	16,41
1026,1	14,867
1026,6	17,181
1027	11,01
1027,4	12,324
1027,8	7,01
1028,2	2,181
1028,6	5,324
1029	3,381
1029,5	0,895
1029,9	7,495
1030,3	8,41
1030,7	13,41
1031,1	17,552
1031,5	17,267
1032	23,124
1032,4	26,21
1032,8	17,838
1033,2	14,267
1033,6	10,867
1034	6,095
1034,4	2,952
1034,9	3,152
1035,3	2,352
1035,7	3,667
1036,1	9,667
1036,5	10,267
1036,9	13,781
1037,4	12,095
1037,8	9,638
1038,2	11,324
1038,6	12,21
1039	8,067
1039,4	17,124
1039,8	20,524
1040,3	26,895
1040,7	26,01
1041,1	16,552
1041,5	17,524
1041,9	21,952
1042,3	12,095
1042,7	6,295
1043,2	6,638
1043,6	8,952
1044	17,238
1044,4	17,181
1044,8	12,61
1045,2	14,267
1045,6	18,124
1046,1	20,067
1046,5	19,067
1046,9	19,152
1047,3	18,21
1047,7	17,41
1048,1	12,638
1048,5	11,524
1049	6,981
1049,4	3,21
1049,8	1,752
1050,2	-0,333
1050,6	-2,848
1051	1,581
1051,4	-3,019
1051,9	1,695
1052,3	3,838
1052,7	5,124
1053,1	5,524
1053,5	5,952
1053,9	6,267
1054,3	5,21
1054,8	0,41
1055,2	0,724
1055,6	-0,762
1056	3,152
1056,4	4,352
1056,8	5,924
1057,2	4,981
1057,6	9,581
1058,1	13,781
1058,5	8,21
1058,9	6,095
1059,3	7,41
1059,7	6,21
1060,1	10,952
1060,5	7,81
1061	1,267
1061,4	6,038
1061,8	6,152
1062,2	7,095
1062,6	7,924
1063	11,752
1063,4	8,952
1063,8	12,352
1064,3	18,81
1064,7	18,352
1065,1	19,838
1065,5	14,724
1065,9	9,867
1066,3	12,152
1066,7	16,952
1067,1	9,752
1067,6	13,381
1068	16,838
1068,4	21,867
1068,8	23,724
1069,2	27,124
1069,6	21,124
1070	26,295
1070,4	22,038
1070,9	18,61
1071,3	20,724
1071,7	17,038
1072,1	14,181
1072,5	17,981
1072,9	14,01
1073,3	16,838
1073,7	12,124
1074,2	12,324
1074,6	16,352
1075	20,952
1075,4	21,124
1075,8	16,752
1076,2	16,067
1076,6	16,038
1077	15,067
1077,5	14,981
1077,9	5,124
1078,3	0,667
1078,7	4,495
1079,1	4,438
1079,5	6,695
1079,9	8,724
1080,3	6,867
1080,7	13,524
1081,2	16,095
1081,6	17,352
1082	17,267
1082,4	17,552
1082,8	14,867
1083,2	9,981
1083,6	6,924
1084	5,181
1084,5	0,981
1084,9	1,695
1085,3	1,524
1085,7	-1,962
1086,1	8,952
1086,5	7,524
1086,9	8,038
1087,3	10,467
1087,7	14,752
1088,2	17,724
1088,6	20,238
1089	14,781
1089,4	18,838
1089,8	16,352
1090,2	12,124
1090,6	6,41
1091	3,552
1091,4	3,867
1091,9	3,838
1092,3	5,01
1092,7	3,324
1093,1	8,695
1093,5	4,467
1093,9	2,267
1094,3	2,381
1094,7	2,552
1095,1	1,352
1095,5	6,267
1096	8,124
1096,4	13,781
1096,8	18,581
1097,2	14,352
1097,6	17,752
1098	14,695
1098,4	14,324
1098,8	14,01
1099,2	15,267
1099,6	14,295
1100,1	14,924
1100,5	10,61
1100,9	9,495
1101,3	10,438
1101,7	8,638
1102,1	8,181
1102,5	4,124
1102,9	3,981
1103,3	6,467
1103,7	7,981
1104,2	6,067
1104,6	5,924
1105	1,267
1105,4	2,781
1105,8	3,495
1106,2	0,695
1106,6	0,952
1107	0,238
1107,4	-1,467
1107,8	0,387
1108,3	0,517
