Data from Subt2_00048.txt Node
Date: Mon Aug 28 13:19:41 MSK 2023
User: vat
Spectrometer: MAYP114033
Trigger mode: 0
Integration Time (sec): 1,000000E0
Scans to average: 5
Electric dark correction enabled: true
Nonlinearity correction enabled: false
Boxcar width: 3
XAxis mode: Wavelengths
Number of Pixels in Spectrum: 2068
>>>>>Begin Spectral Data<<<<<
199,4	0,033
199,9	3,413
200,4	1,933
200,8	4,276
201,3	6,419
201,8	9,562
202,2	10,333
202,7	12,39
203,2	13,448
203,6	16,962
204,1	21,019
204,6	24,048
205	24,476
205,5	27,819
206	28,619
206,4	28,905
206,9	29,019
207,4	26,305
207,8	24,133
208,3	25,848
208,8	26,476
209,2	29,876
209,7	27,076
210,2	23,248
210,6	22,762
211,1	20,619
211,5	19,848
212	19,419
212,5	17,419
212,9	18,819
213,4	22,962
213,9	21,419
214,3	21,248
214,8	21,248
215,3	18,105
215,7	18,019
216,2	21,276
216,7	22,019
217,1	24,99
217,6	25,276
218,1	24,362
218,5	27,219
219	28,019
219,5	27,248
219,9	29,248
220,4	29,59
220,9	30,476
221,3	26,419
221,8	27,248
222,3	31,076
222,7	30,676
223,2	30,019
223,6	28,648
224,1	33,962
224,6	38,39
225	37,819
225,5	34,19
226	34,762
226,4	34,876
226,9	33,648
227,4	29,705
227,8	30,505
228,3	30,876
228,8	30,705
229,2	31,105
229,7	29,105
230,2	28,219
230,6	27,105
231,1	24,99
231,5	26,733
232	29,162
232,5	28,276
232,9	24,962
233,4	29,333
233,9	32,505
234,3	32,362
234,8	30,533
235,3	24,59
235,7	22,705
236,2	23,162
236,7	16,19
237,1	21,333
237,6	24,99
238,1	22,019
238,5	25,933
239	30,133
239,4	33,419
239,9	41,19
240,4	33,562
240,8	33,905
241,3	40,962
241,8	42,019
242,2	38,79
242,7	40,848
243,2	38,133
243,6	43,019
244,1	35,19
244,6	31,248
245	28,448
245,5	30,962
245,9	21,905
246,4	22,676
246,9	19,562
247,3	24,962
247,8	22,076
248,3	25,248
248,7	26,733
249,2	30,619
249,7	31,619
250,1	31,133
250,6	32,619
251	31,39
251,5	30,162
252	21,99
252,4	27,162
252,9	23,762
253,4	25,362
253,8	23,39
254,3	25,333
254,8	24,505
255,2	26,848
255,7	30,076
256,1	33,105
256,6	33,705
257,1	34,076
257,5	32,819
258	27,905
258,5	30,648
258,9	23,019
259,4	22,305
259,9	21,076
260,3	22,79
260,8	25,076
261,2	33,048
261,7	33,162
262,2	35,99
262,6	32,676
263,1	33,019
263,6	27,962
264	28,19
264,5	23,505
264,9	28,648
265,4	26,533
265,9	27,333
266,3	29,162
266,8	30,99
267,3	33,59
267,7	31,705
268,2	23,905
268,7	24,19
269,1	24,505
269,6	28,105
270	29,505
270,5	25,505
271	27,448
271,4	32,79
271,9	33,505
272,4	36,219
272,8	28,676
273,3	30,99
273,7	29,019
274,2	30,019
274,7	24,505
275,1	25,333
275,6	27,648
276,1	27,048
276,5	24,533
277	27,105
277,4	27,476
277,9	26,39
278,4	27,99
278,8	25,362
279,3	27,762
279,8	26,019
280,2	24,19
280,7	21,705
281,1	25,162
281,6	27,99
282,1	26,533
282,5	26,876
283	25,905
283,4	29,162
283,9	28,39
284,4	29,39
284,8	26,59
285,3	29,562
285,8	31,419
286,2	30,419
286,7	31,905
287,1	34,648
287,6	33,905
288,1	34,048
288,5	28,276
289	28,305
289,5	32,59
289,9	34,733
290,4	34,762
290,8	33,962
291,3	32,362
291,8	37,305
292,2	34,076
292,7	31,705
293,1	26,276
293,6	26,648
294,1	24,876
294,5	24,676
295	26,19
295,5	28,476
295,9	31,819
296,4	33,248
296,8	32,562
297,3	33,59
297,8	32,276
298,2	27,933
298,7	26,362
299,1	23,533
299,6	22,019
300,1	24,162
300,5	19,162
301	22,333
301,5	18,733
301,9	18,733
302,4	19,019
302,8	22,276
303,3	18,676
303,8	24,876
304,2	18,333
304,7	23,876
305,1	23,619
305,6	25,762
306,1	24,705
306,5	26,419
307	24,419
307,4	28,048
307,9	26,876
308,4	26,905
308,8	28,076
309,3	29,905
309,8	28,476
310,2	31,619
310,7	32,876
311,1	32,79
311,6	33,133
312,1	28,476
312,5	25,19
313	26,076
313,4	30,305
313,9	29,305
314,4	33,19
314,8	32,876
315,3	35,476
315,7	34,162
316,2	34,905
316,7	24,362
317,1	24,733
317,6	18,79
318	19,905
318,5	19,076
319	24,648
319,4	27,533
319,9	35,333
320,3	36,962
320,8	41,076
321,3	37,762
321,7	36,39
322,2	32,533
322,6	28,362
323,1	23,705
323,6	24,39
324	21,79
324,5	23,333
324,9	24,962
325,4	26,133
325,9	26,733
326,3	25,419
326,8	24,276
327,2	26,362
327,7	26,676
328,2	25,99
328,6	23,962
329,1	23,733
329,5	27,733
330	26,248
330,5	28,59
330,9	26,448
331,4	31,448
331,8	35,105
332,3	37,905
332,8	31,99
333,2	30,705
333,7	24,419
334,1	27,305
334,6	22,59
335,1	22,019
335,5	21,133
336	24,533
336,4	26,79
336,9	26,505
337,4	28,333
337,8	28,419
338,3	22,105
338,7	21,476
339,2	22,733
339,7	23,162
340,1	22,676
340,6	14,276
341	15,59
341,5	22,419
342	22,362
342,4	23,99
342,9	23,533
343,3	28,733
343,8	33,476
344,2	37,333
344,7	38,762
345,2	41,305
345,6	41,79
346,1	43,733
346,5	39,733
347	42,79
347,5	37,705
347,9	33,276
348,4	31,076
348,8	28,876
349,3	31,276
349,8	37,79
350,2	34,819
350,7	38,762
351,1	41,619
351,6	44,733
352	50,019
352,5	56,39
353	58,705
353,4	67,219
353,9	72,648
354,3	87,19
354,8	100,305
355,3	115,79
355,7	124,505
356,2	144,105
356,6	167,133
357,1	195,762
357,5	222,733
358	256,076
358,5	294,105
358,9	342,305
359,4	392,19
359,8	449,676
360,3	508,848
360,8	579,476
361,2	657,59
361,7	741,162
362,1	830,848
362,6	930,99
363	1037,219
363,5	1155,905
364	1280,39
364,4	1407,019
364,9	1536,248
365,3	1664,533
365,8	1786,619
366,3	1897,276
366,7	2002,419
367,2	2093,505
367,6	2167,019
368,1	2226,162
368,5	2267,562
369	2286,676
369,5	2293,333
369,9	2268,762
370,4	2232,676
370,8	2184,648
371,3	2120,962
371,7	2046,448
372,2	1964,333
372,7	1875,962
373,1	1789,219
373,6	1686,562
374	1581,962
374,5	1480,133
374,9	1379,048
375,4	1284,333
375,9	1191,162
376,3	1098,19
376,8	1014,59
377,2	935,762
377,7	861,648
378,2	794,648
378,6	727,876
379,1	665,876
379,5	614,162
380	562,676
380,4	521,448
380,9	480,419
381,4	441,762
381,8	411,133
382,3	383,962
382,7	353,962
383,2	334,762
383,6	312,705
384,1	290,59
384,6	275,733
385	262,048
385,5	240,99
385,9	228,248
386,4	211,562
386,8	196,333
387,3	183,819
387,7	166,533
388,2	152,276
388,7	144,933
389,1	135,276
389,6	132,162
390	130,448
390,5	125,448
390,9	123,219
391,4	110,19
391,9	109,333
392,3	108,905
392,8	103,305
393,2	96,705
393,7	89,333
394,1	84,762
394,6	89,448
395,1	84,048
395,5	76,819
396	70,419
396,4	67,019
396,9	68,505
397,3	67,476
397,8	64,476
398,2	61,905
398,7	65,733
399,2	66,848
399,6	62,819
400,1	63,705
400,5	65,79
401	69,619
401,4	69,619
401,9	67,39
402,4	69,962
402,8	72,19
403,3	72,905
403,7	72,476
404,2	75,162
404,6	78,819
405,1	82,733
405,5	82,305
406	82,676
406,5	86,676
406,9	88,848
407,4	90,105
407,8	94,076
408,3	93,305
408,7	96,419
409,2	104,648
409,6	109,076
410,1	114,476
410,6	119,476
411	123,505
411,5	133,419
411,9	144,876
412,4	152,219
412,8	157,79
413,3	169,448
413,7	178,733
414,2	190,705
414,7	203,048
415,1	209,705
415,6	219,162
416	237,876
416,5	250,819
416,9	263,733
417,4	282,962
417,8	291,905
418,3	310,505
418,8	332,848
419,2	344,619
419,7	358,105
420,1	373,933
420,6	382,876
421	409,733
421,5	430,19
421,9	449,876
422,4	479,219
422,8	505,39
423,3	534,476
423,8	563,133
424,2	591,676
424,7	618,076
425,1	649,933
425,6	675,619
426	711,448
426,5	748,333
426,9	793,219
427,4	829,79
427,9	877,219
428,3	920,305
428,8	972,933
429,2	1019,962
429,7	1070,933
430,1	1119,219
430,6	1180,362
431	1243,19
431,5	1305,819
431,9	1372,59
432,4	1439,962
432,8	1515,648
433,3	1600,219
433,8	1682,105
434,2	1761,219
434,7	1851,933
435,1	1943,162
435,6	2045,676
436	2150,876
436,5	2249,362
436,9	2359,305
437,4	2475,848
437,8	2592,219
438,3	2715,076
438,8	2844,448
439,2	2974,848
439,7	3115,676
440,1	3256,79
440,6	3406,019
441	3562,248
441,5	3721,39
441,9	3886,905
442,4	4055,905
442,8	4237,133
443,3	4415,876
443,7	4600,219
444,2	4791,79
444,7	5002,962
445,1	5205,219
445,6	5422,19
446	5638,733
446,5	5868,648
446,9	6103,448
447,4	6339,362
447,8	6571,19
448,3	6819,762
448,7	7064,876
449,2	7316,162
449,6	7579,048
450,1	7851,448
450,6	8129,648
451	8397,962
451,5	8685,505
451,9	8973,59
452,4	9278,019
452,8	9580,933
453,3	9873,59
453,7	10186,476
454,2	10511,59
454,6	10830,419
455,1	11165,848
455,5	11490,533
456	11823,476
456,4	12165,362
456,9	12510,219
457,3	12867,39
457,8	13218,733
458,3	13570,533
458,7	13932,876
459,2	14288,905
459,6	14653,219
460,1	15022,219
460,5	15380,676
461	15751,533
461,4	16122,276
461,9	16492,19
462,3	16862,362
462,8	17239,505
463,2	17597,733
463,7	17966,876
464,1	18326,705
464,6	18696,162
465	19067,705
465,5	19439,933
466	19808,676
466,4	20177,619
466,9	20547,333
467,3	20928,419
467,8	21290,219
468,2	21654,876
468,7	22012,59
469,1	22362,448
469,6	22721,448
470	23071,905
470,5	23388,19
470,9	23722,705
471,4	24044,305
471,8	24366,048
472,3	24679,419
472,7	24986,79
473,2	25293,59
473,6	25610,333
474,1	25904,562
474,5	26209,676
475	26492,39
475,4	26775,305
475,9	27060,362
476,4	27314,99
476,8	27575,476
477,3	27837,933
477,7	28077,762
478,2	28309,162
478,6	28552,333
479,1	28756,99
479,5	28984,019
480	29191,248
480,4	29373,99
480,9	29546,19
481,3	29727,648
481,8	29876,505
482,2	30038,048
482,7	30182,762
483,1	30337,419
483,6	30473,276
484	30600,533
484,5	30723,019
484,9	30833,019
485,4	30939,848
485,8	31017,076
486,3	31071,076
486,7	31132,219
487,2	31197,333
487,6	31245,448
488,1	31283,99
488,5	31297,248
489	31333,219
489,4	31356,676
489,9	31363,19
490,4	31353,676
490,8	31327,819
491,3	31289,705
491,7	31267,762
492,2	31215,648
492,6	31159,248
493,1	31093,133
493,5	31017,448
494	30943,933
494,4	30887,533
494,9	30792,162
495,3	30695,333
495,8	30598,819
496,2	30499,39
496,7	30392,505
497,1	30300,105
497,6	30177,848
498	30064,733
498,5	29952,648
498,9	29828,448
499,4	29701,562
499,8	29576,276
500,3	29434,333
500,7	29301,448
501,2	29146,162
501,6	28995,676
502,1	28845,419
502,5	28692,676
503	28533,39
503,4	28361,19
503,9	28189,819
504,3	28039,562
504,8	27846,048
505,2	27658,248
505,7	27472,419
506,1	27283,676
506,6	27084,162
507	26895,876
507,5	26683,133
507,9	26499,59
508,4	26295,99
508,8	26091,505
509,3	25877,333
509,7	25672,79
510,2	25440,533
510,6	25232,076
511,1	25011,59
511,5	24788,276
512	24570,905
512,4	24360,59
512,9	24140,619
513,3	23930,705
513,8	23704,848
514,2	23482,019
514,7	23260,105
515,1	23033,19
515,6	22813,848
516	22591,048
516,5	22363,39
516,9	22138,762
517,4	21919,79
517,8	21691,819
518,3	21478,676
518,7	21245,076
519,2	21021,105
519,6	20800,248
520,1	20578,276
520,5	20356,048
521	20141,933
521,4	19906,219
521,9	19683,076
522,3	19467,905
522,8	19253,876
523,2	19030,705
523,7	18816,448
524,1	18610,39
524,6	18415,305
525	18215,562
525,5	18015,448
525,9	17818,648
526,4	17637,648
526,8	17444,99
527,3	17252,962
527,7	17053,048
528,2	16864,076
528,6	16678,076
529,1	16480,048
529,5	16279,048
530	16084,448
530,4	15905,648
530,9	15725,362
531,3	15545,276
531,8	15354,848
532,2	15180,99
532,6	15002,705
533,1	14836,162
533,5	14656,533
534	14490,533
534,4	14318,648
534,9	14163,476
535,3	14001,648
535,8	13851,248
536,2	13689,076
536,7	13539,962
537,1	13369,619
537,6	13221,419
538	13070,676
538,5	12919,133
538,9	12760,676
539,4	12612,448
539,8	12458,762
540,3	12326,505
540,7	12175,533
541,2	12030,933
541,6	11894,105
542,1	11757,305
542,5	11627,533
543	11503,876
543,4	11374,848
543,9	11250,848
544,3	11114,076
544,8	10986,962
545,2	10870,705
545,7	10752,619
546,1	10625,305
546,5	10502,762
547	10387,105
547,4	10280,076
547,9	10171,133
548,3	10061,876
548,8	9944,99
549,2	9841,476
549,7	9737,705
550,1	9633,276
550,6	9537,619
551	9436,162
551,5	9333,619
551,9	9245,048
552,4	9148,39
552,8	9059,905
553,3	8964,248
553,7	8865,076
554,2	8772,133
554,6	8684,19
555,1	8591,219
555,5	8501,905
555,9	8410,762
556,4	8328,248
556,8	8243,705
557,3	8157,419
557,7	8078,39
558,2	7997,105
558,6	7918,39
559,1	7843,39
559,5	7769,676
560	7706,019
560,4	7628,848
560,9	7555,105
561,3	7482,076
561,8	7409,333
562,2	7333,219
562,7	7249,533
563,1	7172,905
563,6	7103,59
564	7026,619
564,4	6960,476
564,9	6899,505
565,3	6832,933
565,8	6775,248
566,2	6707,533
566,7	6649,533
567,1	6592,248
567,6	6526,933
568	6457,99
568,5	6405,048
568,9	6349,933
569,4	6289,105
569,8	6224,448
570,3	6164,162
570,7	6108,733
571,1	6049,448
571,6	5987,39
572	5933,105
572,5	5876,476
572,9	5832,905
573,4	5783,419
573,8	5729,39
574,3	5681,276
574,7	5633,105
575,2	5586,933
575,6	5548,019
576,1	5501,39
576,5	5456,848
576,9	5405,419
577,4	5366,076
577,8	5313,219
578,3	5260,962
578,7	5201,619
579,2	5157,048
579,6	5111,048
580,1	5072,676
580,5	5020,048
581	4984,048
581,4	4938,505
581,9	4907,333
582,3	4859,219
582,7	4813,905
583,2	4772,505
583,6	4732,676
584,1	4694,933
584,5	4650,648
585	4603,99
585,4	4560,848
585,9	4522,533
586,3	4485,962
586,8	4443,676
587,2	4400,19
587,6	4364,79
588,1	4335,248
588,5	4305,448
589	4262,076
589,4	4224,133
589,9	4195,79
590,3	4163,305
590,8	4140,762
591,2	4104,048
591,7	4074,933
592,1	4055,733
592,5	4027,619
593	4002,562
593,4	3971,733
593,9	3933,648
594,3	3904,619
594,8	3875,362
595,2	3845,248
595,7	3816,762
596,1	3784,419
596,6	3753,533
597	3731,19
597,4	3708,448
597,9	3676,933
598,3	3650,876
598,8	3622,676
599,2	3594,276
599,7	3574,676
600,1	3552,79
600,6	3527,705
601	3510,676
601,4	3489,419
601,9	3467,076
602,3	3448,533
602,8	3424,59
603,2	3392,419
603,7	3362,619
604,1	3334,819
604,6	3307,533
605	3290,076
605,4	3261,419
605,9	3237,533
606,3	3217,933
606,8	3203,79
607,2	3175,99
607,7	3155,59
608,1	3128,962
608,6	3112,933
609	3097,533
609,4	3072,905
609,9	3044,562
610,3	3029,876
610,8	3010,362
611,2	2990,276
611,7	2970,133
612,1	2942,533
612,6	2924,133
613	2907,219
613,4	2880,533
613,9	2862,19
614,3	2842,676
614,8	2816,419
615,2	2797,305
615,7	2776,162
616,1	2756,905
616,6	2743,019
617	2716,276
617,4	2694,019
617,9	2673,476
618,3	2661,733
618,8	2643,562
619,2	2624,448
619,7	2599,333
620,1	2590,105
620,5	2571,905
621	2555,762
621,4	2534,333
621,9	2520,99
622,3	2505,39
622,8	2492,333
623,2	2474,333
623,6	2459,219
624,1	2448,39
624,5	2430,305
625	2406,819
625,4	2388,305
625,9	2372,562
626,3	2354,419
626,8	2339,105
627,2	2317,905
627,6	2302,362
628,1	2288,133
628,5	2270,819
629	2254,419
629,4	2230,933
629,9	2208,162
630,3	2190,848
630,7	2178,019
631,2	2166,019
631,6	2151,562
632,1	2132,562
632,5	2126,448
633	2112,39
633,4	2098,819
633,8	2077,19
634,3	2059,333
634,7	2038,79
635,2	2026,848
635,6	2007,419
636,1	1993,276
636,5	1985,362
636,9	1971,79
637,4	1959,162
637,8	1954,076
638,3	1945,962
638,7	1928,99
639,2	1916,048
639,6	1895,505
640	1886,248
640,5	1875,162
640,9	1859,105
641,4	1845,619
641,8	1835,819
642,2	1823,619
642,7	1818,476
643,1	1807,162
643,6	1798,333
644	1789,79
644,5	1782,876
644,9	1775,648
645,3	1767,762
645,8	1752,762
646,2	1736,019
646,7	1718,505
647,1	1703,162
647,6	1683,076
648	1673,333
648,4	1663,39
648,9	1652,39
649,3	1641,419
649,8	1637,105
650,2	1630,448
650,6	1625,59
651,1	1608,533
651,5	1594,505
652	1584,219
652,4	1573,648
652,9	1560,019
653,3	1546,476
653,7	1530,705
654,2	1522,619
654,6	1516,876
655,1	1506,362
655,5	1497,533
655,9	1485,705
656,4	1478,676
656,8	1471,419
657,3	1466,105
657,7	1448,79
658,2	1441,79
658,6	1433,362
659	1427,533
659,5	1413,619
659,9	1405,419
660,4	1394,476
660,8	1396,076
661,2	1379,048
661,7	1367,733
662,1	1355,276
662,6	1349,048
663	1337,333
663,4	1323,39
663,9	1308,048
664,3	1293,676
664,8	1284,705
665,2	1278,105
665,6	1266,933
666,1	1257,476
666,5	1254,305
667	1242,333
667,4	1242,39
667,9	1236,333
668,3	1221,619
668,7	1213,619
669,2	1206,448
669,6	1192,476
670,1	1187,619
670,5	1184,648
670,9	1175,648
671,4	1170,762
671,8	1166,733
672,3	1158,448
672,7	1150,819
673,1	1144,362
673,6	1134,248
674	1126,733
674,5	1121,276
674,9	1110,819
675,3	1103,362
675,8	1096,019
676,2	1087,476
676,7	1080,619
677,1	1075,105
677,5	1067,048
678	1063,105
678,4	1057,276
678,9	1049,876
679,3	1044,848
679,7	1033,362
680,2	1024,733
680,6	1019,39
681,1	1009,162
681,5	998,562
681,9	996,219
682,4	987,59
682,8	978,848
683,3	976,276
683,7	972,419
684,1	963,162
684,6	957,448
685	946,648
685,5	933,962
685,9	928,048
686,3	920,59
686,8	910,876
687,2	910,19
687,7	904,019
688,1	901,476
688,5	896,59
689	896,276
689,4	883,248
689,9	878,962
690,3	869,59
690,7	864,99
691,2	856,305
691,6	851,448
692	845,79
692,5	841,648
692,9	834,19
693,4	825,562
693,8	819,905
694,2	813,733
694,7	806,848
695,1	803,362
695,6	802,676
696	795,676
696,4	790,676
696,9	782,476
697,3	782,305
697,8	785,219
698,2	777,048
698,6	765,733
699,1	758,39
699,5	755,848
699,9	749,733
700,4	742,19
700,8	731,533
701,3	724,133
701,7	718,762
702,1	717,905
702,6	709,562
703	708,819
703,5	702,59
703,9	702,048
704,3	700,562
704,8	703,505
705,2	699,619
705,6	701,648
706,1	695,248
706,5	690,476
707	686,276
707,4	680,105
707,8	670,819
708,3	668,619
708,7	664,333
709,2	660,933
709,6	660,733
710	651,562
710,5	646,076
710,9	645,076
711,3	637,733
711,8	632,276
712,2	629,562
712,7	622,219
713,1	617,248
713,5	613,133
714	606,476
714,4	597,648
714,8	597,79
715,3	594,533
715,7	590,933
716,2	592,39
716,6	586,305
717	584,876
717,5	579,962
717,9	566,848
718,3	564,562
718,8	559,648
719,2	554,905
719,7	552,133
720,1	546,105
720,5	545,419
721	549,19
721,4	546,448
721,8	540,248
722,3	537,59
722,7	535,248
723,2	529,962
723,6	531,248
724	522,362
724,5	511,962
724,9	507,79
725,3	497,819
725,8	494,648
726,2	490,619
726,7	481,876
727,1	476,276
727,5	473,619
728	467,448
728,4	468,533
728,8	462,619
729,3	458,476
729,7	454,39
730,1	451,076
730,6	448,019
731	448,962
731,5	445,448
731,9	443,619
732,3	447,733
732,8	448,648
733,2	453,162
733,6	452,819
734,1	449,533
734,5	446,39
734,9	440,962
735,4	433,848
735,8	430,076
736,3	419,99
736,7	418,048
737,1	416,962
737,6	409,876
738	412,648
738,4	412,448
738,9	407,048
739,3	410,248
739,7	407,19
740,2	407,619
740,6	409,248
741,1	402,705
741,5	397,99
741,9	398,305
742,4	395,333
742,8	389,876
743,2	386,676
743,7	388,333
744,1	390,619
744,5	391,99
745	388,39
745,4	389,762
745,8	389,705
746,3	381,79
746,7	374,619
747,2	368,39
747,6	363,762
748	362,619
748,5	354,505
748,9	355,076
749,3	358,162
749,8	355,762
750,2	354,59
750,6	348,19
751,1	345,819
751,5	345,962
751,9	344,762
752,4	348,419
752,8	346,676
753,3	345,848
753,7	347,19
754,1	346,333
754,6	340,505
755	334,676
755,4	329,876
755,9	330,562
756,3	329,619
756,7	330,733
757,2	327,448
757,6	329,048
758	328,048
758,5	317,876
758,9	313,905
759,3	310,076
759,8	304,705
760,2	302,533
760,6	306,39
761,1	302,762
761,5	306,133
761,9	302,448
762,4	302,59
762,8	303,905
763,3	303,019
763,7	298,133
764,1	297,19
764,6	293,305
765	293,19
765,4	293,448
765,9	293,505
766,3	290,276
766,7	286,39
767,2	284,705
767,6	289,648
768	286,019
768,5	281,019
768,9	272,933
769,3	274,076
769,8	267,819
770,2	268,162
770,6	260,905
771,1	261,562
771,5	259,733
771,9	263,619
772,4	257,648
772,8	257,562
773,2	255,99
773,7	253,219
774,1	254,219
774,5	254,219
775	251,162
775,4	252,533
775,8	252,476
776,3	250,19
776,7	252,419
777,1	250,39
777,6	244,762
778	241,019
778,4	241,848
778,9	240,648
779,3	236,448
779,7	233,305
780,2	234,305
780,6	240,962
781	237,076
781,5	233,162
781,9	232,219
782,3	234,876
782,8	236,105
783,2	229,676
783,6	224,533
784,1	226,476
784,5	223,276
784,9	219,59
785,4	217,933
785,8	215,99
786,2	216,162
786,7	216,219
787,1	219,419
787,5	218,105
788	219,105
788,4	220,476
788,8	212,733
789,3	213,162
789,7	207,876
790,1	204,562
790,6	201,448
791	199,133
791,4	196,59
791,9	200,705
792,3	200,39
792,7	202,505
793,2	200,562
793,6	202,505
794	206,876
794,5	204,705
794,9	201,39
795,3	196,419
795,8	194,733
796,2	189,133
796,6	190,676
797,1	189,276
797,5	182,762
797,9	186,019
798,4	187,39
798,8	185,99
799,2	189,562
799,7	183,733
800,1	178,219
800,5	182,819
801	182,076
801,4	181,076
801,8	177,362
802,2	175,59
802,7	174,562
803,1	173,733
803,5	170,762
804	166,19
804,4	165,505
804,8	167,733
805,3	163,933
805,7	167,305
806,1	163,019
806,6	164,19
807	163,133
807,4	162,248
807,9	156,933
808,3	156,876
808,7	157,562
809,2	159,876
809,6	158,648
810	164,676
810,4	163,59
810,9	165,762
811,3	166,419
811,7	160,705
812,2	159,076
812,6	156,819
813	151,048
813,5	149,648
813,9	146,819
814,3	142,048
814,8	143,19
815,2	143,905
815,6	141,076
816,1	138,848
816,5	139,533
816,9	146,019
817,3	147,105
817,8	146,676
818,2	146,419
818,6	148,905
819,1	145,076
819,5	137,762
819,9	133,362
820,4	135,99
820,8	134,762
821,2	129,876
821,7	124,79
822,1	125,219
822,5	132,733
822,9	127,762
823,4	124,876
823,8	123,79
824,2	127,19
824,7	128,733
825,1	127,533
825,5	122,762
826	118,59
826,4	116,876
826,8	113,533
827,3	112,419
827,7	111,133
828,1	113,333
828,5	114,276
829	119,448
829,4	116,133
829,8	122,219
830,3	124,676
830,7	125,305
831,1	123,476
831,6	123,305
832	121,905
832,4	122,648
832,8	114,648
833,3	107,333
833,7	101,419
834,1	101,676
834,6	96,905
835	97,219
835,4	97,162
835,8	97,79
836,3	97,048
836,7	96,876
837,1	93,762
837,6	89,562
838	85,362
838,4	88,162
838,9	92,333
839,3	97,105
839,7	99,733
840,1	99,819
840,6	107,048
841	102,276
841,4	96,19
841,9	93,59
842,3	87,648
842,7	84,876
843,1	83,705
843,6	77,619
844	84,19
844,4	88,962
844,9	88,733
845,3	91,39
845,7	93,962
846,2	97,162
846,6	97,705
847	97,105
847,4	98,848
847,9	97,59
848,3	92,333
848,7	88,105
849,2	88,019
849,6	91,448
850	92,39
850,4	88,848
850,9	86,962
851,3	93,476
851,7	97,219
852,2	90,59
852,6	87,505
853	90,419
853,4	89,562
853,9	90,076
854,3	85,705
854,7	87,19
855,2	91,048
855,6	87,733
856	86,048
856,4	82,819
856,9	79,533
857,3	79,333
857,7	74,676
858,2	73,676
858,6	75,448
859	73,819
859,4	75,333
859,9	76,933
860,3	75,533
860,7	75,248
861,1	78,019
861,6	81,162
862	77,876
862,4	78,476
862,9	78,905
863,3	79,705
863,7	76,79
864,1	70,648
864,6	68,676
865	66,762
865,4	60,99
865,9	60,448
866,3	60,676
866,7	59,676
867,1	60,162
867,6	60,362
868	59,876
868,4	62,848
868,8	60,905
869,3	65,905
869,7	70,676
870,1	74,476
870,6	71,648
871	118,905
871,4	122,876
871,8	122,505
872,3	111,905
872,7	108,133
873,1	103,39
873,5	102,362
874	57,248
874,4	51,133
874,8	51,59
875,3	56,248
875,7	57,162
876,1	58,562
876,5	58,276
877	53,105
877,4	55,819
877,8	55,362
878,2	54,819
878,7	54,99
879,1	54,448
879,5	57,39
879,9	57,79
880,4	52,59
880,8	57,39
881,2	56,333
881,7	56,876
882,1	53,79
882,5	49,876
882,9	52,848
883,4	55,99
883,8	50,019
884,2	49,305
884,6	48,705
885,1	46,962
885,5	46,79
885,9	40,819
886,3	41,933
886,8	46,562
887,2	43,019
887,6	43,476
888	47,019
888,5	49,619
888,9	50,076
889,3	45,905
889,8	43,219
890,2	41,305
890,6	39,133
891	39,448
891,5	35,79
891,9	40,019
892,3	41,933
892,7	38,505
893,2	43,933
893,6	44,733
894	45,19
894,4	45,905
894,9	45,248
895,3	45,276
895,7	47,362
896,1	40,133
896,6	44,105
897	44,819
897,4	46,448
897,8	50,162
898,3	55,048
898,7	55,048
899,1	60,733
899,5	54,648
900	51,505
900,4	47,362
900,8	41,19
901,2	34,99
901,7	36,19
902,1	33,79
902,5	37,248
902,9	36,876
903,4	42,305
903,8	41,676
904,2	42,476
904,6	38,276
905,1	37,362
905,5	35,819
905,9	35,19
906,3	31,79
906,8	31,905
907,2	30,076
907,6	32,362
908	32,219
908,5	28,533
908,9	28,762
909,3	29,762
909,7	30,762
910,2	30,933
910,6	31,333
911	37,105
911,4	39,219
911,9	37,19
912,3	37,305
912,7	38,819
913,1	36,248
913,6	37,019
914	39,305
914,4	41,648
914,8	44,448
915,3	43,39
915,7	45,562
916,1	48,219
916,5	45,362
916,9	39,362
917,4	34,19
917,8	30,448
918,2	33,419
918,6	32,219
919,1	30,362
919,5	30,305
919,9	31,876
920,3	38,448
920,8	42,676
921,2	37,219
921,6	35,305
922	38,505
922,5	36,705
922,9	36,105
923,3	34,162
923,7	30,248
924,2	32,876
924,6	31,305
925	30,19
925,4	31,962
925,8	30,076
926,3	25,933
926,7	29,505
927,1	30,419
927,5	33,419
928	33,933
928,4	31,19
928,8	36,248
929,2	40,533
929,7	42,162
930,1	39,59
930,5	35,048
930,9	33,59
931,3	38,105
931,8	35,59
932,2	31,39
932,6	27,733
933	22,79
933,5	24,99
933,9	27,933
934,3	27,333
934,7	28,305
935,2	26,048
935,6	28,219
936	32,019
936,4	33,79
936,8	29,676
937,3	32,762
937,7	30,876
938,1	33,648
938,5	32,59
939	33,448
939,4	31,933
939,8	33,162
940,2	26,819
940,6	25,762
941,1	28,248
941,5	29,476
941,9	31,762
942,3	32,333
942,8	33,19
943,2	27,362
943,6	27,962
944	30,505
944,4	28,562
944,9	22,019
945,3	19,905
945,7	19,619
946,1	26,676
946,6	26,505
947	23,105
947,4	17,962
947,8	24,505
948,2	29,276
948,7	28,333
949,1	29,19
949,5	31,076
949,9	31,933
950,3	34,248
950,8	30,705
951,2	28,162
951,6	28,733
952	30,476
952,5	27,133
952,9	23,562
953,3	23,79
953,7	23,733
954,1	23,533
954,6	23,733
955	21,476
955,4	25,39
955,8	28,048
956,2	26,79
956,7	30,848
957,1	29,562
957,5	31,248
957,9	30,648
958,3	25,705
958,8	25,362
959,2	30,762
959,6	33,305
960	33,362
960,5	30,648
960,9	35,562
961,3	37,876
961,7	40,305
962,1	43,076
962,6	36,419
963	42,619
963,4	48,076
963,8	43,019
964,2	38,333
964,7	36,048
965,1	30,676
965,5	36,248
965,9	28,819
966,3	27,619
966,8	25,533
967,2	30,933
967,6	27,562
968	28,305
968,4	28,99
968,9	29,105
969,3	24,905
969,7	23,762
970,1	24,305
970,5	22,905
971	25,448
971,4	23,419
971,8	25,019
972,2	22,905
972,6	24,905
973,1	21,562
973,5	25,562
973,9	18,048
974,3	19,79
974,7	16,562
975,2	19,962
975,6	21,105
976	22,076
976,4	18,99
976,8	24,819
977,3	21,476
977,7	23,362
978,1	27,333
978,5	30,076
978,9	30,619
979,4	31,819
979,8	29,819
980,2	30,076
980,6	34,448
981	31,248
981,5	27,79
981,9	28,905
982,3	27,905
982,7	25,419
983,1	22,105
983,6	18,305
984	18,362
984,4	15,848
984,8	15,505
985,2	20,419
985,6	21,705
986,1	21,59
986,5	22,819
986,9	20,619
987,3	21,076
987,7	16,505
988,2	10,276
988,6	12,733
989	18,59
989,4	14,705
989,8	14,562
990,3	16,248
990,7	20,79
991,1	20,105
991,5	19,476
991,9	13,219
992,3	12,448
992,8	11,448
993,2	10,048
993,6	8,39
994	13,248
994,4	18,076
994,9	20,762
995,3	27,305
995,7	29,333
996,1	32,848
996,5	32,876
996,9	39,648
997,4	33,048
997,8	32,048
998,2	29,905
998,6	27,505
999	26,505
999,5	28,676
999,9	20,676
1000,3	23,962
1000,7	25,39
1001,1	26,362
1001,5	32,848
1002	32,105
1002,4	30,962
1002,8	32,848
1003,2	27,305
1003,6	28,562
1004	31,762
1004,5	25,476
1004,9	26,248
1005,3	25,562
1005,7	27,533
1006,1	28,59
1006,6	24,619
1007	17,19
1007,4	17,962
1007,8	19,962
1008,2	21,648
1008,6	19,419
1009,1	21,19
1009,5	28,419
1009,9	31,276
1010,3	35,79
1010,7	33,448
1011,1	33,705
1011,6	31,99
1012	35,505
1012,4	30,619
1012,8	27,076
1013,2	22,19
1013,6	25,19
1014,1	17,99
1014,5	21,533
1014,9	17,705
1015,3	17,333
1015,7	19,505
1016,1	21,019
1016,6	18,333
1017	25,248
1017,4	21,162
1017,8	23,705
1018,2	23,362
1018,6	23,448
1019,1	26,105
1019,5	26,962
1019,9	24,276
1020,3	23,505
1020,7	23,019
1021,1	20,476
1021,6	22,619
1022	18,276
1022,4	21,762
1022,8	19,362
1023,2	18,39
1023,6	15,533
1024,1	24,876
1024,5	25,848
1024,9	28,219
1025,3	25,133
1025,7	25,762
1026,1	27,562
1026,6	32,962
1027	27,19
1027,4	26,533
1027,8	23,276
1028,2	24,733
1028,6	28,219
1029	24,562
1029,5	22,19
1029,9	25,933
1030,3	25,648
1030,7	32,048
1031,1	34,276
1031,5	32,533
1032	37,19
1032,4	42,048
1032,8	34,419
1033,2	28,048
1033,6	24,305
1034	19,819
1034,4	20,59
1034,9	24,676
1035,3	21,848
1035,7	21,733
1036,1	34,39
1036,5	35,448
1036,9	35,762
1037,4	39,533
1037,8	34,79
1038,2	37,362
1038,6	41,819
1039	32,99
1039,4	36,105
1039,8	38,648
1040,3	35,448
1040,7	36,733
1041,1	26,419
1041,5	28,162
1041,9	31,676
1042,3	28,162
1042,7	24,39
1043,2	25,533
1043,6	32,59
1044	42,19
1044,4	43,133
1044,8	45,362
1045,2	43,905
1045,6	47,876
1046,1	47,676
1046,5	39,19
1046,9	38,048
1047,3	37,705
1047,7	34,99
1048,1	31,133
1048,5	30,705
1049	28,333
1049,4	29,848
1049,8	28,562
1050,2	26,762
1050,6	27,676
1051	34,248
1051,4	30,105
1051,9	35,248
1052,3	34,733
1052,7	34,733
1053,1	30,505
1053,5	25,105
1053,9	25,876
1054,3	23,219
1054,8	18,105
1055,2	18,276
1055,6	19,505
1056	23,019
1056,4	23,533
1056,8	22,248
1057,2	23,99
1057,6	30,533
1058,1	28,733
1058,5	20,362
1058,9	16,533
1059,3	17,39
1059,7	15,133
1060,1	16,59
1060,5	9,333
1061	10,133
1061,4	12,19
1061,8	18,333
1062,2	19,19
1062,6	20,962
1063	20,933
1063,4	19,962
1063,8	18,905
1064,3	28,333
1064,7	27,848
1065,1	29,733
1065,5	32,448
1065,9	35,419
1066,3	37,819
1066,7	48,219
1067,1	38,762
1067,6	38,933
1068	41,362
1068,4	39,133
1068,8	38,276
1069,2	41,762
1069,6	32,705
1070	38,19
1070,4	35,705
1070,9	34,448
1071,3	35,333
1071,7	33,419
1072,1	27,476
1072,5	31,848
1072,9	28,39
1073,3	27,905
1073,7	22,876
1074,2	24,162
1074,6	22,676
1075	26,962
1075,4	25,79
1075,8	22,648
1076,2	22,59
1076,6	23,905
1077	26,076
1077,5	33,105
1077,9	24,276
1078,3	20,076
1078,7	25,305
1079,1	30,39
1079,5	33,819
1079,9	34,133
1080,3	29,248
1080,7	39,048
1081,2	41,762
1081,6	40,048
1082	38,648
1082,4	37,248
1082,8	32,133
1083,2	28,648
1083,6	27,019
1084	26,905
1084,5	28,162
1084,9	21,19
1085,3	19,133
1085,7	21,676
1086,1	24,619
1086,5	23,19
1086,9	26,219
1087,3	31,162
1087,7	38,848
1088,2	43,505
1088,6	41,619
1089	43,619
1089,4	48,419
1089,8	43,476
1090,2	36,533
1090,6	29,933
1091	23,99
1091,4	21,39
1091,9	22,305
1092,3	21,19
1092,7	20,076
1093,1	21,619
1093,5	23,733
1093,9	25,876
1094,3	29,162
1094,7	27,505
1095,1	27,848
1095,5	31,133
1096	32,762
1096,4	35,848
1096,8	38,105
1097,2	34,105
1097,6	32,362
1098	28,105
1098,4	25,99
1098,8	26,162
1099,2	22,905
1099,6	21,562
1100,1	25,276
1100,5	22,99
1100,9	21,876
1101,3	21,333
1101,7	18,848
1102,1	18,676
1102,5	18,876
1102,9	12,648
1103,3	16,648
1103,7	19,533
1104,2	19,162
1104,6	22,362
1105	22,562
1105,4	22,876
1105,8	24,133
1106,2	19,733
1106,6	15,819
1107	13,59
1107,4	8,667
1107,8	6,213
1108,3	0,283
