Data from Subt2_00060.txt Node
Date: Mon Aug 28 13:24:16 MSK 2023
User: vat
Spectrometer: MAYP114033
Trigger mode: 0
Integration Time (sec): 1,000000E0
Scans to average: 5
Electric dark correction enabled: true
Nonlinearity correction enabled: false
Boxcar width: 3
XAxis mode: Wavelengths
Number of Pixels in Spectrum: 2068
>>>>>Begin Spectral Data<<<<<
199,4	-0,283
199,9	-6,153
200,4	-5,433
200,8	-2,633
201,3	-2,605
201,8	-0,29
202,2	0,595
202,7	1,11
203,2	7,195
203,6	8,452
204,1	5,881
204,6	8,081
205	6,967
205,5	6,652
206	8,652
206,4	4,567
206,9	7,738
207,4	7,795
207,8	4,567
208,3	4,395
208,8	4,338
209,2	1,91
209,7	7,91
210,2	4,967
210,6	4,367
211,1	10,624
211,5	11,71
212	14,595
212,5	13,424
212,9	8,424
213,4	10,567
213,9	10,624
214,3	3,395
214,8	1,538
215,3	0,138
215,7	0,71
216,2	1,024
216,7	2,967
217,1	-1,49
217,6	3,595
218,1	2,338
218,5	-1,462
219	-0,776
219,5	0,967
219,9	-5,576
220,4	5,51
220,9	3,224
221,3	2,881
221,8	3,052
222,3	7,51
222,7	10,195
223,2	8,024
223,6	0,652
224,1	3,767
224,6	9,11
225	10,881
225,5	3,91
226	0,71
226,4	7,624
226,9	8,938
227,4	10,424
227,8	10,824
228,3	7,224
228,8	11,224
229,2	12,71
229,7	9,224
230,2	14,367
230,6	10,395
231,1	4,51
231,5	13,167
232	11,252
232,5	7,595
232,9	10,395
233,4	6,424
233,9	8,881
234,3	15,11
234,8	9,481
235,3	13,367
235,7	15,281
236,2	11,767
236,7	6,824
237,1	6,081
237,6	-0,119
238,1	-1,005
238,5	-2,405
239	1,881
239,4	6,138
239,9	13,452
240,4	10,967
240,8	15,024
241,3	15,024
241,8	12,795
242,2	4,024
242,7	0,624
243,2	-0,262
243,6	2,024
244,1	-3,29
244,6	-3,49
245	-4,062
245,5	4,795
245,9	8,167
246,4	7,138
246,9	1,967
247,3	4,795
247,8	2,967
248,3	8,281
248,7	5,767
249,2	6,51
249,7	7,31
250,1	5,595
250,6	4,424
251	7,795
251,5	-1,519
252	-5,519
252,4	-8,976
252,9	-5,748
253,4	-1,49
253,8	-1,405
254,3	-4,233
254,8	4,767
255,2	6,795
255,7	6,138
256,1	-3,605
256,6	-5,662
257,1	-5,89
257,5	-2,49
258	-7,976
258,5	-5,805
258,9	-7,776
259,4	-4,319
259,9	-4,662
260,3	-4,833
260,8	-9,719
261,2	-5,719
261,7	-7,719
262,2	-4,148
262,6	-2,148
263,1	-0,348
263,6	-4,033
264	2,31
264,5	0,081
264,9	1,852
265,4	1,395
265,9	-1,69
266,3	0,281
266,8	9,652
267,3	9,91
267,7	10,91
268,2	9,252
268,7	8,51
269,1	8,824
269,6	8,11
270	-0,805
270,5	1,681
271	1,138
271,4	-1,233
271,9	-4,605
272,4	-3,49
272,8	-3,176
273,3	1,624
273,7	-2,576
274,2	-3,548
274,7	-1,805
275,1	0,938
275,6	2,367
276,1	-0,919
276,5	-2,033
277	-0,319
277,4	-0,005
277,9	-4,376
278,4	-3,29
278,8	-2,033
279,3	-0,319
279,8	0,367
280,2	0,281
280,7	1,424
281,1	4,795
281,6	5,081
282,1	3,795
282,5	8,338
283	5,767
283,4	7,567
283,9	5,795
284,4	9,681
284,8	9,081
285,3	7,967
285,8	3,052
286,2	4,652
286,7	0,91
287,1	0,081
287,6	-2,462
288,1	-4,348
288,5	-0,662
289	-0,462
289,5	-0,633
289,9	-2,462
290,4	-3,576
290,8	1,31
291,3	5,538
291,8	0,852
292,2	0,338
292,7	-1,805
293,1	-0,748
293,6	-0,176
294,1	-2,948
294,5	-6,605
295	-5,09
295,5	-4,548
295,9	0,652
296,4	-0,748
296,8	2,881
297,3	3,424
297,8	6,195
298,2	6,338
298,7	7,281
299,1	5,938
299,6	8,024
300,1	9,452
300,5	8,052
301	9,738
301,5	7,31
301,9	3,91
302,4	4,738
302,8	4,967
303,3	7,824
303,8	10,081
304,2	5,224
304,7	7,938
305,1	8,595
305,6	5,252
306,1	4,91
306,5	-3,576
307	-7,519
307,4	-8,833
307,9	-10,062
308,4	-10,262
308,8	-3,576
309,3	-2,405
309,8	-0,148
310,2	-1,119
310,7	2,967
311,1	4,481
311,6	5,281
312,1	0,081
312,5	-1,09
313	1,481
313,4	9,052
313,9	4,881
314,4	0,767
314,8	5,481
315,3	7,138
315,7	6,795
316,2	1,138
316,7	-3,89
317,1	-2,148
317,6	3,252
318	1,252
318,5	-2,748
319	0,595
319,4	8,195
319,9	5,481
320,3	7,652
320,8	5,91
321,3	2,052
321,7	9,081
322,2	2,767
322,6	3,224
323,1	1,452
323,6	-1,719
324	-5,833
324,5	-1,09
324,9	-0,233
325,4	5,024
325,9	1,195
326,3	2,824
326,8	4,481
327,2	6,367
327,7	3,138
328,2	2,167
328,6	4,138
329,1	0,51
329,5	2,852
330	5,51
330,5	16,195
330,9	16,081
331,4	11,281
331,8	7,224
332,3	12,595
332,8	10,795
333,2	9,024
333,7	-4,405
334,1	-7,919
334,6	-9,89
335,1	-6,69
335,5	-10,576
336	-6,405
336,4	-4,205
336,9	2,652
337,4	6,71
337,8	10,938
338,3	6,538
338,7	7,824
339,2	2,852
339,7	0,595
340,1	-3,69
340,6	-4,319
341	-5,376
341,5	-4,605
342	-6,948
342,4	-12,29
342,9	-10,176
343,3	-6,233
343,8	-2,29
344,2	-1,919
344,7	-1,862
345,2	1,252
345,6	10,681
346,1	7,595
346,5	7,91
347	1,938
347,5	3,824
347,9	0,995
348,4	0,224
348,8	-1,633
349,3	-2,976
349,8	-5,519
350,2	0,167
350,7	-0,633
351,1	6,252
351,6	8,595
352	8,71
352,5	14,91
353	22,595
353,4	28,481
353,9	37,024
354,3	52,224
354,8	59,624
355,3	75,795
355,7	88,881
356,2	102,138
356,6	118,595
357,1	136,167
357,5	151,052
358	182,824
358,5	214,081
358,9	248,052
359,4	290,452
359,8	332,71
360,3	378,252
360,8	435,395
361,2	495,51
361,7	562,424
362,1	636,224
362,6	711,71
363	801,195
363,5	897,395
364	989,624
364,4	1086,138
364,9	1183,938
365,3	1286,91
365,8	1387,31
366,3	1473,367
366,7	1550,967
367,2	1621,481
367,6	1679,881
368,1	1722,338
368,5	1743,767
369	1756,595
369,5	1760,195
369,9	1751,738
370,4	1723,881
370,8	1683,338
371,3	1635,024
371,7	1580,767
372,2	1516,138
372,7	1444,252
373,1	1372,852
373,6	1294,624
374	1214,852
374,5	1136,31
374,9	1058,338
375,4	979,481
375,9	905,595
376,3	826,167
376,8	763,367
377,2	702,424
377,7	643,11
378,2	592,624
378,6	541,167
379,1	492,938
379,5	453,11
380	414,081
380,4	380,167
380,9	349,881
381,4	320,167
381,8	295,395
382,3	273,167
382,7	254,852
383,2	232,51
383,6	215,538
384,1	202,624
384,6	190,395
385	180,281
385,5	169,195
385,9	160,224
386,4	156,652
386,8	144,595
387,3	133,738
387,7	119,224
388,2	108,824
388,7	101,652
389,1	94,281
389,6	85,652
390	84,081
390,5	72,852
390,9	66,052
391,4	61,795
391,9	60,795
392,3	57,995
392,8	53,252
393,2	48,252
393,7	52,567
394,1	55,31
394,6	57,052
395,1	55,31
395,5	53,481
396	53,338
396,4	49,738
396,9	42,938
397,3	44,395
397,8	39,795
398,2	33,138
398,7	24,824
399,2	21,738
399,6	21,995
400,1	22,91
400,5	20,367
401	24,11
401,4	21,081
401,9	20,852
402,4	21,224
402,8	26,595
403,3	28,824
403,7	26,824
404,2	23,938
404,6	28,624
405,1	35,624
405,5	36,424
406	35,567
406,5	36,881
406,9	39,624
407,4	39,281
407,8	40,938
408,3	38,31
408,7	37,338
409,2	35,167
409,6	34,367
410,1	34,51
410,6	32,795
411	35,71
411,5	35,452
411,9	34,881
412,4	41,995
412,8	45,938
413,3	47,652
413,7	51,795
414,2	50,138
414,7	52,31
415,1	64,367
415,6	61,281
416	63,538
416,5	70,252
416,9	76,652
417,4	78,51
417,8	88,11
418,3	82,567
418,8	86,31
419,2	87,281
419,7	87,881
420,1	83,767
420,6	89,567
421	90,624
421,5	96,081
421,9	94,881
422,4	99,681
422,8	99,052
423,3	103,395
423,8	102,738
424,2	99,938
424,7	100,595
425,1	99,652
425,6	95,224
426	94,938
426,5	94,795
426,9	94,195
427,4	96,31
427,9	100,081
428,3	105,167
428,8	103,595
429,2	107,71
429,7	108,995
430,1	109,567
430,6	105,052
431	104,681
431,5	105,081
431,9	110,31
432,4	107,052
432,8	113,624
433,3	117,481
433,8	127,424
434,2	129,624
434,7	132,51
435,1	140,795
435,6	147,281
436	146,938
436,5	153,252
436,9	160,567
437,4	165,538
437,8	173,481
438,3	184,195
438,8	195,881
439,2	206,681
439,7	218,538
440,1	223,11
440,6	237,024
441	243,767
441,5	247,367
441,9	252,967
442,4	262,681
442,8	268,995
443,3	281,052
443,7	286,081
444,2	302,91
444,7	317,681
445,1	332,195
445,6	345,681
446	367,252
446,5	380,767
446,9	398,424
447,4	414,338
447,8	430,081
448,3	446,081
448,7	463,31
449,2	476,452
449,6	498,367
450,1	517,938
450,6	539,224
451	562,195
451,5	588,31
451,9	610,881
452,4	631,995
452,8	653,91
453,3	672,824
453,7	699,91
454,2	720,395
454,6	742,51
455,1	769,71
455,5	794,681
456	820,624
456,4	851,824
456,9	878,452
457,3	909,51
457,8	937,595
458,3	967,167
458,7	1002,938
459,2	1035,91
459,6	1069,481
460,1	1098,338
460,5	1131,052
461	1166,967
461,4	1197,852
461,9	1229,652
462,3	1264,167
462,8	1298,71
463,2	1331,424
463,7	1364,281
464,1	1399,51
464,6	1442,71
465	1481,195
465,5	1519,281
466	1562,681
466,4	1607,652
466,9	1650,652
467,3	1690,024
467,8	1725,71
468,2	1764,481
468,7	1809,995
469,1	1844,338
469,6	1881,367
470	1922,224
470,5	1965,452
470,9	2007,252
471,4	2051,31
471,8	2090,081
472,3	2130,367
472,7	2173,481
473,2	2213,167
473,6	2251,795
474,1	2295,567
474,5	2332,452
475	2369,681
475,4	2414,681
475,9	2454,595
476,4	2498,767
476,8	2543,595
477,3	2577,481
477,7	2618,452
478,2	2661,252
478,6	2695,71
479,1	2736,738
479,5	2777,024
480	2812,167
480,4	2854,538
480,9	2893,224
481,3	2923,167
481,8	2961,481
482,2	2991,31
482,7	3024,595
483,1	3052,11
483,6	3085,195
484	3117,824
484,5	3150,538
484,9	3194,995
485,4	3229,052
485,8	3248,652
486,3	3283,395
486,7	3316,71
487,2	3344,595
487,6	3375,052
488,1	3389,681
488,5	3413,567
489	3453,767
489,4	3485,567
489,9	3505,852
490,4	3530,767
490,8	3557,338
491,3	3584,167
491,7	3610,367
492,2	3627,195
492,6	3642,31
493,1	3662,138
493,5	3677,995
494	3698,881
494,4	3712,052
494,9	3734,881
495,3	3745,881
495,8	3760,681
496,2	3773,595
496,7	3791,195
497,1	3795,167
497,6	3810,024
498	3819,652
498,5	3838,51
498,9	3851,824
499,4	3865,938
499,8	3883,852
500,3	3903,252
500,7	3920,51
501,2	3930,938
501,6	3939,71
502,1	3957,567
502,5	3967,91
503	3974,252
503,4	3980,081
503,9	3988,11
504,3	3998,91
504,8	4009,252
505,2	4010,081
505,7	4020,081
506,1	4022,395
506,6	4030,91
507	4035,595
507,5	4037,195
507,9	4046,138
508,4	4055,081
508,8	4057,967
509,3	4071,167
509,7	4080,71
510,2	4089,167
510,6	4099,881
511,1	4102,31
511,5	4113,11
512	4123,138
512,4	4128,167
512,9	4132,138
513,3	4129,681
513,8	4133,795
514,2	4138,767
514,7	4137,167
515,1	4147,852
515,6	4153,281
516	4158,11
516,5	4173,338
516,9	4180,338
517,4	4190,652
517,8	4194,995
518,3	4195,224
518,7	4203,338
519,2	4212,881
519,6	4213,395
520,1	4223,167
520,5	4226,395
521	4231,052
521,4	4236,681
521,9	4234,681
522,3	4244,881
522,8	4253,71
523,2	4257,052
523,7	4262,91
524,1	4268,052
524,6	4276,195
525	4293,424
525,5	4296,481
525,9	4298,138
526,4	4307,852
526,8	4313,795
527,3	4333,967
527,7	4342,852
528,2	4348,424
528,6	4362,481
529,1	4379,824
529,5	4380,224
530	4393,452
530,4	4405,51
530,9	4414,252
531,3	4425,767
531,8	4427,452
532,2	4430,624
532,6	4447,11
533,1	4446,11
533,5	4442,11
534	4446,567
534,4	4445,824
534,9	4453,395
535,3	4464,567
535,8	4475,138
536,2	4491,938
536,7	4504,91
537,1	4521,024
537,6	4536,224
538	4547,481
538,5	4557,481
538,9	4559,624
539,4	4571,852
539,8	4579,252
540,3	4586,938
540,7	4593,167
541,2	4603,138
541,6	4611,624
542,1	4621,31
542,5	4623,195
543	4640,567
543,4	4646,595
543,9	4660,024
544,3	4673,395
544,8	4687,252
545,2	4701,224
545,7	4722,081
546,1	4725,195
546,5	4740,624
547	4745,367
547,4	4750,91
547,9	4753,452
548,3	4758,138
548,8	4762,538
549,2	4777,738
549,7	4780,624
550,1	4791,738
550,6	4804,424
551	4818,652
551,5	4825,824
551,9	4834,224
552,4	4833,224
552,8	4847,138
553,3	4856,51
553,7	4860,767
554,2	4868,738
554,6	4881,824
555,1	4889,567
555,5	4904,195
555,9	4905,224
556,4	4913,081
556,8	4925,881
557,3	4932,852
557,7	4939,624
558,2	4948,424
558,6	4954,167
559,1	4973,052
559,5	4981,024
560	4985,71
560,4	4995,71
560,9	5004,395
561,3	5006,995
561,8	5015,452
562,2	5015,738
562,7	5020,024
563,1	5027,195
563,6	5028,481
564	5036,424
564,4	5043,481
564,9	5051,938
565,3	5056,967
565,8	5064,91
566,2	5063,595
566,7	5074,024
567,1	5077,252
567,6	5078,824
568	5077,138
568,5	5082,538
568,9	5085,395
569,4	5090,31
569,8	5086,224
570,3	5089,767
570,7	5099,395
571,1	5104,11
571,6	5104,11
572	5109,395
572,5	5107,195
572,9	5108,51
573,4	5100,51
573,8	5097,795
574,3	5102,538
574,7	5097,967
575,2	5085,767
575,6	5096,338
576,1	5095,51
576,5	5098,824
576,9	5096,224
577,4	5086,424
577,8	5090,624
578,3	5094,595
578,7	5083,567
579,2	5077,052
579,6	5074,967
580,1	5072,281
580,5	5065,91
581	5061,795
581,4	5056,224
581,9	5047,395
582,3	5048,138
582,7	5032,195
583,2	5027,11
583,6	5024,195
584,1	5013,738
584,5	5003,738
585	4998,795
585,4	4985,767
585,9	4984,024
586,3	4969,681
586,8	4962,995
587,2	4954,11
587,6	4953,567
588,1	4945,71
588,5	4944,51
589	4937,824
589,4	4934,767
589,9	4923,281
590,3	4913,138
590,8	4897,11
591,2	4894,11
591,7	4879,195
592,1	4881,567
592,5	4870,338
593	4862,138
593,4	4855,424
593,9	4851,024
594,3	4847,71
594,8	4842,595
595,2	4830,567
595,7	4827,595
596,1	4819,738
596,6	4811,938
597	4802,767
597,4	4787,11
597,9	4781,424
598,3	4770,338
598,8	4756,595
599,2	4753,024
599,7	4747,995
600,1	4739,167
600,6	4724,967
601	4713,767
601,4	4698,567
601,9	4693,967
602,3	4676,995
602,8	4668,11
603,2	4661,252
603,7	4650,967
604,1	4637,31
604,6	4630,224
605	4617,395
605,4	4607,224
605,9	4590,567
606,3	4576,681
606,8	4572,024
607,2	4563,824
607,7	4548,395
608,1	4540,452
608,6	4527,652
609	4513,595
609,4	4494,767
609,9	4480,081
610,3	4462,138
610,8	4450,11
611,2	4424,681
611,7	4412,052
612,1	4389,995
612,6	4381,51
613	4358,852
613,4	4343,567
613,9	4329,252
614,3	4319,052
614,8	4301,395
615,2	4296,938
615,7	4281,881
616,1	4274,024
616,6	4268,652
617	4250,224
617,4	4232,652
617,9	4221,595
618,3	4202,224
618,8	4187,452
619,2	4164,938
619,7	4139,538
620,1	4125,881
620,5	4105,481
621	4088,852
621,4	4072,452
621,9	4050,91
622,3	4036,51
622,8	4020,738
623,2	4001,795
623,6	3986,252
624,1	3968,167
624,5	3947,995
625	3931,767
625,4	3912,624
625,9	3897,395
626,3	3883,452
626,8	3861,481
627,2	3838,852
627,6	3827,252
628,1	3804,11
628,5	3786,938
629	3763,567
629,4	3744,738
629,9	3737,481
630,3	3722,71
630,7	3692,424
631,2	3675,938
631,6	3658,881
632,1	3640,881
632,5	3614,995
633	3591,081
633,4	3571,367
633,8	3563,681
634,3	3546,11
634,7	3533,881
635,2	3517,281
635,6	3501,367
636,1	3486,91
636,5	3466,681
636,9	3450,052
637,4	3429,51
637,8	3406,452
638,3	3384,452
638,7	3370,995
639,2	3355,738
639,6	3337,252
640	3316,31
640,5	3298,852
640,9	3276,91
641,4	3260,767
641,8	3238,395
642,2	3218,567
642,7	3201,395
643,1	3181,31
643,6	3171,281
644	3157,681
644,5	3147,624
644,9	3138,424
645,3	3120,424
645,8	3107,824
646,2	3094,024
646,7	3070,338
647,1	3059,624
647,6	3041,452
648	3015,995
648,4	3001,338
648,9	2985,938
649,3	2967,824
649,8	2959,538
650,2	2941,795
650,6	2930,652
651,1	2919,824
651,5	2902,31
652	2888,481
652,4	2875,167
652,9	2859,938
653,3	2843,652
653,7	2824,624
654,2	2809,195
654,6	2796,71
655,1	2776,395
655,5	2764,795
655,9	2750,967
656,4	2736,167
656,8	2718,224
657,3	2698,881
657,7	2677,481
658,2	2664,967
658,6	2648,824
659	2633,11
659,5	2613,195
659,9	2592,938
660,4	2581,024
660,8	2571,024
661,2	2552,595
661,7	2537,31
662,1	2522,281
662,6	2505,281
663	2493,252
663,4	2480,652
663,9	2462,367
664,3	2452,138
664,8	2434,538
665,2	2412,024
665,6	2401,738
666,1	2387,51
666,5	2366,195
667	2349,338
667,4	2330,624
667,9	2315,852
668,3	2304,11
668,7	2288,71
669,2	2273,424
669,6	2260,452
670,1	2247,167
670,5	2236,652
670,9	2224,538
671,4	2207,395
671,8	2191,681
672,3	2179,11
672,7	2169,767
673,1	2154,738
673,6	2134,738
674	2117,424
674,5	2104,395
674,9	2091,51
675,3	2075,252
675,8	2060,538
676,2	2049,024
676,7	2035,281
677,1	2024,681
677,5	2011,852
678	2000,367
678,4	1991,052
678,9	1976,138
679,3	1966,452
679,7	1958,624
680,2	1942,595
680,6	1933,767
681,1	1921,452
681,5	1905,824
681,9	1889,367
682,4	1875,224
682,8	1861,91
683,3	1846,71
683,7	1836,567
684,1	1821,538
684,6	1810,938
685	1804,224
685,5	1793,824
685,9	1785,024
686,3	1776,395
686,8	1760,424
687,2	1748,681
687,7	1736,767
688,1	1725,595
688,5	1714,824
689	1701,367
689,4	1692,052
689,9	1682,938
690,3	1676,024
690,7	1665,738
691,2	1646,681
691,6	1636,252
692	1623,195
692,5	1607,424
692,9	1592,881
693,4	1576,91
693,8	1568,938
694,2	1563,252
694,7	1545,595
695,1	1541,224
695,6	1534,081
696	1528,024
696,4	1519,681
696,9	1504,195
697,3	1489,881
697,8	1481,338
698,2	1462,538
698,6	1451,795
699,1	1447,567
699,5	1434,024
699,9	1425,567
700,4	1421,767
700,8	1413,395
701,3	1406,652
701,7	1397,767
702,1	1379,167
702,6	1371,91
703	1363,367
703,5	1351,395
703,9	1337,167
704,3	1328,138
704,8	1321,395
705,2	1310,167
705,6	1303,881
706,1	1290,738
706,5	1286,795
707	1284,967
707,4	1276,31
707,8	1262,424
708,3	1258,31
708,7	1241,281
709,2	1235,567
709,6	1221,881
710	1211,481
710,5	1207,138
710,9	1199,167
711,3	1183,395
711,8	1181,195
712,2	1175,967
712,7	1169,195
713,1	1161,11
713,5	1145,195
714	1141,024
714,4	1136,281
714,8	1125,281
715,3	1111,881
715,7	1102,995
716,2	1096,624
716,6	1088,738
717	1078,31
717,5	1071,538
717,9	1067,767
718,3	1063,31
718,8	1058,91
719,2	1049,452
719,7	1045,881
720,1	1037,452
720,5	1026,567
721	1015,081
721,4	1008,424
721,8	1000,424
722,3	994,452
722,7	988,767
723,2	981,795
723,6	978,195
724	970,31
724,5	959,795
724,9	957,938
725,3	947,138
725,8	936,624
726,2	924,481
726,7	920,224
727,1	912,91
727,5	906,567
728	894,138
728,4	890,767
728,8	882,224
729,3	879,281
729,7	873,452
730,1	864,967
730,6	860,738
731	854,767
731,5	851,11
731,9	851,481
732,3	846,395
732,8	837,224
733,2	837,31
733,6	836,195
734,1	826,51
734,5	820,881
734,9	806,481
735,4	802,481
735,8	794,938
736,3	789,938
736,7	781,338
737,1	777,195
737,6	769,395
738	769,281
738,4	764,195
738,9	764,538
739,3	761,681
739,7	757,424
740,2	755,652
740,6	752,595
741,1	746,595
741,5	745,652
741,9	739,224
742,4	730,824
742,8	723,424
743,2	723,167
743,7	711,31
744,1	710,71
744,5	702,852
745	695,367
745,4	694,595
745,8	688,052
746,3	678,481
746,7	679,252
747,2	669,795
747,6	659,881
748	654,967
748,5	644,738
748,9	639,51
749,3	633,367
749,8	629,424
750,2	626,195
750,6	633,081
751,1	631,795
751,5	630,567
751,9	633,281
752,4	629,167
752,8	623,395
753,3	619,395
753,7	606,081
754,1	600,595
754,6	593,71
755	583,852
755,4	582,281
755,9	579,995
756,3	578,652
756,7	578,252
757,2	573,681
757,6	570,881
758	568,624
758,5	564,852
758,9	557,481
759,3	548,195
759,8	545,052
760,2	540,281
760,6	537,452
761,1	532,31
761,5	530,767
761,9	530,252
762,4	529,281
762,8	523,481
763,3	516,624
763,7	512,167
764,1	513,452
764,6	506,51
765	501,91
765,4	500,367
765,9	499,138
766,3	498,567
766,7	496,452
767,2	494,624
767,6	491,31
768	489,424
768,5	485,91
768,9	480,652
769,3	479,024
769,8	476,795
770,2	467,138
770,6	467,281
771,1	463,624
771,5	462,567
771,9	462,71
772,4	457,681
772,8	452,024
773,2	452,252
773,7	444,338
774,1	440,795
774,5	431,681
775	425,31
775,4	423,852
775,8	420,595
776,3	417,195
776,7	411,652
777,1	406,081
777,6	402,852
778	399,252
778,4	398,51
778,9	395,281
779,3	391,395
779,7	392,195
780,2	396,167
780,6	392,738
781	390,967
781,5	388,167
781,9	389,624
782,3	386,852
782,8	388,481
783,2	377,51
783,6	382,338
784,1	380,024
784,5	374,081
784,9	367,967
785,4	363,824
785,8	359,224
786,2	355,71
786,7	349,338
787,1	346,881
787,5	349,11
788	346,31
788,4	344,052
788,8	339,024
789,3	337,852
789,7	339,024
790,1	336,852
790,6	328,224
791	328,995
791,4	329,681
791,9	325,967
792,3	327,881
792,7	318,052
793,2	317,51
793,6	318,995
794	313,995
794,5	305,624
794,9	306,11
795,3	302,138
795,8	300,395
796,2	289,595
796,6	287,452
797,1	278,71
797,5	281,91
797,9	278,967
798,4	273,281
798,8	273,595
799,2	281,71
799,7	277,452
800,1	281,824
800,5	277,11
801	275,481
801,4	282,367
801,8	277,281
802,2	271,91
802,7	273,852
803,1	269,852
803,5	267,967
804	265,481
804,4	260,195
804,8	261,91
805,3	257,624
805,7	251,995
806,1	253,738
806,6	247,167
807	248,481
807,4	242,31
807,9	236,538
808,3	233,881
808,7	231,138
809,2	228,71
809,6	233,881
810	225,452
810,4	223,824
810,9	222,481
811,3	223,338
811,7	225,424
812,2	220,71
812,6	212,281
813	210,681
813,5	206,11
813,9	203,938
814,3	198,052
814,8	190,567
815,2	190,938
815,6	191,652
816,1	189,767
816,5	194,71
816,9	193,738
817,3	193,252
817,8	192,681
818,2	191,595
818,6	191,567
819,1	190,71
819,5	183,881
819,9	185,224
820,4	189,224
820,8	186,167
821,2	184,624
821,7	183,795
822,1	182,824
822,5	184,024
822,9	180,71
823,4	178,224
823,8	177,195
824,2	174,91
824,7	173,252
825,1	167,681
825,5	167,224
826	166,767
826,4	162,51
826,8	164,738
827,3	163,995
827,7	162,71
828,1	169,481
828,5	164,567
829	159,938
829,4	155,367
829,8	152,538
830,3	151,252
830,7	147,995
831,1	147,052
831,6	147,338
832	152,538
832,4	153,995
832,8	147,51
833,3	147,538
833,7	145,624
834,1	141,395
834,6	138,424
835	134,024
835,4	131,852
835,8	137,11
836,3	135,281
836,7	136,024
837,1	134,252
837,6	135,738
838	134,595
838,4	134,395
838,9	133,024
839,3	135,167
839,7	135,738
840,1	127,795
840,6	131,738
841	132,595
841,4	134,881
841,9	131,11
842,3	126,567
842,7	124,767
843,1	130,967
843,6	126,167
844	123,567
844,4	122,767
844,9	121,481
845,3	118,51
845,7	113,481
846,2	109,938
846,6	106,51
847	105,424
847,4	97,281
847,9	96,367
848,3	101,367
848,7	104,452
849,2	105,595
849,6	103,31
850	101,624
850,4	105,11
850,9	101,91
851,3	97,11
851,7	94,052
852,2	95,052
852,6	93,281
853	91,452
853,4	91,424
853,9	93,338
854,3	91,224
854,7	91,91
855,2	89,995
855,6	92,652
856	94,738
856,4	94,395
856,9	97,538
857,3	95,367
857,7	94,224
858,2	89,995
858,6	90,11
859	84,31
859,4	85,71
859,9	83,081
860,3	84,51
860,7	85,138
861,1	85,281
861,6	88,71
862	89,767
862,4	82,424
862,9	79,11
863,3	74,395
863,7	73,281
864,1	72,024
864,6	65,738
865	71,31
865,4	73,11
865,9	74,452
866,3	81,31
866,7	83,167
867,1	87,024
867,6	90,51
868	90,852
868,4	91,11
868,8	89,224
869,3	88,681
869,7	85,338
870,1	81,652
870,6	71,91
871	57,995
871,4	54,91
871,8	56,967
872,3	52,081
872,7	52,195
873,1	54,395
873,5	61,024
874	60,681
874,4	60,538
874,8	62,795
875,3	61,538
875,7	56,195
876,1	53,652
876,5	50,538
877	56,338
877,4	60,395
877,8	60,052
878,2	59,738
878,7	66,481
879,1	64,852
879,5	64,024
879,9	67,424
880,4	65,11
880,8	62,481
881,2	65,224
881,7	61,538
882,1	65,11
882,5	69,481
882,9	63,738
883,4	61,624
883,8	59,967
884,2	53,652
884,6	54,852
885,1	53,167
885,5	47,567
885,9	47,681
886,3	50,11
886,8	49,824
887,2	49,767
887,6	44,281
888	41,567
888,5	43,538
888,9	48,138
889,3	42,738
889,8	44,31
890,2	45,424
890,6	48,852
891	49,91
891,5	50,881
891,9	46,481
892,3	45,167
892,7	43,481
893,2	44,51
893,6	41,881
894	41,167
894,4	39,338
894,9	37,224
895,3	40,224
895,7	36,624
896,1	38,052
896,6	41,281
897	36,595
897,4	40,052
897,8	43,652
898,3	46,595
898,7	44,252
899,1	44,652
899,5	39,881
900	42,567
900,4	38,567
900,8	36,567
901,2	29,738
901,7	30,481
902,1	33,052
902,5	33,91
902,9	30,338
903,4	30,481
903,8	30,738
904,2	30,938
904,6	34,281
905,1	33,395
905,5	38,252
905,9	40,767
906,3	33,967
906,8	33,538
907,2	35,11
907,6	34,081
908	27,367
908,5	25,538
908,9	25,195
909,3	29,938
909,7	30,252
910,2	34,795
910,6	31,338
911	27,967
911,4	23,51
911,9	23,367
912,3	21,624
912,7	18,338
913,1	10,71
913,6	8,995
914	14,824
914,4	11,852
914,8	11,567
915,3	10,652
915,7	14,052
916,1	17,767
916,5	23,681
916,9	20,624
917,4	26,024
917,8	21,538
918,2	22,338
918,6	19,824
919,1	18,91
919,5	17,252
919,9	18,424
920,3	19,11
920,8	25,71
921,2	24,995
921,6	26,081
922	27,681
922,5	27,024
922,9	27,995
923,3	27,51
923,7	27,481
924,2	26,652
924,6	27,167
925	27,252
925,4	25,024
925,8	28,567
926,3	26,767
926,7	24,91
927,1	27,081
927,5	28,31
928	27,281
928,4	28,452
928,8	24,538
929,2	24,995
929,7	26,624
930,1	27,195
930,5	26,31
930,9	23,795
931,3	25,024
931,8	20,452
932,2	23,252
932,6	20,452
933	19,395
933,5	20,538
933,9	18,195
934,3	20,567
934,7	21,167
935,2	19,738
935,6	22,91
936	17,938
936,4	15,224
936,8	19,538
937,3	14,995
937,7	14,624
938,1	5,281
938,5	1,681
939	7,538
939,4	6,081
939,8	4,567
940,2	1,71
940,6	2,852
941,1	8,338
941,5	10,052
941,9	13,595
942,3	11,795
942,8	12,167
943,2	19,652
943,6	20,738
944	24,481
944,4	27,567
944,9	18,424
945,3	21,252
945,7	21,338
946,1	17,281
946,6	16,824
947	15,138
947,4	9,652
947,8	13,224
948,2	9,281
948,7	7,195
949,1	8,167
949,5	7,167
949,9	4,024
950,3	4,595
950,8	7,51
951,2	9,252
951,6	12,51
952	9,824
952,5	8,71
952,9	9,595
953,3	7,538
953,7	1,938
954,1	6,538
954,6	4,652
955	5,852
955,4	14,538
955,8	16,738
956,2	21,338
956,7	21,595
957,1	14,595
957,5	13,938
957,9	13,91
958,3	4,481
958,8	0,252
959,2	-5,976
959,6	-2,376
960	2,71
960,5	0,738
960,9	2,624
961,3	5,824
961,7	7,652
962,1	13,11
962,6	9,167
963	5,51
963,4	10,71
963,8	10,052
964,2	11,424
964,7	13,395
965,1	6,881
965,5	9,481
965,9	12,967
966,3	8,824
966,8	9,052
967,2	3,91
967,6	3,452
968	6,681
968,4	6,481
968,9	6,681
969,3	6,452
969,7	2,881
970,1	4,081
970,5	0,281
971	1,595
971,4	0,595
971,8	-1,376
972,2	1,51
972,6	4,767
973,1	3,595
973,5	4,538
973,9	3,767
974,3	5,052
974,7	3,91
975,2	4,024
975,6	0,681
976	2,281
976,4	1,881
976,8	0,195
977,3	3,452
977,7	2,852
978,1	-0,033
978,5	-1,119
978,9	0,424
979,4	1,024
979,8	2,138
980,2	-2,633
980,6	0,481
981	2,024
981,5	1,71
981,9	-0,233
982,3	2,91
982,7	2,938
983,1	1,538
983,6	2,081
984	-2,09
984,4	-1,205
984,8	-0,548
985,2	-2,176
985,6	-4,148
986,1	-2,29
986,5	-7,062
986,9	-2,919
987,3	-3,205
987,7	-1,148
988,2	0,167
988,6	2,281
989	2,224
989,4	8,138
989,8	7,767
990,3	7,852
990,7	7,51
991,1	9,595
991,5	6,824
991,9	3,281
992,3	-3,662
992,8	-4,862
993,2	-3,605
993,6	-4,348
994	-12,748
994,4	-1,319
994,9	3,681
995,3	11,681
995,7	10,51
996,1	10,967
996,5	6,538
996,9	7,938
997,4	0,424
997,8	2,338
998,2	-4,262
998,6	0,052
999	3,195
999,5	6,424
999,9	8,881
1000,3	9,738
1000,7	5,967
1001,1	5,481
1001,5	3,138
1002	0,538
1002,4	3,738
1002,8	5,795
1003,2	7,167
1003,6	6,281
1004	11,338
1004,5	6,681
1004,9	4,081
1005,3	0,338
1005,7	-3,748
1006,1	-5,776
1006,6	-3,976
1007	-5,405
1007,4	-5,09
1007,8	-3,49
1008,2	0,138
1008,6	2,681
1009,1	1,795
1009,5	3,11
1009,9	2,652
1010,3	6,738
1010,7	9,738
1011,1	10,538
1011,6	12,081
1012	10,224
1012,4	14,71
1012,8	11,767
1013,2	12,538
1013,6	9,452
1014,1	4,081
1014,5	-1,062
1014,9	3,852
1015,3	-4,348
1015,7	-2,433
1016,1	-4,89
1016,6	-4,548
1017	2,995
1017,4	6,367
1017,8	-2,233
1018,2	1,681
1018,6	0,881
1019,1	2,424
1019,5	1,024
1019,9	-3,376
1020,3	-2,662
1020,7	0,967
1021,1	1,052
1021,6	1,795
1022	1,91
1022,4	5,624
1022,8	1,452
1023,2	-0,662
1023,6	-0,176
1024,1	-3,319
1024,5	-4,005
1024,9	-0,433
1025,3	-3,005
1025,7	-2,376
1026,1	0,424
1026,6	3,91
1027	3,538
1027,4	9,395
1027,8	1,824
1028,2	-0,719
1028,6	2,738
1029	0,195
1029,5	-0,09
1029,9	3,081
1030,3	0,367
1030,7	5,767
1031,1	9,938
1031,5	9,852
1032	9,51
1032,4	9,024
1032,8	6,424
1033,2	4,138
1033,6	3,767
1034	2,595
1034,4	1,624
1034,9	5,138
1035,3	6,995
1035,7	7,252
1036,1	8,195
1036,5	9,424
1036,9	10,081
1037,4	12,681
1037,8	11,938
1038,2	5,738
1038,6	7,052
1039	9,138
1039,4	11,881
1039,8	12,967
1040,3	16,31
1040,7	13,31
1041,1	17,538
1041,5	18,51
1041,9	15,11
1042,3	9,395
1042,7	2,081
1043,2	-6,233
1043,6	-0,09
1044	2,11
1044,4	2,452
1044,8	-0,262
1045,2	0,195
1045,6	6,71
1046,1	9,052
1046,5	3,51
1046,9	-0,919
1047,3	0,281
1047,7	4,31
1048,1	2,395
1048,5	2,767
1049	7,624
1049,4	9,138
1049,8	7,31
1050,2	5,595
1050,6	3,367
1051	2,338
1051,4	1,681
1051,9	-4,462
1052,3	-4,805
1052,7	0,081
1053,1	1,995
1053,5	4,71
1053,9	9,224
1054,3	4,395
1054,8	4,167
1055,2	0,11
1055,6	-1,519
1056	-8,405
1056,4	-6,919
1056,8	-5,005
1057,2	0,681
1057,6	2,395
1058,1	9,681
1058,5	9,338
1058,9	8,652
1059,3	7,338
1059,7	0,281
1060,1	-3,805
1060,5	-4,062
1061	-7,233
1061,4	-4,519
1061,8	-2,062
1062,2	-5,948
1062,6	2,138
1063	6,538
1063,4	7,567
1063,8	8,138
1064,3	5,795
1064,7	10,738
1065,1	15,71
1065,5	18,31
1065,9	14,967
1066,3	15,852
1066,7	12,967
1067,1	14,652
1067,6	10,681
1068	9,567
1068,4	1,138
1068,8	0,795
1069,2	-1,376
1069,6	-0,405
1070	-0,376
1070,4	1,795
1070,9	2,052
1071,3	7,595
1071,7	8,995
1072,1	9,395
1072,5	11,71
1072,9	9,31
1073,3	9,31
1073,7	10,252
1074,2	7,595
1074,6	6,738
1075	8,967
1075,4	6,567
1075,8	6,595
1076,2	8,938
1076,6	10,31
1077	8,852
1077,5	13,31
1077,9	12,395
1078,3	12,395
1078,7	8,081
1079,1	3,995
1079,5	-1,662
1079,9	-1,919
1080,3	-5,033
1080,7	-6,548
1081,2	-1,09
1081,6	1,938
1082	3,967
1082,4	1,281
1082,8	4,024
1083,2	5,538
1083,6	3,652
1084	-1,233
1084,5	4,367
1084,9	-2,576
1085,3	-0,033
1085,7	-0,833
1086,1	-1,805
1086,5	3,224
1086,9	0,938
1087,3	-6,633
1087,7	-2,49
1088,2	-0,148
1088,6	0,995
1089	-2,776
1089,4	-7,748
1089,8	-8,605
1090,2	-6,119
1090,6	-4,376
1091	-2,833
1091,4	-6,405
1091,9	-0,805
1092,3	3,024
1092,7	7,367
1093,1	6,567
1093,5	3,11
1093,9	1,51
1094,3	5,538
1094,7	1,91
1095,1	2,71
1095,5	-0,805
1096	1,338
1096,4	4,081
1096,8	1,424
1097,2	-0,576
1097,6	3,024
1098	1,595
1098,4	3,052
1098,8	0,31
1099,2	-4,319
1099,6	-2,548
1100,1	-4,605
1100,5	-6,233
1100,9	-5,262
1101,3	-0,833
1101,7	-1,519
1102,1	3,367
1102,5	1,224
1102,9	-2,862
1103,3	-3,262
1103,7	-5,976
1104,2	-6,376
1104,6	1,138
1105	1,767
1105,4	4,367
1105,8	9,567
1106,2	8,767
1106,6	8,91
1107	6,081
1107,4	1,767
1107,8	0,647
1108,3	0,067
