Data from Subt2_00076.txt Node
Date: Mon Aug 28 13:30:06 MSK 2023
User: vat
Spectrometer: MAYP114033
Trigger mode: 0
Integration Time (sec): 1,000000E0
Scans to average: 5
Electric dark correction enabled: true
Nonlinearity correction enabled: false
Boxcar width: 3
XAxis mode: Wavelengths
Number of Pixels in Spectrum: 2068
>>>>>Begin Spectral Data<<<<<
199,4	-0,533
199,9	0,507
200,4	2,567
200,8	3,21
201,3	2,61
201,8	3,552
202,2	5,438
202,7	5,295
203,2	5,352
203,6	4,41
204,1	4,981
204,6	5,152
205	2,61
205,5	0,524
206	-2,79
206,4	-0,762
206,9	1,61
207,4	-1,962
207,8	-0,133
208,3	1,495
208,8	0,524
209,2	8,038
209,7	7,467
210,2	4,495
210,6	7,467
211,1	9,352
211,5	11,124
212	13,495
212,5	9,267
212,9	5,81
213,4	8,295
213,9	5,467
214,3	5,867
214,8	3,324
215,3	2,867
215,7	6,81
216,2	8,495
216,7	9,238
217,1	9,667
217,6	6,724
218,1	8,581
218,5	6,152
219	1,981
219,5	5,01
219,9	5,152
220,4	9,61
220,9	8,981
221,3	9,124
221,8	11,41
222,3	16,381
222,7	16,581
223,2	9,267
223,6	3,952
224,1	5,695
224,6	6,21
225	7,152
225,5	2,752
226	-1,19
226,4	6,41
226,9	10,21
227,4	16,981
227,8	17,267
228,3	12,438
228,8	13,324
229,2	17,238
229,7	13,724
230,2	14,981
230,6	5,467
231,1	3,981
231,5	11,181
232	12,41
232,5	5,267
232,9	5,352
233,4	4,324
233,9	9,067
234,3	9,867
234,8	9,438
235,3	10,924
235,7	15,067
236,2	13,152
236,7	9,295
237,1	6,981
237,6	7,01
238,1	6,324
238,5	6,038
239	6,467
239,4	8,867
239,9	10,695
240,4	12,267
240,8	14,41
241,3	14,752
241,8	9,352
242,2	5,724
242,7	4,21
243,2	10,438
243,6	10,324
244,1	6,895
244,6	-1,19
245	2,295
245,5	2,924
245,9	8,295
246,4	4,267
246,9	4,524
247,3	7,552
247,8	12,638
248,3	15,01
248,7	17,267
249,2	12,181
249,7	16,152
250,1	11,21
250,6	8,01
251	4,495
251,5	-3,99
252	-4,705
252,4	-6,648
252,9	-7,79
253,4	-3,162
253,8	-2,848
254,3	2,181
254,8	7,438
255,2	3,752
255,7	6,238
256,1	1,61
256,6	2,038
257,1	2,238
257,5	-0,79
258	-2,933
258,5	2,724
258,9	1,924
259,4	4,124
259,9	-4,905
260,3	-6,019
260,8	-3,705
261,2	2,952
261,7	6,638
262,2	8,01
262,6	7,152
263,1	12,067
263,6	8,81
264	9,981
264,5	9,61
264,9	5,124
265,4	4,524
265,9	5,381
266,3	5,295
266,8	11,152
267,3	6,924
267,7	4,638
268,2	5,724
268,7	7,295
269,1	0,724
269,6	1,467
270	-4,305
270,5	4,01
271	0,181
271,4	-3,248
271,9	-5,048
272,4	2,467
272,8	4,038
273,3	5,295
273,7	-5,248
274,2	-4,219
274,7	-0,333
275,1	-1,019
275,6	1,724
276,1	2,924
276,5	7,21
277	14,61
277,4	17,152
277,9	10,552
278,4	11,095
278,8	6,41
279,3	2,21
279,8	3,981
280,2	3,895
280,7	4,267
281,1	7,552
281,6	9,181
282,1	8,467
282,5	15,895
283	13,181
283,4	11,81
283,9	11,667
284,4	12,21
284,8	10,238
285,3	6,552
285,8	2,467
286,2	-0,676
286,7	-2,448
287,1	-6,19
287,6	-5,505
288,1	-5,905
288,5	-1,676
289	-4,219
289,5	1,638
289,9	2,21
290,4	4,095
290,8	5,952
291,3	12,267
291,8	11,781
292,2	15,524
292,7	11,524
293,1	12,467
293,6	13,752
294,1	11,781
294,5	7,61
295	9,524
295,5	8,752
295,9	10,952
296,4	11,381
296,8	8,61
297,3	8,781
297,8	11,124
298,2	8,981
298,7	7,124
299,1	6,267
299,6	5,838
300,1	7,724
300,5	10,238
301	10,01
301,5	8,981
301,9	6,267
302,4	4,81
302,8	4,267
303,3	6,638
303,8	8,324
304,2	4,838
304,7	4,267
305,1	4,095
305,6	4,781
306,1	4,295
306,5	-0,59
307	-5,905
307,4	-8,248
307,9	-7,076
308,4	-5,305
308,8	-2,562
309,3	-0,676
309,8	-1,333
310,2	-2,162
310,7	2,81
311,1	1,838
311,6	0,267
312,1	-4,305
312,5	-5,248
313	-3,39
313,4	3,067
313,9	-3,99
314,4	-4,59
314,8	2,895
315,3	8,352
315,7	6,752
316,2	6,61
316,7	5,095
317,1	9,295
317,6	12,924
318	8,152
318,5	3,01
319	5,352
319,4	7,324
319,9	3,695
320,3	4,21
320,8	-0,648
321,3	0,21
321,7	4,952
322,2	-1,905
322,6	0,752
323,1	-0,876
323,6	2,981
324	2,952
324,5	5,295
324,9	6,21
325,4	9,667
325,9	7,81
326,3	9,952
326,8	4,181
327,2	4,781
327,7	3,295
328,2	0,752
328,6	7,067
329,1	0,352
329,5	0,067
330	2,952
330,5	9,495
330,9	5,438
331,4	1,381
331,8	-3,962
332,3	3,867
332,8	2,638
333,2	3,81
333,7	-4,305
334,1	-5,39
334,6	-4,048
335,1	1,095
335,5	-6,276
336	-2,505
336,4	-2,162
336,9	2,01
337,4	5,61
337,8	7,095
338,3	2,638
338,7	7,524
339,2	2,724
339,7	0,838
340,1	-0,676
340,6	0,152
341	1,581
341,5	0,124
342	0,324
342,4	-4,219
342,9	-2,905
343,3	0,124
343,8	2,181
344,2	3,61
344,7	1,867
345,2	1,124
345,6	7,295
346,1	3,238
346,5	2,038
347	-2,99
347,5	-0,876
347,9	-2,276
348,4	-0,99
348,8	-0,048
349,3	-1,362
349,8	-3,819
350,2	-0,133
350,7	-2,876
351,1	-0,79
351,6	-6,962
352	-7,476
352,5	-3,819
353	-0,505
353,4	-3,419
353,9	-3,333
354,3	5,267
354,8	8,352
355,3	11,352
355,7	15,067
356,2	14,238
356,6	17,095
357,1	20,067
357,5	15,067
358	22,21
358,5	24,981
358,9	25,038
359,4	32,61
359,8	35,667
360,3	35,552
360,8	46,095
361,2	50,752
361,7	60,552
362,1	71,581
362,6	79,61
363	94,524
363,5	108,552
364	118,21
364,4	132,095
364,9	140,381
365,3	152,295
365,8	175,781
366,3	189,524
366,7	199,495
367,2	207,352
367,6	221,124
368,1	230,381
368,5	236,524
369	230,638
369,5	230,381
369,9	237,295
370,4	239,981
370,8	229,524
371,3	228,152
371,7	225,352
372,2	222,038
372,7	216,838
373,1	210,295
373,6	202,038
374	197,21
374,5	188,181
374,9	181,438
375,4	170,867
375,9	165,124
376,3	150,095
376,8	141,924
377,2	135,381
377,7	125,952
378,2	116,095
378,6	111,695
379,1	98,21
379,5	95,867
380	89,352
380,4	81,952
380,9	77,552
381,4	72,495
381,8	65,924
382,3	63,067
382,7	58,81
383,2	53,01
383,6	52,981
384,1	52,724
384,6	51,095
385	49,952
385,5	50,895
385,9	49,038
386,4	52,895
386,8	47,952
387,3	45,381
387,7	43,41
388,2	41,324
388,7	35,21
389,1	30,295
389,6	28,067
390	29,438
390,5	27,152
390,9	24,238
391,4	20,038
391,9	22,524
392,3	28,838
392,8	29,152
393,2	28,038
393,7	31,038
394,1	28,895
394,6	31,01
395,1	31,952
395,5	28,352
396	22,095
396,4	16,695
396,9	12,724
397,3	19,495
397,8	15,067
398,2	9,438
398,7	6,038
399,2	9,381
399,6	12,952
400,1	7,038
400,5	4,095
401	11,038
401,4	9,895
401,9	8,124
402,4	5,381
402,8	8,695
403,3	13,952
403,7	12,61
404,2	7,352
404,6	9,467
405,1	16,124
405,5	20,352
406	18,981
406,5	16,952
406,9	20,352
407,4	21,41
407,8	23,924
408,3	20,095
408,7	15,667
409,2	13,01
409,6	15,867
410,1	15,352
410,6	12,438
411	12,495
411,5	7,352
411,9	7,581
412,4	8,152
412,8	3,952
413,3	0,838
413,7	3,724
414,2	2,752
414,7	5,124
415,1	7,01
415,6	6,838
416	11,638
416,5	17,352
416,9	19,095
417,4	21,895
417,8	25,867
418,3	24,21
418,8	26,095
419,2	24,495
419,7	23,267
420,1	17,467
420,6	18,61
421	18,038
421,5	23,038
421,9	21,467
422,4	25,01
422,8	22,552
423,3	29,638
423,8	25,581
424,2	26,467
424,7	27,295
425,1	27,41
425,6	24,295
426	23,324
426,5	19,41
426,9	19,895
427,4	26,952
427,9	25,838
428,3	29,238
428,8	29,752
429,2	33,667
429,7	42,124
430,1	45,838
430,6	37,524
431	37,181
431,5	33,781
431,9	35,01
432,4	27,381
432,8	21,067
433,3	17,152
433,8	19,467
434,2	18,981
434,7	17,867
435,1	22,81
435,6	25,667
436	26,038
436,5	29,438
436,9	29,01
437,4	30,01
437,8	34,495
438,3	30,095
438,8	35,667
439,2	42,724
439,7	43,152
440,1	45,667
440,6	45,181
441	42,01
441,5	41,238
441,9	33,552
442,4	31,524
442,8	33,638
443,3	33,038
443,7	27,552
444,2	29,41
444,7	33,952
445,1	41,581
445,6	38,895
446	37,524
446,5	39,41
446,9	46,667
447,4	51,095
447,8	51,381
448,3	53,152
448,7	58,952
449,2	63,552
449,6	65,81
450,1	65,124
450,6	68,752
451	69,238
451,5	74,838
451,9	74,552
452,4	71,981
452,8	68,752
453,3	73,038
453,7	70,838
454,2	71,981
454,6	66,295
455,1	70,095
455,5	71,524
456	76,581
456,4	78,524
456,9	77,61
457,3	77,152
457,8	79,895
458,3	73,752
458,7	77,781
459,2	78,695
459,6	77,695
460,1	85,781
460,5	88,867
461	90,21
461,4	97,524
461,9	95,495
462,3	95,81
462,8	99,552
463,2	96,095
463,7	100,352
464,1	100,895
464,6	100,01
465	104,324
465,5	109,124
466	112,924
466,4	117,152
466,9	115,352
467,3	117,581
467,8	122,352
468,2	125,895
468,7	131,781
469,1	133,581
469,6	132,752
470	136,724
470,5	140,638
470,9	142,981
471,4	149,352
471,8	145,867
472,3	143,238
472,7	145,381
473,2	148,41
473,6	148,981
474,1	148,638
474,5	143,981
475	149,21
475,4	154,095
475,9	158,952
476,4	157,838
476,8	161,295
477,3	163,81
477,7	168,152
478,2	167,181
478,6	167,81
479,1	170,438
479,5	174,581
480	181,295
480,4	180,438
480,9	179,238
481,3	179,638
481,8	183,181
482,2	184,152
482,7	188,952
483,1	180,61
483,6	180,552
484	179,638
484,5	179,381
484,9	182,81
485,4	184,838
485,8	183,838
486,3	189,01
486,7	197,352
487,2	206,067
487,6	206,524
488,1	205,238
488,5	198,952
489	200,467
489,4	202,581
489,9	197,495
490,4	191,695
490,8	196,21
491,3	199,524
491,7	207,924
492,2	207,667
492,6	205,152
493,1	209,61
493,5	215,267
494	221,552
494,4	217,752
494,9	217,981
495,3	217,352
495,8	221,41
496,2	219,667
496,7	222,124
497,1	215,752
497,6	219,895
498	223,295
498,5	224,952
498,9	228,981
499,4	228,01
499,8	227,381
500,3	236,81
500,7	235,41
501,2	231,01
501,6	231,238
502,1	235,381
502,5	239,867
503	243,895
503,4	238,752
503,9	243,838
504,3	245,61
504,8	245,838
505,2	245,095
505,7	248,467
506,1	240,867
506,6	239,438
507	239,867
507,5	240,295
507,9	247,724
508,4	248,667
508,8	246,295
509,3	250,438
509,7	253,895
510,2	256,81
510,6	260,21
511,1	256,095
511,5	252,581
512	252,438
512,4	256,238
512,9	255,981
513,3	253,895
513,8	255,181
514,2	257,895
514,7	257,981
515,1	266,095
515,6	268,067
516	268,981
516,5	269,038
516,9	268,838
517,4	266,381
517,8	269,01
518,3	264,752
518,7	266,41
519,2	274,924
519,6	276,21
520,1	279,524
520,5	279,467
521	277,867
521,4	283,952
521,9	279,152
522,3	278,41
522,8	277,41
523,2	277,61
523,7	285,61
524,1	287,867
524,6	283,981
525	289,181
525,5	285,067
525,9	291,095
526,4	293,524
526,8	290,467
527,3	292,895
527,7	297,952
528,2	299,067
528,6	306,095
529,1	310,438
529,5	312,524
530	320,324
530,4	322,495
530,9	325,81
531,3	328,038
531,8	325,752
532,2	318,124
532,6	319,81
533,1	317,238
533,5	320,895
534	317,638
534,4	315,495
534,9	318,724
535,3	330,867
535,8	334,352
536,2	333,895
536,7	331,095
537,1	337,81
537,6	339,952
538	343,21
538,5	340,467
538,9	338,095
539,4	341,038
539,8	348,495
540,3	346,524
540,7	347,324
541,2	347,295
541,6	347,324
542,1	349,752
542,5	347,981
543	345,381
543,4	342,838
543,9	346,524
544,3	347,381
544,8	349,038
545,2	348,667
545,7	357,152
546,1	356,895
546,5	365,181
547	366,924
547,4	367,124
547,9	365,581
548,3	366,981
548,8	362,895
549,2	369,467
549,7	363,524
550,1	364,981
550,6	366,695
551	372,752
551,5	371,381
551,9	373,467
552,4	371,724
552,8	377,038
553,3	377,724
553,7	379,695
554,2	380,552
554,6	388,467
555,1	393,495
555,5	390,81
555,9	391,21
556,4	394,01
556,8	398,981
557,3	396,981
557,7	395,781
558,2	399,41
558,6	402,981
559,1	405,067
559,5	405,295
560	398,495
560,4	399,981
560,9	400,352
561,3	396,81
561,8	398,552
562,2	398,524
562,7	394,752
563,1	404,838
563,6	408,324
564	408,838
564,4	410,981
564,9	413,838
565,3	415,867
565,8	423,238
566,2	416,867
566,7	417,61
567,1	422,038
567,6	419,267
568	415,581
568,5	417,41
568,9	419,524
569,4	422,467
569,8	422,067
570,3	418,581
570,7	425,095
571,1	429,724
571,6	427,295
572	425,067
572,5	424,238
572,9	425,81
573,4	428,381
573,8	428,267
574,3	430,124
574,7	432,238
575,2	433,724
575,6	435,838
576,1	437,552
576,5	437,667
576,9	433,524
577,4	434,295
577,8	436,981
578,3	433,352
578,7	431,495
579,2	426,21
579,6	430,552
580,1	435,152
580,5	438,752
581	437,61
581,4	441,295
581,9	440,81
582,3	444,095
582,7	437,61
583,2	440,095
583,6	430,152
584,1	425,067
584,5	425,638
585	427,667
585,4	429,752
585,9	430,924
586,3	424,295
586,8	428,638
587,2	431,152
587,6	431,21
588,1	429,781
588,5	428,981
589	429,752
589,4	432,552
589,9	431,438
590,3	429,067
590,8	425,924
591,2	425,238
591,7	423,524
592,1	425,295
592,5	423,095
593	420,41
593,4	423,81
593,9	425,867
594,3	427,895
594,8	427,781
595,2	426,838
595,7	427,467
596,1	426,638
596,6	426,295
597	427,21
597,4	429,61
597,9	430,524
598,3	424,21
598,8	421,581
599,2	425,352
599,7	424,781
600,1	422,095
600,6	417,21
601	414,61
601,4	416,867
601,9	414,952
602,3	412,924
602,8	411,61
603,2	409,638
603,7	412,552
604,1	410,21
604,6	410,552
605	416,781
605,4	414,238
605,9	411,952
606,3	412,695
606,8	410,324
607,2	413,752
607,7	409,781
608,1	408,867
608,6	411,695
609	411,867
609,4	405,581
609,9	405,552
610,3	398,981
610,8	402,352
611,2	396,81
611,7	394,295
612,1	388,181
612,6	389,038
613	378,81
613,4	379,438
613,9	377,124
614,3	375,61
614,8	375,21
615,2	379,324
615,7	384,724
616,1	393,667
616,6	393,524
617	393,41
617,4	394,124
617,9	393,724
618,3	393,695
618,8	390,067
619,2	387,067
619,7	390,438
620,1	388,667
620,5	386,552
621	382,524
621,4	382,752
621,9	378,267
622,3	374,438
622,8	368,095
623,2	367,81
623,6	366,61
624,1	364,295
624,5	359,981
625	359,238
625,4	360,124
625,9	358,352
626,3	358,638
626,8	355,495
627,2	356,467
627,6	358,952
628,1	356,924
628,5	353,838
629	350,238
629,4	349,667
629,9	353,81
630,3	352,495
630,7	350,067
631,2	352,495
631,6	352,152
632,1	352,581
632,5	341,324
633	336,524
633,4	331,41
633,8	327,152
634,3	324,324
634,7	324,581
635,2	323,667
635,6	331,781
636,1	329,295
636,5	330,81
636,9	332,781
637,4	333,438
637,8	327,667
638,3	321,238
638,7	316,095
639,2	316,552
639,6	316,638
640	311,895
640,5	307,638
640,9	304,352
641,4	309,524
641,8	308,381
642,2	302,41
642,7	293,352
643,1	290,038
643,6	290,952
644	294,952
644,5	298,581
644,9	295,781
645,3	297,495
645,8	303,667
646,2	306,81
646,7	301,095
647,1	297,324
647,6	293,41
648	293,838
648,4	290,724
648,9	290,267
649,3	284,638
649,8	286,838
650,2	287,495
650,6	284,952
651,1	279,41
651,5	279,952
652	274,981
652,4	273,324
652,9	268,81
653,3	267,038
653,7	266,495
654,2	270,924
654,6	266,21
655,1	264,638
655,5	265,067
655,9	263,181
656,4	262,41
656,8	257,752
657,3	256,324
657,7	257,038
658,2	256,238
658,6	258,238
659	260,524
659,5	259,838
659,9	257,381
660,4	249,61
660,8	249,638
661,2	249,152
661,7	248,267
662,1	249,924
662,6	246,067
663	245,695
663,4	249,067
663,9	247,467
664,3	248,038
664,8	238,524
665,2	232,867
665,6	230,152
666,1	231,61
666,5	229,267
667	230,638
667,4	227,952
667,9	237,41
668,3	236,067
668,7	240,352
669,2	236,552
669,6	235,552
670,1	230,752
670,5	225,667
670,9	218,781
671,4	218,752
671,8	214,467
672,3	213,81
672,7	216,438
673,1	214,352
673,6	215,952
674	211,124
674,5	207,581
674,9	206,038
675,3	200,667
675,8	193,038
676,2	189,638
676,7	189,524
677,1	191,895
677,5	191,41
678	190,095
678,4	195,981
678,9	196,81
679,3	204,724
679,7	204,21
680,2	203,981
680,6	207,524
681,1	208,267
681,5	201,067
681,9	199,895
682,4	197,124
682,8	196,781
683,3	193,638
683,7	187,438
684,1	182,038
684,6	182,495
685	184,638
685,5	176,81
685,9	176,41
686,3	175,752
686,8	177,695
687,2	180,667
687,7	183,038
688,1	179,295
688,5	185,695
689	182,238
689,4	183,895
689,9	181,067
690,3	182,181
690,7	182,752
691,2	176,81
691,6	174,01
692	170,495
692,5	164,41
692,9	163,524
693,4	158,181
693,8	155,238
694,2	158,752
694,7	152,981
695,1	156,152
695,6	160,21
696	157,667
696,4	157,895
696,9	156,238
697,3	153,352
697,8	155,352
698,2	154,21
698,6	148,724
699,1	152,724
699,5	148,41
699,9	146,267
700,4	143,01
700,8	145,924
701,3	147,838
701,7	150,924
702,1	143,324
702,6	144,981
703	143,467
703,5	141,152
703,9	132,295
704,3	126,867
704,8	126,981
705,2	128,781
705,6	128,981
706,1	129,41
706,5	136,981
707	143,381
707,4	143,695
707,8	137,981
708,3	137,924
708,7	131,724
709,2	132,924
709,6	123,981
710	120,524
710,5	118,581
710,9	122,81
711,3	118,352
711,8	121,267
712,2	117,638
712,7	123,981
713,1	122,381
713,5	121,895
714	118,895
714,4	123,552
714,8	120,667
715,3	122,01
715,7	117,352
716,2	121,581
716,6	119,895
717	116,895
717,5	114,152
717,9	114,952
718,3	113,01
718,8	113,838
719,2	107,438
719,7	107,667
720,1	108,495
720,5	107,41
721	106,21
721,4	104,838
721,8	104,524
722,3	107,124
722,7	107,552
723,2	107,038
723,6	107,181
724	109,124
724,5	104,952
724,9	109,038
725,3	105,838
725,8	105,781
726,2	102,267
726,7	106,181
727,1	105,581
727,5	107,495
728	99,267
728,4	98,581
728,8	96,181
729,3	96,038
729,7	91,095
730,1	87,724
730,6	90,467
731	90,495
731,5	87,895
731,9	88,038
732,3	91,752
732,8	91,667
733,2	95,638
733,6	97,752
734,1	104,267
734,5	106,81
734,9	103,981
735,4	100,152
735,8	96,781
736,3	92,495
736,7	89,181
737,1	87,381
737,6	85,21
738	89,295
738,4	89,981
738,9	92,41
739,3	95,61
739,7	94,352
740,2	91,495
740,6	92,895
741,1	87,324
741,5	86,324
741,9	89,838
742,4	86,467
742,8	87,181
743,2	86,267
743,7	82,038
744,1	87,552
744,5	88,924
745	77,352
745,4	75,981
745,8	76,067
746,3	76,467
746,7	76,467
747,2	68,152
747,6	67,667
748	74,524
748,5	72,81
748,9	67,21
749,3	60,352
749,8	66,124
750,2	65,524
750,6	67,41
751,1	66,352
751,5	70,152
751,9	71,21
752,4	73,867
752,8	69,895
753,3	75,581
753,7	70,295
754,1	66,038
754,6	63,21
755	60,038
755,4	65,724
755,9	64,238
756,3	64,152
756,7	66,952
757,2	68,524
757,6	69,01
758	71,61
758,5	67,638
758,9	66,21
759,3	61,724
759,8	59,181
760,2	57,067
760,6	55,724
761,1	54,81
761,5	57,695
761,9	64,952
762,4	65,01
762,8	64,838
763,3	64,552
763,7	60,924
764,1	60,638
764,6	52,61
765	43,267
765,4	44,695
765,9	43,781
766,3	43,952
766,7	46,81
767,2	46,61
767,6	54,181
768	56,067
768,5	55,981
768,9	58,61
769,3	57,095
769,8	52,724
770,2	52,781
770,6	50,524
771,1	48,181
771,5	48,238
771,9	48,01
772,4	51,581
772,8	54,581
773,2	55,438
773,7	50,838
774,1	52,238
774,5	46,867
775	37,952
775,4	34,038
775,8	33,952
776,3	31,695
776,7	33,238
777,1	30,752
777,6	32,095
778	38,752
778,4	42,581
778,9	40,61
779,3	41,095
779,7	40,781
780,2	46,724
780,6	46,581
781	43,152
781,5	38,41
781,9	38,981
782,3	37,295
782,8	41,238
783,2	34,752
783,6	36,581
784,1	34,352
784,5	37,752
784,9	36,924
785,4	38,781
785,8	34,552
786,2	36,381
786,7	37,324
787,1	40,41
787,5	40,838
788	40,152
788,4	38,552
788,8	38,695
789,3	36,01
789,7	33,324
790,1	34,695
790,6	31,781
791	36,181
791,4	39,524
791,9	40,381
792,3	42,667
792,7	44,695
793,2	45,924
793,6	48,324
794	45,61
794,5	42,667
794,9	42,752
795,3	43,952
795,8	42,867
796,2	40,838
796,6	40,895
797,1	35,552
797,5	38,467
797,9	38,781
798,4	32,952
798,8	30,067
799,2	30,01
799,7	30,067
800,1	34,581
800,5	31,838
801	30,638
801,4	35,267
801,8	35,124
802,2	33,41
802,7	36,095
803,1	35,952
803,5	32,438
804	35,495
804,4	32,981
804,8	37,867
805,3	42,981
805,7	35,867
806,1	37,295
806,6	36,01
807	32,038
807,4	35,81
807,9	29,352
808,3	23,552
808,7	23,181
809,2	21,867
809,6	26,638
810	28,352
810,4	26,095
810,9	30,152
811,3	33,21
811,7	40,267
812,2	41,495
812,6	38,238
813	34,01
813,5	30,21
813,9	26,895
814,3	23,752
814,8	17,724
815,2	14,552
815,6	14,895
816,1	15,524
816,5	19,552
816,9	19,867
817,3	23,295
817,8	24,01
818,2	24,467
818,6	23,867
819,1	24,667
819,5	26,438
819,9	26,381
820,4	24,324
820,8	19,895
821,2	21,438
821,7	22,581
822,1	21,752
822,5	21,552
822,9	20,695
823,4	20,695
823,8	23,695
824,2	26,21
824,7	27,781
825,1	26,124
825,5	21,524
826	20,638
826,4	21,695
826,8	19,752
827,3	19,038
827,7	20,41
828,1	22,895
828,5	22,667
829	26,324
829,4	19,067
829,8	23,838
830,3	22,638
830,7	17,895
831,1	18,81
831,6	21,181
832	21,752
832,4	25,924
832,8	23,838
833,3	24,267
833,7	25,038
834,1	27,095
834,6	26,495
835	30,61
835,4	31,381
835,8	31,867
836,3	28,381
836,7	28,895
837,1	22,952
837,6	21,324
838	13,552
838,4	9,81
838,9	5,695
839,3	9,438
839,7	8,552
840,1	6,552
840,6	11,867
841	16,324
841,4	20,895
841,9	21,267
842,3	19,324
842,7	19,124
843,1	24,581
843,6	22,581
844	23,067
844,4	21,61
844,9	22,838
845,3	26,067
845,7	23,724
846,2	21,181
846,6	18,924
847	18,152
847,4	11,467
847,9	12,038
848,3	6,981
848,7	10,124
849,2	10,838
849,6	9,152
850	9,524
850,4	14,038
850,9	11,781
851,3	13,81
851,7	12,581
852,2	14,01
852,6	16,01
853	11,467
853,4	9,524
853,9	12,181
854,3	11,181
854,7	12,438
855,2	11,724
855,6	10,81
856	12,267
856,4	14,752
856,9	17,238
857,3	13,981
857,7	15,467
858,2	10,981
858,6	10,067
859	7,552
859,4	11,467
859,9	10,267
860,3	12,267
860,7	10,038
861,1	13,152
861,6	18,61
862	18,267
862,4	15,667
862,9	13,695
863,3	11,752
863,7	14,067
864,1	13,695
864,6	10,867
865	14,124
865,4	14,524
865,9	16,61
866,3	19,095
866,7	19,295
867,1	16,038
867,6	19,352
868	22,952
868,4	22,181
868,8	18,81
869,3	21,467
869,7	19,038
870,1	23,41
870,6	16,752
871	68,467
871,4	63,295
871,8	64,438
872,3	62,41
872,7	63,038
873,1	61,867
873,5	65,238
874	4,295
874,4	7,467
874,8	12,41
875,3	14,924
875,7	14,952
876,1	15,295
876,5	12,724
877	17,01
877,4	18,752
877,8	16,438
878,2	12,552
878,7	14,438
879,1	12,667
879,5	12,095
879,9	11,41
880,4	13,267
880,8	12,295
881,2	17,895
881,7	13,467
882,1	13,952
882,5	15,61
882,9	19,267
883,4	18,724
883,8	19,181
884,2	11,41
884,6	14,267
885,1	15,067
885,5	12,41
885,9	9,467
886,3	8,61
886,8	6,095
887,2	6,267
887,6	4,038
888	5,781
888,5	12,381
888,9	13,152
889,3	10,21
889,8	15,695
890,2	14,781
890,6	15,81
891	12,867
891,5	9,581
891,9	7,724
892,3	10,724
892,7	9,581
893,2	13,781
893,6	17,952
894	19,981
894,4	22,152
894,9	21,124
895,3	23,324
895,7	18,381
896,1	15,524
896,6	14,638
897	13,152
897,4	12,01
897,8	15,324
898,3	13,752
898,7	13,295
899,1	17,952
899,5	14,495
900	14,667
900,4	12,81
900,8	10,21
901,2	11,952
901,7	13,781
902,1	12,61
902,5	9,81
902,9	8,381
903,4	7,81
903,8	9,21
904,2	8,667
904,6	9,01
905,1	7,467
905,5	10,095
905,9	12,152
906,3	13,41
906,8	13,124
907,2	8,752
907,6	10,61
908	7,981
908,5	7,81
908,9	9,295
909,3	7,124
909,7	8,638
910,2	13,838
910,6	9,495
911	7,438
911,4	6,352
911,9	1,124
912,3	-3,99
912,7	-6,048
913,1	-9,019
913,6	-13,076
914	-7,333
914,4	-9,676
914,8	-7,219
915,3	-3,876
915,7	1,152
916,1	-0,333
916,5	4,895
916,9	1,152
917,4	5,695
917,8	4,81
918,2	6,981
918,6	3,181
919,1	2,01
919,5	1,695
919,9	6,638
920,3	6,352
920,8	14,095
921,2	13,152
921,6	13,438
922	15,581
922,5	17,124
922,9	13,581
923,3	10,638
923,7	5,981
924,2	5,495
924,6	4,895
925	6,324
925,4	8,295
925,8	10,695
926,3	15,838
926,7	13,124
927,1	18,038
927,5	20,324
928	18,038
928,4	20,524
928,8	19,752
929,2	15,495
929,7	15,924
930,1	12,638
930,5	10,038
930,9	6,238
931,3	0,581
931,8	-2,133
932,2	-0,048
932,6	1,695
933	-0,79
933,5	4,21
933,9	8,495
934,3	10,01
934,7	13,752
935,2	16,324
935,6	15,181
936	16,952
936,4	14,067
936,8	16,581
937,3	14,41
937,7	12,238
938,1	2,581
938,5	-0,648
939	0,495
939,4	-0,905
939,8	-0,533
940,2	3,81
940,6	2,838
941,1	7,581
941,5	12,152
941,9	14,781
942,3	13,952
942,8	16,21
943,2	15,895
943,6	17,924
944	17,295
944,4	17,924
944,9	14,352
945,3	13,724
945,7	9,81
946,1	6,352
946,6	9,095
947	10,181
947,4	5,295
947,8	6,038
948,2	5,152
948,7	2,781
949,1	7,124
949,5	1,752
949,9	2,61
950,3	5,352
950,8	6,781
951,2	11,124
951,6	11,667
952	8,695
952,5	10,752
952,9	10,267
953,3	12,01
953,7	10,038
954,1	7,667
954,6	6,267
955	4,01
955,4	6,81
955,8	12,152
956,2	12,095
956,7	11,61
957,1	10,895
957,5	13,238
957,9	18,038
958,3	11,21
958,8	5,724
959,2	4,838
959,6	3,867
960	2,267
960,5	0,095
960,9	-2,819
961,3	1,181
961,7	-0,219
962,1	-1,619
962,6	-1,19
963	-1,019
963,4	1,124
963,8	0,152
964,2	1,095
964,7	1,295
965,1	-7,39
965,5	-5,562
965,9	-4,762
966,3	-3,19
966,8	-2,533
967,2	-6,733
967,6	-5,105
968	3,095
968,4	6,267
968,9	8,781
969,3	3,124
969,7	2,981
970,1	6,21
970,5	9,095
971	6,81
971,4	2,01
971,8	-1,333
972,2	5,467
972,6	6,21
973,1	2,61
973,5	-2,305
973,9	0,895
974,3	3,181
974,7	8,61
975,2	5,981
975,6	3,61
976	6,295
976,4	3,952
976,8	2,438
977,3	1,724
977,7	-6,333
978,1	-9,19
978,5	-9,419
978,9	-12,819
979,4	-5,99
979,8	-4,676
980,2	-6,476
980,6	-0,819
981	1,467
981,5	0,238
981,9	3,267
982,3	1,467
982,7	1,867
983,1	2,581
983,6	2,438
984	0,695
984,4	9,067
984,8	9,524
985,2	9,61
985,6	8,21
986,1	8,181
986,5	7,524
986,9	10,41
987,3	2,81
987,7	4,467
988,2	1,924
988,6	-0,219
989	-2,848
989,4	-2,276
989,8	-3,219
990,3	-2,876
990,7	-1,105
991,1	2,152
991,5	8,038
991,9	10,752
992,3	4,895
992,8	4,467
993,2	10,495
993,6	5,352
994	2,867
994,4	5,924
994,9	7,867
995,3	16,438
995,7	13,638
996,1	7,895
996,5	10,095
996,9	10,41
997,4	3,21
997,8	1,867
998,2	-4,476
998,6	1,81
999	4,61
999,5	4,238
999,9	6,752
1000,3	11,924
1000,7	12,267
1001,1	11,01
1001,5	10,838
1002	7,952
1002,4	9,981
1002,8	6,924
1003,2	3,667
1003,6	4,524
1004	8,324
1004,5	3,724
1004,9	4,495
1005,3	-0,79
1005,7	0,638
1006,1	0,61
1006,6	-2,533
1007	-4,533
1007,4	-4,705
1007,8	-1,276
1008,2	5,667
1008,6	8,981
1009,1	11,724
1009,5	11,781
1009,9	13,695
1010,3	15,952
1010,7	18,324
1011,1	13,924
1011,6	13,924
1012	11,152
1012,4	14,095
1012,8	14,238
1013,2	16,438
1013,6	11,067
1014,1	8,724
1014,5	6,181
1014,9	5,152
1015,3	3,067
1015,7	5,867
1016,1	-0,533
1016,6	-1,648
1017	4,152
1017,4	1,295
1017,8	-0,848
1018,2	-2,876
1018,6	-4,648
1019,1	1,238
1019,5	2,124
1019,9	-2,048
1020,3	0,038
1020,7	4,152
1021,1	6,495
1021,6	2,21
1022	0,867
1022,4	4,01
1022,8	4,838
1023,2	1,324
1023,6	-4,19
1024,1	-3,019
1024,5	1,181
1024,9	4,01
1025,3	4,352
1025,7	9,21
1026,1	17,267
1026,6	28,181
1027	27,61
1027,4	29,438
1027,8	23,638
1028,2	18,495
1028,6	14,781
1029	8,752
1029,5	6,152
1029,9	6,667
1030,3	7,695
1030,7	7,981
1031,1	11,61
1031,5	14,81
1032	16,438
1032,4	12,552
1032,8	14,267
1033,2	11,467
1033,6	13,952
1034	15,267
1034,4	14,438
1034,9	17,838
1035,3	19,295
1035,7	14,724
1036,1	12,952
1036,5	14,467
1036,9	10,581
1037,4	14,095
1037,8	13,21
1038,2	10,438
1038,6	10,381
1039	13,638
1039,4	11,181
1039,8	14,724
1040,3	8,21
1040,7	6,867
1041,1	4,438
1041,5	9,495
1041,9	4,467
1042,3	5,667
1042,7	2,61
1043,2	1,238
1043,6	2,095
1044	4,838
1044,4	3,238
1044,8	4,581
1045,2	3,381
1045,6	6,667
1046,1	9,438
1046,5	5,752
1046,9	6,438
1047,3	4,924
1047,7	7,095
1048,1	5,667
1048,5	3,095
1049	8,981
1049,4	9,638
1049,8	7,895
1050,2	6,667
1050,6	3,467
1051	-1,762
1051,4	-1,705
1051,9	-14,019
1052,3	-7,248
1052,7	-2,876
1053,1	-2,305
1053,5	0,838
1053,9	11,038
1054,3	5,867
1054,8	11,524
1055,2	-1,105
1055,6	0,181
1056	1,067
1056,4	6,667
1056,8	7,438
1057,2	12,667
1057,6	11,781
1058,1	20,381
1058,5	14,181
1058,9	13,124
1059,3	10,867
1059,7	7,267
1060,1	4,41
1060,5	3,524
1061	0,81
1061,4	5,238
1061,8	6,638
1062,2	3,895
1062,6	4,267
1063	7,038
1063,4	9,41
1063,8	8,324
1064,3	6,381
1064,7	10,667
1065,1	12,41
1065,5	10,438
1065,9	11,124
1066,3	12,181
1066,7	13,495
1067,1	10,81
1067,6	6,524
1068	6,867
1068,4	5,695
1068,8	-0,59
1069,2	1,181
1069,6	1,695
1070	7,038
1070,4	9,61
1070,9	8,695
1071,3	13,467
1071,7	20,295
1072,1	14,981
1072,5	15,41
1072,9	13,695
1073,3	13,438
1073,7	14,867
1074,2	14,524
1074,6	13,124
1075	12,838
1075,4	11,41
1075,8	12,495
1076,2	14,581
1076,6	13,324
1077	7,667
1077,5	8,267
1077,9	9,638
1078,3	9,838
1078,7	4,695
1079,1	1,667
1079,5	-1,448
1079,9	-1,133
1080,3	-1,305
1080,7	1,295
1081,2	4,152
1081,6	4,867
1082	4,352
1082,4	2,152
1082,8	5,267
1083,2	6,781
1083,6	4,981
1084	3,667
1084,5	9,352
1084,9	4,952
1085,3	5,295
1085,7	9,638
1086,1	6,352
1086,5	4,038
1086,9	0,724
1087,3	-3,133
1087,7	0,295
1088,2	3,695
1088,6	-0,505
1089	-0,676
1089,4	2,381
1089,8	5,867
1090,2	6,61
1090,6	6,038
1091	6,895
1091,4	6,838
1091,9	9,067
1092,3	8,21
1092,7	6,981
1093,1	5,038
1093,5	4,124
1093,9	2,838
1094,3	3,638
1094,7	0,838
1095,1	3,181
1095,5	1,552
1096	4,21
1096,4	2,952
1096,8	2,41
1097,2	2,41
1097,6	7,152
1098	4,467
1098,4	6,695
1098,8	5,838
1099,2	6,067
1099,6	2,181
1100,1	5,124
1100,5	3,41
1100,9	4,495
1101,3	4,438
1101,7	2,667
1102,1	5,495
1102,5	4,752
1102,9	-2,905
1103,3	-2,762
1103,7	-2,762
1104,2	-1,076
1104,6	4,181
1105	5,924
1105,4	10,495
1105,8	14,01
1106,2	12,01
1106,6	10,352
1107	7,981
1107,4	4,8
1107,8	1,747
1108,3	-0,083
