Data from Subt2_00102.txt Node
Date: Mon Aug 28 13:37:46 MSK 2023
User: vat
Spectrometer: MAYP114033
Trigger mode: 0
Integration Time (sec): 1,000000E0
Scans to average: 5
Electric dark correction enabled: true
Nonlinearity correction enabled: false
Boxcar width: 3
XAxis mode: Wavelengths
Number of Pixels in Spectrum: 2068
>>>>>Begin Spectral Data<<<<<
199,4	-1,55
199,9	-2,74
200,4	-0,733
200,8	0,586
201,3	2,157
201,8	4,529
202,2	5,243
202,7	6,757
203,2	11,157
203,6	11,129
204,1	13,471
204,6	13,843
205	13,157
205,5	11,443
206	14,957
206,4	8,386
206,9	8,671
207,4	7,214
207,8	7,186
208,3	8,586
208,8	10,557
209,2	8,929
209,7	13,214
210,2	14,329
210,6	13,7
211,1	17,043
211,5	15,729
212	16,329
212,5	12,471
212,9	11,3
213,4	11,986
213,9	12,1
214,3	11,643
214,8	14,1
215,3	15,843
215,7	18,9
216,2	18,471
216,7	19,7
217,1	16,843
217,6	12,786
218,1	10,5
218,5	9,5
219	10,186
219,5	14,243
219,9	8,643
220,4	17,186
220,9	17,671
221,3	19,014
221,8	18,214
222,3	20,271
222,7	22,814
223,2	24,814
223,6	18,014
224,1	24,357
224,6	26,529
225	30,157
225,5	23,871
226	21,329
226,4	25,557
226,9	23,957
227,4	24,214
227,8	20,843
228,3	15,586
228,8	21,443
229,2	26,9
229,7	24,871
230,2	31,5
230,6	30,1
231,1	31,986
231,5	34,671
232	32,529
232,5	22,357
232,9	23,614
233,4	22,614
233,9	22,9
234,3	22,986
234,8	25,1
235,3	26,929
235,7	31,214
236,2	33,186
236,7	28,671
237,1	25,7
237,6	26,1
238,1	26,643
238,5	28,071
239	28,357
239,4	27,243
239,9	30,9
240,4	29,243
240,8	26,9
241,3	25,757
241,8	24,414
242,2	25,157
242,7	21,643
243,2	23,043
243,6	27,186
244,1	23,843
244,6	18,5
245	13,3
245,5	9,329
245,9	10,786
246,4	9,071
246,9	4,614
247,3	9,271
247,8	10,671
248,3	16,7
248,7	19,129
249,2	20,443
249,7	21,471
250,1	18,471
250,6	18,386
251	17,271
251,5	14,5
252	11,614
252,4	7,071
252,9	6,557
253,4	11,357
253,8	12,014
254,3	14,271
254,8	15,043
255,2	17,729
255,7	22,757
256,1	17,614
256,6	16,786
257,1	15,443
257,5	15,814
258	12,671
258,5	11,729
258,9	8,386
259,4	12,814
259,9	8,529
260,3	7,671
260,8	2,586
261,2	9,757
261,7	11,7
262,2	12,157
262,6	14,243
263,1	14,586
263,6	12,843
264	20,5
264,5	18,1
264,9	16,586
265,4	13,786
265,9	13,529
266,3	18,043
266,8	21,071
267,3	19,271
267,7	15,814
268,2	16,557
268,7	21,5
269,1	14,1
269,6	12,186
270	8,586
270,5	9,671
271	7,986
271,4	4,043
271,9	-0,271
272,4	6,271
272,8	9,414
273,3	10,814
273,7	9,757
274,2	12,843
274,7	17,071
275,1	19,557
275,6	21,471
276,1	17,529
276,5	20,1
277	21,414
277,4	21,329
277,9	19,814
278,4	17,843
278,8	13,386
279,3	16,471
279,8	16,014
280,2	18,757
280,7	18,214
281,1	17,957
281,6	17,043
282,1	16,471
282,5	18,271
283	16,443
283,4	11,3
283,9	12,671
284,4	11,871
284,8	14,586
285,3	14,357
285,8	9,5
286,2	10,043
286,7	12,614
287,1	11,329
287,6	11,043
288,1	8,357
288,5	9,129
289	8,243
289,5	7,443
289,9	7,186
290,4	5,3
290,8	7,5
291,3	13,471
291,8	14,671
292,2	15,786
292,7	20,386
293,1	20,186
293,6	16,929
294,1	17,814
294,5	12,871
295	12,1
295,5	17,129
295,9	13,214
296,4	9,129
296,8	16,1
297,3	19,471
297,8	23,386
298,2	23,3
298,7	19,329
299,1	19,3
299,6	22,957
300,1	21,3
300,5	18,3
301	19,014
301,5	22,3
301,9	21,414
302,4	20,071
302,8	20,357
303,3	24,214
303,8	23,957
304,2	21,757
304,7	16,443
305,1	11,157
305,6	10,414
306,1	9,214
306,5	-1,471
307	-3,186
307,4	-8,757
307,9	-6,9
308,4	-1,014
308,8	2,814
309,3	2,871
309,8	9,071
310,2	6,557
310,7	10,529
311,1	11,814
311,6	13,043
312,1	10,786
312,5	8,929
313	8,929
313,4	12,757
313,9	14,157
314,4	13,443
314,8	14,443
315,3	18,443
315,7	22,986
316,2	23,957
316,7	23,443
317,1	23,014
317,6	21,071
318	24,1
318,5	22,643
319	19,3
319,4	21,7
319,9	19,157
320,3	18,557
320,8	21,729
321,3	16,071
321,7	14,443
322,2	13,643
322,6	13,129
323,1	14,786
323,6	12,757
324	11,043
324,5	13,357
324,9	17,271
325,4	17,386
325,9	15,643
326,3	12,529
326,8	11,1
327,2	9,5
327,7	4,386
328,2	3,9
328,6	7,614
329,1	3,843
329,5	3,557
330	8,814
330,5	14,529
330,9	19,9
331,4	22,014
331,8	18,671
332,3	23,814
332,8	27,7
333,2	27,986
333,7	19,729
334,1	15,7
334,6	6,814
335,1	8,129
335,5	4,443
336	5,243
336,4	0,271
336,9	2,957
337,4	3,586
337,8	8,5
338,3	11,843
338,7	13,357
339,2	9,671
339,7	10,043
340,1	10,443
340,6	11,014
341	9,186
341,5	3,243
342	3,929
342,4	2,1
342,9	7,271
343,3	9,186
343,8	15,557
344,2	20,357
344,7	21,443
345,2	19,757
345,6	29,329
346,1	25,671
346,5	27,871
347	20,671
347,5	18,586
347,9	17,414
348,4	17,586
348,8	12,443
349,3	14,986
349,8	13,729
350,2	18,786
350,7	20,3
351,1	21,843
351,6	25,357
352	28,957
352,5	37,871
353	43,043
353,4	50,357
353,9	62,443
354,3	82,5
354,8	91,729
355,3	107,757
355,7	124,643
356,2	143,614
356,6	162,986
357,1	188,957
357,5	218,529
358	264,643
358,5	304,643
358,9	352,043
359,4	408,5
359,8	475,243
360,3	538,529
360,8	616,014
361,2	701,471
361,7	801,214
362,1	902,329
362,6	1016,757
363	1142,929
363,5	1277,9
364	1406,157
364,4	1545,186
364,9	1684,786
365,3	1824,357
365,8	1966,5
366,3	2084,414
366,7	2197,329
367,2	2299,1
367,6	2382,071
368,1	2440,643
368,5	2482,186
369	2497,643
369,5	2503,729
369,9	2486,014
370,4	2444,814
370,8	2382,757
371,3	2314,671
371,7	2236,071
372,2	2141,671
372,7	2036,243
373,1	1934,957
373,6	1827,929
374	1719,9
374,5	1608,157
374,9	1494,9
375,4	1383,3
375,9	1285,157
376,3	1176,557
376,8	1081,757
377,2	992,129
377,7	910,671
378,2	837,757
378,6	773,5
379,1	702,443
379,5	645,529
380	594,214
380,4	546,7
380,9	501,9
381,4	461,243
381,8	422,386
382,3	397,043
382,7	368,214
383,2	342,357
383,6	322,414
384,1	305,329
384,6	282,5
385	269,929
385,5	250,9
385,9	236,186
386,4	226,7
386,8	205,443
387,3	192,329
387,7	183,186
388,2	167,414
388,7	152,7
389,1	139,671
389,6	129,586
390	126,129
390,5	116,3
390,9	107,271
391,4	101,7
391,9	98,129
392,3	97,871
392,8	90,529
393,2	88,643
393,7	86,529
394,1	82,071
394,6	80,757
395,1	81,471
395,5	79,014
396	76,071
396,4	65,871
396,9	64,471
397,3	67,357
397,8	60,471
398,2	58,414
398,7	48,557
399,2	47,729
399,6	49,614
400,1	44,9
400,5	42,1
401	48,243
401,4	40,043
401,9	50,157
402,4	47,357
402,8	53,5
403,3	55,586
403,7	55,7
404,2	52,557
404,6	57,557
405,1	59,271
405,5	61,014
406	59,071
406,5	57,729
406,9	59,586
407,4	56,071
407,8	58,243
408,3	49,157
408,7	47,5
409,2	42,157
409,6	46,071
410,1	43,9
410,6	46,3
411	44,843
411,5	48,5
411,9	49,7
412,4	59,5
412,8	57,7
413,3	57,957
413,7	59,843
414,2	58,243
414,7	60,5
415,1	67,786
415,6	63,014
416	67,271
416,5	76,643
416,9	84,243
417,4	91,414
417,8	98,929
418,3	99,443
418,8	105,214
419,2	107,357
419,7	103,586
420,1	100,243
420,6	101,586
421	101,271
421,5	103,729
421,9	100,414
422,4	103,414
422,8	104,671
423,3	106,986
423,8	107,386
424,2	105,7
424,7	107,157
425,1	110,357
425,6	110,357
426	113,9
426,5	117,443
426,9	119,271
427,4	122,186
427,9	120,614
428,3	123,929
428,8	119,043
429,2	123,614
429,7	125,586
430,1	126,214
430,6	122,529
431	121,1
431,5	122,157
431,9	126,643
432,4	120,157
432,8	122,871
433,3	126,186
433,8	135,729
434,2	142,129
434,7	141,1
435,1	148,129
435,6	152,186
436	153,986
436,5	156,957
436,9	159,271
437,4	165,871
437,8	175,014
438,3	185,843
438,8	197,929
439,2	205,643
439,7	215,329
440,1	221,071
440,6	229,5
441	237,3
441,5	239,414
441,9	247,043
442,4	254,443
442,8	265,471
443,3	281,529
443,7	286,357
444,2	298,271
444,7	312,557
445,1	323,414
445,6	335,186
446	348,729
446,5	359,243
446,9	380,814
447,4	398,643
447,8	412,729
448,3	431,243
448,7	451,843
449,2	469,186
449,6	487,414
450,1	504,443
450,6	526,529
451	551,643
451,5	576,786
451,9	599,043
452,4	619,757
452,8	642,329
453,3	662,529
453,7	681,757
454,2	698,1
454,6	716,843
455,1	742,643
455,5	764,814
456	789,129
456,4	813,129
456,9	840,443
457,3	869,843
457,8	894,814
458,3	916,443
458,7	951,929
459,2	984,529
459,6	1017,729
460,1	1048,471
460,5	1081,871
461	1115,5
461,4	1151,3
461,9	1178,757
462,3	1214,386
462,8	1249,357
463,2	1283,271
463,7	1316,157
464,1	1351,986
464,6	1384,414
465	1423,071
465,5	1457,243
466	1496,986
466,4	1533,786
466,9	1569,986
467,3	1606,071
467,8	1648,3
468,2	1688,157
468,7	1729,186
469,1	1766,9
469,6	1803,5
470	1845,843
470,5	1889,671
470,9	1932,243
471,4	1971,614
471,8	2004,643
472,3	2040,414
472,7	2084,471
473,2	2123,614
473,6	2157,386
474,1	2192,843
474,5	2229,214
475	2266,557
475,4	2311,9
475,9	2345,071
476,4	2382,014
476,8	2429,043
477,3	2463,529
477,7	2506,586
478,2	2549,243
478,6	2583,614
479,1	2631,529
479,5	2674,786
480	2713,957
480,4	2754,871
480,9	2783,529
481,3	2823,643
481,8	2855,186
482,2	2882,7
482,7	2916,814
483,1	2941,443
483,6	2976,014
484	3014,529
484,5	3048,157
484,9	3083,329
485,4	3111,729
485,8	3135,557
486,3	3161,614
486,7	3187,957
487,2	3218,329
487,6	3233,643
488,1	3260,529
488,5	3279,329
489	3308,129
489,4	3343,586
489,9	3366,557
490,4	3382,871
490,8	3411,529
491,3	3436,557
491,7	3466,043
492,2	3477,786
492,6	3482,929
493,1	3502,643
493,5	3521,071
494	3538,643
494,4	3549,214
494,9	3564,786
495,3	3586,986
495,8	3604,471
496,2	3611,643
496,7	3627,557
497,1	3638,5
497,6	3653,643
498	3661,5
498,5	3676,043
498,9	3695,814
499,4	3713,329
499,8	3722,014
500,3	3740,443
500,7	3751,557
501,2	3763,471
501,6	3766,186
502,1	3777,614
502,5	3786,814
503	3796,157
503,4	3796,3
503,9	3806,729
504,3	3823,529
504,8	3832,7
505,2	3840,157
505,7	3853,3
506,1	3859,471
506,6	3868,071
507	3875,5
507,5	3880,671
507,9	3889,586
508,4	3895,271
508,8	3899,786
509,3	3911,557
509,7	3916,1
510,2	3915,3
510,6	3920,357
511,1	3930,871
511,5	3932,929
512	3938,157
512,4	3939,014
512,9	3944,586
513,3	3952,071
513,8	3957,843
514,2	3964,443
514,7	3971,414
515,1	3969,357
515,6	3977,871
516	3980,586
516,5	3986,357
516,9	3993,529
517,4	3995,329
517,8	3999,271
518,3	4008,3
518,7	4015,529
519,2	4034,014
519,6	4040,729
520,1	4042,214
520,5	4039,614
521	4041,243
521,4	4044,557
521,9	4046,614
522,3	4046,3
522,8	4045,329
523,2	4050,214
523,7	4063,386
524,1	4073,529
524,6	4079,386
525	4090,814
525,5	4088,986
525,9	4103,1
526,4	4110,443
526,8	4110,729
527,3	4119,786
527,7	4131,243
528,2	4133,814
528,6	4149,414
529,1	4162,7
529,5	4169,071
530	4182,586
530,4	4187,643
530,9	4197,5
531,3	4202,471
531,8	4206,957
532,2	4206,757
532,6	4217,843
533,1	4219,986
533,5	4221,329
534	4224,329
534,4	4231,614
534,9	4233,443
535,3	4241,671
535,8	4250,729
536,2	4261,929
536,7	4270,157
537,1	4276,014
537,6	4286,557
538	4309,5
538,5	4321,329
538,9	4328,529
539,4	4342,014
539,8	4353,3
540,3	4367,586
540,7	4373,157
541,2	4376,186
541,6	4381,043
542,1	4383,957
542,5	4391,586
543	4403,7
543,4	4412,9
543,9	4425,186
544,3	4434,186
544,8	4442,357
545,2	4455,871
545,7	4460,957
546,1	4471,014
546,5	4478,7
547	4491,271
547,4	4496,471
547,9	4505,157
548,3	4512,871
548,8	4518,014
549,2	4529,186
549,7	4534,329
550,1	4531,786
550,6	4540,986
551	4547,157
551,5	4552,786
551,9	4563,329
552,4	4562,471
552,8	4571,357
553,3	4584,186
553,7	4593,386
554,2	4609,329
554,6	4628,271
555,1	4637,643
555,5	4655,586
555,9	4668,471
556,4	4680,357
556,8	4695,557
557,3	4701,414
557,7	4699,329
558,2	4712,5
558,6	4713,786
559,1	4716,443
559,5	4721,5
560	4713,929
560,4	4716,671
560,9	4726,043
561,3	4732,586
561,8	4742,443
562,2	4747,5
562,7	4750,014
563,1	4762,7
563,6	4771,614
564	4775,5
564,4	4781,014
564,9	4779,014
565,3	4789,329
565,8	4797,786
566,2	4798,729
566,7	4803,014
567,1	4808,643
567,6	4802,243
568	4808,271
568,5	4809,9
568,9	4814,443
569,4	4819,9
569,8	4820,529
570,3	4820,814
570,7	4833,986
571,1	4837,157
571,6	4834,814
572	4834,386
572,5	4836,814
572,9	4833,814
573,4	4830,643
573,8	4828,757
574,3	4832,957
574,7	4838,243
575,2	4833,957
575,6	4836,929
576,1	4834,214
576,5	4837,529
576,9	4836,557
577,4	4832,5
577,8	4827,786
578,3	4826,471
578,7	4813,9
579,2	4813,329
579,6	4813,614
580,1	4806,157
580,5	4798,986
581	4789,471
581,4	4786,557
581,9	4785,214
582,3	4780,757
582,7	4766,5
583,2	4759,814
583,6	4748,5
584,1	4747,271
584,5	4732,614
585	4721,443
585,4	4713,071
585,9	4707,386
586,3	4698,129
586,8	4697,043
587,2	4690,671
587,6	4698,957
588,1	4692,7
588,5	4693,357
589	4687,157
589,4	4680,871
589,9	4675,043
590,3	4663,986
590,8	4649,186
591,2	4644,043
591,7	4628,186
592,1	4623,757
592,5	4617,471
593	4610,471
593,4	4604,186
593,9	4602,1
594,3	4598,7
594,8	4593,043
595,2	4580,786
595,7	4574,814
596,1	4563,871
596,6	4554,271
597	4540,214
597,4	4535,1
597,9	4525,014
598,3	4517,7
598,8	4510,671
599,2	4510,871
599,7	4506,986
600,1	4495,3
600,6	4483,1
601	4480,129
601,4	4477,729
601,9	4462,786
602,3	4441,386
602,8	4427,9
603,2	4417,729
603,7	4403,1
604,1	4385,871
604,6	4370,443
605	4362,443
605,4	4351,471
605,9	4334,614
606,3	4335,1
606,8	4324,386
607,2	4322,043
607,7	4311,671
608,1	4297,214
608,6	4292,014
609	4285,329
609,4	4261,271
609,9	4250,271
610,3	4226,9
610,8	4217,843
611,2	4208,729
611,7	4192,9
612,1	4182,614
612,6	4170,986
613	4150,414
613,4	4142,271
613,9	4117,843
614,3	4103,957
614,8	4088,443
615,2	4069,529
615,7	4054,471
616,1	4045,757
616,6	4027,614
617	4018,443
617,4	3996,7
617,9	3985,186
618,3	3973,957
618,8	3962,843
619,2	3946,757
619,7	3936,843
620,1	3918,643
620,5	3907,1
621	3880,471
621,4	3864,729
621,9	3844,157
622,3	3824,814
622,8	3806,557
623,2	3789,671
623,6	3771,729
624,1	3759,929
624,5	3737,814
625	3724,5
625,4	3708,9
625,9	3688,357
626,3	3676,757
626,8	3658,271
627,2	3643,843
627,6	3629,3
628,1	3609,814
628,5	3589,357
629	3568,529
629,4	3545,271
629,9	3528,243
630,3	3515,157
630,7	3497,786
631,2	3482,786
631,6	3470,5
632,1	3453,243
632,5	3438,014
633	3426,9
633,4	3409,586
633,8	3391,786
634,3	3372,157
634,7	3363,414
635,2	3348,929
635,6	3334,614
636,1	3310,729
636,5	3291,414
636,9	3276,757
637,4	3258,043
637,8	3234,186
638,3	3220,329
638,7	3198,243
639,2	3183,557
639,6	3163,671
640	3144,157
640,5	3123,329
640,9	3104,786
641,4	3084,386
641,8	3071,5
642,2	3057,986
642,7	3038,814
643,1	3023,557
643,6	3020,643
644	3009,043
644,5	3004,443
644,9	2983,071
645,3	2967,843
645,8	2957,614
646,2	2946,786
646,7	2920,443
647,1	2909,243
647,6	2891,529
648	2883,357
648,4	2866,014
648,9	2853,357
649,3	2836,129
649,8	2826,129
650,2	2806,671
650,6	2794,986
651,1	2784,9
651,5	2771,643
652	2753,9
652,4	2735,1
652,9	2723,414
653,3	2706,386
653,7	2687,5
654,2	2668,357
654,6	2654,586
655,1	2640,329
655,5	2628,471
655,9	2614,043
656,4	2604,814
656,8	2590,157
657,3	2572,9
657,7	2560,3
658,2	2548,3
658,6	2534,386
659	2515,986
659,5	2494,214
659,9	2475,843
660,4	2460,843
660,8	2443,529
661,2	2427,557
661,7	2422,643
662,1	2415,243
662,6	2401,157
663	2392,671
663,4	2380,357
663,9	2363,3
664,3	2348,957
664,8	2318,957
665,2	2295,386
665,6	2284,357
666,1	2263,5
666,5	2249,357
667	2239,129
667,4	2223,757
667,9	2226,243
668,3	2213,014
668,7	2194,757
669,2	2185,614
669,6	2169,471
670,1	2153,471
670,5	2141,614
670,9	2112,443
671,4	2102,814
671,8	2091,414
672,3	2076,014
672,7	2068,614
673,1	2052,043
673,6	2035,957
674	2023,7
674,5	2007,614
674,9	1995,614
675,3	1975,5
675,8	1957,043
676,2	1944,243
676,7	1930,3
677,1	1916,157
677,5	1906,557
678	1894,671
678,4	1887,414
678,9	1879,786
679,3	1865,557
679,7	1856,186
680,2	1848,214
680,6	1841,014
681,1	1831,814
681,5	1819,957
681,9	1806,271
682,4	1802,557
682,8	1793,7
683,3	1781,471
683,7	1766,443
684,1	1751,386
684,6	1736,5
685	1722,3
685,5	1706,329
685,9	1692,157
686,3	1684,471
686,8	1674,386
687,2	1659,014
687,7	1654,129
688,1	1644,271
688,5	1638,243
689	1630,643
689,4	1621,843
689,9	1612,414
690,3	1611,614
690,7	1597,5
691,2	1581,614
691,6	1568,243
692	1552,071
692,5	1537,871
692,9	1521,557
693,4	1506,214
693,8	1499,1
694,2	1495,729
694,7	1486,7
695,1	1483,5
695,6	1474,329
696	1469,329
696,4	1460,3
696,9	1449,757
697,3	1433,986
697,8	1423,129
698,2	1410,814
698,6	1400,014
699,1	1392,529
699,5	1381,957
699,9	1375,043
700,4	1371,557
700,8	1366,9
701,3	1358,414
701,7	1351,414
702,1	1338,071
702,6	1329,5
703	1318,5
703,5	1304,757
703,9	1291,1
704,3	1279,471
704,8	1268,271
705,2	1260,929
705,6	1253,786
706,1	1245,786
706,5	1243,357
707	1240,557
707,4	1233,557
707,8	1223,757
708,3	1213,529
708,7	1206,214
709,2	1198,786
709,6	1185,557
710	1175,271
710,5	1165,014
710,9	1161,071
711,3	1149,786
711,8	1138,129
712,2	1128,986
712,7	1123,814
713,1	1111,786
713,5	1107,214
714	1096,614
714,4	1091,586
714,8	1087,871
715,3	1079,814
715,7	1071,814
716,2	1068,157
716,6	1055,871
717	1050,043
717,5	1042,1
717,9	1032,671
718,3	1024,814
718,8	1019,7
719,2	1005,386
719,7	1001,214
720,1	993,786
720,5	986,614
721	975,014
721,4	967,557
721,8	961,1
722,3	962,043
722,7	958,414
723,2	945,929
723,6	939,529
724	932,529
724,5	924,757
724,9	917,386
725,3	906,357
725,8	896,671
726,2	889,186
726,7	885,357
727,1	879,243
727,5	876,243
728	866,557
728,4	864,414
728,8	857,557
729,3	854,614
729,7	846,157
730,1	841,243
730,6	831,386
731	827,7
731,5	817,1
731,9	812,214
732,3	812,786
732,8	809,329
733,2	806,929
733,6	804,386
734,1	802,043
734,5	799,843
734,9	790,357
735,4	784,614
735,8	776,643
736,3	770,9
736,7	764,071
737,1	758,386
737,6	754,271
738	754,929
738,4	746,014
738,9	743,814
739,3	743,329
739,7	737,557
740,2	734,386
740,6	730,557
741,1	723,129
741,5	724,129
741,9	717,157
742,4	708,1
742,8	706,671
743,2	705,757
743,7	696,671
744,1	697,5
744,5	692,7
745	687,986
745,4	686,929
745,8	685,671
746,3	678,586
746,7	676,157
747,2	665,814
747,6	659,043
748	656,186
748,5	647,3
748,9	634,471
749,3	622,643
749,8	620,271
750,2	618,129
750,6	616,557
751,1	610,9
751,5	609,157
751,9	608,129
752,4	608,5
752,8	600,871
753,3	598,043
753,7	588,043
754,1	586,929
754,6	584,3
755	581,671
755,4	581,1
755,9	578,9
756,3	577,329
756,7	575,757
757,2	572,214
757,6	562,443
758	556,757
758,5	546,814
758,9	539,871
759,3	532,529
759,8	528,443
760,2	519,614
760,6	520,186
761,1	516,757
761,5	520,3
761,9	522,043
762,4	518,443
762,8	516,014
763,3	513,814
763,7	507,843
764,1	508,157
764,6	498,329
765	488,757
765,4	488,414
765,9	490,014
766,3	488,414
766,7	485,7
767,2	481,671
767,6	480,729
768	478,271
768,5	475,129
768,9	469,471
769,3	465,071
769,8	464,186
770,2	459,729
770,6	456,957
771,1	455,071
771,5	447,986
771,9	449,757
772,4	452,414
772,8	449,1
773,2	445,643
773,7	441,071
774,1	439,214
774,5	433,757
775	422,129
775,4	411,386
775,8	407,329
776,3	406,871
776,7	404,586
777,1	398,986
777,6	397,671
778	395,357
778,4	399,414
778,9	398,986
779,3	392,671
779,7	390,271
780,2	393,1
780,6	389,757
781	384,243
781,5	377,557
781,9	375,414
782,3	375,129
782,8	373,586
783,2	367,871
783,6	372,643
784,1	374,729
784,5	373,671
784,9	365,357
785,4	363,357
785,8	359,329
786,2	356,186
786,7	349,557
787,1	347,329
787,5	345,814
788	346,5
788,4	343,729
788,8	340,729
789,3	339,586
789,7	337,729
790,1	332,157
790,6	329,586
791	329,786
791,4	326,614
791,9	324,929
792,3	326,729
792,7	321,071
793,2	322,271
793,6	315,471
794	309,5
794,5	307,586
794,9	304,871
795,3	304,786
795,8	304,586
796,2	302,071
796,6	302,357
797,1	294,871
797,5	295,671
797,9	293,929
798,4	280,7
798,8	279,186
799,2	281,043
799,7	278,986
800,1	281,329
800,5	275,814
801	272,957
801,4	281,557
801,8	275,071
802,2	265,786
802,7	267,757
803,1	265,9
803,5	262,3
804	262,871
804,4	256,186
804,8	257,329
805,3	258,929
805,7	250,957
806,1	253,5
806,6	250,7
807	246,586
807,4	242,529
807,9	242,7
808,3	239,586
808,7	239,3
809,2	237,671
809,6	242,271
810	240,9
810,4	239,586
810,9	234,3
811,3	233,186
811,7	237,186
812,2	225,986
812,6	218,271
813	215,671
813,5	212,529
813,9	210,557
814,3	208,071
814,8	199,186
815,2	205,014
815,6	202,757
816,1	198,271
816,5	198,129
816,9	198,443
817,3	196,071
817,8	196,071
818,2	190,671
818,6	187,9
819,1	193,043
819,5	188,614
819,9	188,443
820,4	190,9
820,8	188,1
821,2	190,986
821,7	192,386
822,1	187,186
822,5	191,329
822,9	188,014
823,4	185,957
823,8	185,329
824,2	184,014
824,7	183,9
825,1	180,443
825,5	177,671
826	179,157
826,4	173,786
826,8	174,957
827,3	174,357
827,7	172,443
828,1	175,929
828,5	172,529
829	169,614
829,4	167,243
829,8	163,129
830,3	161,129
830,7	159,329
831,1	156,3
831,6	158,157
832	157,986
832,4	161,043
832,8	156,214
833,3	155,357
833,7	152,043
834,1	150,443
834,6	147,3
835	149,929
835,4	142,843
835,8	146,3
836,3	142,7
836,7	145,671
837,1	142,757
837,6	140,957
838	134,5
838,4	133,843
838,9	132,586
839,3	136,843
839,7	139,614
840,1	139,214
840,6	139,386
841	137,643
841,4	139,243
841,9	136,214
842,3	130,014
842,7	119,357
843,1	120,443
843,6	119,786
844	120,557
844,4	118,814
844,9	116,214
845,3	119,5
845,7	124,3
846,2	125,386
846,6	123,186
847	124,586
847,4	118,557
847,9	119,386
848,3	116,814
848,7	112,843
849,2	108,957
849,6	107,729
850	106,957
850,4	113,7
850,9	116,014
851,3	116,757
851,7	117,557
852,2	117,243
852,6	116,186
853	111,757
853,4	111,271
853,9	106,186
854,3	103,271
854,7	98,3
855,2	101,814
855,6	101,357
856	100,986
856,4	98,557
856,9	102,1
857,3	98,386
857,7	103,414
858,2	94,329
858,6	94,214
859	89,671
859,4	94,157
859,9	92,843
860,3	91,814
860,7	94,014
861,1	95,614
861,6	98,386
862	100,7
862,4	94,329
862,9	91,386
863,3	88,3
863,7	81,614
864,1	81,014
864,6	80,186
865	80,814
865,4	81,757
865,9	83,5
866,3	87,357
866,7	89,129
867,1	85,1
867,6	84,557
868	86,071
868,4	84,586
868,8	80,386
869,3	79,357
869,7	79,757
870,1	85,671
870,6	78,643
871	76,986
871,4	74,9
871,8	77,986
872,3	75,386
872,7	73,043
873,1	71,757
873,5	77,471
874	75,471
874,4	77,3
874,8	80,414
875,3	83,671
875,7	81,7
876,1	80,1
876,5	76,186
877	79,471
877,4	77,129
877,8	72,729
878,2	69,843
878,7	73,329
879,1	71,329
879,5	67,186
879,9	63,014
880,4	67,671
880,8	68,471
881,2	69,643
881,7	66,014
882,1	70,586
882,5	76,586
882,9	73,671
883,4	68,586
883,8	66,757
884,2	58,843
884,6	62,586
885,1	58,871
885,5	58,157
885,9	62,757
886,3	61,757
886,8	58,357
887,2	60,9
887,6	57,529
888	54,729
888,5	52,5
888,9	48,1
889,3	49,929
889,8	56,071
890,2	58,757
890,6	57,014
891	56,329
891,5	55,414
891,9	55,986
892,3	52,786
892,7	49,186
893,2	49,957
893,6	50,271
894	50,957
894,4	47,929
894,9	47,5
895,3	47,843
895,7	48,557
896,1	45,043
896,6	45,786
897	43,471
897,4	46,643
897,8	51,186
898,3	55,3
898,7	50,071
899,1	58,643
899,5	58,043
900	59,243
900,4	61,786
900,8	57,671
901,2	52,386
901,7	54,071
902,1	48,014
902,5	45,7
902,9	42,957
903,4	38,643
903,8	35,729
904,2	33,7
904,6	32,329
905,1	35,671
905,5	36,7
905,9	44,014
906,3	40,9
906,8	43,186
907,2	41,586
907,6	46,129
908	38,529
908,5	38,929
908,9	35,471
909,3	38,071
909,7	41,071
910,2	47,157
910,6	41,557
911	40,7
911,4	39,186
911,9	35,157
912,3	31,757
912,7	26,214
913,1	26,357
913,6	24,414
914	28,843
914,4	24,243
914,8	26,157
915,3	27,929
915,7	30,357
916,1	28,7
916,5	34,729
916,9	29,814
917,4	35,271
917,8	32,214
918,2	34,7
918,6	31,386
919,1	30,929
919,5	27,843
919,9	32,214
920,3	33,014
920,8	34,671
921,2	31,786
921,6	35,386
922	32,014
922,5	34,014
922,9	33,614
923,3	33,443
923,7	35,043
924,2	37,614
924,6	35,729
925	39,329
925,4	37,014
925,8	38,614
926,3	40,3
926,7	41,214
927,1	45,186
927,5	48,7
928	47,214
928,4	50,5
928,8	45,7
929,2	40,271
929,7	41,1
930,1	32,814
930,5	32,329
930,9	29,786
931,3	25,5
931,8	30,5
932,2	29,357
932,6	24,243
933	26,986
933,5	27,157
933,9	26,9
934,3	33,729
934,7	28,214
935,2	29,586
935,6	32,129
936	31,786
936,4	27,014
936,8	31,614
937,3	25,843
937,7	25,614
938,1	20,529
938,5	18,671
939	21,1
939,4	20,986
939,8	17,443
940,2	16,557
940,6	16,586
941,1	22,957
941,5	24,986
941,9	24,5
942,3	25,186
942,8	26,5
943,2	30,9
943,6	32,3
944	31,7
944,4	31,671
944,9	25,957
945,3	22,929
945,7	22,757
946,1	22,1
946,6	23,843
947	25,643
947,4	23,557
947,8	26,586
948,2	29,7
948,7	25,386
949,1	22,243
949,5	19,9
949,9	15,7
950,3	20,529
950,8	21,557
951,2	21,243
951,6	27,043
952	25,7
952,5	27,1
952,9	27,586
953,3	24,1
953,7	20,843
954,1	21,529
954,6	20,1
955	18,7
955,4	22,5
955,8	22,386
956,2	23,671
956,7	25,529
957,1	24,814
957,5	23,757
957,9	25,557
958,3	18,043
958,8	18,729
959,2	15,786
959,6	15,443
960	19,1
960,5	17,186
960,9	21,014
961,3	24,586
961,7	24,043
962,1	25,843
962,6	25,3
963	19,586
963,4	21,729
963,8	21,871
964,2	20,643
964,7	20,386
965,1	17,414
965,5	17,5
965,9	19,471
966,3	17,614
966,8	16,043
967,2	15,671
967,6	19,7
968	19,614
968,4	19,071
968,9	17,014
969,3	17,471
969,7	15,014
970,1	17,757
970,5	14,357
971	13,729
971,4	16,386
971,8	15,757
972,2	15,871
972,6	20,243
973,1	18,014
973,5	14,814
973,9	16,386
974,3	15,329
974,7	18,214
975,2	19,643
975,6	16,529
976	18,729
976,4	20,014
976,8	18,586
977,3	18,043
977,7	20,3
978,1	16,643
978,5	13,586
978,9	8,214
979,4	12,329
979,8	15,186
980,2	15,043
980,6	10,214
981	9,9
981,5	11,3
981,9	14,929
982,3	16,471
982,7	12,7
983,1	9,1
983,6	11,1
984	12,214
984,4	14,471
984,8	16,7
985,2	15,557
985,6	21,357
986,1	26,3
986,5	28,557
986,9	30,671
987,3	27,443
987,7	25,214
988,2	21,786
988,6	20,471
989	18,9
989,4	17,129
989,8	16,586
990,3	16,5
990,7	20,3
991,1	23,5
991,5	25,586
991,9	25,129
992,3	21,843
992,8	24,614
993,2	23,071
993,6	16,1
994	12,957
994,4	15,329
994,9	12,729
995,3	20,157
995,7	17,414
996,1	20,614
996,5	22,614
996,9	19,1
997,4	13,014
997,8	19,643
998,2	10,1
998,6	11,529
999	13,1
999,5	12,957
999,9	18,843
1000,3	22,5
1000,7	17,586
1001,1	21,043
1001,5	22,157
1002	20,757
1002,4	22,414
1002,8	19,043
1003,2	15,871
1003,6	17,129
1004	16,414
1004,5	12,614
1004,9	13,614
1005,3	9,157
1005,7	9,329
1006,1	12,671
1006,6	8,9
1007	9,186
1007,4	6,929
1007,8	7,214
1008,2	11,271
1008,6	14,529
1009,1	14,443
1009,5	22,1
1009,9	24,014
1010,3	26,329
1010,7	28,129
1011,1	27,9
1011,6	28,557
1012	22,7
1012,4	23,243
1012,8	24,186
1013,2	27,014
1013,6	22,586
1014,1	22,557
1014,5	19,471
1014,9	23,014
1015,3	17,357
1015,7	14,3
1016,1	10,614
1016,6	9,643
1017	10,557
1017,4	5,643
1017,8	-0,7
1018,2	1,786
1018,6	5,271
1019,1	6,614
1019,5	6,7
1019,9	4,643
1020,3	10,814
1020,7	17,186
1021,1	19,357
1021,6	14,443
1022	16,5
1022,4	21,043
1022,8	20,414
1023,2	19,3
1023,6	15,586
1024,1	11,557
1024,5	12,986
1024,9	14,729
1025,3	11,871
1025,7	14,214
1026,1	17,929
1026,6	19,071
1027	20,414
1027,4	24,843
1027,8	22,014
1028,2	21,357
1028,6	22,471
1029	17,3
1029,5	19,357
1029,9	19,786
1030,3	20,043
1030,7	21,271
1031,1	24,414
1031,5	23,443
1032	25,614
1032,4	27,529
1032,8	24,814
1033,2	21,643
1033,6	18,957
1034	15,529
1034,4	14,071
1034,9	16,214
1035,3	10,3
1035,7	10,986
1036,1	12,186
1036,5	17,586
1036,9	19,071
1037,4	22,471
1037,8	23,586
1038,2	28,157
1038,6	30,814
1039	28,814
1039,4	28,186
1039,8	27,157
1040,3	26,529
1040,7	20,529
1041,1	18,043
1041,5	19,529
1041,9	20,214
1042,3	14,586
1042,7	10,414
1043,2	9,214
1043,6	16,871
1044	22,243
1044,4	22,414
1044,8	19,071
1045,2	24,871
1045,6	32,186
1046,1	35,643
1046,5	29,5
1046,9	27,9
1047,3	22,243
1047,7	27,7
1048,1	22,443
1048,5	19,329
1049	16,414
1049,4	17,1
1049,8	10,986
1050,2	12,186
1050,6	9,557
1051	7,014
1051,4	8,357
1051,9	4,271
1052,3	9,471
1052,7	14,329
1053,1	17,386
1053,5	14,929
1053,9	21,157
1054,3	16,129
1054,8	20,871
1055,2	9,414
1055,6	9,071
1056	5,3
1056,4	11,7
1056,8	10,329
1057,2	14,7
1057,6	14,843
1058,1	20,586
1058,5	17,186
1058,9	15,986
1059,3	16,3
1059,7	12,586
1060,1	9,843
1060,5	5,529
1061	9,357
1061,4	14,471
1061,8	15,9
1062,2	13,814
1062,6	18,9
1063	20,814
1063,4	23,043
1063,8	24,471
1064,3	22,643
1064,7	23,271
1065,1	23,186
1065,5	22,986
1065,9	25,1
1066,3	23,071
1066,7	20,043
1067,1	17,9
1067,6	19,471
1068	18,271
1068,4	17,014
1068,8	7,243
1069,2	12,529
1069,6	9,271
1070	10,557
1070,4	9,843
1070,9	7,871
1071,3	11,329
1071,7	18,414
1072,1	12,186
1072,5	13,1
1072,9	11,9
1073,3	14,386
1073,7	15,443
1074,2	11,443
1074,6	8,014
1075	9,357
1075,4	7,271
1075,8	10,986
1076,2	10,014
1076,6	16,129
1077	13,9
1077,5	16,871
1077,9	16,9
1078,3	17,7
1078,7	14,471
1079,1	17,9
1079,5	13,243
1079,9	14,671
1080,3	15,929
1080,7	19,443
1081,2	20,186
1081,6	16,071
1082	13,643
1082,4	9,3
1082,8	9,643
1083,2	9,129
1083,6	2,757
1084	4,529
1084,5	9,957
1084,9	8,214
1085,3	10,186
1085,7	11,557
1086,1	12,186
1086,5	16,071
1086,9	15,271
1087,3	10,7
1087,7	6,529
1088,2	8,643
1088,6	6,157
1089	5,414
1089,4	4,1
1089,8	5,214
1090,2	9,786
1090,6	11,414
1091	12,471
1091,4	13,9
1091,9	16,129
1092,3	17,671
1092,7	20,671
1093,1	16,557
1093,5	18,586
1093,9	18,871
1094,3	17,157
1094,7	13,271
1095,1	12,643
1095,5	8,157
1096	10,443
1096,4	10,729
1096,8	9,1
1097,2	10,129
1097,6	10,7
1098	11,9
1098,4	10,271
1098,8	8,9
1099,2	4,986
1099,6	3,386
1100,1	5,014
1100,5	6,443
1100,9	6,957
1101,3	8,1
1101,7	10,414
1102,1	16,871
1102,5	15,071
1102,9	9,443
1103,3	7,614
1103,7	7,271
1104,2	8,871
1104,6	13,586
1105	11,214
1105,4	14,414
1105,8	16,929
1106,2	16,986
1106,6	13,871
1107	11,843
1107,4	5,933
1107,8	3,26
1108,3	0
