Data from Subt2_00086.txt Node
Date: Mon Aug 28 13:33:31 MSK 2023
User: vat
Spectrometer: MAYP114033
Trigger mode: 0
Integration Time (sec): 1,000000E0
Scans to average: 5
Electric dark correction enabled: true
Nonlinearity correction enabled: false
Boxcar width: 3
XAxis mode: Wavelengths
Number of Pixels in Spectrum: 2068
>>>>>Begin Spectral Data<<<<<
199,4	-0,383
199,9	-7,013
200,4	-4,9
200,8	0,695
201,3	0,438
201,8	2,867
202,2	3,781
202,7	4,352
203,2	13,038
203,6	14,695
204,1	14,152
204,6	14,952
205	13,61
205,5	14,581
206	15,267
206,4	11,21
206,9	11,21
207,4	7,295
207,8	6,638
208,3	8,781
208,8	6,095
209,2	5,781
209,7	4,924
210,2	1,752
210,6	1,095
211,1	6,352
211,5	6,238
212	9,467
212,5	9,552
212,9	10,267
213,4	13,638
213,9	13,124
214,3	12,838
214,8	9,581
215,3	9,295
215,7	8,381
216,2	6,038
216,7	9,181
217,1	8,695
217,6	6,752
218,1	7,81
218,5	7,21
219	6,21
219,5	14,895
219,9	9,41
220,4	15,638
220,9	12,238
221,3	9,838
221,8	8,267
222,3	12,41
222,7	8,981
223,2	9,067
223,6	1,381
224,1	7,238
224,6	8,495
225	10,981
225,5	5,895
226	2,924
226,4	5,181
226,9	11,61
227,4	13,295
227,8	12,895
228,3	11,61
228,8	14,924
229,2	16,352
229,7	15,038
230,2	15,01
230,6	7,752
231,1	10,067
231,5	12,61
232	10,667
232,5	7,895
232,9	11,695
233,4	7,724
233,9	13,638
234,3	15,01
234,8	15,895
235,3	18,581
235,7	22,781
236,2	22,295
236,7	18,295
237,1	18,667
237,6	15,324
238,1	16,438
238,5	18,152
239	19,01
239,4	14,838
239,9	22,21
240,4	15,981
240,8	23,981
241,3	20,81
241,8	18,152
242,2	12,981
242,7	14,238
243,2	16,838
243,6	22,81
244,1	14,495
244,6	10,295
245	11,067
245,5	11,095
245,9	15,038
246,4	6,524
246,9	4,01
247,3	9,238
247,8	8,952
248,3	9,695
248,7	13,01
249,2	8,238
249,7	15,867
250,1	10,352
250,6	5,581
251	4,61
251,5	4,152
252	1,381
252,4	1,524
252,9	0,81
253,4	5,838
253,8	9,21
254,3	11,181
254,8	13,81
255,2	11,781
255,7	14,781
256,1	11,438
256,6	10,552
257,1	12,61
257,5	10,581
258	3,952
258,5	10,01
258,9	5,467
259,4	6,238
259,9	4,352
260,3	0,981
260,8	0,981
261,2	7,695
261,7	10,495
262,2	12,981
262,6	11,467
263,1	13,467
263,6	9,21
264	16,552
264,5	15,867
264,9	11,352
265,4	8,61
265,9	7,638
266,3	7,438
266,8	12,324
267,3	9,01
267,7	4,124
268,2	4,752
268,7	6,581
269,1	8,01
269,6	6,638
270	0,295
270,5	5,667
271	5,467
271,4	2,81
271,9	-2,562
272,4	-1,733
272,8	3,495
273,3	7,552
273,7	0,867
274,2	1,01
274,7	3,01
275,1	11,352
275,6	16,981
276,1	14,21
276,5	12,81
277	15,41
277,4	17,038
277,9	13,752
278,4	9,895
278,8	3,552
279,3	1,895
279,8	2,695
280,2	7,295
280,7	6,495
281,1	9,81
281,6	8,924
282,1	11,495
282,5	13,61
283	12,352
283,4	7,895
283,9	8,895
284,4	9,667
284,8	10,438
285,3	7,438
285,8	6,838
286,2	8,438
286,7	6,667
287,1	5,981
287,6	7,867
288,1	8,238
288,5	11,724
289	8,581
289,5	10,238
289,9	11,495
290,4	10,41
290,8	11,41
291,3	14,352
291,8	10,352
292,2	12,752
292,7	13,467
293,1	15,752
293,6	11,552
294,1	10,581
294,5	10,467
295	12,124
295,5	12,81
295,9	12,21
296,4	11,124
296,8	14,981
297,3	17,467
297,8	16,724
298,2	17,067
298,7	14,952
299,1	14,352
299,6	12,495
300,1	16,552
300,5	10,438
301	5,01
301,5	6,524
301,9	3,067
302,4	2,152
302,8	1,01
303,3	5,438
303,8	11,61
304,2	21,495
304,7	15,181
305,1	18,61
305,6	16,467
306,1	18,924
306,5	8,667
307	2,467
307,4	-5,133
307,9	-4,048
308,4	-5,133
308,8	-0,648
309,3	1,324
309,8	6,524
310,2	3,752
310,7	3,895
311,1	5,267
311,6	5,295
312,1	2,124
312,5	-0,733
313	-2,333
313,4	3,495
313,9	5,295
314,4	7,867
314,8	11,952
315,3	17,438
315,7	16,895
316,2	14,581
316,7	13,438
317,1	12,61
317,6	12,952
318	13,81
318,5	10,352
319	11,21
319,4	13,238
319,9	11,324
320,3	14,238
320,8	14,524
321,3	10,01
321,7	9,152
322,2	7,41
322,6	7,895
323,1	8,781
323,6	7,867
324	3,067
324,5	7,01
324,9	12,495
325,4	17,381
325,9	21,01
326,3	20,895
326,8	20,895
327,2	23,21
327,7	16,238
328,2	12,352
328,6	7,667
329,1	0,81
329,5	-0,619
330	-0,962
330,5	4,695
330,9	5,724
331,4	6,038
331,8	5,81
332,3	11,495
332,8	15,41
333,2	14,41
333,7	8,038
334,1	6,01
334,6	4,067
335,1	8,524
335,5	4,724
336	5,524
336,4	7,695
336,9	9,152
337,4	15,238
337,8	17,124
338,3	13,324
338,7	18,21
339,2	12,41
339,7	10,981
340,1	10,724
340,6	6,838
341	5,752
341,5	9,81
342	6,467
342,4	4,724
342,9	5,752
343,3	6,352
343,8	11,238
344,2	14,067
344,7	11,781
345,2	11,324
345,6	16,752
346,1	14,981
346,5	15,924
347	10,467
347,5	7,924
347,9	6,524
348,4	7,324
348,8	6,21
349,3	3,752
349,8	1,438
350,2	6,638
350,7	9,467
351,1	12,295
351,6	15,438
352	19,724
352,5	31,438
353	39,695
353,4	43,724
353,9	53,238
354,3	66,067
354,8	72,838
355,3	90,324
355,7	106,381
356,2	124,781
356,6	149,21
357,1	177,095
357,5	203,552
358	247,695
358,5	282,952
358,9	327,467
359,4	384,21
359,8	447,067
360,3	505,438
360,8	586,581
361,2	668,524
361,7	761,638
362,1	861,781
362,6	970,838
363	1091,467
363,5	1225,41
364	1350,524
364,4	1478,21
364,9	1610,867
365,3	1750,01
365,8	1883,781
366,3	1999,552
366,7	2098,924
367,2	2194,981
367,6	2277,467
368,1	2337,438
368,5	2369,21
369	2384,352
369,5	2383,552
369,9	2369,181
370,4	2325,467
370,8	2266,867
371,3	2198,638
371,7	2120,41
372,2	2029,324
372,7	1934,381
373,1	1837,752
373,6	1736,838
374	1632,638
374,5	1525,638
374,9	1422,981
375,4	1320,724
375,9	1226,381
376,3	1124,352
376,8	1036,238
377,2	956,524
377,7	883,552
378,2	810,61
378,6	744,181
379,1	676,41
379,5	625,752
380	573,524
380,4	528,467
380,9	486,552
381,4	448,581
381,8	415,267
382,3	384,41
382,7	354,238
383,2	328,267
383,6	304,152
384,1	282,952
384,6	265,552
385	248,895
385,5	236,895
385,9	225,724
386,4	215,152
386,8	200,895
387,3	186,695
387,7	173,667
388,2	162,352
388,7	149,895
389,1	137,152
389,6	127,952
390	118,895
390,5	117,524
390,9	108,038
391,4	100,152
391,9	90,924
392,3	87,01
392,8	84,152
393,2	82,21
393,7	75,095
394,1	70,467
394,6	70,895
395,1	78,467
395,5	75,981
396	71,524
396,4	64,524
396,9	61,267
397,3	65,352
397,8	59,067
398,2	43,924
398,7	33,61
399,2	30,724
399,6	34,21
400,1	30,895
400,5	28,667
401	32,152
401,4	35,41
401,9	43,438
402,4	42,381
402,8	45,667
403,3	50,095
403,7	47,752
404,2	46,381
404,6	46,581
405,1	48,952
405,5	49,724
406	48,238
406,5	49,952
406,9	55,238
407,4	52,238
407,8	55,752
408,3	50,952
408,7	53,524
409,2	48,752
409,6	46,552
410,1	43,352
410,6	44,638
411	44,495
411,5	44,695
411,9	44,781
412,4	53,638
412,8	56,952
413,3	61,21
413,7	66,581
414,2	68,667
414,7	73,41
415,1	79,61
415,6	74,61
416	77,01
416,5	83,41
416,9	88,352
417,4	93,267
417,8	97,895
418,3	98,067
418,8	104,667
419,2	106,324
419,7	105,724
420,1	98,21
420,6	102,695
421	103,752
421,5	106,152
421,9	103,295
422,4	105,038
422,8	103,638
423,3	111,467
423,8	111,41
424,2	113,695
424,7	116,952
425,1	118,61
425,6	117,981
426	120,667
426,5	119,381
426,9	120,267
427,4	119,61
427,9	123,41
428,3	128,495
428,8	132,695
429,2	132,01
429,7	135,067
430,1	133,495
430,6	132,21
431	127,41
431,5	124,438
431,9	126,724
432,4	126,752
432,8	128,124
433,3	131,324
433,8	140,124
434,2	143,61
434,7	145,667
435,1	150,152
435,6	153,952
436	155,238
436,5	161,81
436,9	168,981
437,4	178,952
437,8	188,21
438,3	190,495
438,8	201,81
439,2	215,752
439,7	223,181
440,1	227,295
440,6	232,381
441	243,095
441,5	252,152
441,9	258,152
442,4	263,324
442,8	275,752
443,3	287,895
443,7	296,324
444,2	311,41
444,7	327,924
445,1	347,21
445,6	360,667
446	376,352
446,5	391,095
446,9	409,638
447,4	424,952
447,8	440,838
448,3	458,981
448,7	479,267
449,2	492,01
449,6	510,952
450,1	528,552
450,6	546,838
451	569,495
451,5	589,381
451,9	611,295
452,4	635,838
452,8	652,752
453,3	676,895
453,7	698,495
454,2	718,41
454,6	740,467
455,1	766,467
455,5	791,667
456	818,838
456,4	843,067
456,9	874,067
457,3	908,724
457,8	935,552
458,3	957,524
458,7	989,01
459,2	1020,895
459,6	1055,01
460,1	1085,667
460,5	1113,124
461	1150,838
461,4	1192,21
461,9	1222,267
462,3	1261,495
462,8	1300,895
463,2	1334,61
463,7	1369,838
464,1	1401,952
464,6	1432,467
465	1473,267
465,5	1505,21
466	1542,781
466,4	1583,352
466,9	1623,067
467,3	1663,867
467,8	1711,838
468,2	1748,41
468,7	1793,724
469,1	1833,038
469,6	1865,838
470	1903,524
470,5	1943,581
470,9	1979,638
471,4	2026,867
471,8	2065,695
472,3	2107,895
472,7	2156,124
473,2	2198,552
473,6	2233,781
474,1	2274,667
474,5	2308,924
475	2349,095
475,4	2382,61
475,9	2419,981
476,4	2461,81
476,8	2505,552
477,3	2544,924
477,7	2583,61
478,2	2624,61
478,6	2664,238
479,1	2705,981
479,5	2742,495
480	2778,324
480,4	2817,438
480,9	2857,038
481,3	2891,61
481,8	2928,581
482,2	2964,267
482,7	3001,438
483,1	3032,952
483,6	3063,752
484	3093,781
484,5	3129,238
484,9	3165,438
485,4	3196,467
485,8	3222,838
486,3	3257,21
486,7	3288,952
487,2	3327,638
487,6	3352,638
488,1	3375,895
488,5	3399,438
489	3429,181
489,4	3458,61
489,9	3478,267
490,4	3493,781
490,8	3515,295
491,3	3537,124
491,7	3561,152
492,2	3574,581
492,6	3590,724
493,1	3613,581
493,5	3635,695
494	3660,324
494,4	3671,81
494,9	3688,61
495,3	3707,067
495,8	3724,838
496,2	3743,524
496,7	3751,581
497,1	3756,924
497,6	3777,61
498	3796,324
498,5	3812,41
498,9	3826,752
499,4	3837,581
499,8	3853,495
500,3	3871,438
500,7	3881,295
501,2	3888,238
501,6	3899,581
502,1	3909,752
502,5	3918,352
503	3932,638
503,4	3939,981
503,9	3953,067
504,3	3961,724
504,8	3972,724
505,2	3984,095
505,7	3992,924
506,1	3990,381
506,6	3995,352
507	4000,438
507,5	4004,81
507,9	4011,867
508,4	4013,095
508,8	4020,524
509,3	4037,552
509,7	4043,295
510,2	4049,352
510,6	4052,267
511,1	4052,267
511,5	4061,952
512	4070,838
512,4	4081,981
512,9	4091,038
513,3	4097,81
513,8	4112,095
514,2	4120,381
514,7	4120,81
515,1	4121,067
515,6	4119,324
516	4120,752
516,5	4126,524
516,9	4128,41
517,4	4137,552
517,8	4146,581
518,3	4157,095
518,7	4157,152
519,2	4171,61
519,6	4176,095
520,1	4185,552
520,5	4189,895
521	4189,952
521,4	4193,752
521,9	4196,781
522,3	4199,724
522,8	4205,638
523,2	4205,01
523,7	4210,381
524,1	4218,695
524,6	4218,952
525	4230,352
525,5	4238,067
525,9	4245,552
526,4	4257,352
526,8	4262,267
527,3	4268,667
527,7	4282,781
528,2	4298,238
528,6	4307,867
529,1	4314,952
529,5	4322,438
530	4335,295
530,4	4348,524
530,9	4356,981
531,3	4361,324
531,8	4363,495
532,2	4373,952
532,6	4383,61
533,1	4377,667
533,5	4379,238
534	4377,324
534,4	4381,352
534,9	4386,21
535,3	4397,524
535,8	4406,838
536,2	4423,352
536,7	4440,438
537,1	4459,467
537,6	4468,01
538	4486,667
538,5	4494,61
538,9	4493,524
539,4	4513,981
539,8	4515,524
540,3	4525,381
540,7	4534,981
541,2	4536,867
541,6	4541,181
542,1	4555,981
542,5	4556,724
543	4560,438
543,4	4567,467
543,9	4577,495
544,3	4591,352
544,8	4606,867
545,2	4619,895
545,7	4631,81
546,1	4651,552
546,5	4658,01
547	4671,952
547,4	4680,638
547,9	4679,981
548,3	4684,61
548,8	4689,81
549,2	4698,352
549,7	4705,981
550,1	4707,61
550,6	4709,724
551	4723,124
551,5	4728,267
551,9	4739,495
552,4	4742,524
552,8	4755,152
553,3	4765,438
553,7	4779,752
554,2	4791,067
554,6	4808,352
555,1	4810,867
555,5	4823,352
555,9	4825,695
556,4	4834,21
556,8	4852,295
557,3	4852,667
557,7	4855,124
558,2	4870,038
558,6	4875,667
559,1	4886,152
559,5	4897,267
560	4893,21
560,4	4901,152
560,9	4910,61
561,3	4908,324
561,8	4916,724
562,2	4918,01
562,7	4913,981
563,1	4917,438
563,6	4926,381
564	4923,838
564,4	4936,438
564,9	4939,467
565,3	4947,21
565,8	4954,867
566,2	4960,495
566,7	4966,524
567,1	4977,01
567,6	4977,467
568	4980,21
568,5	4984,781
568,9	4991,61
569,4	4994,438
569,8	4995,181
570,3	4997,667
570,7	5003,267
571,1	5008,924
571,6	5010,438
572	5008,41
572,5	5005,038
572,9	4999,552
573,4	4993,381
573,8	4991,038
574,3	4997,924
574,7	4996,238
575,2	4990,124
575,6	5000,352
576,1	5005,41
576,5	5011,352
576,9	5008,381
577,4	4994,952
577,8	4994,895
578,3	4995,238
578,7	4983,752
579,2	4973,61
579,6	4968,81
580,1	4961,781
580,5	4962,695
581	4955,695
581,4	4953,952
581,9	4950,181
582,3	4947,01
582,7	4937,038
583,2	4933,724
583,6	4918,295
584,1	4910,267
584,5	4903,667
585	4893,81
585,4	4886,238
585,9	4875,724
586,3	4860,038
586,8	4855,552
587,2	4849,267
587,6	4840,438
588,1	4832,238
588,5	4825,438
589	4818,41
589,4	4815,867
589,9	4810,438
590,3	4804,152
590,8	4791,952
591,2	4787,095
591,7	4780,667
592,1	4778,381
592,5	4775,467
593	4766,524
593,4	4759,867
593,9	4757,438
594,3	4754,124
594,8	4748,038
595,2	4738,438
595,7	4726,21
596,1	4712,495
596,6	4704,095
597	4693,095
597,4	4682,981
597,9	4670,21
598,3	4659,695
598,8	4657,295
599,2	4654,581
599,7	4645,952
600,1	4637,524
600,6	4622,41
601	4616,781
601,4	4612,295
601,9	4598,81
602,3	4583,238
602,8	4574,924
603,2	4566,552
603,7	4563,01
604,1	4551,467
604,6	4534,01
605	4524,838
605,4	4519,895
605,9	4498,952
606,3	4486,181
606,8	4471,61
607,2	4458,41
607,7	4450,495
608,1	4433,895
608,6	4420,981
609	4414,981
609,4	4399,095
609,9	4377,781
610,3	4360,61
610,8	4344,381
611,2	4329,324
611,7	4310,438
612,1	4290,638
612,6	4278,095
613	4259,467
613,4	4252,667
613,9	4239,552
614,3	4223,438
614,8	4208,381
615,2	4198,438
615,7	4189,181
616,1	4182,21
616,6	4163,381
617	4143,267
617,4	4129,01
617,9	4118,381
618,3	4094,695
618,8	4076,152
619,2	4060,238
619,7	4045,181
620,1	4030,581
620,5	4014,981
621	3990,181
621,4	3980,924
621,9	3961,438
622,3	3943,952
622,8	3921,41
623,2	3907,41
623,6	3891,01
624,1	3876,238
624,5	3854,952
625	3836,952
625,4	3821,152
625,9	3802,724
626,3	3783,524
626,8	3760,152
627,2	3747,667
627,6	3736,81
628,1	3716,952
628,5	3697,067
629	3683,267
629,4	3665,181
629,9	3650,752
630,3	3631,095
630,7	3608,61
631,2	3588,924
631,6	3569,01
632,1	3554,495
632,5	3535,21
633	3514,495
633,4	3491,952
633,8	3471,067
634,3	3458,124
634,7	3448,152
635,2	3427,352
635,6	3408,838
636,1	3390,581
636,5	3375,667
636,9	3361,81
637,4	3344,695
637,8	3321,524
638,3	3301,181
638,7	3284,295
639,2	3270,21
639,6	3254,81
640	3235,724
640,5	3212,41
640,9	3196,61
641,4	3182,981
641,8	3171,124
642,2	3157,81
642,7	3143,238
643,1	3122,781
643,6	3118,067
644	3104,752
644,5	3091,267
644,9	3071,667
645,3	3055,152
645,8	3038,752
646,2	3024,838
646,7	2996,724
647,1	2978,124
647,6	2957,181
648	2941,867
648,4	2923,695
648,9	2906,581
649,3	2894,41
649,8	2882,61
650,2	2873,124
650,6	2863,495
651,1	2847,752
651,5	2836,495
652	2823,924
652,4	2803,438
652,9	2788,81
653,3	2765,467
653,7	2750,81
654,2	2733,638
654,6	2713,095
655,1	2693,524
655,5	2681,924
655,9	2669,867
656,4	2660,152
656,8	2641,41
657,3	2626,295
657,7	2618,581
658,2	2605,467
658,6	2592,524
659	2578,181
659,5	2563,952
659,9	2543,324
660,4	2526,21
660,8	2508,695
661,2	2492,238
661,7	2477,638
662,1	2464,01
662,6	2440,181
663	2433,067
663,4	2421,952
663,9	2403,838
664,3	2393,752
664,8	2374,41
665,2	2358,238
665,6	2346,324
666,1	2329,552
666,5	2317,067
667	2307,438
667,4	2288,124
667,9	2279,581
668,3	2261,61
668,7	2251,781
669,2	2238,752
669,6	2221,752
670,1	2203,667
670,5	2194,438
670,9	2178,61
671,4	2160,01
671,8	2141,038
672,3	2124,552
672,7	2113,752
673,1	2099,724
673,6	2080,238
674	2062,61
674,5	2054,352
674,9	2044,467
675,3	2026,067
675,8	2011,752
676,2	1995,267
676,7	1984,552
677,1	1976,381
677,5	1961,61
678	1947,638
678,4	1941,61
678,9	1931,952
679,3	1922,381
679,7	1911,524
680,2	1899,124
680,6	1891,095
681,1	1879,81
681,5	1867,467
681,9	1851,467
682,4	1844,095
682,8	1831,952
683,3	1819,267
683,7	1805,667
684,1	1789,381
684,6	1774,952
685	1759,838
685,5	1745,21
685,9	1736,124
686,3	1723,324
686,8	1712,181
687,2	1705,438
687,7	1695,781
688,1	1688,267
688,5	1677,781
689	1662,981
689,4	1654,095
689,9	1648,495
690,3	1639,381
690,7	1628,352
691,2	1612,152
691,6	1601,267
692	1588,981
692,5	1573,124
692,9	1553,238
693,4	1538,724
693,8	1531,352
694,2	1526,324
694,7	1509,61
695,1	1505,238
695,6	1498,267
696	1494,238
696,4	1484,124
696,9	1471,552
697,3	1461,295
697,8	1453,781
698,2	1435,21
698,6	1425,238
699,1	1416,952
699,5	1404,41
699,9	1397,924
700,4	1384,981
700,8	1381,724
701,3	1374,895
701,7	1363,695
702,1	1350,01
702,6	1345,41
703	1329,152
703,5	1322,495
703,9	1308,981
704,3	1300,438
704,8	1292,867
705,2	1284,838
705,6	1279,238
706,1	1268,981
706,5	1265,381
707	1261,952
707,4	1256,181
707,8	1246,181
708,3	1235,095
708,7	1225,724
709,2	1225,524
709,6	1213,581
710	1204,01
710,5	1198,838
710,9	1193,581
711,3	1183,438
711,8	1170,867
712,2	1158,295
712,7	1148,724
713,1	1142,981
713,5	1130,924
714	1122,838
714,4	1116,924
714,8	1108,667
715,3	1097,752
715,7	1091,667
716,2	1080,695
716,6	1070,238
717	1065,952
717,5	1058,781
717,9	1054,067
718,3	1050,638
718,8	1044,41
719,2	1031,638
719,7	1025,838
720,1	1014,01
720,5	1007,381
721	996,724
721,4	991,41
721,8	983,438
722,3	981,124
722,7	974,01
723,2	968,495
723,6	961,695
724	955,267
724,5	944,752
724,9	940,038
725,3	925,181
725,8	920,895
726,2	909,181
726,7	904,181
727,1	902,781
727,5	894,867
728	883,867
728,4	883,438
728,8	873,267
729,3	868,895
729,7	861,21
730,1	847,067
730,6	842,667
731	839,238
731,5	831,295
731,9	831,124
732,3	829,41
732,8	826,152
733,2	829,724
733,6	827,038
734,1	821,867
734,5	825,41
734,9	812,095
735,4	809,324
735,8	800,01
736,3	792,324
736,7	782,724
737,1	779,181
737,6	767,41
738	768,581
738,4	754,781
738,9	750,952
739,3	747,152
739,7	746,21
740,2	740,952
740,6	736,952
741,1	728,752
741,5	730,724
741,9	728,467
742,4	721,81
742,8	721,981
743,2	719,095
743,7	711,581
744,1	711,838
744,5	704,867
745	694,724
745,4	693,352
745,8	688,352
746,3	684,838
746,7	681,467
747,2	672,495
747,6	663,552
748	662,038
748,5	652,324
748,9	639,267
749,3	625,41
749,8	622,638
750,2	616,038
750,6	622,095
751,1	622,038
751,5	617,867
751,9	615,324
752,4	612,981
752,8	611,581
753,3	608,838
753,7	595,638
754,1	589,724
754,6	585,667
755	583,724
755,4	578,695
755,9	571,095
756,3	570,152
756,7	569,724
757,2	565,21
757,6	562,41
758	558,038
758,5	558,352
758,9	554,467
759,3	547,238
759,8	541,295
760,2	531,638
760,6	525,295
761,1	522,438
761,5	523,667
761,9	519,438
762,4	516,181
762,8	513,667
763,3	513,095
763,7	505,895
764,1	503,152
764,6	496,61
765	494,095
765,4	495,152
765,9	494,61
766,3	492,152
766,7	496,467
767,2	493,838
767,6	491,124
768	487,781
768,5	485,124
768,9	480,667
769,3	476,61
769,8	471,752
770,2	469,21
770,6	465,981
771,1	460,095
771,5	458,21
771,9	456,638
772,4	455,752
772,8	457,752
773,2	450,524
773,7	446,41
774,1	445,095
774,5	435,067
775	426,981
775,4	422,124
775,8	413,552
776,3	414,552
776,7	410,238
777,1	409,952
777,6	407,381
778	407,695
778,4	408,838
778,9	407,038
779,3	401,695
779,7	398,524
780,2	401,038
780,6	399,038
781	393,724
781,5	388,667
781,9	385,895
782,3	383,581
782,8	383,952
783,2	374,095
783,6	374,438
784,1	371,724
784,5	363,352
784,9	361,667
785,4	359,981
785,8	351,41
786,2	347,581
786,7	344,267
787,1	343,552
787,5	346,781
788	342,352
788,4	340,352
788,8	338,467
789,3	335,781
789,7	330,267
790,1	326,552
790,6	323,181
791	323,267
791,4	320,381
791,9	317,952
792,3	317,352
792,7	309,438
793,2	314,324
793,6	311,324
794	307,267
794,5	305,981
794,9	308,638
795,3	310,667
795,8	317,295
796,2	311,01
796,6	312,867
797,1	308,295
797,5	304,524
797,9	299,01
798,4	290,695
798,8	286,381
799,2	286,81
799,7	281,124
800,1	280,01
800,5	274,552
801	276,838
801,4	280,438
801,8	277,381
802,2	272,124
802,7	272,924
803,1	269,238
803,5	271,095
804	263,952
804,4	258,21
804,8	260,352
805,3	257,952
805,7	255,924
806,1	254,438
806,6	249,924
807	252,181
807,4	251,21
807,9	246,124
808,3	245,495
808,7	238,438
809,2	236,838
809,6	238,21
810	233,181
810,4	227,238
810,9	223,067
811,3	220,581
811,7	228,152
812,2	225,895
812,6	221,467
813	218,21
813,5	214,638
813,9	212,381
814,3	207,41
814,8	202,324
815,2	205,638
815,6	202,952
816,1	204,695
816,5	207,467
816,9	206,038
817,3	206,924
817,8	202,524
818,2	198,581
818,6	199,781
819,1	197,638
819,5	195,61
819,9	197,781
820,4	194,781
820,8	191,124
821,2	188,524
821,7	184,352
822,1	179,295
822,5	179,667
822,9	177,181
823,4	180,81
823,8	181,152
824,2	184,81
824,7	187,638
825,1	183,61
825,5	181,152
826	180,01
826,4	174,924
826,8	173,781
827,3	168,124
827,7	164,295
828,1	168,41
828,5	165,467
829	168,124
829,4	162,495
829,8	161,21
830,3	162,81
830,7	162,467
831,1	162,867
831,6	163,724
832	159,552
832,4	161,181
832,8	154,638
833,3	152,438
833,7	150,067
834,1	150,01
834,6	146,467
835	148,152
835,4	145,838
835,8	152,038
836,3	150,952
836,7	146,581
837,1	142,095
837,6	144,695
838	139,524
838,4	136,924
838,9	134,695
839,3	134,295
839,7	135,667
840,1	127,952
840,6	125,21
841	128,524
841,4	131,095
841,9	129,124
842,3	123,81
842,7	122,438
843,1	126,895
843,6	127,21
844	122,124
844,4	121,267
844,9	113,467
845,3	116,524
845,7	116,152
846,2	115,152
846,6	111,181
847	109,724
847,4	101,867
847,9	107,495
848,3	106,638
848,7	104,038
849,2	105,124
849,6	102,524
850	105,61
850,4	110,724
850,9	110,524
851,3	107,838
851,7	109,581
852,2	108,952
852,6	107,552
853	103,124
853,4	102,524
853,9	99,381
854,3	98,581
854,7	96,324
855,2	97,638
855,6	103,61
856	101,867
856,4	102,667
856,9	103,867
857,3	99,21
857,7	101,095
858,2	95,067
858,6	89,067
859	89,638
859,4	93,267
859,9	92,495
860,3	92,724
860,7	93,867
861,1	95,981
861,6	101,581
862	99,495
862,4	92,267
862,9	88,895
863,3	88,152
863,7	83,438
864,1	78,638
864,6	75,61
865	73,924
865,4	74,267
865,9	77,638
866,3	77,867
866,7	80,61
867,1	80,581
867,6	80,667
868	86,924
868,4	88,724
868,8	85,238
869,3	85,81
869,7	81,01
870,1	85,01
870,6	79,038
871	73,867
871,4	69,61
871,8	70,524
872,3	66,724
872,7	69,381
873,1	64,838
873,5	69,181
874	66,924
874,4	64,924
874,8	69,695
875,3	73,952
875,7	71,752
876,1	74,952
876,5	70,524
877	72,952
877,4	77,381
877,8	69,381
878,2	65,267
878,7	66,381
879,1	65,095
879,5	62,01
879,9	64,267
880,4	63,924
880,8	63,924
881,2	67,324
881,7	64,038
882,1	62,267
882,5	69,152
882,9	62,124
883,4	60,381
883,8	62,152
884,2	57,895
884,6	61,552
885,1	61,467
885,5	59,781
885,9	60,467
886,3	59,381
886,8	59,638
887,2	57,924
887,6	54,124
888	56,01
888,5	51,324
888,9	50,21
889,3	50,838
889,8	50,752
890,2	51,238
890,6	48,238
891	45,667
891,5	50,581
891,9	52,667
892,3	54,295
892,7	52,524
893,2	55,01
893,6	53,952
894	54,41
894,4	51,924
894,9	51,352
895,3	48,667
895,7	45,095
896,1	44,724
896,6	47,267
897	45,552
897,4	46,581
897,8	45,81
898,3	48,581
898,7	46,152
899,1	47,467
899,5	48,352
900	48,667
900,4	48,267
900,8	47,724
901,2	45,81
901,7	50,695
902,1	51,724
902,5	48,81
902,9	46,067
903,4	42,095
903,8	41,81
904,2	38,781
904,6	38,524
905,1	37,552
905,5	38,467
905,9	39,067
906,3	37,01
906,8	36,095
907,2	34,01
907,6	35,324
908	29,695
908,5	28,21
908,9	30,524
909,3	31,752
909,7	32,438
910,2	36,752
910,6	33,41
911	31,41
911,4	32,152
911,9	27,895
912,3	28,467
912,7	23,438
913,1	17,524
913,6	15,638
914	22,324
914,4	19,867
914,8	23,067
915,3	23,524
915,7	30,467
916,1	34,61
916,5	37,267
916,9	30,781
917,4	33,324
917,8	29,352
918,2	32,724
918,6	32,838
919,1	31,438
919,5	30,895
919,9	33,524
920,3	33,952
920,8	39,895
921,2	34,638
921,6	34,467
922	34,381
922,5	37,095
922,9	38,067
923,3	38,124
923,7	34,438
924,2	34,867
924,6	30,438
925	31,524
925,4	31,667
925,8	31,41
926,3	32,724
926,7	32,21
927,1	34,152
927,5	37,038
928	33,238
928,4	27,981
928,8	22,895
929,2	18,01
929,7	17,438
930,1	17,095
930,5	18,61
930,9	16,552
931,3	20,01
931,8	23,895
932,2	28,295
932,6	29,124
933	25,152
933,5	26,152
933,9	28,267
934,3	26,181
934,7	24,267
935,2	28,81
935,6	27,952
936	28,238
936,4	26,295
936,8	24,438
937,3	27,724
937,7	27,295
938,1	19,067
938,5	17,238
939	20,895
939,4	17,695
939,8	21,352
940,2	18,952
940,6	20,552
941,1	20,295
941,5	19,21
941,9	21,01
942,3	20,781
942,8	21,752
943,2	23,581
943,6	21,61
944	20,838
944,4	24,324
944,9	20,924
945,3	19,01
945,7	15,095
946,1	16,895
946,6	17,924
947	19,295
947,4	15,124
947,8	18,067
948,2	18,295
948,7	15,695
949,1	12,21
949,5	15,352
949,9	16,41
950,3	20,781
950,8	19,981
951,2	21,467
951,6	22,838
952	21,867
952,5	19,838
952,9	17,01
953,3	18,581
953,7	17,61
954,1	16,61
954,6	18,267
955	13,638
955,4	16,067
955,8	14,438
956,2	13,21
956,7	13,352
957,1	12,295
957,5	13,21
957,9	16,81
958,3	14,124
958,8	14,552
959,2	12,867
959,6	8,124
960	8,895
960,5	4,552
960,9	5,781
961,3	5,581
961,7	5,952
962,1	6,295
962,6	7,495
963	8,867
963,4	12,895
963,8	11,467
964,2	11,01
964,7	15,867
965,1	9,781
965,5	13,924
965,9	14,867
966,3	11,495
966,8	10,924
967,2	6,752
967,6	5,21
968	10,124
968,4	7,895
968,9	6,838
969,3	12,867
969,7	13,524
970,1	15,381
970,5	12,124
971	10,838
971,4	8,724
971,8	9,295
972,2	10,524
972,6	12,838
973,1	13,21
973,5	13,095
973,9	14,581
974,3	16,181
974,7	14,952
975,2	9,981
975,6	8,352
976	10,867
976,4	14,124
976,8	12,467
977,3	10,495
977,7	13,981
978,1	15,981
978,5	16,324
978,9	14,038
979,4	10,638
979,8	10,324
980,2	12,752
980,6	8,638
981	5,467
981,5	0,924
981,9	1,467
982,3	4,01
982,7	5,038
983,1	1,638
983,6	2,724
984	2,638
984,4	4,895
984,8	6,267
985,2	2,467
985,6	3,124
986,1	5,41
986,5	4,295
986,9	7,124
987,3	8,981
987,7	9,952
988,2	12,895
988,6	11,667
989	12,324
989,4	14,067
989,8	14,381
990,3	13,667
990,7	16,095
991,1	19,981
991,5	21,838
991,9	19,438
992,3	19,21
992,8	15,41
993,2	17,695
993,6	15,581
994	13,781
994,4	16,495
994,9	17,267
995,3	25,038
995,7	28,238
996,1	22,381
996,5	18,152
996,9	13,41
997,4	10,638
997,8	15,838
998,2	5,981
998,6	7,81
999	11,295
999,5	15,981
999,9	18,981
1000,3	19,352
1000,7	16,867
1001,1	14,381
1001,5	14,41
1002	15,352
1002,4	14,81
1002,8	11,638
1003,2	11,638
1003,6	13,724
1004	19,181
1004,5	15,01
1004,9	10,838
1005,3	8,095
1005,7	11,238
1006,1	13,867
1006,6	7,438
1007	2,695
1007,4	3,638
1007,8	13,524
1008,2	14,638
1008,6	15,495
1009,1	13,41
1009,5	15,238
1009,9	18,295
1010,3	15,41
1010,7	9,638
1011,1	10,038
1011,6	9,695
1012	6,21
1012,4	12,267
1012,8	10,667
1013,2	15,667
1013,6	13,952
1014,1	9,838
1014,5	7,81
1014,9	11,981
1015,3	5,581
1015,7	8,41
1016,1	2,438
1016,6	0,924
1017	6,295
1017,4	3,638
1017,8	-0,905
1018,2	1,41
1018,6	3,981
1019,1	8,695
1019,5	9,524
1019,9	10,381
1020,3	13,838
1020,7	14,838
1021,1	15,552
1021,6	10,267
1022	12,438
1022,4	14,21
1022,8	11,867
1023,2	7,695
1023,6	9,21
1024,1	3,467
1024,5	-0,019
1024,9	-0,39
1025,3	-0,676
1025,7	-2,019
1026,1	3,81
1026,6	4,667
1027	10,667
1027,4	21,381
1027,8	15,667
1028,2	11,181
1028,6	14,581
1029	13,41
1029,5	13,038
1029,9	13,752
1030,3	8,181
1030,7	14,01
1031,1	21,095
1031,5	22,495
1032	23,181
1032,4	22,61
1032,8	19,324
1033,2	17,238
1033,6	15,41
1034	11,552
1034,4	8,667
1034,9	9,667
1035,3	9,181
1035,7	11,724
1036,1	13,495
1036,5	17,352
1036,9	19,324
1037,4	23,638
1037,8	24,867
1038,2	26,124
1038,6	20,695
1039	22,295
1039,4	16,21
1039,8	17,695
1040,3	12,467
1040,7	8,81
1041,1	6,267
1041,5	11,552
1041,9	9,495
1042,3	12,895
1042,7	10,124
1043,2	12,952
1043,6	15,581
1044	19,124
1044,4	17,01
1044,8	20,152
1045,2	20,352
1045,6	23,067
1046,1	21,667
1046,5	21,724
1046,9	18,752
1047,3	16,552
1047,7	18,01
1048,1	14,267
1048,5	11,41
1049	10,324
1049,4	7,495
1049,8	7,438
1050,2	9,438
1050,6	6,924
1051	7,21
1051,4	7,952
1051,9	6,038
1052,3	10,838
1052,7	11,324
1053,1	12,867
1053,5	13,295
1053,9	15,095
1054,3	11,581
1054,8	12,924
1055,2	6,981
1055,6	9,638
1056	7,752
1056,4	6,438
1056,8	10,352
1057,2	14,695
1057,6	16,781
1058,1	19,695
1058,5	13,695
1058,9	15,381
1059,3	12,267
1059,7	9,724
1060,1	11,095
1060,5	5,152
1061	3,067
1061,4	9,21
1061,8	8,267
1062,2	10,524
1062,6	13,867
1063	15,267
1063,4	21,095
1063,8	24,267
1064,3	19,238
1064,7	21,895
1065,1	23,095
1065,5	19,41
1065,9	17,924
1066,3	17,41
1066,7	14,981
1067,1	16,724
1067,6	13,352
1068	15,067
1068,4	15,352
1068,8	10,924
1069,2	12,181
1069,6	14,181
1070	16,524
1070,4	19,238
1070,9	17,21
1071,3	20,867
1071,7	23,81
1072,1	18,695
1072,5	15,41
1072,9	11,467
1073,3	14,581
1073,7	14,81
1074,2	12,867
1074,6	11,61
1075	13,095
1075,4	13,781
1075,8	16,61
1076,2	16,467
1076,6	15,324
1077	11,552
1077,5	11,81
1077,9	10,981
1078,3	10,61
1078,7	8,352
1079,1	5,838
1079,5	2,438
1079,9	2,095
1080,3	0,981
1080,7	5,581
1081,2	8,124
1081,6	10,381
1082	8,895
1082,4	10,467
1082,8	10,01
1083,2	14,238
1083,6	12,438
1084	11,095
1084,5	14,41
1084,9	8,238
1085,3	11,324
1085,7	14,238
1086,1	9,924
1086,5	6,381
1086,9	5,152
1087,3	1,267
1087,7	5,267
1088,2	6,095
1088,6	4,695
1089	5,695
1089,4	7,067
1089,8	10,352
1090,2	9,581
1090,6	9,41
1091	11,61
1091,4	8,124
1091,9	10,695
1092,3	12,552
1092,7	12,495
1093,1	12,238
1093,5	15,581
1093,9	13,667
1094,3	19,61
1094,7	19,095
1095,1	17,981
1095,5	12,952
1096	14,381
1096,4	12,238
1096,8	9,381
1097,2	7,667
1097,6	9,324
1098	12,181
1098,4	16,667
1098,8	13,981
1099,2	13,095
1099,6	13,924
1100,1	14,038
1100,5	12,524
1100,9	11,352
1101,3	9,695
1101,7	12,895
1102,1	16,038
1102,5	12,495
1102,9	8,381
1103,3	6,467
1103,7	3,438
1104,2	6,21
1104,6	9,124
1105	6,981
1105,4	8,324
1105,8	10,267
1106,2	8,781
1106,6	9,467
1107	5,924
1107,4	1,333
1107,8	-0,333
1108,3	-0,133
