Data from Subt2_00035.txt Node
Date: Mon Aug 28 13:14:36 MSK 2023
User: vat
Spectrometer: MAYP114033
Trigger mode: 0
Integration Time (sec): 1,000000E0
Scans to average: 5
Electric dark correction enabled: true
Nonlinearity correction enabled: false
Boxcar width: 3
XAxis mode: Wavelengths
Number of Pixels in Spectrum: 2068
>>>>>Begin Spectral Data<<<<<
199,4	-0,7
199,9	2,06
200,4	0,4
200,8	4,729
201,3	4,414
201,8	7,729
202,2	6,643
202,7	8,929
203,2	10,529
203,6	13,843
204,1	16,043
204,6	18,3
205	19,843
205,5	24,1
206	22,357
206,4	23,071
206,9	21,414
207,4	18,986
207,8	18,614
208,3	16,871
208,8	17,614
209,2	22,471
209,7	19,129
210,2	16,9
210,6	18,129
211,1	18,329
211,5	22,243
212	21,786
212,5	19,929
212,9	22,214
213,4	25,614
213,9	22,7
214,3	23,757
214,8	19,414
215,3	18,757
215,7	17,643
216,2	19,414
216,7	20,5
217,1	25,929
217,6	22,957
218,1	18,214
218,5	15,214
219	16,157
219,5	13,643
219,9	11,071
220,4	8,443
220,9	12,157
221,3	17,386
221,8	18,814
222,3	22,957
222,7	23,157
223,2	25,386
223,6	19,729
224,1	18,814
224,6	17,129
225	20,614
225,5	17,729
226	18,986
226,4	19,414
226,9	23,5
227,4	26,414
227,8	30,786
228,3	28,386
228,8	28,1
229,2	29,557
229,7	26,471
230,2	23,7
230,6	17,814
231,1	14,9
231,5	16,843
232	18,643
232,5	15,843
232,9	17,386
233,4	22,5
233,9	25,329
234,3	24,986
234,8	25,529
235,3	16,843
235,7	15,557
236,2	10,671
236,7	6,1
237,1	10,271
237,6	8,357
238,1	7,186
238,5	13,014
239	15,1
239,4	19,757
239,9	19,786
240,4	14,757
240,8	17,757
241,3	21,386
241,8	21,1
242,2	22,014
242,7	25,557
243,2	26,271
243,6	32,414
244,1	31,5
244,6	29,929
245	30,414
245,5	33,671
245,9	30,043
246,4	33,329
246,9	28,5
247,3	28,329
247,8	23,043
248,3	26,357
248,7	23,786
249,2	22,186
249,7	17,329
250,1	15,614
250,6	15,643
251	18,471
251,5	19,643
252	14,1
252,4	18,729
252,9	18,7
253,4	25,1
253,8	25,5
254,3	23,243
254,8	18,9
255,2	20,129
255,7	19,271
256,1	24,157
256,6	19,586
257,1	21,271
257,5	20,843
258	19,871
258,5	20,671
258,9	18,986
259,4	19,3
259,9	18,271
260,3	19,986
260,8	22,157
261,2	25,043
261,7	28,643
262,2	32,014
262,6	26,586
263,1	29,786
263,6	25,071
264	25,1
264,5	23,329
264,9	21,471
265,4	17,043
265,9	18,1
266,3	16,471
266,8	18,929
267,3	19,043
267,7	17,1
268,2	18,157
268,7	20,614
269,1	24,186
269,6	27,186
270	30,129
270,5	32,043
271	35,414
271,4	35,986
271,9	35,214
272,4	37,129
272,8	35,243
273,3	33,443
273,7	26,443
274,2	27,386
274,7	23,186
275,1	24,929
275,6	21,357
276,1	16,557
276,5	17,214
277	27,3
277,4	23,214
277,9	23,671
278,4	19,757
278,8	20,214
279,3	21,043
279,8	16,557
280,2	11,586
280,7	10,929
281,1	11,786
281,6	15,014
282,1	12,1
282,5	12,929
283	10,871
283,4	10,814
283,9	12,643
284,4	12,1
284,8	10,843
285,3	14,3
285,8	17,271
286,2	18,471
286,7	18,814
287,1	22,186
287,6	27,357
288,1	31,5
288,5	30,414
289	28,157
289,5	33,5
289,9	35,443
290,4	33,871
290,8	31,043
291,3	31,129
291,8	36,643
292,2	38,786
292,7	35,186
293,1	31,014
293,6	25,843
294,1	27,271
294,5	24,243
295	20,529
295,5	16,471
295,9	17,929
296,4	19,643
296,8	21,9
297,3	17,471
297,8	12,271
298,2	10,357
298,7	10,443
299,1	12,271
299,6	11,786
300,1	14,529
300,5	14,871
301	21,757
301,5	21,014
301,9	20,614
302,4	16,329
302,8	14,414
303,3	12,929
303,8	14,557
304,2	10,214
304,7	10,529
305,1	13,843
305,6	16,729
306,1	17,271
306,5	17,214
307	16,243
307,4	20,071
307,9	19,871
308,4	17,271
308,8	20,786
309,3	27,386
309,8	27,957
310,2	27,157
310,7	28,3
311,1	28,014
311,6	30,271
312,1	24,471
312,5	16,043
313	15,643
313,4	20,471
313,9	15,357
314,4	18,814
314,8	18,986
315,3	23,214
315,7	26,5
316,2	28,614
316,7	21,7
317,1	24,357
317,6	19,5
318	21,214
318,5	20,3
319	23,7
319,4	21,014
319,9	23,471
320,3	22,271
320,8	28,043
321,3	27,214
321,7	22,414
322,2	21,329
322,6	20,9
323,1	20,843
323,6	22,614
324	23,243
324,5	21,871
324,9	25,843
325,4	25,043
325,9	28,043
326,3	25,157
326,8	24,671
327,2	23,557
327,7	22,3
328,2	23,043
328,6	19,3
329,1	16,386
329,5	21,1
330	23,357
330,5	17,129
330,9	20,329
331,4	21,7
331,8	29,071
332,3	29,843
332,8	31,186
333,2	29,929
333,7	30,614
334,1	32,129
334,6	28,414
335,1	25,957
335,5	24,729
336	23,129
336,4	23,443
336,9	23,643
337,4	22,729
337,8	21,643
338,3	19,729
338,7	21,957
339,2	23,014
339,7	19,386
340,1	18,843
340,6	12,929
341	14,357
341,5	20,157
342	21,071
342,4	23,386
342,9	28,671
343,3	30,471
343,8	32,814
344,2	34,786
344,7	33,157
345,2	33,271
345,6	31,3
346,1	25,1
346,5	26,843
347	28,7
347,5	24,3
347,9	19,957
348,4	16,871
348,8	14,557
349,3	25,471
349,8	25,357
350,2	25,529
350,7	29,957
351,1	32,271
351,6	39,443
352	47,557
352,5	49,871
353	55,814
353,4	64,814
353,9	72,729
354,3	81,157
354,8	90,357
355,3	101,329
355,7	107,957
356,2	125,5
356,6	146,157
357,1	170,643
357,5	197,671
358	226,614
358,5	260,557
358,9	305,414
359,4	351,271
359,8	398,5
360,3	454,843
360,8	520,357
361,2	593,529
361,7	668,157
362,1	749,043
362,6	836,5
363	936,786
363,5	1041,071
364	1154,786
364,4	1268,814
364,9	1384,957
365,3	1501,043
365,8	1613,071
366,3	1714,5
366,7	1806,043
367,2	1878,7
367,6	1940,5
368,1	1990,757
368,5	2024,471
369	2038,329
369,5	2039,586
369,9	2021,557
370,4	1993,529
370,8	1948,3
371,3	1888,757
371,7	1821,814
372,2	1752,186
372,7	1671,014
373,1	1587,814
373,6	1495,671
374	1400,5
374,5	1307,843
374,9	1217,443
375,4	1124,186
375,9	1036,614
376,3	953,871
376,8	880,186
377,2	810,3
377,7	748,614
378,2	688,9
378,6	634,9
379,1	584,529
379,5	536,386
380	491,357
380,4	457,529
380,9	420,986
381,4	386,071
381,8	357,3
382,3	330,557
382,7	311,5
383,2	290,014
383,6	273,729
384,1	255,529
384,6	245,357
385	232,529
385,5	216,357
385,9	199,386
386,4	188,814
386,8	173,214
387,3	167,157
387,7	152,557
388,2	140,329
388,7	130,3
389,1	120,386
389,6	116,443
390	109,129
390,5	99,471
390,9	93,243
391,4	83,871
391,9	84,414
392,3	84,271
392,8	78,7
393,2	78,214
393,7	73,329
394,1	73,871
394,6	74,9
395,1	72,243
395,5	66,871
396	62,214
396,4	60,129
396,9	61,271
397,3	59,814
397,8	56,357
398,2	55,7
398,7	60,014
399,2	61,557
399,6	61,843
400,1	59,043
400,5	57,214
401	65,729
401,4	67,9
401,9	66,129
402,4	68,271
402,8	63,757
403,3	66,243
403,7	63,957
404,2	64,986
404,6	61,671
405,1	64,757
405,5	60,729
406	63,871
406,5	66,814
406,9	71,214
407,4	71,729
407,8	83,071
408,3	86,643
408,7	91,929
409,2	99,243
409,6	106,671
410,1	112,871
410,6	120,729
411	119,757
411,5	128,986
411,9	143,5
412,4	154,443
412,8	160,471
413,3	170,243
413,7	179,643
414,2	191,243
414,7	202,186
415,1	213,7
415,6	221,214
416	234,786
416,5	253,243
416,9	268,529
417,4	286,586
417,8	298,071
418,3	310,329
418,8	333,157
419,2	354,186
419,7	368,671
420,1	388,729
420,6	405,986
421	433,671
421,5	461,214
421,9	483,214
422,4	509,957
422,8	538,386
423,3	567,1
423,8	595,671
424,2	623,871
424,7	651,3
425,1	681,214
425,6	712,529
426	744,957
426,5	778,871
426,9	825,529
427,4	866,386
427,9	915,043
428,3	966,414
428,8	1017,671
429,2	1072,3
429,7	1130,186
430,1	1185,271
430,6	1246,929
431	1309,557
431,5	1370,986
431,9	1439,443
432,4	1514,786
432,8	1588,871
433,3	1674,357
433,8	1769,557
434,2	1854,671
434,7	1955,443
435,1	2055,529
435,6	2157,271
436	2267,9
436,5	2372,386
436,9	2480,786
437,4	2605,9
437,8	2728,214
438,3	2854,1
438,8	2992,129
439,2	3136,843
439,7	3287,3
440,1	3438,014
440,6	3588,043
441	3748,871
441,5	3919,014
441,9	4089,129
442,4	4261,3
442,8	4453,871
443,3	4643,3
443,7	4842,214
444,2	5047,443
444,7	5264,786
445,1	5483,043
445,6	5707,243
446	5926,757
446,5	6162,671
446,9	6400,5
447,4	6651,814
447,8	6896,843
448,3	7150,614
448,7	7409,643
449,2	7675,443
449,6	7947,814
450,1	8238,986
450,6	8515,357
451	8804,871
451,5	9107,129
451,9	9421,757
452,4	9737,471
452,8	10052,157
453,3	10360,929
453,7	10681,957
454,2	11009,843
454,6	11336,643
455,1	11664,643
455,5	12000,757
456	12341,986
456,4	12687,671
456,9	13044,471
457,3	13405,357
457,8	13774,757
458,3	14134,214
458,7	14505,586
459,2	14887,186
459,6	15266,871
460,1	15653,071
460,5	16026,214
461	16397,643
461,4	16783,529
461,9	17155,9
462,3	17527,557
462,8	17914,357
463,2	18295,329
463,7	18680,129
464,1	19063,1
464,6	19451,271
465	19832,529
465,5	20214,843
466	20588,614
466,4	20951,329
466,9	21315,757
467,3	21683,1
467,8	22043,986
468,2	22413,814
468,7	22784,757
469,1	23145,986
469,6	23518,043
470	23882,271
470,5	24230,443
470,9	24571,186
471,4	24907,757
471,8	25230,129
472,3	25553,786
472,7	25854,386
473,2	26181,014
473,6	26489,7
474,1	26786,386
474,5	27081,329
475	27390,357
475,4	27698,186
475,9	27985,986
476,4	28241,043
476,8	28506,986
477,3	28772,7
477,7	29031,329
478,2	29252,957
478,6	29467,243
479,1	29684,157
479,5	29904,357
480	30117,186
480,4	30325,786
480,9	30496,271
481,3	30679,957
481,8	30847,986
482,2	31016,557
482,7	31167,443
483,1	31306,757
483,6	31433,786
484	31562,414
484,5	31669,357
484,9	31763,557
485,4	31864,614
485,8	31947,386
486,3	32010,329
486,7	32066,7
487,2	32135,129
487,6	32179,586
488,1	32224,443
488,5	32241,329
489	32251,271
489,4	32281,129
489,9	32269,9
490,4	32243,157
490,8	32223,471
491,3	32195,443
491,7	32163,729
492,2	32118,271
492,6	32050,214
493,1	31999,3
493,5	31915,757
494	31844,043
494,4	31751,7
494,9	31656,329
495,3	31550,071
495,8	31461,729
496,2	31349,471
496,7	31256,129
497,1	31137,3
497,6	31029,214
498	30901,671
498,5	30781,014
498,9	30635,671
499,4	30493,957
499,8	30348,643
500,3	30217,071
500,7	30061,586
501,2	29910,1
501,6	29750,3
502,1	29586,471
502,5	29443,243
503	29280,871
503,4	29101,414
503,9	28926,7
504,3	28744,529
504,8	28555,357
505,2	28370,843
505,7	28168,1
506,1	27966,957
506,6	27760,243
507	27560,014
507,5	27353,729
507,9	27155,643
508,4	26946,529
508,8	26737,871
509,3	26528,814
509,7	26305,986
510,2	26080,271
510,6	25867,729
511,1	25653,1
511,5	25422,1
512	25194,986
512,4	24962,843
512,9	24741,386
513,3	24514,1
513,8	24276,071
514,2	24050,329
514,7	23831,157
515,1	23594,443
515,6	23388,3
516	23159,729
516,5	22926,3
516,9	22700,414
517,4	22465,3
517,8	22231,614
518,3	22009,1
518,7	21763,671
519,2	21536,386
519,6	21318,843
520,1	21092,871
520,5	20859,157
521	20629,557
521,4	20398,7
521,9	20176,386
522,3	19956,9
522,8	19739,243
523,2	19522,7
523,7	19317,129
524,1	19096,3
524,6	18882,014
525	18678,586
525,5	18483,014
525,9	18270,443
526,4	18064,414
526,8	17850,643
527,3	17663,557
527,7	17465,929
528,2	17258,386
528,6	17051,843
529,1	16859,1
529,5	16661,729
530	16470,129
530,4	16269,586
530,9	16081,471
531,3	15904,557
531,8	15718,043
532,2	15534,186
532,6	15353,071
533,1	15179,1
533,5	15008,271
534	14846,014
534,4	14668,243
534,9	14501,757
535,3	14338,814
535,8	14189,757
536,2	14031,729
536,7	13881,214
537,1	13710,3
537,6	13555,929
538	13405,757
538,5	13254,729
538,9	13092,614
539,4	12941,786
539,8	12796,957
540,3	12658,129
540,7	12513,586
541,2	12368,329
541,6	12229,7
542,1	12096,729
542,5	11966,329
543	11830,443
543,4	11696,586
543,9	11564,871
544,3	11437,471
544,8	11299,186
545,2	11168,471
545,7	11046,243
546,1	10919,214
546,5	10803,786
547	10690,1
547,4	10566,786
547,9	10463,5
548,3	10347,414
548,8	10224,671
549,2	10110,1
549,7	10001,7
550,1	9887,786
550,6	9792,9
551	9689,957
551,5	9593,014
551,9	9502,814
552,4	9404,1
552,8	9301,157
553,3	9201,443
553,7	9098,671
554,2	9003,9
554,6	8908,071
555,1	8802,271
555,5	8716,871
555,9	8632,671
556,4	8550,529
556,8	8463,614
557,3	8371,271
557,7	8290,671
558,2	8224,9
558,6	8142,186
559,1	8060,186
559,5	7983,586
560	7902,757
560,4	7818,529
560,9	7750,814
561,3	7673,129
561,8	7598,7
562,2	7528,129
562,7	7451,186
563,1	7383,786
563,6	7322,357
564	7248,243
564,4	7178,9
564,9	7105,186
565,3	7030,557
565,8	6967,871
566,2	6897,071
566,7	6836,357
567,1	6774,643
567,6	6705,757
568	6650,357
568,5	6594,729
568,9	6538,471
569,4	6478,614
569,8	6410,729
570,3	6343,071
570,7	6292,157
571,1	6229,157
571,6	6166,243
572	6109,5
572,5	6055,5
572,9	6003,814
573,4	5957,957
573,8	5905,729
574,3	5850,557
574,7	5808,643
575,2	5755,9
575,6	5707,671
576,1	5662,643
576,5	5615,329
576,9	5560,357
577,4	5516,814
577,8	5457,786
578,3	5407,329
578,7	5360,843
579,2	5313,871
579,6	5258,043
580,1	5217,471
580,5	5179,814
581	5143,929
581,4	5102,3
581,9	5060,186
582,3	5008,957
582,7	4970,843
583,2	4919,843
583,6	4871,614
584,1	4825,043
584,5	4780,729
585	4734,014
585,4	4698,871
585,9	4660,071
586,3	4628,386
586,8	4589,243
587,2	4550,214
587,6	4508,671
588,1	4473,214
588,5	4430,071
589	4386,386
589,4	4343,986
589,9	4308,243
590,3	4279,557
590,8	4251,014
591,2	4214,243
591,7	4190,7
592,1	4166,557
592,5	4137,586
593	4110,157
593,4	4076,386
593,9	4052,386
594,3	4029,614
594,8	3999,586
595,2	3970,043
595,7	3939,986
596,1	3910,5
596,6	3882,871
597	3853,329
597,4	3824,357
597,9	3794,357
598,3	3766,643
598,8	3742,586
599,2	3711,843
599,7	3692,957
600,1	3661,557
600,6	3633,271
601	3614,7
601,4	3591,957
601,9	3570,186
602,3	3551,814
602,8	3521,814
603,2	3497,043
603,7	3480,157
604,1	3448,729
604,6	3425,157
605	3401,814
605,4	3370,929
605,9	3347,071
606,3	3324,814
606,8	3297,814
607,2	3277,3
607,7	3256,557
608,1	3226,157
608,6	3206,843
609	3184,1
609,4	3159,557
609,9	3138,186
610,3	3114,443
610,8	3087,614
611,2	3069,186
611,7	3048,586
612,1	3024,214
612,6	3000,586
613	2971,7
613,4	2948,414
613,9	2927,471
614,3	2908,529
614,8	2883,043
615,2	2863,871
615,7	2842,414
616,1	2828,157
616,6	2815,386
617	2796,9
617,4	2774,986
617,9	2754,443
618,3	2735,9
618,8	2718,443
619,2	2695,643
619,7	2670,986
620,1	2649,1
620,5	2627,386
621	2611,871
621,4	2594,529
621,9	2576,329
622,3	2564,757
622,8	2552,471
623,2	2533,729
623,6	2517,386
624,1	2500,986
624,5	2478,3
625	2461,329
625,4	2440,014
625,9	2417,814
626,3	2405,471
626,8	2393,586
627,2	2374,986
627,6	2360,957
628,1	2348,357
628,5	2331,3
629	2314,929
629,4	2290,071
629,9	2267,414
630,3	2247,271
630,7	2235,757
631,2	2214,443
631,6	2196,414
632,1	2174,471
632,5	2164,814
633	2152,414
633,4	2140,529
633,8	2120,443
634,3	2108,157
634,7	2093,1
635,2	2087,386
635,6	2067,5
636,1	2045,929
636,5	2032,757
636,9	2014,957
637,4	1999,671
637,8	1984,757
638,3	1966,814
638,7	1954,129
639,2	1945,157
639,6	1928,157
640	1918,671
640,5	1901,014
640,9	1889,3
641,4	1878,386
641,8	1868,7
642,2	1856,471
642,7	1844,243
643,1	1830,7
643,6	1826,671
644	1815,786
644,5	1803,357
644,9	1788,186
645,3	1779,5
645,8	1765,671
646,2	1749,5
646,7	1727,757
647,1	1713,729
647,6	1695,5
648	1687,243
648,4	1671,557
648,9	1657,7
649,3	1649,386
649,8	1645,586
650,2	1635,643
650,6	1630,386
651,1	1612,586
651,5	1602,9
652	1600,614
652,4	1589,3
652,9	1579,357
653,3	1566,986
653,7	1556,043
654,2	1549,871
654,6	1537,357
655,1	1523,386
655,5	1513,557
655,9	1499,1
656,4	1488,557
656,8	1477,671
657,3	1470,5
657,7	1461,586
658,2	1453,3
658,6	1445,986
659	1441,814
659,5	1436,814
659,9	1425,929
660,4	1417,614
660,8	1406,157
661,2	1393,443
661,7	1379,871
662,1	1365,786
662,6	1356,9
663	1346,386
663,4	1333,843
663,9	1327,471
664,3	1312,786
664,8	1303,814
665,2	1296,757
665,6	1278,157
666,1	1269,929
666,5	1260,671
667	1250,329
667,4	1250,271
667,9	1240,414
668,3	1232,414
668,7	1226,9
669,2	1212,729
669,6	1202,986
670,1	1193,643
670,5	1186,157
670,9	1180,871
671,4	1165,071
671,8	1158,071
672,3	1154,414
672,7	1144,271
673,1	1138,671
673,6	1131,614
674	1124,186
674,5	1122,129
674,9	1112,129
675,3	1107,1
675,8	1101,043
676,2	1084,843
676,7	1077,329
677,1	1071,614
677,5	1061,843
678	1059,186
678,4	1048,786
678,9	1040,729
679,3	1037,757
679,7	1023,3
680,2	1016,443
680,6	1009,014
681,1	1001,729
681,5	994,871
681,9	988,614
682,4	984,814
682,8	978,3
683,3	968,7
683,7	963,129
684,1	951,129
684,6	944,929
685	934,071
685,5	916,929
685,9	910,414
686,3	901,557
686,8	894,5
687,2	893,586
687,7	886,729
688,1	885,814
688,5	887,986
689	888,214
689,4	880,386
689,9	873,643
690,3	864,557
690,7	860,129
691,2	853,243
691,6	844,014
692	833,357
692,5	828,357
692,9	824,843
693,4	817,129
693,8	807,729
694,2	797,7
694,7	793,471
695,1	788,386
695,6	790,5
696	783,871
696,4	781,386
696,9	771,757
697,3	770,586
697,8	768,814
698,2	764,814
698,6	751,843
699,1	746,129
699,5	741,043
699,9	739,3
700,4	735,643
700,8	730,614
701,3	723,757
701,7	717,614
702,1	712,929
702,6	705,214
703	703,643
703,5	696,357
703,9	691,129
704,3	682,157
704,8	683,043
705,2	678,329
705,6	676,586
706,1	669,643
706,5	667,386
707	663,414
707,4	663,9
707,8	658,3
708,3	656,843
708,7	649,843
709,2	649,014
709,6	642,329
710	635,557
710,5	632,443
710,9	627,3
711,3	618,671
711,8	612,014
712,2	599,443
712,7	592,043
713,1	583,357
713,5	583,843
714	576,7
714,4	568,5
714,8	569,529
715,3	573,586
715,7	572,957
716,2	576,414
716,6	564,986
717	564,957
717,5	565,471
717,9	560,271
718,3	554,9
718,8	552,271
719,2	547,186
719,7	543,7
720,1	532,871
720,5	531,129
721	526,614
721,4	519,729
721,8	517,757
722,3	515,671
722,7	511,043
723,2	510,757
723,6	505,643
724	502,5
724,5	501,329
724,9	491,414
725,3	482,529
725,8	482,1
726,2	479,014
726,7	471,614
727,1	465,986
727,5	461,014
728	456,1
728,4	456,471
728,8	451,471
729,3	447,157
729,7	446,9
730,1	445,757
730,6	445,643
731	444,243
731,5	439,186
731,9	438,329
732,3	437,443
732,8	433,843
733,2	437,271
733,6	433,471
734,1	430,414
734,5	429,529
734,9	423,414
735,4	420,3
735,8	413,614
736,3	398,157
736,7	395,729
737,1	393,929
737,6	388,529
738	391,786
738,4	388,871
738,9	389,643
739,3	396,614
739,7	395,129
740,2	394,529
740,6	396,3
741,1	386,757
741,5	385,414
741,9	384,586
742,4	382,014
742,8	377,757
743,2	373,1
743,7	368,214
744,1	371,214
744,5	369,929
745	367,957
745,4	364,129
745,8	362,186
746,3	365,329
746,7	360,557
747,2	353,757
747,6	346,614
748	347,157
748,5	343,614
748,9	342,129
749,3	342,614
749,8	343,529
750,2	341,214
750,6	344,9
751,1	341,186
751,5	340,271
751,9	335,586
752,4	333,071
752,8	333,157
753,3	331,757
753,7	328,9
754,1	327,243
754,6	324,271
755	326,071
755,4	324,643
755,9	321,643
756,3	322,043
756,7	320,043
757,2	316,843
757,6	314,271
758	308,186
758,5	298,843
758,9	296,586
759,3	293,614
759,8	288,9
760,2	288,043
760,6	292,9
761,1	293,471
761,5	293,671
761,9	287,586
762,4	289,214
762,8	289,014
763,3	287,986
763,7	283,414
764,1	279,614
764,6	272,186
765	273,757
765,4	268,786
765,9	267,643
766,3	264,186
766,7	258,9
767,2	259,843
767,6	267,729
768	261,9
768,5	260,614
768,9	255,786
769,3	254,443
769,8	250,529
770,2	247,729
770,6	243,871
771,1	244,814
771,5	246,1
771,9	247,7
772,4	245,586
772,8	245,443
773,2	249,443
773,7	244,186
774,1	246,786
774,5	245,414
775	242,386
775,4	241,586
775,8	242,1
776,3	238,414
776,7	238,557
777,1	233,471
777,6	228,529
778	226,557
778,4	222,3
778,9	221,843
779,3	219,443
779,7	217,786
780,2	220,557
780,6	223,329
781	224,786
781,5	224,957
781,9	222,329
782,3	221,243
782,8	228,1
783,2	224,157
783,6	218,414
784,1	214,929
784,5	214,357
784,9	211,186
785,4	208,786
785,8	202,271
786,2	200,786
786,7	204,129
787,1	208,871
787,5	207,443
788	204,957
788,4	202,614
788,8	196,1
789,3	193,614
789,7	186,329
790,1	183,671
790,6	182,986
791	183,471
791,4	184,614
791,9	186,386
792,3	188,871
792,7	193,843
793,2	189,871
793,6	190,671
794	195,1
794,5	192,214
794,9	191,557
795,3	187,643
795,8	188,471
796,2	185,157
796,6	182,014
797,1	180,614
797,5	178,729
797,9	177,129
798,4	176,843
798,8	172,671
799,2	174,071
799,7	172,643
800,1	170,214
800,5	169,357
801	169,643
801,4	167,071
801,8	165,357
802,2	161,329
802,7	158,614
803,1	158,043
803,5	158,357
804	155,614
804,4	157,843
804,8	155,643
805,3	157,3
805,7	159,986
806,1	155,814
806,6	158,957
807	160,157
807,4	158,871
807,9	158,243
808,3	157,471
808,7	155,357
809,2	154,5
809,6	151,586
810	150,729
810,4	148,643
810,9	150,129
811,3	151,1
811,7	144,843
812,2	143,014
812,6	140,757
813	141,443
813,5	142,643
813,9	141,186
814,3	137,586
814,8	142,214
815,2	141,871
815,6	140,757
816,1	139,043
816,5	139,129
816,9	138,843
817,3	139,243
817,8	137,786
818,2	138,786
818,6	139,071
819,1	137,929
819,5	128,814
819,9	124,786
820,4	129,614
820,8	127,443
821,2	126,243
821,7	119,757
822,1	116,729
822,5	126,3
822,9	123,414
823,4	114,871
823,8	117,071
824,2	118,329
824,7	118,9
825,1	117,386
825,5	110,957
826	109,157
826,4	110,1
826,8	106,843
827,3	101,786
827,7	106,186
828,1	107,586
828,5	110,557
829	113,671
829,4	108,757
829,8	108,986
830,3	110,329
830,7	105,957
831,1	103,9
831,6	98,243
832	96,043
832,4	98,043
832,8	94,043
833,3	91,414
833,7	87,757
834,1	87,1
834,6	90,671
835	93,871
835,4	90,7
835,8	95,7
836,3	96,757
836,7	100,214
837,1	100,586
837,6	96,043
838	91,3
838,4	93,757
838,9	91,957
839,3	91,357
839,7	89,671
840,1	95,129
840,6	96,986
841	95,871
841,4	96,1
841,9	93,586
842,3	86,986
842,7	85,671
843,1	77,929
843,6	72,843
844	71,357
844,4	73,814
844,9	74,729
845,3	80,243
845,7	79,643
846,2	82,786
846,6	87,9
847	94,071
847,4	92,957
847,9	87,9
848,3	84,957
848,7	84,329
849,2	81,757
849,6	75,186
850	71,3
850,4	66,414
850,9	70,357
851,3	73,386
851,7	73,071
852,2	68,586
852,6	73,814
853	73,271
853,4	77,214
853,9	78,814
854,3	81,557
854,7	83,357
855,2	86,3
855,6	82,443
856	85,843
856,4	81,157
856,9	77,243
857,3	68,329
857,7	67,243
858,2	66,186
858,6	65,986
859	62,557
859,4	62,814
859,9	61,786
860,3	65,843
860,7	63,043
861,1	65,271
861,6	70,043
862	68,843
862,4	68,329
862,9	70,329
863,3	67,757
863,7	72,843
864,1	69,671
864,6	65,471
865	65,414
865,4	66,3
865,9	65,729
866,3	68,129
866,7	63,614
867,1	64,214
867,6	63,129
868	57,871
868,4	56,357
868,8	52,214
869,3	55,071
869,7	59,471
870,1	60,729
870,6	58,043
871	50,357
871,4	51,529
871,8	53,014
872,3	48,529
872,7	39,9
873,1	36,271
873,5	37,214
874	46,1
874,4	44,186
874,8	42,557
875,3	43,157
875,7	45,357
876,1	52,043
876,5	55,414
877	56,843
877,4	54,871
877,8	59,643
878,2	61,471
878,7	64,414
879,1	60,814
879,5	55,786
879,9	55,814
880,4	51,271
880,8	52,614
881,2	51,157
881,7	49,814
882,1	46,671
882,5	47,271
882,9	45,186
883,4	50,643
883,8	46,414
884,2	42,586
884,6	37,729
885,1	37,014
885,5	34,1
885,9	36,757
886,3	36,529
886,8	39,957
887,2	38,757
887,6	46,471
888	48,243
888,5	48,871
888,9	43,1
889,3	42,014
889,8	39,043
890,2	39,5
890,6	38,043
891	35,871
891,5	38,5
891,9	41,414
892,3	47,643
892,7	42,929
893,2	46,843
893,6	44,443
894	44,329
894,4	42,443
894,9	42,357
895,3	36,271
895,7	39,614
896,1	34,871
896,6	33,386
897	38,214
897,4	41,471
897,8	44,043
898,3	43,129
898,7	43,957
899,1	46,443
899,5	46,1
900	44,186
900,4	40,757
900,8	34,243
901,2	32,529
901,7	34,871
902,1	30,814
902,5	36,386
902,9	31,986
903,4	33,671
903,8	36,1
904,2	40,157
904,6	33,843
905,1	36,443
905,5	33,214
905,9	32,214
906,3	32,729
906,8	33,729
907,2	29,443
907,6	30,529
908	32,5
908,5	25,271
908,9	27,186
909,3	25,729
909,7	26,043
910,2	29,643
910,6	30,843
911	28,786
911,4	35,529
911,9	30,614
912,3	32,643
912,7	34,5
913,1	35,043
913,6	32,471
914	36,9
914,4	38,7
914,8	47,929
915,3	45,214
915,7	46,414
916,1	44,186
916,5	45,614
916,9	38,3
917,4	30,443
917,8	22,071
918,2	24,871
918,6	17,7
919,1	16,214
919,5	18,214
919,9	22,271
920,3	26,443
920,8	32,929
921,2	33,414
921,6	37,071
922	37,957
922,5	35,957
922,9	34,757
923,3	35,243
923,7	34,386
924,2	35,214
924,6	38,529
925	42,529
925,4	45,329
925,8	43,9
926,3	41,3
926,7	36,957
927,1	37,871
927,5	36,929
928	36,3
928,4	32,043
928,8	36,471
929,2	38,929
929,7	44,957
930,1	38,757
930,5	34,729
930,9	31,957
931,3	35,843
931,8	36,329
932,2	33,043
932,6	27,957
933	23,786
933,5	25,614
933,9	25,157
934,3	21,729
934,7	19,186
935,2	19,414
935,6	17,271
936	15,157
936,4	15,757
936,8	19,214
937,3	20,271
937,7	17,986
938,1	18,271
938,5	21,729
939	28,7
939,4	27,614
939,8	24,7
940,2	24,129
940,6	22,586
941,1	24,214
941,5	25,786
941,9	23,471
942,3	19,671
942,8	19,129
943,2	15,786
943,6	17,957
944	17,1
944,4	12,186
944,9	12,386
945,3	15,329
945,7	14,329
946,1	13,586
946,6	12,1
947	12,671
947,4	8,643
947,8	14,414
948,2	18,186
948,7	17,5
949,1	18,786
949,5	17,843
949,9	15,929
950,3	19,643
950,8	13,5
951,2	10,043
951,6	12,843
952	16,043
952,5	15,929
952,9	14,271
953,3	18,014
953,7	17,471
954,1	18,357
954,6	18,5
955	19,843
955,4	16,671
955,8	24,3
956,2	23,329
956,7	25,729
957,1	25,271
957,5	24,557
957,9	21,786
958,3	25,986
958,8	26,7
959,2	28,671
959,6	35,271
960	33,871
960,5	31,471
960,9	32,729
961,3	33,5
961,7	32,843
962,1	35,329
962,6	27,814
963	30,443
963,4	34,014
963,8	28,5
964,2	25,757
964,7	21,786
965,1	15,014
965,5	17,471
965,9	14,214
966,3	15,586
966,8	18,729
967,2	23,414
967,6	24,643
968	26,5
968,4	29,843
968,9	31,786
969,3	33,529
969,7	33,3
970,1	31,957
970,5	30,757
971	32,214
971,4	27,3
971,8	27,271
972,2	19,843
972,6	21,243
973,1	20,957
973,5	19,071
973,9	16,7
974,3	16,386
974,7	12,357
975,2	13,814
975,6	9,614
976	5,5
976,4	5,5
976,8	3,443
977,3	4,243
977,7	7,071
978,1	10,729
978,5	14,129
978,9	17,243
979,4	18,271
979,8	18,729
980,2	22,129
980,6	24,757
981	19,9
981,5	20,9
981,9	21,929
982,3	22,814
982,7	24,186
983,1	19,129
983,6	18,329
984	19,329
984,4	19,186
984,8	18,3
985,2	19,186
985,6	20,014
986,1	18,357
986,5	17,814
986,9	15,443
987,3	11,986
987,7	11,614
988,2	10,129
988,6	8,871
989	12,586
989,4	8,786
989,8	14,071
990,3	15,129
990,7	17,7
991,1	15,386
991,5	16,986
991,9	12,929
992,3	17,3
992,8	9,557
993,2	9,786
993,6	4,043
994	4,957
994,4	4,7
994,9	7,757
995,3	8,414
995,7	15,129
996,1	18,814
996,5	18,3
996,9	23,757
997,4	23,186
997,8	23,043
998,2	21,7
998,6	23,9
999	20,643
999,5	25,614
999,9	21,871
1000,3	19,871
1000,7	23,214
1001,1	21,186
1001,5	19,7
1002	23,157
1002,4	19,529
1002,8	20,071
1003,2	18,757
1003,6	14,7
1004	17,014
1004,5	15,357
1004,9	12,7
1005,3	12,186
1005,7	14,957
1006,1	13,271
1006,6	12,557
1007	8,7
1007,4	8,271
1007,8	13,614
1008,2	21,014
1008,6	17,043
1009,1	22,729
1009,5	25,786
1009,9	27,5
1010,3	32,871
1010,7	32,1
1011,1	30,757
1011,6	33,014
1012	32,157
1012,4	31,386
1012,8	25,729
1013,2	17,7
1013,6	14,9
1014,1	9,871
1014,5	10,814
1014,9	9,757
1015,3	7,529
1015,7	15,243
1016,1	17,271
1016,6	15,671
1017	15,786
1017,4	13,357
1017,8	17,986
1018,2	17,957
1018,6	14,643
1019,1	14,043
1019,5	14,071
1019,9	16,7
1020,3	19,271
1020,7	16,957
1021,1	15,357
1021,6	16,471
1022	14,643
1022,4	18,186
1022,8	16,557
1023,2	11,557
1023,6	11,329
1024,1	20,186
1024,5	22,843
1024,9	25,1
1025,3	24,1
1025,7	22,386
1026,1	20,9
1026,6	24,557
1027	19,357
1027,4	18,643
1027,8	18,786
1028,2	17,414
1028,6	21,1
1029	18,957
1029,5	13,014
1029,9	14,7
1030,3	15,386
1030,7	16,214
1031,1	18,386
1031,5	17,957
1032	22,7
1032,4	28,9
1032,8	22,9
1033,2	18,5
1033,6	20,729
1034	17,871
1034,4	17,9
1034,9	21,157
1035,3	19,014
1035,7	18,129
1036,1	27,414
1036,5	24,471
1036,9	25,557
1037,4	27,986
1037,8	24,157
1038,2	26,814
1038,6	29,529
1039	25,843
1039,4	34,3
1039,8	37,843
1040,3	37,329
1040,7	39,1
1041,1	32,986
1041,5	38,614
1041,9	40,071
1042,3	32,7
1042,7	28,957
1043,2	29,414
1043,6	31,386
1044	37,843
1044,4	34,129
1044,8	32,329
1045,2	30,329
1045,6	32,186
1046,1	30,729
1046,5	23,5
1046,9	20,757
1047,3	22,614
1047,7	19,957
1048,1	20,271
1048,5	18,014
1049	17,957
1049,4	19,643
1049,8	19,557
1050,2	17,557
1050,6	14,1
1051	18,814
1051,4	14,357
1051,9	12,071
1052,3	14,986
1052,7	17,871
1053,1	14,929
1053,5	16,986
1053,9	12,586
1054,3	11,7
1054,8	9,9
1055,2	11,471
1055,6	5,843
1056	8,557
1056,4	10,471
1056,8	12,329
1057,2	17,843
1057,6	25,157
1058,1	23,729
1058,5	23,586
1058,9	23,157
1059,3	19,729
1059,7	19,071
1060,1	18,5
1060,5	13,7
1061	9,386
1061,4	7,443
1061,8	8,043
1062,2	14,1
1062,6	12,643
1063	17,243
1063,4	17,814
1063,8	22,814
1064,3	28,9
1064,7	31,414
1065,1	30,643
1065,5	32,471
1065,9	30,929
1066,3	31,614
1066,7	33,729
1067,1	30,671
1067,6	29,843
1068	30,1
1068,4	32,643
1068,8	31,014
1069,2	32,043
1069,6	27,557
1070	29,243
1070,4	27,129
1070,9	24,643
1071,3	24,614
1071,7	24,357
1072,1	20,386
1072,5	24,271
1072,9	24,643
1073,3	21,271
1073,7	21,186
1074,2	20,071
1074,6	18,471
1075	21,214
1075,4	21,214
1075,8	12,557
1076,2	21,271
1076,6	17,9
1077	18,243
1077,5	18,386
1077,9	14,729
1078,3	11,9
1078,7	22,557
1079,1	20,157
1079,5	27,729
1079,9	30,986
1080,3	32,586
1080,7	36,929
1081,2	37,243
1081,6	32,5
1082	35,7
1082,4	33,357
1082,8	31,871
1083,2	27,071
1083,6	25,014
1084	26,529
1084,5	26,9
1084,9	16,957
1085,3	13,471
1085,7	10,043
1086,1	15,871
1086,5	14,5
1086,9	13,386
1087,3	16,614
1087,7	26,7
1088,2	28,814
1088,6	27,757
1089	26,671
1089,4	28,871
1089,8	29,243
1090,2	23,9
1090,6	17,729
1091	13,529
1091,4	13,357
1091,9	9,186
1092,3	8,7
1092,7	4,271
1093,1	8,614
1093,5	8,186
1093,9	8,843
1094,3	9,5
1094,7	9,957
1095,1	12,386
1095,5	15,214
1096	15,7
1096,4	17,814
1096,8	22,9
1097,2	20,1
1097,6	23,443
1098	19,557
1098,4	22,386
1098,8	18,586
1099,2	17,757
1099,6	21,043
1100,1	21,471
1100,5	20,786
1100,9	20,929
1101,3	18,671
1101,7	19,357
1102,1	22,786
1102,5	13,814
1102,9	11,329
1103,3	9,1
1103,7	11,271
1104,2	13,243
1104,6	15,586
1105	11,529
1105,4	15,9
1105,8	18,157
1106,2	17,557
1106,6	14,443
1107	10,3
1107,4	6,5
1107,8	4,74
1108,3	0,75
