Data from Subt2_00106.txt Node
Date: Mon Aug 28 13:39:11 MSK 2023
User: vat
Spectrometer: MAYP114033
Trigger mode: 0
Integration Time (sec): 1,000000E0
Scans to average: 5
Electric dark correction enabled: true
Nonlinearity correction enabled: false
Boxcar width: 3
XAxis mode: Wavelengths
Number of Pixels in Spectrum: 2068
>>>>>Begin Spectral Data<<<<<
199,4	-1,067
199,9	-4,607
200,4	-4,067
200,8	-2,167
201,3	-0,195
201,8	3,69
202,2	5,519
202,7	4,605
203,2	8,49
203,6	11,005
204,1	11,748
204,6	10,319
205	9,862
205,5	9,49
206	11,09
206,4	10,719
206,9	9,319
207,4	6,233
207,8	10,69
208,3	7,919
208,8	9,005
209,2	14,49
209,7	16,776
210,2	17,919
210,6	20,833
211,1	19,605
211,5	19,519
212	17,348
212,5	10,205
212,9	8,548
213,4	10,062
213,9	7,376
214,3	5,948
214,8	8,748
215,3	11,805
215,7	15,805
216,2	16,976
216,7	17,348
217,1	15,262
217,6	17,433
218,1	18,062
218,5	16,262
219	15,576
219,5	18,719
219,9	16,862
220,4	25,462
220,9	23,033
221,3	19,805
221,8	21,376
222,3	23,805
222,7	21,148
223,2	21,148
223,6	14,062
224,1	18,348
224,6	24,319
225	18,719
225,5	13,662
226	11,233
226,4	13,776
226,9	18,748
227,4	21,405
227,8	15,948
228,3	18,09
228,8	19,148
229,2	19,205
229,7	19,29
230,2	18,433
230,6	12,976
231,1	13,776
231,5	17,89
232	20,405
232,5	19,976
232,9	21,833
233,4	22,719
233,9	26,548
234,3	29,462
234,8	27,462
235,3	26,919
235,7	29,805
236,2	23,919
236,7	18,519
237,1	14,862
237,6	11,49
238,1	15,176
238,5	13,662
239	14,205
239,4	16,548
239,9	17,805
240,4	16,662
240,8	17,462
241,3	18,29
241,8	17,633
242,2	15,09
242,7	12,005
243,2	20,033
243,6	20,748
244,1	21,176
244,6	12,805
245	14,748
245,5	16,29
245,9	19,09
246,4	12,005
246,9	13,919
247,3	14,405
247,8	16,49
248,3	20,262
248,7	19,205
249,2	19,119
249,7	22,833
250,1	17,633
250,6	16,662
251	18,805
251,5	13,376
252	12,605
252,4	15,033
252,9	17,348
253,4	19,605
253,8	18,519
254,3	18,119
254,8	22,433
255,2	22,233
255,7	17,833
256,1	10,033
256,6	9,605
257,1	12,89
257,5	11,862
258	8,719
258,5	10,862
258,9	11,633
259,4	17,119
259,9	18,348
260,3	13,176
260,8	10,119
261,2	13,09
261,7	17,176
262,2	18,376
262,6	18,062
263,1	15,805
263,6	16,719
264	23,948
264,5	23,748
264,9	17,605
265,4	15,605
265,9	11,09
266,3	13,29
266,8	17,119
267,3	16,376
267,7	12,348
268,2	10,862
268,7	13,29
269,1	12,748
269,6	16,719
270	11,69
270,5	14,548
271	17,89
271,4	17,662
271,9	16,29
272,4	22,748
272,8	18,205
273,3	18,205
273,7	12,662
274,2	7,748
274,7	11,519
275,1	12,119
275,6	12,89
276,1	14,405
276,5	20,576
277	19,405
277,4	22,605
277,9	20,862
278,4	20,662
278,8	14,776
279,3	16,148
279,8	14,89
280,2	18,605
280,7	18,433
281,1	15,89
281,6	15,148
282,1	18,376
282,5	17,776
283	15,005
283,4	14,148
283,9	15,548
284,4	17,948
284,8	17,348
285,3	15,262
285,8	10,948
286,2	8,262
286,7	5,519
287,1	1,09
287,6	-1,052
288,1	1,148
288,5	1,148
289	2,976
289,5	3,805
289,9	6,89
290,4	8,662
290,8	11,348
291,3	10,005
291,8	11,976
292,2	14,948
292,7	18,948
293,1	17,005
293,6	16,119
294,1	15,69
294,5	16,633
295	14,433
295,5	10,862
295,9	7,69
296,4	9,833
296,8	11,176
297,3	15,319
297,8	16,976
298,2	20,205
298,7	20,033
299,1	20,062
299,6	20,005
300,1	22,119
300,5	17,69
301	19,462
301,5	17,719
301,9	17,348
302,4	19,548
302,8	19,519
303,3	22,833
303,8	27,29
304,2	22,89
304,7	23,033
305,1	25,405
305,6	24,348
306,1	25,348
306,5	15,548
307	11,833
307,4	10,148
307,9	8,29
308,4	4,976
308,8	6,49
309,3	6,405
309,8	7,748
310,2	8,49
310,7	10,033
311,1	10,805
311,6	10,348
312,1	7,433
312,5	1,633
313	6,519
313,4	6,405
313,9	6,633
314,4	4,29
314,8	8,376
315,3	13,519
315,7	17,948
316,2	16,09
316,7	14,919
317,1	15,862
317,6	20,662
318	17,09
318,5	15,148
319	13,376
319,4	14,119
319,9	13,176
320,3	15,348
320,8	12,919
321,3	13,262
321,7	12,462
322,2	10,605
322,6	12,548
323,1	14,462
323,6	13,805
324	12,976
324,5	16,548
324,9	22,89
325,4	27,233
325,9	24,976
326,3	23,29
326,8	20,348
327,2	23,09
327,7	20,176
328,2	16,348
328,6	19,862
329,1	17,233
329,5	15,519
330	18,976
330,5	21,376
330,9	22,69
331,4	16,89
331,8	9,319
332,3	9,519
332,8	12,462
333,2	9,776
333,7	3,776
334,1	0,462
334,6	0,748
335,1	6,49
335,5	5,976
336	9,49
336,4	11,49
336,9	15,319
337,4	19,776
337,8	22,462
338,3	19,433
338,7	18,776
339,2	14,976
339,7	13,148
340,1	8,119
340,6	7,69
341	6,348
341,5	6,919
342	9,919
342,4	7,433
342,9	11,976
343,3	17,376
343,8	18,119
344,2	19,776
344,7	16,948
345,2	17,976
345,6	21,605
346,1	15,948
346,5	13,69
347	11,233
347,5	14,319
347,9	12,205
348,4	12,262
348,8	13,119
349,3	7,09
349,8	8,776
350,2	13,319
350,7	11,862
351,1	16,405
351,6	12,948
352	14,605
352,5	27,805
353	33,005
353,4	34,605
353,9	44,662
354,3	54,433
354,8	63,548
355,3	72,862
355,7	81,605
356,2	92,69
356,6	108,462
357,1	124,633
357,5	148,462
358	181,033
358,5	209,29
358,9	244,405
359,4	285,319
359,8	328,033
360,3	374,148
360,8	423,348
361,2	479,576
361,7	546,405
362,1	616,548
362,6	692,605
363	778,805
363,5	869,376
364	961,376
364,4	1057,433
364,9	1151,119
365,3	1250,376
365,8	1344,319
366,3	1428,376
366,7	1500,405
367,2	1568,205
367,6	1627,005
368,1	1671,119
368,5	1701,005
369	1715,633
369,5	1716,033
369,9	1709,062
370,4	1686,462
370,8	1643,919
371,3	1599,29
371,7	1541,89
372,2	1480,548
372,7	1411,862
373,1	1338,662
373,6	1260,776
374	1183,176
374,5	1106,176
374,9	1030,29
375,4	956,49
375,9	892,462
376,3	822,205
376,8	757,348
377,2	706,719
377,7	652,548
378,2	601,719
378,6	553,405
379,1	502,148
379,5	463,033
380	428,233
380,4	389,348
380,9	358,919
381,4	328,748
381,8	303,348
382,3	283,948
382,7	267,148
383,2	245,948
383,6	230,862
384,1	218,176
384,6	206,519
385	193,748
385,5	183,233
385,9	171,69
386,4	169,576
386,8	162,633
387,3	146,89
387,7	137,89
388,2	128,633
388,7	116,69
389,1	109,062
389,6	100,233
390	93,405
390,5	93,405
390,9	83,005
391,4	79,29
391,9	76,376
392,3	75,748
392,8	70,433
393,2	69,805
393,7	65,776
394,1	65,633
394,6	61,776
395,1	66,348
395,5	64,29
396	62,805
396,4	53,948
396,9	50,862
397,3	54,233
397,8	49,776
398,2	44,805
398,7	36,805
399,2	36,433
399,6	40,148
400,1	36,29
400,5	34,49
401	42,748
401,4	37,976
401,9	44,605
402,4	40,433
402,8	44,09
403,3	48,319
403,7	45,776
404,2	43,948
404,6	46,519
405,1	45,862
405,5	50,348
406	48,919
406,5	45,833
406,9	51,319
407,4	49,262
407,8	52,605
408,3	49,062
408,7	48,89
409,2	46,89
409,6	54,148
410,1	53,605
410,6	52,176
411	51,233
411,5	52,376
411,9	53,719
412,4	57,69
412,8	53,805
413,3	49,976
413,7	53,09
414,2	53,719
414,7	56,148
415,1	59,976
415,6	56,119
416	63,205
416,5	76,005
416,9	81,776
417,4	88,062
417,8	94,633
418,3	93,348
418,8	99,005
419,2	96,862
419,7	91,862
420,1	91,748
420,6	92,462
421	92,262
421,5	100,748
421,9	101,548
422,4	105,519
422,8	110,948
423,3	112,862
423,8	114,348
424,2	111,919
424,7	113,548
425,1	112,605
425,6	111,719
426	108,748
426,5	109,062
426,9	106,748
427,4	113,262
427,9	113,176
428,3	114,805
428,8	117,919
429,2	120,233
429,7	122,89
430,1	125,005
430,6	120,462
431	119,033
431,5	121,49
431,9	122,919
432,4	121,805
432,8	124,748
433,3	128,205
433,8	133,319
434,2	135,376
434,7	138,005
435,1	144,148
435,6	145,519
436	148,519
436,5	153,805
436,9	160,69
437,4	165,376
437,8	172,205
438,3	176,862
438,8	189,233
439,2	196,119
439,7	208,633
440,1	216,776
440,6	226,919
441	232,033
441,5	236,319
441,9	242,948
442,4	248,69
442,8	248,548
443,3	258,348
443,7	262,005
444,2	278,662
444,7	293,805
445,1	309,833
445,6	326,719
446	340,49
446,5	350,948
446,9	372,919
447,4	386,205
447,8	404,176
448,3	416,548
448,7	428,233
449,2	444,005
449,6	463,176
450,1	480,148
450,6	499,862
451	513,519
451,5	536,662
451,9	554,205
452,4	575,233
452,8	592,719
453,3	609,548
453,7	625,262
454,2	646,89
454,6	663,49
455,1	692,719
455,5	716,89
456	742,033
456,4	762,176
456,9	792,833
457,3	821,833
457,8	845,519
458,3	865,633
458,7	894,919
459,2	923,005
459,6	953,348
460,1	979,548
460,5	1007,49
461	1039,462
461,4	1072,319
461,9	1100,433
462,3	1129,519
462,8	1161,89
463,2	1189,29
463,7	1217,976
464,1	1245,233
464,6	1273,662
465	1302,319
465,5	1333,576
466	1367,919
466,4	1406,748
466,9	1439,548
467,3	1475,433
467,8	1517,119
468,2	1555,976
468,7	1595,376
469,1	1629,233
469,6	1657,633
470	1693,519
470,5	1730,862
470,9	1762,462
471,4	1797,948
471,8	1830,748
472,3	1864,633
472,7	1900,462
473,2	1935,976
473,6	1973,519
474,1	2005,605
474,5	2038,548
475	2075,348
475,4	2117,405
475,9	2157,176
476,4	2197,29
476,8	2228,433
477,3	2267,662
477,7	2313,176
478,2	2350,405
478,6	2383,376
479,1	2421,119
479,5	2449,862
480	2487,633
480,4	2520,262
480,9	2543,69
481,3	2573,576
481,8	2604,662
482,2	2628,205
482,7	2661,176
483,1	2686,462
483,6	2716,433
484	2749,662
484,5	2779,348
484,9	2810,09
485,4	2839,662
485,8	2866,433
486,3	2892,605
486,7	2918,405
487,2	2944,919
487,6	2960,776
488,1	2978,433
488,5	3005,005
489	3029,805
489,4	3058,233
489,9	3074,633
490,4	3087,376
490,8	3108,748
491,3	3133,748
491,7	3152,805
492,2	3170,433
492,6	3182,348
493,1	3205,776
493,5	3224,719
494	3250,148
494,4	3255,433
494,9	3272,662
495,3	3285,405
495,8	3309,348
496,2	3324,176
496,7	3336,776
497,1	3347,233
497,6	3369,719
498	3382,662
498,5	3396,405
498,9	3404,29
499,4	3410,948
499,8	3424,376
500,3	3440,776
500,7	3449,805
501,2	3457,919
501,6	3466,09
502,1	3481,433
502,5	3495,605
503	3510,748
503,4	3515,69
503,9	3526,976
504,3	3536,062
504,8	3549,748
505,2	3556,862
505,7	3567,262
506,1	3570,09
506,6	3577,262
507	3588,919
507,5	3592,49
507,9	3597,776
508,4	3603,376
508,8	3613,433
509,3	3627,662
509,7	3633,319
510,2	3634,49
510,6	3641,719
511,1	3653,548
511,5	3661,462
512	3667,976
512,4	3676,148
512,9	3686,119
513,3	3695,519
513,8	3705,605
514,2	3712,605
514,7	3711,576
515,1	3711,89
515,6	3711,805
516	3715,148
516,5	3722,29
516,9	3731,119
517,4	3730,119
517,8	3738,576
518,3	3747,376
518,7	3754,09
519,2	3765,805
519,6	3770,062
520,1	3779,805
520,5	3784,605
521	3784,919
521,4	3786,948
521,9	3793,948
522,3	3796,376
522,8	3798,119
523,2	3799,662
523,7	3810,805
524,1	3821,062
524,6	3832,976
525	3841,833
525,5	3846,605
525,9	3859,69
526,4	3859,69
526,8	3867,405
527,3	3880,89
527,7	3891,005
528,2	3899,262
528,6	3910,005
529,1	3917,119
529,5	3931,519
530	3938,862
530,4	3942,033
530,9	3947,919
531,3	3955,719
531,8	3964,005
532,2	3977,262
532,6	3988,805
533,1	3985,862
533,5	3998,433
534	4000,348
534,4	4004,633
534,9	4014,233
535,3	4024,148
535,8	4032,262
536,2	4057,005
536,7	4064,719
537,1	4082,033
537,6	4089,233
538	4100,49
538,5	4107,548
538,9	4116,776
539,4	4124,662
539,8	4128,833
540,3	4138,29
540,7	4143,405
541,2	4149,462
541,6	4152,033
542,1	4159,805
542,5	4170,576
543	4182,348
543,4	4183,948
543,9	4199,005
544,3	4212,833
544,8	4224,748
545,2	4226,09
545,7	4227,976
546,1	4240,433
546,5	4255,233
547	4259,748
547,4	4264,148
547,9	4269,548
548,3	4283,462
548,8	4287,833
549,2	4295,862
549,7	4300,005
550,1	4311,262
550,6	4319,69
551	4333,405
551,5	4337,462
551,9	4347,862
552,4	4348,605
552,8	4361,005
553,3	4365,376
553,7	4372,605
554,2	4372,89
554,6	4389,833
555,1	4402,033
555,5	4415,519
555,9	4420,262
556,4	4437,49
556,8	4448,433
557,3	4457,119
557,7	4458,405
558,2	4463,062
558,6	4467,719
559,1	4473,576
559,5	4474,833
560	4477,205
560,4	4488,519
560,9	4496,49
561,3	4502,719
561,8	4514,748
562,2	4523,605
562,7	4529,405
563,1	4531,348
563,6	4531,719
564	4540,319
564,4	4551,976
564,9	4556,319
565,3	4553,205
565,8	4559,519
566,2	4565,49
566,7	4576,948
567,1	4573,29
567,6	4573,605
568	4573,376
568,5	4580,548
568,9	4582,29
569,4	4584,233
569,8	4581,548
570,3	4586,576
570,7	4589,233
571,1	4587,748
571,6	4589,862
572	4585,262
572,5	4586,805
572,9	4580,833
573,4	4580,748
573,8	4583,862
574,3	4583,405
574,7	4587,462
575,2	4589,09
575,6	4594,862
576,1	4598,005
576,5	4598,748
576,9	4592,89
577,4	4596,09
577,8	4590,376
578,3	4593,548
578,7	4581,919
579,2	4573,09
579,6	4572,948
580,1	4567,605
580,5	4559,548
581	4554,433
581,4	4551,805
581,9	4550,005
582,3	4553,033
582,7	4536,462
583,2	4529,976
583,6	4528,662
584,1	4518,49
584,5	4505,29
585	4490,319
585,4	4477,033
585,9	4474,376
586,3	4462,205
586,8	4450,119
587,2	4441,919
587,6	4437,348
588,1	4437,062
588,5	4440,976
589	4430,89
589,4	4428,033
589,9	4425,176
590,3	4418,062
590,8	4409,433
591,2	4399,348
591,7	4383,205
592,1	4385,09
592,5	4373,662
593	4366,576
593,4	4364,49
593,9	4360,376
594,3	4364,605
594,8	4357,519
595,2	4345,148
595,7	4339,519
596,1	4331,205
596,6	4319,033
597	4311,033
597,4	4296,748
597,9	4295,376
598,3	4283,919
598,8	4273,719
599,2	4268,319
599,7	4266,433
600,1	4257,033
600,6	4247,09
601	4238,662
601,4	4234,605
601,9	4229,633
602,3	4212,89
602,8	4199,719
603,2	4188,748
603,7	4176,519
604,1	4163,262
604,6	4145,519
605	4141,49
605,4	4132,519
605,9	4124,062
606,3	4110,862
606,8	4100,833
607,2	4091,376
607,7	4080,405
608,1	4062,519
608,6	4048,233
609	4034,205
609,4	4018,948
609,9	4006,176
610,3	3986,348
610,8	3978,033
611,2	3958,662
611,7	3947,776
612,1	3928,462
612,6	3916,49
613	3898,262
613,4	3883,805
613,9	3874,348
614,3	3867,119
614,8	3852,262
615,2	3837,033
615,7	3822,29
616,1	3814,805
616,6	3809,748
617	3784,976
617,4	3760,976
617,9	3750,233
618,3	3741,29
618,8	3728,576
619,2	3713,776
619,7	3694,519
620,1	3681,862
620,5	3668,205
621	3649,405
621,4	3637,919
621,9	3620,633
622,3	3599,205
622,8	3581,433
623,2	3569,462
623,6	3552,548
624,1	3537,319
624,5	3516,548
625	3499,89
625,4	3481,805
625,9	3465,205
626,3	3453,748
626,8	3442,176
627,2	3421,119
627,6	3405,433
628,1	3388,833
628,5	3377,89
629	3359,205
629,4	3330,605
629,9	3316,89
630,3	3303,348
630,7	3282,833
631,2	3266,033
631,6	3249,29
632,1	3236,633
632,5	3220,805
633	3201,919
633,4	3177,862
633,8	3159,633
634,3	3146,976
634,7	3134,462
635,2	3119,776
635,6	3109,376
636,1	3093,205
636,5	3082,862
636,9	3071,976
637,4	3056,89
637,8	3031,89
638,3	3007,776
638,7	2989,176
639,2	2971,319
639,6	2955,862
640	2936,948
640,5	2916,433
640,9	2902,948
641,4	2888,405
641,8	2874,662
642,2	2860,976
642,7	2846,205
643,1	2836,919
643,6	2823,233
644	2809,376
644,5	2798,833
644,9	2785,29
645,3	2775,09
645,8	2763,862
646,2	2743,976
646,7	2726,576
647,1	2712,89
647,6	2694,319
648	2678,748
648,4	2658,605
648,9	2641,919
649,3	2627,29
649,8	2619,719
650,2	2606,205
650,6	2597,948
651,1	2584,89
651,5	2572,548
652	2556,862
652,4	2542,176
652,9	2525,148
653,3	2515,519
653,7	2505,348
654,2	2488,548
654,6	2475,548
655,1	2459,548
655,5	2446,176
655,9	2437,376
656,4	2422,119
656,8	2398,319
657,3	2380,348
657,7	2365,833
658,2	2359,176
658,6	2349,719
659	2330,319
659,5	2313,69
659,9	2301,148
660,4	2290,548
660,8	2279,862
661,2	2256,805
661,7	2245,033
662,1	2234,519
662,6	2218,633
663	2206,319
663,4	2195,176
663,9	2179,176
664,3	2171,005
664,8	2151,719
665,2	2134,405
665,6	2120,205
666,1	2106,405
666,5	2090,405
667	2079,976
667,4	2066,262
667,9	2058,89
668,3	2046,49
668,7	2038,376
669,2	2025,119
669,6	2012,548
670,1	1991,805
670,5	1980,462
670,9	1962,976
671,4	1948,89
671,8	1934,09
672,3	1922,033
672,7	1912,776
673,1	1904,662
673,6	1890,433
674	1877,348
674,5	1865,548
674,9	1850,062
675,3	1834,833
675,8	1820,576
676,2	1803,748
676,7	1789,119
677,1	1779,319
677,5	1770,719
678	1765,919
678,4	1758,233
678,9	1749,719
679,3	1742,176
679,7	1735,548
680,2	1726,405
680,6	1715,748
681,1	1704,033
681,5	1695,062
681,9	1686,805
682,4	1678,862
682,8	1668,462
683,3	1656,062
683,7	1642,633
684,1	1625,148
684,6	1613,319
685	1595,119
685,5	1587,69
685,9	1574,605
686,3	1564,062
686,8	1552,976
687,2	1545,033
687,7	1534,662
688,1	1523,976
688,5	1511,319
689	1504,119
689,4	1493,462
689,9	1482,576
690,3	1477,49
690,7	1463,576
691,2	1450,919
691,6	1440,033
692	1427,405
692,5	1415,862
692,9	1399,633
693,4	1385,633
693,8	1381,548
694,2	1375,49
694,7	1363,69
695,1	1359,405
695,6	1352,176
696	1351,748
696,4	1344,719
696,9	1332,205
697,3	1321,319
697,8	1316,176
698,2	1303,633
698,6	1290,005
699,1	1285,433
699,5	1271,262
699,9	1264,576
700,4	1255,49
700,8	1243,462
701,3	1234,29
701,7	1229,976
702,1	1214,548
702,6	1208,176
703	1197,976
703,5	1188,776
703,9	1181,948
704,3	1174,062
704,8	1168,033
705,2	1163,576
705,6	1157,205
706,1	1148,519
706,5	1148,405
707	1137,262
707,4	1131,633
707,8	1117,833
708,3	1112,262
708,7	1102,462
709,2	1098,005
709,6	1087,605
710	1082,948
710,5	1072,176
710,9	1069,576
711,3	1054,805
711,8	1047,09
712,2	1037,633
712,7	1029,433
713,1	1023,719
713,5	1019,176
714	1016,748
714,4	1010,719
714,8	1001,319
715,3	994,148
715,7	988,148
716,2	978,119
716,6	973,205
717	961,69
717,5	953,748
717,9	948,205
718,3	942,005
718,8	938,462
719,2	928,633
719,7	918,376
720,1	907,462
720,5	904,205
721	893,119
721,4	888,776
721,8	878,69
722,3	880,919
722,7	874,205
723,2	865,919
723,6	855,919
724	857,319
724,5	844,69
724,9	838,633
725,3	824,89
725,8	817,805
726,2	813,233
726,7	812,462
727,1	806,605
727,5	804,176
728	796,862
728,4	797,89
728,8	790,89
729,3	784,176
729,7	778,405
730,1	770,176
730,6	764,49
731	760,576
731,5	750,233
731,9	746,719
732,3	749,148
732,8	742,862
733,2	740,69
733,6	736,748
734,1	734,176
734,5	730,262
734,9	723,29
735,4	717,948
735,8	715,119
736,3	710,662
736,7	704,719
737,1	701,09
737,6	697,548
738	698,376
738,4	689,49
738,9	685,348
739,3	682,319
739,7	679,033
740,2	674,148
740,6	670,89
741,1	661,605
741,5	662,119
741,9	655,033
742,4	649,805
742,8	647,233
743,2	643,719
743,7	634,576
744,1	635,405
744,5	629,919
745	625,405
745,4	619,49
745,8	614,49
746,3	611,148
746,7	612,148
747,2	605,348
747,6	598,376
748	600,005
748,5	600,69
748,9	596,89
749,3	590,633
749,8	587,005
750,2	585,919
750,6	588,719
751,1	578,833
751,5	571,205
751,9	567,433
752,4	561,49
752,8	555,29
753,3	551,262
753,7	539,405
754,1	535,605
754,6	534,748
755	531,233
755,4	534,69
755,9	529,462
756,3	525,948
756,7	525,233
757,2	525,633
757,6	522,09
758	516,462
758,5	508,576
758,9	506,633
759,3	498,862
759,8	493,662
760,2	484,262
760,6	478,062
761,1	476,862
761,5	475,519
761,9	471,09
762,4	470,862
762,8	465,719
763,3	465,49
763,7	460,833
764,1	459,49
764,6	454,805
765	452,29
765,4	446,89
765,9	452,29
766,3	451,633
766,7	449,919
767,2	446,976
767,6	446,719
768	445,633
768,5	446,405
768,9	441,976
769,3	437,89
769,8	437,119
770,2	430,633
770,6	423,748
771,1	421,005
771,5	418,519
771,9	414,976
772,4	417,033
772,8	414,69
773,2	413,519
773,7	411,433
774,1	408,319
774,5	402,148
775	396,062
775,4	384,89
775,8	379,005
776,3	376,89
776,7	371,005
777,1	367,748
777,6	365,09
778	369,176
778,4	370,605
778,9	368,462
779,3	366,49
779,7	365,948
780,2	366,976
780,6	363,662
781	355,862
781,5	355,662
781,9	357,633
782,3	355,662
782,8	358,719
783,2	355,719
783,6	358,205
784,1	355,09
784,5	351,462
784,9	348,062
785,4	345,319
785,8	338,519
786,2	332,148
786,7	330,433
787,1	328,519
787,5	327,405
788	325,062
788,4	325,605
788,8	322,976
789,3	322,719
789,7	318,633
790,1	314,976
790,6	310,405
791	310,776
791,4	306,719
791,9	301,833
792,3	295,919
792,7	293,919
793,2	293,69
793,6	294,519
794	289,348
794,5	284,605
794,9	286,49
795,3	291,033
795,8	286,033
796,2	282,89
796,6	277,976
797,1	270,348
797,5	271,605
797,9	269,348
798,4	262,633
798,8	262,805
799,2	264,519
799,7	262,433
800,1	263,176
800,5	256,005
801	255,576
801,4	254,262
801,8	250,29
802,2	246,919
802,7	245,805
803,1	246,148
803,5	249,433
804	244,119
804,4	246,605
804,8	245,833
805,3	246,119
805,7	242,633
806,1	239,09
806,6	233,376
807	233,548
807,4	226,719
807,9	227,205
808,3	222,519
808,7	220,348
809,2	224,148
809,6	225,319
810	223,919
810,4	220,348
810,9	212,776
811,3	210,319
811,7	214,548
812,2	209,976
812,6	205,919
813	202,062
813,5	200,233
813,9	203,89
814,3	203,862
814,8	193,376
815,2	188,262
815,6	186,633
816,1	184,633
816,5	189,576
816,9	184,605
817,3	183,719
817,8	187,319
818,2	188,805
818,6	188,205
819,1	188,919
819,5	186,633
819,9	191,262
820,4	190,005
820,8	186,89
821,2	184,748
821,7	185,176
822,1	183,776
822,5	182,033
822,9	175,262
823,4	175,976
823,8	174,233
824,2	175,233
824,7	175,662
825,1	173,862
825,5	168,69
826	169,205
826,4	166,262
826,8	167,205
827,3	163,919
827,7	158,29
828,1	159,433
828,5	159,148
829	160,662
829,4	154,433
829,8	155,005
830,3	157,09
830,7	158,976
831,1	159,719
831,6	162,176
832	160,319
832,4	163,748
832,8	158,119
833,3	157,633
833,7	154,405
834,1	150,49
834,6	148,29
835	150,633
835,4	147,748
835,8	150,548
836,3	145,29
836,7	143,719
837,1	143,148
837,6	140,548
838	134,319
838,4	132,319
838,9	129,29
839,3	133,09
839,7	136,69
840,1	129,176
840,6	129,262
841	131,833
841,4	133,576
841,9	134,262
842,3	131,005
842,7	127,376
843,1	133,748
843,6	131,919
844	128,205
844,4	129,033
844,9	123,462
845,3	121,748
845,7	118,233
846,2	115,348
846,6	115,519
847	116,062
847,4	109,919
847,9	110,89
848,3	111,405
848,7	112,062
849,2	110,862
849,6	107,462
850	107,376
850,4	107,348
850,9	106,09
851,3	97,49
851,7	97,948
852,2	98,319
852,6	98,576
853	91,719
853,4	91,462
853,9	90,262
854,3	92,233
854,7	92,233
855,2	95,462
855,6	94,462
856	97,605
856,4	101,119
856,9	104,69
857,3	105,633
857,7	104,319
858,2	92,776
858,6	90,948
859	84,433
859,4	81,69
859,9	82,005
860,3	78,948
860,7	79,69
861,1	87,09
861,6	90,205
862	93,69
862,4	92,519
862,9	90,719
863,3	87,462
863,7	83,862
864,1	80,148
864,6	80,148
865	80,433
865,4	79,576
865,9	79,148
866,3	85,348
866,7	88,69
867,1	86,462
867,6	88,205
868	94,033
868,4	92,319
868,8	88,148
869,3	87,148
869,7	79,462
870,1	83,462
870,6	74,033
871	90,119
871,4	91,233
871,8	95,462
872,3	95,405
872,7	100,348
873,1	97,233
873,5	101,69
874	77,119
874,4	77,29
874,8	78,662
875,3	76,748
875,7	76,433
876,1	78,29
876,5	77,605
877	78,233
877,4	79,29
877,8	77,348
878,2	75,462
878,7	73,462
879,1	71,805
879,5	68,633
879,9	68,719
880,4	66,205
880,8	62,948
881,2	63,976
881,7	62,205
882,1	65,319
882,5	68,719
882,9	67,89
883,4	69,405
883,8	74,29
884,2	69,519
884,6	72,033
885,1	67,233
885,5	68,205
885,9	69,719
886,3	66,262
886,8	60,662
887,2	62,319
887,6	58,405
888	58,29
888,5	53,519
888,9	51,919
889,3	53,09
889,8	57,548
890,2	56,919
890,6	57,776
891	54,062
891,5	59,148
891,9	55,148
892,3	54,833
892,7	52,233
893,2	55,376
893,6	55,948
894	58,919
894,4	53,719
894,9	51,519
895,3	49,662
895,7	44,519
896,1	43,833
896,6	44,005
897	43,348
897,4	45,405
897,8	50,062
898,3	51,919
898,7	53,633
899,1	54,519
899,5	55,262
900	55,205
900,4	58,805
900,8	58,948
901,2	59,862
901,7	59,233
902,1	60,69
902,5	53,005
902,9	49,69
903,4	44,376
903,8	41,948
904,2	37,033
904,6	34,548
905,1	36,405
905,5	42,662
905,9	47,833
906,3	43,433
906,8	48,29
907,2	50,233
907,6	57,462
908	50,519
908,5	48,805
908,9	47,319
909,3	50,319
909,7	46,805
910,2	50,233
910,6	41,805
911	37,833
911,4	31,205
911,9	26,433
912,3	21,348
912,7	16,462
913,1	16,233
913,6	16,433
914	21,776
914,4	21,033
914,8	24,148
915,3	25,319
915,7	34,062
916,1	32,09
916,5	34,233
916,9	29,662
917,4	39,319
917,8	38,433
918,2	40,948
918,6	32,719
919,1	31,262
919,5	30,89
919,9	35,148
920,3	32,462
920,8	34,548
921,2	35,776
921,6	40,49
922	38,805
922,5	39,662
922,9	38,519
923,3	39,805
923,7	39,89
924,2	40,319
924,6	40,319
925	39,748
925,4	39,976
925,8	42,319
926,3	40,719
926,7	43,233
927,1	42,919
927,5	46,69
928	45,776
928,4	48,519
928,8	45,719
929,2	43,748
929,7	40,662
930,1	42,119
930,5	35,576
930,9	34,376
931,3	29,376
931,8	29,262
932,2	31,948
932,6	28,69
933	24,805
933,5	28,748
933,9	30,462
934,3	32,833
934,7	31,176
935,2	32,376
935,6	32,862
936	32,719
936,4	33,633
936,8	32,49
937,3	28,376
937,7	29,433
938,1	18,748
938,5	22,576
939	25,719
939,4	20,405
939,8	21,776
940,2	23,719
940,6	24,89
941,1	32,776
941,5	28,405
941,9	31,462
942,3	32,49
942,8	35,776
943,2	38,862
943,6	39,49
944	33,119
944,4	36,662
944,9	27,462
945,3	26,862
945,7	25,433
946,1	24,09
946,6	22,119
947	26,262
947,4	21,576
947,8	24,09
948,2	24,319
948,7	17,89
949,1	16,49
949,5	14,948
949,9	13,119
950,3	15,69
950,8	18,605
951,2	17,348
951,6	20,89
952	22,719
952,5	22,919
952,9	24,748
953,3	23,319
953,7	20,433
954,1	20,462
954,6	19,833
955	18,548
955,4	25,633
955,8	26,833
956,2	30,805
956,7	33,633
957,1	31,405
957,5	29,519
957,9	28,548
958,3	21,319
958,8	16,062
959,2	16,119
959,6	12,233
960	15,519
960,5	18,062
960,9	17,233
961,3	15,462
961,7	20,119
962,1	18,233
962,6	16,605
963	16,148
963,4	16,376
963,8	19,148
964,2	21,319
964,7	20,719
965,1	16,433
965,5	20,805
965,9	19,862
966,3	18,49
966,8	16,519
967,2	11,433
967,6	13,033
968	14,005
968,4	10,605
968,9	13,262
969,3	10,69
969,7	10,233
970,1	20,09
970,5	17,719
971	14,862
971,4	18,605
971,8	18,29
972,2	23,376
972,6	23,948
973,1	18,833
973,5	20,005
973,9	24,233
974,3	24,176
974,7	20,49
975,2	18,033
975,6	17,776
976	20,376
976,4	18,748
976,8	16,776
977,3	16,233
977,7	18,148
978,1	23,033
978,5	20,719
978,9	15,662
979,4	16,433
979,8	17,348
980,2	16,862
980,6	15,519
981	11,89
981,5	9,148
981,9	10,805
982,3	12,462
982,7	11,633
983,1	11,433
983,6	12,833
984	10,29
984,4	16,519
984,8	18,919
985,2	20,948
985,6	20,719
986,1	17,719
986,5	15,462
986,9	18,662
987,3	14,376
987,7	14,805
988,2	14,405
988,6	15,605
989	19,176
989,4	24,233
989,8	23,605
990,3	21,748
990,7	24,29
991,1	22,462
991,5	22,519
991,9	19,005
992,3	13,062
992,8	11,576
993,2	16,09
993,6	10,89
994	10,719
994,4	17,662
994,9	19,033
995,3	27,576
995,7	28,719
996,1	29,062
996,5	27,805
996,9	27,633
997,4	21,633
997,8	23,49
998,2	16,233
998,6	17,148
999	14,262
999,5	12,919
999,9	12,805
1000,3	13,09
1000,7	11,062
1001,1	11,376
1001,5	11,376
1002	15,09
1002,4	21,376
1002,8	18,462
1003,2	18,348
1003,6	16,633
1004	15,433
1004,5	12,119
1004,9	11,29
1005,3	6,948
1005,7	7,89
1006,1	7,633
1006,6	10,376
1007	12,376
1007,4	10,748
1007,8	16,376
1008,2	18,633
1008,6	20,376
1009,1	21,69
1009,5	22,662
1009,9	23,119
1010,3	24,062
1010,7	22,548
1011,1	25,176
1011,6	28,976
1012	26,776
1012,4	26,548
1012,8	26,805
1013,2	29,605
1013,6	29,233
1014,1	24,176
1014,5	20,176
1014,9	22,062
1015,3	20,348
1015,7	24,148
1016,1	19,833
1016,6	13,119
1017	16,119
1017,4	17,519
1017,8	12,976
1018,2	12,948
1018,6	10,862
1019,1	13,09
1019,5	14,29
1019,9	13,948
1020,3	12,49
1020,7	13,862
1021,1	18,548
1021,6	12,862
1022	16,948
1022,4	17,119
1022,8	12,09
1023,2	10,862
1023,6	7,576
1024,1	5,405
1024,5	5,919
1024,9	4,348
1025,3	5,719
1025,7	15,09
1026,1	18,176
1026,6	23,862
1027	23,719
1027,4	27,748
1027,8	26,948
1028,2	22,633
1028,6	19,976
1029	16,376
1029,5	18,548
1029,9	16,805
1030,3	18,89
1030,7	21,462
1031,1	27,233
1031,5	26,719
1032	24,862
1032,4	22,519
1032,8	26,148
1033,2	22,519
1033,6	20,89
1034	19,862
1034,4	19,948
1034,9	25,319
1035,3	24,919
1035,7	19,719
1036,1	21,776
1036,5	24,976
1036,9	27,548
1037,4	27,862
1037,8	30,148
1038,2	31,033
1038,6	32,576
1039	35,119
1039,4	33,09
1039,8	27,948
1040,3	29,033
1040,7	24,805
1041,1	21,719
1041,5	24,205
1041,9	17,948
1042,3	12,433
1042,7	11,662
1043,2	11,29
1043,6	19,376
1044	24,233
1044,4	22,49
1044,8	25,833
1045,2	28,548
1045,6	34,319
1046,1	34,09
1046,5	23,576
1046,9	20,319
1047,3	21,462
1047,7	20,376
1048,1	19,062
1048,5	15,976
1049	17,576
1049,4	21,462
1049,8	17,176
1050,2	15,462
1050,6	15,948
1051	18,633
1051,4	18,062
1051,9	13,405
1052,3	11,69
1052,7	18,576
1053,1	16,119
1053,5	15,376
1053,9	16,405
1054,3	13,405
1054,8	14,462
1055,2	13,348
1055,6	15,548
1056	16,233
1056,4	17,376
1056,8	17,148
1057,2	21,319
1057,6	20,462
1058,1	23,062
1058,5	16,376
1058,9	17,433
1059,3	18,262
1059,7	18,005
1060,1	17,49
1060,5	14,262
1061	14,862
1061,4	19,033
1061,8	19,919
1062,2	16,033
1062,6	18,405
1063	18,462
1063,4	21,09
1063,8	21,062
1064,3	20,576
1064,7	25,433
1065,1	29,833
1065,5	25,89
1065,9	24,948
1066,3	24,433
1066,7	22,005
1067,1	20,205
1067,6	18,29
1068	18,29
1068,4	18,205
1068,8	16,348
1069,2	19,948
1069,6	18,319
1070	21,919
1070,4	21,519
1070,9	16,005
1071,3	17,662
1071,7	21,776
1072,1	18,033
1072,5	22,719
1072,9	16,776
1073,3	14,862
1073,7	20,319
1074,2	19,919
1074,6	12,976
1075	14,548
1075,4	7,69
1075,8	8,719
1076,2	12,633
1076,6	12,148
1077	8,919
1077,5	15,976
1077,9	13,605
1078,3	16,748
1078,7	15,433
1079,1	9,376
1079,5	6,519
1079,9	7,462
1080,3	5,348
1080,7	7,633
1081,2	12,033
1081,6	13,148
1082	15,948
1082,4	14,548
1082,8	14,233
1083,2	15,633
1083,6	14,462
1084	11,748
1084,5	15,633
1084,9	8,662
1085,3	10,033
1085,7	12,976
1086,1	10,948
1086,5	10,405
1086,9	8,319
1087,3	3,462
1087,7	9,576
1088,2	11,09
1088,6	9,09
1089	8,176
1089,4	9,833
1089,8	11,576
1090,2	13,29
1090,6	12,748
1091	13,776
1091,4	14,062
1091,9	16,519
1092,3	18,005
1092,7	16,29
1093,1	14,09
1093,5	11,605
1093,9	12,633
1094,3	13,005
1094,7	14,862
1095,1	13,89
1095,5	11,805
1096	15,576
1096,4	14,633
1096,8	13,69
1097,2	14,119
1097,6	13,89
1098	14,233
1098,4	16,062
1098,8	14,119
1099,2	15,662
1099,6	11,376
1100,1	10,405
1100,5	8,119
1100,9	10,262
1101,3	14,062
1101,7	13,09
1102,1	17,233
1102,5	17,119
1102,9	12,748
1103,3	14,376
1103,7	12,09
1104,2	10,833
1104,6	16,919
1105	16,205
1105,4	18,09
1105,8	20,833
1106,2	16,719
1106,6	13,719
1107	11,348
1107,4	6,1
1107,8	2,393
1108,3	-0,067
