Data from Subt2_00074.txt Node
Date: Mon Aug 28 13:28:56 MSK 2023
User: vat
Spectrometer: MAYP114033
Trigger mode: 0
Integration Time (sec): 1,000000E0
Scans to average: 5
Electric dark correction enabled: true
Nonlinearity correction enabled: false
Boxcar width: 3
XAxis mode: Wavelengths
Number of Pixels in Spectrum: 2068
>>>>>Begin Spectral Data<<<<<
199,4	-0,45
199,9	-5,26
200,4	-4,233
200,8	-1,186
201,3	-2,414
201,8	-1,129
202,2	1,329
202,7	1,186
203,2	5,157
203,6	9,586
204,1	9,786
204,6	12,671
205	12,129
205,5	9,557
206	10,529
206,4	8,557
206,9	5,414
207,4	1,929
207,8	-0,671
208,3	0,271
208,8	0,786
209,2	2,757
209,7	6,043
210,2	8,071
210,6	10,386
211,1	13,929
211,5	9,929
212	12,157
212,5	10,729
212,9	8,986
213,4	6,643
213,9	4,757
214,3	3,329
214,8	7,243
215,3	4,814
215,7	3,529
216,2	7,271
216,7	9,643
217,1	6,871
217,6	7,214
218,1	7,414
218,5	8,986
219	10,957
219,5	13,929
219,9	7,5
220,4	15,443
220,9	14,757
221,3	14,1
221,8	9,9
222,3	11,757
222,7	7,271
223,2	9,014
223,6	5,357
224,1	6,414
224,6	10,729
225	18,3
225,5	12,471
226	9,586
226,4	12,014
226,9	10,7
227,4	12,7
227,8	10,729
228,3	0,5
228,8	2,9
229,2	4,3
229,7	1,929
230,2	5,357
230,6	0,557
231,1	2,414
231,5	11,986
232	14,386
232,5	12,757
232,9	16,443
233,4	9,529
233,9	16,557
234,3	14,1
234,8	10,529
235,3	9,757
235,7	14,557
236,2	12,643
236,7	13,929
237,1	9,186
237,6	9,929
238,1	11,071
238,5	12,1
239	8,757
239,4	10,5
239,9	13,7
240,4	12,414
240,8	14,957
241,3	11,957
241,8	8,357
242,2	7,7
242,7	5,671
243,2	4,843
243,6	8,443
244,1	0,471
244,6	-2,671
245	-3,271
245,5	-1,471
245,9	0,557
246,4	3,071
246,9	1,414
247,3	7,071
247,8	10,9
248,3	16,443
248,7	15,243
249,2	15,729
249,7	16,5
250,1	13,386
250,6	10,929
251	11,043
251,5	6,957
252	6,757
252,4	6,3
252,9	7,129
253,4	11,414
253,8	8,071
254,3	10,7
254,8	14,557
255,2	13,5
255,7	10,243
256,1	8,586
256,6	9,357
257,1	13,329
257,5	11,957
258	6,7
258,5	9,214
258,9	5,557
259,4	4,614
259,9	0,814
260,3	-1,386
260,8	-3,529
261,2	-0,3
261,7	0,3
262,2	7,471
262,6	6,214
263,1	6,7
263,6	1,1
264	5,329
264,5	5,071
264,9	2,243
265,4	-1,243
265,9	-3,586
266,3	-4,186
266,8	5,871
267,3	3,814
267,7	4,443
268,2	4,957
268,7	10,757
269,1	10,357
269,6	11,043
270	2,929
270,5	8,7
271	6,214
271,4	4,186
271,9	-2,471
272,4	4,243
272,8	6,271
273,3	11,186
273,7	4,043
274,2	1,843
274,7	3,9
275,1	3,7
275,6	4,329
276,1	2,414
276,5	2,957
277	4,357
277,4	7,5
277,9	1,043
278,4	2,871
278,8	-1,7
279,3	0,043
279,8	1,329
280,2	2,214
280,7	1,671
281,1	8,129
281,6	6,043
282,1	8,586
282,5	7,957
283	8,614
283,4	7,014
283,9	7,757
284,4	10,986
284,8	16,329
285,3	13,871
285,8	13,614
286,2	9,529
286,7	12,643
287,1	10,7
287,6	6,386
288,1	2,414
288,5	6,757
289	4,129
289,5	1,443
289,9	-2,3
290,4	-5,729
290,8	-5,214
291,3	0,329
291,8	-4,529
292,2	1,929
292,7	6,214
293,1	11,557
293,6	11,271
294,1	12,843
294,5	6,271
295	4,957
295,5	3,157
295,9	5,929
296,4	1,214
296,8	5,586
297,3	8,557
297,8	15,471
298,2	17,7
298,7	16,043
299,1	13,1
299,6	14,929
300,1	17,386
300,5	12,986
301	13,157
301,5	12,471
301,9	8,529
302,4	6,329
302,8	6,014
303,3	6,1
303,8	11,957
304,2	8,3
304,7	8,7
305,1	6,386
305,6	6,014
306,1	5,043
306,5	-1,757
307	-5,214
307,4	-9,786
307,9	-9,214
308,4	-5,614
308,8	-1,386
309,3	-0,786
309,8	2,986
310,2	-0,786
310,7	4,557
311,1	5,129
311,6	6,329
312,1	5,157
312,5	5,586
313	6,443
313,4	12,957
313,9	10,386
314,4	6,443
314,8	6,329
315,3	9,7
315,7	8,757
316,2	7,357
316,7	3,729
317,1	5,757
317,6	6,243
318	9,986
318,5	4,729
319	6,929
319,4	10,843
319,9	8,157
320,3	9,271
320,8	10,614
321,3	5,729
321,7	9,9
322,2	5,243
322,6	5,5
323,1	4,929
323,6	4,014
324	4,1
324,5	7,929
324,9	9,043
325,4	10,043
325,9	5,471
326,3	4,843
326,8	0,729
327,2	5,043
327,7	3,957
328,2	0,071
328,6	3,243
329,1	2,7
329,5	7,671
330	8,871
330,5	8,014
330,9	6,157
331,4	3,129
331,8	1,271
332,3	3,757
332,8	2,586
333,2	5,843
333,7	1,157
334,1	-1,329
334,6	1,214
335,1	3,9
335,5	1,386
336	3,529
336,4	2,3
336,9	4,643
337,4	7,471
337,8	7,614
338,3	4,214
338,7	9,557
339,2	2,014
339,7	0,586
340,1	-0,614
340,6	-0,529
341	-0,957
341,5	1,386
342	-0,1
342,4	0,957
342,9	3,643
343,3	5,786
343,8	8,529
344,2	11,386
344,7	8,929
345,2	11,186
345,6	17,243
346,1	13,271
346,5	13,471
347	7,614
347,5	7,386
347,9	8,186
348,4	5,7
348,8	6,757
349,3	6,243
349,8	7,5
350,2	9,843
350,7	10,814
351,1	14,557
351,6	17,043
352	17,986
352,5	29,7
353	35,071
353,4	45,729
353,9	59,529
354,3	77,043
354,8	86,243
355,3	106,986
355,7	128,5
356,2	154,071
356,6	180,586
357,1	212,386
357,5	241,957
358	294,557
358,5	338,929
358,9	392,643
359,4	456,929
359,8	532,729
360,3	608,671
360,8	704,329
361,2	803,871
361,7	918,729
362,1	1044,871
362,6	1182,043
363	1333,186
363,5	1498,786
364	1661,5
364,4	1837,957
364,9	2014,614
365,3	2185,3
365,8	2361,929
366,3	2516,214
366,7	2655,871
367,2	2790,586
367,6	2899,586
368,1	2982,9
368,5	3045,786
369	3071,929
369,5	3083,871
369,9	3068,643
370,4	3021,386
370,8	2952,786
371,3	2870,671
371,7	2776,071
372,2	2661,071
372,7	2533,071
373,1	2400,786
373,6	2265,357
374	2124,414
374,5	1986,643
374,9	1840,557
375,4	1711,757
375,9	1586,757
376,3	1459,729
376,8	1346,243
377,2	1239,443
377,7	1132,071
378,2	1041,929
378,6	951,671
379,1	863,471
379,5	795,357
380	726,471
380,4	661,929
380,9	611,643
381,4	554,557
381,8	505,557
382,3	471,986
382,7	433,957
383,2	397,071
383,6	373,757
384,1	349,243
384,6	329,871
385	308,386
385,5	286,471
385,9	267,271
386,4	254,643
386,8	232,929
387,3	212,9
387,7	199,3
388,2	184,214
388,7	172,243
389,1	161,243
389,6	151,671
390	142,614
390,5	135,757
390,9	124,643
391,4	118,243
391,9	108,471
392,3	105,957
392,8	97,986
393,2	94,671
393,7	88,414
394,1	85,557
394,6	83,1
395,1	86,386
395,5	76,871
396	71,729
396,4	64,671
396,9	63,243
397,3	62,243
397,8	58,386
398,2	47,243
398,7	43,414
399,2	39,729
399,6	38,786
400,1	33,014
400,5	31,214
401	36,614
401,4	36,043
401,9	37,871
402,4	37,043
402,8	43,786
403,3	48,557
403,7	45,986
404,2	40,043
404,6	42,843
405,1	48,471
405,5	49,814
406	46,986
406,5	47,786
406,9	51,443
407,4	49,129
407,8	53,843
408,3	47,786
408,7	44,214
409,2	39,471
409,6	34,271
410,1	37,471
410,6	43,3
411	41,186
411,5	39,9
411,9	45,329
412,4	51,843
412,8	53,986
413,3	50,757
413,7	48,157
414,2	47,329
414,7	48,157
415,1	49,671
415,6	46,557
416	52,786
416,5	57,386
416,9	66,014
417,4	73,7
417,8	81,243
418,3	83,1
418,8	89,614
419,2	88,643
419,7	91,214
420,1	83,957
420,6	83,129
421	85,414
421,5	90,443
421,9	89,1
422,4	92,614
422,8	93,986
423,3	100,271
423,8	99,414
424,2	100,129
424,7	103,443
425,1	105,329
425,6	103,386
426	105,557
426,5	107,729
426,9	106,671
427,4	110,614
427,9	111,3
428,3	113,729
428,8	120,186
429,2	118,471
429,7	119,071
430,1	121,729
430,6	115,214
431	110,871
431,5	112,643
431,9	109,614
432,4	109,929
432,8	114,043
433,3	117,043
433,8	123,729
434,2	130,5
434,7	130,357
435,1	136,014
435,6	140,186
436	145,071
436,5	149,071
436,9	156,814
437,4	163,814
437,8	172,729
438,3	183,9
438,8	192,329
439,2	197,043
439,7	209,471
440,1	212,586
440,6	220,243
441	228,443
441,5	235,443
441,9	245,986
442,4	256,586
442,8	265,3
443,3	282,129
443,7	289,757
444,2	302,729
444,7	316,357
445,1	329,814
445,6	344,071
446	357,214
446,5	370,5
446,9	389,129
447,4	406,014
447,8	421,929
448,3	435,786
448,7	454,129
449,2	469,043
449,6	490,071
450,1	505,014
450,6	526,357
451	545,214
451,5	574,243
451,9	594,643
452,4	617,643
452,8	638,386
453,3	662,157
453,7	681,443
454,2	699,414
454,6	716,729
455,1	743,471
455,5	771,614
456	797,757
456,4	828,071
456,9	858,557
457,3	892,529
457,8	920,043
458,3	943,729
458,7	976,986
459,2	1003,843
459,6	1038,786
460,1	1071,214
460,5	1101,986
461	1138,929
461,4	1174,329
461,9	1201,671
462,3	1235,9
462,8	1262,757
463,2	1292,671
463,7	1331,386
464,1	1365,357
464,6	1404,357
465	1445,014
465,5	1483,986
466	1528,643
466,4	1569,214
466,9	1605,043
467,3	1641,814
467,8	1679,757
468,2	1716,243
468,7	1760,014
469,1	1799,043
469,6	1832,9
470	1871,871
470,5	1914,5
470,9	1953,014
471,4	2000,757
471,8	2034,5
472,3	2072,414
472,7	2116,643
473,2	2160,443
473,6	2198,386
474,1	2241,929
474,5	2272,071
475	2312,471
475,4	2347,357
475,9	2386,271
476,4	2420,443
476,8	2462,929
477,3	2500,986
477,7	2541,557
478,2	2585,929
478,6	2629,5
479,1	2670,271
479,5	2708,271
480	2740,357
480,4	2774,957
480,9	2812,214
481,3	2840,786
481,8	2874,414
482,2	2909,5
482,7	2951,671
483,1	2985,243
483,6	3020,7
484	3046,243
484,5	3083,043
484,9	3115,043
485,4	3144,786
485,8	3167,586
486,3	3197,586
486,7	3223,186
487,2	3258,9
487,6	3277,9
488,1	3305,186
488,5	3325,671
489	3356,014
489,4	3383,271
489,9	3409,614
490,4	3426,357
490,8	3453,329
491,3	3474,243
491,7	3493,357
492,2	3509,471
492,6	3527,443
493,1	3540,271
493,5	3567,586
494	3590,443
494,4	3602,614
494,9	3625,386
495,3	3638,071
495,8	3660,386
496,2	3675,014
496,7	3687,614
497,1	3695,986
497,6	3713,386
498	3722,843
498,5	3741,471
498,9	3744,786
499,4	3761,043
499,8	3771,614
500,3	3789,614
500,7	3801,5
501,2	3809,471
501,6	3816,186
502,1	3831,643
502,5	3846,957
503	3865,071
503,4	3867,3
503,9	3875,671
504,3	3888,786
504,8	3897,071
505,2	3905,529
505,7	3907,529
506,1	3905,186
506,6	3914,443
507	3925,814
507,5	3935,929
507,9	3948,671
508,4	3955,671
508,8	3962,7
509,3	3975,586
509,7	3980,757
510,2	3982,271
510,6	3991,3
511,1	3994,214
511,5	4000,157
512	4010,071
512,4	4014,1
512,9	4020,729
513,3	4032,186
513,8	4046,271
514,2	4056,557
514,7	4058,1
515,1	4052,614
515,6	4059,443
516	4071,9
516,5	4071,243
516,9	4062,843
517,4	4068,9
517,8	4076,186
518,3	4093,157
518,7	4100,386
519,2	4110,329
519,6	4120,3
520,1	4130,786
520,5	4133,414
521	4133,957
521,4	4140,643
521,9	4141,5
522,3	4139,529
522,8	4140,671
523,2	4144,443
523,7	4149,3
524,1	4155,671
524,6	4161,014
525	4169,9
525,5	4177,929
525,9	4192,443
526,4	4203,871
526,8	4211,986
527,3	4228,871
527,7	4242,3
528,2	4248,7
528,6	4264,386
529,1	4277,157
529,5	4285,757
530	4296,986
530,4	4308,414
530,9	4320,071
531,3	4333,186
531,8	4336,357
532,2	4341,071
532,6	4353,529
533,1	4359,957
533,5	4366,043
534	4358,614
534,4	4366,186
534,9	4377,9
535,3	4391,214
535,8	4403,214
536,2	4414,929
536,7	4426,957
537,1	4451,243
537,6	4465,757
538	4479,3
538,5	4487,186
538,9	4491,129
539,4	4502,614
539,8	4511,014
540,3	4517,386
540,7	4521,586
541,2	4527,443
541,6	4531,1
542,1	4547,329
542,5	4553,929
543	4567,071
543,4	4580,014
543,9	4595,929
544,3	4607,729
544,8	4630,214
545,2	4640,3
545,7	4657,3
546,1	4667,814
546,5	4680,5
547	4692,129
547,4	4707,071
547,9	4707,871
548,3	4719,5
548,8	4722,529
549,2	4737,243
549,7	4743,529
550,1	4749,043
550,6	4756,671
551	4772,186
551,5	4774,614
551,9	4789,443
552,4	4792,157
552,8	4801,986
553,3	4816,529
553,7	4823,814
554,2	4833,014
554,6	4849,071
555,1	4854,443
555,5	4865,729
555,9	4873,7
556,4	4883,243
556,8	4895,471
557,3	4894,7
557,7	4899,986
558,2	4909,643
558,6	4915,757
559,1	4929,9
559,5	4938,357
560	4936,957
560,4	4954,586
560,9	4960,757
561,3	4975,643
561,8	4983,871
562,2	4986,471
562,7	4981,271
563,1	4991,243
563,6	4995,243
564	5004,929
564,4	5010,1
564,9	5020,614
565,3	5024,814
565,8	5041,643
566,2	5052,043
566,7	5061,614
567,1	5067,014
567,6	5068,614
568	5060,186
568,5	5063,529
568,9	5067,443
569,4	5058,757
569,8	5056,843
570,3	5048,443
570,7	5056,386
571,1	5065,614
571,6	5067,357
572	5069,843
572,5	5073,757
572,9	5068,157
573,4	5072,586
573,8	5065,871
574,3	5070,186
574,7	5069,929
575,2	5058,957
575,6	5063,271
576,1	5068,786
576,5	5071,071
576,9	5068,986
577,4	5061,271
577,8	5059,357
578,3	5064,729
578,7	5058,271
579,2	5054,957
579,6	5059,871
580,1	5055,214
580,5	5057,957
581	5052,5
581,4	5043,357
581,9	5041,957
582,3	5038,014
582,7	5020,957
583,2	5017,557
583,6	5002,1
584,1	4993,186
584,5	4984,471
585	4970,271
585,4	4964,3
585,9	4960,729
586,3	4949,9
586,8	4947,043
587,2	4943,443
587,6	4939,5
588,1	4940,9
588,5	4935,671
589	4926,014
589,4	4924,929
589,9	4912,443
590,3	4907,871
590,8	4900,814
591,2	4891,557
591,7	4869,814
592,1	4869,471
592,5	4858,186
593	4857,157
593,4	4845,957
593,9	4838,986
594,3	4834,929
594,8	4839,214
595,2	4829,243
595,7	4827,614
596,1	4820,414
596,6	4808,843
597	4802,671
597,4	4790,757
597,9	4779,214
598,3	4773,186
598,8	4756,871
599,2	4749,5
599,7	4746,586
600,1	4735,243
600,6	4728,386
601	4716,529
601,4	4700,871
601,9	4691,129
602,3	4673,586
602,8	4667,043
603,2	4658,271
603,7	4652,671
604,1	4654,157
604,6	4643,957
605	4633,214
605,4	4628,386
605,9	4609,5
606,3	4600,9
606,8	4586,014
607,2	4567,1
607,7	4553,614
608,1	4546,7
608,6	4529,929
609	4522,471
609,4	4502,3
609,9	4477,7
610,3	4462,014
610,8	4454,929
611,2	4439,786
611,7	4429,5
612,1	4409,757
612,6	4395,671
613	4384,329
613,4	4370,214
613,9	4352,443
614,3	4333,386
614,8	4313,243
615,2	4300,643
615,7	4287,471
616,1	4278,186
616,6	4262,729
617	4240,9
617,4	4223,271
617,9	4213,986
618,3	4200,7
618,8	4182,643
619,2	4164,129
619,7	4149,014
620,1	4139,071
620,5	4116,529
621	4099,186
621,4	4082,929
621,9	4067,043
622,3	4053,843
622,8	4032,814
623,2	4007,071
623,6	3990,7
624,1	3969,329
624,5	3947,871
625	3930,929
625,4	3910,1
625,9	3891,7
626,3	3877,3
626,8	3865,014
627,2	3849,757
627,6	3832,757
628,1	3816,014
628,5	3795,7
629	3774,757
629,4	3755,729
629,9	3744,5
630,3	3720,014
630,7	3700,243
631,2	3677,157
631,6	3666,586
632,1	3649,814
632,5	3629,929
633	3605,871
633,4	3588,557
633,8	3572,671
634,3	3553,957
634,7	3526,186
635,2	3508,329
635,6	3494,729
636,1	3470,671
636,5	3453,786
636,9	3432,186
637,4	3420,929
637,8	3403,671
638,3	3383,386
638,7	3367,986
639,2	3357,014
639,6	3337,7
640	3316,786
640,5	3297,386
640,9	3285,871
641,4	3272,271
641,8	3251,129
642,2	3231,557
642,7	3216,957
643,1	3211,5
643,6	3198,814
644	3172,214
644,5	3163,9
644,9	3149,614
645,3	3138,043
645,8	3123,529
646,2	3097,271
646,7	3073,929
647,1	3062,529
647,6	3045,3
648	3029,014
648,4	3009,986
648,9	2999,043
649,3	2990,3
649,8	2977,157
650,2	2964,9
650,6	2951,129
651,1	2941,5
651,5	2929,414
652	2911,043
652,4	2893,014
652,9	2876,9
653,3	2863,471
653,7	2843,443
654,2	2821,9
654,6	2802,043
655,1	2785,757
655,5	2769,014
655,9	2756,214
656,4	2743,986
656,8	2723,157
657,3	2702,043
657,7	2686,957
658,2	2668,871
658,6	2656,186
659	2641,329
659,5	2622,729
659,9	2607,986
660,4	2600,271
660,8	2586,814
661,2	2571,5
661,7	2556,014
662,1	2539,157
662,6	2519,443
663	2506,643
663,4	2489,3
663,9	2468,557
664,3	2459,3
664,8	2440,871
665,2	2420,729
665,6	2405,529
666,1	2388,329
666,5	2370,5
667	2361,729
667,4	2340,271
667,9	2333,243
668,3	2323,814
668,7	2309,214
669,2	2301,671
669,6	2286,986
670,1	2270,671
670,5	2259,3
670,9	2239,957
671,4	2219,871
671,8	2206,386
672,3	2187,129
672,7	2179,071
673,1	2167,443
673,6	2153,214
674	2141,3
674,5	2127,7
674,9	2113,586
675,3	2097,614
675,8	2077,214
676,2	2059,671
676,7	2042,929
677,1	2030,071
677,5	2021,186
678	2009,871
678,4	2000,957
678,9	1995,757
679,3	1991,414
679,7	1983,586
680,2	1969,071
680,6	1956,729
681,1	1943,643
681,5	1925,957
681,9	1907,329
682,4	1888,7
682,8	1877,243
683,3	1865,357
683,7	1852,557
684,1	1840,586
684,6	1833,671
685	1823,757
685,5	1813,357
685,9	1795,9
686,3	1785,186
686,8	1778,643
687,2	1763,243
687,7	1750,643
688,1	1736,529
688,5	1726,9
689	1719,243
689,4	1707,329
689,9	1692,1
690,3	1683,443
690,7	1673,443
691,2	1663,186
691,6	1650,871
692	1634,814
692,5	1621,186
692,9	1610,357
693,4	1600,386
693,8	1588,643
694,2	1582,129
694,7	1571,014
695,1	1564,871
695,6	1555,129
696	1542,9
696,4	1535,471
696,9	1520,414
697,3	1508,9
697,8	1500,271
698,2	1485,357
698,6	1470,986
699,1	1466,129
699,5	1448,843
699,9	1441,9
700,4	1430,529
700,8	1421,671
701,3	1417,843
701,7	1411,671
702,1	1397,529
702,6	1392,557
703	1385,586
703,5	1376,586
703,9	1361,329
704,3	1349,529
704,8	1341,557
705,2	1331,7
705,6	1321,643
706,1	1312,986
706,5	1307,5
707	1307,871
707,4	1301,157
707,8	1289,757
708,3	1283,443
708,7	1273,557
709,2	1265,071
709,6	1251,214
710	1239,729
710,5	1229,3
710,9	1223,243
711,3	1211,9
711,8	1209,329
712,2	1203,3
712,7	1194,129
713,1	1181,1
713,5	1175,471
714	1170,357
714,4	1162,214
714,8	1152,557
715,3	1140,729
715,7	1133,1
716,2	1129,157
716,6	1117,271
717	1102,614
717,5	1095,357
717,9	1084,186
718,3	1077,129
718,8	1072,643
719,2	1059,271
719,7	1051,9
720,1	1045,3
720,5	1038,7
721	1029,243
721,4	1024,129
721,8	1010,586
722,3	1003,614
722,7	999,157
723,2	989,786
723,6	980,043
724	969,529
724,5	954,014
724,9	952,186
725,3	942,5
725,8	933,329
726,2	927,614
726,7	923,414
727,1	921,071
727,5	918,929
728	908,3
728,4	906,271
728,8	896,757
729,3	889,643
729,7	883,729
730,1	873,643
730,6	861,757
731	858,471
731,5	852,757
731,9	852,386
732,3	850,014
732,8	843,843
733,2	842,071
733,6	845,786
734,1	844,614
734,5	841,129
734,9	828,471
735,4	825,929
735,8	819,271
736,3	814,729
736,7	803,443
737,1	800,186
737,6	793,814
738	799,071
738,4	788,357
738,9	785,157
739,3	780,9
739,7	774,843
740,2	767,757
740,6	761,5
741,1	751,957
741,5	749,186
741,9	740,814
742,4	735,586
742,8	734,329
743,2	731,929
743,7	721,1
744,1	716,957
744,5	714,443
745	707,129
745,4	700,529
745,8	697,271
746,3	692,157
746,7	692,957
747,2	687,157
747,6	679,129
748	678,443
748,5	673,614
748,9	663,157
749,3	649,386
749,8	645,929
750,2	642,071
750,6	641,043
751,1	638,157
751,5	636,157
751,9	632,7
752,4	630,529
752,8	624,329
753,3	619,986
753,7	610,271
754,1	604,557
754,6	596,7
755	597,157
755,4	598,329
755,9	594,614
756,3	590,586
756,7	589,957
757,2	585,386
757,6	581,414
758	577,757
758,5	569,5
758,9	565,529
759,3	559,7
759,8	558,7
760,2	553,357
760,6	551,9
761,1	544,671
761,5	544,071
761,9	541,614
762,4	540,9
762,8	532,7
763,3	528,643
763,7	522,843
764,1	520,557
764,6	512,871
765	505,043
765,4	501,1
765,9	501,1
766,3	501,529
766,7	500,5
767,2	498,7
767,6	498,843
768	495,271
768,5	490,843
768,9	488,5
769,3	480,414
769,8	475,3
770,2	466,1
770,6	464,586
771,1	463,871
771,5	461,586
771,9	459,671
772,4	459,7
772,8	456,671
773,2	460,357
773,7	450,957
774,1	452,043
774,5	442,214
775	433,957
775,4	428,643
775,8	426,443
776,3	425,214
776,7	424,329
777,1	417,471
777,6	417,729
778	418,329
778,4	422,014
778,9	418,557
779,3	409,643
779,7	406,443
780,2	409,586
780,6	403,986
781	396,871
781,5	391,329
781,9	390,7
782,3	388,929
782,8	392,443
783,2	381,643
783,6	385,071
784,1	383,357
784,5	378,3
784,9	372,386
785,4	369,643
785,8	358,614
786,2	355,471
786,7	354,414
787,1	354,129
787,5	355,357
788	357,786
788,4	356,414
788,8	357,1
789,3	357,243
789,7	353,557
790,1	348,3
790,6	342,071
791	340,529
791,4	340,786
791,9	335,757
792,3	333,129
792,7	325,443
793,2	327,014
793,6	321,1
794	317,043
794,5	310,529
794,9	308,414
795,3	306,386
795,8	306,929
796,2	302,557
796,6	307,271
797,1	295,871
797,5	295,986
797,9	295,386
798,4	288,986
798,8	287,757
799,2	284,957
799,7	279,986
800,1	284,157
800,5	280,871
801	281,9
801,4	284,014
801,8	277,9
802,2	277,214
802,7	276,786
803,1	277,671
803,5	271,214
804	266,414
804,4	261,7
804,8	263,386
805,3	261,814
805,7	259,243
806,1	251,843
806,6	252,1
807	251,729
807,4	251,843
807,9	248,014
808,3	242,243
808,7	237,957
809,2	238,643
809,6	237,614
810	234,329
810,4	233,357
810,9	229,5
811,3	227,443
811,7	229,843
812,2	228,957
812,6	224,186
813	221,3
813,5	214,557
813,9	218,214
814,3	215,043
814,8	206,814
815,2	204,757
815,6	205,014
816,1	199,671
816,5	205,129
816,9	197,586
817,3	200,157
817,8	200,014
818,2	195,043
818,6	196,271
819,1	199,729
819,5	194,186
819,9	195,786
820,4	193,214
820,8	191,643
821,2	190,986
821,7	188,814
822,1	185,586
822,5	186,586
822,9	183,814
823,4	184,157
823,8	182,186
824,2	185,329
824,7	184,214
825,1	177,557
825,5	173,071
826	174,5
826,4	168,614
826,8	167,214
827,3	161,986
827,7	160,986
828,1	166,814
828,5	163,443
829	163,614
829,4	165,157
829,8	163,443
830,3	164,729
830,7	160,671
831,1	159,329
831,6	160,443
832	154,471
832,4	152,7
832,8	152,757
833,3	149,386
833,7	145,614
834,1	145,614
834,6	145,1
835	148,386
835,4	146,129
835,8	148,786
836,3	147,214
836,7	152,357
837,1	147,814
837,6	145,9
838	139,243
838,4	136,729
838,9	131,643
839,3	132,929
839,7	131,986
840,1	128,014
840,6	131,071
841	134,214
841,4	138,9
841,9	136,071
842,3	134,957
842,7	130,814
843,1	128,529
843,6	123,014
844	120,929
844,4	117,729
844,9	116,986
845,3	116,471
845,7	113,9
846,2	116,5
846,6	117,443
847	119,729
847,4	110,071
847,9	111,586
848,3	111,214
848,7	111,7
849,2	113,643
849,6	111,1
850	107,671
850,4	113,671
850,9	110,357
851,3	109,329
851,7	108,157
852,2	104,186
852,6	104,471
853	99,386
853,4	94,071
853,9	93,043
854,3	90,3
854,7	88,243
855,2	91,3
855,6	91,586
856	94,043
856,4	99,1
856,9	98,214
857,3	97,386
857,7	99,671
858,2	91,557
858,6	88,757
859	83,757
859,4	85,014
859,9	89,557
860,3	87,471
860,7	84,243
861,1	90,414
861,6	93,929
862	96,157
862,4	88,757
862,9	84,729
863,3	84,529
863,7	85,957
864,1	80,1
864,6	79,329
865	81,329
865,4	85,214
865,9	85,957
866,3	87,043
866,7	86,529
867,1	82,471
867,6	84,3
868	86,9
868,4	82,214
868,8	82,414
869,3	78,414
869,7	76,271
870,1	80,814
870,6	72,557
871	86,1
871,4	89,157
871,8	87,243
872,3	89,243
872,7	90,129
873,1	91,729
873,5	97,614
874	74,986
874,4	74,443
874,8	79,1
875,3	78,129
875,7	77,1
876,1	76,271
876,5	72,243
877	75,157
877,4	72,557
877,8	67,414
878,2	63,557
878,7	67,157
879,1	63,557
879,5	58,957
879,9	59,729
880,4	61,814
880,8	61,3
881,2	66,214
881,7	60,814
882,1	65,643
882,5	69,3
882,9	65,557
883,4	65,529
883,8	65,471
884,2	60,957
884,6	63,586
885,1	62,014
885,5	61,843
885,9	64,243
886,3	61,3
886,8	57,871
887,2	56,129
887,6	51,386
888	50,3
888,5	50,3
888,9	50,529
889,3	49,357
889,8	51,529
890,2	51,614
890,6	51,186
891	49,071
891,5	48,329
891,9	47,186
892,3	46,071
892,7	47,014
893,2	49,471
893,6	47,5
894	46,671
894,4	46,529
894,9	45,357
895,3	47,529
895,7	43,671
896,1	45,471
896,6	50,757
897	49,3
897,4	49,871
897,8	51,471
898,3	53,871
898,7	52,357
899,1	48,843
899,5	47,529
900	46,443
900,4	42,957
900,8	40,014
901,2	38,471
901,7	39,186
902,1	43,3
902,5	37,814
902,9	38,957
903,4	38,614
903,8	37,414
904,2	29,9
904,6	30,614
905,1	31,014
905,5	35,014
905,9	35,471
906,3	32,1
906,8	33,043
907,2	34,186
907,6	34,729
908	27,386
908,5	25,814
908,9	26,1
909,3	27,7
909,7	23,757
910,2	28,157
910,6	26,157
911	24,929
911,4	20,9
911,9	16,214
912,3	15,3
912,7	14,843
913,1	12,071
913,6	13,214
914	18,814
914,4	19,671
914,8	24,929
915,3	25,414
915,7	28,3
916,1	30,243
916,5	28,271
916,9	24,214
917,4	31,5
917,8	26,814
918,2	29,7
918,6	30,3
919,1	27,957
919,5	27,014
919,9	31,386
920,3	30,957
920,8	38,329
921,2	35,3
921,6	39,471
922	42,843
922,5	47,043
922,9	43,414
923,3	41,986
923,7	40,7
924,2	43,729
924,6	36,443
925	32,157
925,4	32,557
925,8	33,729
926,3	32,1
926,7	29,614
927,1	25,043
927,5	31,9
928	30,671
928,4	32,329
928,8	28,471
929,2	29,5
929,7	30,243
930,1	32,643
930,5	29,871
930,9	30,786
931,3	24,986
931,8	30,129
932,2	29,443
932,6	27,071
933	23,986
933,5	23,414
933,9	22,129
934,3	25,529
934,7	19,1
935,2	21,414
935,6	22,271
936	21,357
936,4	18,014
936,8	22,471
937,3	22,043
937,7	26,643
938,1	16,786
938,5	12,186
939	16,814
939,4	16,386
939,8	15,471
940,2	13,757
940,6	11,843
941,1	15,214
941,5	14,271
941,9	17,3
942,3	18,129
942,8	19,957
943,2	24,243
943,6	26,586
944	24,7
944,4	29,529
944,9	26,586
945,3	26,7
945,7	21,614
946,1	17,414
946,6	18,871
947	23,414
947,4	20,614
947,8	20,214
948,2	21,414
948,7	19,614
949,1	24,186
949,5	20,529
949,9	20,186
950,3	24,186
950,8	22,014
951,2	18,929
951,6	21,357
952	15,9
952,5	12,5
952,9	11,043
953,3	10,014
953,7	9,043
954,1	12,757
954,6	12,957
955	7,643
955,4	14,671
955,8	14,871
956,2	16,157
956,7	14,929
957,1	11,129
957,5	11,043
957,9	19,357
958,3	12,871
958,8	13,014
959,2	7,957
959,6	10,7
960	14,1
960,5	10,186
960,9	11,529
961,3	14,414
961,7	10,129
962,1	11,814
962,6	10,814
963	10,929
963,4	13,843
963,8	9,043
964,2	9,529
964,7	11,929
965,1	7,5
965,5	8,614
965,9	6,843
966,3	4,443
966,8	4,643
967,2	1,986
967,6	5,529
968	5,443
968,4	4,586
968,9	6,3
969,3	7,329
969,7	5,614
970,1	4,814
970,5	-0,471
971	1,786
971,4	-0,814
971,8	-3,043
972,2	3,414
972,6	3,843
973,1	2,7
973,5	6,614
973,9	8,014
974,3	11,929
974,7	12,957
975,2	11,214
975,6	10,871
976	13,871
976,4	12,3
976,8	12,643
977,3	12,586
977,7	10,329
978,1	7,214
978,5	8,1
978,9	4,957
979,4	6,243
979,8	6,357
980,2	2,929
980,6	6,929
981	7,871
981,5	5,929
981,9	7,814
982,3	7,786
982,7	5,843
983,1	3,129
983,6	-1,071
984	-5,757
984,4	-3,014
984,8	-1,929
985,2	-3,243
985,6	0,214
986,1	2,214
986,5	2,786
986,9	5,9
987,3	2,586
987,7	1,157
988,2	-0,986
988,6	0,786
989	3,071
989,4	6,329
989,8	7,357
990,3	10,9
990,7	12,186
991,1	16,814
991,5	15,157
991,9	11,271
992,3	6,271
992,8	5,9
993,2	3,7
993,6	1,071
994	-0,729
994,4	3,1
994,9	4,957
995,3	13,786
995,7	13,614
996,1	13,014
996,5	13,871
996,9	12,814
997,4	3,814
997,8	6,214
998,2	-0,157
998,6	3,986
999	5,614
999,5	6,014
999,9	6,357
1000,3	11,986
1000,7	13,243
1001,1	12,729
1001,5	12,757
1002	12,129
1002,4	17,043
1002,8	17,3
1003,2	17,929
1003,6	14,3
1004	11,843
1004,5	6,757
1004,9	5,186
1005,3	-0,1
1005,7	-1,871
1006,1	-7,757
1006,6	-9,1
1007	-8,386
1007,4	-11,957
1007,8	-5,357
1008,2	-3,414
1008,6	0,614
1009,1	2,643
1009,5	9,471
1009,9	11,157
1010,3	14,471
1010,7	10,271
1011,1	12,386
1011,6	11,157
1012	14,243
1012,4	11,614
1012,8	10,357
1013,2	12,043
1013,6	12,129
1014,1	6,471
1014,5	1,671
1014,9	1,1
1015,3	-1,014
1015,7	1,129
1016,1	-0,614
1016,6	-2,329
1017	1,729
1017,4	7,214
1017,8	4,671
1018,2	4,386
1018,6	3,471
1019,1	3,729
1019,5	5,671
1019,9	5,729
1020,3	4,214
1020,7	4,5
1021,1	6,357
1021,6	6,5
1022	7,786
1022,4	6,186
1022,8	3,614
1023,2	2,529
1023,6	-2,357
1024,1	-1,843
1024,5	0,414
1024,9	4,471
1025,3	4,757
1025,7	9,186
1026,1	13,871
1026,6	23,357
1027	22,957
1027,4	25,9
1027,8	18,786
1028,2	15,643
1028,6	14,1
1029	10,414
1029,5	7,129
1029,9	6,729
1030,3	4,7
1030,7	9,157
1031,1	13,7
1031,5	12,471
1032	11,843
1032,4	12,071
1032,8	13,386
1033,2	12,7
1033,6	10,786
1034	8,814
1034,4	9,986
1034,9	12,443
1035,3	10,471
1035,7	7,786
1036,1	5,814
1036,5	13,757
1036,9	19,586
1037,4	21,243
1037,8	19,871
1038,2	20,071
1038,6	21,529
1039	19,386
1039,4	9,243
1039,8	2,5
1040,3	2,871
1040,7	3,7
1041,1	2,471
1041,5	3,214
1041,9	4,814
1042,3	4,3
1042,7	6,586
1043,2	4,986
1043,6	5,729
1044	14,157
1044,4	13,871
1044,8	15,671
1045,2	20,157
1045,6	21,957
1046,1	23,386
1046,5	26,043
1046,9	21,5
1047,3	23,471
1047,7	22,871
1048,1	23,071
1048,5	21,3
1049	20,414
1049,4	15,586
1049,8	12,329
1050,2	10,757
1050,6	10,529
1051	7,214
1051,4	5,186
1051,9	-3,129
1052,3	-2,071
1052,7	3,471
1053,1	2,786
1053,5	-1,671
1053,9	-0,271
1054,3	-1,386
1054,8	7,357
1055,2	4,243
1055,6	2,843
1056	1,214
1056,4	8,957
1056,8	14,643
1057,2	14,014
1057,6	13,9
1058,1	17,671
1058,5	13,786
1058,9	15,9
1059,3	13,186
1059,7	6,271
1060,1	6,9
1060,5	4,386
1061	-2,557
1061,4	-0,871
1061,8	-0,414
1062,2	-3,157
1062,6	0,443
1063	2,586
1063,4	6,786
1063,8	10,729
1064,3	11,586
1064,7	10,443
1065,1	14,414
1065,5	11,5
1065,9	15,186
1066,3	12,757
1066,7	12,986
1067,1	7,871
1067,6	10,014
1068	8,243
1068,4	10,071
1068,8	5,986
1069,2	5,929
1069,6	7,157
1070	13,929
1070,4	13,7
1070,9	9,929
1071,3	11,043
1071,7	13,843
1072,1	9,757
1072,5	12,243
1072,9	7,871
1073,3	7,957
1073,7	15,929
1074,2	16,271
1074,6	12,671
1075	18,929
1075,4	17,243
1075,8	21,871
1076,2	20,757
1076,6	16,414
1077	14,243
1077,5	16,357
1077,9	13,386
1078,3	9,986
1078,7	2,843
1079,1	5,043
1079,5	5,243
1079,9	1,557
1080,3	0,1
1080,7	0,3
1081,2	4,243
1081,6	8,386
1082	6,529
1082,4	2,529
1082,8	4,957
1083,2	6,1
1083,6	3,671
1084	1,043
1084,5	4,386
1084,9	-3,757
1085,3	-1,214
1085,7	3,5
1086,1	4,3
1086,5	2,271
1086,9	2,614
1087,3	-3,929
1087,7	0,986
1088,2	2,243
1088,6	-4,043
1089	-5,7
1089,4	1,7
1089,8	3,729
1090,2	6,614
1090,6	9,071
1091	8,671
1091,4	14,614
1091,9	14,871
1092,3	12,3
1092,7	13,986
1093,1	12,3
1093,5	10,129
1093,9	8,871
1094,3	5,329
1094,7	5,271
1095,1	1,071
1095,5	-6,529
1096	-4,786
1096,4	-3,271
1096,8	-3,214
1097,2	-2,5
1097,6	-2,757
1098	1,386
1098,4	2,9
1098,8	4,357
1099,2	2,729
1099,6	3,957
1100,1	2,271
1100,5	4,871
1100,9	7,529
1101,3	7,5
1101,7	3,5
1102,1	6,786
1102,5	0,671
1102,9	-1,243
1103,3	-0,643
1103,7	-4,814
1104,2	-0,329
1104,6	6,557
1105	3,929
1105,4	8,9
1105,8	11,557
1106,2	7,443
1106,6	6,843
1107	4,614
1107,4	-0,7
1107,8	-0,62
1108,3	-0,45
