Data from Subt2_00029.txt Node
Date: Mon Aug 28 13:12:56 MSK 2023
User: vat
Spectrometer: MAYP114033
Trigger mode: 0
Integration Time (sec): 1,000000E0
Scans to average: 5
Electric dark correction enabled: true
Nonlinearity correction enabled: false
Boxcar width: 3
XAxis mode: Wavelengths
Number of Pixels in Spectrum: 2068
>>>>>Begin Spectral Data<<<<<
199,4	-0,1
199,9	4,28
200,4	3,733
200,8	5,629
201,3	5,371
201,8	6,686
202,2	5,914
202,7	7,829
203,2	5,343
203,6	8,571
204,1	10,143
204,6	13,857
205	11,086
205,5	17,429
206	16,286
206,4	20,257
206,9	19,343
207,4	16,571
207,8	17,343
208,3	23,743
208,8	23,286
209,2	24,629
209,7	23,343
210,2	15,143
210,6	18,229
211,1	12,343
211,5	12,457
212	13,057
212,5	16,943
212,9	18,714
213,4	23,6
213,9	25,086
214,3	26,8
214,8	30,457
215,3	26,886
215,7	23,343
216,2	20,829
216,7	27,143
217,1	28,371
217,6	29,4
218,1	18,429
218,5	17,543
219	21,286
219,5	23,086
219,9	19,714
220,4	15,486
220,9	16,029
221,3	19,286
221,8	21,286
222,3	21,057
222,7	21,314
223,2	23,943
223,6	22,371
224,1	26,4
224,6	28,114
225	28,571
225,5	26,286
226	22,371
226,4	23,6
226,9	24,8
227,4	24,457
227,8	24,257
228,3	22,686
228,8	25,857
229,2	30,686
229,7	26,171
230,2	24,914
230,6	23,314
231,1	23,314
231,5	24,143
232	26,229
232,5	20,571
232,9	21,657
233,4	21,143
233,9	20,8
234,3	18,743
234,8	21,571
235,3	12,4
235,7	14,086
236,2	11,714
236,7	11,571
237,1	17,657
237,6	22,371
238,1	16,457
238,5	20,171
239	20,2
239,4	23,714
239,9	25,914
240,4	21,029
240,8	20,429
241,3	28,8
241,8	26,257
242,2	29,714
242,7	34,029
243,2	31,943
243,6	32,829
244,1	26,286
244,6	24,457
245	24,6
245,5	26,343
245,9	16,686
246,4	18,086
246,9	16,143
247,3	19,057
247,8	10,743
248,3	12,286
248,7	11,914
249,2	18,114
249,7	17,886
250,1	13,886
250,6	17,686
251	20,314
251,5	25,029
252	18,229
252,4	17,6
252,9	14,914
253,4	19,857
253,8	17,886
254,3	18,257
254,8	15,857
255,2	18,886
255,7	19,171
256,1	28,114
256,6	30,057
257,1	27,571
257,5	31,714
258	28,6
258,5	28,257
258,9	26,314
259,4	21,543
259,9	16,457
260,3	18,857
260,8	16,714
261,2	17,971
261,7	22,086
262,2	21,743
262,6	20,057
263,1	24,771
263,6	22,286
264	21,114
264,5	17,857
264,9	14,286
265,4	17,429
265,9	17,314
266,3	14
266,8	15,343
267,3	18,229
267,7	22,829
268,2	23,029
268,7	21,829
269,1	20,686
269,6	24,857
270	27,657
270,5	26,343
271	26,4
271,4	28,657
271,9	30,829
272,4	31,543
272,8	32,4
273,3	32,171
273,7	29,314
274,2	27,371
274,7	21,886
275,1	18,086
275,6	21,2
276,1	14,8
276,5	13
277	14,971
277,4	16,686
277,9	21,943
278,4	19,6
278,8	17,6
279,3	19,4
279,8	19,886
280,2	17,771
280,7	14,114
281,1	13,057
281,6	15,6
282,1	12,829
282,5	11,543
283	8,886
283,4	9,8
283,9	12,886
284,4	12,743
284,8	12,257
285,3	14,686
285,8	14,629
286,2	15,171
286,7	17,314
287,1	17,829
287,6	13,286
288,1	16,714
288,5	16,371
289	17,114
289,5	17,286
289,9	20,829
290,4	22,4
290,8	26,086
291,3	25,714
291,8	30,2
292,2	31,2
292,7	30,743
293,1	29,943
293,6	22,486
294,1	27,457
294,5	27,029
295	25,886
295,5	25,057
295,9	28,229
296,4	24,314
296,8	29,086
297,3	22,371
297,8	18,743
298,2	17,571
298,7	19,571
299,1	18,286
299,6	17,114
300,1	16,6
300,5	18,2
301	17
301,5	16,029
301,9	12,771
302,4	11,371
302,8	11,486
303,3	10,857
303,8	11,914
304,2	12,371
304,7	11,8
305,1	10,371
305,6	13,657
306,1	14,257
306,5	15,829
307	12,6
307,4	14,714
307,9	15,943
308,4	20,543
308,8	21,429
309,3	26,771
309,8	27,6
310,2	30,629
310,7	32,171
311,1	30,857
311,6	31,457
312,1	29,286
312,5	22,743
313	21,571
313,4	27,029
313,9	24,343
314,4	30,686
314,8	28,857
315,3	30,4
315,7	32,771
316,2	34,857
316,7	23,886
317,1	26,857
317,6	20,971
318	21,429
318,5	20,6
319	19,657
319,4	18,171
319,9	18,029
320,3	21,143
320,8	25,143
321,3	23,486
321,7	24,743
322,2	26,714
322,6	24,571
323,1	29,457
323,6	25,2
324	20,029
324,5	24,343
324,9	23,943
325,4	24,029
325,9	27,314
326,3	27,343
326,8	24,629
327,2	28,143
327,7	22,886
328,2	21,771
328,6	21,686
329,1	20,543
329,5	18,8
330	19,029
330,5	13,343
330,9	11,971
331,4	9,486
331,8	13,4
332,3	11,314
332,8	13,086
333,2	16,629
333,7	17,086
334,1	23,543
334,6	26,829
335,1	22,429
335,5	25,371
336	25,886
336,4	27,229
336,9	29,543
337,4	26,457
337,8	23,286
338,3	22,457
338,7	22,514
339,2	24,114
339,7	21,543
340,1	20,429
340,6	17,829
341	19,429
341,5	22,229
342	24,171
342,4	25,143
342,9	25,6
343,3	27,657
343,8	28,629
344,2	31,486
344,7	34,4
345,2	30,771
345,6	26,457
346,1	26,543
346,5	26,8
347	25,229
347,5	23,286
347,9	16,371
348,4	17,343
348,8	20,743
349,3	25,286
349,8	27,743
350,2	30,686
350,7	34,543
351,1	39,857
351,6	44,314
352	48,829
352,5	50,886
353	54,343
353,4	65,086
353,9	70
354,3	81,771
354,8	89,886
355,3	98,629
355,7	111,657
356,2	129,629
356,6	152,2
357,1	178,971
357,5	205,943
358	240,771
358,5	283,771
358,9	329,029
359,4	378,543
359,8	431,771
360,3	492,343
360,8	556,429
361,2	632,029
361,7	712,114
362,1	793,8
362,6	889,886
363	989,743
363,5	1101,771
364	1221,2
364,4	1340,314
364,9	1460,4
365,3	1585,057
365,8	1703,429
366,3	1811,057
366,7	1905,6
367,2	1984,457
367,6	2051,257
368,1	2102,114
368,5	2140,314
369	2152,286
369,5	2149,571
369,9	2132
370,4	2105,714
370,8	2057,829
371,3	1997,543
371,7	1924,971
372,2	1852,971
372,7	1766,8
373,1	1675,057
373,6	1574,771
374	1476,543
374,5	1372,829
374,9	1280,229
375,4	1178,514
375,9	1090,686
376,3	1003,343
376,8	929,4
377,2	854,971
377,7	792,029
378,2	725,971
378,6	670,629
379,1	614,457
379,5	564,771
380	512,8
380,4	477,657
380,9	443,657
381,4	407,114
381,8	377,4
382,3	352,886
382,7	328,4
383,2	313,114
383,6	289,314
384,1	268,171
384,6	257,686
385	240,6
385,5	226,371
385,9	213,114
386,4	196,714
386,8	185,257
387,3	173,6
387,7	159,171
388,2	148,686
388,7	140,371
389,1	130,686
389,6	127,486
390	120,657
390,5	116,143
390,9	110,571
391,4	102,086
391,9	99,171
392,3	98,657
392,8	92,143
393,2	89,743
393,7	83,629
394,1	79,229
394,6	80,743
395,1	79,771
395,5	77,286
396	73,914
396,4	73,057
396,9	74,171
397,3	74
397,8	71,143
398,2	67,286
398,7	66,829
399,2	65,314
399,6	61,686
400,1	61,571
400,5	65,543
401	70,2
401,4	69,2
401,9	72,857
402,4	76
402,8	74
403,3	77,771
403,7	72,457
404,2	71,143
404,6	71,8
405,1	70,629
405,5	71,171
406	77,429
406,5	78,171
406,9	84,257
407,4	89,857
407,8	99,257
408,3	104,314
408,7	106,143
409,2	113,2
409,6	117,857
410,1	121,371
410,6	129,943
411	132,686
411,5	140,171
411,9	152,686
412,4	159,8
412,8	166,686
413,3	176,771
413,7	185,8
414,2	193,514
414,7	203,886
415,1	213,886
415,6	226,143
416	239,457
416,5	256,857
416,9	269,429
417,4	291,8
417,8	307,771
418,3	323,143
418,8	346,343
419,2	370,629
419,7	391,171
420,1	411,771
420,6	427,686
421	454,829
421,5	482,057
421,9	506,714
422,4	535,2
422,8	563
423,3	591,571
423,8	623,714
424,2	654,8
424,7	691,429
425,1	721,657
425,6	754,486
426	792,4
426,5	835,343
426,9	884,514
427,4	928,657
427,9	975
428,3	1029,886
428,8	1086,971
429,2	1143,143
429,7	1198,829
430,1	1257,743
430,6	1325,6
431	1392,914
431,5	1463,857
431,9	1534,657
432,4	1615,143
432,8	1704,343
433,3	1797,571
433,8	1891,314
434,2	1990,171
434,7	2089,029
435,1	2200,429
435,6	2306,6
436	2420,114
436,5	2532,543
436,9	2650,371
437,4	2774,314
437,8	2907,486
438,3	3040,6
438,8	3185,943
439,2	3339,8
439,7	3497,314
440,1	3656,857
440,6	3829,143
441	4002,371
441,5	4177
441,9	4362,8
442,4	4546,514
442,8	4746,057
443,3	4960,171
443,7	5170,114
444,2	5385,629
444,7	5616,657
445,1	5847,714
445,6	6096,229
446	6336,571
446,5	6584,457
446,9	6841,257
447,4	7108,171
447,8	7375,743
448,3	7652,657
448,7	7920,286
449,2	8202,857
449,6	8492,2
450,1	8786,171
450,6	9088,714
451	9395,714
451,5	9704,343
451,9	10035,629
452,4	10368,6
452,8	10707,257
453,3	11049,314
453,7	11395,371
454,2	11746,286
454,6	12100,514
455,1	12457,114
455,5	12809,743
456	13169,086
456,4	13535,314
456,9	13912,829
457,3	14294,514
457,8	14685,086
458,3	15078,543
458,7	15484,8
459,2	15890,457
459,6	16288,943
460,1	16694,629
460,5	17096,314
461	17494,943
461,4	17893,943
461,9	18302,886
462,3	18701,486
462,8	19114,143
463,2	19520,771
463,7	19921,543
464,1	20325,971
464,6	20719,4
465	21112,229
465,5	21509,114
466	21907,143
466,4	22284,257
466,9	22685,714
467,3	23079,886
467,8	23483,743
468,2	23875,2
468,7	24266,486
469,1	24644,629
469,6	25034,771
470	25427,4
470,5	25798,743
470,9	26144,514
471,4	26497,114
471,8	26835,4
472,3	27186,8
472,7	27522,371
473,2	27853,514
473,6	28183,314
474,1	28514,086
474,5	28843,486
475	29174,314
475,4	29476,057
475,9	29789,743
476,4	30060,2
476,8	30335,714
477,3	30612,086
477,7	30872,914
478,2	31110,457
478,6	31348,314
479,1	31566,429
479,5	31806,171
480	32012,714
480,4	32217,057
480,9	32397,171
481,3	32575,543
481,8	32760,629
482,2	32934,286
482,7	33073,114
483,1	33236,086
483,6	33368,143
484	33495,6
484,5	33622,429
484,9	33715,457
485,4	33810,4
485,8	33884,143
486,3	33958,457
486,7	34029,829
487,2	34091,743
487,6	34133,6
488,1	34172,286
488,5	34185,914
489	34212,771
489,4	34218,571
489,9	34207
490,4	34186,657
490,8	34171,343
491,3	34138,229
491,7	34102,543
492,2	34053,771
492,6	33981,571
493,1	33898,771
493,5	33821,857
494	33732,114
494,4	33646,086
494,9	33539,6
495,3	33436,171
495,8	33331,657
496,2	33235,457
496,7	33108,057
497,1	32986
497,6	32847,486
498	32714,457
498,5	32573,771
498,9	32425,886
499,4	32273,086
499,8	32127,429
500,3	31969,371
500,7	31818,4
501,2	31648,343
501,6	31470,486
502,1	31287,543
502,5	31112,371
503	30934,714
503,4	30749,143
503,9	30542,6
504,3	30359,514
504,8	30160,914
505,2	29977,229
505,7	29762,657
506,1	29536,457
506,6	29305,714
507	29089,629
507,5	28870,486
507,9	28650,343
508,4	28412,057
508,8	28194,771
509,3	27991,971
509,7	27762,343
510,2	27527,057
510,6	27278,257
511,1	27049,229
511,5	26810,114
512	26570,514
512,4	26300,229
512,9	26056,714
513,3	25818,857
513,8	25577,457
514,2	25315,943
514,7	25076,286
515,1	24829,571
515,6	24591,171
516	24353,714
516,5	24108,114
516,9	23858,229
517,4	23621,886
517,8	23381,229
518,3	23130,857
518,7	22885,2
519,2	22641,171
519,6	22386,743
520,1	22153,629
520,5	21900,086
521	21655
521,4	21418,914
521,9	21186,143
522,3	20944,6
522,8	20724,171
523,2	20488
523,7	20270,971
524,1	20031,286
524,6	19807,771
525	19592,371
525,5	19382,314
525,9	19166,886
526,4	18950,343
526,8	18733,971
527,3	18530,4
527,7	18312,829
528,2	18093,314
528,6	17878,8
529,1	17662,257
529,5	17462
530	17255,343
530,4	17059,686
530,9	16861,429
531,3	16671,6
531,8	16469,286
532,2	16282,771
532,6	16084,714
533,1	15885,943
533,5	15695,486
534	15511,914
534,4	15333,143
534,9	15158,886
535,3	14985,143
535,8	14812,857
536,2	14659,857
536,7	14489,686
537,1	14313,429
537,6	14142,514
538	13981,143
538,5	13814,543
538,9	13654,2
539,4	13491,686
539,8	13336,4
540,3	13190,857
540,7	13042,829
541,2	12909,486
541,6	12764,914
542,1	12625,114
542,5	12483,029
543	12341,771
543,4	12202,629
543,9	12063,771
544,3	11905,714
544,8	11773,571
545,2	11638,314
545,7	11508,771
546,1	11366,429
546,5	11237,371
547	11111,114
547,4	10989,686
547,9	10870
548,3	10745,143
548,8	10630,314
549,2	10520,771
549,7	10408,229
550,1	10299,229
550,6	10192,971
551	10079,543
551,5	9965,143
551,9	9855,857
552,4	9755,229
552,8	9660
553,3	9548
553,7	9454,629
554,2	9353,829
554,6	9271,971
555,1	9176,2
555,5	9089,171
555,9	8986,8
556,4	8899,2
556,8	8802,943
557,3	8712,8
557,7	8626,857
558,2	8538,486
558,6	8455,314
559,1	8376,143
559,5	8298,343
560	8210,457
560,4	8129,771
560,9	8052,143
561,3	7977,771
561,8	7893,886
562,2	7807,543
562,7	7726,629
563,1	7659,743
563,6	7581,514
564	7503,886
564,4	7424,857
564,9	7351,229
565,3	7286,343
565,8	7215,343
566,2	7141,943
566,7	7077,829
567,1	7004,914
567,6	6940,571
568	6874,457
568,5	6807,914
568,9	6745,114
569,4	6682,714
569,8	6621,886
570,3	6564,886
570,7	6505,086
571,1	6449,2
571,6	6390,771
572	6334,086
572,5	6277,114
572,9	6220,8
573,4	6164,486
573,8	6109,857
574,3	6049,6
574,7	5999,057
575,2	5945,914
575,6	5900
576,1	5845,571
576,5	5791,514
576,9	5731,4
577,4	5676,429
577,8	5620,543
578,3	5571,086
578,7	5511,971
579,2	5461,886
579,6	5412,514
580,1	5374,771
580,5	5333,714
581	5287,8
581,4	5235,343
581,9	5188,029
582,3	5142,8
582,7	5097,457
583,2	5053,143
583,6	5008,457
584,1	4966,171
584,5	4925,514
585	4891,171
585,4	4842,971
585,9	4799,171
586,3	4755,429
586,8	4716,286
587,2	4679,286
587,6	4638,8
588,1	4605,114
588,5	4572,514
589	4533,457
589,4	4488,886
589,9	4448,743
590,3	4407,886
590,8	4375,429
591,2	4331,629
591,7	4296,914
592,1	4269,171
592,5	4242,829
593	4213,143
593,4	4183,429
593,9	4148
594,3	4123
594,8	4093,886
595,2	4061,571
595,7	4033,114
596,1	4003,086
596,6	3973,229
597	3951,6
597,4	3914,971
597,9	3888,829
598,3	3859,029
598,8	3827,343
599,2	3800,314
599,7	3780,743
600,1	3757,6
600,6	3736,571
601	3709,943
601,4	3685,229
601,9	3665,629
602,3	3637,914
602,8	3606,257
603,2	3574,914
603,7	3546,257
604,1	3519,2
604,6	3495,6
605	3467,371
605,4	3444,257
605,9	3417,886
606,3	3396,543
606,8	3366,114
607,2	3340,457
607,7	3314,629
608,1	3288,457
608,6	3264,114
609	3242,2
609,4	3212,629
609,9	3196,343
610,3	3177,229
610,8	3159,086
611,2	3142,714
611,7	3117,114
612,1	3092,657
612,6	3066,914
613	3039,629
613,4	3013,571
613,9	2991,114
614,3	2967,629
614,8	2950,2
615,2	2929,886
615,7	2914,971
616,1	2896,8
616,6	2877
617	2853,086
617,4	2825,286
617,9	2804,543
618,3	2787,657
618,8	2766,2
619,2	2749,657
619,7	2728,457
620,1	2712,686
620,5	2693,429
621	2673,514
621,4	2652,6
621,9	2632,257
622,3	2611,457
622,8	2594,086
623,2	2570,543
623,6	2555,857
624,1	2538
624,5	2521,771
625	2499,857
625,4	2488,171
625,9	2474,886
626,3	2463,6
626,8	2449,886
627,2	2426,314
627,6	2402,286
628,1	2391
628,5	2367,514
629	2348,543
629,4	2326,971
629,9	2302,514
630,3	2288,2
630,7	2276,571
631,2	2259,286
631,6	2238,371
632,1	2217,571
632,5	2201,743
633	2191,514
633,4	2179,543
633,8	2158,629
634,3	2142,114
634,7	2131,343
635,2	2122,286
635,6	2105,886
636,1	2082,514
636,5	2066,229
636,9	2051,343
637,4	2035,314
637,8	2020,114
638,3	2008,286
638,7	1987,943
639,2	1976,829
639,6	1960,114
640	1949,514
640,5	1932,314
640,9	1922,886
641,4	1908,171
641,8	1897,314
642,2	1887,2
642,7	1880,743
643,1	1868,714
643,6	1862,571
644	1848,857
644,5	1839,771
644,9	1833,286
645,3	1820,829
645,8	1806,6
646,2	1791,6
646,7	1776,114
647,1	1757,114
647,6	1737,771
648	1723,8
648,4	1712,257
648,9	1696,2
649,3	1684,657
649,8	1674,4
650,2	1666,943
650,6	1659,086
651,1	1649,686
651,5	1641,943
652	1637,486
652,4	1626,486
652,9	1613,714
653,3	1602,8
653,7	1591
654,2	1580,086
654,6	1566,371
655,1	1551,943
655,5	1540,343
655,9	1531,343
656,4	1522
656,8	1509,8
657,3	1502,829
657,7	1487,029
658,2	1478,743
658,6	1471,4
659	1464,571
659,5	1454,543
659,9	1444,657
660,4	1432,257
660,8	1425,857
661,2	1412,8
661,7	1402,543
662,1	1387,886
662,6	1379,486
663	1363,286
663,4	1354,771
663,9	1348,629
664,3	1336,886
664,8	1329,2
665,2	1321,457
665,6	1305,343
666,1	1296,257
666,5	1281,486
667	1269,371
667,4	1267,257
667,9	1255,629
668,3	1245,2
668,7	1239
669,2	1232,914
669,6	1226,714
670,1	1221,286
670,5	1210,229
670,9	1202,314
671,4	1194,086
671,8	1185,8
672,3	1182,086
672,7	1172,171
673,1	1162,914
673,6	1151,857
674	1142,257
674,5	1137,029
674,9	1131,629
675,3	1118,714
675,8	1115,714
676,2	1104
676,7	1097,971
677,1	1092,229
677,5	1083,314
678	1073,257
678,4	1069,457
678,9	1057
679,3	1054,429
679,7	1049,171
680,2	1041,771
680,6	1034,114
681,1	1030,686
681,5	1023,857
681,9	1018,457
682,4	1011,086
682,8	1000,971
683,3	996,514
683,7	988,086
684,1	972,686
684,6	962,314
685	952,029
685,5	937,171
685,9	929,629
686,3	922,743
686,8	917,114
687,2	918,457
687,7	915,857
688,1	912,057
688,5	909,429
689	908,229
689,4	901,143
689,9	896,6
690,3	890,057
690,7	886,086
691,2	881,343
691,6	877,286
692	865,886
692,5	853,771
692,9	844,971
693,4	832,657
693,8	824,171
694,2	817,571
694,7	808,943
695,1	808,457
695,6	808,486
696	802,086
696,4	799,257
696,9	792,971
697,3	790,8
697,8	787,714
698,2	776,229
698,6	772,714
699,1	769,057
699,5	763,971
699,9	759,029
700,4	751,4
700,8	744,543
701,3	741,457
701,7	731,457
702,1	726,057
702,6	720,8
703	717,743
703,5	708,886
703,9	706,543
704,3	702,629
704,8	696,857
705,2	693,6
705,6	691,714
706,1	681,114
706,5	683,629
707	678,486
707,4	678,343
707,8	673,857
708,3	668,371
708,7	659,914
709,2	656,943
709,6	649,857
710	643,086
710,5	630,257
710,9	630,2
711,3	627,8
711,8	625,657
712,2	624,114
712,7	614,486
713,1	611,8
713,5	614,657
714	607,171
714,4	599,029
714,8	595,229
715,3	590,857
715,7	587,743
716,2	585,171
716,6	574,514
717	571,143
717,5	566,457
717,9	562,771
718,3	558,229
718,8	555,886
719,2	553,657
719,7	553,029
720,1	546,686
720,5	548,714
721	542,6
721,4	536,429
721,8	535,657
722,3	527,029
722,7	521,4
723,2	517,714
723,6	516,057
724	513,514
724,5	511,971
724,9	500,829
725,3	495
725,8	491,029
726,2	491,343
726,7	475,486
727,1	468,743
727,5	461
728	456,714
728,4	458,914
728,8	456,657
729,3	450,057
729,7	449,171
730,1	447,657
730,6	447,057
731	449,429
731,5	446,4
731,9	441,714
732,3	447,057
732,8	449,829
733,2	451,714
733,6	450,714
734,1	448,657
734,5	445,314
734,9	443,686
735,4	433,229
735,8	427,571
736,3	418
736,7	414,743
737,1	408,514
737,6	406,114
738	409,314
738,4	409,571
738,9	411,086
739,3	418,571
739,7	418,457
740,2	418,429
740,6	415,114
741,1	405,771
741,5	400,086
741,9	398,743
742,4	394,371
742,8	389,029
743,2	387,343
743,7	381,8
744,1	385,486
744,5	384,314
745	379,029
745,4	373,314
745,8	376,686
746,3	373,971
746,7	374,4
747,2	366,429
747,6	369,686
748	369,943
748,5	368,714
748,9	360,686
749,3	360,686
749,8	359,914
750,2	357,029
750,6	349,143
751,1	344,743
751,5	342,886
751,9	340,829
752,4	340,486
752,8	338,943
753,3	338,143
753,7	336,543
754,1	334,057
754,6	326,914
755	326,514
755,4	326,257
755,9	322,057
756,3	323,114
756,7	322,143
757,2	319,229
757,6	319,943
758	316,2
758,5	310,057
758,9	310,229
759,3	307,886
759,8	302,2
760,2	304,057
760,6	306,286
761,1	307,971
761,5	305,029
761,9	299,771
762,4	295,114
762,8	296,657
763,3	292,343
763,7	287,171
764,1	281,371
764,6	279,371
765	279
765,4	280,371
765,9	277,829
766,3	278,543
766,7	280,057
767,2	277,171
767,6	277,2
768	276,971
768,5	270,6
768,9	265,543
769,3	261,2
769,8	255,229
770,2	256,743
770,6	253,486
771,1	248,429
771,5	251,257
771,9	253,743
772,4	253,286
772,8	252,057
773,2	250,4
773,7	247,971
774,1	254,229
774,5	254,229
775	250,629
775,4	247,086
775,8	244,686
776,3	244,286
776,7	243,743
777,1	237,886
777,6	232,486
778	231,229
778,4	231
778,9	229,914
779,3	228,257
779,7	228,629
780,2	226,257
780,6	226,229
781	223,886
781,5	221,943
781,9	224,371
782,3	218,829
782,8	216,457
783,2	211,886
783,6	212,114
784,1	211,629
784,5	207,457
784,9	203,343
785,4	205,543
785,8	202,657
786,2	201,114
786,7	199,486
787,1	207,514
787,5	209,171
788	207,4
788,4	207,2
788,8	202,514
789,3	203,971
789,7	201,943
790,1	198,257
790,6	196,229
791	193,657
791,4	191,6
791,9	191,571
792,3	191,629
792,7	188,371
793,2	184,257
793,6	185,743
794	187,829
794,5	185,914
794,9	190,914
795,3	191,114
795,8	191,257
796,2	184,429
796,6	183,771
797,1	181,943
797,5	179,714
797,9	178,8
798,4	173,743
798,8	174,943
799,2	179,514
799,7	174,6
800,1	171,743
800,5	175,057
801	173,486
801,4	176,514
801,8	173,886
802,2	170,2
802,7	170,457
803,1	172,429
803,5	169,543
804	167,486
804,4	164,971
804,8	164,486
805,3	159,8
805,7	157,857
806,1	153,686
806,6	151,229
807	149,686
807,4	149,571
807,9	144,829
808,3	142,771
808,7	145,229
809,2	144,629
809,6	146,143
810	144,343
810,4	144,314
810,9	148,143
811,3	152,514
811,7	144,257
812,2	141,257
812,6	137,486
813	139,086
813,5	138
813,9	137,686
814,3	136,286
814,8	138
815,2	141,429
815,6	144,2
816,1	143,6
816,5	140,743
816,9	142,6
817,3	143,943
817,8	144,829
818,2	139,571
818,6	136,771
819,1	133,114
819,5	132,086
819,9	125,057
820,4	127,8
820,8	123,343
821,2	125,514
821,7	118,971
822,1	118,686
822,5	122,629
822,9	119,457
823,4	114,514
823,8	117,629
824,2	115,971
824,7	118,771
825,1	118,971
825,5	111,629
826	111,514
826,4	110,171
826,8	107,314
827,3	106,514
827,7	108,086
828,1	105,943
828,5	112,829
829	116
829,4	109,914
829,8	115,171
830,3	118,171
830,7	113,343
831,1	111,657
831,6	101,514
832	98,486
832,4	100,686
832,8	93,686
833,3	90
833,7	87,914
834,1	90,8
834,6	93,257
835	97,229
835,4	93,6
835,8	95,657
836,3	93,629
836,7	97,143
837,1	88,6
837,6	82,971
838	76,143
838,4	79,657
838,9	79,829
839,3	80,8
839,7	78,543
840,1	87,543
840,6	94,314
841	90,257
841,4	87,971
841,9	88,229
842,3	87,857
842,7	83,429
843,1	77,2
843,6	74,686
844	80,657
844,4	82,543
844,9	79,371
845,3	78
845,7	79,143
846,2	80,857
846,6	80,829
847	83,314
847,4	84,257
847,9	82,886
848,3	79,629
848,7	84,343
849,2	82,2
849,6	79,6
850	75,686
850,4	73,457
850,9	75,6
851,3	81,171
851,7	77,343
852,2	72,971
852,6	73,8
853	75,429
853,4	76,543
853,9	74,8
854,3	73,2
854,7	76,286
855,2	79,4
855,6	79,829
856	84,029
856,4	80,457
856,9	79,629
857,3	75,514
857,7	73,714
858,2	74,886
858,6	70,971
859	63,629
859,4	64,571
859,9	65,343
860,3	65,171
860,7	64,229
861,1	66,457
861,6	69,143
862	68,943
862,4	64,657
862,9	64,886
863,3	65,714
863,7	65,829
864,1	60,114
864,6	60,371
865	59,771
865,4	60,743
865,9	60,371
866,3	63,114
866,7	59,257
867,1	60,314
867,6	60,686
868	57,2
868,4	61,429
868,8	59,629
869,3	57,8
869,7	60,943
870,1	58,371
870,6	55,4
871	63,971
871,4	61,657
871,8	62,086
872,3	59,8
872,7	57,114
873,1	55
873,5	55,171
874	51,4
874,4	52,514
874,8	49,971
875,3	47,4
875,7	48,257
876,1	55,314
876,5	53,571
877	48,686
877,4	47,057
877,8	47,571
878,2	51,543
878,7	51,457
879,1	47,257
879,5	45,857
879,9	47,143
880,4	45
880,8	52,771
881,2	52,4
881,7	52,8
882,1	53,571
882,5	54,971
882,9	52,2
883,4	54,229
883,8	46,571
884,2	45,657
884,6	43,743
885,1	41,514
885,5	40,8
885,9	46,914
886,3	43,2
886,8	47,257
887,2	43,229
887,6	40,057
888	41,057
888,5	42,886
888,9	37
889,3	35,629
889,8	33,086
890,2	33,457
890,6	38,514
891	37,029
891,5	38,029
891,9	38,886
892,3	46,314
892,7	42,257
893,2	46,943
893,6	43,743
894	46,943
894,4	46,057
894,9	47,829
895,3	43,086
895,7	44,343
896,1	36,486
896,6	36,714
897	37,371
897,4	36,543
897,8	35,486
898,3	37,686
898,7	37,971
899,1	43,2
899,5	44,8
900	43,457
900,4	40,057
900,8	35,229
901,2	32,857
901,7	33,257
902,1	29,8
902,5	30,429
902,9	25,171
903,4	26,714
903,8	30,771
904,2	32,314
904,6	29,886
905,1	34,343
905,5	31,971
905,9	36,771
906,3	34,229
906,8	33,371
907,2	31,514
907,6	33,657
908	29,743
908,5	27,543
908,9	24,714
909,3	29,057
909,7	27,657
910,2	30,343
910,6	27,829
911	28,771
911,4	28,171
911,9	29,6
912,3	28,6
912,7	30,943
913,1	25,343
913,6	26,314
914	31,429
914,4	34,2
914,8	34,714
915,3	33,343
915,7	35,457
916,1	35,086
916,5	31,886
916,9	23,686
917,4	22,829
917,8	20,8
918,2	23
918,6	16,714
919,1	19,229
919,5	25,743
919,9	30,114
920,3	32,686
920,8	36,171
921,2	33,057
921,6	36,257
922	32,486
922,5	33,143
922,9	34,943
923,3	35,686
923,7	29,171
924,2	31
924,6	30,771
925	36,057
925,4	31
925,8	27,286
926,3	21,686
926,7	24,829
927,1	24,514
927,5	28,829
928	26,771
928,4	23,457
928,8	28,829
929,2	31,514
929,7	34,743
930,1	35,771
930,5	28,371
930,9	31,229
931,3	39,029
931,8	35,6
932,2	36,6
932,6	34,486
933	28,257
933,5	32,886
933,9	34,771
934,3	29,486
934,7	30,229
935,2	25,4
935,6	26,4
936	26,086
936,4	25,943
936,8	21,857
937,3	24,2
937,7	21,514
938,1	27,971
938,5	25,371
939	28,943
939,4	25,2
939,8	22,457
940,2	20,371
940,6	21,257
941,1	17,657
941,5	20,457
941,9	19,029
942,3	20,229
942,8	23,686
943,2	18,314
943,6	19,771
944	20,4
944,4	17,057
944,9	14,029
945,3	13,6
945,7	14,743
946,1	19,771
946,6	13,686
947	15,114
947,4	10,229
947,8	17,143
948,2	19,114
948,7	18,114
949,1	20,657
949,5	23,029
949,9	18,086
950,3	19,171
950,8	17,943
951,2	17,714
951,6	18
952	14,143
952,5	15,2
952,9	16,571
953,3	17,771
953,7	15,8
954,1	15,514
954,6	12,771
955	17,514
955,4	16,343
955,8	17,286
956,2	20,771
956,7	22,171
957,1	22,029
957,5	24,143
957,9	19,771
958,3	20,371
958,8	17,6
959,2	18,971
959,6	23,086
960	20,457
960,5	13,486
960,9	17,371
961,3	17,486
961,7	25,257
962,1	24,6
962,6	21,314
963	27
963,4	35,029
963,8	31,429
964,2	28,657
964,7	24,514
965,1	29,257
965,5	31,543
965,9	27,629
966,3	25,771
966,8	25,857
967,2	28,571
967,6	26,971
968	18,914
968,4	18,257
968,9	16,114
969,3	17,314
969,7	15,257
970,1	12,686
970,5	15,4
971	17,286
971,4	13,771
971,8	16,943
972,2	11,714
972,6	13,771
973,1	17
973,5	15,371
973,9	11,029
974,3	11,429
974,7	11,943
975,2	13,714
975,6	13
976	13,4
976,4	12,571
976,8	15,229
977,3	13,714
977,7	10,571
978,1	10,686
978,5	14,457
978,9	15,057
979,4	14,143
979,8	12,743
980,2	15,114
980,6	17,629
981	14,8
981,5	11,257
981,9	12,971
982,3	12,029
982,7	12,829
983,1	14,029
983,6	8,971
984	12,8
984,4	15,114
984,8	12,086
985,2	15,629
985,6	17,886
986,1	10,457
986,5	18,714
986,9	16,543
987,3	13,314
987,7	11,829
988,2	8,057
988,6	8,371
989	16,143
989,4	9,829
989,8	12,657
990,3	13,8
990,7	17,571
991,1	18,429
991,5	16,8
991,9	13,143
992,3	11,743
992,8	8,486
993,2	12,829
993,6	8,514
994	11
994,4	16,486
994,9	15,343
995,3	19,2
995,7	18,486
996,1	13,257
996,5	13
996,9	18,743
997,4	10,457
997,8	14,686
998,2	17,571
998,6	21,086
999	23,771
999,5	26,714
999,9	20,943
1000,3	22,029
1000,7	25,486
1001,1	22,714
1001,5	22,257
1002	22,943
1002,4	19,143
1002,8	18,457
1003,2	21,629
1003,6	16,286
1004	16,686
1004,5	16,6
1004,9	15,057
1005,3	18,457
1005,7	20,571
1006,1	16,771
1006,6	14,914
1007	10,057
1007,4	7,571
1007,8	11,086
1008,2	13,314
1008,6	9,714
1009,1	12,686
1009,5	20,343
1009,9	23,8
1010,3	31
1010,7	28,686
1011,1	26,457
1011,6	25,829
1012	26,429
1012,4	24,143
1012,8	25,657
1013,2	19,629
1013,6	17,771
1014,1	15,571
1014,5	17
1014,9	13,629
1015,3	12,914
1015,7	11,286
1016,1	15,314
1016,6	19,6
1017	17,771
1017,4	13,114
1017,8	18,571
1018,2	14,229
1018,6	15,314
1019,1	15,571
1019,5	12,8
1019,9	18,486
1020,3	21,971
1020,7	19,629
1021,1	18,229
1021,6	18,743
1022	12,086
1022,4	11,086
1022,8	9,686
1023,2	12,514
1023,6	11,743
1024,1	15,829
1024,5	15,086
1024,9	19,714
1025,3	20,971
1025,7	20,029
1026,1	14,486
1026,6	20
1027	16
1027,4	13,971
1027,8	10,971
1028,2	11,429
1028,6	13,086
1029	16,114
1029,5	10,914
1029,9	14,943
1030,3	14,143
1030,7	19,771
1031,1	22,771
1031,5	23,486
1032	25,771
1032,4	29,6
1032,8	25,343
1033,2	24,6
1033,6	21,829
1034	10,686
1034,4	10,143
1034,9	13,743
1035,3	10,629
1035,7	14,286
1036,1	20,914
1036,5	16,171
1036,9	20,714
1037,4	25,171
1037,8	15,257
1038,2	17,257
1038,6	13,057
1039	10,886
1039,4	18,286
1039,8	30,943
1040,3	25,543
1040,7	31,571
1041,1	28,714
1041,5	34,543
1041,9	35,429
1042,3	31,257
1042,7	20,086
1043,2	17,286
1043,6	19,571
1044	21,229
1044,4	25,029
1044,8	26,543
1045,2	31,657
1045,6	36,743
1046,1	44,086
1046,5	40,6
1046,9	40,2
1047,3	31,543
1047,7	25,371
1048,1	18,657
1048,5	16,514
1049	10,857
1049,4	6,771
1049,8	5,886
1050,2	8,457
1050,6	10,686
1051	13,4
1051,4	9,2
1051,9	13,086
1052,3	16,743
1052,7	18,171
1053,1	17,2
1053,5	18,057
1053,9	20,714
1054,3	20,229
1054,8	16,686
1055,2	19,829
1055,6	21,8
1056	24,457
1056,4	21,143
1056,8	19,4
1057,2	21,543
1057,6	23,343
1058,1	25,714
1058,5	19,086
1058,9	14,429
1059,3	17,257
1059,7	14,743
1060,1	15,771
1060,5	16,229
1061	10,457
1061,4	13
1061,8	16,857
1062,2	17,086
1062,6	19,657
1063	16,943
1063,4	16,029
1063,8	15,6
1064,3	20,143
1064,7	20,114
1065,1	17,086
1065,5	18,057
1065,9	22,2
1066,3	19,914
1066,7	28,114
1067,1	24,486
1067,6	25,686
1068	29,543
1068,4	28,171
1068,8	28,029
1069,2	29,857
1069,6	22,6
1070	24,457
1070,4	23
1070,9	24,171
1071,3	23,743
1071,7	21,371
1072,1	17,171
1072,5	19,657
1072,9	17,571
1073,3	14,429
1073,7	13,714
1074,2	16,086
1074,6	16,8
1075	23,143
1075,4	26,943
1075,8	22,914
1076,2	26,086
1076,6	27,8
1077	29,943
1077,5	32,829
1077,9	26,971
1078,3	20,057
1078,7	23,743
1079,1	25
1079,5	22,257
1079,9	22,2
1080,3	19,886
1080,7	20,057
1081,2	23,514
1081,6	21,771
1082	25,286
1082,4	23,314
1082,8	20,629
1083,2	15,857
1083,6	18,057
1084	15,686
1084,5	19,657
1084,9	11,4
1085,3	11,6
1085,7	9,943
1086,1	15,371
1086,5	13,229
1086,9	15,686
1087,3	14,314
1087,7	21,2
1088,2	23,829
1088,6	21,4
1089	21,143
1089,4	25,543
1089,8	21,171
1090,2	17,771
1090,6	17,971
1091	14,914
1091,4	16,857
1091,9	14,514
1092,3	15,086
1092,7	17,171
1093,1	20,229
1093,5	14,2
1093,9	14,657
1094,3	14,629
1094,7	14,114
1095,1	14,257
1095,5	13,057
1096	15,714
1096,4	18,343
1096,8	20,943
1097,2	19,971
1097,6	22,629
1098	18,057
1098,4	25,857
1098,8	24,914
1099,2	22,171
1099,6	24,4
1100,1	26,457
1100,5	24,429
1100,9	24,086
1101,3	19,343
1101,7	14,086
1102,1	15,429
1102,5	10,971
1102,9	10,743
1103,3	14,171
1103,7	16,543
1104,2	14,771
1104,6	17,229
1105	17,029
1105,4	16,314
1105,8	13,571
1106,2	8,714
1106,6	6,543
1107	4,057
1107,4	2,9
1107,8	1,36
1108,3	0,8
