Data from Subt2_00089.txt Node
Date: Mon Aug 28 13:33:46 MSK 2023
User: vat
Spectrometer: MAYP114033
Trigger mode: 0
Integration Time (sec): 1,000000E0
Scans to average: 5
Electric dark correction enabled: true
Nonlinearity correction enabled: false
Boxcar width: 3
XAxis mode: Wavelengths
Number of Pixels in Spectrum: 2068
>>>>>Begin Spectral Data<<<<<
199,4	-0,333
199,9	-5,053
200,4	-3,067
200,8	0,381
201,3	1,438
201,8	5,895
202,2	7,152
202,7	9,181
203,2	15,095
203,6	15,81
204,1	14,238
204,6	15,21
205	12,838
205,5	11,838
206	12,381
206,4	10,152
206,9	10,924
207,4	9,295
207,8	9,152
208,3	9,524
208,8	12,038
209,2	10,067
209,7	9,324
210,2	11,838
210,6	11,581
211,1	13,581
211,5	12,981
212	9,124
212,5	7,895
212,9	7,067
213,4	4,438
213,9	7,152
214,3	7,867
214,8	10,724
215,3	14,952
215,7	19,895
216,2	19,81
216,7	21,295
217,1	18,838
217,6	15,667
218,1	12,381
218,5	10,81
219	7,895
219,5	16,381
219,9	11,067
220,4	16,381
220,9	16,267
221,3	17,752
221,8	18,781
222,3	21,81
222,7	20,838
223,2	22,324
223,6	16,695
224,1	19,581
224,6	21,952
225	17,867
225,5	14,438
226	10,924
226,4	13,181
226,9	14,124
227,4	20,295
227,8	14,724
228,3	15,895
228,8	17,952
229,2	19,524
229,7	18,924
230,2	23,181
230,6	18,181
231,1	18,695
231,5	20,81
232	20,638
232,5	15,981
232,9	17,524
233,4	14,41
233,9	10,21
234,3	15,124
234,8	13,924
235,3	12,61
235,7	13,524
236,2	11,752
236,7	9,667
237,1	14,552
237,6	7,895
238,1	8,895
238,5	9,867
239	10,638
239,4	14,038
239,9	16,781
240,4	13,01
240,8	19,752
241,3	22,61
241,8	20,952
242,2	21,438
242,7	17,524
243,2	23,438
243,6	23,21
244,1	21,067
244,6	13,152
245	15,638
245,5	12,238
245,9	15,638
246,4	3,981
246,9	7,01
247,3	4,895
247,8	6,695
248,3	7,61
248,7	10,895
249,2	7,095
249,7	16,352
250,1	8,124
250,6	9,181
251	12,124
251,5	9,952
252	10,295
252,4	12,01
252,9	11,152
253,4	19,81
253,8	19,438
254,3	21,924
254,8	21,867
255,2	22,267
255,7	17,952
256,1	11,952
256,6	10,41
257,1	10,924
257,5	5,724
258	-0,19
258,5	-0,305
258,9	1,495
259,4	7,067
259,9	5,838
260,3	3,467
260,8	2,495
261,2	7,981
261,7	6,495
262,2	12,924
262,6	13,01
263,1	11,267
263,6	9,352
264	12,667
264,5	15,095
264,9	12,524
265,4	8,981
265,9	7,295
266,3	5,495
266,8	9,267
267,3	9,324
267,7	5,495
268,2	7,067
268,7	8,095
269,1	5,324
269,6	7,695
270	4,21
270,5	8,81
271	5,267
271,4	4,867
271,9	-1,276
272,4	2,267
272,8	3,41
273,3	5,01
273,7	0,238
274,2	5,667
274,7	9,781
275,1	12,695
275,6	10,867
276,1	7,095
276,5	8,867
277	10,238
277,4	9,895
277,9	4,638
278,4	6,095
278,8	5,21
279,3	10,467
279,8	10,295
280,2	10,895
280,7	8,438
281,1	9,867
281,6	6,038
282,1	7,467
282,5	6,981
283	7,695
283,4	5,41
283,9	6,667
284,4	10,095
284,8	12,838
285,3	10,324
285,8	5,638
286,2	2,981
286,7	4,781
287,1	4,438
287,6	3,867
288,1	5,981
288,5	8,324
289	8,952
289,5	14,01
289,9	10,695
290,4	13,238
290,8	13,638
291,3	15,781
291,8	14,038
292,2	15,095
292,7	11,667
293,1	12,752
293,6	10,067
294,1	9,181
294,5	6,01
295	6,267
295,5	8,495
295,9	11,01
296,4	11,438
296,8	10,038
297,3	10,067
297,8	15,724
298,2	12,267
298,7	13,352
299,1	8,752
299,6	6,838
300,1	11,495
300,5	5,21
301	1,638
301,5	4,21
301,9	-0,79
302,4	2,638
302,8	5,41
303,3	6,41
303,8	14,724
304,2	10,81
304,7	11,61
305,1	14,21
305,6	10,152
306,1	9,01
306,5	1,067
307	-4,362
307,4	-5,105
307,9	-6,676
308,4	-4,333
308,8	1,695
309,3	6,638
309,8	12,752
310,2	15,095
310,7	16,41
311,1	18,181
311,6	12,838
312,1	9,038
312,5	2,81
313	4,581
313,4	9,295
313,9	8,267
314,4	5,695
314,8	10,038
315,3	14,295
315,7	15,295
316,2	10,01
316,7	3,552
317,1	7,895
317,6	12,41
318	13,752
318,5	7,81
319	7,867
319,4	12,81
319,9	9,21
320,3	7,838
320,8	3,352
321,3	-4,076
321,7	-1,448
322,2	-4,419
322,6	-5,276
323,1	-4,705
323,6	-7,076
324	-3,276
324,5	0,552
324,9	4,181
325,4	7,324
325,9	8,21
326,3	14,552
326,8	14,267
327,2	11,81
327,7	15,524
328,2	13,467
328,6	15,952
329,1	8,124
329,5	5,124
330	10,981
330,5	18,724
330,9	14,581
331,4	14,124
331,8	7,067
332,3	15,724
332,8	16,981
333,2	13,238
333,7	4,895
334,1	1,667
334,6	1,095
335,1	9,21
335,5	6,01
336	11,438
336,4	11,924
336,9	16,724
337,4	20,381
337,8	19,581
338,3	21,924
338,7	22,21
339,2	13,867
339,7	12,238
340,1	8,21
340,6	10,638
341	6,695
341,5	1,01
342	-0,99
342,4	-2,99
342,9	-1,276
343,3	2,038
343,8	1,895
344,2	8,21
344,7	8,381
345,2	8,038
345,6	15,41
346,1	13,924
346,5	14,381
347	7,81
347,5	5,61
347,9	5,238
348,4	7,981
348,8	7,981
349,3	5,867
349,8	3,81
350,2	12,095
350,7	11,495
351,1	14,667
351,6	16,638
352	16,924
352,5	26,752
353	32,495
353,4	34,695
353,9	47,324
354,3	58,752
354,8	63,924
355,3	75,467
355,7	88,267
356,2	102,524
356,6	118,438
357,1	135,638
357,5	156,724
358	191,838
358,5	222,238
358,9	251,781
359,4	295,352
359,8	345,352
360,3	392,981
360,8	450,324
361,2	512,695
361,7	585,21
362,1	668,238
362,6	751,267
363	842,267
363,5	944,981
364	1047,095
364,4	1148,952
364,9	1254,552
365,3	1355,438
365,8	1459,695
366,3	1551,638
366,7	1627,152
367,2	1696,038
367,6	1755,581
368,1	1796,838
368,5	1830,952
369	1841,038
369,5	1843,01
369,9	1828,867
370,4	1800,152
370,8	1758,295
371,3	1712,324
371,7	1643,21
372,2	1569,552
372,7	1486,467
373,1	1414,752
373,6	1336,21
374	1247,981
374,5	1157,895
374,9	1080,838
375,4	1005,981
375,9	937,981
376,3	858,495
376,8	788,61
377,2	733,61
377,7	675,438
378,2	620,552
378,6	567,867
379,1	513,752
379,5	474,324
380	432,495
380,4	391,352
380,9	361,181
381,4	331,581
381,8	305,552
382,3	286,095
382,7	265,81
383,2	249,552
383,6	237,038
384,1	224,095
384,6	210,695
385	199,552
385,5	186,152
385,9	174,524
386,4	169,295
386,8	152,581
387,3	142,695
387,7	135,21
388,2	123,267
388,7	117,01
389,1	109,41
389,6	97,838
390	95,895
390,5	87,752
390,9	81,61
391,4	77,61
391,9	72,095
392,3	70,095
392,8	64,467
393,2	60,924
393,7	60,781
394,1	55,581
394,6	56,41
395,1	60,581
395,5	57,952
396	57,152
396,4	52,438
396,9	50,038
397,3	48,781
397,8	44,724
398,2	35,467
398,7	30,467
399,2	29,295
399,6	33,267
400,1	29,095
400,5	29,21
401	35,124
401,4	35,124
401,9	37,981
402,4	37,152
402,8	39,038
403,3	41,381
403,7	41,067
404,2	37,181
404,6	40,752
405,1	47,524
405,5	48,581
406	48,267
406,5	49,152
406,9	54,895
407,4	52,267
407,8	50,867
408,3	43,81
408,7	40,867
409,2	37,41
409,6	43,181
410,1	42,352
410,6	43,238
411	46,352
411,5	45,267
411,9	46,638
412,4	53,667
412,8	46,552
413,3	47,638
413,7	52,267
414,2	55,238
414,7	60,267
415,1	67,867
415,6	65,295
416	74,495
416,5	80,438
416,9	85,21
417,4	86,552
417,8	91,552
418,3	94,238
418,8	96,724
419,2	94,467
419,7	94,267
420,1	90,438
420,6	94,124
421	97,324
421,5	100,295
421,9	101,838
422,4	106,638
422,8	105,352
423,3	110,267
423,8	109,467
424,2	105,41
424,7	106,638
425,1	107,924
425,6	106,695
426	110,41
426,5	110,41
426,9	112,895
427,4	118,095
427,9	113,61
428,3	117,667
428,8	117,267
429,2	119,838
429,7	122,41
430,1	118,524
430,6	113,267
431	116,895
431,5	115,895
431,9	118,81
432,4	114,638
432,8	119,438
433,3	127,038
433,8	136,581
434,2	140,524
434,7	142,867
435,1	148,181
435,6	153,21
436	151,381
436,5	155,438
436,9	160,41
437,4	168,552
437,8	175,467
438,3	187,667
438,8	198,667
439,2	211,352
439,7	219,438
440,1	227,067
440,6	230,981
441	234,638
441,5	238,867
441,9	245,124
442,4	250,752
442,8	261,267
443,3	272,038
443,7	281,324
444,2	298,038
444,7	308,581
445,1	324,038
445,6	339,324
446	353,067
446,5	365,552
446,9	389,467
447,4	408,552
447,8	428,552
448,3	445,152
448,7	461,695
449,2	479,552
449,6	502,267
450,1	515,781
450,6	536,267
451	552,867
451,5	575,581
451,9	598,952
452,4	620,638
452,8	641,695
453,3	666,295
453,7	687,724
454,2	710,981
454,6	729,838
455,1	754,295
455,5	779,438
456	803,838
456,4	830,695
456,9	857,467
457,3	888,524
457,8	917,524
458,3	943,467
458,7	977,695
459,2	1009,895
459,6	1043,41
460,1	1079,41
460,5	1106,581
461	1139,838
461,4	1178,981
461,9	1212,038
462,3	1245,152
462,8	1281,838
463,2	1313,438
463,7	1352,895
464,1	1388,695
464,6	1421,381
465	1450,095
465,5	1490,581
466	1527,152
466,4	1567,724
466,9	1608,381
467,3	1648,152
467,8	1689,238
468,2	1736,695
468,7	1778,695
469,1	1810,981
469,6	1844,181
470	1882,038
470,5	1922,781
470,9	1962,867
471,4	2006,581
471,8	2041,124
472,3	2081,952
472,7	2127,01
473,2	2163,981
473,6	2205,038
474,1	2244,81
474,5	2275,095
475	2317,781
475,4	2358,324
475,9	2394,01
476,4	2440,067
476,8	2480,095
477,3	2521,152
477,7	2568,067
478,2	2602,781
478,6	2643,895
479,1	2691,152
479,5	2730,695
480	2767,81
480,4	2801,124
480,9	2828,467
481,3	2860,724
481,8	2896,352
482,2	2930,495
482,7	2962,981
483,1	2995,695
483,6	3030,01
484	3061,467
484,5	3099,524
484,9	3134,924
485,4	3158,495
485,8	3186,895
486,3	3214,495
486,7	3246,781
487,2	3281,495
487,6	3305,352
488,1	3330,952
488,5	3355,381
489	3384,238
489,4	3410,638
489,9	3432,324
490,4	3455,01
490,8	3479,21
491,3	3494,752
491,7	3519,152
492,2	3534,01
492,6	3550,724
493,1	3570,752
493,5	3583,667
494	3601,695
494,4	3618,095
494,9	3636,552
495,3	3651,381
495,8	3667,21
496,2	3685,21
496,7	3701,952
497,1	3713,724
497,6	3735,01
498	3748,381
498,5	3765,981
498,9	3777,61
499,4	3786,038
499,8	3800,324
500,3	3815,238
500,7	3823,695
501,2	3833,781
501,6	3845,581
502,1	3857,495
502,5	3867,867
503	3882,238
503,4	3896,524
503,9	3905,581
504,3	3916,238
504,8	3922,21
505,2	3933,924
505,7	3944,01
506,1	3947,152
506,6	3946,752
507	3956,267
507,5	3961,124
507,9	3971,124
508,4	3973,924
508,8	3980,381
509,3	3989,467
509,7	3999,924
510,2	4000,781
510,6	4006,238
511,1	4002,867
511,5	4013,21
512	4010,581
512,4	4011,295
512,9	4022,352
513,3	4030,667
513,8	4040,781
514,2	4052,867
514,7	4058,038
515,1	4067,21
515,6	4074,695
516	4072,267
516,5	4077,552
516,9	4085,695
517,4	4093,01
517,8	4101,324
518,3	4110,952
518,7	4118,095
519,2	4126,81
519,6	4127,781
520,1	4128,352
520,5	4129,867
521	4124,867
521,4	4131,152
521,9	4134,581
522,3	4139,067
522,8	4148,467
523,2	4154,495
523,7	4160,238
524,1	4169,895
524,6	4168,838
525	4180,752
525,5	4189,952
525,9	4203,667
526,4	4212,467
526,8	4219,495
527,3	4225,867
527,7	4238,267
528,2	4243,067
528,6	4252,324
529,1	4257,238
529,5	4263,524
530	4277,152
530,4	4289,467
530,9	4301,867
531,3	4312,181
531,8	4314,352
532,2	4312,724
532,6	4323,895
533,1	4325,495
533,5	4330,752
534	4335,095
534,4	4333,952
534,9	4342,752
535,3	4361,924
535,8	4374,495
536,2	4384,152
536,7	4396,324
537,1	4404,095
537,6	4419,295
538	4427,21
538,5	4437,381
538,9	4436,952
539,4	4453,267
539,8	4463,295
540,3	4475,867
540,7	4477,267
541,2	4489,438
541,6	4487,124
542,1	4490,895
542,5	4494,21
543	4500,695
543,4	4506,381
543,9	4519,667
544,3	4526,638
544,8	4547,867
545,2	4563,181
545,7	4574,524
546,1	4585,181
546,5	4595,667
547	4611,095
547,4	4620,21
547,9	4625,781
548,3	4634,981
548,8	4641,495
549,2	4651,552
549,7	4656,524
550,1	4662,181
550,6	4670,81
551	4676,352
551,5	4681,267
551,9	4690,295
552,4	4694,924
552,8	4703,838
553,3	4711,81
553,7	4714,667
554,2	4720,81
554,6	4733,667
555,1	4734,695
555,5	4744,838
555,9	4749,381
556,4	4759,981
556,8	4779,695
557,3	4794,41
557,7	4802,81
558,2	4815,095
558,6	4816,638
559,1	4826,381
559,5	4832,181
560	4830,524
560,4	4831,781
560,9	4837,238
561,3	4849,438
561,8	4862,01
562,2	4869,438
562,7	4870,695
563,1	4877,01
563,6	4882,038
564	4883,667
564,4	4882,038
564,9	4888,01
565,3	4892,924
565,8	4904,61
566,2	4913,181
566,7	4926,981
567,1	4929,667
567,6	4938,467
568	4939,438
568,5	4944,581
568,9	4944,638
569,4	4943,181
569,8	4938,524
570,3	4943,381
570,7	4939,41
571,1	4941,895
571,6	4938,381
572	4937,895
572,5	4936,695
572,9	4935,952
573,4	4933,438
573,8	4937,552
574,3	4928,552
574,7	4932,81
575,2	4932,267
575,6	4932,438
576,1	4928,867
576,5	4930,524
576,9	4926,181
577,4	4933,267
577,8	4924,952
578,3	4916,067
578,7	4914,438
579,2	4906,352
579,6	4902,781
580,1	4898,724
580,5	4891,838
581	4891,924
581,4	4891,724
581,9	4883,895
582,3	4882,838
582,7	4872,924
583,2	4870,41
583,6	4858,638
584,1	4847,324
584,5	4836,667
585	4831,838
585,4	4826,695
585,9	4820,41
586,3	4805,524
586,8	4800,124
587,2	4794,752
587,6	4790,752
588,1	4782,895
588,5	4776,81
589	4770,752
589,4	4766,695
589,9	4754,552
590,3	4743,095
590,8	4735,524
591,2	4722,21
591,7	4708,324
592,1	4703,924
592,5	4697,81
593	4696,667
593,4	4691,724
593,9	4689,295
594,3	4697,21
594,8	4692,181
595,2	4684,552
595,7	4676,724
596,1	4670,038
596,6	4657,438
597	4639,324
597,4	4626,381
597,9	4616,638
598,3	4603,61
598,8	4591,152
599,2	4587,324
599,7	4587,952
600,1	4582,21
600,6	4565,524
601	4558,552
601,4	4546,667
601,9	4539,181
602,3	4523,295
602,8	4516,81
603,2	4506,181
603,7	4497,867
604,1	4484,581
604,6	4471,152
605	4467,095
605,4	4449,752
605,9	4429,552
606,3	4420,01
606,8	4409,752
607,2	4400,981
607,7	4388,152
608,1	4369,952
608,6	4364,981
609	4352,867
609,4	4334,81
609,9	4320,495
610,3	4298,638
610,8	4296,924
611,2	4280,467
611,7	4261,724
612,1	4244,181
612,6	4227,095
613	4209,095
613,4	4197,152
613,9	4172,01
614,3	4160,095
614,8	4144,838
615,2	4132,21
615,7	4126,152
616,1	4118,467
616,6	4108,81
617	4096,552
617,4	4082,124
617,9	4073,867
618,3	4061,324
618,8	4040,438
619,2	4023,924
619,7	4007,895
620,1	3993,895
620,5	3967,324
621	3948,152
621,4	3934,524
621,9	3918,495
622,3	3897,61
622,8	3875,038
623,2	3860,867
623,6	3846,01
624,1	3823,895
624,5	3804,695
625	3790,01
625,4	3771,01
625,9	3759,752
626,3	3738,581
626,8	3728,924
627,2	3717,81
627,6	3698,067
628,1	3675,638
628,5	3659,552
629	3638,524
629,4	3620,21
629,9	3598,781
630,3	3573,838
630,7	3553,952
631,2	3538,524
631,6	3521,181
632,1	3502,81
632,5	3480,038
633	3456,324
633,4	3444,581
633,8	3427,81
634,3	3411,181
634,7	3393,352
635,2	3376,895
635,6	3365,238
636,1	3354,41
636,5	3332,924
636,9	3314,352
637,4	3294,895
637,8	3278,324
638,3	3256,981
638,7	3241,01
639,2	3221,467
639,6	3205,695
640	3191,067
640,5	3174,61
640,9	3159,495
641,4	3142,781
641,8	3126,467
642,2	3111,667
642,7	3096,438
643,1	3079,295
643,6	3072,924
644	3054,181
644,5	3047,067
644,9	3030,552
645,3	3023,21
645,8	3002,952
646,2	2988,381
646,7	2961,552
647,1	2944,067
647,6	2925,638
648	2907,695
648,4	2883,467
648,9	2874,981
649,3	2862,524
649,8	2852,352
650,2	2841,81
650,6	2829,381
651,1	2820,324
651,5	2809,095
652	2799,695
652,4	2781,238
652,9	2770,467
653,3	2757,695
653,7	2742,981
654,2	2720,181
654,6	2698,952
655,1	2674,267
655,5	2659,067
655,9	2640,895
656,4	2619,352
656,8	2598,067
657,3	2584,952
657,7	2576,667
658,2	2565,61
658,6	2550,41
659	2537,581
659,5	2528,838
659,9	2517,381
660,4	2502,124
660,8	2486,124
661,2	2470,895
661,7	2459,61
662,1	2446,952
662,6	2425,495
663	2409,324
663,4	2396,695
663,9	2375,352
664,3	2357,41
664,8	2336,267
665,2	2314,581
665,6	2301,095
666,1	2290,352
666,5	2272,781
667	2262,724
667,4	2245,895
667,9	2239,41
668,3	2229,267
668,7	2219,495
669,2	2201,695
669,6	2188,695
670,1	2177,752
670,5	2166,952
670,9	2148,81
671,4	2131,61
671,8	2117,952
672,3	2108,81
672,7	2101,152
673,1	2083,952
673,6	2070,381
674	2060,524
674,5	2041,952
674,9	2024,952
675,3	2003,067
675,8	1982,41
676,2	1970,181
676,7	1959,41
677,1	1940,495
677,5	1932,381
678	1922,981
678,4	1916,495
678,9	1907,667
679,3	1900,495
679,7	1887,038
680,2	1878,152
680,6	1869,695
681,1	1858,61
681,5	1847,552
681,9	1833,895
682,4	1815,438
682,8	1806,981
683,3	1793,552
683,7	1780,581
684,1	1766,467
684,6	1753,124
685	1742,41
685,5	1737,61
685,9	1719,895
686,3	1709,838
686,8	1697,781
687,2	1685,752
687,7	1671,067
688,1	1664,781
688,5	1649,467
689	1641,467
689,4	1630,467
689,9	1620,61
690,3	1617,695
690,7	1609,552
691,2	1590,581
691,6	1578,867
692	1566,495
692,5	1555,267
692,9	1540,21
693,4	1521,381
693,8	1513,81
694,2	1505,495
694,7	1496,581
695,1	1490,638
695,6	1484,152
696	1480,952
696,4	1475,552
696,9	1462,781
697,3	1453,581
697,8	1443,21
698,2	1430,638
698,6	1415,81
699,1	1401,495
699,5	1381,581
699,9	1373,152
700,4	1371,181
700,8	1363,867
701,3	1356,21
701,7	1349,524
702,1	1346,038
702,6	1343,867
703	1336,41
703,5	1317,552
703,9	1307,295
704,3	1295,152
704,8	1286,381
705,2	1273,581
705,6	1261,181
706,1	1249,438
706,5	1249,81
707	1241,01
707,4	1233,467
707,8	1218,81
708,3	1212,924
708,7	1204,381
709,2	1198,581
709,6	1184,867
710	1179,438
710,5	1173,61
710,9	1171,524
711,3	1157,21
711,8	1153,181
712,2	1142,267
712,7	1132,295
713,1	1125,467
713,5	1120,41
714	1113,838
714,4	1111,495
714,8	1098,552
715,3	1090,381
715,7	1084,324
716,2	1068,838
716,6	1058,695
717	1045,61
717,5	1035,495
717,9	1033,552
718,3	1031,181
718,8	1022,752
719,2	1018,152
719,7	1009,267
720,1	1008,324
720,5	1003,324
721	992,61
721,4	980,124
721,8	976,981
722,3	971,61
722,7	965,781
723,2	954,81
723,6	943,038
724	934,238
724,5	926,381
724,9	918,724
725,3	907,267
725,8	903,952
726,2	895,695
726,7	893,752
727,1	894,124
727,5	893,752
728	878,981
728,4	875,581
728,8	863,667
729,3	856,638
729,7	851,981
730,1	840,924
730,6	831,124
731	832,152
731,5	823,067
731,9	819,21
732,3	817,152
732,8	809,81
733,2	805,895
733,6	806,638
734,1	801,638
734,5	801,838
734,9	793,752
735,4	792,695
735,8	785,667
736,3	782,181
736,7	771,61
737,1	772,781
737,6	765,695
738	763,495
738,4	752,867
738,9	750,295
739,3	748,752
739,7	740,867
740,2	728,61
740,6	724,038
741,1	718,095
741,5	717,381
741,9	714,352
742,4	707,41
742,8	704,581
743,2	705,981
743,7	697,01
744,1	694,467
744,5	688,381
745	678,21
745,4	671,81
745,8	668,495
746,3	661,41
746,7	660,924
747,2	653,438
747,6	645,038
748	642,895
748,5	640,952
748,9	638,324
749,3	628,295
749,8	625,038
750,2	624,638
750,6	627,781
751,1	623,067
751,5	614,324
751,9	607,324
752,4	606,552
752,8	603,61
753,3	599,667
753,7	587,61
754,1	584,752
754,6	582,324
755	577,41
755,4	578,124
755,9	575,924
756,3	575,781
756,7	578,552
757,2	574,124
757,6	570,695
758	566,067
758,5	561,267
758,9	553,438
759,3	541,81
759,8	536,095
760,2	533,381
760,6	531,952
761,1	531,238
761,5	527,867
761,9	524,838
762,4	522,924
762,8	517,124
763,3	514,895
763,7	504,552
764,1	503,952
764,6	493,638
765	487,752
765,4	485,181
765,9	488,152
766,3	483,095
766,7	481,124
767,2	477,524
767,6	478,838
768	476,295
768,5	473,61
768,9	465,895
769,3	458,752
769,8	456,552
770,2	450,667
770,6	448,638
771,1	446,638
771,5	442,952
771,9	443,524
772,4	448,724
772,8	445,838
773,2	442,152
773,7	433,552
774,1	429,381
774,5	421,867
775	415,381
775,4	406,724
775,8	402,895
776,3	403,295
776,7	401,41
777,1	398,295
777,6	399,381
778	396,467
778,4	397,581
778,9	395,181
779,3	390,181
779,7	389,124
780,2	391,41
780,6	386,181
781	377,581
781,5	367,695
781,9	368,038
782,3	367,41
782,8	369,81
783,2	361,038
783,6	363,095
784,1	366,895
784,5	370,352
784,9	366,467
785,4	361,095
785,8	353,238
786,2	352,81
786,7	347,552
787,1	345,352
787,5	339,152
788	335,61
788,4	332,324
788,8	327,152
789,3	325,152
789,7	327,152
790,1	326,21
790,6	324,438
791	321,781
791,4	324,581
791,9	324,438
792,3	321,152
792,7	313,381
793,2	309,867
793,6	304,895
794	304,638
794,5	300,61
794,9	302,267
795,3	301,238
795,8	301,095
796,2	299,095
796,6	301,152
797,1	295,152
797,5	296,038
797,9	287,467
798,4	282,895
798,8	279,095
799,2	277,438
799,7	275,267
800,1	277,038
800,5	271,924
801	271,838
801,4	276,181
801,8	273,21
802,2	271,895
802,7	274,552
803,1	273,352
803,5	268,495
804	266,752
804,4	262,724
804,8	263,781
805,3	259,581
805,7	252,552
806,1	249,152
806,6	249,381
807	247,467
807,4	242,41
807,9	238,295
808,3	234,638
808,7	233,438
809,2	231,638
809,6	234,638
810	230,61
810,4	228,667
810,9	227,238
811,3	227,552
811,7	225,838
812,2	226,581
812,6	216,21
813	214,895
813,5	212,81
813,9	211,981
814,3	210,038
814,8	206,724
815,2	203,067
815,6	204,638
816,1	205,867
816,5	208,267
816,9	204,238
817,3	205,295
817,8	202,095
818,2	198,752
818,6	198,324
819,1	198,095
819,5	194,438
819,9	192,41
820,4	187,181
820,8	188,467
821,2	190,152
821,7	186,038
822,1	180,695
822,5	177,438
822,9	178,095
823,4	180,867
823,8	180,067
824,2	179,752
824,7	181,981
825,1	183,467
825,5	180,467
826	180,467
826,4	172,981
826,8	170,152
827,3	164,867
827,7	162,124
828,1	160,01
828,5	158,895
829	158,41
829,4	156,352
829,8	152,238
830,3	153,352
830,7	149,924
831,1	149,01
831,6	151,067
832	151,095
832,4	150,838
832,8	148,095
833,3	147,438
833,7	146,952
834,1	149,038
834,6	145,067
835	144,952
835,4	146,295
835,8	147,295
836,3	144,067
836,7	146,21
837,1	143,238
837,6	143,781
838	137,467
838,4	137,61
838,9	138,438
839,3	142,295
839,7	138,124
840,1	131,467
840,6	132,324
841	133,41
841,4	130,324
841,9	128,181
842,3	124,352
842,7	123,724
843,1	128,781
843,6	126,181
844	122,895
844,4	122,095
844,9	119,638
845,3	116,495
845,7	112,552
846,2	110,352
846,6	111,667
847	110,381
847,4	101,781
847,9	103,038
848,3	104,524
848,7	104,21
849,2	102,981
849,6	97,695
850	100,638
850,4	108,81
850,9	108,924
851,3	109,295
851,7	110,352
852,2	110,01
852,6	109,038
853	107,095
853,4	104,981
853,9	103,467
854,3	101,667
854,7	99,667
855,2	98,895
855,6	102,752
856	101,667
856,4	99,695
856,9	101,81
857,3	95,495
857,7	97,152
858,2	91,552
858,6	87,267
859	83,524
859,4	88,095
859,9	85,81
860,3	85,638
860,7	83,581
861,1	89,867
861,6	96,952
862	97,581
862,4	89,552
862,9	88,781
863,3	91,838
863,7	92,952
864,1	88,781
864,6	83,352
865	85,152
865,4	90,067
865,9	91,495
866,3	91,238
866,7	93,295
867,1	91,21
867,6	93,21
868	95,752
868,4	92,067
868,8	88,181
869,3	86,324
869,7	80,438
870,1	86,181
870,6	80,838
871	90,667
871,4	90,81
871,8	91,495
872,3	89,152
872,7	90,495
873,1	81,21
873,5	85,038
874	66,238
874,4	64,038
874,8	66,095
875,3	71,124
875,7	69,638
876,1	72,581
876,5	65,952
877	69,61
877,4	69,81
877,8	66,381
878,2	57,838
878,7	60,524
879,1	59,124
879,5	58,352
879,9	55,724
880,4	60,467
880,8	63,981
881,2	65,41
881,7	60,895
882,1	64,124
882,5	66,438
882,9	66,267
883,4	62,41
883,8	59,41
884,2	57,295
884,6	57,524
885,1	54,238
885,5	52,752
885,9	56,324
886,3	56,21
886,8	52,21
887,2	48,867
887,6	45,238
888	47,295
888,5	52,124
888,9	52,41
889,3	50,21
889,8	51,095
890,2	53,867
890,6	54,181
891	49,495
891,5	48,581
891,9	42,038
892,3	42,152
892,7	45,067
893,2	48,21
893,6	49,552
894	52,095
894,4	49,524
894,9	49,01
895,3	46,524
895,7	43,638
896,1	41,61
896,6	43,695
897	40,61
897,4	38,381
897,8	40,267
898,3	44,181
898,7	40,895
899,1	44,038
899,5	43,352
900	44,638
900,4	48,295
900,8	48,724
901,2	48,41
901,7	49,924
902,1	52,638
902,5	51,324
902,9	50,895
903,4	43,695
903,8	43,781
904,2	43,01
904,6	42,724
905,1	38,724
905,5	38,895
905,9	37,381
906,3	33,924
906,8	33,038
907,2	30,81
907,6	33,695
908	30,724
908,5	28,724
908,9	29,01
909,3	35,61
909,7	36,238
910,2	38,524
910,6	33,724
911	31,238
911,4	30,781
911,9	32,152
912,3	26,41
912,7	19,667
913,1	17,781
913,6	14,695
914	20,81
914,4	19,095
914,8	17,067
915,3	20,524
915,7	30,181
916,1	27,295
916,5	31,01
916,9	24,095
917,4	27,238
917,8	28,038
918,2	32,524
918,6	30,781
919,1	32,81
919,5	33,781
919,9	40,152
920,3	38,495
920,8	39,21
921,2	33,41
921,6	33,095
922	32,524
922,5	35,524
922,9	32,295
923,3	33,295
923,7	35,724
924,2	39,095
924,6	36,924
925	40,581
925,4	41,381
925,8	45,781
926,3	47,438
926,7	42,924
927,1	42,438
927,5	46,181
928	40,352
928,4	38,61
928,8	30,438
929,2	27,581
929,7	29,152
930,1	29,781
930,5	27,867
930,9	26,581
931,3	23,867
931,8	26,295
932,2	26,124
932,6	24,981
933	22,295
933,5	21,552
933,9	25,352
934,3	26,581
934,7	23,238
935,2	24,81
935,6	26,752
936	26,81
936,4	23,352
936,8	18,495
937,3	16,352
937,7	19,267
938,1	14,838
938,5	10,752
939	11,924
939,4	11,552
939,8	14,124
940,2	12,181
940,6	12,238
941,1	14,181
941,5	16,267
941,9	19,581
942,3	18,895
942,8	24,867
943,2	31,638
943,6	32,638
944	34,524
944,4	36,038
944,9	30,61
945,3	31,781
945,7	28,467
946,1	23,781
946,6	23,152
947	23,438
947,4	21,495
947,8	24,524
948,2	25,038
948,7	19,752
949,1	20,581
949,5	21,524
949,9	16,952
950,3	17,124
950,8	18,01
951,2	16,495
951,6	19,067
952	16,124
952,5	9,81
952,9	11,667
953,3	12,981
953,7	8,895
954,1	11,238
954,6	9,838
955	8,467
955,4	18,124
955,8	18,895
956,2	18,038
956,7	16,267
957,1	11,381
957,5	12,781
957,9	19,981
958,3	13,181
958,8	11,067
959,2	12,381
959,6	12,038
960	17,438
960,5	15,181
960,9	16,638
961,3	18,581
961,7	20,324
962,1	18,467
962,6	20,838
963	19,41
963,4	26,724
963,8	22,324
964,2	23,638
964,7	26,238
965,1	20,124
965,5	18,724
965,9	17,838
966,3	10,638
966,8	8,867
967,2	8,01
967,6	8,21
968	12,867
968,4	12,638
968,9	13,438
969,3	15,524
969,7	16,067
970,1	15,238
970,5	12,238
971	9,724
971,4	10,467
971,8	9,781
972,2	11,21
972,6	15,467
973,1	14,038
973,5	12,467
973,9	14,552
974,3	16,01
974,7	14,895
975,2	15,81
975,6	10,667
976	13,095
976,4	13,124
976,8	15,067
977,3	14,01
977,7	12,495
978,1	9,495
978,5	7,295
978,9	1,81
979,4	2,381
979,8	1,181
980,2	0,867
980,6	5,752
981	7,124
981,5	8,038
981,9	13,438
982,3	13,838
982,7	13,581
983,1	11,352
983,6	9,238
984	8,038
984,4	8,295
984,8	4,067
985,2	4,152
985,6	5,438
986,1	7,638
986,5	5,781
986,9	3,324
987,3	5,152
987,7	6,952
988,2	8,352
988,6	8,152
989	8,238
989,4	11,667
989,8	16,067
990,3	13,238
990,7	17,01
991,1	17,381
991,5	18,981
991,9	13,867
992,3	9,61
992,8	7,867
993,2	6,895
993,6	-1,819
994	-6,276
994,4	-8,619
994,9	-2,848
995,3	5,181
995,7	3,895
996,1	5,01
996,5	9,267
996,9	11,038
997,4	10,181
997,8	12,724
998,2	6,352
998,6	12,295
999	16,152
999,5	18,495
999,9	20,895
1000,3	21,152
1000,7	18,952
1001,1	19,724
1001,5	15,381
1002	13,067
1002,4	14,981
1002,8	12,724
1003,2	15,381
1003,6	15,638
1004	15,238
1004,5	11,724
1004,9	11,895
1005,3	7,238
1005,7	8,495
1006,1	8,781
1006,6	5,324
1007	2,01
1007,4	4,438
1007,8	10,21
1008,2	16,867
1008,6	19,124
1009,1	16,267
1009,5	17,324
1009,9	22,152
1010,3	24,924
1010,7	20,381
1011,1	17,152
1011,6	12,838
1012	11,438
1012,4	14,238
1012,8	14,695
1013,2	14,152
1013,6	14,067
1014,1	13,238
1014,5	13,81
1014,9	15,924
1015,3	12,324
1015,7	10,181
1016,1	4,695
1016,6	3,61
1017	6,324
1017,4	5,438
1017,8	1,638
1018,2	1,981
1018,6	-0,648
1019,1	4,267
1019,5	1,352
1019,9	0,181
1020,3	1,924
1020,7	4,895
1021,1	6,438
1021,6	8,438
1022	9,667
1022,4	13,552
1022,8	9,181
1023,2	11,038
1023,6	10,295
1024,1	8,295
1024,5	6,067
1024,9	5,381
1025,3	2,467
1025,7	6,752
1026,1	7,924
1026,6	14,524
1027	16,267
1027,4	25,638
1027,8	20,781
1028,2	19,495
1028,6	15,838
1029	11,867
1029,5	9,552
1029,9	12,267
1030,3	9,867
1030,7	17,667
1031,1	21,667
1031,5	23,495
1032	25,324
1032,4	25,524
1032,8	22,152
1033,2	20,61
1033,6	14,067
1034	16,552
1034,4	20,81
1034,9	22,467
1035,3	22,21
1035,7	22,838
1036,1	25,038
1036,5	32,324
1036,9	31,267
1037,4	30,81
1037,8	32,981
1038,2	28,038
1038,6	30,124
1039	27,41
1039,4	21,467
1039,8	17,981
1040,3	18,61
1040,7	14,724
1041,1	18,324
1041,5	23,724
1041,9	21,524
1042,3	22,324
1042,7	22,552
1043,2	21,152
1043,6	26,552
1044	26,61
1044,4	15,581
1044,8	14,181
1045,2	19,667
1045,6	21,924
1046,1	21,181
1046,5	11,21
1046,9	8,552
1047,3	13,924
1047,7	17,352
1048,1	13,238
1048,5	12,952
1049	15,952
1049,4	20,924
1049,8	21,638
1050,2	21,295
1050,6	20,238
1051	17,01
1051,4	15,867
1051,9	11,495
1052,3	13,438
1052,7	16,781
1053,1	13,295
1053,5	12,41
1053,9	17,095
1054,3	16,21
1054,8	14,324
1055,2	6,181
1055,6	9,61
1056	11,295
1056,4	17,124
1056,8	16,724
1057,2	20,81
1057,6	20,895
1058,1	28,181
1058,5	21,952
1058,9	21,381
1059,3	18,838
1059,7	15,095
1060,1	10,038
1060,5	11,095
1061	9,81
1061,4	14,238
1061,8	15,61
1062,2	15,552
1062,6	18,867
1063	21,381
1063,4	22,667
1063,8	21,752
1064,3	16,352
1064,7	16,81
1065,1	16,924
1065,5	17,81
1065,9	20,495
1066,3	24,924
1066,7	21,61
1067,1	23,867
1067,6	28,695
1068	25,295
1068,4	23,01
1068,8	14,81
1069,2	9,924
1069,6	12,067
1070	15,781
1070,4	12,467
1070,9	12,124
1071,3	13,924
1071,7	20,838
1072,1	20,867
1072,5	21,61
1072,9	17,238
1073,3	15,467
1073,7	21,438
1074,2	18,667
1074,6	14,124
1075	14,667
1075,4	16,267
1075,8	16,295
1076,2	17,381
1076,6	12,181
1077	12,238
1077,5	14,181
1077,9	12,295
1078,3	9,124
1078,7	4,181
1079,1	5,981
1079,5	5,381
1079,9	8,324
1080,3	6,81
1080,7	8,067
1081,2	12,752
1081,6	13,095
1082	11,267
1082,4	13,267
1082,8	15,152
1083,2	19,61
1083,6	19,267
1084	18,095
1084,5	20,438
1084,9	16,238
1085,3	16,038
1085,7	11,867
1086,1	7,581
1086,5	2,724
1086,9	0,295
1087,3	2,381
1087,7	5,638
1088,2	4,581
1088,6	3,724
1089	5,781
1089,4	9,781
1089,8	10,41
1090,2	8,324
1090,6	6,724
1091	8,924
1091,4	9,581
1091,9	9,267
1092,3	9,181
1092,7	10,41
1093,1	10,895
1093,5	13,524
1093,9	9,267
1094,3	8,295
1094,7	7,01
1095,1	4,667
1095,5	0,295
1096	2,724
1096,4	1,524
1096,8	5,267
1097,2	5,124
1097,6	5,752
1098	9,667
1098,4	12,21
1098,8	11,41
1099,2	8,61
1099,6	8,438
1100,1	10,524
1100,5	13,124
1100,9	16,324
1101,3	16,152
1101,7	13,952
1102,1	18,667
1102,5	10,495
1102,9	7,581
1103,3	7,638
1103,7	2,838
1104,2	6,038
1104,6	9,695
1105	9,124
1105,4	15,124
1105,8	15,352
1106,2	11,895
1106,6	11,095
1107	7,695
1107,4	4,7
1107,8	1,587
1108,3	-0,383
