Data from Subt2_00075.txt Node
Date: Mon Aug 28 13:29:01 MSK 2023
User: vat
Spectrometer: MAYP114033
Trigger mode: 0
Integration Time (sec): 1,000000E0
Scans to average: 5
Electric dark correction enabled: true
Nonlinearity correction enabled: false
Boxcar width: 3
XAxis mode: Wavelengths
Number of Pixels in Spectrum: 2068
>>>>>Begin Spectral Data<<<<<
199,4	-1,533
199,9	-5,633
200,4	-2,4
200,8	0,395
201,3	3,31
201,8	4,51
202,2	5,71
202,7	5,967
203,2	11,138
203,6	10,767
204,1	8,995
204,6	7,11
205	7,681
205,5	5,31
206	2,481
206,4	1,795
206,9	1,567
207,4	-0,805
207,8	-1,462
208,3	0,652
208,8	0,995
209,2	7,024
209,7	7,595
210,2	7,224
210,6	10,51
211,1	15,91
211,5	12,681
212	16,681
212,5	13,91
212,9	10,881
213,4	12,51
213,9	11,567
214,3	8,224
214,8	13,395
215,3	11,995
215,7	13,167
216,2	14,452
216,7	14,195
217,1	12,081
217,6	9,138
218,1	4,567
218,5	4,024
219	2,852
219,5	7,367
219,9	1,11
220,4	10,367
220,9	8,967
221,3	7,795
221,8	6,824
222,3	10,624
222,7	10,738
223,2	12,367
223,6	6,51
224,1	12,938
224,6	17,881
225	20,795
225,5	17,681
226	11,795
226,4	15,31
226,9	13,167
227,4	19,052
227,8	14,91
228,3	8,367
228,8	7,167
229,2	9,824
229,7	13,738
230,2	19,538
230,6	7,567
231,1	9,995
231,5	15,824
232	15,624
232,5	13,995
232,9	10,852
233,4	4,31
233,9	10,395
234,3	12,052
234,8	13,052
235,3	19,195
235,7	23,452
236,2	19,624
236,7	20,595
237,1	20,281
237,6	14,938
238,1	8,995
238,5	6,51
239	1,052
239,4	4,624
239,9	6,595
240,4	4,538
240,8	9,938
241,3	13,538
241,8	8,91
242,2	11,452
242,7	11,281
243,2	13,138
243,6	14,995
244,1	9,681
244,6	4,167
245	6,995
245,5	6,252
245,9	4,081
246,4	1,71
246,9	-3,09
247,3	-0,462
247,8	2,738
248,3	3,652
248,7	4,167
249,2	6,738
249,7	14,424
250,1	12,71
250,6	10,281
251	10,767
251,5	10,024
252	7,51
252,4	8,338
252,9	1,767
253,4	5,052
253,8	0,795
254,3	5,024
254,8	3,881
255,2	2,852
255,7	1,395
256,1	-1,062
256,6	-1,405
257,1	6,167
257,5	-0,462
258	-1,576
258,5	3,281
258,9	0,281
259,4	6,567
259,9	4,567
260,3	1,595
260,8	1,595
261,2	8,024
261,7	5,652
262,2	6,91
262,6	0,795
263,1	1,367
263,6	-3,005
264	0,424
264,5	-1,919
264,9	-6,462
265,4	-3,29
265,9	-4,233
266,3	-1,462
266,8	5,11
267,3	9,995
267,7	7,452
268,2	14,71
268,7	13,681
269,1	10,481
269,6	11,081
270	6,624
270,5	7,738
271	4,681
271,4	1,052
271,9	-2,176
272,4	1,424
272,8	1,738
273,3	3,167
273,7	-1,862
274,2	2,167
274,7	2,424
275,1	3,795
275,6	7,452
276,1	6,195
276,5	8,91
277	9,767
277,4	6,71
277,9	4,795
278,4	4,995
278,8	2,195
279,3	1,91
279,8	1,91
280,2	4,052
280,7	5,967
281,1	8,767
281,6	7,31
282,1	8,452
282,5	13,024
283	13,452
283,4	6,767
283,9	7,681
284,4	7,481
284,8	7,252
285,3	2,91
285,8	-1,405
286,2	-2,148
286,7	1,424
287,1	-1,433
287,6	-2,948
288,1	0,538
288,5	4,995
289	4,681
289,5	1,338
289,9	-0,319
290,4	0,824
290,8	6,538
291,3	8,11
291,8	7,881
292,2	7,91
292,7	11,738
293,1	16,252
293,6	17,367
294,1	15,252
294,5	13,167
295	9,852
295,5	12,081
295,9	9,71
296,4	7,538
296,8	6,681
297,3	8,452
297,8	13,024
298,2	18,595
298,7	16,481
299,1	17,738
299,6	14,51
300,1	17,767
300,5	12,967
301	12,167
301,5	8,938
301,9	8,367
302,4	4,138
302,8	5,567
303,3	10,224
303,8	16,281
304,2	15,938
304,7	15,252
305,1	13,538
305,6	15,452
306,1	15,481
306,5	5,252
307	0,624
307,4	-5,176
307,9	-7,348
308,4	-5,09
308,8	-4,29
309,3	-2,348
309,8	2,938
310,2	2,881
310,7	6,195
311,1	11,138
311,6	10,681
312,1	8,395
312,5	6,481
313	6,738
313,4	10,424
313,9	8,081
314,4	5,424
314,8	7,167
315,3	11,538
315,7	12,367
316,2	10,224
316,7	3,024
317,1	2,224
317,6	3,281
318	2,91
318,5	0,881
319	-0,605
319,4	3,081
319,9	4,138
320,3	6,252
320,8	6,795
321,3	5,967
321,7	8,795
322,2	9,852
322,6	9,281
323,1	8,824
323,6	10,281
324	9,024
324,5	11,795
324,9	11,91
325,4	13,11
325,9	9,51
326,3	12,481
326,8	9,367
327,2	10,281
327,7	7,738
328,2	9,338
328,6	9,738
329,1	6,538
329,5	7,224
330	8,824
330,5	14,11
330,9	13,167
331,4	10,31
331,8	9,767
332,3	13,452
332,8	14,881
333,2	14,567
333,7	4,567
334,1	2,424
334,6	-0,09
335,1	1,452
335,5	-0,633
336	-0,062
336,4	0,938
336,9	3,338
337,4	6,824
337,8	8,281
338,3	6,852
338,7	9,224
339,2	3,91
339,7	3,195
340,1	1,224
340,6	-0,948
341	-1,405
341,5	-3,319
342	-5,005
342,4	-7,748
342,9	-5,319
343,3	-0,176
343,8	3,167
344,2	4,167
344,7	2,852
345,2	5,824
345,6	13,052
346,1	11,51
346,5	8,424
347	4,967
347,5	6,738
347,9	8,71
348,4	6,652
348,8	5,338
349,3	1,91
349,8	2,367
350,2	5,11
350,7	5,881
351,1	5,167
351,6	8,852
352	10,052
352,5	20,738
353	26,738
353,4	32,11
353,9	44,824
354,3	60,052
354,8	70,424
355,3	95,252
355,7	112,91
356,2	139,424
356,6	162,681
357,1	185,367
357,5	218,824
358	258,624
358,5	294,652
358,9	344,452
359,4	398,852
359,8	466,395
360,3	538,767
360,8	621,452
361,2	712,738
361,7	808,538
362,1	912,367
362,6	1027,224
363	1152,881
363,5	1285,595
364	1421,538
364,4	1558,081
364,9	1704,081
365,3	1848,138
365,8	1989,738
366,3	2112,852
366,7	2225,424
367,2	2326,281
367,6	2414,167
368,1	2473,91
368,5	2517,51
369	2533,138
369,5	2538,738
369,9	2526,681
370,4	2487,852
370,8	2426,081
371,3	2363,652
371,7	2275,167
372,2	2185,452
372,7	2079,167
373,1	1969,395
373,6	1857,195
374	1748,967
374,5	1629,081
374,9	1520,195
375,4	1410,795
375,9	1313,938
376,3	1210,31
376,8	1114,538
377,2	1025,567
377,7	945,967
378,2	870,452
378,6	794,995
379,1	721,91
379,5	659,481
380	602,767
380,4	550,252
380,9	504,31
381,4	463,91
381,8	428,281
382,3	395,052
382,7	369,852
383,2	341,652
383,6	321,824
384,1	299,795
384,6	279,938
385	263,338
385,5	248,281
385,9	227,91
386,4	219,652
386,8	203,281
387,3	189,767
387,7	175,51
388,2	162,967
388,7	151,024
389,1	141,51
389,6	132,395
390	127,367
390,5	118,595
390,9	110,967
391,4	103,881
391,9	99,167
392,3	101,052
392,8	94,224
393,2	89,167
393,7	85,852
394,1	81,024
394,6	79,224
395,1	78,738
395,5	72,052
396	70,995
396,4	62,081
396,9	61,224
397,3	60,91
397,8	56,967
398,2	50,167
398,7	44,967
399,2	37,681
399,6	41,052
400,1	34,024
400,5	28,195
401	30,138
401,4	28,938
401,9	31,652
402,4	32,567
402,8	35,652
403,3	39,738
403,7	40,11
404,2	37,281
404,6	38,91
405,1	40,681
405,5	41,224
406	38,824
406,5	36,51
406,9	45,71
407,4	42,624
407,8	45,167
408,3	42,481
408,7	41,738
409,2	37,395
409,6	41,281
410,1	37,195
410,6	39,852
411	42,995
411,5	42,852
411,9	44,71
412,4	48,624
412,8	48,052
413,3	46,567
413,7	49,338
414,2	51,338
414,7	51,938
415,1	59,852
415,6	60,081
416	66,252
416,5	74,91
416,9	83,024
417,4	83,624
417,8	91,252
418,3	84,824
418,8	89,252
419,2	87,367
419,7	86,452
420,1	81,195
420,6	83,652
421	89,081
421,5	92,138
421,9	93,652
422,4	97,852
422,8	100,367
423,3	106,767
423,8	108,024
424,2	103,881
424,7	111,138
425,1	110,795
425,6	110,081
426	112,338
426,5	111,824
426,9	112,595
427,4	118,738
427,9	117,424
428,3	121,481
428,8	125,024
429,2	122,795
429,7	123,252
430,1	121,824
430,6	111,51
431	111,795
431,5	111,024
431,9	112,795
432,4	114,138
432,8	117,052
433,3	120,824
433,8	132,252
434,2	136,31
434,7	136,738
435,1	141,938
435,6	143,881
436	152,338
436,5	160,795
436,9	166,538
437,4	171,31
437,8	178,052
438,3	185,024
438,8	196,024
439,2	198,481
439,7	207,367
440,1	212,595
440,6	224,51
441	237,395
441,5	246,281
441,9	253,224
442,4	265,481
442,8	272,138
443,3	282,938
443,7	288,252
444,2	300,224
444,7	314,252
445,1	333,652
445,6	344,224
446	356,567
446,5	373,652
446,9	391,995
447,4	405,281
447,8	418,967
448,3	433,967
448,7	453,424
449,2	471,767
449,6	490,081
450,1	506,224
450,6	531,252
451	551,252
451,5	569,852
451,9	588,624
452,4	614,224
452,8	634,224
453,3	657,624
453,7	676,338
454,2	697,595
454,6	717,31
455,1	745,824
455,5	766,224
456	798,367
456,4	826,224
456,9	856,281
457,3	885,738
457,8	916,538
458,3	940,367
458,7	971,395
459,2	995,424
459,6	1033,31
460,1	1065,767
460,5	1097,652
461	1132,51
461,4	1165,881
461,9	1198,424
462,3	1233,224
462,8	1263,481
463,2	1293,567
463,7	1332,024
464,1	1368,452
464,6	1404,681
465	1440,595
465,5	1477,167
466	1517,252
466,4	1561,195
466,9	1601,91
467,3	1638,424
467,8	1685,424
468,2	1730,281
468,7	1774,795
469,1	1812,024
469,6	1844,138
470	1879,938
470,5	1925,51
470,9	1963,967
471,4	2005,252
471,8	2036,624
472,3	2074,938
472,7	2120,395
473,2	2158,71
473,6	2192,252
474,1	2230,052
474,5	2260,138
475	2306,881
475,4	2346,252
475,9	2383,738
476,4	2424,652
476,8	2469,452
477,3	2508,338
477,7	2557,624
478,2	2595,138
478,6	2634,91
479,1	2672,024
479,5	2710,995
480	2742,967
480,4	2779,938
480,9	2808,052
481,3	2848,281
481,8	2882,195
482,2	2920,681
482,7	2951,052
483,1	2987,624
483,6	3019,91
484	3056,824
484,5	3085,167
484,9	3116,395
485,4	3144,081
485,8	3173,595
486,3	3198,052
486,7	3231,852
487,2	3264,167
487,6	3286,71
488,1	3313,938
488,5	3335,967
489	3364,595
489,4	3394,91
489,9	3406,852
490,4	3420,852
490,8	3443,91
491,3	3460,824
491,7	3485,252
492,2	3502,51
492,6	3517,224
493,1	3543,681
493,5	3564,595
494	3587,567
494,4	3602,995
494,9	3618,767
495,3	3630,681
495,8	3651,71
496,2	3662,081
496,7	3683,852
497,1	3691,938
497,6	3709,481
498	3725,938
498,5	3745,852
498,9	3757,481
499,4	3776,71
499,8	3781,195
500,3	3796,995
500,7	3807,938
501,2	3815,538
501,6	3825,31
502,1	3832,424
502,5	3841,652
503	3854,395
503,4	3866,652
503,9	3879,424
504,3	3892,767
504,8	3898,281
505,2	3910,91
505,7	3915,024
506,1	3918,338
506,6	3919,31
507	3924,567
507,5	3927,795
507,9	3943,167
508,4	3953,395
508,8	3963,795
509,3	3974,567
509,7	3982,395
510,2	3996,681
510,6	4000,252
511,1	4001,224
511,5	4002,595
512	4009,052
512,4	4009,481
512,9	4020,824
513,3	4022,424
513,8	4033,681
514,2	4040,081
514,7	4050,567
515,1	4060,652
515,6	4068,51
516	4070,281
516,5	4070,338
516,9	4073,224
517,4	4083,338
517,8	4084,624
518,3	4087,624
518,7	4094,052
519,2	4104,452
519,6	4117,281
520,1	4127,995
520,5	4128,995
521	4134,852
521,4	4139,338
521,9	4150,424
522,3	4155,081
522,8	4156,138
523,2	4164,767
523,7	4173,138
524,1	4180,681
524,6	4185,938
525	4196,195
525,5	4201,424
525,9	4214,452
526,4	4216,538
526,8	4220,31
527,3	4229,252
527,7	4240,538
528,2	4245,224
528,6	4257,681
529,1	4270,424
529,5	4279,738
530	4295,595
530,4	4311,395
530,9	4321,681
531,3	4334,967
531,8	4343,31
532,2	4343,11
532,6	4358,424
533,1	4358,824
533,5	4358,224
534	4361,91
534,4	4364,138
534,9	4376,281
535,3	4392,91
535,8	4401,224
536,2	4416,967
536,7	4428,281
537,1	4448,024
537,6	4463,224
538	4473,052
538,5	4484,624
538,9	4500,081
539,4	4510,024
539,8	4530,852
540,3	4539,167
540,7	4543,081
541,2	4555,081
541,6	4562,024
542,1	4565,224
542,5	4576,595
543	4574,567
543,4	4578,31
543,9	4593,167
544,3	4604,795
544,8	4614,024
545,2	4627,681
545,7	4641,71
546,1	4652,967
546,5	4668,738
547	4684,938
547,4	4689,824
547,9	4696,595
548,3	4709,995
548,8	4715,567
549,2	4735,767
549,7	4744,881
550,1	4751,11
550,6	4761,767
551	4776,767
551,5	4786,481
551,9	4797,452
552,4	4798,081
552,8	4808,767
553,3	4818,395
553,7	4828,567
554,2	4837,881
554,6	4843,824
555,1	4856,881
555,5	4873,967
555,9	4876,138
556,4	4887,252
556,8	4898,052
557,3	4904,138
557,7	4916,31
558,2	4928,681
558,6	4930,424
559,1	4941,995
559,5	4947,995
560	4954,995
560,4	4973,024
560,9	4973,195
561,3	4971,052
561,8	4981,424
562,2	4993,995
562,7	4991,11
563,1	4997,91
563,6	4998,595
564	5004,738
564,4	5007,938
564,9	5012,395
565,3	5012,081
565,8	5023,11
566,2	5025,367
566,7	5029,738
567,1	5044,281
567,6	5055,995
568	5057,367
568,5	5060,681
568,9	5067,052
569,4	5069,195
569,8	5073,395
570,3	5069,738
570,7	5070,167
571,1	5073,538
571,6	5075,567
572	5076,824
572,5	5076,824
572,9	5070,967
573,4	5065,91
573,8	5066,424
574,3	5068,795
574,7	5070,881
575,2	5069,452
575,6	5072,852
576,1	5076,91
576,5	5080,595
576,9	5082,538
577,4	5078,624
577,8	5076,938
578,3	5073,31
578,7	5070,081
579,2	5063,824
579,6	5062,11
580,1	5054,567
580,5	5054,052
581	5055,052
581,4	5050,452
581,9	5042,51
582,3	5039,624
582,7	5031,652
583,2	5029,252
583,6	5017,71
584,1	5001,91
584,5	4995,31
585	4991,052
585,4	4984,967
585,9	4981,252
586,3	4972,195
586,8	4959,452
587,2	4960,11
587,6	4953,281
588,1	4942,938
588,5	4932,224
589	4917,681
589,4	4906,595
589,9	4902,624
590,3	4889,767
590,8	4879,824
591,2	4873,11
591,7	4863,51
592,1	4863,224
592,5	4856,31
593	4854,51
593,4	4850,052
593,9	4842,938
594,3	4839,138
594,8	4839,624
595,2	4827,824
595,7	4823,31
596,1	4818,195
596,6	4808,71
597	4808,624
597,4	4805,71
597,9	4789,767
598,3	4782,252
598,8	4776,395
599,2	4767,138
599,7	4764,881
600,1	4748,252
600,6	4733,881
601	4733,652
601,4	4721,767
601,9	4703,767
602,3	4695,938
602,8	4675,967
603,2	4666,595
603,7	4658,252
604,1	4640,681
604,6	4631,052
605	4631,71
605,4	4611,052
605,9	4596,852
606,3	4593,195
606,8	4577,31
607,2	4569,538
607,7	4556,224
608,1	4536,338
608,6	4526,367
609	4518,452
609,4	4495,252
609,9	4477,538
610,3	4456,624
610,8	4446,51
611,2	4428,395
611,7	4413,995
612,1	4393,51
612,6	4380,11
613	4368,967
613,4	4362,71
613,9	4344,138
614,3	4332,995
614,8	4315,338
615,2	4300,595
615,7	4287,995
616,1	4274,681
616,6	4251,624
617	4237,481
617,4	4212,481
617,9	4203,738
618,3	4192,51
618,8	4172,938
619,2	4154,567
619,7	4146,51
620,1	4128,767
620,5	4116,11
621	4091,538
621,4	4078,681
621,9	4057,51
622,3	4036,767
622,8	4013,652
623,2	3998,338
623,6	3979,71
624,1	3961,024
624,5	3939,767
625	3930,395
625,4	3917,052
625,9	3899,11
626,3	3886,481
626,8	3867,081
627,2	3855,167
627,6	3838,481
628,1	3813,738
628,5	3791,024
629	3778,31
629,4	3752,424
629,9	3738,11
630,3	3723,481
630,7	3701,367
631,2	3688,367
631,6	3673,767
632,1	3650,91
632,5	3635,995
633	3622,624
633,4	3595,281
633,8	3579,995
634,3	3560,195
634,7	3543,795
635,2	3526,452
635,6	3511,738
636,1	3492,824
636,5	3480,052
636,9	3461,138
637,4	3448,024
637,8	3424,624
638,3	3404,11
638,7	3386,967
639,2	3367,195
639,6	3348,424
640	3330,195
640,5	3304,91
640,9	3286,51
641,4	3267,995
641,8	3250,224
642,2	3232,595
642,7	3215,767
643,1	3203,91
643,6	3198,767
644	3183,852
644,5	3176,538
644,9	3156,938
645,3	3142,195
645,8	3122,824
646,2	3103,738
646,7	3082,738
647,1	3071,195
647,6	3050,195
648	3033,024
648,4	3017,138
648,9	3004,395
649,3	2991,91
649,8	2973,11
650,2	2954,681
650,6	2944,481
651,1	2932,024
651,5	2916,481
652	2905,138
652,4	2881,052
652,9	2870,395
653,3	2859,31
653,7	2843,138
654,2	2825,995
654,6	2812,624
655,1	2792,595
655,5	2786,452
655,9	2768,31
656,4	2750,31
656,8	2728,481
657,3	2713,567
657,7	2700,281
658,2	2682,367
658,6	2664,538
659	2647,681
659,5	2637,71
659,9	2623,138
660,4	2601,338
660,8	2584,624
661,2	2569,252
661,7	2558,938
662,1	2551,11
662,6	2529,281
663	2513,795
663,4	2503,681
663,9	2489,881
664,3	2478,395
664,8	2451,452
665,2	2432,195
665,6	2416,967
666,1	2406,024
666,5	2390,795
667	2376,252
667,4	2361,624
667,9	2355,424
668,3	2335,881
668,7	2324,51
669,2	2307,167
669,6	2287,052
670,1	2272,967
670,5	2257,224
670,9	2234,452
671,4	2227,195
671,8	2214,424
672,3	2203,367
672,7	2195,624
673,1	2171,681
673,6	2158,938
674	2144,938
674,5	2128,052
674,9	2109,424
675,3	2087,138
675,8	2068,852
676,2	2055,51
676,7	2039,967
677,1	2030,281
677,5	2008,967
678	1997,452
678,4	1991,224
678,9	1981,481
679,3	1974,824
679,7	1966,624
680,2	1952,681
680,6	1949,767
681,1	1940,738
681,5	1925,052
681,9	1911,024
682,4	1900,167
682,8	1884,824
683,3	1877,367
683,7	1862,71
684,1	1847,795
684,6	1838,167
685	1826,91
685,5	1816,367
685,9	1810,995
686,3	1797,738
686,8	1791,624
687,2	1778,938
687,7	1766,681
688,1	1754,852
688,5	1742,824
689	1727,252
689,4	1715,567
689,9	1700,51
690,3	1693,767
690,7	1678,995
691,2	1664,452
691,6	1649,881
692	1635,024
692,5	1622,081
692,9	1603,852
693,4	1590,881
693,8	1586,11
694,2	1577,195
694,7	1566,881
695,1	1559,481
695,6	1552,481
696	1547,881
696,4	1536,452
696,9	1521,052
697,3	1510,195
697,8	1501,767
698,2	1488,824
698,6	1477,967
699,1	1466,51
699,5	1449,71
699,9	1444,052
700,4	1434,967
700,8	1425,338
701,3	1417,395
701,7	1405,995
702,1	1395,195
702,6	1392,595
703	1379,224
703,5	1370,052
703,9	1354,852
704,3	1344,538
704,8	1334,738
705,2	1325,481
705,6	1314,367
706,1	1308,452
706,5	1303,91
707	1300,081
707,4	1292,938
707,8	1277,395
708,3	1268,024
708,7	1257,795
709,2	1249,167
709,6	1232,71
710	1224,281
710,5	1212,767
710,9	1212,71
711,3	1203,681
711,8	1197,681
712,2	1189,71
712,7	1187,252
713,1	1177,595
713,5	1167,424
714	1161,452
714,4	1155,338
714,8	1147,767
715,3	1136,881
715,7	1125,052
716,2	1118,138
716,6	1113,71
717	1103,052
717,5	1094,281
717,9	1084,195
718,3	1076,595
718,8	1073,767
719,2	1063,424
719,7	1056,052
720,1	1043,938
720,5	1038,424
721	1026,138
721,4	1015,395
721,8	1004,167
722,3	998,195
722,7	989,738
723,2	982,595
723,6	972,767
724	969,91
724,5	961,852
724,9	955,995
725,3	947,052
725,8	937,938
726,2	928,624
726,7	926,738
727,1	921,424
727,5	917,824
728	908,081
728,4	901,71
728,8	893,567
729,3	891,595
729,7	881,367
730,1	873,252
730,6	870,167
731	867,795
731,5	861,51
731,9	862,738
732,3	856,538
732,8	854,681
733,2	851,252
733,6	846,538
734,1	844,367
734,5	845,024
734,9	838,081
735,4	833,795
735,8	821,452
736,3	818,31
736,7	809,31
737,1	801,995
737,6	790,224
738	785,938
738,4	781,367
738,9	779,91
739,3	772,081
739,7	767,081
740,2	758,624
740,6	758,167
741,1	750,424
741,5	748,081
741,9	743,824
742,4	738,252
742,8	738,252
743,2	735,395
743,7	725,167
744,1	723,338
744,5	715,938
745	707,824
745,4	705,195
745,8	697,595
746,3	694,167
746,7	690,252
747,2	681,91
747,6	671,91
748	676,167
748,5	671,052
748,9	661,681
749,3	656,738
749,8	654,367
750,2	648,967
750,6	654,138
751,1	645,11
751,5	642,081
751,9	642,167
752,4	635,767
752,8	630,567
753,3	631,338
753,7	619,881
754,1	610,852
754,6	608,081
755	601,967
755,4	601,567
755,9	597,852
756,3	594,795
756,7	594,424
757,2	595,052
757,6	587,167
758	583,738
758,5	578,367
758,9	573,995
759,3	559,31
759,8	550,452
760,2	539,767
760,6	538,024
761,1	531,481
761,5	527,71
761,9	524,224
762,4	524,224
762,8	523,71
763,3	525,91
763,7	518,224
764,1	516,967
764,6	508,195
765	503,081
765,4	504,367
765,9	503,538
766,3	501,338
766,7	500,138
767,2	500,824
767,6	500,167
768	499,51
768,5	494,852
768,9	493,224
769,3	486,567
769,8	483,252
770,2	478,081
770,6	474,624
771,1	470,624
771,5	466,167
771,9	460,252
772,4	460,338
772,8	455,938
773,2	449,995
773,7	448,91
774,1	447,738
774,5	441,281
775	435,138
775,4	428,881
775,8	428,938
776,3	427,91
776,7	422,652
777,1	418,081
777,6	416,795
778	415,452
778,4	414,51
778,9	409,367
779,3	401,338
779,7	398,767
780,2	398,195
780,6	396,252
781	393,767
781,5	388,224
781,9	385,481
782,3	385,795
782,8	386,11
783,2	381,481
783,6	380,767
784,1	376,052
784,5	374,395
784,9	371,938
785,4	370,824
785,8	369,281
786,2	363,538
786,7	360,624
787,1	359,195
787,5	359,567
788	356,824
788,4	354,852
788,8	348,738
789,3	346,024
789,7	345,138
790,1	340,081
790,6	335,281
791	333,738
791,4	331,995
791,9	330,881
792,3	332,252
792,7	327,481
793,2	325,938
793,6	323,995
794	320,51
794,5	316,567
794,9	318,224
795,3	317,167
795,8	313,624
796,2	312,424
796,6	313,481
797,1	303,024
797,5	306,595
797,9	302,767
798,4	298,624
798,8	296,91
799,2	295,652
799,7	289,252
800,1	292,881
800,5	283,51
801	278,11
801,4	280,567
801,8	273,452
802,2	274,167
802,7	273,881
803,1	274,852
803,5	275,081
804	274,224
804,4	264,652
804,8	269,081
805,3	267,652
805,7	266,652
806,1	264,91
806,6	259,938
807	257,824
807,4	258,281
807,9	252,51
808,3	247,824
808,7	241,595
809,2	237,652
809,6	237,138
810	229,395
810,4	227,252
810,9	228,11
811,3	229,424
811,7	230,967
812,2	230,11
812,6	226,51
813	228,681
813,5	222,367
813,9	221,481
814,3	212,624
814,8	207,795
815,2	208,11
815,6	206,081
816,1	204,824
816,5	206,252
816,9	201,424
817,3	203,024
817,8	202,224
818,2	199,281
818,6	201,195
819,1	203,024
819,5	202,224
819,9	201,481
820,4	199,938
820,8	198,167
821,2	195,424
821,7	191,424
822,1	183,624
822,5	180,138
822,9	180,595
823,4	183,367
823,8	183,567
824,2	184,195
824,7	185,91
825,1	187,052
825,5	185,452
826	183,224
826,4	176,252
826,8	173,881
827,3	170,167
827,7	166,967
828,1	163,738
828,5	161,71
829	161,452
829,4	156,652
829,8	158,11
830,3	156,71
830,7	154,367
831,1	158,967
831,6	162,224
832	160,538
832,4	163,595
832,8	155,367
833,3	154,338
833,7	150,681
834,1	147,167
834,6	143,338
835	144,452
835,4	144,338
835,8	145,995
836,3	144,395
836,7	147,167
837,1	147,595
837,6	146,167
838	143,824
838,4	140,681
838,9	140,31
839,3	145,681
839,7	149,681
840,1	144,71
840,6	143,395
841	143,11
841,4	143,681
841,9	141,51
842,3	134,167
842,7	127,11
843,1	128,452
843,6	126,452
844	124,395
844,4	120,452
844,9	116,881
845,3	114,224
845,7	111,51
846,2	109,481
846,6	109,738
847	108,367
847,4	104,824
847,9	108,624
848,3	109,795
848,7	111,852
849,2	109,567
849,6	107,31
850	107,281
850,4	112,281
850,9	110,852
851,3	112,395
851,7	109,481
852,2	111,11
852,6	110,881
853	108,652
853,4	103,081
853,9	98,967
854,3	97,91
854,7	102,052
855,2	102,138
855,6	103,224
856	100,881
856,4	107,967
856,9	112,31
857,3	107,938
857,7	104,138
858,2	98,51
858,6	94,91
859	90,738
859,4	87,281
859,9	86,938
860,3	87,052
860,7	85,081
861,1	87,281
861,6	89,51
862	93,738
862,4	91,424
862,9	87,567
863,3	85,824
863,7	87,081
864,1	82,824
864,6	84,11
865	85,11
865,4	81,852
865,9	82,452
866,3	86,481
866,7	86,224
867,1	84,338
867,6	85,938
868	85,252
868,4	84,367
868,8	81,995
869,3	78,024
869,7	74,995
870,1	82,424
870,6	74,71
871	86,938
871,4	89,824
871,8	89,367
872,3	88,881
872,7	89,767
873,1	83,995
873,5	87,652
874	65,767
874,4	57,395
874,8	61,424
875,3	60,424
875,7	58,481
876,1	58,31
876,5	55,224
877	61,11
877,4	67,795
877,8	65,624
878,2	64,424
878,7	68,367
879,1	67,567
879,5	67,195
879,9	66,052
880,4	64,338
880,8	64,71
881,2	66,967
881,7	62,195
882,1	63,338
882,5	65,338
882,9	65,138
883,4	67,91
883,8	65,024
884,2	58,338
884,6	55,738
885,1	54,91
885,5	53,424
885,9	54,367
886,3	51,595
886,8	50,481
887,2	51,595
887,6	52,852
888	54,967
888,5	55,31
888,9	52,852
889,3	53,224
889,8	54,738
890,2	57,252
890,6	56,995
891	52,795
891,5	51,138
891,9	51,995
892,3	51,795
892,7	49,91
893,2	49,795
893,6	48,224
894	48,424
894,4	48,824
894,9	46,224
895,3	45,71
895,7	45,252
896,1	46,138
896,6	50,681
897	49,71
897,4	48,881
897,8	53,881
898,3	55,567
898,7	51,71
899,1	51,281
899,5	47,824
900	50,881
900,4	51,11
900,8	46,195
901,2	41,938
901,7	43,995
902,1	45,024
902,5	43,195
902,9	35,595
903,4	32,281
903,8	33,595
904,2	34,052
904,6	33,395
905,1	36,424
905,5	39,938
905,9	43,024
906,3	40,938
906,8	38,281
907,2	39,195
907,6	45,052
908	36,052
908,5	32,881
908,9	36,338
909,3	38,795
909,7	44,424
910,2	46,624
910,6	41,595
911	40,738
911,4	37,938
911,9	31,767
912,3	27,795
912,7	21,852
913,1	17,195
913,6	11,595
914	17,738
914,4	16,881
914,8	21,881
915,3	26,024
915,7	29,852
916,1	30,852
916,5	37,624
916,9	30,338
917,4	31,024
917,8	29,31
918,2	30,967
918,6	28,538
919,1	28,138
919,5	26,595
919,9	28,938
920,3	30,395
920,8	32,224
921,2	28,538
921,6	30,052
922	30,452
922,5	29,51
922,9	29,395
923,3	31,767
923,7	29,31
924,2	30,595
924,6	29,281
925	28,11
925,4	30,081
925,8	31,138
926,3	28,852
926,7	30,995
927,1	31,567
927,5	32,624
928	29,367
928,4	29,824
928,8	28,138
929,2	28,081
929,7	25,738
930,1	23,424
930,5	22,281
930,9	22,538
931,3	17,195
931,8	18,71
932,2	20,624
932,6	19,424
933	19,91
933,5	20,995
933,9	25,595
934,3	29,024
934,7	26,024
935,2	25,967
935,6	23,71
936	21,738
936,4	18,052
936,8	18,795
937,3	18,681
937,7	18,681
938,1	12,052
938,5	9,738
939	11,595
939,4	11,767
939,8	9,252
940,2	8,367
940,6	11,31
941,1	17,338
941,5	22,052
941,9	28,567
942,3	26,738
942,8	25,71
943,2	31,567
943,6	30,538
944	27,481
944,4	28,424
944,9	22,795
945,3	24,052
945,7	23,452
946,1	20,681
946,6	20,91
947	24,024
947,4	20,967
947,8	18,795
948,2	17,652
948,7	14,938
949,1	12,995
949,5	12,567
949,9	13,024
950,3	14,252
950,8	15,795
951,2	17,338
951,6	20,452
952	17,424
952,5	14,224
952,9	11,138
953,3	11,567
953,7	12,767
954,1	13,738
954,6	12,338
955	12,738
955,4	20,252
955,8	23,024
956,2	24,281
956,7	21,652
957,1	18,91
957,5	21,081
957,9	23,395
958,3	16,767
958,8	12,538
959,2	12,452
959,6	10,881
960	15,795
960,5	13,595
960,9	15,681
961,3	17,652
961,7	17,281
962,1	17,567
962,6	18,452
963	18,052
963,4	18,881
963,8	13,938
964,2	16,652
964,7	13,767
965,1	5,71
965,5	8,338
965,9	6,795
966,3	5,224
966,8	2,967
967,2	-1,862
967,6	5,938
968	13,138
968,4	12,167
968,9	13,567
969,3	16,681
969,7	16,31
970,1	15,424
970,5	12,567
971	8,11
971,4	4,281
971,8	2,052
972,2	2,567
972,6	5,567
973,1	3,767
973,5	0,71
973,9	3,738
974,3	7,767
974,7	7,538
975,2	5,795
975,6	5,31
976	9,252
976,4	11,481
976,8	9,024
977,3	8,852
977,7	6,624
978,1	6,138
978,5	4,538
978,9	3,567
979,4	2,11
979,8	4,024
980,2	0,852
980,6	2,138
981	-2,833
981,5	-2,89
981,9	-2,633
982,3	-0,148
982,7	-1,205
983,1	0,367
983,6	-1,205
984	1,624
984,4	4,881
984,8	9,538
985,2	9,024
985,6	9,138
986,1	7,938
986,5	11,738
986,9	14,595
987,3	10,11
987,7	8,224
988,2	6,967
988,6	12,51
989	13,481
989,4	14,681
989,8	11,51
990,3	13,224
990,7	14,367
991,1	16,11
991,5	10,624
991,9	8,424
992,3	3,395
992,8	1,767
993,2	1,395
993,6	-4,719
994	-7,69
994,4	-0,09
994,9	3,538
995,3	9,652
995,7	12,824
996,1	14,31
996,5	13,252
996,9	12,481
997,4	3,681
997,8	6,795
998,2	0,995
998,6	4,167
999	8,281
999,5	9,881
999,9	10,081
1000,3	15,281
1000,7	12,224
1001,1	12,024
1001,5	10,31
1002	3,967
1002,4	7,652
1002,8	9,481
1003,2	7,338
1003,6	8,652
1004	9,595
1004,5	7,824
1004,9	11,824
1005,3	9,538
1005,7	6,738
1006,1	6,595
1006,6	3,452
1007	5,252
1007,4	1,052
1007,8	4,852
1008,2	8,71
1008,6	10,452
1009,1	10,224
1009,5	9,624
1009,9	11,395
1010,3	19,052
1010,7	16,595
1011,1	13,195
1011,6	12,081
1012	9,138
1012,4	17,195
1012,8	11,91
1013,2	9,938
1013,6	10,081
1014,1	9,395
1014,5	10,11
1014,9	15,167
1015,3	11,281
1015,7	14,967
1016,1	11,538
1016,6	9,595
1017	8,081
1017,4	8,824
1017,8	5,852
1018,2	3,881
1018,6	1,71
1019,1	3,71
1019,5	1,681
1019,9	4,795
1020,3	4,31
1020,7	5,624
1021,1	5,167
1021,6	2,995
1022	5,052
1022,4	8,138
1022,8	6,195
1023,2	8,767
1023,6	7,11
1024,1	7,052
1024,5	6,167
1024,9	8,338
1025,3	4,967
1025,7	7,567
1026,1	11,738
1026,6	17,995
1027	17,624
1027,4	24,995
1027,8	24,081
1028,2	22,824
1028,6	21,738
1029	13,852
1029,5	9,51
1029,9	10,081
1030,3	9,567
1030,7	6,052
1031,1	8,052
1031,5	9,11
1032	11,481
1032,4	12,91
1032,8	12,595
1033,2	7,567
1033,6	6,852
1034	6,481
1034,4	6,224
1034,9	5,052
1035,3	5,224
1035,7	2,395
1036,1	5,538
1036,5	8,852
1036,9	8,938
1037,4	8,395
1037,8	17,11
1038,2	14,081
1038,6	18,252
1039	15,938
1039,4	14,595
1039,8	20,024
1040,3	19,081
1040,7	11,052
1041,1	9,795
1041,5	8,595
1041,9	9,738
1042,3	8,624
1042,7	6,767
1043,2	8,881
1043,6	11,51
1044	15,252
1044,4	16,11
1044,8	13,252
1045,2	16,51
1045,6	10,11
1046,1	7,481
1046,5	5,452
1046,9	1,795
1047,3	-0,633
1047,7	3,91
1048,1	3,11
1048,5	10,395
1049	12,91
1049,4	10,51
1049,8	8,767
1050,2	10,281
1050,6	9,224
1051	6,338
1051,4	2,367
1051,9	-1,148
1052,3	-0,748
1052,7	5,167
1053,1	2,367
1053,5	3,51
1053,9	7,195
1054,3	6,081
1054,8	6,795
1055,2	4,138
1055,6	3,481
1056	5,052
1056,4	4,481
1056,8	2,167
1057,2	6,138
1057,6	6,624
1058,1	12,51
1058,5	10,681
1058,9	13,395
1059,3	16,71
1059,7	14,024
1060,1	10,738
1060,5	8,852
1061	8,51
1061,4	11,195
1061,8	11,424
1062,2	4,995
1062,6	8,881
1063	10,424
1063,4	14,024
1063,8	12,795
1064,3	9,51
1064,7	10,967
1065,1	14,281
1065,5	14,624
1065,9	13,995
1066,3	11,024
1066,7	10,167
1067,1	7,481
1067,6	4,881
1068	2,567
1068,4	1,395
1068,8	1,31
1069,2	4,995
1069,6	5,081
1070	9,51
1070,4	11,852
1070,9	13,052
1071,3	16,852
1071,7	16,738
1072,1	9,338
1072,5	11,052
1072,9	12,71
1073,3	13,481
1073,7	17,795
1074,2	14,795
1074,6	12,338
1075	13,367
1075,4	12,31
1075,8	9,995
1076,2	8,31
1076,6	4,252
1077	2,052
1077,5	4,71
1077,9	8,481
1078,3	6,824
1078,7	2,71
1079,1	3,738
1079,5	-0,233
1079,9	-0,862
1080,3	-4,433
1080,7	-1,833
1081,2	3,652
1081,6	4,281
1082	1,338
1082,4	1,881
1082,8	1,51
1083,2	3,681
1083,6	2,052
1084	-2,205
1084,5	2,71
1084,9	-1,205
1085,3	0,51
1085,7	4,938
1086,1	7,252
1086,5	1,795
1086,9	1,138
1087,3	-0,576
1087,7	0,881
1088,2	4,567
1088,6	2,824
1089	-0,148
1089,4	4,252
1089,8	7,91
1090,2	4,967
1090,6	6,424
1091	7,51
1091,4	8,11
1091,9	12,71
1092,3	14,967
1092,7	12,852
1093,1	12,767
1093,5	12,052
1093,9	7,51
1094,3	6,481
1094,7	4,852
1095,1	4,995
1095,5	1,11
1096	-0,662
1096,4	0,281
1096,8	0,338
1097,2	1,31
1097,6	1,595
1098	2,624
1098,4	4,31
1098,8	9,31
1099,2	6,881
1099,6	5,624
1100,1	4,91
1100,5	3,624
1100,9	3,51
1101,3	7,081
1101,7	5,681
1102,1	9,71
1102,5	6,424
1102,9	1,795
1103,3	1,31
1103,7	-0,376
1104,2	0,424
1104,6	4,824
1105	6,024
1105,4	11,624
1105,8	14,795
1106,2	13,767
1106,6	12,224
1107	9,367
1107,4	5,667
1107,8	2,447
1108,3	0,267
