Data from Subt2_00058.txt Node
Date: Mon Aug 28 13:24:06 MSK 2023
User: vat
Spectrometer: MAYP114033
Trigger mode: 0
Integration Time (sec): 1,000000E0
Scans to average: 5
Electric dark correction enabled: true
Nonlinearity correction enabled: false
Boxcar width: 3
XAxis mode: Wavelengths
Number of Pixels in Spectrum: 2068
>>>>>Begin Spectral Data<<<<<
199,4	-0,25
199,9	-2,14
200,4	-1,667
200,8	1,929
201,3	0,157
201,8	0,7
202,2	2,871
202,7	1,7
203,2	4,671
203,6	7,014
204,1	5,443
204,6	9,443
205	8,929
205,5	6,9
206	7,414
206,4	7,014
206,9	4,071
207,4	0,957
207,8	-0,386
208,3	0,814
208,8	-0,357
209,2	1,557
209,7	0,9
210,2	0,329
210,6	1,757
211,1	5,443
211,5	4,871
212	7,871
212,5	6,186
212,9	5,7
213,4	7,814
213,9	8,757
214,3	2,414
214,8	4,214
215,3	4,329
215,7	3,843
216,2	3,986
216,7	7,643
217,1	4,986
217,6	5,529
218,1	4,443
218,5	3,329
219	2,7
219,5	5,814
219,9	-1,1
220,4	8,443
220,9	6,729
221,3	4,529
221,8	4,529
222,3	10,729
222,7	13,386
223,2	13,157
223,6	3,757
224,1	12,357
224,6	18,786
225	20,071
225,5	13,243
226	3,557
226,4	7,214
226,9	8,586
227,4	8,757
227,8	-0,557
228,3	-2,729
228,8	-0,271
229,2	9,357
229,7	11,186
230,2	16,157
230,6	9,957
231,1	13,757
231,5	18,5
232	19,414
232,5	14,157
232,9	13,071
233,4	8,414
233,9	12,443
234,3	13,757
234,8	10,529
235,3	10,3
235,7	13,929
236,2	14,129
236,7	8,043
237,1	6,357
237,6	5,443
238,1	2,443
238,5	1,757
239	-4,014
239,4	-5,9
239,9	-1,5
240,4	-0,957
240,8	0,871
241,3	4,814
241,8	2,643
242,2	1,729
242,7	-0,3
243,2	4,386
243,6	5,7
244,1	3,271
244,6	-4,157
245	-1,271
245,5	0,1
245,9	2,443
246,4	-1,786
246,9	-6,729
247,3	-2,871
247,8	0,014
248,3	1,157
248,7	3,586
249,2	2,757
249,7	8,471
250,1	9,014
250,6	7,471
251	7,986
251,5	3,214
252	-0,414
252,4	-0,129
252,9	-0,357
253,4	1,414
253,8	-0,814
254,3	1,186
254,8	6,986
255,2	6,786
255,7	6,186
256,1	-0,186
256,6	3,986
257,1	5,1
257,5	1,043
258	-5,243
258,5	-1,586
258,9	-2,529
259,4	-0,357
259,9	-8,129
260,3	-10,586
260,8	-10,871
261,2	-3,586
261,7	-2,1
262,2	0,557
262,6	-0,386
263,1	2,1
263,6	3,157
264	9,186
264,5	7,986
264,9	5,729
265,4	5,9
265,9	5,929
266,3	4,786
266,8	4,586
267,3	3,414
267,7	-0,043
268,2	1,386
268,7	0,814
269,1	-0,729
269,6	0,557
270	-4,9
270,5	3,3
271	3,443
271,4	-0,529
271,9	-6,014
272,4	-1,643
272,8	-3,129
273,3	-0,9
273,7	-10,386
274,2	-10,243
274,7	-6,643
275,1	-4,643
275,6	-5,986
276,1	-2,9
276,5	0,043
277	0,043
277,4	2,529
277,9	-2,1
278,4	-0,614
278,8	0,5
279,3	1,729
279,8	4,043
280,2	6,386
280,7	4,357
281,1	4,929
281,6	6,9
282,1	8,043
282,5	8,014
283	5,929
283,4	7,129
283,9	7,957
284,4	12,643
284,8	11,1
285,3	5,1
285,8	2,271
286,2	1,214
286,7	0,643
287,1	-1,5
287,6	-5,5
288,1	-3,243
288,5	-2,071
289	-2,1
289,5	1,186
289,9	-2,129
290,4	0,329
290,8	0,443
291,3	-0,357
291,8	1,043
292,2	1,586
292,7	2,357
293,1	4,243
293,6	3,443
294,1	7,129
294,5	7,929
295	5,329
295,5	7,014
295,9	5,386
296,4	3,586
296,8	5,186
297,3	7,557
297,8	8,729
298,2	9,843
298,7	9,3
299,1	5,957
299,6	7,214
300,1	3,786
300,5	-2,729
301	-2,5
301,5	-1,614
301,9	-3,871
302,4	-0,471
302,8	0,929
303,3	3,5
303,8	8,986
304,2	7,986
304,7	4,986
305,1	4,614
305,6	2,414
306,1	-2,243
306,5	-4,7
307	-8,214
307,4	-12,986
307,9	-10,357
308,4	-9,757
308,8	-4,586
309,3	0,929
309,8	2,5
310,2	2,957
310,7	5,186
311,1	8,214
311,6	4,871
312,1	-2,014
312,5	-3,586
313	-5,271
313,4	-2,129
313,9	-0,386
314,4	-3,614
314,8	5,214
315,3	12,471
315,7	15,186
316,2	16,243
316,7	16,443
317,1	13,071
317,6	16,157
318	12,071
318,5	10,9
319	8,129
319,4	11,586
319,9	6,157
320,3	5,186
320,8	0,386
321,3	-3,243
321,7	-6,443
322,2	-8,586
322,6	-6,957
323,1	-5,9
323,6	-2,557
324	2,986
324,5	7,643
324,9	11,5
325,4	11,186
325,9	5,7
326,3	6,3
326,8	7,129
327,2	4,329
327,7	0,386
328,2	-4,071
328,6	-0,643
329,1	-3,586
329,5	-3,929
330	-3,529
330,5	4,043
330,9	2,671
331,4	0,9
331,8	-4,414
332,3	2,271
332,8	1,271
333,2	0,814
333,7	-9,243
334,1	-5,871
334,6	-3,9
335,1	1,986
335,5	-0,243
336	3,329
336,4	4,871
336,9	9,414
337,4	7,043
337,8	7,414
338,3	4,329
338,7	2,529
339,2	-2,329
339,7	-4,586
340,1	-7,557
340,6	-4,871
341	-4,814
341,5	-7,014
342	-8,9
342,4	-12,1
342,9	-12,814
343,3	-8,157
343,8	-4,871
344,2	-3,814
344,7	-2,071
345,2	1,071
345,6	7,1
346,1	6,9
346,5	5,9
347	-1,757
347,5	0,957
347,9	1,957
348,4	6,1
348,8	8,729
349,3	6,614
349,8	5,471
350,2	13,3
350,7	12,157
351,1	10,729
351,6	6,843
352	6,043
352,5	13,671
353	18,357
353,4	16,786
353,9	27,014
354,3	42,929
354,8	50,214
355,3	63,614
355,7	79,043
356,2	97,843
356,6	121,243
357,1	138,614
357,5	161,414
358	196,471
358,5	226,3
358,9	259,586
359,4	297,786
359,8	339,157
360,3	388,843
360,8	443,214
361,2	504,3
361,7	577,7
362,1	653,014
362,6	731,9
363	829,1
363,5	925,129
364	1015,3
364,4	1112,3
364,9	1208,443
365,3	1301,329
365,8	1400,729
366,3	1481,271
366,7	1549,014
367,2	1615,271
367,6	1673,157
368,1	1708,643
368,5	1737,357
369	1743,614
369,5	1740,443
369,9	1729,186
370,4	1701,986
370,8	1653,757
371,3	1603,529
371,7	1542,043
372,2	1472,986
372,7	1393,786
373,1	1321,871
373,6	1240,129
374	1157,957
374,5	1078,529
374,9	1003,9
375,4	929,643
375,9	864,1
376,3	786,729
376,8	726,243
377,2	673,157
377,7	620,043
378,2	566,443
378,6	520,329
379,1	470,157
379,5	433,157
380	394,471
380,4	361,529
380,9	331,814
381,4	304,129
381,8	283,214
382,3	266,014
382,7	249,729
383,2	234,986
383,6	218,5
384,1	203,3
384,6	189,7
385	174,243
385,5	165,757
385,9	153,986
386,4	148,529
386,8	135,557
387,3	125,986
387,7	119,471
388,2	110,3
388,7	99,814
389,1	92,243
389,6	81,443
390	78,271
390,5	72,414
390,9	70,986
391,4	66,643
391,9	61,586
392,3	61,586
392,8	56,329
393,2	52,9
393,7	53,671
394,1	47,157
394,6	47,7
395,1	51,529
395,5	46,871
396	48,157
396,4	44,129
396,9	42,3
397,3	46,271
397,8	39,529
398,2	32,3
398,7	29,157
399,2	28,214
399,6	29,757
400,1	22,843
400,5	20,157
401	25,329
401,4	22,786
401,9	26,157
402,4	27,586
402,8	31,786
403,3	36,957
403,7	35,1
404,2	30,414
404,6	30,729
405,1	31,071
405,5	32,043
406	33,1
406,5	33,957
406,9	40,929
407,4	43,786
407,8	49,5
408,3	51,214
408,7	44,843
409,2	41,671
409,6	42,957
410,1	36,957
410,6	35,9
411	39,243
411,5	38,471
411,9	41,271
412,4	46,243
412,8	43,1
413,3	44,586
413,7	47,986
414,2	46,7
414,7	45,729
415,1	52,071
415,6	48,357
416	56,386
416,5	64,786
416,9	69,614
417,4	74,386
417,8	82,357
418,3	84,186
418,8	89,643
419,2	91,757
419,7	91,186
420,1	89,1
420,6	89,7
421	87,757
421,5	92,043
421,9	95,014
422,4	95,814
422,8	97,071
423,3	100,9
423,8	102,386
424,2	103,471
424,7	103,843
425,1	99,614
425,6	98,786
426	99,157
426,5	100,3
426,9	99,871
427,4	106,814
427,9	107,014
428,3	111,957
428,8	113,814
429,2	114,957
429,7	118,329
430,1	114,529
430,6	106,757
431	105,814
431,5	108,129
431,9	109,7
432,4	108,957
432,8	111,071
433,3	119,5
433,8	131,529
434,2	134,814
434,7	134,5
435,1	142,957
435,6	148,471
436	151,1
436,5	154,929
436,9	157,871
437,4	167,243
437,8	171,929
438,3	181,729
438,8	193,9
439,2	205,157
439,7	217,414
440,1	224,414
440,6	230,471
441	245,386
441,5	248,557
441,9	255,929
442,4	265,271
442,8	272,157
443,3	284,957
443,7	292,557
444,2	302,5
444,7	314,414
445,1	326,614
445,6	338,071
446	353,357
446,5	370,157
446,9	395,043
447,4	415,329
447,8	434,1
448,3	449,014
448,7	470,186
449,2	488,157
449,6	504,529
450,1	517,1
450,6	537,9
451	557,1
451,5	580,186
451,9	602,443
452,4	628,529
452,8	653,671
453,3	680,214
453,7	698,786
454,2	722,671
454,6	748,443
455,1	774,271
455,5	800,214
456	824,7
456,4	853,414
456,9	887,529
457,3	920,414
457,8	951,843
458,3	974,271
458,7	1007,071
459,2	1035,614
459,6	1067,271
460,1	1100,214
460,5	1128,214
461	1164,014
461,4	1203,414
461,9	1233,157
462,3	1272,586
462,8	1308,357
463,2	1335,729
463,7	1379,614
464,1	1417,1
464,6	1449,129
465	1487,814
465,5	1523,014
466	1567,471
466,4	1610,843
466,9	1649,214
467,3	1683,014
467,8	1730,957
468,2	1771,814
468,7	1819,7
469,1	1856,329
469,6	1898,871
470	1939,529
470,5	1984,7
470,9	2023,3
471,4	2066,871
471,8	2105,386
472,3	2143,814
472,7	2183,471
473,2	2216,7
473,6	2255,957
474,1	2297,786
474,5	2337,471
475	2378,3
475,4	2420,357
475,9	2462,929
476,4	2511,9
476,8	2559,3
477,3	2603,814
477,7	2647,271
478,2	2686,557
478,6	2727,014
479,1	2767,071
479,5	2806,529
480	2837,214
480,4	2873,329
480,9	2910,5
481,3	2943,186
481,8	2980,643
482,2	3015,186
482,7	3050,814
483,1	3086,186
483,6	3121,843
484	3149,3
484,5	3187,9
484,9	3218,414
485,4	3249,386
485,8	3280,329
486,3	3311,529
486,7	3338,529
487,2	3377,986
487,6	3401,329
488,1	3425,157
488,5	3451,643
489	3476,614
489,4	3502,529
489,9	3523,1
490,4	3538,729
490,8	3563,871
491,3	3588,7
491,7	3606,957
492,2	3624,1
492,6	3641,243
493,1	3663,614
493,5	3684,671
494	3712,357
494,4	3728,614
494,9	3751,129
495,3	3766,043
495,8	3789,271
496,2	3804,729
496,7	3818,986
497,1	3822,243
497,6	3841,157
498	3855,729
498,5	3870,586
498,9	3877,557
499,4	3891,214
499,8	3904,3
500,3	3922,671
500,7	3933,843
501,2	3945,614
501,6	3961,043
502,1	3978,786
502,5	3989,129
503	3994,929
503,4	4001,557
503,9	4008,5
504,3	4018,243
504,8	4027,843
505,2	4035,557
505,7	4044,957
506,1	4050,071
506,6	4046,271
507	4056,614
507,5	4064,471
507,9	4072,814
508,4	4078,529
508,8	4084,643
509,3	4102,5
509,7	4122,957
510,2	4134,129
510,6	4137,843
511,1	4145,843
511,5	4151,1
512	4158,329
512,4	4161,986
512,9	4163,129
513,3	4163,157
513,8	4173,586
514,2	4175,1
514,7	4175,443
515,1	4178,814
515,6	4192,929
516	4197,357
516,5	4199,586
516,9	4199,7
517,4	4215,471
517,8	4228,557
518,3	4233,186
518,7	4222,357
519,2	4235,529
519,6	4250,243
520,1	4262,443
520,5	4254,357
521	4255,186
521,4	4266,5
521,9	4274,014
522,3	4279,529
522,8	4284,186
523,2	4292,671
523,7	4307,671
524,1	4312,671
524,6	4314,957
525	4323,843
525,5	4328,729
525,9	4338,129
526,4	4343,129
526,8	4351,786
527,3	4363,586
527,7	4379,729
528,2	4391,071
528,6	4401,443
529,1	4413,186
529,5	4420,614
530	4429,271
530,4	4439,357
530,9	4446,929
531,3	4454,329
531,8	4452,186
532,2	4456,614
532,6	4470,186
533,1	4466,329
533,5	4474,586
534	4477,929
534,4	4485,471
534,9	4505,9
535,3	4522,529
535,8	4535,129
536,2	4553,471
536,7	4566,129
537,1	4575,5
537,6	4591,129
538	4603,014
538,5	4608,157
538,9	4613,357
539,4	4621,643
539,8	4629,3
540,3	4643,243
540,7	4648,9
541,2	4660,414
541,6	4666,214
542,1	4670,471
542,5	4681,9
543	4687,814
543,4	4693,586
543,9	4712,814
544,3	4721,271
544,8	4733,443
545,2	4746,186
545,7	4752,643
546,1	4763,1
546,5	4772,814
547	4779,3
547,4	4786,9
547,9	4789,786
548,3	4798,757
548,8	4808,614
549,2	4824,986
549,7	4838,786
550,1	4842,214
550,6	4854,1
551	4868,614
551,5	4877,557
551,9	4885,757
552,4	4889,871
552,8	4896,586
553,3	4899,471
553,7	4907,043
554,2	4915,157
554,6	4925,214
555,1	4934,414
555,5	4940,129
555,9	4946,871
556,4	4965,186
556,8	4974,986
557,3	4980,614
557,7	4982,386
558,2	4995,329
558,6	5008,614
559,1	5015,329
559,5	5021,243
560	5025,386
560,4	5032,871
560,9	5034,871
561,3	5034,814
561,8	5039,9
562,2	5043,386
562,7	5043,157
563,1	5047,071
563,6	5053,014
564	5063,814
564,4	5066,929
564,9	5072,271
565,3	5078,443
565,8	5090,586
566,2	5093,1
566,7	5098,7
567,1	5105,271
567,6	5114,529
568	5109,929
568,5	5114,5
568,9	5118,157
569,4	5122,9
569,8	5120,043
570,3	5119,129
570,7	5125,214
571,1	5130,586
571,6	5137,557
572	5138,871
572,5	5138,3
572,9	5147,929
573,4	5149,586
573,8	5151,5
574,3	5161,157
574,7	5154,129
575,2	5148,814
575,6	5157,814
576,1	5151,957
576,5	5155,271
576,9	5146,529
577,4	5138,357
577,8	5133,186
578,3	5135,129
578,7	5121,214
579,2	5114,243
579,6	5111,414
580,1	5111,386
580,5	5112,271
581	5107,9
581,4	5102,957
581,9	5095,986
582,3	5096,014
582,7	5077,5
583,2	5073,129
583,6	5057,071
584,1	5058,614
584,5	5047,871
585	5041,986
585,4	5032,071
585,9	5029,586
586,3	5011,929
586,8	5003,586
587,2	4992,357
587,6	4981,586
588,1	4975,614
588,5	4968,929
589	4956,414
589,4	4950,643
589,9	4943,814
590,3	4940,271
590,8	4932,986
591,2	4925,5
591,7	4917,5
592,1	4911,757
592,5	4904,443
593	4897,414
593,4	4887,014
593,9	4883,757
594,3	4878,186
594,8	4870,529
595,2	4870,929
595,7	4862,443
596,1	4858,5
596,6	4851,9
597	4841,414
597,4	4829,129
597,9	4821,271
598,3	4808,843
598,8	4803,271
599,2	4797,1
599,7	4786,329
600,1	4779,986
600,6	4769,643
601	4758,843
601,4	4754,614
601,9	4743,529
602,3	4728,814
602,8	4720,814
603,2	4705,157
603,7	4697,329
604,1	4683,757
604,6	4663,471
605	4658,529
605,4	4641,471
605,9	4623,271
606,3	4616,3
606,8	4606,9
607,2	4595,129
607,7	4590,786
608,1	4575,1
608,6	4569,814
609	4560,129
609,4	4549,414
609,9	4531,614
610,3	4520,586
610,8	4505,214
611,2	4490,986
611,7	4471,329
612,1	4450,443
612,6	4427,043
613	4409,3
613,4	4389,757
613,9	4372,129
614,3	4351,043
614,8	4335,643
615,2	4324,9
615,7	4316,586
616,1	4302,243
616,6	4289,729
617	4266,843
617,4	4253,843
617,9	4238,386
618,3	4215,7
618,8	4193,843
619,2	4181,671
619,7	4167,243
620,1	4155,014
620,5	4136,014
621	4119,557
621,4	4107,957
621,9	4088,471
622,3	4069,386
622,8	4047,671
623,2	4023,786
623,6	4002,814
624,1	3983,043
624,5	3959,214
625	3944,186
625,4	3920,5
625,9	3903,5
626,3	3895,7
626,8	3881,5
627,2	3862,071
627,6	3850,1
628,1	3832,214
628,5	3815,7
629	3791,071
629,4	3765,843
629,9	3746,471
630,3	3730,357
630,7	3715,443
631,2	3701,129
631,6	3682,386
632,1	3669,329
632,5	3649,757
633	3632,014
633,4	3613,414
633,8	3595,614
634,3	3567,443
634,7	3554,243
635,2	3536,643
635,6	3524,957
636,1	3504,843
636,5	3485,129
636,9	3458,014
637,4	3449,043
637,8	3425,3
638,3	3402,157
638,7	3383,186
639,2	3367,357
639,6	3353,643
640	3340,214
640,5	3316,814
640,9	3299,529
641,4	3285,643
641,8	3269,414
642,2	3252,729
642,7	3227,014
643,1	3203,214
643,6	3187,129
644	3179,243
644,5	3168,9
644,9	3152,986
645,3	3132,957
645,8	3116,586
646,2	3105,986
646,7	3088,757
647,1	3067,986
647,6	3041,157
648	3022,157
648,4	3007,243
648,9	2998,271
649,3	2985,443
649,8	2973,043
650,2	2957,043
650,6	2950,243
651,1	2942,529
651,5	2927,729
652	2914,529
652,4	2899,414
652,9	2884,729
653,3	2868,586
653,7	2854,271
654,2	2832,329
654,6	2816,786
655,1	2799,357
655,5	2781,757
655,9	2764,529
656,4	2749,643
656,8	2728,757
657,3	2712,243
657,7	2699,3
658,2	2683,9
658,6	2670,3
659	2656,186
659,5	2639,843
659,9	2624,814
660,4	2610,986
660,8	2595,586
661,2	2576,757
661,7	2558,614
662,1	2544,3
662,6	2529,186
663	2515,9
663,4	2500,357
663,9	2480,7
664,3	2478,843
664,8	2462,557
665,2	2441,214
665,6	2424,157
666,1	2407,614
666,5	2388,643
667	2378,843
667,4	2351,157
667,9	2341,9
668,3	2327,186
668,7	2309,014
669,2	2292,243
669,6	2278,329
670,1	2259,7
670,5	2245,071
670,9	2228,129
671,4	2215,557
671,8	2204,929
672,3	2191,1
672,7	2182,729
673,1	2167,5
673,6	2152,843
674	2132,786
674,5	2116,614
674,9	2099,7
675,3	2083,986
675,8	2067,386
676,2	2054,414
676,7	2041,843
677,1	2036,957
677,5	2021,986
678	2010,443
678,4	2001,243
678,9	1987,643
679,3	1977,957
679,7	1966,014
680,2	1946,157
680,6	1940,614
681,1	1932,671
681,5	1921,129
681,9	1906,9
682,4	1896,271
682,8	1882,614
683,3	1872,929
683,7	1861,757
684,1	1843,357
684,6	1822,643
685	1808,729
685,5	1795,386
685,9	1787,643
686,3	1776,1
686,8	1764,671
687,2	1755,157
687,7	1750,214
688,1	1738,529
688,5	1728,129
689	1711,271
689,4	1699,386
689,9	1683,786
690,3	1674,071
690,7	1662,1
691,2	1649,329
691,6	1633,386
692	1621,757
692,5	1611,529
692,9	1597,071
693,4	1583,557
693,8	1576,471
694,2	1570,357
694,7	1562,529
695,1	1560,329
695,6	1550,186
696	1542,186
696,4	1536,386
696,9	1521,643
697,3	1507,157
697,8	1498,786
698,2	1481,329
698,6	1466,3
699,1	1459,5
699,5	1440,671
699,9	1432,014
700,4	1425,071
700,8	1412,929
701,3	1407,043
701,7	1400,214
702,1	1384,9
702,6	1382,3
703	1371,814
703,5	1360,557
703,9	1344,9
704,3	1335,9
704,8	1330,614
705,2	1325,1
705,6	1315,129
706,1	1306,529
706,5	1302,214
707	1301,814
707,4	1296,3
707,8	1279,729
708,3	1274,443
708,7	1263,1
709,2	1257,557
709,6	1246,3
710	1234,271
710,5	1222,586
710,9	1218,9
711,3	1202,443
711,8	1191,814
712,2	1178,443
712,7	1170,129
713,1	1159,671
713,5	1144,186
714	1139,586
714,4	1138,614
714,8	1134,043
715,3	1128,557
715,7	1119,071
716,2	1113,957
716,6	1110,757
717	1098,071
717,5	1082,243
717,9	1075,157
718,3	1068,414
718,8	1063,329
719,2	1054,871
719,7	1045,357
720,1	1042,329
720,5	1041,557
721	1028,243
721,4	1020,786
721,8	1013,157
722,3	1006,071
722,7	1000,871
723,2	987,671
723,6	978,7
724	973,014
724,5	958,843
724,9	952,3
725,3	942,1
725,8	932,871
726,2	920,129
726,7	914,186
727,1	911,243
727,5	906,243
728	897,786
728,4	894,414
728,8	886,986
729,3	885,929
729,7	878,414
730,1	868,814
730,6	864,014
731	861,414
731,5	853,443
731,9	849,071
732,3	843,1
732,8	837,271
733,2	833,957
733,6	827,614
734,1	820,5
734,5	817,814
734,9	812,071
735,4	810,7
735,8	803,643
736,3	803,929
736,7	799,014
737,1	794,471
737,6	789,643
738	785,414
738,4	779,414
738,9	774,157
739,3	762,614
739,7	759,614
740,2	753,814
740,6	750,414
741,1	744,529
741,5	739,957
741,9	738,757
742,4	736,271
742,8	728,043
743,2	723,786
743,7	715,271
744,1	714,214
744,5	709,929
745	701,957
745,4	696,7
745,8	694,357
746,3	689,357
746,7	688,7
747,2	683,843
747,6	675,614
748	676,386
748,5	671,671
748,9	666,357
749,3	655,1
749,8	651,5
750,2	649,071
750,6	650,386
751,1	643,5
751,5	637,843
751,9	634,9
752,4	636,757
752,8	629,986
753,3	618,614
753,7	606,1
754,1	597,243
754,6	597,843
755	592,014
755,4	590,1
755,9	586,414
756,3	586,786
756,7	590,443
757,2	589,929
757,6	582,9
758	579,786
758,5	569,471
758,9	561,5
759,3	552,586
759,8	542,671
760,2	536,1
760,6	530,843
761,1	525,1
761,5	525,1
761,9	522,7
762,4	523,357
762,8	520,329
763,3	516,814
763,7	511,071
764,1	510,529
764,6	505,586
765	502,214
765,4	497,329
765,9	496,129
766,3	489,3
766,7	487,643
767,2	486,871
767,6	488,614
768	488,671
768,5	489,014
768,9	483,5
769,3	486,043
769,8	484,814
770,2	478,729
770,6	472,414
771,1	464,214
771,5	458,786
771,9	462,814
772,4	458,014
772,8	452,386
773,2	448,929
773,7	441,957
774,1	442,071
774,5	433,186
775	424,1
775,4	417,814
775,8	419,814
776,3	418,586
776,7	417,614
777,1	409,414
777,6	406,614
778	404,671
778,4	404,729
778,9	396,386
779,3	391,786
779,7	391,243
780,2	391,843
780,6	392,414
781	384,614
781,5	381,786
781,9	379,843
782,3	376,557
782,8	373,871
783,2	369,5
783,6	369,643
784,1	368,986
784,5	369,786
784,9	368,643
785,4	365,7
785,8	362,614
786,2	360,243
786,7	354,9
787,1	353,957
787,5	350,186
788	347,186
788,4	346,186
788,8	339,557
789,3	338,214
789,7	337,043
790,1	335,157
790,6	330,671
791	327,3
791,4	326,271
791,9	325,014
792,3	324,329
792,7	316,557
793,2	319,243
793,6	317,671
794	317,243
794,5	313,843
794,9	314,1
795,3	314,529
795,8	313,529
796,2	306,929
796,6	307,957
797,1	298,414
797,5	296,843
797,9	293,157
798,4	286,786
798,8	287,329
799,2	287,7
799,7	285,586
800,1	288,043
800,5	282,5
801	283,186
801,4	284,157
801,8	277,329
802,2	272,271
802,7	265,9
803,1	266,186
803,5	267,414
804	264,529
804,4	259,014
804,8	261,214
805,3	258,786
805,7	257,671
806,1	256,3
806,6	247,757
807	243,386
807,4	241,929
807,9	242,329
808,3	238,557
808,7	235,7
809,2	231,471
809,6	237,557
810	233,3
810,4	229,157
810,9	226,529
811,3	227,271
811,7	229,014
812,2	224,986
812,6	216,357
813	210,986
813,5	205,986
813,9	203,7
814,3	202,786
814,8	196,071
815,2	194,271
815,6	196,1
816,1	198,443
816,5	205,529
816,9	199,957
817,3	197,671
817,8	197,386
818,2	197,186
818,6	193,586
819,1	194,757
819,5	185,843
819,9	188,043
820,4	186,729
820,8	185,357
821,2	183,929
821,7	184,443
822,1	181,814
822,5	184,443
822,9	179,871
823,4	181,614
823,8	177,157
824,2	178,129
824,7	180,043
825,1	173,5
825,5	173,329
826	175,014
826,4	169,3
826,8	170,214
827,3	168,329
827,7	163,157
828,1	164,929
828,5	158,1
829	158,414
829,4	152,871
829,8	149,671
830,3	147,471
830,7	141,7
831,1	148,214
831,6	151,129
832	151,471
832,4	154,843
832,8	152,357
833,3	152,643
833,7	154,729
834,1	150,471
834,6	147,443
835	144,929
835,4	142,529
835,8	145,243
836,3	141,871
836,7	142,586
837,1	139,671
837,6	139,386
838	132,443
838,4	131,329
838,9	127,471
839,3	130,957
839,7	133,471
840,1	128,843
840,6	128,014
841	130,043
841,4	127,614
841,9	126,329
842,3	118,814
842,7	108,786
843,1	113,957
843,6	114,471
844	110,957
844,4	112,214
844,9	112,843
845,3	114,329
845,7	116,614
846,2	110,643
846,6	110,443
847	111,957
847,4	105,814
847,9	108,9
848,3	110,357
848,7	109,5
849,2	111,043
849,6	103,957
850	105,9
850,4	109,643
850,9	105,186
851,3	101,014
851,7	98,986
852,2	94,443
852,6	95,929
853	89,443
853,4	88,471
853,9	86,186
854,3	86,957
854,7	91,186
855,2	97,529
855,6	97,614
856	101,129
856,4	103,871
856,9	104,9
857,3	103,529
857,7	100,414
858,2	93,986
858,6	92,414
859	84,871
859,4	81,3
859,9	82,271
860,3	76,557
860,7	74,557
861,1	72,671
861,6	74,871
862	76,957
862,4	72,9
862,9	73,471
863,3	77,729
863,7	77,929
864,1	76,157
864,6	71,614
865	73,614
865,4	75,729
865,9	73,043
866,3	71,5
866,7	72,357
867,1	76,5
867,6	78,357
868	84,014
868,4	81,557
868,8	79,214
869,3	80,843
869,7	75,471
870,1	78,814
870,6	72,271
871	61,243
871,4	58,643
871,8	58,786
872,3	56,214
872,7	58,529
873,1	52,071
873,5	57,014
874	56,186
874,4	57,157
874,8	60,186
875,3	60,357
875,7	60,614
876,1	65,557
876,5	64,129
877	67,586
877,4	69,186
877,8	67,3
878,2	65,729
878,7	66,357
879,1	59,757
879,5	58,586
879,9	61,243
880,4	66,471
880,8	63,471
881,2	62,671
881,7	58,357
882,1	58,071
882,5	61,157
882,9	54,671
883,4	47,986
883,8	48,471
884,2	46,414
884,6	50,157
885,1	51,386
885,5	47,129
885,9	50,986
886,3	51,786
886,8	49,214
887,2	48,7
887,6	44,1
888	41,157
888,5	42,357
888,9	38,5
889,3	33,1
889,8	35,586
890,2	36,643
890,6	36,614
891	36,5
891,5	32,729
891,9	35,786
892,3	40,043
892,7	39,3
893,2	40,186
893,6	41,9
894	41,614
894,4	42,757
894,9	40,786
895,3	39,643
895,7	35,443
896,1	36,614
896,6	37,957
897	35,586
897,4	37,529
897,8	36,271
898,3	36,9
898,7	34,157
899,1	34,586
899,5	33,5
900	33,3
900,4	34,1
900,8	37,129
901,2	37,843
901,7	39,757
902,1	41,157
902,5	37,243
902,9	35,5
903,4	32,586
903,8	31,814
904,2	27,986
904,6	29,9
905,1	27,386
905,5	28,471
905,9	31,157
906,3	29,814
906,8	26,7
907,2	25,357
907,6	27,414
908	21,929
908,5	20,757
908,9	20,186
909,3	19,986
909,7	20,957
910,2	23,214
910,6	16,757
911	17,929
911,4	16,786
911,9	13,729
912,3	11,5
912,7	9,557
913,1	6,3
913,6	7,157
914	10,986
914,4	6,443
914,8	10,814
915,3	11,671
915,7	17,7
916,1	21,186
916,5	26,843
916,9	24,443
917,4	30,157
917,8	26,443
918,2	31,357
918,6	27,357
919,1	24,529
919,5	19,757
919,9	20,671
920,3	22,5
920,8	26,1
921,2	25,214
921,6	24,843
922	28,071
922,5	31,443
922,9	30,014
923,3	29,271
923,7	28,757
924,2	27,7
924,6	27,671
925	25,557
925,4	26,414
925,8	27,043
926,3	25,671
926,7	27,386
927,1	23,414
927,5	25,329
928	25,443
928,4	21,357
928,8	18,471
929,2	17,529
929,7	17,014
930,1	18,586
930,5	16,014
930,9	12,414
931,3	11,043
931,8	12,243
932,2	12,614
932,6	8,843
933	8,129
933,5	9,3
933,9	10,443
934,3	16,671
934,7	14,957
935,2	20,557
935,6	23,014
936	21,643
936,4	21,271
936,8	22,443
937,3	17,7
937,7	17,614
938,1	7,386
938,5	6,271
939	7,5
939,4	3,7
939,8	6,129
940,2	8,129
940,6	8,557
941,1	13,529
941,5	10,214
941,9	14,3
942,3	17,471
942,8	18,586
943,2	18,414
943,6	21,871
944	19,414
944,4	23,871
944,9	24,186
945,3	21,757
945,7	18,271
946,1	17,757
946,6	17,129
947	17,586
947,4	12,386
947,8	10,443
948,2	10,3
948,7	6,157
949,1	11,214
949,5	7,071
949,9	5,529
950,3	8,757
950,8	9,5
951,2	11,071
951,6	12,957
952	5,471
952,5	3,414
952,9	7,471
953,3	6,729
953,7	5,443
954,1	5,843
954,6	6,1
955	6,871
955,4	13,329
955,8	13,9
956,2	15,157
956,7	14,5
957,1	8,614
957,5	11,157
957,9	11,986
958,3	9,043
958,8	5,329
959,2	3,157
959,6	-0,757
960	3,671
960,5	0,957
960,9	2,3
961,3	2,014
961,7	2,529
962,1	2,586
962,6	3,814
963	-0,129
963,4	1,1
963,8	1,414
964,2	2,671
964,7	5,271
965,1	-0,386
965,5	2,386
965,9	7,786
966,3	7,129
966,8	4,471
967,2	3,443
967,6	2,186
968	7,329
968,4	6,5
968,9	5,1
969,3	6,071
969,7	6,071
970,1	2,5
970,5	0,671
971	0,3
971,4	-3,786
971,8	-6,186
972,2	-4,014
972,6	-1,929
973,1	2,7
973,5	4,5
973,9	7,043
974,3	11,414
974,7	15,586
975,2	16,986
975,6	13,9
976	12,929
976,4	9,271
976,8	7,529
977,3	6,329
977,7	3,529
978,1	1,1
978,5	5,129
978,9	4,443
979,4	7,214
979,8	7,529
980,2	9,614
980,6	9,243
981	8,214
981,5	4,129
981,9	7,929
982,3	9,414
982,7	10,129
983,1	4,7
983,6	5,214
984	1,129
984,4	1,843
984,8	-0,557
985,2	-0,186
985,6	-1,757
986,1	2,814
986,5	-0,957
986,9	1,986
987,3	0,014
987,7	-0,643
988,2	-4,271
988,6	-2,443
989	-7,986
989,4	-2,043
989,8	-2,271
990,3	-0,157
990,7	0,443
991,1	3,329
991,5	1,643
991,9	2,043
992,3	-2,757
992,8	-2,729
993,2	-1,443
993,6	-4,871
994	-5,986
994,4	-0,186
994,9	1,1
995,3	8,157
995,7	6,186
996,1	6,871
996,5	5,129
996,9	4,986
997,4	-3,1
997,8	1,929
998,2	-0,814
998,6	6,1
999	9,929
999,5	11,557
999,9	10,786
1000,3	14,843
1000,7	16,786
1001,1	14,243
1001,5	14,357
1002	7,243
1002,4	11,7
1002,8	9,929
1003,2	10,214
1003,6	7,786
1004	9,443
1004,5	3,414
1004,9	5,214
1005,3	3,414
1005,7	6,986
1006,1	6,929
1006,6	1,414
1007	-1,443
1007,4	-1,586
1007,8	1,7
1008,2	5,129
1008,6	1,071
1009,1	0,557
1009,5	2,3
1009,9	1,757
1010,3	4,757
1010,7	3,157
1011,1	0,986
1011,6	4,7
1012	3,986
1012,4	8,529
1012,8	8,957
1013,2	8,529
1013,6	6,786
1014,1	2,471
1014,5	2,471
1014,9	7,871
1015,3	5,757
1015,7	7,957
1016,1	4,071
1016,6	-0,471
1017	2,186
1017,4	0,329
1017,8	-8,3
1018,2	-7,643
1018,6	-5,357
1019,1	-1,357
1019,5	7,129
1019,9	10,129
1020,3	9,814
1020,7	10,843
1021,1	10,014
1021,6	6,557
1022	6,186
1022,4	5,1
1022,8	2,1
1023,2	0,014
1023,6	1,157
1024,1	0,671
1024,5	0,071
1024,9	1,529
1025,3	-3,357
1025,7	-2,671
1026,1	4,871
1026,6	13,357
1027	12,957
1027,4	17,1
1027,8	14,157
1028,2	12,157
1028,6	9,843
1029	1,586
1029,5	-2,871
1029,9	0,071
1030,3	2,1
1030,7	3,757
1031,1	8,843
1031,5	14,129
1032	16,214
1032,4	14,671
1032,8	12,471
1033,2	8,786
1033,6	6,786
1034	5,043
1034,4	4,786
1034,9	10,357
1035,3	9,386
1035,7	7,471
1036,1	7,814
1036,5	8,214
1036,9	6,443
1037,4	6,986
1037,8	6,529
1038,2	7,043
1038,6	10,414
1039	10,214
1039,4	9,814
1039,8	10,929
1040,3	7,243
1040,7	3,3
1041,1	-0,414
1041,5	3,214
1041,9	-0,529
1042,3	-0,871
1042,7	-2,7
1043,2	-4,014
1043,6	2,871
1044	9,9
1044,4	4,3
1044,8	7,757
1045,2	11,243
1045,6	9,471
1046,1	10,357
1046,5	7,243
1046,9	7,3
1047,3	7,129
1047,7	9,1
1048,1	5,071
1048,5	12,1
1049	15,129
1049,4	11,243
1049,8	6,043
1050,2	7,557
1050,6	4,786
1051	4,3
1051,4	0,214
1051,9	-6,214
1052,3	-7,586
1052,7	-6,786
1053,1	-7,386
1053,5	-8,9
1053,9	-5,814
1054,3	-4,729
1054,8	1,157
1055,2	-2,414
1055,6	1,1
1056	-3,529
1056,4	-1,814
1056,8	-2,043
1057,2	-4,071
1057,6	-1,729
1058,1	6,529
1058,5	3,614
1058,9	5,3
1059,3	5,071
1059,7	3,729
1060,1	5,729
1060,5	-3,271
1061	-6,7
1061,4	-4,157
1061,8	-2,471
1062,2	-6,471
1062,6	-3,557
1063	-1,614
1063,4	4,243
1063,8	4,471
1064,3	1,186
1064,7	3,7
1065,1	6,014
1065,5	1,986
1065,9	3,271
1066,3	1,7
1066,7	0,557
1067,1	-0,671
1067,6	0,986
1068	3,729
1068,4	6,9
1068,8	1,1
1069,2	2,986
1069,6	5,214
1070	5,386
1070,4	4,443
1070,9	4,414
1071,3	6,071
1071,7	8,014
1072,1	6,471
1072,5	8,814
1072,9	12,014
1073,3	11,814
1073,7	14,414
1074,2	14,129
1074,6	10,214
1075	10,071
1075,4	6,7
1075,8	4,586
1076,2	3,7
1076,6	0,414
1077	-1,414
1077,5	3,729
1077,9	6,414
1078,3	7,471
1078,7	6,986
1079,1	10,243
1079,5	7,129
1079,9	4,871
1080,3	2,7
1080,7	-1,929
1081,2	-0,7
1081,6	1,586
1082	-1,271
1082,4	-1,357
1082,8	-0,529
1083,2	3,443
1083,6	4,757
1084	5,757
1084,5	6,043
1084,9	2,414
1085,3	4,357
1085,7	8,986
1086,1	9,329
1086,5	5,843
1086,9	3,414
1087,3	1,614
1087,7	3,9
1088,2	6,329
1088,6	6,186
1089	4,271
1089,4	6,843
1089,8	5,586
1090,2	3,157
1090,6	4,7
1091	2,014
1091,4	-1,043
1091,9	-0,071
1092,3	3,957
1092,7	5,5
1093,1	8,871
1093,5	5,186
1093,9	7,014
1094,3	5,9
1094,7	4,843
1095,1	2,071
1095,5	-0,786
1096	-1,557
1096,4	-0,671
1096,8	-0,871
1097,2	1,271
1097,6	3,529
1098	5,157
1098,4	6,814
1098,8	5,586
1099,2	3,471
1099,6	2,814
1100,1	2,443
1100,5	-0,5
1100,9	-1,386
1101,3	-0,129
1101,7	-1,957
1102,1	3,671
1102,5	0,243
1102,9	-2,7
1103,3	1,929
1103,7	1,471
1104,2	0,529
1104,6	7,586
1105	7,986
1105,4	10,871
1105,8	12,814
1106,2	7,786
1106,6	7,186
1107	7,729
1107,4	3,867
1107,8	-0,18
1108,3	-0,1
