Data from Subt2_00063.txt Node
Date: Mon Aug 28 13:26:01 MSK 2023
User: vat
Spectrometer: MAYP114033
Trigger mode: 0
Integration Time (sec): 1,000000E0
Scans to average: 5
Electric dark correction enabled: true
Nonlinearity correction enabled: false
Boxcar width: 3
XAxis mode: Wavelengths
Number of Pixels in Spectrum: 2068
>>>>>Begin Spectral Data<<<<<
199,4	-0,183
199,9	-4,493
200,4	-5,533
200,8	-3,533
201,3	-1,933
201,8	-0,733
202,2	1,752
202,7	1,924
203,2	6,324
203,6	9,695
204,1	10,581
204,6	9,352
205	8,952
205,5	7,524
206	10,295
206,4	10,324
206,9	10,495
207,4	9,438
207,8	4,895
208,3	2,952
208,8	0,152
209,2	2,524
209,7	1,01
210,2	0,695
210,6	-0,076
211,1	11,952
211,5	14,552
212	15,667
212,5	9,152
212,9	9,095
213,4	8,524
213,9	11,067
214,3	6,952
214,8	10,124
215,3	12,438
215,7	16,61
216,2	14,895
216,7	18,838
217,1	13,695
217,6	9,324
218,1	7,638
218,5	7,952
219	9,352
219,5	13,724
219,9	8,781
220,4	14,267
220,9	16,152
221,3	14,895
221,8	15,838
222,3	17,724
222,7	19,21
223,2	15,152
223,6	11,01
224,1	11,695
224,6	16,752
225	16,781
225,5	9,038
226	6,981
226,4	15,41
226,9	17,095
227,4	21,552
227,8	14,381
228,3	8,324
228,8	13,21
229,2	11,61
229,7	8,381
230,2	10,838
230,6	4,324
231,1	6,838
231,5	9,438
232	6,524
232,5	5,267
232,9	3,952
233,4	1,352
233,9	3,324
234,3	4,638
234,8	3,352
235,3	6,952
235,7	9,981
236,2	11,581
236,7	8,524
237,1	10,781
237,6	10,324
238,1	14,752
238,5	13,41
239	12,495
239,4	13,324
239,9	16,152
240,4	12,952
240,8	14,21
241,3	12,924
241,8	10,981
242,2	6,981
242,7	4,181
243,2	7,952
243,6	13,095
244,1	3,924
244,6	0,895
245	1,181
245,5	2,61
245,9	4,581
246,4	1,238
246,9	-3,105
247,3	4,41
247,8	4,867
248,3	6,552
248,7	8,324
249,2	7,867
249,7	9,895
250,1	4,752
250,6	1,81
251	3,21
251,5	3,41
252	2,181
252,4	2,495
252,9	0,495
253,4	8,152
253,8	8,438
254,3	9,352
254,8	8,181
255,2	8,638
255,7	6,352
256,1	6,01
256,6	1,81
257,1	4,067
257,5	0,038
258	-1,562
258,5	1,295
258,9	-0,048
259,4	1,981
259,9	-5,162
260,3	-6,762
260,8	-6,848
261,2	-2,676
261,7	-0,59
262,2	3,981
262,6	5,124
263,1	10,952
263,6	11,21
264	15,638
264,5	14,238
264,9	9,752
265,4	6,981
265,9	1,381
266,3	1,895
266,8	2,267
267,3	-3,476
267,7	-6,733
268,2	-6,762
268,7	-2,133
269,1	0,695
269,6	3,867
270	-3,79
270,5	5,467
271	5,238
271,4	1,724
271,9	-6,648
272,4	-3,162
272,8	-3,876
273,3	1,467
273,7	-4,133
274,2	-5,162
274,7	-1,619
275,1	2,181
275,6	3,638
276,1	4,924
276,5	5,895
277	8,038
277,4	9,352
277,9	8,61
278,4	7,867
278,8	5,41
279,3	4,495
279,8	3,524
280,2	8,867
280,7	11,21
281,1	11,495
281,6	11,924
282,1	9,952
282,5	8,267
283	10,324
283,4	7,095
283,9	4,324
284,4	8,61
284,8	7,552
285,3	6,381
285,8	6,21
286,2	3,067
286,7	0,095
287,1	-3,133
287,6	-7,79
288,1	-2,162
288,5	-2,676
289	-2,219
289,5	2,067
289,9	0,838
290,4	6,124
290,8	7,01
291,3	5,352
291,8	3,981
292,2	2,524
292,7	1,067
293,1	2,238
293,6	-1,848
294,1	2,381
294,5	0,095
295	3,038
295,5	4,924
295,9	3,667
296,4	5,752
296,8	8,152
297,3	9,124
297,8	15,267
298,2	15,295
298,7	13,181
299,1	14,152
299,6	15,295
300,1	18,295
300,5	11,21
301	6,867
301,5	9,152
301,9	11,324
302,4	10,495
302,8	9,152
303,3	13,41
303,8	19,61
304,2	19,695
304,7	11,61
305,1	12,552
305,6	10,61
306,1	9,152
306,5	2,01
307	-1,59
307,4	-4,476
307,9	1,238
308,4	-2,19
308,8	1,752
309,3	4,438
309,8	5,924
310,2	4,324
310,7	7,124
311,1	6,924
311,6	7,524
312,1	7,01
312,5	4,095
313	1,952
313,4	5,438
313,9	1,21
314,4	-1,048
314,8	0,667
315,3	1,667
315,7	2,152
316,2	3,067
316,7	4,267
317,1	6,552
317,6	8,438
318	11,695
318,5	11,067
319	13,924
319,4	16,981
319,9	10,781
320,3	11,124
320,8	8,924
321,3	3,295
321,7	2,695
322,2	-3,476
322,6	-5,933
323,1	-4,533
323,6	-1,505
324	-2,105
324,5	3,381
324,9	8,438
325,4	9,038
325,9	7,267
326,3	7,324
326,8	3,867
327,2	5,352
327,7	1,752
328,2	-1,019
328,6	-1,248
329,1	-4,362
329,5	-2,105
330	0,581
330,5	6,981
330,9	5,61
331,4	3,352
331,8	3,495
332,3	7,038
332,8	4,352
333,2	4,152
333,7	-5,19
334,1	-8,819
334,6	-9,676
335,1	-4,419
335,5	-2,419
336	2,695
336,4	-0,848
336,9	5,238
337,4	8,667
337,8	7,895
338,3	8,895
338,7	5,067
339,2	-0,276
339,7	0,667
340,1	-2,419
340,6	0,124
341	2,038
341,5	-2,676
342	0,667
342,4	-5,19
342,9	-3,933
343,3	1,238
343,8	2,267
344,2	4,124
344,7	3,381
345,2	2,124
345,6	9,152
346,1	9,952
346,5	5,21
347	2,981
347,5	4,667
347,9	3,81
348,4	8,867
348,8	12,095
349,3	9,724
349,8	9,381
350,2	12,61
350,7	12,352
351,1	14,838
351,6	10,838
352	7,324
352,5	13,067
353	20,124
353,4	24,495
353,9	32,324
354,3	46,81
354,8	53,952
355,3	69,61
355,7	79,695
356,2	92,895
356,6	107,981
357,1	122,381
357,5	135,124
358	164,895
358,5	186,01
358,9	215,581
359,4	248,095
359,8	283,524
360,3	322,21
360,8	370,581
361,2	420,61
361,7	480,095
362,1	542,581
362,6	610,552
363	688,81
363,5	767,667
364	851,038
364,4	931,152
364,9	1013,095
365,3	1097,524
365,8	1186,238
366,3	1255,381
366,7	1322,095
367,2	1376,438
367,6	1425,152
368,1	1462,495
368,5	1486,638
369	1483,495
369,5	1482,981
369,9	1470,01
370,4	1444,752
370,8	1408,267
371,3	1365,038
371,7	1314,152
372,2	1258,267
372,7	1199,181
373,1	1138,924
373,6	1072,638
374	1008,295
374,5	944,324
374,9	879,752
375,4	819,067
375,9	757,152
376,3	691,067
376,8	637,438
377,2	588,181
377,7	537,952
378,2	494,981
378,6	456,838
379,1	413,295
379,5	383,238
380	350,552
380,4	320,152
380,9	293,152
381,4	269,41
381,8	245,01
382,3	229,838
382,7	215,152
383,2	198,095
383,6	184,838
384,1	176,095
384,6	160,238
385	153,981
385,5	144,495
385,9	130,495
386,4	129,781
386,8	119,467
387,3	107,381
387,7	102,838
388,2	91,752
388,7	85,981
389,1	84,181
389,6	73,581
390	70,381
390,5	68,667
390,9	64,581
391,4	62,152
391,9	57,467
392,3	55,981
392,8	59,581
393,2	59,61
393,7	57,152
394,1	51,695
394,6	51,038
395,1	55,038
395,5	52,695
396	45,467
396,4	38,324
396,9	37,381
397,3	40,752
397,8	35,524
398,2	29,438
398,7	25,695
399,2	26,667
399,6	29,667
400,1	26,695
400,5	26,867
401	34,838
401,4	33,152
401,9	36,895
402,4	32,152
402,8	34,867
403,3	39,21
403,7	36,438
404,2	33,038
404,6	35,495
405,1	39,152
405,5	44,467
406	43,181
406,5	41,067
406,9	47,924
407,4	46,01
407,8	46,21
408,3	39,638
408,7	35,667
409,2	33,895
409,6	34,352
410,1	30,21
410,6	29,238
411	29,781
411,5	29,952
411,9	33,324
412,4	39,981
412,8	41,438
413,3	42,667
413,7	48,524
414,2	50,267
414,7	53,352
415,1	56,295
415,6	52,295
416	56,81
416,5	63,124
416,9	69,61
417,4	74,895
417,8	82,095
418,3	86,152
418,8	92,495
419,2	94,695
419,7	93,81
420,1	86,924
420,6	87,238
421	85,981
421,5	88,895
421,9	89,381
422,4	91,295
422,8	88,295
423,3	98,895
423,8	99,752
424,2	97,981
424,7	97,552
425,1	95,381
425,6	90,781
426	96,924
426,5	90,81
426,9	89,838
427,4	97,01
427,9	95,324
428,3	96,181
428,8	102,81
429,2	104,695
429,7	108,581
430,1	114,552
430,6	108,01
431	108,238
431,5	112,238
431,9	111,267
432,4	107,181
432,8	114,124
433,3	113,295
433,8	122,781
434,2	127,867
434,7	130,895
435,1	141,295
435,6	143,381
436	143,352
436,5	148,895
436,9	152,695
437,4	159,324
437,8	164,952
438,3	171,238
438,8	187,381
439,2	194,21
439,7	204,267
440,1	212,21
440,6	224,124
441	232,924
441,5	238,238
441,9	243,01
442,4	254,61
442,8	265,81
443,3	273,981
443,7	278,181
444,2	293,467
444,7	304,61
445,1	318,295
445,6	331,924
446	343,238
446,5	360,038
446,9	380,352
447,4	394,81
447,8	412,01
448,3	428,924
448,7	445,01
449,2	465,181
449,6	483,895
450,1	500,21
450,6	522,895
451	541,61
451,5	566,724
451,9	587,067
452,4	606,152
452,8	626,867
453,3	646,41
453,7	664,581
454,2	689,467
454,6	707,267
455,1	733,324
455,5	757,352
456	785,438
456,4	814,552
456,9	843,438
457,3	869,038
457,8	900,895
458,3	927,552
458,7	957,21
459,2	985,124
459,6	1021,438
460,1	1053,238
460,5	1085,61
461	1116,152
461,4	1151,581
461,9	1183,61
462,3	1220,21
462,8	1250,638
463,2	1285,124
463,7	1323,867
464,1	1359,352
464,6	1392,467
465	1429,495
465,5	1464,667
466	1503,438
466,4	1543,152
466,9	1579,324
467,3	1616,61
467,8	1662,838
468,2	1700,724
468,7	1743,41
469,1	1784,724
469,6	1818,238
470	1859,552
470,5	1899,895
470,9	1936,038
471,4	1983,981
471,8	2023,295
472,3	2059,81
472,7	2099,867
473,2	2136,581
473,6	2177,524
474,1	2219,152
474,5	2252,981
475	2286,495
475,4	2323,695
475,9	2363,81
476,4	2402,695
476,8	2441,781
477,3	2473,581
477,7	2516,038
478,2	2559,524
478,6	2595,61
479,1	2637,895
479,5	2678,295
480	2715,981
480,4	2755,752
480,9	2792,581
481,3	2822,867
481,8	2859,924
482,2	2891,667
482,7	2923,067
483,1	2952,324
483,6	2984,124
484	3010,552
484,5	3049,267
484,9	3079,467
485,4	3110,438
485,8	3139,524
486,3	3166,895
486,7	3192,067
487,2	3224,01
487,6	3240,381
488,1	3271,352
488,5	3289,467
489	3320,124
489,4	3351,238
489,9	3376,238
490,4	3395,01
490,8	3425,181
491,3	3445,695
491,7	3466,352
492,2	3475,952
492,6	3493,324
493,1	3511,81
493,5	3532,21
494	3550,21
494,4	3564,495
494,9	3588,924
495,3	3611,838
495,8	3628,381
496,2	3649,324
496,7	3664,267
497,1	3677,181
497,6	3692,438
498	3704,952
498,5	3715,01
498,9	3731,495
499,4	3740,924
499,8	3748,124
500,3	3762,495
500,7	3773,238
501,2	3786,895
501,6	3798,352
502,1	3801,724
502,5	3808,381
503	3826,152
503,4	3833,667
503,9	3844,838
504,3	3852,238
504,8	3861,152
505,2	3874,61
505,7	3881,41
506,1	3880,667
506,6	3890,038
507	3898,838
507,5	3910,467
507,9	3920,41
508,4	3925,867
508,8	3938,467
509,3	3952,61
509,7	3953,61
510,2	3961,152
510,6	3959,952
511,1	3964,895
511,5	3968,152
512	3965,238
512,4	3968,524
512,9	3981,895
513,3	3979,552
513,8	3989,752
514,2	3990,124
514,7	3998,695
515,1	4009,552
515,6	4019,752
516	4023,152
516,5	4027,724
516,9	4030,152
517,4	4042,238
517,8	4041,038
518,3	4048,61
518,7	4046,981
519,2	4051,438
519,6	4058,152
520,1	4068,752
520,5	4073,095
521	4080,352
521,4	4083,067
521,9	4089,667
522,3	4095,581
522,8	4098,952
523,2	4103,952
523,7	4108,495
524,1	4112,552
524,6	4121,838
525	4131,01
525,5	4136,238
525,9	4158,524
526,4	4161,038
526,8	4163,895
527,3	4178,352
527,7	4190,724
528,2	4195,381
528,6	4204,552
529,1	4203,867
529,5	4209,895
530	4221,095
530,4	4227,952
530,9	4227,667
531,3	4236,095
531,8	4237,952
532,2	4243,524
532,6	4254,752
533,1	4261,781
533,5	4262,724
534	4273,952
534,4	4278,152
534,9	4291,41
535,3	4304,752
535,8	4317,924
536,2	4326,124
536,7	4343,152
537,1	4358,781
537,6	4375,41
538	4388,638
538,5	4398,867
538,9	4404,781
539,4	4421,495
539,8	4427,01
540,3	4430,752
540,7	4434,181
541,2	4441,467
541,6	4442,467
542,1	4440,981
542,5	4448,781
543	4458,181
543,4	4462,752
543,9	4470,638
544,3	4478,295
544,8	4486,238
545,2	4496,41
545,7	4503,895
546,1	4516,981
546,5	4526,124
547	4541,267
547,4	4548,181
547,9	4564,867
548,3	4582,952
548,8	4589,238
549,2	4601,352
549,7	4615,495
550,1	4617,21
550,6	4621,724
551	4625,781
551,5	4631,724
551,9	4639,667
552,4	4638,524
552,8	4642,21
553,3	4654,781
553,7	4666,01
554,2	4679,038
554,6	4691,495
555,1	4700,724
555,5	4713,152
555,9	4720,552
556,4	4728,524
556,8	4740,695
557,3	4747,267
557,7	4750,381
558,2	4761,067
558,6	4760,724
559,1	4772,495
559,5	4782,438
560	4785,01
560,4	4790,067
560,9	4794,324
561,3	4798,124
561,8	4807,181
562,2	4812,752
562,7	4811,552
563,1	4816,667
563,6	4825,952
564	4836,752
564,4	4840,924
564,9	4846,038
565,3	4847,724
565,8	4857,724
566,2	4861,581
566,7	4867,067
567,1	4860,81
567,6	4864,981
568	4871,467
568,5	4874,124
568,9	4882,324
569,4	4884,295
569,8	4877,01
570,3	4885,895
570,7	4889,981
571,1	4886,895
571,6	4887,324
572	4882,095
572,5	4879,638
572,9	4879,381
573,4	4880,238
573,8	4881,01
574,3	4890,381
574,7	4896,324
575,2	4894,867
575,6	4902,467
576,1	4898,038
576,5	4898,81
576,9	4899,181
577,4	4894,924
577,8	4886,924
578,3	4880,981
578,7	4874,21
579,2	4876,924
579,6	4874,21
580,1	4866,981
580,5	4861,381
581	4856,524
581,4	4861,067
581,9	4851,667
582,3	4847,524
582,7	4839,352
583,2	4830,41
583,6	4819,867
584,1	4813,067
584,5	4797,295
585	4793,324
585,4	4788,61
585,9	4781,867
586,3	4771,895
586,8	4767,695
587,2	4761,524
587,6	4758,781
588,1	4747,524
588,5	4741,752
589	4735,381
589,4	4728,038
589,9	4723,81
590,3	4712,61
590,8	4701,667
591,2	4702,638
591,7	4689,867
592,1	4686,238
592,5	4681,895
593	4670,781
593,4	4669,352
593,9	4665,838
594,3	4665,124
594,8	4665,295
595,2	4647,524
595,7	4639,21
596,1	4629,467
596,6	4622,524
597	4614,924
597,4	4598,667
597,9	4582,952
598,3	4575,095
598,8	4570,61
599,2	4568,924
599,7	4564,01
600,1	4554,581
600,6	4542,638
601	4538,124
601,4	4531,952
601,9	4521,695
602,3	4509,695
602,8	4493,467
603,2	4485,495
603,7	4479,067
604,1	4459,61
604,6	4445,752
605	4435,695
605,4	4419,152
605,9	4406,238
606,3	4396,61
606,8	4379,495
607,2	4372,238
607,7	4359,752
608,1	4345,924
608,6	4336,895
609	4326,752
609,4	4304,581
609,9	4294,724
610,3	4281,867
610,8	4272,638
611,2	4259,324
611,7	4244,667
612,1	4229,581
612,6	4218,895
613	4199,381
613,4	4186,667
613,9	4173,638
614,3	4158,752
614,8	4140,01
615,2	4120,181
615,7	4103,238
616,1	4094,324
616,6	4082,524
617	4064,467
617,4	4044,01
617,9	4032,838
618,3	4021,924
618,8	4012,124
619,2	3994,381
619,7	3976,838
620,1	3959,41
620,5	3940,667
621	3923,267
621,4	3909,495
621,9	3883,495
622,3	3864,838
622,8	3843,581
623,2	3828,924
623,6	3820,867
624,1	3801,467
624,5	3782,038
625	3769,381
625,4	3753,381
625,9	3741,381
626,3	3726,467
626,8	3705,638
627,2	3694,152
627,6	3673,124
628,1	3656,267
628,5	3638,352
629	3616,695
629,4	3597,952
629,9	3587,238
630,3	3569,21
630,7	3555,181
631,2	3540,41
631,6	3520,867
632,1	3502,61
632,5	3484,924
633	3464,067
633,4	3441,21
633,8	3423,867
634,3	3405,181
634,7	3391,952
635,2	3374,238
635,6	3359,495
636,1	3335,324
636,5	3315,867
636,9	3299,752
637,4	3286,295
637,8	3267,581
638,3	3249,695
638,7	3224,924
639,2	3209,638
639,6	3198,724
640	3178,952
640,5	3151,781
640,9	3137,981
641,4	3124,581
641,8	3118,581
642,2	3103,352
642,7	3088,41
643,1	3074,324
643,6	3067,21
644	3053,381
644,5	3042,152
644,9	3021,438
645,3	3009,324
645,8	2996,952
646,2	2981,067
646,7	2959,067
647,1	2939,352
647,6	2921,381
648	2904,181
648,4	2891,524
648,9	2868,895
649,3	2854,21
649,8	2840,438
650,2	2828,467
650,6	2814,695
651,1	2800,81
651,5	2777,381
652	2767,838
652,4	2751,467
652,9	2743,181
653,3	2722,667
653,7	2710,295
654,2	2695,695
654,6	2681,695
655,1	2660,895
655,5	2645,638
655,9	2624,352
656,4	2613,667
656,8	2594,038
657,3	2577,695
657,7	2563,524
658,2	2552,81
658,6	2540,781
659	2521,952
659,5	2499,924
659,9	2480,41
660,4	2464,01
660,8	2448,181
661,2	2430,124
661,7	2412,924
662,1	2408,21
662,6	2399,324
663	2390,81
663,4	2380,467
663,9	2364,638
664,3	2356,21
664,8	2340,667
665,2	2319,381
665,6	2305,01
666,1	2285,638
666,5	2269,895
667	2261,924
667,4	2241,267
667,9	2231,095
668,3	2220,867
668,7	2207,267
669,2	2195,724
669,6	2178,238
670,1	2160,124
670,5	2150,667
670,9	2131,21
671,4	2115,267
671,8	2102,124
672,3	2087,495
672,7	2077,781
673,1	2069,324
673,6	2054,124
674	2045,781
674,5	2031,467
674,9	2013,867
675,3	1997,152
675,8	1980,01
676,2	1962,667
676,7	1948,238
677,1	1931,467
677,5	1915,638
678	1906,352
678,4	1897,924
678,9	1889,838
679,3	1879,867
679,7	1867,324
680,2	1852,81
680,6	1848,124
681,1	1841,638
681,5	1831,867
681,9	1815,724
682,4	1804,124
682,8	1795,752
683,3	1790,21
683,7	1778,295
684,1	1763,038
684,6	1748,924
685	1740,124
685,5	1726,238
685,9	1719,467
686,3	1703,952
686,8	1689,695
687,2	1679,067
687,7	1668,667
688,1	1655,295
688,5	1646,381
689	1624,61
689,4	1616,638
689,9	1608,381
690,3	1596,41
690,7	1584,924
691,2	1570,724
691,6	1561,981
692	1555,352
692,5	1538,295
692,9	1519,752
693,4	1502,667
693,8	1497,067
694,2	1491,752
694,7	1479,238
695,1	1474,295
695,6	1468,867
696	1467,238
696,4	1463,781
696,9	1444,638
697,3	1430,381
697,8	1420,495
698,2	1401,352
698,6	1390,181
699,1	1384,495
699,5	1371,095
699,9	1369,41
700,4	1364,038
700,8	1354,095
701,3	1350,438
701,7	1347,781
702,1	1328,724
702,6	1322,467
703	1311,952
703,5	1305,981
703,9	1292,61
704,3	1278,552
704,8	1272,238
705,2	1266,638
705,6	1259,61
706,1	1250,324
706,5	1243,524
707	1243,095
707,4	1237,638
707,8	1220,924
708,3	1215,552
708,7	1202,524
709,2	1193,352
709,6	1177,952
710	1166,81
710,5	1158,552
710,9	1151,952
711,3	1138,81
711,8	1132,495
712,2	1122,895
712,7	1116,324
713,1	1109,181
713,5	1099,952
714	1097,124
714,4	1095,21
714,8	1088,981
715,3	1083,267
715,7	1074,61
716,2	1064,152
716,6	1060,781
717	1049,867
717,5	1038,781
717,9	1030,952
718,3	1017,695
718,8	1012,695
719,2	1004,667
719,7	995,695
720,1	985,638
720,5	975,41
721	964,381
721,4	964,381
721,8	959,095
722,3	958,924
722,7	952,324
723,2	946,381
723,6	941,924
724	936,638
724,5	924,21
724,9	913,695
725,3	899,438
725,8	892,238
726,2	881,41
726,7	878,124
727,1	870,695
727,5	866,724
728	859,952
728,4	853,81
728,8	845,495
729,3	838,238
729,7	827,61
730,1	820,038
730,6	812,924
731	811,724
731,5	802,781
731,9	802,352
732,3	804,552
732,8	801,581
733,2	805,21
733,6	801,581
734,1	796,038
734,5	797,552
734,9	788,01
735,4	779,838
735,8	772,695
736,3	765,152
736,7	762,838
737,1	756,181
737,6	754,467
738	749,152
738,4	744,238
738,9	740,724
739,3	734,724
739,7	724,467
740,2	720,781
740,6	713,181
741,1	705,61
741,5	700,895
741,9	696,038
742,4	693,095
742,8	693,695
743,2	688,21
743,7	681,581
744,1	681,752
744,5	680,41
745	673,238
745,4	664,267
745,8	660,524
746,3	656,895
746,7	655,352
747,2	652,381
747,6	647,438
748	647,095
748,5	644,381
748,9	635,867
749,3	626,638
749,8	621,01
750,2	616,21
750,6	613,095
751,1	610,038
751,5	607,324
751,9	603,638
752,4	600,895
752,8	596,238
753,3	591,152
753,7	582,438
754,1	573,152
754,6	568,038
755	564,752
755,4	569,067
755,9	566,667
756,3	558,581
756,7	557,981
757,2	554,038
757,6	549,581
758	545,067
758,5	538,724
758,9	531,895
759,3	527,124
759,8	520,752
760,2	518,781
760,6	517,667
761,1	518,495
761,5	518,352
761,9	515,067
762,4	514,267
762,8	509,695
763,3	504,924
763,7	497,41
764,1	492,495
764,6	482,41
765	479,41
765,4	477,724
765,9	478,638
766,3	479,067
766,7	476,438
767,2	471,981
767,6	472,238
768	468,752
768,5	466,352
768,9	464,267
769,3	458,524
769,8	458,895
770,2	453,724
770,6	448,667
771,1	443,267
771,5	441,638
771,9	437,21
772,4	437,181
772,8	431,21
773,2	431,724
773,7	423,867
774,1	425,924
774,5	418,438
775	408,638
775,4	400,838
775,8	399,952
776,3	394,867
776,7	394,267
777,1	391,381
777,6	391,324
778	395,124
778,4	398,924
778,9	396,438
779,3	390,267
779,7	385,324
780,2	383,952
780,6	376,41
781	371,295
781,5	365,324
781,9	360,467
782,3	359,352
782,8	363,381
783,2	356,438
783,6	358,524
784,1	356,181
784,5	352,467
784,9	351,238
785,4	350,124
785,8	348,181
786,2	345,838
786,7	343,695
787,1	342,752
787,5	340,838
788	334,81
788,4	331,067
788,8	323,038
789,3	321,238
789,7	321,295
790,1	315,61
790,6	310,41
791	311,21
791,4	310,952
791,9	309,552
792,3	308,838
792,7	299,867
793,2	300,352
793,6	300,324
794	292,524
794,5	290,095
794,9	291,324
795,3	292,152
795,8	292,552
796,2	288,124
796,6	288,867
797,1	283,724
797,5	284,61
797,9	280,038
798,4	271,067
798,8	269,552
799,2	272,61
799,7	271,21
800,1	279,324
800,5	277,01
801	274,895
801,4	278,952
801,8	276,467
802,2	272,238
802,7	270,667
803,1	266,095
803,5	261,181
804	259,924
804,4	253,181
804,8	249,81
805,3	252,467
805,7	250,981
806,1	249,524
806,6	245,181
807	239,41
807,4	238,095
807,9	239,467
808,3	233,952
808,7	230,038
809,2	230,695
809,6	236,124
810	236,181
810,4	233,838
810,9	226,724
811,3	222,181
811,7	222,01
812,2	215,41
812,6	207,21
813	207,095
813,5	202,267
813,9	202,352
814,3	199,981
814,8	192,752
815,2	192,495
815,6	188,352
816,1	186,924
816,5	187,152
816,9	186,267
817,3	185,61
817,8	184,067
818,2	183,295
818,6	183,295
819,1	180,095
819,5	180,01
819,9	179,352
820,4	180,867
820,8	178,838
821,2	176,152
821,7	177,238
822,1	171,981
822,5	171,581
822,9	172,01
823,4	174,152
823,8	175,238
824,2	177,381
824,7	176,952
825,1	177,867
825,5	173,781
826	169,924
826,4	161,552
826,8	159,495
827,3	159,324
827,7	159,181
828,1	158,181
828,5	160,667
829	163,352
829,4	161,152
829,8	161,638
830,3	157,324
830,7	151,81
831,1	151,781
831,6	151,381
832	150,524
832,4	149,638
832,8	144,41
833,3	142,981
833,7	143,524
834,1	142,61
834,6	140,41
835	140,01
835,4	139,21
835,8	142,524
836,3	142,61
836,7	143,381
837,1	140,467
837,6	135,352
838	130,352
838,4	128,524
838,9	124,495
839,3	126,067
839,7	125,838
840,1	124,667
840,6	124,067
841	121,638
841,4	126,21
841,9	122,695
842,3	117,781
842,7	111,324
843,1	115,724
843,6	118,81
844	117,695
844,4	112,752
844,9	113,952
845,3	116,495
845,7	117,352
846,2	111,21
846,6	107,524
847	109,181
847,4	105,952
847,9	104,524
848,3	103,41
848,7	102,152
849,2	106,067
849,6	105,124
850	102,467
850,4	105,038
850,9	102,695
851,3	98,41
851,7	99,21
852,2	96,295
852,6	93,495
853	94,924
853,4	90,61
853,9	92,552
854,3	92,838
854,7	94,581
855,2	96,01
855,6	97,581
856	90,638
856,4	93,981
856,9	95,152
857,3	93,867
857,7	91,438
858,2	84,21
858,6	84,581
859	85,724
859,4	85,895
859,9	88,21
860,3	84,524
860,7	85,181
861,1	89,095
861,6	91,21
862	92,095
862,4	87,095
862,9	82,838
863,3	81,41
863,7	80,581
864,1	72,924
864,6	67,324
865	69,781
865,4	70,867
865,9	69,124
866,3	73,724
866,7	73,295
867,1	74,381
867,6	78,752
868	82,952
868,4	81,267
868,8	76,667
869,3	75,752
869,7	73,067
870,1	80,552
870,6	73,695
871	70,781
871,4	69,667
871,8	74,267
872,3	71,381
872,7	72,095
873,1	67,895
873,5	70,067
874	61,01
874,4	61,067
874,8	62,924
875,3	62,267
875,7	60,838
876,1	58,667
876,5	54,724
877	57,438
877,4	59,924
877,8	58,695
878,2	57,067
878,7	59,952
879,1	59,21
879,5	58,095
879,9	58,352
880,4	58,01
880,8	58,41
881,2	60,838
881,7	52,324
882,1	53,352
882,5	59,752
882,9	60,981
883,4	61,352
883,8	60,01
884,2	53,267
884,6	59,067
885,1	60,01
885,5	59,352
885,9	58,81
886,3	56,81
886,8	52,752
887,2	56,41
887,6	53,267
888	52,352
888,5	48,038
888,9	47,124
889,3	46,752
889,8	47,038
890,2	45,895
890,6	41,895
891	39,524
891,5	44,095
891,9	42,552
892,3	40,295
892,7	39,438
893,2	39,752
893,6	41,581
894	42,438
894,4	38,267
894,9	35,324
895,3	35,81
895,7	32,61
896,1	33,181
896,6	36,695
897	34,924
897,4	35,581
897,8	38,01
898,3	40,41
898,7	40,581
899,1	40,81
899,5	39,61
900	38,495
900,4	39,781
900,8	37,267
901,2	35,095
901,7	38,724
902,1	44,067
902,5	41,352
902,9	40,524
903,4	34,267
903,8	35,638
904,2	32,067
904,6	31,752
905,1	30,81
905,5	32,695
905,9	35,924
906,3	34,181
906,8	35,81
907,2	33,638
907,6	33,61
908	27,495
908,5	27,952
908,9	28,61
909,3	30,181
909,7	30,61
910,2	39,81
910,6	34,438
911	33,752
911,4	26,981
911,9	23,695
912,3	19,352
912,7	15,438
913,1	9,038
913,6	10,181
914	13,295
914,4	15,267
914,8	17,552
915,3	22,181
915,7	26,524
916,1	32,324
916,5	38,295
916,9	32,895
917,4	35,267
917,8	34,21
918,2	38,752
918,6	37,667
919,1	31,41
919,5	24,867
919,9	28,695
920,3	29,267
920,8	29,324
921,2	25,238
921,6	25,952
922	26,838
922,5	31,295
922,9	30,181
923,3	31,124
923,7	31,61
924,2	30,095
924,6	25,61
925	26,238
925,4	25,81
925,8	27,267
926,3	25,352
926,7	24,952
927,1	27,095
927,5	30,01
928	28,952
928,4	27,867
928,8	21,867
929,2	20,21
929,7	19,495
930,1	18,952
930,5	20,952
930,9	18,41
931,3	19,61
931,8	20,695
932,2	23,067
932,6	21,038
933	20,124
933,5	18,552
933,9	19,638
934,3	20,981
934,7	23,61
935,2	27,495
935,6	26,067
936	26,638
936,4	25,952
936,8	25,952
937,3	20,095
937,7	16,095
938,1	5,095
938,5	5,067
939	4,638
939,4	5,61
939,8	8,152
940,2	7,724
940,6	10,838
941,1	17,752
941,5	18,838
941,9	22,324
942,3	15,524
942,8	16,295
943,2	25,01
943,6	24,267
944	20,01
944,4	22,838
944,9	18,181
945,3	21,124
945,7	18,895
946,1	11,324
946,6	15,038
947	16,495
947,4	10,924
947,8	13,152
948,2	11,61
948,7	9,467
949,1	11,152
949,5	8,495
949,9	7,667
950,3	8,238
950,8	7,838
951,2	8,981
951,6	11,295
952	10,581
952,5	10,152
952,9	9,867
953,3	13,267
953,7	11,124
954,1	10,352
954,6	10,867
955	9,438
955,4	13,581
955,8	18,095
956,2	18,581
956,7	20,038
957,1	18,181
957,5	15,381
957,9	16,695
958,3	11,152
958,8	9,038
959,2	6,238
959,6	3,81
960	7,495
960,5	7,495
960,9	12,524
961,3	14,152
961,7	10,467
962,1	11,124
962,6	9,438
963	8,924
963,4	9,038
963,8	6,895
964,2	6,467
964,7	5,867
965,1	4,267
965,5	9,324
965,9	10,895
966,3	9,01
966,8	8,467
967,2	5,695
967,6	8,952
968	9,981
968,4	10,21
968,9	11,295
969,3	16,695
969,7	13,438
970,1	11,01
970,5	10,524
971	10,181
971,4	6,695
971,8	2,124
972,2	3,41
972,6	1,952
973,1	8,01
973,5	8,438
973,9	6,952
974,3	8,552
974,7	10,752
975,2	10,21
975,6	14,01
976	9,981
976,4	5,295
976,8	5,724
977,3	6,524
977,7	7,467
978,1	2,867
978,5	0,667
978,9	-1,39
979,4	2,124
979,8	5,467
980,2	1,01
980,6	-3,733
981	-4,076
981,5	-2,533
981,9	2,924
982,3	0,867
982,7	0,41
983,1	2,067
983,6	5,581
984	1,552
984,4	0,552
984,8	-0,848
985,2	-0,048
985,6	-0,99
986,1	0,41
986,5	0,638
986,9	5,267
987,3	1,524
987,7	4,695
988,2	4,61
988,6	5,352
989	4,124
989,4	6,895
989,8	6,581
990,3	12,267
990,7	8,867
991,1	13,61
991,5	12,095
991,9	9,467
992,3	6,695
992,8	3,781
993,2	2,21
993,6	0,895
994	-1,419
994,4	3,152
994,9	8,181
995,3	14,695
995,7	17,067
996,1	16,038
996,5	16,981
996,9	14,124
997,4	8,095
997,8	6,581
998,2	-1,619
998,6	2,124
999	5,667
999,5	5,667
999,9	9,352
1000,3	14,381
1000,7	14,724
1001,1	12,01
1001,5	9,438
1002	7,781
1002,4	8,152
1002,8	8,724
1003,2	10,181
1003,6	10,152
1004	7,581
1004,5	4,867
1004,9	5,124
1005,3	1,81
1005,7	0,838
1006,1	1,581
1006,6	-0,848
1007	2,895
1007,4	1,267
1007,8	4,152
1008,2	9,381
1008,6	9,067
1009,1	5,924
1009,5	5,352
1009,9	9,181
1010,3	13,01
1010,7	10,638
1011,1	9,695
1011,6	10,581
1012	10,41
1012,4	17,41
1012,8	12,467
1013,2	14,524
1013,6	14,381
1014,1	12,01
1014,5	8,781
1014,9	9,267
1015,3	3,81
1015,7	6,81
1016,1	1,752
1016,6	-2,676
1017	0,067
1017,4	2,981
1017,8	-8,019
1018,2	-6,162
1018,6	-4,162
1019,1	-6,019
1019,5	-4,905
1019,9	-2,933
1020,3	-4,79
1020,7	4,352
1021,1	3,895
1021,6	0,295
1022	6,41
1022,4	10,781
1022,8	7,095
1023,2	8,238
1023,6	4,267
1024,1	2,752
1024,5	5,495
1024,9	6,867
1025,3	6,41
1025,7	9,324
1026,1	12,238
1026,6	18,438
1027	22,438
1027,4	24,095
1027,8	20,324
1028,2	14,295
1028,6	14,438
1029	6,438
1029,5	6,438
1029,9	5,124
1030,3	4,638
1030,7	5,524
1031,1	10,638
1031,5	9,638
1032	11,381
1032,4	10,981
1032,8	12,638
1033,2	8,952
1033,6	8,667
1034	5,152
1034,4	3,81
1034,9	6,924
1035,3	1,81
1035,7	-6,705
1036,1	-7,133
1036,5	-5,59
1036,9	-4,905
1037,4	-6,276
1037,8	-7,019
1038,2	-2,733
1038,6	-0,79
1039	-0,219
1039,4	2,752
1039,8	0,838
1040,3	4,067
1040,7	4,01
1041,1	2,181
1041,5	7,152
1041,9	2,238
1042,3	-1,619
1042,7	1,552
1043,2	-1,276
1043,6	3,181
1044	4,724
1044,4	2,895
1044,8	9,695
1045,2	9,638
1045,6	10,21
1046,1	12,381
1046,5	4,924
1046,9	4,724
1047,3	6,695
1047,7	6,467
1048,1	7,524
1048,5	4,724
1049	7,552
1049,4	9,895
1049,8	2,895
1050,2	1,267
1050,6	-2,933
1051	-4,59
1051,4	-4,619
1051,9	-14,019
1052,3	-15,476
1052,7	-5,248
1053,1	-4,076
1053,5	-2,076
1053,9	-0,19
1054,3	0,124
1054,8	3,81
1055,2	4,638
1055,6	1,095
1056	1,495
1056,4	5,581
1056,8	2,01
1057,2	4,324
1057,6	7,581
1058,1	12,81
1058,5	10,952
1058,9	7,924
1059,3	8,467
1059,7	10,924
1060,1	10,524
1060,5	9,067
1061	1,952
1061,4	7,724
1061,8	11,667
1062,2	6,067
1062,6	8,61
1063	7,41
1063,4	5,695
1063,8	8,524
1064,3	4,152
1064,7	5,638
1065,1	7,152
1065,5	5,238
1065,9	6,095
1066,3	7,895
1066,7	7,81
1067,1	4,895
1067,6	1,238
1068	3,295
1068,4	2,467
1068,8	-3,305
1069,2	-4,162
1069,6	-2,533
1070	0,267
1070,4	-2,019
1070,9	-3,019
1071,3	-0,79
1071,7	6,638
1072,1	2,724
1072,5	4,381
1072,9	5,752
1073,3	8,667
1073,7	10,695
1074,2	9,067
1074,6	3,752
1075	6,924
1075,4	3,181
1075,8	2,695
1076,2	1,924
1076,6	0,838
1077	0,924
1077,5	3,724
1077,9	3,952
1078,3	2,781
1078,7	-3,133
1079,1	-0,533
1079,5	-1,305
1079,9	-2,705
1080,3	-2,99
1080,7	-0,848
1081,2	3,01
1081,6	5,381
1082	4,838
1082,4	1,152
1082,8	3,61
1083,2	4,952
1083,6	3,895
1084	3,724
1084,5	6,695
1084,9	-0,305
1085,3	1,552
1085,7	-1,819
1086,1	-4,476
1086,5	-7,362
1086,9	-9,99
1087,3	-10,962
1087,7	-5,248
1088,2	-3,905
1088,6	-2,933
1089	-4,448
1089,4	-4,39
1089,8	-2,419
1090,2	-2,476
1090,6	-4,562
1091	-3,676
1091,4	-1,905
1091,9	6,467
1092,3	11,61
1092,7	7,724
1093,1	7,495
1093,5	10,838
1093,9	13,181
1094,3	14,752
1094,7	8,524
1095,1	8,581
1095,5	9,581
1096	9,81
1096,4	10,267
1096,8	8,01
1097,2	7,095
1097,6	10,924
1098	10,352
1098,4	10,724
1098,8	10,581
1099,2	6,724
1099,6	4,952
1100,1	1,695
1100,5	1,781
1100,9	3,21
1101,3	2,81
1101,7	2,21
1102,1	7,495
1102,5	3,952
1102,9	0,838
1103,3	0,667
1103,7	-2,39
1104,2	1,152
1104,6	5,524
1105	5,295
1105,4	11,495
1105,8	15,724
1106,2	12,924
1106,6	12,267
1107	10,21
1107,4	7,333
1107,8	3,187
1108,3	-0,233
