Data from Subt2_00043.txt Node
Date: Mon Aug 28 13:18:36 MSK 2023
User: vat
Spectrometer: MAYP114033
Trigger mode: 0
Integration Time (sec): 1,000000E0
Scans to average: 5
Electric dark correction enabled: true
Nonlinearity correction enabled: false
Boxcar width: 3
XAxis mode: Wavelengths
Number of Pixels in Spectrum: 2068
>>>>>Begin Spectral Data<<<<<
199,4	0,7
199,9	1,58
200,4	2,867
200,8	4,929
201,3	6,7
201,8	12,843
202,2	14,929
202,7	18,071
203,2	18,9
203,6	21,186
204,1	21,443
204,6	24,414
205	24,186
205,5	27,586
206	27,329
206,4	28,3
206,9	27,9
207,4	31,243
207,8	29,557
208,3	27,471
208,8	24,986
209,2	28,786
209,7	28,5
210,2	23,614
210,6	19,129
211,1	18,671
211,5	20,614
212	22,214
212,5	19,443
212,9	19,986
213,4	24,814
213,9	28,757
214,3	29,586
214,8	29,129
215,3	28,729
215,7	27,129
216,2	29,5
216,7	30,186
217,1	29,043
217,6	25,729
218,1	18,014
218,5	16,043
219	17,586
219,5	16,329
219,9	17,957
220,4	17,529
220,9	17,9
221,3	27,129
221,8	30,271
222,3	34,443
222,7	33,843
223,2	35,414
223,6	34,529
224,1	38,757
224,6	31,871
225	30,957
225,5	24,929
226	27,3
226,4	21,443
226,9	23,443
227,4	24,843
227,8	29,214
228,3	28,7
228,8	30,557
229,2	33,586
229,7	35,671
230,2	31,957
230,6	27,414
231,1	25,986
231,5	26,014
232	28,443
232,5	24,329
232,9	23,957
233,4	29,271
233,9	32,186
234,3	30,471
234,8	30,757
235,3	20,843
235,7	19,929
236,2	18,186
236,7	14,386
237,1	17,871
237,6	21,5
238,1	20,614
238,5	27,5
239	26,357
239,4	28,071
239,9	27,671
240,4	19,986
240,8	20,614
241,3	26,157
241,8	25,843
242,2	29,5
242,7	33,186
243,2	31,043
243,6	39,5
244,1	34,957
244,6	30,986
245	35,1
245,5	37,386
245,9	29,071
246,4	34,557
246,9	32,7
247,3	32,843
247,8	30,186
248,3	30,014
248,7	29,986
249,2	34,557
249,7	31,1
250,1	22,986
250,6	25,5
251	26,157
251,5	25,729
252	17,757
252,4	17,814
252,9	18,071
253,4	24,643
253,8	23,671
254,3	23,214
254,8	23,243
255,2	28,1
255,7	33,1
256,1	34,271
256,6	33,129
257,1	34,414
257,5	35,157
258	29,014
258,5	24,957
258,9	18,814
259,4	17,557
259,9	17,929
260,3	16,529
260,8	16,443
261,2	21,586
261,7	25,586
262,2	27,929
262,6	30,071
263,1	33,357
263,6	32,957
264	36,929
264,5	36,414
264,9	35,271
265,4	34,129
265,9	33,843
266,3	33,614
266,8	34,243
267,3	30,986
267,7	28,157
268,2	25,557
268,7	28,871
269,1	27,471
269,6	25,643
270	27,929
270,5	26,557
271	27,1
271,4	28,386
271,9	24,671
272,4	26,471
272,8	26,7
273,3	22,9
273,7	23,614
274,2	24,7
274,7	19,643
275,1	18,843
275,6	18,871
276,1	14,243
276,5	15,443
277	19,3
277,4	19,786
277,9	22,529
278,4	24,414
278,8	25,443
279,3	24,957
279,8	22,186
280,2	16,957
280,7	15,186
281,1	18,9
281,6	19,9
282,1	14,243
282,5	17,157
283	20,757
283,4	24,357
283,9	26,614
284,4	27,129
284,8	29,586
285,3	35,671
285,8	33,614
286,2	28,757
286,7	30,243
287,1	29,7
287,6	27,7
288,1	26,586
288,5	22,186
289	27,729
289,5	35,643
289,9	38,186
290,4	38,386
290,8	38,186
291,3	37,986
291,8	41,786
292,2	38,871
292,7	36,814
293,1	30,643
293,6	28,529
294,1	32,986
294,5	30,871
295	30,186
295,5	25,9
295,9	23,129
296,4	26,529
296,8	29,157
297,3	24,471
297,8	20,843
298,2	22,471
298,7	26,957
299,1	28,271
299,6	23,271
300,1	25,386
300,5	24,3
301	29,929
301,5	23,729
301,9	22,271
302,4	22,529
302,8	25,214
303,3	18,271
303,8	19,7
304,2	14,786
304,7	19,014
305,1	18,929
305,6	21,443
306,1	24,3
306,5	32,5
307	35,643
307,4	39,243
307,9	38,814
308,4	38,871
308,8	36,5
309,3	35,1
309,8	31,129
310,2	28,214
310,7	30,586
311,1	29,329
311,6	30,014
312,1	29,129
312,5	25,786
313	26,271
313,4	29,443
313,9	25,043
314,4	26,586
314,8	26,3
315,3	29,643
315,7	30,214
316,2	33,3
316,7	26,986
317,1	30,271
317,6	29,1
318	30,614
318,5	27,729
319	32,071
319,4	29,243
319,9	32,957
320,3	32,786
320,8	38,614
321,3	39,5
321,7	39,986
322,2	36,5
322,6	32,5
323,1	31,9
323,6	30,186
324	26,986
324,5	22,1
324,9	22,529
325,4	23,329
325,9	29,071
326,3	29,3
326,8	28,814
327,2	29,671
327,7	29,729
328,2	28,043
328,6	26,871
329,1	23,729
329,5	21,5
330	22,129
330,5	18,529
330,9	19,757
331,4	23,7
331,8	27,471
332,3	28,843
332,8	27,443
333,2	29,129
333,7	26,014
334,1	30,329
334,6	31,071
335,1	31,1
335,5	30,529
336	33,357
336,4	34,443
336,9	37,243
337,4	36,729
337,8	31,129
338,3	28,7
338,7	26,443
339,2	32,843
339,7	30,986
340,1	28,986
340,6	22,671
341	25,357
341,5	27,9
342	28,986
342,4	27,186
342,9	30,1
343,3	33,386
343,8	33,843
344,2	36,329
344,7	35,043
345,2	39,157
345,6	37,071
346,1	33,271
346,5	32,7
347	37,186
347,5	33,843
347,9	29,443
348,4	26,1
348,8	21,471
349,3	25,043
349,8	26,271
350,2	26,071
350,7	27,586
351,1	32,414
351,6	37,471
352	45,843
352,5	49,1
353	53,7
353,4	60,557
353,9	64,757
354,3	77,414
354,8	85,957
355,3	98,671
355,7	108,5
356,2	122,071
356,6	137,3
357,1	158,671
357,5	172,386
358	191,757
358,5	217,9
358,9	251,729
359,4	289,871
359,8	335,814
360,3	379,1
360,8	434,586
361,2	496,757
361,7	555,386
362,1	619,014
362,6	693,729
363	767,843
363,5	857,986
364	947,1
364,4	1040,186
364,9	1138,871
365,3	1234,871
365,8	1322,7
366,3	1404,586
366,7	1477,386
367,2	1546,643
367,6	1596,586
368,1	1636,214
368,5	1663,9
369	1680,7
369,5	1683,529
369,9	1669,557
370,4	1640,643
370,8	1611,071
371,3	1567,871
371,7	1513,986
372,2	1454,414
372,7	1389,614
373,1	1323,957
373,6	1252,671
374	1170,871
374,5	1096,014
374,9	1021,043
375,4	944,929
375,9	877,157
376,3	809,071
376,8	748,443
377,2	694,186
377,7	640,929
378,2	593,5
378,6	546,271
379,1	500,7
379,5	462,443
380	423,871
380,4	393,329
380,9	362,329
381,4	336,1
381,8	315,729
382,3	292,843
382,7	271,7
383,2	251,3
383,6	233,186
384,1	218,986
384,6	207,557
385	192,843
385,5	186,014
385,9	176,729
386,4	170,814
386,8	160,729
387,3	153,014
387,7	141,586
388,2	132,757
388,7	120,986
389,1	106,871
389,6	102,329
390	97,357
390,5	86,471
390,9	82,386
391,4	77,357
391,9	76,671
392,3	84,357
392,8	80,129
393,2	82,014
393,7	81,786
394,1	81,329
394,6	83,129
395,1	82,557
395,5	77,529
396	73,957
396,4	68,843
396,9	70,1
397,3	69,586
397,8	67,471
398,2	64,443
398,7	67,7
399,2	70,757
399,6	72,557
400,1	70,3
400,5	69,271
401	72,729
401,4	76,471
401,9	77,843
402,4	78,986
402,8	77,814
403,3	79,414
403,7	79,786
404,2	79,786
404,6	77,157
405,1	78,014
405,5	75,443
406	73,614
406,5	80,757
406,9	81,329
407,4	82,557
407,8	89,557
408,3	92,757
408,7	98,557
409,2	106,7
409,6	106,9
410,1	115,1
410,6	124,071
411	130,871
411,5	139,557
411,9	148,614
412,4	157,3
412,8	167,986
413,3	179,871
413,7	188,414
414,2	196,929
414,7	207,357
415,1	222,129
415,6	233,614
416	248,043
416,5	262,729
416,9	282,729
417,4	301,071
417,8	314,729
418,3	328,329
418,8	355,386
419,2	372,243
419,7	392,557
420,1	408,786
420,6	427,129
421	454,786
421,5	481,871
421,9	506,929
422,4	535,814
422,8	561,757
423,3	592,614
423,8	622,7
424,2	651,557
424,7	680,729
425,1	708,814
425,6	743,471
426	777,814
426,5	814,786
426,9	861,1
427,4	903,471
427,9	947,786
428,3	996,5
428,8	1047,5
429,2	1100,043
429,7	1159,271
430,1	1214,586
430,6	1276,843
431	1344,557
431,5	1410,786
431,9	1482,929
432,4	1559,643
432,8	1636,3
433,3	1725,043
433,8	1812,529
434,2	1905,614
434,7	2007,329
435,1	2108,471
435,6	2217,157
436	2331,757
436,5	2439,786
436,9	2563,5
437,4	2683,043
437,8	2808,557
438,3	2937,614
438,8	3078,157
439,2	3222,5
439,7	3371,729
440,1	3520,843
440,6	3684,843
441	3848,814
441,5	4023,471
441,9	4200,329
442,4	4373,671
442,8	4563,871
443,3	4759,243
443,7	4959,329
444,2	5164,271
444,7	5381,071
445,1	5590,043
445,6	5823,814
446	6062,871
446,5	6298,129
446,9	6545,3
447,4	6804,043
447,8	7058,643
448,3	7329,471
448,7	7589,529
449,2	7843,671
449,6	8129,043
450,1	8408,014
450,6	8691,9
451	8984,186
451,5	9283,586
451,9	9597,1
452,4	9921,329
452,8	10238,7
453,3	10561,814
453,7	10889,643
454,2	11227,014
454,6	11567,757
455,1	11910,471
455,5	12264,071
456	12609,729
456,4	12967,414
456,9	13323,271
457,3	13687,3
457,8	14050,3
458,3	14416,443
458,7	14781,7
459,2	15163,7
459,6	15539,443
460,1	15926,757
460,5	16309,3
461	16693,757
461,4	17079,414
461,9	17467,329
462,3	17845,757
462,8	18229,529
463,2	18605,9
463,7	18994,843
464,1	19378,529
464,6	19775,271
465	20163,186
465,5	20546,586
466	20928,129
466,4	21309,586
466,9	21671,357
467,3	22058,014
467,8	22438,157
468,2	22790,471
468,7	23167,157
469,1	23534,757
469,6	23906,357
470	24284,671
470,5	24625,243
470,9	24958,757
471,4	25324,871
471,8	25649,5
472,3	25977,386
472,7	26302,957
473,2	26624,157
473,6	26951,843
474,1	27256,443
474,5	27546,7
475	27848,614
475,4	28146,243
475,9	28427,357
476,4	28696,614
476,8	28951,443
477,3	29219,586
477,7	29491,929
478,2	29743,329
478,6	29981,014
479,1	30194,014
479,5	30416,414
480	30621,843
480,4	30810,1
480,9	30981,529
481,3	31148,614
481,8	31313,729
482,2	31489,729
482,7	31636,586
483,1	31794,014
483,6	31932,729
484	32041,957
484,5	32161,843
484,9	32267,9
485,4	32375,271
485,8	32440,529
486,3	32507,214
486,7	32570,929
487,2	32655,7
487,6	32698,557
488,1	32719,586
488,5	32736,357
489	32768,414
489,4	32788,243
489,9	32779,814
490,4	32750,957
490,8	32735,157
491,3	32731,214
491,7	32675,929
492,2	32623,357
492,6	32560,614
493,1	32494,529
493,5	32414,729
494	32335,357
494,4	32246,386
494,9	32162,843
495,3	32064,157
495,8	31948,214
496,2	31842,243
496,7	31731,271
497,1	31613,071
497,6	31486,014
498	31365,757
498,5	31223,929
498,9	31087,043
499,4	30952,586
499,8	30810,5
500,3	30665,271
500,7	30518,443
501,2	30369,929
501,6	30226,271
502,1	30067,986
502,5	29907,186
503	29746,329
503,4	29578,129
503,9	29394,529
504,3	29204,186
504,8	29004,186
505,2	28825,671
505,7	28629,9
506,1	28436,357
506,6	28218,186
507	28005,871
507,5	27794,814
507,9	27604,7
508,4	27376,271
508,8	27161,071
509,3	26939,386
509,7	26718,271
510,2	26500,929
510,6	26291,757
511,1	26056,3
511,5	25828,871
512	25598,529
512,4	25369,871
512,9	25152,014
513,3	24920,471
513,8	24673,614
514,2	24448,843
514,7	24218,414
515,1	23994,9
515,6	23754,929
516	23505,414
516,5	23278,5
516,9	23038,7
517,4	22801,757
517,8	22581,471
518,3	22332,386
518,7	22097,214
519,2	21888,643
519,6	21651,386
520,1	21437,871
520,5	21206,871
521	20967,071
521,4	20743,357
521,9	20518,471
522,3	20292,7
522,8	20072,586
523,2	19842,414
523,7	19631,9
524,1	19414,643
524,6	19198,386
525	18990,929
525,5	18769,129
525,9	18556,3
526,4	18340,271
526,8	18127,071
527,3	17923,471
527,7	17720,071
528,2	17520,329
528,6	17325,471
529,1	17123,871
529,5	16933,7
530	16743,157
530,4	16557,757
530,9	16367,843
531,3	16181,5
531,8	15999,957
532,2	15829,671
532,6	15655,071
533,1	15476,443
533,5	15295,614
534	15127,9
534,4	14950,614
534,9	14782,643
535,3	14610,043
535,8	14438,5
536,2	14273,043
536,7	14102,786
537,1	13927,443
537,6	13773,443
538	13622,271
538,5	13464,843
538,9	13305,329
539,4	13149,957
539,8	13006,157
540,3	12866,986
540,7	12709,271
541,2	12552,214
541,6	12409,157
542,1	12280,043
542,5	12143,557
543	12007,529
543,4	11870,643
543,9	11753,529
544,3	11622,071
544,8	11489,5
545,2	11360,071
545,7	11241,214
546,1	11117,157
546,5	10998,529
547	10872,186
547,4	10751,1
547,9	10647,786
548,3	10529,786
548,8	10406,329
549,2	10296,586
549,7	10186,129
550,1	10076,271
550,6	9977,9
551	9864,757
551,5	9763,871
551,9	9669,3
552,4	9570,3
552,8	9476,557
553,3	9385,443
553,7	9288,614
554,2	9191,1
554,6	9103,186
555,1	9003,7
555,5	8913,957
555,9	8819,671
556,4	8724,986
556,8	8627,957
557,3	8546,671
557,7	8458,186
558,2	8389,043
558,6	8307,529
559,1	8228,814
559,5	8157,071
560	8082,814
560,4	7994,929
560,9	7913,014
561,3	7825,643
561,8	7745,357
562,2	7676,414
562,7	7589,814
563,1	7516,471
563,6	7449,271
564	7378,986
564,4	7311,471
564,9	7249,329
565,3	7173,586
565,8	7108,7
566,2	7042,929
566,7	6985,586
567,1	6923,814
567,6	6863,214
568	6795,757
568,5	6734,7
568,9	6680,729
569,4	6623,414
569,8	6558,386
570,3	6495,557
570,7	6429,614
571,1	6370,614
571,6	6311,386
572	6253,643
572,5	6190,157
572,9	6134,471
573,4	6082,986
573,8	6030,871
574,3	5970,529
574,7	5921,471
575,2	5868,329
575,6	5826,786
576,1	5774,243
576,5	5722,386
576,9	5669,214
577,4	5626,871
577,8	5578,529
578,3	5532,014
578,7	5476,786
579,2	5419,986
579,6	5368,3
580,1	5328,614
580,5	5287,1
581	5239,271
581,4	5196,986
581,9	5155,986
582,3	5121,786
582,7	5078,471
583,2	5030,643
583,6	4983,757
584,1	4944,786
584,5	4897,357
585	4858,614
585,4	4815,929
585,9	4777,757
586,3	4741,586
586,8	4698,243
587,2	4661,129
587,6	4623,214
588,1	4583,786
588,5	4546,386
589	4508,786
589,4	4474,814
589,9	4448,929
590,3	4408,5
590,8	4375,329
591,2	4339,614
591,7	4306,529
592,1	4275,5
592,5	4241,414
593	4204,471
593,4	4168,443
593,9	4136,129
594,3	4107,871
594,8	4080,243
595,2	4051,414
595,7	4015,643
596,1	3989,586
596,6	3963,786
597	3937,671
597,4	3906,986
597,9	3878,214
598,3	3853,129
598,8	3830,614
599,2	3801,186
599,7	3777,9
600,1	3748,271
600,6	3719,786
601	3689,614
601,4	3661,1
601,9	3638,871
602,3	3619,9
602,8	3594,414
603,2	3569,986
603,7	3547,157
604,1	3529,729
604,6	3503,271
605	3477,157
605,4	3446,043
605,9	3420,529
606,3	3397,414
606,8	3375,243
607,2	3347,671
607,7	3328,814
608,1	3301,929
608,6	3273,271
609	3248,071
609,4	3224,386
609,9	3201,1
610,3	3176,557
610,8	3150,414
611,2	3132,043
611,7	3112,929
612,1	3091,757
612,6	3072,529
613	3043,129
613,4	3018,3
613,9	3002,243
614,3	2978,643
614,8	2959,729
615,2	2942,7
615,7	2921,357
616,1	2907,043
616,6	2894,357
617	2863,614
617,4	2843,243
617,9	2817,414
618,3	2798,214
618,8	2777,443
619,2	2754,586
619,7	2732,414
620,1	2722,757
620,5	2697,014
621	2682,986
621,4	2666,214
621,9	2644,071
622,3	2629,671
622,8	2612,329
623,2	2591,529
623,6	2579,757
624,1	2561,643
624,5	2538,729
625	2518,814
625,4	2496,1
625,9	2476,014
626,3	2459,986
626,8	2444,871
627,2	2428,129
627,6	2410,243
628,1	2395,643
628,5	2383,557
629	2361,586
629,4	2336,1
629,9	2309,329
630,3	2288,443
630,7	2270,9
631,2	2254,557
631,6	2232,757
632,1	2218,586
632,5	2208,3
633	2201,757
633,4	2193,243
633,8	2176,614
634,3	2159,557
634,7	2148,414
635,2	2141,786
635,6	2122,814
636,1	2101,157
636,5	2079,071
636,9	2062,557
637,4	2044,586
637,8	2029,271
638,3	2009,214
638,7	1994,586
639,2	1978,843
639,6	1967,557
640	1954,3
640,5	1948,471
640,9	1938,443
641,4	1929,443
641,8	1915,843
642,2	1902,186
642,7	1896,071
643,1	1885,643
643,6	1873,529
644	1861,357
644,5	1844,757
644,9	1837,214
645,3	1831,329
645,8	1812,386
646,2	1797,386
646,7	1776,814
647,1	1751,614
647,6	1738,814
648	1728,157
648,4	1714,271
648,9	1703,471
649,3	1692,986
649,8	1686,586
650,2	1683,929
650,6	1677,1
651,1	1663,129
651,5	1650,614
652	1640,443
652,4	1628,1
652,9	1614,957
653,3	1603,043
653,7	1591,586
654,2	1581,3
654,6	1570,957
655,1	1555,957
655,5	1545,014
655,9	1538,129
656,4	1526,586
656,8	1513,929
657,3	1502,929
657,7	1492,643
658,2	1485,929
658,6	1475,043
659	1465,757
659,5	1457,757
659,9	1449,386
660,4	1435,814
660,8	1423,329
661,2	1413,614
661,7	1405,957
662,1	1395,957
662,6	1389,214
663	1375,557
663,4	1369,5
663,9	1361,757
664,3	1344,443
664,8	1333,014
665,2	1321,671
665,6	1306,1
666,1	1298,014
666,5	1288,043
667	1275,786
667,4	1276,614
667,9	1269,671
668,3	1259,843
668,7	1251,586
669,2	1244,729
669,6	1233,786
670,1	1225,014
670,5	1208,243
670,9	1197,843
671,4	1185,271
671,8	1175,757
672,3	1167,471
672,7	1161,329
673,1	1157,7
673,6	1155,1
674	1143,986
674,5	1135,843
674,9	1130,871
675,3	1118,443
675,8	1107,786
676,2	1096,843
676,7	1087,186
677,1	1082,7
677,5	1079,071
678	1072,643
678,4	1065,471
678,9	1061,043
679,3	1053,614
679,7	1045,729
680,2	1038,357
680,6	1030,271
681,1	1019,014
681,5	1014,9
681,9	1005,586
682,4	1001,014
682,8	993,471
683,3	988,814
683,7	983,214
684,1	973,957
684,6	966,043
685	955,786
685,5	940,986
685,9	932,186
686,3	926,7
686,8	917,414
687,2	912,471
687,7	903,786
688,1	901,014
688,5	898,014
689	896,186
689,4	887,929
689,9	881,5
690,3	876,871
690,7	871,271
691,2	866,929
691,6	860,643
692	850,071
692,5	840,529
692,9	836,357
693,4	831,043
693,8	823,814
694,2	814,471
694,7	810,357
695,1	809,043
695,6	807,586
696	802,1
696,4	794,071
696,9	787,471
697,3	791,386
697,8	789,1
698,2	779,186
698,6	770,529
699,1	762,929
699,5	757,3
699,9	754,957
700,4	740,614
700,8	733,329
701,3	727,214
701,7	720,786
702,1	721,5
702,6	714,043
703	706,986
703,5	703,357
703,9	699,614
704,3	699,1
704,8	696,729
705,2	687,214
705,6	686,243
706,1	681,757
706,5	681,1
707	677,9
707,4	676,986
707,8	671,386
708,3	665,529
708,7	662,043
709,2	659,357
709,6	651,529
710	643,214
710,5	629,957
710,9	626,3
711,3	622,386
711,8	614,129
712,2	608,386
712,7	602,357
713,1	597,043
713,5	598,214
714	594,386
714,4	589,5
714,8	591,871
715,3	590,7
715,7	587,386
716,2	586,7
716,6	581,071
717	580,729
717,5	575,7
717,9	566,043
718,3	556,929
718,8	554,214
719,2	549,786
719,7	548,186
720,1	539,329
720,5	538,386
721	535,529
721,4	534,986
721,8	526,1
722,3	521,186
722,7	511,329
723,2	510,386
723,6	506,443
724	506,386
724,5	501,757
724,9	502,929
725,3	493,5
725,8	490,1
726,2	484,386
726,7	478,3
727,1	468,3
727,5	464,643
728	456,1
728,4	460,443
728,8	460,614
729,3	454,043
729,7	451,386
730,1	455,471
730,6	454,443
731	455,1
731,5	449,671
731,9	448,386
732,3	451,214
732,8	449,557
733,2	444,357
733,6	442,357
734,1	432,957
734,5	430,014
734,9	419,214
735,4	411,671
735,8	407,9
736,3	398,957
736,7	395,157
737,1	398,271
737,6	392,871
738	398,443
738,4	399,071
738,9	400,871
739,3	406,986
739,7	407,586
740,2	406,243
740,6	407,271
741,1	401,414
741,5	399,071
741,9	390,786
742,4	389,643
742,8	386,014
743,2	382,671
743,7	382,5
744,1	382,9
744,5	383,471
745	383,586
745,4	378,986
745,8	374,157
746,3	373,671
746,7	366,157
747,2	359,871
747,6	351,1
748	348,757
748,5	346,1
748,9	342,214
749,3	341,529
749,8	343,243
750,2	340,014
750,6	337,814
751,1	337,729
751,5	336,443
751,9	337,271
752,4	339,243
752,8	335,071
753,3	332,9
753,7	335,157
754,1	338,129
754,6	333,1
755	331,129
755,4	325,986
755,9	323,786
756,3	328,214
756,7	326,071
757,2	314,643
757,6	311,357
758	308,929
758,5	303,986
758,9	303,329
759,3	297,414
759,8	291,557
760,2	294,729
760,6	299,786
761,1	300,014
761,5	298,414
761,9	296,5
762,4	298,5
762,8	301,214
763,3	296,729
763,7	292,014
764,1	283,443
764,6	280,157
765	281,329
765,4	281,586
765,9	278,129
766,3	275,929
766,7	272,729
767,2	275,014
767,6	276,671
768	269,157
768,5	260,814
768,9	258,243
769,3	256,786
769,8	253,729
770,2	250,7
770,6	245,386
771,1	243,071
771,5	242,557
771,9	244,214
772,4	246,214
772,8	246,071
773,2	249,5
773,7	249,014
774,1	254,014
774,5	256,271
775	250,529
775,4	248,529
775,8	246,614
776,3	246,1
776,7	245,614
777,1	241,271
777,6	233,957
778	231,786
778,4	227,757
778,9	224,414
779,3	219,471
779,7	215,243
780,2	215,643
780,6	220,814
781	224,3
781,5	224,957
781,9	224,329
782,3	223,843
782,8	229,243
783,2	224,786
783,6	222,214
784,1	221,129
784,5	215,643
784,9	213,243
785,4	211,9
785,8	205,614
786,2	202,529
786,7	198,957
787,1	199,271
787,5	202,5
788	201,986
788,4	202,443
788,8	204,129
789,3	208,443
789,7	207,186
790,1	207,643
790,6	199,929
791	201,014
791,4	198,957
791,9	194,357
792,3	192,1
792,7	195,414
793,2	194,814
793,6	199,9
794	199,014
794,5	194,786
794,9	196,586
795,3	195,929
795,8	191,3
796,2	180,5
796,6	177,386
797,1	174,757
797,5	173,586
797,9	177,129
798,4	176,929
798,8	175,786
799,2	181,9
799,7	182,329
800,1	180,471
800,5	182,986
801	179,243
801,4	178,1
801,8	178,471
802,2	173,729
802,7	169,671
803,1	166,671
803,5	165,157
804	160,386
804,4	161,757
804,8	162,129
805,3	164,357
805,7	165,757
806,1	165,671
806,6	165,214
807	167,214
807,4	165,357
807,9	161,986
808,3	156,757
808,7	157,529
809,2	159,843
809,6	156,414
810	151,214
810,4	146,586
810,9	146,443
811,3	146,471
811,7	145,414
812,2	143,5
812,6	142,729
813	144,557
813,5	142,157
813,9	141,043
814,3	139,729
814,8	136,214
815,2	136,271
815,6	134,786
816,1	134,614
816,5	139,757
816,9	138,271
817,3	138,157
817,8	139,643
818,2	139,043
818,6	141,386
819,1	136,586
819,5	131,471
819,9	130,243
820,4	132,843
820,8	128,157
821,2	125,9
821,7	122,329
822,1	125,243
822,5	126,014
822,9	123,614
823,4	120,586
823,8	122,929
824,2	123,471
824,7	121,986
825,1	118,414
825,5	114,214
826	112,471
826,4	109,329
826,8	106,043
827,3	103,329
827,7	100,186
828,1	100,814
828,5	106,357
829	109,929
829,4	108,843
829,8	110,843
830,3	111,1
830,7	113,157
831,1	111,757
831,6	108,071
832	105,557
832,4	105,271
832,8	100,043
833,3	96,757
833,7	93,129
834,1	95,271
834,6	96,214
835	96,557
835,4	96,843
835,8	101,329
836,3	102,329
836,7	107,1
837,1	101,157
837,6	95,986
838	93,529
838,4	92,271
838,9	91,614
839,3	94,614
839,7	92,957
840,1	98,471
840,6	99,271
841	98,3
841,4	96,786
841,9	95,929
842,3	90,214
842,7	86,786
843,1	83,243
843,6	81,929
844	82,186
844,4	87,871
844,9	88,471
845,3	88,814
845,7	88,786
846,2	90,957
846,6	92,786
847	95,3
847,4	89,271
847,9	85,643
848,3	81,9
848,7	80,529
849,2	75,986
849,6	72,843
850	74,3
850,4	75,357
850,9	75,757
851,3	81,614
851,7	81,243
852,2	84,471
852,6	87,386
853	88,443
853,4	88,957
853,9	86,986
854,3	87,929
854,7	93,957
855,2	91,014
855,6	89,643
856	87,586
856,4	84,157
856,9	85,014
857,3	78,1
857,7	77,471
858,2	78,871
858,6	75,414
859	69,329
859,4	76,9
859,9	73,9
860,3	73,614
860,7	65,843
861,1	65,3
861,6	69,414
862	74,443
862,4	66,443
862,9	70,643
863,3	73,129
863,7	77,329
864,1	74,471
864,6	73,986
865	67,757
865,4	67,329
865,9	61,643
866,3	60,5
866,7	60,071
867,1	62,014
867,6	60,529
868	58,957
868,4	55,357
868,8	59,043
869,3	64,786
869,7	66,1
870,1	64,1
870,6	63,471
871	85,357
871,4	89,386
871,8	89,843
872,3	82,5
872,7	75,929
873,1	71,586
873,5	67,957
874	49,871
874,4	53,186
874,8	50,271
875,3	51,529
875,7	54,1
876,1	61,329
876,5	66,071
877	65,157
877,4	57,243
877,8	55,929
878,2	58,414
878,7	59,043
879,1	55,443
879,5	52,071
879,9	51,843
880,4	53,614
880,8	57,129
881,2	52,471
881,7	51,386
882,1	52,014
882,5	51,443
882,9	50,957
883,4	53,729
883,8	52,071
884,2	52,129
884,6	50,157
885,1	45,557
885,5	45,557
885,9	46,157
886,3	45,186
886,8	52,043
887,2	52,5
887,6	51,214
888	55,5
888,5	55,786
888,9	48,7
889,3	44,986
889,8	39,7
890,2	38,757
890,6	37,414
891	35,071
891,5	37,3
891,9	40,786
892,3	42,414
892,7	38,443
893,2	38,9
893,6	39,043
894	39,386
894,4	37,557
894,9	41,7
895,3	40,3
895,7	43,3
896,1	41,957
896,6	43,186
897	48,929
897,4	48,529
897,8	47,071
898,3	54,5
898,7	49,871
899,1	53,671
899,5	55,5
900	50,557
900,4	45,614
900,8	38,243
901,2	29,929
901,7	35,214
902,1	31,214
902,5	30,357
902,9	26,529
903,4	31,129
903,8	35,529
904,2	40,5
904,6	34,643
905,1	37,243
905,5	34,329
905,9	35,729
906,3	32,443
906,8	33,329
907,2	31,586
907,6	32,843
908	30,357
908,5	31,357
908,9	32,957
909,3	37,471
909,7	35,071
910,2	35,786
910,6	36,586
911	38,329
911,4	41,786
911,9	43,357
912,3	44,786
912,7	46,929
913,1	46,357
913,6	48,357
914	49,186
914,4	47,471
914,8	45,986
915,3	39,386
915,7	40,786
916,1	38,243
916,5	31,871
916,9	28,929
917,4	30,243
917,8	26,9
918,2	32,3
918,6	30,3
919,1	33,557
919,5	39,557
919,9	42,9
920,3	40,271
920,8	44,671
921,2	38,786
921,6	39,357
922	34,557
922,5	35,7
922,9	34,214
923,3	39,671
923,7	34,757
924,2	36,043
924,6	32,7
925	36,014
925,4	31,671
925,8	31,214
926,3	27,729
926,7	30,586
927,1	32,043
927,5	36,243
928	33,157
928,4	34,043
928,8	37,471
929,2	37,014
929,7	37,443
930,1	38,357
930,5	35,786
930,9	38,129
931,3	40,871
931,8	35,786
932,2	33,671
932,6	32,529
933	28,729
933,5	28,529
933,9	32,129
934,3	28,443
934,7	30,929
935,2	29,671
935,6	28,614
936	27,814
936,4	28,5
936,8	25,757
937,3	28,271
937,7	28,814
938,1	33,129
938,5	33,443
939	38,814
939,4	36,329
939,8	35,757
940,2	33,9
940,6	33,214
941,1	29,443
941,5	32,271
941,9	32,757
942,3	32,843
942,8	32,729
943,2	27,386
943,6	23,471
944	28,529
944,4	26,986
944,9	22,471
945,3	25,9
945,7	26,3
946,1	28,671
946,6	30,386
947	24,414
947,4	19,014
947,8	21,243
948,2	19,386
948,7	19,929
949,1	23,014
949,5	20,814
949,9	23,3
950,3	23,043
950,8	19,386
951,2	20,729
951,6	20,386
952	19,986
952,5	19,9
952,9	18,214
953,3	22,814
953,7	25,329
954,1	23,757
954,6	22,643
955	25,729
955,4	25,471
955,8	30,614
956,2	28,3
956,7	26,271
957,1	27,871
957,5	31,414
957,9	28,1
958,3	30,043
958,8	26,871
959,2	29,757
959,6	36,671
960	32,986
960,5	26,043
960,9	26,614
961,3	23,957
961,7	24,529
962,1	24,043
962,6	17,671
963	20,871
963,4	27,643
963,8	24,186
964,2	25,9
964,7	24,471
965,1	27,814
965,5	31,1
965,9	32,357
966,3	30,7
966,8	32,386
967,2	35,443
967,6	32,271
968	29,071
968,4	32,414
968,9	30,329
969,3	27,643
969,7	29,443
970,1	27,414
970,5	31,871
971	32,757
971,4	27,529
971,8	29,357
972,2	28,986
972,6	26,414
973,1	23,471
973,5	20,843
973,9	13,7
974,3	16,5
974,7	12,529
975,2	10,1
975,6	11,129
976	15,957
976,4	15,243
976,8	19,586
977,3	15,529
977,7	14,814
978,1	20,643
978,5	23,129
978,9	21,271
979,4	22,786
979,8	23,214
980,2	27,3
980,6	34,357
981	29,043
981,5	26,5
981,9	28,3
982,3	27,586
982,7	27,271
983,1	22,529
983,6	18,957
984	20,957
984,4	22,043
984,8	17,786
985,2	17,814
985,6	17,471
986,1	13,271
986,5	13,1
986,9	11,271
987,3	6,757
987,7	9,071
988,2	7,9
988,6	9,071
989	15,757
989,4	13,357
989,8	14,071
990,3	18,157
990,7	19,843
991,1	21,271
991,5	20,614
991,9	15,186
992,3	14,843
992,8	14,843
993,2	13,129
993,6	11,414
994	14,014
994,4	15,729
994,9	17,929
995,3	24,043
995,7	28,157
996,1	30,129
996,5	31,786
996,9	37,129
997,4	34,071
997,8	36,043
998,2	33,471
998,6	36,814
999	35,014
999,5	36,529
999,9	31,157
1000,3	31,643
1000,7	34,443
1001,1	30,243
1001,5	27,7
1002	27,929
1002,4	24,529
1002,8	27,529
1003,2	24,557
1003,6	22,414
1004	26,529
1004,5	24,671
1004,9	21,871
1005,3	20,357
1005,7	14,329
1006,1	17,471
1006,6	16,957
1007	12,043
1007,4	7,414
1007,8	12,671
1008,2	19,357
1008,6	22,5
1009,1	23,271
1009,5	26,157
1009,9	27,929
1010,3	35,7
1010,7	37,586
1011,1	33,614
1011,6	33,129
1012	35,557
1012,4	32,614
1012,8	32,014
1013,2	26,814
1013,6	28,414
1014,1	27,786
1014,5	29,5
1014,9	26,329
1015,3	24,357
1015,7	28,9
1016,1	28,443
1016,6	22,986
1017	23,671
1017,4	18,043
1017,8	22,043
1018,2	21,929
1018,6	17,129
1019,1	14,614
1019,5	13,729
1019,9	14,671
1020,3	16,186
1020,7	12,357
1021,1	12,214
1021,6	16,671
1022	18,871
1022,4	21,871
1022,8	18,957
1023,2	19,786
1023,6	18,1
1024,1	24,329
1024,5	23,786
1024,9	26,071
1025,3	26,1
1025,7	25,357
1026,1	19,671
1026,6	26,157
1027	20,557
1027,4	23,386
1027,8	19,529
1028,2	22,1
1028,6	23,814
1029	22,186
1029,5	19,786
1029,9	24,671
1030,3	17,871
1030,7	24,386
1031,1	21,9
1031,5	21,414
1032	29,729
1032,4	35,1
1032,8	28,814
1033,2	28,986
1033,6	23,5
1034	19,071
1034,4	19,929
1034,9	22,757
1035,3	19,3
1035,7	17,386
1036,1	27,529
1036,5	28,271
1036,9	32,214
1037,4	34,3
1037,8	30,043
1038,2	30,614
1038,6	36,271
1039	32,9
1039,4	38,786
1039,8	45,129
1040,3	45,986
1040,7	48,157
1041,1	40,329
1041,5	41,186
1041,9	42,243
1042,3	38,357
1042,7	29,529
1043,2	29,529
1043,6	31,1
1044	39,043
1044,4	37,214
1044,8	33,1
1045,2	33,043
1045,6	39,929
1046,1	39,643
1046,5	37,7
1046,9	35,157
1047,3	35,614
1047,7	32,414
1048,1	28,129
1048,5	24,186
1049	20,271
1049,4	16,043
1049,8	12,957
1050,2	9,843
1050,6	9,243
1051	14,386
1051,4	10,157
1051,9	15,757
1052,3	19,443
1052,7	24,957
1053,1	27,586
1053,5	29,186
1053,9	28,3
1054,3	28,557
1054,8	23,443
1055,2	22,471
1055,6	20,1
1056	20,129
1056,4	21,671
1056,8	21,643
1057,2	19,957
1057,6	21,729
1058,1	24,671
1058,5	21,014
1058,9	19,843
1059,3	19,043
1059,7	17,7
1060,1	23,5
1060,5	23,529
1061	18,929
1061,4	22,1
1061,8	23,157
1062,2	25,7
1062,6	24,7
1063	22,986
1063,4	21,9
1063,8	24,1
1064,3	28,957
1064,7	31,1
1065,1	29,529
1065,5	35,1
1065,9	37,3
1066,3	35,443
1066,7	42,271
1067,1	37,9
1067,6	34,214
1068	36,986
1068,4	36,643
1068,8	34,7
1069,2	37,986
1069,6	30,043
1070	29,871
1070,4	30,157
1070,9	28,014
1071,3	24,014
1071,7	24,271
1072,1	19,729
1072,5	22,214
1072,9	22,814
1073,3	24,129
1073,7	20,014
1074,2	27,529
1074,6	28,014
1075	31,814
1075,4	33,357
1075,8	29,557
1076,2	31,129
1076,6	32,329
1077	26,871
1077,5	29,529
1077,9	24,9
1078,3	20,3
1078,7	23,471
1079,1	23,729
1079,5	24,443
1079,9	25,814
1080,3	22,7
1080,7	25,643
1081,2	25,471
1081,6	23,129
1082	22,071
1082,4	22,443
1082,8	19,586
1083,2	16,7
1083,6	18,357
1084	23,443
1084,5	25,186
1084,9	23,271
1085,3	23,957
1085,7	27,071
1086,1	30,271
1086,5	28,414
1086,9	26,271
1087,3	28,557
1087,7	34,014
1088,2	36,671
1088,6	36,1
1089	37,614
1089,4	41,929
1089,8	36,729
1090,2	32,243
1090,6	27,1
1091	20,386
1091,4	15,243
1091,9	12,014
1092,3	10,214
1092,7	12,786
1093,1	16,043
1093,5	17,557
1093,9	17,957
1094,3	17,814
1094,7	14,643
1095,1	16,014
1095,5	19,5
1096	19,929
1096,4	18,443
1096,8	26,729
1097,2	29,329
1097,6	33,614
1098	29,214
1098,4	31,329
1098,8	30,7
1099,2	30,986
1099,6	27,986
1100,1	27,986
1100,5	26,443
1100,9	25,1
1101,3	19,157
1101,7	17,357
1102,1	18,5
1102,5	15,329
1102,9	8,814
1103,3	8,5
1103,7	14,186
1104,2	14,671
1104,6	13,243
1105	10,614
1105,4	13,929
1105,8	16,929
1106,2	14,929
1106,6	9,329
1107	7,071
1107,4	6,733
1107,8	6,94
1108,3	0,25
