Data from Subt2_00080.txt Node
Date: Mon Aug 28 13:30:26 MSK 2023
User: vat
Spectrometer: MAYP114033
Trigger mode: 0
Integration Time (sec): 1,000000E0
Scans to average: 5
Electric dark correction enabled: true
Nonlinearity correction enabled: false
Boxcar width: 3
XAxis mode: Wavelengths
Number of Pixels in Spectrum: 2068
>>>>>Begin Spectral Data<<<<<
199,4	-0,6
199,9	-5,26
200,4	-5
200,8	-3,557
201,3	-2,757
201,8	-2,329
202,2	-2,586
202,7	-0,957
203,2	4,786
203,6	6,9
204,1	6,014
204,6	6,471
205	4,957
205,5	5,014
206	2,529
206,4	0,9
206,9	1,157
207,4	1,986
207,8	-0,471
208,3	-0,186
208,8	-0,814
209,2	2,043
209,7	2,5
210,2	0,814
210,6	-0,357
211,1	9,243
211,5	8,986
212	11,557
212,5	9,471
212,9	9,271
213,4	7,843
213,9	10,557
214,3	2,129
214,8	5,843
215,3	6,014
215,7	8,071
216,2	8,557
216,7	14,443
217,1	7,643
217,6	11,357
218,1	11,014
218,5	10,729
219	9,643
219,5	11,1
219,9	5,3
220,4	15,271
220,9	12,386
221,3	10,843
221,8	8,243
222,3	12,843
222,7	16,814
223,2	19,471
223,6	14,786
224,1	16,129
224,6	16,043
225	17,986
225,5	16,243
226	9,043
226,4	12,5
226,9	9,443
227,4	11,929
227,8	9,471
228,3	9,386
228,8	9,5
229,2	12,1
229,7	8,729
230,2	13,129
230,6	11,786
231,1	13,414
231,5	16,471
232	13,986
232,5	13,3
232,9	15,757
233,4	16,471
233,9	16,471
234,3	18,586
234,8	18,529
235,3	20,3
235,7	17,814
236,2	15,186
236,7	8,929
237,1	13,014
237,6	12,729
238,1	7,443
238,5	5,586
239	8,986
239,4	7,271
239,9	10,986
240,4	1,643
240,8	0,986
241,3	4,5
241,8	2,186
242,2	-4,1
242,7	-1,586
243,2	0,243
243,6	6,186
244,1	7,843
244,6	1,471
245	0,071
245,5	7,014
245,9	7,043
246,4	5,071
246,9	1,3
247,3	-0,043
247,8	2,471
248,3	11,843
248,7	10,471
249,2	9,729
249,7	13,643
250,1	11,843
250,6	10,729
251	12,814
251,5	5,643
252	3,786
252,4	2,1
252,9	2,014
253,4	5,386
253,8	6,7
254,3	8,129
254,8	14,014
255,2	10,014
255,7	11,214
256,1	8,471
256,6	9,7
257,1	9,357
257,5	9,586
258	0,614
258,5	6,014
258,9	4,129
259,4	3,529
259,9	3,014
260,3	1,243
260,8	0,843
261,2	7,043
261,7	7,9
262,2	12,557
262,6	17,614
263,1	14,729
263,6	13,271
264	12,5
264,5	11,986
264,9	13,1
265,4	9,3
265,9	4,929
266,3	5,643
266,8	10,014
267,3	10,414
267,7	9,614
268,2	9,671
268,7	12,557
269,1	8,843
269,6	9,186
270	2,471
270,5	5,5
271	6,157
271,4	0,1
271,9	-2,129
272,4	0,786
272,8	1,529
273,3	5,329
273,7	0,414
274,2	-3,5
274,7	1,7
275,1	1,757
275,6	2,986
276,1	0,3
276,5	0,757
277	1,957
277,4	4,186
277,9	-2,129
278,4	0,757
278,8	1,729
279,3	6,671
279,8	6,1
280,2	8,1
280,7	4,414
281,1	7,529
281,6	5,9
282,1	2,014
282,5	3,614
283	2,671
283,4	2,357
283,9	6,614
284,4	5,843
284,8	3,957
285,3	4,186
285,8	0,957
286,2	1,729
286,7	2,586
287,1	0,471
287,6	0,214
288,1	-1,671
288,5	2,414
289	3,129
289,5	4,386
289,9	4,129
290,4	3,529
290,8	7,557
291,3	9,786
291,8	6,7
292,2	6,5
292,7	9,186
293,1	6,986
293,6	5,443
294,1	6,929
294,5	5,586
295	5,271
295,5	3,329
295,9	0,9
296,4	3,157
296,8	7,214
297,3	9,043
297,8	9,643
298,2	12,129
298,7	12,443
299,1	10,671
299,6	10,5
300,1	11,043
300,5	6,757
301	7,386
301,5	6,7
301,9	4,1
302,4	7,614
302,8	6,471
303,3	10,786
303,8	18,1
304,2	21,729
304,7	20,386
305,1	23,071
305,6	19,929
306,1	17,414
306,5	6,729
307	-2,986
307,4	-11,129
307,9	-10,643
308,4	-11,329
308,8	-8,1
309,3	-3,871
309,8	1,186
310,2	0,329
310,7	6,414
311,1	10,386
311,6	9,871
312,1	7,957
312,5	4,843
313	8,071
313,4	10,014
313,9	7,071
314,4	0,586
314,8	3,986
315,3	5,586
315,7	6,186
316,2	0,529
316,7	3,614
317,1	1,843
317,6	5,157
318	5,843
318,5	4,757
319	-0,186
319,4	4,643
319,9	1,243
320,3	6,386
320,8	3,586
321,3	0,414
321,7	-1,414
322,2	1,557
322,6	3,243
323,1	2,014
323,6	0,786
324	4,414
324,5	2,7
324,9	7,9
325,4	8,186
325,9	6,957
326,3	7,3
326,8	6,529
327,2	5,671
327,7	7,443
328,2	6,614
328,6	9,871
329,1	6,186
329,5	8,729
330	10,014
330,5	15,929
330,9	12,071
331,4	6,043
331,8	4,214
332,3	10,043
332,8	7,157
333,2	5,329
333,7	-6,471
334,1	-7,729
334,6	-6,243
335,1	-4,643
335,5	-12,157
336	-8,757
336,4	-5,129
336,9	-0,957
337,4	3,386
337,8	4,586
338,3	1,157
338,7	1,586
339,2	-3,329
339,7	-5,243
340,1	-7,5
340,6	-8,357
341	-9,271
341,5	-9,471
342	-8,357
342,4	-9,843
342,9	-6,7
343,3	-0,329
343,8	5,471
344,2	7,129
344,7	6,414
345,2	6,671
345,6	13,329
346,1	8,271
346,5	6,014
347	-1,414
347,5	-1,7
347,9	-1,843
348,4	0,014
348,8	0,7
349,3	-1,3
349,8	-2,014
350,2	2,643
350,7	0,414
351,1	0,271
351,6	-1,557
352	-2,7
352,5	4,271
353	3,329
353,4	1,929
353,9	7,671
354,3	14,386
354,8	11,843
355,3	14,243
355,7	13,329
356,2	18,014
356,6	19,671
357,1	19,1
357,5	20,1
358	29,814
358,5	27,471
358,9	31,3
359,4	29,871
359,8	32,271
360,3	33,5
360,8	40,157
361,2	44,271
361,7	58,614
362,1	63,786
362,6	77,614
363	93,471
363,5	113,186
364	122,386
364,4	136,671
364,9	146,043
365,3	165,414
365,8	186,671
366,3	199,729
366,7	206,557
367,2	220,671
367,6	236,386
368,1	246,814
368,5	252,471
369	250,214
369,5	257,043
369,9	266,557
370,4	269,1
370,8	260,671
371,3	258,9
371,7	256,671
372,2	254,071
372,7	245,7
373,1	235,529
373,6	222,843
374	214,071
374,5	202,671
374,9	191,443
375,4	182,843
375,9	173,214
376,3	161,5
376,8	154,586
377,2	147,071
377,7	143,1
378,2	135,814
378,6	122,871
379,1	111,157
379,5	103,386
380	95,757
380,4	90,471
380,9	81,357
381,4	76,786
381,8	73,843
382,3	74,043
382,7	70,614
383,2	64,729
383,6	61,871
384,1	61,386
384,6	57,214
385	57,843
385,5	55,529
385,9	55,871
386,4	59,443
386,8	60,271
387,3	55,414
387,7	51,386
388,2	45,871
388,7	41,186
389,1	36,157
389,6	34,414
390	30,186
390,5	31,957
390,9	29,757
391,4	27,986
391,9	25,243
392,3	29,329
392,8	25,071
393,2	26,386
393,7	25,386
394,1	26,043
394,6	27,957
395,1	36,043
395,5	31,643
396	34,214
396,4	27,957
396,9	25,014
397,3	27,3
397,8	22,957
398,2	15,757
398,7	12,729
399,2	8,157
399,6	13,929
400,1	12,014
400,5	11,214
401	14,671
401,4	12,843
401,9	14,3
402,4	13,557
402,8	12,157
403,3	13,014
403,7	10,643
404,2	9,557
404,6	13,614
405,1	21,214
405,5	21,186
406	24,871
406,5	25,3
406,9	28,3
407,4	26,7
407,8	23,843
408,3	16,9
408,7	17,3
409,2	12,186
409,6	11,786
410,1	9,986
410,6	10,843
411	12,186
411,5	8,271
411,9	6,357
412,4	9,814
412,8	9,386
413,3	10,443
413,7	11,586
414,2	8,1
414,7	9,9
415,1	13,7
415,6	7,786
416	9,5
416,5	11,7
416,9	13,957
417,4	17,729
417,8	23,7
418,3	23,586
418,8	25,329
419,2	24,814
419,7	23,471
420,1	17,586
420,6	19,443
421	18,529
421,5	21,329
421,9	21,329
422,4	22,957
422,8	22,929
423,3	26,843
423,8	25,529
424,2	23,814
424,7	23,843
425,1	25,986
425,6	24,471
426	25,929
426,5	25,643
426,9	25,443
427,4	29,929
427,9	31,7
428,3	31,014
428,8	33,271
429,2	30,586
429,7	34,614
430,1	34,757
430,6	26,643
431	23,929
431,5	23,214
431,9	23,643
432,4	22,071
432,8	20,9
433,3	20,443
433,8	27,9
434,2	27,871
434,7	24,843
435,1	24,957
435,6	27,557
436	25,557
436,5	26,157
436,9	23,414
437,4	23,071
437,8	25,3
438,3	27,957
438,8	26,157
439,2	30,471
439,7	31,043
440,1	31,129
440,6	33,614
441	34,357
441,5	26,957
441,9	24,014
442,4	26,471
442,8	28,9
443,3	32,814
443,7	29,1
444,2	31,471
444,7	38,986
445,1	46,614
445,6	43,929
446	45,271
446,5	41,814
446,9	48,586
447,4	51,129
447,8	53,986
448,3	55,3
448,7	53,3
449,2	52,729
449,6	54,5
450,1	52,529
450,6	57,129
451	54,071
451,5	57,529
451,9	61,843
452,4	65,071
452,8	68,929
453,3	70,1
453,7	69,043
454,2	73,1
454,6	68,043
455,1	71,414
455,5	72,786
456	74,443
456,4	80,7
456,9	82,214
457,3	80,643
457,8	83,1
458,3	83,414
458,7	88,129
459,2	90,1
459,6	91,5
460,1	99,814
460,5	102,386
461	108,586
461,4	106,7
461,9	106,1
462,3	109,557
462,8	110,929
463,2	106,529
463,7	110,786
464,1	111,043
464,6	119,243
465	118,129
465,5	116,586
466	123,357
466,4	130,243
466,9	134,186
467,3	138,586
467,8	141,757
468,2	150,471
468,7	157,986
469,1	157,986
469,6	152,757
470	154,186
470,5	156,529
470,9	155,186
471,4	159,214
471,8	162,671
472,3	160,271
472,7	166,443
473,2	171,214
473,6	170,957
474,1	171,1
474,5	167,614
475	166,443
475,4	168,157
475,9	165,643
476,4	164,214
476,8	169,043
477,3	172,871
477,7	175,786
478,2	179,157
478,6	182,871
479,1	189,214
479,5	195,929
480	201,357
480,4	204,671
480,9	208,5
481,3	208,9
481,8	209,557
482,2	211,786
482,7	212,329
483,1	204,929
483,6	205,7
484	202,671
484,5	205,929
484,9	209,614
485,4	211,129
485,8	207,214
486,3	210,043
486,7	213,671
487,2	219,443
487,6	214,186
488,1	216,9
488,5	212,329
489	218,471
489,4	227,414
489,9	228,157
490,4	224,329
490,8	229,643
491,3	229,471
491,7	236,757
492,2	236,157
492,6	232,929
493,1	233,414
493,5	242,1
494	249,614
494,4	251,443
494,9	251,614
495,3	249,414
495,8	254,071
496,2	254,586
496,7	252,586
497,1	246,414
497,6	244,843
498	253,1
498,5	255,729
498,9	256,443
499,4	256,1
499,8	254,586
500,3	258,043
500,7	258,614
501,2	251,643
501,6	253,786
502,1	256,757
502,5	261,671
503	264,729
503,4	266,7
503,9	269,929
504,3	272,357
504,8	276,129
505,2	277,9
505,7	279,786
506,1	277,186
506,6	271,071
507	276,471
507,5	277,157
507,9	278,157
508,4	280,814
508,8	280,414
509,3	287,414
509,7	291,7
510,2	287,786
510,6	289,843
511,1	286,529
511,5	281,243
512	275,786
512,4	275,7
512,9	278,386
513,3	282,5
513,8	283,614
514,2	287,843
514,7	288,643
515,1	294,957
515,6	296,357
516	297,329
516,5	296,471
516,9	294,557
517,4	296,986
517,8	299,443
518,3	302,729
518,7	307,1
519,2	313,329
519,6	315,414
520,1	324,729
520,5	324,043
521	325,7
521,4	323,529
521,9	320,614
522,3	317,986
522,8	318,071
523,2	315,071
523,7	318,586
524,1	318,614
524,6	320,786
525	323,957
525,5	326,729
525,9	327,986
526,4	329,214
526,8	329,986
527,3	333,357
527,7	341,643
528,2	342,329
528,6	344,1
529,1	351,529
529,5	357,1
530	361,214
530,4	363,271
530,9	363,3
531,3	364,3
531,8	367,786
532,2	364,843
532,6	365,671
533,1	361,3
533,5	357,729
534	353,386
534,4	350,643
534,9	349,529
535,3	353,014
535,8	353,929
536,2	357,671
536,7	358,043
537,1	367,757
537,6	374,129
538	377,614
538,5	377,843
538,9	378,843
539,4	382,043
539,8	390,471
540,3	387,443
540,7	389,414
541,2	391,757
541,6	391,9
542,1	390,671
542,5	393,986
543	393,786
543,4	393,729
543,9	392,729
544,3	399,557
544,8	403,386
545,2	405,843
545,7	403,043
546,1	406,843
546,5	409,586
547	416,043
547,4	407,814
547,9	407,871
548,3	411,357
548,8	411,586
549,2	415,214
549,7	417,9
550,1	410,271
550,6	415,071
551	415,3
551,5	412,529
551,9	414,671
552,4	408,957
552,8	407,757
553,3	414,957
553,7	416,157
554,2	421,729
554,6	428,414
555,1	430,014
555,5	434,014
555,9	432,3
556,4	436,071
556,8	444,471
557,3	442,671
557,7	440,357
558,2	446,043
558,6	446,1
559,1	454,329
559,5	452,871
560	445,014
560,4	447,214
560,9	449,643
561,3	449,471
561,8	456,814
562,2	454,3
562,7	454,386
563,1	456,786
563,6	458,586
564	457,671
564,4	456,614
564,9	454,929
565,3	457,9
565,8	464,986
566,2	463,5
566,7	466,1
567,1	468,329
567,6	468,529
568	467,3
568,5	463,814
568,9	459,586
569,4	463,814
569,8	461,929
570,3	463,843
570,7	470,043
571,1	470,757
571,6	470,186
572	471,786
572,5	470,329
572,9	468,643
573,4	469,871
573,8	473,9
574,3	474,1
574,7	480,757
575,2	481,014
575,6	486,329
576,1	491,757
576,5	493,129
576,9	487,757
577,4	489,1
577,8	485,786
578,3	486,557
578,7	479,586
579,2	477,929
579,6	474,9
580,1	475,814
580,5	477,929
581	480,843
581,4	484,529
581,9	489,5
582,3	490,671
582,7	488,814
583,2	492,014
583,6	487,271
584,1	482,986
584,5	478,043
585	476,243
585,4	473,7
585,9	479,214
586,3	470,557
586,8	471,957
587,2	473,814
587,6	471,529
588,1	468,671
588,5	473,129
589	468,529
589,4	471,729
589,9	470,386
590,3	469,271
590,8	466,5
591,2	468,871
591,7	463,271
592,1	468,129
592,5	467,814
593	466,986
593,4	468,157
593,9	472,214
594,3	477,557
594,8	480,186
595,2	474,271
595,7	477,386
596,1	478,014
596,6	478,129
597	480,443
597,4	474,471
597,9	472,071
598,3	468,614
598,8	462,986
599,2	463,9
599,7	461,186
600,1	458,843
600,6	454,357
601	455,014
601,4	459,014
601,9	458,729
602,3	452,329
602,8	454,3
603,2	454,986
603,7	461,157
604,1	458,386
604,6	453,614
605	458,814
605,4	462,271
605,9	460,357
606,3	460,5
606,8	453,929
607,2	458,443
607,7	460,471
608,1	459,843
608,6	462,386
609	464,214
609,4	457,214
609,9	459,471
610,3	451,386
610,8	451,271
611,2	444,7
611,7	438,529
612,1	430,529
612,6	432,786
613	429,157
613,4	431,957
613,9	431,729
614,3	434,243
614,8	432,643
615,2	434,214
615,7	436,443
616,1	438,557
616,6	437,157
617	436,1
617,4	426,529
617,9	429,043
618,3	427,5
618,8	425,757
619,2	423,386
619,7	423,043
620,1	418,9
620,5	421,414
621	419,043
621,4	421,586
621,9	415,986
622,3	414,586
622,8	407,586
623,2	406,386
623,6	401,386
624,1	398,243
624,5	389,071
625	391,186
625,4	388,071
625,9	390,3
626,3	394,786
626,8	396,157
627,2	398,129
627,6	401,557
628,1	395,586
628,5	393,157
629	391,443
629,4	381,986
629,9	384,957
630,3	379,243
630,7	379,186
631,2	378,071
631,6	378,986
632,1	378,443
632,5	379,186
633	374,557
633,4	370,586
633,8	369,443
634,3	371,014
634,7	372,357
635,2	366,329
635,6	369,329
636,1	367,814
636,5	368,957
636,9	366,814
637,4	365,386
637,8	361,129
638,3	360,157
638,7	352,643
639,2	348,7
639,6	349,386
640	345,5
640,5	341,443
640,9	335,1
641,4	331,414
641,8	333,643
642,2	333,9
642,7	330,7
643,1	326,729
643,6	331,014
644	331,129
644,5	337,786
644,9	334,814
645,3	338,043
645,8	336,9
646,2	337,214
646,7	328,957
647,1	327,243
647,6	321,986
648	318,071
648,4	312,014
648,9	312,9
649,3	311,586
649,8	308,729
650,2	311,071
650,6	309,1
651,1	307,1
651,5	303,843
652	299,043
652,4	297,414
652,9	297,5
653,3	295,3
653,7	301,329
654,2	300,186
654,6	295,729
655,1	293,214
655,5	292,386
655,9	295,5
656,4	290,271
656,8	280,386
657,3	281,243
657,7	283,271
658,2	285,843
658,6	284,786
659	277,986
659,5	277,186
659,9	274,471
660,4	273,614
660,8	273,043
661,2	267,7
661,7	270,129
662,1	273,586
662,6	272,957
663	273,757
663,4	270,1
663,9	267,586
664,3	269,1
664,8	259,329
665,2	256,843
665,6	255,186
666,1	254,243
666,5	255,3
667	256,614
667,4	254,786
667,9	259,929
668,3	254,529
668,7	254,871
669,2	249,3
669,6	247,014
670,1	245,357
670,5	243,043
670,9	238,157
671,4	238,786
671,8	237,786
672,3	239,357
672,7	238,843
673,1	236,357
673,6	234,786
674	236,243
674,5	230,557
674,9	227,843
675,3	223,5
675,8	221,386
676,2	218,443
676,7	218,814
677,1	215,929
677,5	217,357
678	218,986
678,4	221,814
678,9	220,529
679,3	223,243
679,7	223,243
680,2	218,757
680,6	219,957
681,1	217,271
681,5	216,929
681,9	214,471
682,4	214,814
682,8	213,471
683,3	216,443
683,7	213,614
684,1	212,243
684,6	208,1
685	208,557
685,5	203,729
685,9	201,157
686,3	200,071
686,8	199,157
687,2	202,129
687,7	201,671
688,1	200,157
688,5	201,186
689	197,471
689,4	199,043
689,9	201,414
690,3	200,929
690,7	200,329
691,2	194,271
691,6	193,414
692	190,214
692,5	185,1
692,9	179,814
693,4	174,729
693,8	175,071
694,2	179,586
694,7	172,843
695,1	177,014
695,6	176,843
696	174,871
696,4	173,529
696,9	169,671
697,3	163,757
697,8	166,929
698,2	163,243
698,6	162,043
699,1	164,986
699,5	157,414
699,9	160,786
700,4	162,186
700,8	160,443
701,3	162,929
701,7	163,643
702,1	160,271
702,6	164,357
703	163,443
703,5	160,329
703,9	156,071
704,3	148,7
704,8	146,557
705,2	141,157
705,6	141,357
706,1	136,443
706,5	139,329
707	139,386
707,4	143,9
707,8	141,471
708,3	148,271
708,7	145,186
709,2	146,643
709,6	144,671
710	145,957
710,5	146,5
710,9	148,014
711,3	142,214
711,8	141,471
712,2	136,614
712,7	135,386
713,1	132,729
713,5	127,214
714	127,014
714,4	129,586
714,8	130,957
715,3	133,471
715,7	132,986
716,2	133,814
716,6	133,271
717	130,329
717,5	128,414
717,9	129,814
718,3	127,443
718,8	125,557
719,2	122,357
719,7	122,986
720,1	122,643
720,5	119,357
721	111,614
721,4	110,557
721,8	110,357
722,3	113,186
722,7	113,671
723,2	112,586
723,6	112,271
724	112,786
724,5	110,871
724,9	114,186
725,3	109,214
725,8	108,671
726,2	104,814
726,7	107,271
727,1	108,757
727,5	111,357
728	104,757
728,4	106,957
728,8	102,157
729,3	102,386
729,7	100,129
730,1	98,814
730,6	97,471
731	98,9
731,5	96,3
731,9	101,9
732,3	103,986
732,8	105,043
733,2	104,557
733,6	107,3
734,1	108,814
734,5	109,014
734,9	102,7
735,4	100,9
735,8	97,843
736,3	97,443
736,7	92,157
737,1	90,443
737,6	92,843
738	91,129
738,4	87,214
738,9	86,014
739,3	84,986
739,7	84,986
740,2	84,729
740,6	83,071
741,1	82,986
741,5	86,671
741,9	87,586
742,4	90,586
742,8	90,271
743,2	91,7
743,7	89,729
744,1	92,814
744,5	97,243
745	92,814
745,4	90,071
745,8	90,529
746,3	90,043
746,7	90,529
747,2	87,129
747,6	81,043
748	84,186
748,5	82,329
748,9	78,414
749,3	72,643
749,8	71,7
750,2	72,557
750,6	75,129
751,1	74,043
751,5	70,129
751,9	70,957
752,4	71,586
752,8	70,871
753,3	68,1
753,7	62,786
754,1	65,5
754,6	68,929
755	67,814
755,4	68,786
755,9	69,129
756,3	72,929
756,7	77,786
757,2	74,757
757,6	72,957
758	74,614
758,5	76,786
758,9	74,414
759,3	69,1
759,8	64,3
760,2	62,129
760,6	65,186
761,1	64,329
761,5	61,586
761,9	63,986
762,4	67,157
762,8	66,871
763,3	70,414
763,7	63,586
764,1	67,871
764,6	65,157
765	59,929
765,4	58,929
765,9	63,129
766,3	59,843
766,7	65,243
767,2	57,843
767,6	63,443
768	65,986
768,5	67,471
768,9	66,357
769,3	63,757
769,8	59,414
770,2	62,957
770,6	61,929
771,1	62,986
771,5	62,357
771,9	64,529
772,4	68,529
772,8	67,443
773,2	67,043
773,7	63,929
774,1	65,643
774,5	59,9
775	49,129
775,4	42,671
775,8	43,7
776,3	42,414
776,7	40,729
777,1	34,871
777,6	34,529
778	40,329
778,4	45,157
778,9	44,9
779,3	41,357
779,7	39,329
780,2	45,414
780,6	46,214
781	43,729
781,5	39,957
781,9	41,1
782,3	42,214
782,8	50,729
783,2	41,043
783,6	44,129
784,1	41,271
784,5	44,157
784,9	42,643
785,4	40,729
785,8	34,529
786,2	38,9
786,7	39,443
787,1	42,014
787,5	41,729
788	45,614
788,4	48,957
788,8	47,5
789,3	44,071
789,7	45,129
790,1	45,843
790,6	44,243
791	39,586
791,4	40,1
791,9	36,271
792,3	41,357
792,7	34,957
793,2	33,529
793,6	35,243
794	36,014
794,5	33,157
794,9	41,271
795,3	40,3
795,8	43,843
796,2	39,929
796,6	39,929
797,1	32,357
797,5	36,157
797,9	31,671
798,4	29,986
798,8	30,5
799,2	35,014
799,7	33,986
800,1	43,586
800,5	41,043
801	40,243
801,4	44,214
801,8	42,814
802,2	45,271
802,7	46,271
803,1	44,243
803,5	41,986
804	42,014
804,4	39,157
804,8	36,557
805,3	38,129
805,7	35,329
806,1	37,043
806,6	35,929
807	35,414
807,4	35,529
807,9	35,529
808,3	27,643
808,7	29,043
809,2	30,329
809,6	33,9
810	32,757
810,4	25,9
810,9	27,1
811,3	33,814
811,7	35,186
812,2	33,5
812,6	29,071
813	27,071
813,5	28,9
813,9	27,386
814,3	24,557
814,8	21,586
815,2	17,9
815,6	18,814
816,1	22,786
816,5	26,357
816,9	23,5
817,3	21,729
817,8	20,043
818,2	22,386
818,6	25,814
819,1	26,386
819,5	25,957
819,9	28,329
820,4	31,871
820,8	32,014
821,2	30,071
821,7	28,843
822,1	26,929
822,5	26,186
822,9	27,5
823,4	25,986
823,8	28,9
824,2	27,871
824,7	27,586
825,1	27,271
825,5	28,214
826	29,529
826,4	25,643
826,8	25,871
827,3	28,871
827,7	29,843
828,1	32,386
828,5	27,157
829	28,357
829,4	26,586
829,8	24,586
830,3	24,243
830,7	23,129
831,1	23,729
831,6	28,957
832	28,529
832,4	31,471
832,8	25,157
833,3	24,671
833,7	19,929
834,1	20,7
834,6	17,729
835	19,043
835,4	19,7
835,8	29,071
836,3	27,071
836,7	32,214
837,1	26,786
837,6	29,614
838	25,071
838,4	25,129
838,9	22,9
839,3	28,129
839,7	32,643
840,1	30,357
840,6	28,1
841	31,186
841,4	32,814
841,9	29,5
842,3	24,529
842,7	14,1
843,1	18,614
843,6	15,9
844	14,557
844,4	10,014
844,9	8,271
845,3	8,129
845,7	12,129
846,2	9,271
846,6	13,671
847	12,957
847,4	8,643
847,9	10,471
848,3	12,3
848,7	12,871
849,2	16,1
849,6	15,843
850	16,357
850,4	20,414
850,9	20,986
851,3	21,129
851,7	16,186
852,2	15,1
852,6	12,843
853	10,471
853,4	8,071
853,9	9,271
854,3	8,3
854,7	9,357
855,2	11,643
855,6	12,729
856	10,186
856,4	14,5
856,9	10,757
857,3	8,271
857,7	11,871
858,2	6,929
858,6	3,471
859	5,414
859,4	4,986
859,9	8,557
860,3	9,986
860,7	7,443
861,1	8,157
861,6	14,471
862	14,671
862,4	10,129
862,9	11,729
863,3	6,9
863,7	9,871
864,1	7,757
864,6	5,3
865	7,357
865,4	10,986
865,9	11,157
866,3	17,3
866,7	20,329
867,1	20,529
867,6	24,129
868	29,471
868,4	31,529
868,8	28,814
869,3	29,3
869,7	24,643
870,1	27,214
870,6	21,614
871	89,586
871,4	83,5
871,8	82,529
872,3	78,1
872,7	81,843
873,1	80,929
873,5	82,757
874	3,586
874,4	6,329
874,8	9,414
875,3	11,243
875,7	9,729
876,1	10,614
876,5	6,614
877	9,614
877,4	11,871
877,8	9,386
878,2	7,5
878,7	6,471
879,1	4,529
879,5	9,471
879,9	12,643
880,4	11,671
880,8	11,729
881,2	13,5
881,7	9,843
882,1	12,014
882,5	10,3
882,9	10,043
883,4	15,071
883,8	14,814
884,2	11,643
884,6	12,471
885,1	12,1
885,5	11,757
885,9	12,129
886,3	8,071
886,8	7,071
887,2	8,386
887,6	8,1
888	9,643
888,5	9,043
888,9	12,986
889,3	12,129
889,8	15,586
890,2	16,529
890,6	18,329
891	15,614
891,5	20,9
891,9	14,814
892,3	14,3
892,7	13,186
893,2	14,271
893,6	13,586
894	13,443
894,4	9,357
894,9	9,929
895,3	9,243
895,7	5,471
896,1	5,614
896,6	6,557
897	4,729
897,4	4,414
897,8	6,443
898,3	10,071
898,7	11,786
899,1	10,9
899,5	12,786
900	11,014
900,4	10,929
900,8	10,271
901,2	9,471
901,7	9,643
902,1	11,471
902,5	3,3
902,9	8,357
903,4	9,957
903,8	11,186
904,2	9,614
904,6	9,957
905,1	8,757
905,5	15,243
905,9	12,129
906,3	6,871
906,8	2,9
907,2	5,443
907,6	7,557
908	3,786
908,5	0,414
908,9	3,843
909,3	7,871
909,7	12,929
910,2	12,1
910,6	9,7
911	11,443
911,4	15,329
911,9	8,243
912,3	4,814
912,7	-1,386
913,1	-3,014
913,6	-3,129
914	1,3
914,4	-2,414
914,8	2,386
915,3	2,214
915,7	8,471
916,1	10,814
916,5	11,386
916,9	6,529
917,4	7,529
917,8	2,5
918,2	7,1
918,6	2,614
919,1	-1,214
919,5	-2,814
919,9	1,843
920,3	2,957
920,8	9,7
921,2	6,671
921,6	12,471
922	15,614
922,5	17,986
922,9	16,043
923,3	17,186
923,7	16,529
924,2	17,9
924,6	12,471
925	11,071
925,4	15,157
925,8	15,871
926,3	16,1
926,7	18,243
927,1	17,186
927,5	20,757
928	18,843
928,4	14,043
928,8	14,9
929,2	15,843
929,7	12,157
930,1	10,786
930,5	10,7
930,9	8,9
931,3	7,214
931,8	4,957
932,2	6,214
932,6	9,414
933	9,729
933,5	11,757
933,9	10,757
934,3	10,957
934,7	9,357
935,2	9,671
935,6	5,071
936	5,9
936,4	5,243
936,8	9,557
937,3	10,614
937,7	11,643
938,1	4,843
938,5	4,157
939	5,814
939,4	1,671
939,8	4,357
940,2	2,757
940,6	-1,557
941,1	4,643
941,5	5,071
941,9	6,671
942,3	4,9
942,8	5,586
943,2	9,986
943,6	15,986
944	12,957
944,4	18,329
944,9	15,043
945,3	14,786
945,7	14,329
946,1	10,643
946,6	11,586
947	16,014
947,4	13,471
947,8	15,5
948,2	14,3
948,7	10,7
949,1	15,186
949,5	10,157
949,9	2,243
950,3	3,414
950,8	3,7
951,2	4,586
951,6	3,614
952	-0,586
952,5	-2,557
952,9	0,5
953,3	-0,414
953,7	1,757
954,1	2,529
954,6	3,643
955	4,014
955,4	11,729
955,8	12,929
956,2	12,729
956,7	8,871
957,1	6,643
957,5	5,271
957,9	7,9
958,3	1,529
958,8	0,214
959,2	1,5
959,6	-3,014
960	1,043
960,5	-1,271
960,9	-2,557
961,3	0,014
961,7	-0,986
962,1	-6,1
962,6	-4,214
963	-5,786
963,4	2,414
963,8	3,814
964,2	7,9
964,7	6,157
965,1	7,271
965,5	10,129
965,9	11,957
966,3	5,214
966,8	1,157
967,2	-4,157
967,6	1,843
968	3,786
968,4	1,9
968,9	0,671
969,3	1,129
969,7	2,243
970,1	0,729
970,5	-4,014
971	-6,014
971,4	-9,7
971,8	-11,814
972,2	-9,557
972,6	-6,129
973,1	-0,986
973,5	1,357
973,9	1,014
974,3	4,986
974,7	7,071
975,2	9,043
975,6	5,529
976	4,129
976,4	0,843
976,8	4,814
977,3	6,529
977,7	5,957
978,1	3,7
978,5	3,529
978,9	0,414
979,4	2,443
979,8	0,671
980,2	1,814
980,6	1,757
981	5,071
981,5	5,071
981,9	4,7
982,3	9,7
982,7	10,3
983,1	6,9
983,6	9,214
984	2,129
984,4	1,186
984,8	6,5
985,2	0,243
985,6	0,871
986,1	4,214
986,5	3,443
986,9	7,957
987,3	9,957
987,7	8,871
988,2	9,929
988,6	11,7
989	8,471
989,4	10,957
989,8	6,929
990,3	8,157
990,7	9,243
991,1	14,3
991,5	11,871
991,9	12,529
992,3	9,757
992,8	12,157
993,2	10,786
993,6	6,214
994	0,386
994,4	5,157
994,9	4,271
995,3	7,186
995,7	8,043
996,1	8,786
996,5	11,1
996,9	8,986
997,4	5,7
997,8	12,157
998,2	4,786
998,6	3,471
999	2,471
999,5	0,7
999,9	7,614
1000,3	9,043
1000,7	5,671
1001,1	1,986
1001,5	3,7
1002	3,7
1002,4	4,271
1002,8	1,243
1003,2	-2,671
1003,6	0,443
1004	4,7
1004,5	3,5
1004,9	1,614
1005,3	0,957
1005,7	0,871
1006,1	4,814
1006,6	-1,443
1007	1,1
1007,4	0,586
1007,8	6,157
1008,2	8,357
1008,6	6,814
1009,1	5,786
1009,5	8,729
1009,9	8,386
1010,3	7,786
1010,7	6,643
1011,1	7,614
1011,6	8,986
1012	7,929
1012,4	12,186
1012,8	14,071
1013,2	17,157
1013,6	16,471
1014,1	13,443
1014,5	12,329
1014,9	14,414
1015,3	8,9
1015,7	8,614
1016,1	3,043
1016,6	2,529
1017	5,014
1017,4	7,957
1017,8	3,529
1018,2	-0,1
1018,6	-1,414
1019,1	3,357
1019,5	-0,929
1019,9	-3,843
1020,3	-7,186
1020,7	-6,671
1021,1	2,3
1021,6	1,271
1022	0,529
1022,4	4,929
1022,8	7,814
1023,2	5,329
1023,6	3,271
1024,1	-1,357
1024,5	-5,471
1024,9	-6,586
1025,3	-5,529
1025,7	-6,329
1026,1	-0,614
1026,6	7,786
1027	3,843
1027,4	13,414
1027,8	12,1
1028,2	8,871
1028,6	16,1
1029	13,414
1029,5	10,843
1029,9	14,586
1030,3	13,957
1030,7	18,843
1031,1	17,071
1031,5	9,529
1032	10,986
1032,4	11,786
1032,8	11,729
1033,2	8,3
1033,6	7,1
1034	14,929
1034,4	15,729
1034,9	16,071
1035,3	17,871
1035,7	18,757
1036,1	16,071
1036,5	15,557
1036,9	10,843
1037,4	10,271
1037,8	11,471
1038,2	7,357
1038,6	3,843
1039	5,1
1039,4	3,614
1039,8	0,871
1040,3	-1,929
1040,7	-3,843
1041,1	-7,586
1041,5	-2,186
1041,9	-3,614
1042,3	-6,157
1042,7	-4,071
1043,2	1,329
1043,6	3,929
1044	7,9
1044,4	6,471
1044,8	7,9
1045,2	11,557
1045,6	16,5
1046,1	14,186
1046,5	8,786
1046,9	10,729
1047,3	10,643
1047,7	12,071
1048,1	15,129
1048,5	9,443
1049	13,986
1049,4	15,471
1049,8	11,614
1050,2	9,671
1050,6	8,157
1051	3,614
1051,4	2,471
1051,9	-6,357
1052,3	-2,357
1052,7	-2,471
1053,1	-0,329
1053,5	-0,586
1053,9	4,843
1054,3	6,9
1054,8	10,557
1055,2	3,329
1055,6	3,014
1056	0,729
1056,4	5,043
1056,8	1,071
1057,2	-0,443
1057,6	2,7
1058,1	8,386
1058,5	7,7
1058,9	8,243
1059,3	7,814
1059,7	5,871
1060,1	7,986
1060,5	5,329
1061	2,043
1061,4	9,071
1061,8	9,071
1062,2	5,329
1062,6	9,1
1063	7,414
1063,4	7,443
1063,8	7,814
1064,3	1,986
1064,7	2,786
1065,1	3,757
1065,5	0,843
1065,9	-0,357
1066,3	0,014
1066,7	-1,1
1067,1	-4,3
1067,6	-4,614
1068	-6,071
1068,4	-5,786
1068,8	-6,814
1069,2	-6,7
1069,6	-8,957
1070	-4,843
1070,4	-5,243
1070,9	0,014
1071,3	2,871
1071,7	6,843
1072,1	2,7
1072,5	8,271
1072,9	8,443
1073,3	10,614
1073,7	10,814
1074,2	7,157
1074,6	4,1
1075	8,729
1075,4	6,414
1075,8	5,329
1076,2	4,957
1076,6	5,5
1077	2,186
1077,5	3,386
1077,9	-3,157
1078,3	-0,5
1078,7	-2,757
1079,1	-5,757
1079,5	-10,786
1079,9	-7,043
1080,3	-7,1
1080,7	-1,443
1081,2	-1,157
1081,6	-1,671
1082	-0,271
1082,4	-2,5
1082,8	0,386
1083,2	2,1
1083,6	-1,614
1084	-2,471
1084,5	2,871
1084,9	-3,186
1085,3	1,186
1085,7	0,843
1086,1	0,929
1086,5	-1,214
1086,9	-1,1
1087,3	-7,386
1087,7	-3,1
1088,2	-4,129
1088,6	-5,271
1089	-6,929
1089,4	-1,786
1089,8	-4,443
1090,2	-2,757
1090,6	-3,614
1091	-4,414
1091,4	-5,471
1091,9	-3,243
1092,3	-1,557
1092,7	2,186
1093,1	3,871
1093,5	3,786
1093,9	4,529
1094,3	5,757
1094,7	3,757
1095,1	2,271
1095,5	-3,014
1096	-1,957
1096,4	-4,243
1096,8	-4,186
1097,2	-4,671
1097,6	-3,186
1098	-2,014
1098,4	0,671
1098,8	-0,843
1099,2	-0,071
1099,6	-2,043
1100,1	-1,614
1100,5	-3,243
1100,9	-2,157
1101,3	-2,071
1101,7	-1,643
1102,1	1,671
1102,5	1,1
1102,9	-2,871
1103,3	0,5
1103,7	-1,386
1104,2	0,3
1104,6	5,329
1105	6,814
1105,4	10,614
1105,8	13,414
1106,2	10,471
1106,6	9,5
1107	7,986
1107,4	3,933
1107,8	2,62
1108,3	0
