Data from Subt2_00032.txt Node
Date: Mon Aug 28 13:14:21 MSK 2023
User: vat
Spectrometer: MAYP114033
Trigger mode: 0
Integration Time (sec): 1,000000E0
Scans to average: 5
Electric dark correction enabled: true
Nonlinearity correction enabled: false
Boxcar width: 3
XAxis mode: Wavelengths
Number of Pixels in Spectrum: 2068
>>>>>Begin Spectral Data<<<<<
199,4	-1,233
199,9	1,567
200,4	2,533
200,8	4,395
201,3	7,595
201,8	10,567
202,2	12,167
202,7	14,195
203,2	13,71
203,6	15,795
204,1	16,824
204,6	18,367
205	17,367
205,5	21,881
206	21,71
206,4	23,652
206,9	23,967
207,4	25,424
207,8	21,738
208,3	23,367
208,8	20,367
209,2	25,567
209,7	25,995
210,2	19,681
210,6	18,338
211,1	20,024
211,5	21,681
212	18,881
212,5	16,681
212,9	17,567
213,4	23,481
213,9	27,081
214,3	24,795
214,8	23,11
215,3	24,91
215,7	24,738
216,2	25,252
216,7	25,224
217,1	23,281
217,6	26,024
218,1	22,338
218,5	23,224
219	25,195
219,5	24,052
219,9	19,824
220,4	17,51
220,9	17,51
221,3	23,481
221,8	22,195
222,3	22,824
222,7	24,624
223,2	29,338
223,6	30,938
224,1	31,71
224,6	27,195
225	28,338
225,5	22,938
226	22,338
226,4	22,081
226,9	18,91
227,4	15,338
227,8	15,452
228,3	16,595
228,8	19,852
229,2	23,938
229,7	22,024
230,2	21,71
230,6	24,195
231,1	26,195
231,5	25,338
232	25,967
232,5	22,138
232,9	20,538
233,4	25,424
233,9	29,995
234,3	28,91
234,8	30,281
235,3	23,338
235,7	16,852
236,2	16,567
236,7	11,567
237,1	10,681
237,6	16,567
238,1	12,538
238,5	18,795
239	18,538
239,4	20,738
239,9	23,51
240,4	17,652
240,8	13,681
241,3	19,481
241,8	17,195
242,2	21,881
242,7	28,081
243,2	25,795
243,6	34,224
244,1	28,224
244,6	27,567
245	28,424
245,5	26,51
245,9	16,938
246,4	19,967
246,9	15,967
247,3	21,052
247,8	15,767
248,3	14,71
248,7	15,881
249,2	20,11
249,7	19,652
250,1	13,281
250,6	11,252
251	10,795
251,5	16,51
252	15,681
252,4	16,11
252,9	16,967
253,4	21,281
253,8	24,652
254,3	28,681
254,8	22,338
255,2	21,767
255,7	21,995
256,1	23,167
256,6	22,995
257,1	20,367
257,5	18,595
258	17,767
258,5	17,538
258,9	16,138
259,4	15,795
259,9	15,595
260,3	17,738
260,8	20,424
261,2	24,138
261,7	22,91
262,2	23,481
262,6	23,738
263,1	25,51
263,6	21,881
264	20,995
264,5	16,024
264,9	19,024
265,4	16,481
265,9	13,538
266,3	13,138
266,8	12,738
267,3	9,738
267,7	12,624
268,2	13,424
268,7	16,224
269,1	17,167
269,6	20,51
270	23,367
270,5	24,481
271	25,938
271,4	24,91
271,9	27,538
272,4	30,824
272,8	26,795
273,3	24,738
273,7	23,424
274,2	22,11
274,7	17,424
275,1	17,481
275,6	15,852
276,1	14,252
276,5	14,338
277	19,595
277,4	19,767
277,9	23,31
278,4	21,567
278,8	22,395
279,3	22,967
279,8	23,252
280,2	18,195
280,7	13,91
281,1	17,995
281,6	19,224
282,1	12,881
282,5	15,481
283	13,138
283,4	16,881
283,9	20,052
284,4	17,024
284,8	14,024
285,3	19,51
285,8	19,395
286,2	21,052
286,7	17,452
287,1	19,195
287,6	19,138
288,1	19,424
288,5	17,481
289	18,024
289,5	18,91
289,9	23,967
290,4	26,11
290,8	26,395
291,3	28,281
291,8	30,767
292,2	27,51
292,7	28,595
293,1	27,224
293,6	22,11
294,1	25,424
294,5	23,767
295	20,938
295,5	20,138
295,9	18,195
296,4	18,71
296,8	20,481
297,3	18,424
297,8	15,424
298,2	16,795
298,7	15,081
299,1	19,395
299,6	16,195
300,1	17,967
300,5	16,624
301	20,481
301,5	16,852
301,9	19,452
302,4	17,338
302,8	17,081
303,3	16,71
303,8	16,281
304,2	12,452
304,7	15,167
305,1	16,71
305,6	18,281
306,1	15,852
306,5	15,91
307	14,138
307,4	17,338
307,9	15,395
308,4	17,424
308,8	16,481
309,3	22,481
309,8	21,195
310,2	23,338
310,7	27,767
311,1	26,967
311,6	26,595
312,1	23,567
312,5	17,052
313	14,624
313,4	18,252
313,9	15,081
314,4	20,167
314,8	18,338
315,3	23,024
315,7	26,681
316,2	29,595
316,7	22,081
317,1	23,624
317,6	20,967
318	21,881
318,5	19,424
319	23,824
319,4	20,624
319,9	21,738
320,3	19,91
320,8	24,681
321,3	22,71
321,7	23,195
322,2	19,052
322,6	19,081
323,1	20,024
323,6	21,024
324	16,252
324,5	17,824
324,9	16,652
325,4	18,395
325,9	25,91
326,3	24,567
326,8	21,281
327,2	19,452
327,7	16,195
328,2	15,652
328,6	13,967
329,1	9,481
329,5	10,71
330	8,738
330,5	8,795
330,9	9,195
331,4	14,424
331,8	18,938
332,3	20,481
332,8	24,024
333,2	25,824
333,7	27,252
334,1	31,567
334,6	27,11
335,1	24,281
335,5	25,281
336	23,31
336,4	27,452
336,9	26,481
337,4	27,395
337,8	28,91
338,3	25,824
338,7	26,767
339,2	28,167
339,7	23,367
340,1	22,852
340,6	15,681
341	14,395
341,5	18,738
342	14,052
342,4	18,538
342,9	24,424
343,3	25,081
343,8	28,91
344,2	29,195
344,7	30,852
345,2	35,081
345,6	32,367
346,1	30,281
346,5	27,71
347	31,624
347,5	32,424
347,9	27,081
348,4	24,252
348,8	22,795
349,3	27,052
349,8	32,795
350,2	31,424
350,7	35,224
351,1	37,738
351,6	43,224
352	46,995
352,5	48,252
353	49,195
353,4	55,767
353,9	58,538
354,3	68,652
354,8	73,452
355,3	82,538
355,7	90,338
356,2	105,31
356,6	121,424
357,1	144,91
357,5	166,681
358	194,852
358,5	225,738
358,9	262,852
359,4	309,51
359,8	356,167
360,3	399,795
360,8	458,11
361,2	522,881
361,7	592,024
362,1	662,91
362,6	740,538
363	820,024
363,5	915,338
364	1012,052
364,4	1106,138
364,9	1204,481
365,3	1306,338
365,8	1398,424
366,3	1483,538
366,7	1565,452
367,2	1633,167
367,6	1695,767
368,1	1738,738
368,5	1766,281
369	1783,567
369,5	1794,138
369,9	1775,11
370,4	1750,024
370,8	1708,652
371,3	1657,595
371,7	1599,51
372,2	1535,052
372,7	1459,024
373,1	1387,595
373,6	1306,052
374	1220,938
374,5	1146,31
374,9	1070,71
375,4	987,91
375,9	912,995
376,3	843,71
376,8	780,367
377,2	725,852
377,7	669,967
378,2	616,767
378,6	571,11
379,1	525,824
379,5	483,652
380	441,224
380,4	407,052
380,9	372,624
381,4	343,052
381,8	319,51
382,3	297,967
382,7	277,11
383,2	258,367
383,6	238,652
384,1	225,424
384,6	214,281
385	199,024
385,5	189,681
385,9	179,852
386,4	172,995
386,8	166,252
387,3	154,738
387,7	147,91
388,2	138,081
388,7	126,452
389,1	116,167
389,6	109,11
390	101,767
390,5	93,167
390,9	83,367
391,4	72,452
391,9	73,224
392,3	72,081
392,8	73,052
393,2	69,738
393,7	68,167
394,1	70,738
394,6	77,424
395,1	76,338
395,5	72,51
396	65,652
396,4	64,795
396,9	70,424
397,3	65,938
397,8	59,452
398,2	55,995
398,7	58,11
399,2	60,338
399,6	61,424
400,1	57,081
400,5	63,252
401	75,081
401,4	76,681
401,9	72,881
402,4	75,567
402,8	75,852
403,3	75,138
403,7	69,081
404,2	64,138
404,6	64,91
405,1	71,652
405,5	68,224
406	67,167
406,5	73,595
406,9	80,367
407,4	84,195
407,8	90,51
408,3	93,167
408,7	98,938
409,2	106,024
409,6	109,224
410,1	112,51
410,6	121,367
411	127,281
411,5	134,052
411,9	147,224
412,4	159,481
412,8	166,395
413,3	178,024
413,7	189,452
414,2	198,224
414,7	208,167
415,1	214,481
415,6	222,652
416	237,824
416,5	251,024
416,9	265,11
417,4	283,167
417,8	298,595
418,3	308,595
418,8	328,995
419,2	346,395
419,7	362,938
420,1	381,424
420,6	398,995
421	427,11
421,5	458,967
421,9	482,167
422,4	511,795
422,8	538,652
423,3	561,167
423,8	589,738
424,2	618,395
424,7	647,91
425,1	681,452
425,6	713,91
426	752,224
426,5	794,452
426,9	836,481
427,4	875,338
427,9	920,824
428,3	972,224
428,8	1017,995
429,2	1066,624
429,7	1121,538
430,1	1180,338
430,6	1247,367
431	1309,338
431,5	1368,395
431,9	1440,824
432,4	1518,481
432,8	1598,995
433,3	1685,881
433,8	1771,652
434,2	1864,424
434,7	1958,652
435,1	2066,824
435,6	2169,652
436	2280,567
436,5	2384,195
436,9	2499,538
437,4	2622,967
437,8	2749,31
438,3	2870,31
438,8	3007,452
439,2	3149,938
439,7	3303,738
440,1	3449,967
440,6	3603,995
441	3771,338
441,5	3935,91
441,9	4104,081
442,4	4276,51
442,8	4462,538
443,3	4661,167
443,7	4855,452
444,2	5056,938
444,7	5281,195
445,1	5501,195
445,6	5726,795
446	5954,452
446,5	6185,995
446,9	6422,51
447,4	6673,167
447,8	6912,767
448,3	7169,424
448,7	7428,395
449,2	7692,595
449,6	7962,31
450,1	8256,71
450,6	8542,681
451	8829,624
451,5	9135,281
451,9	9453,138
452,4	9759,595
452,8	10077,338
453,3	10382,71
453,7	10707,967
454,2	11048,995
454,6	11374,738
455,1	11698,567
455,5	12038,652
456	12378,167
456,4	12737,367
456,9	13090,51
457,3	13440,281
457,8	13804,252
458,3	14173,395
458,7	14555,967
459,2	14941,395
459,6	15314,452
460,1	15696,224
460,5	16085,567
461	16467,367
461,4	16847,481
461,9	17233,51
462,3	17624,681
462,8	18012,681
463,2	18397,967
463,7	18765,138
464,1	19152,852
464,6	19535,652
465	19902,224
465,5	20272,195
466	20652,881
466,4	21017,338
466,9	21422,081
467,3	21789,852
467,8	22162,338
468,2	22532,71
468,7	22895,681
469,1	23237,31
469,6	23608,11
470	23953,052
470,5	24298,195
470,9	24639,538
471,4	24975,338
471,8	25299,052
472,3	25641,481
472,7	25949,195
473,2	26270,281
473,6	26582,452
474,1	26890,024
474,5	27202,824
475	27502,481
475,4	27791,767
475,9	28073,652
476,4	28328,852
476,8	28590,91
477,3	28852,281
477,7	29095,024
478,2	29330,852
478,6	29571,681
479,1	29791,967
479,5	30016,824
480	30226,51
480,4	30413,595
480,9	30596,91
481,3	30782,938
481,8	30956,538
482,2	31121,824
482,7	31278,91
483,1	31429,052
483,6	31568,824
484	31698,824
484,5	31819,852
484,9	31907,052
485,4	31989,938
485,8	32049,052
486,3	32111,167
486,7	32171,081
487,2	32226,281
487,6	32261,052
488,1	32286,252
488,5	32330,91
489	32365,452
489,4	32386,081
489,9	32376,11
490,4	32347,595
490,8	32335,624
491,3	32322,767
491,7	32280,052
492,2	32235,367
492,6	32177,052
493,1	32121,138
493,5	32056,995
494	31964,252
494,4	31870,938
494,9	31786,595
495,3	31691,252
495,8	31588,652
496,2	31486,538
496,7	31374,881
497,1	31281,91
497,6	31176,081
498	31047,138
498,5	30909,424
498,9	30764,024
499,4	30625,338
499,8	30491,681
500,3	30336,081
500,7	30172,424
501,2	30015,338
501,6	29857,452
502,1	29715,738
502,5	29543,595
503	29372,852
503,4	29200,252
503,9	29034,224
504,3	28855,852
504,8	28670,71
505,2	28465,995
505,7	28278,138
506,1	28083,538
506,6	27862,052
507	27652,681
507,5	27445,452
507,9	27235,081
508,4	27017,681
508,8	26805,11
509,3	26593,567
509,7	26406,795
510,2	26185,224
510,6	25975,024
511,1	25761,252
511,5	25540,338
512	25316,538
512,4	25078,767
512,9	24836,567
513,3	24603,567
513,8	24367,052
514,2	24129,167
514,7	23910,281
515,1	23679,738
515,6	23452,195
516	23211,767
516,5	22988,567
516,9	22754,624
517,4	22535,51
517,8	22295,31
518,3	22058,395
518,7	21831,224
519,2	21605,367
519,6	21370,424
520,1	21134,767
520,5	20889,481
521	20668,624
521,4	20452,252
521,9	20219,424
522,3	19999,052
522,8	19789,224
523,2	19576,195
523,7	19363,967
524,1	19140,31
524,6	18920,567
525	18726,71
525,5	18520,31
525,9	18312,995
526,4	18112,31
526,8	17921,852
527,3	17721,081
527,7	17526,138
528,2	17311,624
528,6	17120,767
529,1	16922,138
529,5	16727,652
530	16535,567
530,4	16352,11
530,9	16159,081
531,3	15984,081
531,8	15799,567
532,2	15616,31
532,6	15433,138
533,1	15238,938
533,5	15067,567
534	14896,738
534,4	14714,967
534,9	14545,91
535,3	14389,367
535,8	14223,767
536,2	14075,938
536,7	13908,71
537,1	13749,281
537,6	13600,224
538	13446,51
538,5	13281,938
538,9	13127,567
539,4	12973,538
539,8	12822,795
540,3	12673,71
540,7	12524,71
541,2	12383,452
541,6	12243,824
542,1	12112,395
542,5	11973,138
543	11852,367
543,4	11718,538
543,9	11589,567
544,3	11453,338
544,8	11322,51
545,2	11190,252
545,7	11067,11
546,1	10937,652
546,5	10817,024
547	10704,052
547,4	10585,252
547,9	10479,367
548,3	10371,881
548,8	10263,538
549,2	10150,167
549,7	10043,424
550,1	9929,71
550,6	9835,481
551	9717,224
551,5	9607,338
551,9	9498,767
552,4	9405,081
552,8	9314,024
553,3	9221,167
553,7	9121,967
554,2	9036,024
554,6	8945,395
555,1	8855,024
555,5	8758,167
555,9	8667,824
556,4	8575,138
556,8	8483,424
557,3	8395,281
557,7	8311,252
558,2	8232,767
558,6	8160,081
559,1	8078,081
559,5	8005,11
560	7933,738
560,4	7850,824
560,9	7789,395
561,3	7712,795
561,8	7639,052
562,2	7563,367
562,7	7486,824
563,1	7415,881
563,6	7350,538
564	7266,081
564,4	7198,31
564,9	7124,71
565,3	7057,824
565,8	6994,881
566,2	6924,252
566,7	6863,424
567,1	6804,252
567,6	6743,052
568	6683,252
568,5	6624,024
568,9	6555,967
569,4	6493,052
569,8	6426,538
570,3	6365,824
570,7	6304,795
571,1	6242,081
571,6	6178,795
572	6126,738
572,5	6068,795
572,9	6022,624
573,4	5967,938
573,8	5922,252
574,3	5872,395
574,7	5831,452
575,2	5788,138
575,6	5743,881
576,1	5692,681
576,5	5646,71
576,9	5584,195
577,4	5538,91
577,8	5480,138
578,3	5424,995
578,7	5374,881
579,2	5322,624
579,6	5270,452
580,1	5230,481
580,5	5182,081
581	5138,624
581,4	5092,138
581,9	5051,452
582,3	5019,052
582,7	4976,081
583,2	4934,71
583,6	4896,167
584,1	4859,51
584,5	4817,91
585	4778,91
585,4	4726,91
585,9	4683,71
586,3	4646,881
586,8	4601,338
587,2	4560,338
587,6	4526,824
588,1	4491,938
588,5	4454,938
589	4419,881
589,4	4375,624
589,9	4339,281
590,3	4308,881
590,8	4273,91
591,2	4232,91
591,7	4209,224
592,1	4181,967
592,5	4161,11
593	4135,738
593,4	4102,624
593,9	4073,91
594,3	4050,31
594,8	4016,824
595,2	3989,081
595,7	3956,11
596,1	3929,681
596,6	3900,167
597	3873,281
597,4	3842,31
597,9	3813,624
598,3	3789,51
598,8	3759,995
599,2	3732,252
599,7	3710,452
600,1	3684,595
600,6	3656,538
601	3636,167
601,4	3606,024
601,9	3579,824
602,3	3559,767
602,8	3532,51
603,2	3506,624
603,7	3478,595
604,1	3453,424
604,6	3428,424
605	3407,795
605,4	3375,252
605,9	3351,452
606,3	3327,767
606,8	3306,338
607,2	3278,767
607,7	3252,938
608,1	3228,824
608,6	3212,395
609	3192,081
609,4	3171,395
609,9	3155,738
610,3	3130,91
610,8	3105,795
611,2	3085,681
611,7	3056,652
612,1	3027,71
612,6	3000,452
613	2971,395
613,4	2950,224
613,9	2934,767
614,3	2910,995
614,8	2887,395
615,2	2872,452
615,7	2851,652
616,1	2829,281
616,6	2812,224
617	2790,595
617,4	2770,081
617,9	2751,767
618,3	2732,395
618,8	2713,624
619,2	2699,281
619,7	2676,538
620,1	2658,71
620,5	2638,538
621	2626,081
621,4	2606,252
621,9	2592,195
622,3	2572,424
622,8	2558,452
623,2	2542,967
623,6	2525,052
624,1	2504,767
624,5	2488,91
625	2462,081
625,4	2446,795
625,9	2429,052
626,3	2415,795
626,8	2401,224
627,2	2382,995
627,6	2365,624
628,1	2352,138
628,5	2329,11
629	2314,024
629,4	2287,081
629,9	2265,967
630,3	2244,424
630,7	2228,938
631,2	2216,595
631,6	2199,224
632,1	2178,567
632,5	2172,652
633	2161,881
633,4	2148,51
633,8	2132,252
634,3	2113,652
634,7	2100,195
635,2	2084,51
635,6	2064,367
636,1	2044,452
636,5	2032,881
636,9	2010,338
637,4	1996,567
637,8	1982,652
638,3	1972,738
638,7	1957,881
639,2	1946,967
639,6	1938,081
640	1926,595
640,5	1909,481
640,9	1899,852
641,4	1888,452
641,8	1877,138
642,2	1861,081
642,7	1848,167
643,1	1833,224
643,6	1826,31
644	1817,138
644,5	1805,195
644,9	1793,881
645,3	1784,338
645,8	1769,024
646,2	1757,424
646,7	1742,424
647,1	1722,538
647,6	1705,567
648	1692,795
648,4	1684,71
648,9	1674,167
649,3	1664,681
649,8	1657,167
650,2	1649,681
650,6	1640,252
651,1	1628,11
651,5	1610,31
652	1602,481
652,4	1591,424
652,9	1581,824
653,3	1572,567
653,7	1560,195
654,2	1550,824
654,6	1545,395
655,1	1529,681
655,5	1522,51
655,9	1508,967
656,4	1499,081
656,8	1492,967
657,3	1483,567
657,7	1469,938
658,2	1457,367
658,6	1447,652
659	1438,31
659,5	1425,652
659,9	1417,195
660,4	1403,938
660,8	1395,338
661,2	1385,167
661,7	1377,795
662,1	1371,395
662,6	1363,938
663	1350,052
663,4	1341,995
663,9	1334,595
664,3	1319,681
664,8	1305,024
665,2	1295,195
665,6	1283,652
666,1	1274,395
666,5	1261,51
667	1248,481
667,4	1248,995
667,9	1240,367
668,3	1228,881
668,7	1223,51
669,2	1210,681
669,6	1203,11
670,1	1197,852
670,5	1189,852
670,9	1179,367
671,4	1167,824
671,8	1158,081
672,3	1158,395
672,7	1152,281
673,1	1143,538
673,6	1131,338
674	1123,767
674,5	1115,081
674,9	1109,91
675,3	1095,567
675,8	1088,252
676,2	1076,395
676,7	1070,938
677,1	1070,452
677,5	1063,395
678	1054,738
678,4	1048,681
678,9	1037,795
679,3	1036,824
679,7	1030,052
680,2	1017,595
680,6	1012,138
681,1	999,91
681,5	995,795
681,9	988,281
682,4	980,938
682,8	972,167
683,3	966,881
683,7	960,995
684,1	954,538
684,6	943,31
685	935,995
685,5	918,081
685,9	908,452
686,3	903,367
686,8	899,224
687,2	896,224
687,7	888,624
688,1	887,852
688,5	889,595
689	892,138
689,4	881,595
689,9	871,281
690,3	866,595
690,7	866,252
691,2	861,51
691,6	852,795
692	843,052
692,5	836,91
692,9	833,395
693,4	824,967
693,8	817,652
694,2	809,624
694,7	804,795
695,1	797,081
695,6	798,252
696	793,538
696,4	789,567
696,9	781,281
697,3	777,767
697,8	775,024
698,2	765,224
698,6	754,967
699,1	749,481
699,5	741,71
699,9	739,338
700,4	731,167
700,8	727,024
701,3	725,224
701,7	715,881
702,1	707,91
702,6	701,91
703	697,338
703,5	690,31
703,9	685,224
704,3	683,052
704,8	683,624
705,2	682,481
705,6	681,51
706,1	676,167
706,5	674,51
707	670,224
707,4	664,31
707,8	662,024
708,3	651,738
708,7	646,281
709,2	639,31
709,6	636,795
710	629,338
710,5	618,681
710,9	612,681
711,3	613,51
711,8	605,167
712,2	601,852
712,7	592,395
713,1	585,481
713,5	593,167
714	586,795
714,4	580,795
714,8	583,024
715,3	582,024
715,7	581,967
716,2	584,481
716,6	570,681
717	570,081
717,5	567,738
717,9	556,995
718,3	551,795
718,8	546,138
719,2	537,281
719,7	537,195
720,1	530,881
720,5	527,91
721	527,652
721,4	521,281
721,8	514,881
722,3	517,024
722,7	512,424
723,2	510,052
723,6	506,11
724	503,081
724,5	501,281
724,9	500,824
725,3	490,538
725,8	486,424
726,2	480,252
726,7	467,281
727,1	460,481
727,5	455,338
728	447,11
728,4	447,938
728,8	444,11
729,3	440,367
729,7	443,567
730,1	442,367
730,6	437,738
731	433,624
731,5	429,995
731,9	428,481
732,3	427,195
732,8	426,367
733,2	424,852
733,6	427,995
734,1	427,91
734,5	429,167
734,9	424,652
735,4	420,51
735,8	415,652
736,3	409,652
736,7	405,452
737,1	405,424
737,6	398,081
738	401,938
738,4	403,938
738,9	402,281
739,3	406,681
739,7	404,31
740,2	402,424
740,6	398,567
741,1	390,481
741,5	383,71
741,9	383,681
742,4	380,652
742,8	378,024
743,2	371,824
743,7	372,91
744,1	376,395
744,5	374,567
745	370,595
745,4	369,567
745,8	367,567
746,3	368,138
746,7	365,681
747,2	356,881
747,6	357,481
748	358,538
748,5	355,024
748,9	349,91
749,3	349,024
749,8	344,481
750,2	341,224
750,6	334,595
751,1	325,424
751,5	321,595
751,9	322,11
752,4	322,281
752,8	325,395
753,3	325,081
753,7	326,652
754,1	330,881
754,6	326,395
755	325,51
755,4	322,252
755,9	319,738
756,3	320,938
756,7	321,081
757,2	315,481
757,6	312,224
758	305,452
758,5	301,224
758,9	299,195
759,3	296,595
759,8	286,91
760,2	285,338
760,6	292,995
761,1	298,824
761,5	297,624
761,9	291,624
762,4	289,538
762,8	293,481
763,3	293,91
763,7	285,938
764,1	277,567
764,6	274,052
765	272,367
765,4	274,31
765,9	273,795
766,3	273,224
766,7	272,652
767,2	273,71
767,6	277,11
768	276,567
768,5	271,995
768,9	267,881
769,3	260,081
769,8	254,652
770,2	250,71
770,6	247,538
771,1	243,052
771,5	240,452
771,9	240,395
772,4	243,11
772,8	247,681
773,2	250,224
773,7	246,138
774,1	252,395
774,5	251,538
775	250,11
775,4	250,795
775,8	242,91
776,3	239,824
776,7	241,024
777,1	234,338
777,6	227,538
778	226,938
778,4	224,852
778,9	227,652
779,3	224,567
779,7	218,31
780,2	218,91
780,6	226,824
781	221,795
781,5	218,167
781,9	217,424
782,3	215,681
782,8	219,795
783,2	214,367
783,6	207,881
784,1	206,71
784,5	205,424
784,9	201,624
785,4	207,681
785,8	203,767
786,2	203,31
786,7	202,824
787,1	207,081
787,5	203,452
788	201,338
788,4	196,71
788,8	193,281
789,3	195,624
789,7	194,024
790,1	190,652
790,6	190,11
791	188,481
791,4	188,024
791,9	188,31
792,3	186,652
792,7	187,11
793,2	188,595
793,6	188,395
794	188,081
794,5	183,767
794,9	184,967
795,3	182,91
795,8	183,938
796,2	173,224
796,6	176,081
797,1	175,567
797,5	172,71
797,9	169,881
798,4	173,052
798,8	169,852
799,2	176,052
799,7	172,224
800,1	175,967
800,5	176,052
801	177,624
801,4	169,51
801,8	168,567
802,2	166,624
802,7	165,967
803,1	162,595
803,5	160,881
804	160,767
804,4	163,91
804,8	165,624
805,3	160,795
805,7	158,167
806,1	152,281
806,6	154,081
807	148,224
807,4	147,538
807,9	142,995
808,3	148,195
808,7	147,395
809,2	150,11
809,6	149,824
810	151,567
810,4	150,338
810,9	148,595
811,3	145,081
811,7	140,081
812,2	138,624
812,6	135,71
813	135,481
813,5	137,338
813,9	135,738
814,3	130,595
814,8	133,824
815,2	132,338
815,6	129,224
816,1	123,624
816,5	116,71
816,9	119,881
817,3	124,224
817,8	128,624
818,2	127,538
818,6	127,995
819,1	128,738
819,5	132,224
819,9	128,995
820,4	129,738
820,8	126,11
821,2	122,138
821,7	122,31
822,1	121,452
822,5	121,938
822,9	122,081
823,4	116,51
823,8	114,538
824,2	119,281
824,7	115,767
825,1	114,624
825,5	110,71
826	101,567
826,4	104,024
826,8	101,71
827,3	99,938
827,7	103,481
828,1	107,338
828,5	109,31
829	117,024
829,4	111,681
829,8	116,681
830,3	115,538
830,7	108,938
831,1	105,881
831,6	102,824
832	102,938
832,4	106,481
832,8	98,538
833,3	97,224
833,7	98,224
834,1	95,681
834,6	95,224
835	95,452
835,4	88,995
835,8	89,71
836,3	88,395
836,7	89,138
837,1	91,281
837,6	87,538
838	84,252
838,4	85,024
838,9	84,31
839,3	83,51
839,7	86,538
840,1	90,052
840,6	92,738
841	89,967
841,4	91,71
841,9	95,081
842,3	94,995
842,7	92,738
843,1	84,081
843,6	79,995
844	80,395
844,4	81,681
844,9	79,395
845,3	78,71
845,7	76,567
846,2	83,852
846,6	87,967
847	89,91
847,4	90,424
847,9	89,738
848,3	85,681
848,7	85,595
849,2	77,738
849,6	74,51
850	76,538
850,4	70,795
850,9	69,624
851,3	73,91
851,7	74,51
852,2	71,567
852,6	71,71
853	68,052
853,4	73,367
853,9	71,795
854,3	73,024
854,7	74,967
855,2	81,538
855,6	80,595
856	84,367
856,4	75,481
856,9	77,224
857,3	72,824
857,7	72,452
858,2	68,338
858,6	65,052
859	60,081
859,4	63,852
859,9	62,338
860,3	63,71
860,7	57,995
861,1	58,852
861,6	65,081
862	63,824
862,4	62,167
862,9	64,052
863,3	62,31
863,7	64,595
864,1	63,395
864,6	63,824
865	65,91
865,4	69,452
865,9	68,824
866,3	71,024
866,7	65,281
867,1	62,681
867,6	58,31
868	50,567
868,4	49,052
868,8	47,252
869,3	49,767
869,7	57,767
870,1	64,624
870,6	62,881
871	53,995
871,4	55,395
871,8	56,738
872,3	46,11
872,7	37,567
873,1	28,738
873,5	32,395
874	49,852
874,4	51,167
874,8	48,995
875,3	53,481
875,7	56,224
876,1	65,31
876,5	64,481
877	61,395
877,4	57,71
877,8	56,195
878,2	60,51
878,7	60,538
879,1	56,567
879,5	53,024
879,9	49,995
880,4	47,967
880,8	50,138
881,2	45,481
881,7	47,024
882,1	47,938
882,5	47,395
882,9	49,11
883,4	50,024
883,8	50,11
884,2	50,424
884,6	50,938
885,1	46,567
885,5	46,338
885,9	45,538
886,3	44,395
886,8	44,767
887,2	41,452
887,6	39,91
888	41,424
888,5	42,852
888,9	40,824
889,3	43,938
889,8	42,538
890,2	40,195
890,6	40,195
891	39,281
891,5	38,338
891,9	39,024
892,3	36,395
892,7	35,11
893,2	41,11
893,6	37,967
894	38,824
894,4	36,852
894,9	38,481
895,3	39,452
895,7	40,738
896,1	35,738
896,6	39,481
897	42,481
897,4	45,967
897,8	47,567
898,3	48,624
898,7	43,681
899,1	48,824
899,5	46,738
900	44,081
900,4	41,481
900,8	33,138
901,2	29,195
901,7	35,481
902,1	30,138
902,5	29,91
902,9	27,567
903,4	28,024
903,8	30,71
904,2	31,938
904,6	28,624
905,1	31,624
905,5	32,624
905,9	32,167
906,3	32,738
906,8	31,91
907,2	31,452
907,6	28,652
908	29,995
908,5	25,995
908,9	29,595
909,3	26,624
909,7	27,224
910,2	23,767
910,6	28,11
911	30,881
911,4	34,252
911,9	31,852
912,3	36,91
912,7	38,624
913,1	39,767
913,6	39,138
914	41,795
914,4	40,395
914,8	41,138
915,3	38,852
915,7	39,424
916,1	41,081
916,5	37,938
916,9	31,367
917,4	31,367
917,8	29,967
918,2	28,281
918,6	27,481
919,1	25,338
919,5	28,224
919,9	27,795
920,3	30,252
920,8	33,367
921,2	31,452
921,6	33,367
922	32,995
922,5	31,481
922,9	28,338
923,3	29,252
923,7	25,11
924,2	26,567
924,6	22,338
925	25,852
925,4	24,31
925,8	28,424
926,3	24,395
926,7	22,595
927,1	23,081
927,5	26,452
928	27,881
928,4	24,252
928,8	26,681
929,2	32,11
929,7	38,767
930,1	41,11
930,5	39,252
930,9	33,567
931,3	41,738
931,8	40,567
932,2	33,395
932,6	26,624
933	17,31
933,5	18,424
933,9	19,481
934,3	13,224
934,7	10,824
935,2	10,538
935,6	8,595
936	9,367
936,4	6,938
936,8	10,681
937,3	15,31
937,7	17,138
938,1	21,367
938,5	24,881
939	30,767
939,4	30,538
939,8	26,224
940,2	22,31
940,6	17,338
941,1	13,967
941,5	15,424
941,9	14,652
942,3	13,938
942,8	15,71
943,2	12,395
943,6	15,51
944	17,024
944,4	14,595
944,9	11,71
945,3	14,824
945,7	16,224
946,1	20,852
946,6	20,31
947	20,51
947,4	19,595
947,8	25,224
948,2	27,424
948,7	24,595
949,1	25,138
949,5	22,624
949,9	24,195
950,3	22,91
950,8	21,967
951,2	21,738
951,6	20,824
952	20,795
952,5	21,881
952,9	17,652
953,3	19,71
953,7	16,224
954,1	12,624
954,6	14,652
955	18,624
955,4	21,11
955,8	27,281
956,2	26,395
956,7	25,452
957,1	26,938
957,5	31,538
957,9	26,395
958,3	23,91
958,8	22,995
959,2	28,338
959,6	33,024
960	29,538
960,5	22,652
960,9	25,338
961,3	25,881
961,7	23,281
962,1	21,338
962,6	21,595
963	25,167
963,4	32,224
963,8	27,452
964,2	26,938
964,7	24,995
965,1	24,31
965,5	24,967
965,9	25,681
966,3	23,852
966,8	25,138
967,2	28,281
967,6	30,967
968	27,281
968,4	28,595
968,9	25,881
969,3	22,252
969,7	18,652
970,1	18,167
970,5	15,624
971	17,995
971,4	12,595
971,8	14,452
972,2	16,824
972,6	19,881
973,1	19,424
973,5	22,167
973,9	21,138
974,3	22,681
974,7	19,024
975,2	18,395
975,6	18,995
976	16,424
976,4	12,338
976,8	14,224
977,3	10,595
977,7	14,481
978,1	15,91
978,5	16,338
978,9	18,567
979,4	20,681
979,8	18,567
980,2	26,852
980,6	29,624
981	25,91
981,5	24,51
981,9	24,367
982,3	22,852
982,7	21,767
983,1	16,138
983,6	14,538
984	19,252
984,4	16,452
984,8	13,967
985,2	15,481
985,6	19,281
986,1	15,395
986,5	14,795
986,9	4,852
987,3	9,367
987,7	12,224
988,2	8,652
988,6	5,052
989	7,881
989,4	4,367
989,8	10,338
990,3	11,11
990,7	7,652
991,1	8,881
991,5	11,224
991,9	8,31
992,3	7,71
992,8	6,995
993,2	2,767
993,6	4,91
994	9,224
994,4	10,567
994,9	11,91
995,3	17,595
995,7	14,681
996,1	19,31
996,5	17,395
996,9	20,024
997,4	16,538
997,8	19,195
998,2	19,195
998,6	19,624
999	16,481
999,5	17,71
999,9	9,967
1000,3	11,824
1000,7	14,452
1001,1	9,024
1001,5	14,138
1002	15,395
1002,4	11,967
1002,8	16,967
1003,2	17,538
1003,6	16,081
1004	20,195
1004,5	18,767
1004,9	18,681
1005,3	23,824
1005,7	24,995
1006,1	20,567
1006,6	18,395
1007	12,224
1007,4	9,167
1007,8	9,624
1008,2	12,624
1008,6	9,652
1009,1	9,452
1009,5	14,91
1009,9	21,852
1010,3	26,367
1010,7	26,795
1011,1	25,138
1011,6	21,281
1012	24,51
1012,4	21,595
1012,8	17,281
1013,2	13,995
1013,6	15,767
1014,1	10,71
1014,5	14,481
1014,9	16,052
1015,3	15,081
1015,7	15,824
1016,1	18,852
1016,6	20,081
1017	20,338
1017,4	23,11
1017,8	22,852
1018,2	21,452
1018,6	24,11
1019,1	25,024
1019,5	21,938
1019,9	24,052
1020,3	21,881
1020,7	24,51
1021,1	22,767
1021,6	20,195
1022	20,024
1022,4	18,081
1022,8	17,624
1023,2	16,51
1023,6	12,824
1024,1	21,91
1024,5	24,138
1024,9	23,252
1025,3	25,338
1025,7	24,024
1026,1	23,338
1026,6	27,938
1027	22,367
1027,4	21,252
1027,8	19,024
1028,2	17,367
1028,6	19,138
1029	14,367
1029,5	12,624
1029,9	15,052
1030,3	14,71
1030,7	17,795
1031,1	19,824
1031,5	19,452
1032	22,938
1032,4	25,138
1032,8	18,967
1033,2	16,681
1033,6	15,395
1034	13,395
1034,4	14,481
1034,9	20,081
1035,3	16,024
1035,7	16,395
1036,1	24,624
1036,5	23,738
1036,9	24,481
1037,4	26,995
1037,8	20,024
1038,2	24,995
1038,6	26,11
1039	23,252
1039,4	29,967
1039,8	34,024
1040,3	36,71
1040,7	46,452
1041,1	36,91
1041,5	43,138
1041,9	43,995
1042,3	35,881
1042,7	29,367
1043,2	25,338
1043,6	22,338
1044	26,995
1044,4	26,567
1044,8	20,967
1045,2	22,138
1045,6	25,595
1046,1	24,338
1046,5	23,852
1046,9	27,367
1047,3	24,024
1047,7	24,595
1048,1	23,424
1048,5	25,424
1049	26,538
1049,4	24,024
1049,8	22,452
1050,2	17,31
1050,6	21,852
1051	24,224
1051,4	19,595
1051,9	16,595
1052,3	17,652
1052,7	16,024
1053,1	23,795
1053,5	16,281
1053,9	16,395
1054,3	13,081
1054,8	13,224
1055,2	12,938
1055,6	17,024
1056	12,624
1056,4	14,738
1056,8	13,824
1057,2	19,652
1057,6	25,681
1058,1	26,395
1058,5	18,938
1058,9	19,167
1059,3	17,652
1059,7	18,967
1060,1	18,681
1060,5	17,51
1061	13,567
1061,4	15,567
1061,8	13,738
1062,2	15,424
1062,6	12,081
1063	14,395
1063,4	11,281
1063,8	11,881
1064,3	17,138
1064,7	19,938
1065,1	23,624
1065,5	30,681
1065,9	33,738
1066,3	33,367
1066,7	38,224
1067,1	31,252
1067,6	36,738
1068	36,681
1068,4	30,138
1068,8	26,995
1069,2	29,995
1069,6	23,31
1070	26,938
1070,4	26,652
1070,9	28,224
1071,3	30,681
1071,7	28,195
1072,1	21,367
1072,5	26,995
1072,9	25,538
1073,3	18,91
1073,7	13,338
1074,2	13,538
1074,6	14,11
1075	21,995
1075,4	23,538
1075,8	21,024
1076,2	25,595
1076,6	29,252
1077	30,795
1077,5	32,795
1077,9	26,138
1078,3	21,881
1078,7	23,081
1079,1	21,71
1079,5	21,281
1079,9	22,91
1080,3	23,224
1080,7	25,681
1081,2	27,738
1081,6	25,995
1082	26,338
1082,4	24,795
1082,8	20,967
1083,2	15,31
1083,6	16,938
1084	14,31
1084,5	15,052
1084,9	11,824
1085,3	11,252
1085,7	11,31
1086,1	16,138
1086,5	12,738
1086,9	14,538
1087,3	17,338
1087,7	20,367
1088,2	22,024
1088,6	23,452
1089	23,138
1089,4	28,538
1089,8	26,195
1090,2	24,538
1090,6	18,71
1091	16,452
1091,4	14,167
1091,9	11,881
1092,3	10,824
1092,7	9,881
1093,1	11,824
1093,5	16,681
1093,9	18,51
1094,3	18,738
1094,7	16,624
1095,1	14,795
1095,5	17,652
1096	21,052
1096,4	21,71
1096,8	23,595
1097,2	24,938
1097,6	30,424
1098	27,967
1098,4	30,538
1098,8	28,738
1099,2	26,652
1099,6	25,995
1100,1	25,738
1100,5	20,967
1100,9	20,367
1101,3	18,395
1101,7	14,652
1102,1	13,852
1102,5	12,967
1102,9	8,481
1103,3	9,995
1103,7	14,738
1104,2	12,367
1104,6	14,167
1105	16,195
1105,4	13,824
1105,8	15,31
1106,2	13,138
1106,6	8,481
1107	7,481
1107,4	5,367
1107,8	1,727
1108,3	1,017
