Data from Subt2_00070.txt Node
Date: Mon Aug 28 13:27:36 MSK 2023
User: vat
Spectrometer: MAYP114033
Trigger mode: 0
Integration Time (sec): 1,000000E0
Scans to average: 5
Electric dark correction enabled: true
Nonlinearity correction enabled: false
Boxcar width: 3
XAxis mode: Wavelengths
Number of Pixels in Spectrum: 2068
>>>>>Begin Spectral Data<<<<<
199,4	-1,017
199,9	-5,507
200,4	-4,933
200,8	-2,295
201,3	-1,152
201,8	0,19
202,2	0,905
202,7	0,276
203,2	4,276
203,6	5,248
204,1	3,419
204,6	4,619
205	4,59
205,5	5,762
206	7,333
206,4	7,448
206,9	9,362
207,4	10,476
207,8	7,019
208,3	3,448
208,8	1,876
209,2	3,733
209,7	4,248
210,2	2,048
210,6	1,876
211,1	7,476
211,5	8,905
212	9,39
212,5	4,876
212,9	5,505
213,4	6,733
213,9	3,248
214,3	-0,895
214,8	-0,952
215,3	-2,81
215,7	0,362
216,2	-4,438
216,7	-1,867
217,1	-2,667
217,6	-2,095
218,1	-4,267
218,5	-1,181
219	-2,638
219,5	1,676
219,9	-3,981
220,4	3,105
220,9	1,248
221,3	3,79
221,8	-0,495
222,3	1,105
222,7	1,876
223,2	-0,01
223,6	-3,038
224,1	-1,238
224,6	0,448
225	2,505
225,5	1,162
226	-5,552
226,4	0,79
226,9	-0,667
227,4	2,362
227,8	2,79
228,3	0,133
228,8	-1,41
229,2	7,619
229,7	7,962
230,2	13,105
230,6	9,505
231,1	10,162
231,5	14,448
232	17,076
232,5	10,505
232,9	11,162
233,4	4,276
233,9	6,533
234,3	6,533
234,8	6,762
235,3	8,076
235,7	10,219
236,2	7,962
236,7	8,276
237,1	9,219
237,6	7,076
238,1	6,562
238,5	2,819
239	4,876
239,4	3,305
239,9	6,905
240,4	5,133
240,8	9,362
241,3	10,533
241,8	15,162
242,2	10,99
242,7	8,362
243,2	8,305
243,6	10,105
244,1	5,162
244,6	-2,124
245	-7,552
245,5	-4,838
245,9	-0,01
246,4	-0,21
246,9	-0,01
247,3	4,79
247,8	8,048
248,3	14,59
248,7	13,333
249,2	12,419
249,7	16,248
250,1	9,79
250,6	4,076
251	2,476
251,5	-1,438
252	-2,267
252,4	-3,695
252,9	-8,438
253,4	-2,295
253,8	-4,124
254,3	-0,495
254,8	2,505
255,2	2,848
255,7	1,562
256,1	-1,438
256,6	-3,924
257,1	4,19
257,5	3,048
258	-0,352
258,5	4,505
258,9	3,448
259,4	7,733
259,9	5,219
260,3	-1,01
260,8	-4,81
261,2	-1,067
261,7	-1,952
262,2	0,619
262,6	0,219
263,1	-0,81
263,6	-1,581
264	5,105
264,5	5,162
264,9	1,019
265,4	-1,238
265,9	-1,638
266,3	1,448
266,8	6,39
267,3	5,733
267,7	4,219
268,2	6,476
268,7	13,076
269,1	5,505
269,6	6,819
270	0,933
270,5	5,705
271	3,733
271,4	0,59
271,9	-4,181
272,4	3,419
272,8	-1,267
273,3	3,162
273,7	-4,352
274,2	-3,724
274,7	-3,324
275,1	-2,867
275,6	1,876
276,1	7,248
276,5	6,876
277	8,248
277,4	9,19
277,9	7,133
278,4	8,248
278,8	3,705
279,3	4,762
279,8	6,848
280,2	8,533
280,7	6,076
281,1	5,733
281,6	6,562
282,1	5,448
282,5	1,619
283	-2,695
283,4	-2,838
283,9	-0,352
284,4	5,448
284,8	1,99
285,3	-1,038
285,8	0,876
286,2	3,133
286,7	-1,667
287,1	-4,695
287,6	-7,238
288,1	-4,952
288,5	-2,524
289	-6,781
289,5	-8,267
289,9	-4,324
290,4	-1,41
290,8	-1,695
291,3	1,648
291,8	3,505
292,2	11,248
292,7	8,733
293,1	9,962
293,6	7,476
294,1	9,905
294,5	5,333
295	5,648
295,5	3,648
295,9	6,133
296,4	1,619
296,8	2,505
297,3	7,448
297,8	12,219
298,2	12,876
298,7	10,962
299,1	11,705
299,6	13,162
300,1	14,676
300,5	5,905
301	5,448
301,5	3,476
301,9	2,076
302,4	3,419
302,8	6,562
303,3	11,162
303,8	16,048
304,2	13,79
304,7	12,619
305,1	10,79
305,6	9,933
306,1	5,933
306,5	-4,038
307	-10,038
307,4	-16,61
307,9	-14,581
308,4	-12,867
308,8	-12,495
309,3	-8,467
309,8	-5,724
310,2	-4,238
310,7	-0,124
311,1	0,248
311,6	-0,638
312,1	-2,867
312,5	-2,781
313	-2,267
313,4	-0,124
313,9	2,219
314,4	-2,01
314,8	3,39
315,3	10,019
315,7	8,333
316,2	6,933
316,7	9,105
317,1	8,905
317,6	10,705
318	9,619
318,5	4,362
319	7,19
319,4	9,333
319,9	6,39
320,3	2,476
320,8	3,39
321,3	1,362
321,7	5,59
322,2	1,619
322,6	3,562
323,1	3,276
323,6	7,162
324	6,905
324,5	9,648
324,9	6,933
325,4	8,705
325,9	7,505
326,3	8,333
326,8	4,362
327,2	5,19
327,7	2,448
328,2	5,333
328,6	6,076
329,1	0,419
329,5	1,505
330	7,19
330,5	11,248
330,9	11,79
331,4	5,476
331,8	4,105
332,3	10,019
332,8	11,819
333,2	8,019
333,7	-0,01
334,1	-3,467
334,6	-0,638
335,1	0,219
335,5	-2,495
336	-0,924
336,4	0,248
336,9	4,476
337,4	5,133
337,8	7,219
338,3	4,99
338,7	4,962
339,2	1,705
339,7	0,19
340,1	-2,838
340,6	-1,81
341	-3,724
341,5	-4,61
342	-8,324
342,4	-17,524
342,9	-12,181
343,3	-8,867
343,8	-5,21
344,2	-3,21
344,7	-3,438
345,2	0,248
345,6	9,933
346,1	3,59
346,5	5,333
347	2,105
347,5	0,848
347,9	3,276
348,4	5,362
348,8	6,848
349,3	6,048
349,8	4,476
350,2	5,762
350,7	7,419
351,1	10,333
351,6	12,248
352	10,076
352,5	19,476
353	23,648
353,4	29,562
353,9	37,19
354,3	48,105
354,8	52,476
355,3	68,105
355,7	79,848
356,2	93,39
356,6	106,105
357,1	123,19
357,5	142,733
358	172,505
358,5	194,733
358,9	226,876
359,4	265,305
359,8	307,762
360,3	348,619
360,8	395,99
361,2	451,19
361,7	518,248
362,1	583,162
362,6	651,39
363	731,276
363,5	818,162
364	906,705
364,4	996,99
364,9	1081,476
365,3	1172,105
365,8	1263,419
366,3	1342,219
366,7	1411,448
367,2	1476,562
367,6	1525,419
368,1	1567,048
368,5	1588,676
369	1596,105
369,5	1598,619
369,9	1588,933
370,4	1561,933
370,8	1524,276
371,3	1478,676
371,7	1425,476
372,2	1367,676
372,7	1295,876
373,1	1228,219
373,6	1151,676
374	1076,79
374,5	1002,819
374,9	935,848
375,4	871,276
375,9	813,19
376,3	744,562
376,8	687,448
377,2	637,362
377,7	585,99
378,2	536,59
378,6	489,333
379,1	444,59
379,5	408,648
380	373,276
380,4	342,705
380,9	315,248
381,4	290,59
381,8	267,076
382,3	246,705
382,7	231,762
383,2	213,733
383,6	199,533
384,1	186,933
384,6	174,019
385	161,676
385,5	152,133
385,9	142,419
386,4	140,59
386,8	129,476
387,3	119,476
387,7	111,162
388,2	104,819
388,7	95,019
389,1	87,19
389,6	77,419
390	74,276
390,5	74,533
390,9	67,676
391,4	59,162
391,9	57,733
392,3	56,59
392,8	54,076
393,2	53,419
393,7	45,333
394,1	43,19
394,6	47,733
395,1	49,933
395,5	45,476
396	43,076
396,4	37,676
396,9	39,248
397,3	43,305
397,8	39,419
398,2	32,162
398,7	31,019
399,2	29,733
399,6	28,276
400,1	26,219
400,5	21,133
401	24,076
401,4	24,162
401,9	27,819
402,4	27,219
402,8	33,019
403,3	37,705
403,7	38,133
404,2	35,648
404,6	36,19
405,1	37,305
405,5	38,076
406	34,962
406,5	33,905
406,9	35,362
407,4	31,762
407,8	32,333
408,3	29,448
408,7	32,476
409,2	31,276
409,6	31,876
410,1	32,676
410,6	34,933
411	37,276
411,5	34,819
411,9	36,105
412,4	42,448
412,8	40,876
413,3	42,905
413,7	48,362
414,2	50,019
414,7	53,362
415,1	57,505
415,6	56,762
416	61,076
416,5	66,076
416,9	69,162
417,4	73,133
417,8	78,133
418,3	73,733
418,8	79,19
419,2	81,819
419,7	84,162
420,1	80,819
420,6	84,076
421	87,819
421,5	93,39
421,9	93,59
422,4	96,39
422,8	96,276
423,3	101,39
423,8	102,048
424,2	97,305
424,7	101,476
425,1	100,59
425,6	98,048
426	101,619
426,5	102,933
426,9	102,733
427,4	109,648
427,9	110,419
428,3	112,133
428,8	114,562
429,2	113,076
429,7	114,848
430,1	114,59
430,6	110,962
431	108,362
431,5	107,076
431,9	110,333
432,4	112,048
432,8	115,305
433,3	121,133
433,8	125,962
434,2	130,933
434,7	132,362
435,1	134,448
435,6	136,362
436	140,648
436,5	144,905
436,9	148,819
437,4	154,162
437,8	164,59
438,3	175,705
438,8	189,333
439,2	194,533
439,7	200,619
440,1	213,362
440,6	225,019
441	231,676
441,5	237,133
441,9	240,933
442,4	253,848
442,8	264,676
443,3	276,762
443,7	278,19
444,2	291,019
444,7	307,705
445,1	323,79
445,6	335,19
446	351,505
446,5	360,876
446,9	385,505
447,4	408,333
447,8	422,419
448,3	439,276
448,7	458,848
449,2	468,676
449,6	491,648
450,1	509,105
450,6	523,905
451	543,362
451,5	566,19
451,9	586,505
452,4	613,762
452,8	632,79
453,3	654,448
453,7	676,762
454,2	700,562
454,6	722,39
455,1	751,219
455,5	776,362
456	803,962
456,4	827,333
456,9	861,19
457,3	890,533
457,8	920,448
458,3	947,219
458,7	980,133
459,2	1011,876
459,6	1049,59
460,1	1078,533
460,5	1106,59
461	1138,448
461,4	1171,162
461,9	1205,076
462,3	1242,162
462,8	1277,105
463,2	1311,162
463,7	1352,676
464,1	1387,476
464,6	1422,39
465	1458,79
465,5	1494,305
466	1534,162
466,4	1569,733
466,9	1606,448
467,3	1648,476
467,8	1695,876
468,2	1734,505
468,7	1776,305
469,1	1815,619
469,6	1854,333
470	1899,162
470,5	1935,562
470,9	1969,905
471,4	2014,248
471,8	2053,533
472,3	2088,59
472,7	2136,048
473,2	2175,448
473,6	2218,362
474,1	2256,362
474,5	2295,305
475	2335,562
475,4	2377,019
475,9	2414,848
476,4	2453,19
476,8	2493,905
477,3	2539,248
477,7	2583,79
478,2	2628,79
478,6	2675,648
479,1	2715,59
479,5	2760,048
480	2796,619
480,4	2833,619
480,9	2868,305
481,3	2896,705
481,8	2930,476
482,2	2962,705
482,7	2993,848
483,1	3028,819
483,6	3058,79
484	3087,676
484,5	3123,105
484,9	3155,19
485,4	3188,019
485,8	3217,219
486,3	3248,676
486,7	3281,133
487,2	3315,562
487,6	3338,733
488,1	3371,79
488,5	3401,019
489	3436,162
489,4	3464,048
489,9	3487,676
490,4	3503,419
490,8	3528,762
491,3	3539,648
491,7	3557,076
492,2	3571,762
492,6	3587,705
493,1	3607,448
493,5	3631,933
494	3661,905
494,4	3681,533
494,9	3699,733
495,3	3708,676
495,8	3730,333
496,2	3747,905
496,7	3763,733
497,1	3768,99
497,6	3787,962
498	3808,762
498,5	3828,019
498,9	3835,19
499,4	3852,276
499,8	3866,705
500,3	3879,733
500,7	3887,162
501,2	3894,39
501,6	3907,333
502,1	3920,505
502,5	3925,476
503	3937,105
503,4	3943,419
503,9	3959,076
504,3	3968,219
504,8	3978,048
505,2	3988,59
505,7	3997,962
506,1	3997,048
506,6	4005,048
507	4007,133
507,5	4011,533
507,9	4021,99
508,4	4033,476
508,8	4037,276
509,3	4050,305
509,7	4061,962
510,2	4070,419
510,6	4085,762
511,1	4081,59
511,5	4080,619
512	4091,819
512,4	4096,448
512,9	4097,848
513,3	4099,505
513,8	4102,676
514,2	4108,619
514,7	4115,305
515,1	4112,533
515,6	4118,733
516	4121,162
516,5	4130,048
516,9	4131,362
517,4	4143,362
517,8	4156,362
518,3	4163,705
518,7	4171,648
519,2	4187,048
519,6	4190,505
520,1	4198,79
520,5	4201,619
521	4195,79
521,4	4202,733
521,9	4210,419
522,3	4211,448
522,8	4217,99
523,2	4223,419
523,7	4231,562
524,1	4243,79
524,6	4252,219
525	4257,133
525,5	4263,076
525,9	4271,076
526,4	4273,59
526,8	4277,333
527,3	4283,819
527,7	4301,105
528,2	4304,99
528,6	4323,819
529,1	4335,876
529,5	4347,876
530	4359,305
530,4	4378,562
530,9	4376,248
531,3	4387,533
531,8	4382,819
532,2	4387,276
532,6	4396,019
533,1	4393,048
533,5	4388,476
534	4393,905
534,4	4396,962
534,9	4409,905
535,3	4422,505
535,8	4432,305
536,2	4451,076
536,7	4464,705
537,1	4482,019
537,6	4497,59
538	4512,448
538,5	4523,962
538,9	4531,705
539,4	4537,819
539,8	4548,762
540,3	4553,162
540,7	4557,105
541,2	4564,305
541,6	4571,048
542,1	4583,39
542,5	4600,333
543	4606,19
543,4	4619,962
543,9	4631,648
544,3	4640,676
544,8	4649,19
545,2	4658,933
545,7	4662,59
546,1	4670,848
546,5	4675,248
547	4687,362
547,4	4701,419
547,9	4705,59
548,3	4713,533
548,8	4723,762
549,2	4735,39
549,7	4753,59
550,1	4758,305
550,6	4765,905
551	4781,79
551,5	4782,248
551,9	4790,876
552,4	4796,733
552,8	4799,99
553,3	4808,933
553,7	4811,333
554,2	4818,619
554,6	4839,448
555,1	4850,162
555,5	4858,105
555,9	4868,333
556,4	4876,562
556,8	4892,162
557,3	4897,619
557,7	4900,333
558,2	4912,219
558,6	4922,648
559,1	4927,448
559,5	4935,962
560	4939,505
560,4	4952,333
560,9	4967,448
561,3	4973,905
561,8	4987,048
562,2	4993,276
562,7	5000,819
563,1	5002,333
563,6	5002,59
564	4999,99
564,4	4997,59
564,9	5000,819
565,3	5004,39
565,8	5012,648
566,2	5019,076
566,7	5033,048
567,1	5038,133
567,6	5042,59
568	5037,676
568,5	5045,99
568,9	5044,219
569,4	5049,676
569,8	5043,505
570,3	5042,733
570,7	5045,59
571,1	5048,076
571,6	5048,733
572	5049,59
572,5	5045,676
572,9	5044,59
573,4	5044,705
573,8	5050,276
574,3	5058,905
574,7	5056,79
575,2	5055,59
575,6	5060,39
576,1	5054,705
576,5	5059,705
576,9	5056,048
577,4	5048,219
577,8	5043,105
578,3	5038,79
578,7	5022,419
579,2	5015,733
579,6	5009,762
580,1	5006,076
580,5	5002,648
581	4998,19
581,4	4992,162
581,9	4996,362
582,3	4994,105
582,7	4979,076
583,2	4974,133
583,6	4963,448
584,1	4955,59
584,5	4952,876
585	4942,448
585,4	4945,705
585,9	4948,019
586,3	4936,848
586,8	4934,933
587,2	4930,048
587,6	4924,105
588,1	4919,505
588,5	4906,39
589	4896,048
589,4	4887,219
589,9	4876,219
590,3	4864,333
590,8	4850,905
591,2	4840,39
591,7	4830,619
592,1	4819,99
592,5	4814,276
593	4802,933
593,4	4803,162
593,9	4798,476
594,3	4795,533
594,8	4796,933
595,2	4794,79
595,7	4786,505
596,1	4785,79
596,6	4772,219
597	4766,476
597,4	4753,676
597,9	4740,962
598,3	4727,162
598,8	4712,562
599,2	4704,533
599,7	4701,648
600,1	4686,305
600,6	4679,076
601	4663,762
601,4	4660,648
601,9	4651,19
602,3	4632,762
602,8	4617,048
603,2	4614,705
603,7	4602,619
604,1	4601,019
604,6	4582,448
605	4585,419
605,4	4577,162
605,9	4556,619
606,3	4541,676
606,8	4528,619
607,2	4508,848
607,7	4499,362
608,1	4483,933
608,6	4466,676
609	4464,99
609,4	4450,048
609,9	4436,019
610,3	4418,705
610,8	4410,219
611,2	4389,476
611,7	4380,819
612,1	4358,048
612,6	4343,619
613	4324,648
613,4	4309,276
613,9	4293,533
614,3	4277,276
614,8	4259,762
615,2	4254,333
615,7	4238,533
616,1	4233,419
616,6	4223,848
617	4202,59
617,4	4186,505
617,9	4177,562
618,3	4159,733
618,8	4149,39
619,2	4132,305
619,7	4117,733
620,1	4095,019
620,5	4076,19
621	4050,476
621,4	4039,476
621,9	4013,505
622,3	3989,076
622,8	3969,905
623,2	3959,733
623,6	3946,39
624,1	3926,79
624,5	3901,048
625	3891,905
625,4	3874,162
625,9	3855,676
626,3	3838,59
626,8	3813,962
627,2	3798,419
627,6	3778,476
628,1	3750,39
628,5	3734,962
629	3714,048
629,4	3697,048
629,9	3684,733
630,3	3667,333
630,7	3651,448
631,2	3638,962
631,6	3622,562
632,1	3608,105
632,5	3584,676
633	3560,162
633,4	3547,39
633,8	3522,848
634,3	3504,933
634,7	3482,19
635,2	3460,619
635,6	3446,99
636,1	3431,19
636,5	3407,419
636,9	3393,39
637,4	3375,476
637,8	3363,705
638,3	3347,219
638,7	3328,019
639,2	3317,276
639,6	3300,962
640	3284,99
640,5	3264,762
640,9	3247,876
641,4	3226,305
641,8	3216,419
642,2	3197,962
642,7	3181,19
643,1	3162,019
643,6	3151,733
644	3139,676
644,5	3131,562
644,9	3106,419
645,3	3087,362
645,8	3071,305
646,2	3059,648
646,7	3035,505
647,1	3014,019
647,6	2997,019
648	2981,162
648,4	2967,505
648,9	2958,848
649,3	2941,39
649,8	2932,333
650,2	2921,419
650,6	2909,276
651,1	2899,076
651,5	2878,705
652	2859,533
652,4	2840,133
652,9	2825,248
653,3	2809,419
653,7	2793,133
654,2	2777,219
654,6	2765,105
655,1	2742,105
655,5	2734,476
655,9	2721,648
656,4	2704,048
656,8	2681,733
657,3	2660,676
657,7	2644,848
658,2	2638,562
658,6	2620,933
659	2601,648
659,5	2579,505
659,9	2572,448
660,4	2560,533
660,8	2544,59
661,2	2518,133
661,7	2502,619
662,1	2486,133
662,6	2473,619
663	2452,419
663,4	2431,39
663,9	2417,505
664,3	2412,733
664,8	2397,79
665,2	2379,933
665,6	2365,476
666,1	2352,819
666,5	2343,59
667	2328,905
667,4	2309,905
667,9	2297,933
668,3	2288,476
668,7	2271,505
669,2	2257,99
669,6	2244,533
670,1	2227,39
670,5	2209,79
670,9	2193,019
671,4	2175,79
671,8	2165,333
672,3	2149,105
672,7	2132,79
673,1	2119,19
673,6	2115,076
674	2099,476
674,5	2084,048
674,9	2066,105
675,3	2052,676
675,8	2042,162
676,2	2026,962
676,7	2007,705
677,1	1996,562
677,5	1983,448
678	1976,162
678,4	1961,99
678,9	1948,162
679,3	1939,419
679,7	1927,676
680,2	1908,962
680,6	1899,562
681,1	1886,162
681,5	1874,79
681,9	1860,619
682,4	1852,105
682,8	1841,705
683,3	1833,105
683,7	1820,933
684,1	1801,705
684,6	1792,59
685	1779,705
685,5	1765,333
685,9	1755,248
686,3	1746,248
686,8	1733,705
687,2	1725,905
687,7	1711,819
688,1	1702,419
688,5	1691,648
689	1676,676
689,4	1670,476
689,9	1657,933
690,3	1652,448
690,7	1643,19
691,2	1626,448
691,6	1613,99
692	1601,819
692,5	1581,79
692,9	1572,59
693,4	1554,448
693,8	1544,39
694,2	1539,876
694,7	1530,79
695,1	1529,276
695,6	1523,448
696	1516,448
696,4	1509,705
696,9	1494,076
697,3	1484,076
697,8	1470,99
698,2	1449,562
698,6	1434,448
699,1	1424,419
699,5	1411,419
699,9	1408,505
700,4	1397,048
700,8	1393,648
701,3	1395,248
701,7	1385,162
702,1	1371,648
702,6	1366,276
703	1352,962
703,5	1341,533
703,9	1323,133
704,3	1303,076
704,8	1297,676
705,2	1286,79
705,6	1276,59
706,1	1269,133
706,5	1269,219
707	1265,448
707,4	1259,59
707,8	1250,276
708,3	1248,533
708,7	1239,019
709,2	1227,619
709,6	1215,648
710	1209,59
710,5	1205,276
710,9	1197,162
711,3	1180,848
711,8	1175,99
712,2	1172,133
712,7	1159,505
713,1	1150,733
713,5	1138,848
714	1131,19
714,4	1127,79
714,8	1118,219
715,3	1107,933
715,7	1101,933
716,2	1093,39
716,6	1088,619
717	1080,419
717,5	1067,276
717,9	1062,419
718,3	1050,705
718,8	1045,276
719,2	1034,562
719,7	1023,762
720,1	1015,019
720,5	1012,162
721	998,419
721,4	992,905
721,8	986,533
722,3	981,819
722,7	975,048
723,2	967,905
723,6	960,59
724	952,39
724,5	942,276
724,9	933,505
725,3	921,905
725,8	914,333
726,2	902,39
726,7	897,105
727,1	893,305
727,5	888,133
728	877,905
728,4	874,648
728,8	864,505
729,3	864,448
729,7	855,333
730,1	846,019
730,6	842,99
731	835,276
731,5	826,362
731,9	830,59
732,3	825,076
732,8	815,333
733,2	814,933
733,6	813,476
734,1	816,362
734,5	814,076
734,9	800,99
735,4	794,305
735,8	791,676
736,3	786,562
736,7	777,105
737,1	769,476
737,6	766,876
738	765,39
738,4	760,276
738,9	757,733
739,3	753,59
739,7	750,419
740,2	745,562
740,6	738,59
741,1	729,59
741,5	724,59
741,9	714,39
742,4	706,962
742,8	700,39
743,2	698,219
743,7	692,133
744,1	694,848
744,5	695,162
745	691,562
745,4	690,962
745,8	690,419
746,3	684,962
746,7	685,648
747,2	678,248
747,6	673,162
748	676,648
748,5	665,019
748,9	655,505
749,3	643,848
749,8	640,19
750,2	634,248
750,6	633,39
751,1	623,562
751,5	626,019
751,9	624,562
752,4	620,505
752,8	613,79
753,3	608,333
753,7	593,848
754,1	589,99
754,6	585,676
755	580,762
755,4	585,333
755,9	578,99
756,3	579,962
756,7	578,705
757,2	579,048
757,6	572,705
758	568,276
758,5	558,305
758,9	553,076
759,3	543,99
759,8	537,99
760,2	530,362
760,6	526,219
761,1	518,133
761,5	518,105
761,9	515,99
762,4	511,59
762,8	506,733
763,3	506,933
763,7	502,162
764,1	503,933
764,6	496,333
765	489,248
765,4	489,848
765,9	492,305
766,3	487,048
766,7	482,448
767,2	477,476
767,6	477,419
768	475,648
768,5	469,648
768,9	467,876
769,3	462,019
769,8	464,019
770,2	462,248
770,6	460,419
771,1	457,133
771,5	458,619
771,9	457,248
772,4	455,133
772,8	446,59
773,2	440,276
773,7	432,99
774,1	435,533
774,5	427,419
775	419,448
775,4	414,59
775,8	413,876
776,3	414,305
776,7	409,705
777,1	399,105
777,6	391,648
778	389,762
778,4	392,048
778,9	386,933
779,3	381,648
779,7	379,362
780,2	381,99
780,6	380,076
781	374,848
781,5	365,162
781,9	361,962
782,3	360,79
782,8	361,99
783,2	358,733
783,6	359,476
784,1	357,962
784,5	359,19
784,9	360,562
785,4	354,648
785,8	351,933
786,2	347,848
786,7	347,99
787,1	344,648
787,5	341,962
788	337,59
788,4	335,933
788,8	331,733
789,3	328,219
789,7	325,705
790,1	322,448
790,6	319,819
791	318,448
791,4	318,362
791,9	315,59
792,3	315,333
792,7	311,219
793,2	311,276
793,6	308,333
794	305,848
794,5	300,59
794,9	304,905
795,3	306,333
795,8	302,248
796,2	301,248
796,6	298,533
797,1	291,905
797,5	296,962
797,9	287,619
798,4	279,19
798,8	279,419
799,2	274,362
799,7	275,79
800,1	276,219
800,5	270,933
801	269,39
801,4	270,505
801,8	265,476
802,2	263,276
802,7	261,133
803,1	258,362
803,5	253,962
804	253,876
804,4	250,448
804,8	253,562
805,3	256,362
805,7	254,019
806,1	254,105
806,6	254,619
807	250,219
807,4	249,933
807,9	246,505
808,3	242,848
808,7	238,448
809,2	238,99
809,6	235,905
810	235,39
810,4	234,99
810,9	226,248
811,3	226,019
811,7	225,219
812,2	218,048
812,6	212,333
813	209,219
813,5	203,39
813,9	208,362
814,3	203,19
814,8	201,248
815,2	202,105
815,6	205,676
816,1	202,905
816,5	202,276
816,9	195,962
817,3	197,819
817,8	198,419
818,2	195,733
818,6	192,505
819,1	195,819
819,5	193,219
819,9	195,79
820,4	191,133
820,8	186,933
821,2	186,733
821,7	183,476
822,1	174,362
822,5	173,219
822,9	171,533
823,4	175,476
823,8	175,99
824,2	176,419
824,7	177,648
825,1	181,133
825,5	178,362
826	178,162
826,4	173,733
826,8	172,305
827,3	170,619
827,7	169,733
828,1	170,019
828,5	171,076
829	171,448
829,4	165,962
829,8	163,305
830,3	161,419
830,7	157,79
831,1	158,562
831,6	157,99
832	154,105
832,4	152,933
832,8	148,048
833,3	148,705
833,7	146,533
834,1	142,105
834,6	140,505
835	140,876
835,4	139,962
835,8	141,362
836,3	138,448
836,7	138,019
837,1	140,162
837,6	137,705
838	133,733
838,4	134,162
838,9	131,876
839,3	134,762
839,7	134,733
840,1	126,733
840,6	128,305
841	130,362
841,4	130,819
841,9	129,333
842,3	122,219
842,7	116,676
843,1	120,362
843,6	119,762
844	116,705
844,4	114,276
844,9	114,419
845,3	113,933
845,7	114,905
846,2	112,076
846,6	107,105
847	109,276
847,4	102,619
847,9	102,048
848,3	104,19
848,7	103,133
849,2	104,962
849,6	101,39
850	97,333
850,4	101,019
850,9	100,59
851,3	96,248
851,7	94,476
852,2	90,933
852,6	93,048
853	89,933
853,4	89,048
853,9	88,99
854,3	90,933
854,7	93,962
855,2	95,305
855,6	96,133
856	95,79
856,4	93,562
856,9	94,333
857,3	93,019
857,7	94,419
858,2	85,762
858,6	81,305
859	78,305
859,4	79,99
859,9	78,762
860,3	74,99
860,7	72,019
861,1	77,133
861,6	81,648
862	85,105
862,4	80,448
862,9	77,876
863,3	75,248
863,7	74,562
864,1	74,39
864,6	71,79
865	70,619
865,4	73,79
865,9	72,79
866,3	77,19
866,7	78,133
867,1	73,733
867,6	75,276
868	78,219
868,4	74,933
868,8	73,248
869,3	72,99
869,7	70,733
870,1	73,533
870,6	68,19
871	87,019
871,4	86,99
871,8	89,476
872,3	85,362
872,7	88,533
873,1	89,019
873,5	92,876
874	64,819
874,4	65,99
874,8	66,99
875,3	67,933
875,7	62,705
876,1	59,59
876,5	54,59
877	57,962
877,4	59,333
877,8	59,819
878,2	57,876
878,7	61,876
879,1	58,59
879,5	59,99
879,9	63,533
880,4	62,505
880,8	55,619
881,2	56,59
881,7	47,79
882,1	50,619
882,5	50,705
882,9	49,762
883,4	51,305
883,8	53,305
884,2	49,505
884,6	55,019
885,1	58,705
885,5	57,305
885,9	55,248
886,3	52,448
886,8	51,59
887,2	53,505
887,6	53,505
888	52,048
888,5	56,676
888,9	55,676
889,3	53,362
889,8	57,648
890,2	55,219
890,6	53,733
891	52,048
891,5	51,762
891,9	49,59
892,3	51,219
892,7	49,019
893,2	51,733
893,6	49,162
894	48,905
894,4	46,848
894,9	43,962
895,3	42,162
895,7	36,39
896,1	36,333
896,6	38,276
897	35,962
897,4	36,448
897,8	41,619
898,3	43,99
898,7	44,333
899,1	47,362
899,5	46,162
900	44,933
900,4	42,505
900,8	40,248
901,2	37,733
901,7	39,933
902,1	38,505
902,5	36,019
902,9	33,648
903,4	32,619
903,8	31,705
904,2	31,533
904,6	26,305
905,1	25,819
905,5	28,019
905,9	30,762
906,3	28,162
906,8	27,105
907,2	24,619
907,6	32,933
908	32,333
908,5	30,705
908,9	31,59
909,3	34,076
909,7	35,505
910,2	38,162
910,6	29,79
911	24,79
911,4	23,076
911,9	17,676
912,3	12,476
912,7	9,248
913,1	7,39
913,6	9,362
914	13,533
914,4	13,733
914,8	18,819
915,3	22,562
915,7	24,705
916,1	29,819
916,5	33,305
916,9	29,619
917,4	29,505
917,8	27,448
918,2	27,419
918,6	27,933
919,1	24,048
919,5	23,79
919,9	29,362
920,3	31,39
920,8	33,79
921,2	29,59
921,6	32,59
922	35,162
922,5	34,99
922,9	30,19
923,3	28,962
923,7	27,676
924,2	30,105
924,6	26,733
925	23,505
925,4	22,133
925,8	21,619
926,3	22,248
926,7	19,819
927,1	22,133
927,5	27,619
928	27,19
928,4	29,219
928,8	28,705
929,2	28,533
929,7	27,476
930,1	24,876
930,5	21,019
930,9	21,39
931,3	17,076
931,8	16,876
932,2	18,133
932,6	19,562
933	20,019
933,5	20,676
933,9	19,448
934,3	21,962
934,7	22,162
935,2	23,219
935,6	24,076
936	21,619
936,4	21,333
936,8	19,733
937,3	17,162
937,7	14,362
938,1	3,362
938,5	-2,267
939	2,619
939,4	-0,981
939,8	1,219
940,2	2,19
940,6	4,362
941,1	13,505
941,5	21,39
941,9	22,819
942,3	20,933
942,8	23,933
943,2	25,99
943,6	26,762
944	22,733
944,4	21,79
944,9	17,905
945,3	19,219
945,7	15,362
946,1	15,933
946,6	16,048
947	16,448
947,4	12,533
947,8	12,105
948,2	11,19
948,7	4,762
949,1	6,219
949,5	5,933
949,9	6,048
950,3	7,276
950,8	13,219
951,2	14,133
951,6	19,333
952	12,762
952,5	9,105
952,9	8,962
953,3	9,505
953,7	3,276
954,1	1,962
954,6	0,019
955	5,419
955,4	13,762
955,8	18,305
956,2	22,562
956,7	23,648
957,1	19,79
957,5	22,362
957,9	21,362
958,3	16,705
958,8	13,819
959,2	12,105
959,6	11,219
960	19,162
960,5	17,733
960,9	15,248
961,3	15,876
961,7	13,933
962,1	14,705
962,6	13,105
963	9,162
963,4	8,219
963,8	8,705
964,2	7,733
964,7	8,133
965,1	-5,724
965,5	-4,81
965,9	-1,067
966,3	-1,181
966,8	-1,038
967,2	-6,552
967,6	-4,124
968	3,305
968,4	4,162
968,9	2,476
969,3	3,019
969,7	3,762
970,1	8,362
970,5	6,533
971	5,448
971,4	4,162
971,8	4,19
972,2	8,162
972,6	7,733
973,1	8,362
973,5	8,905
973,9	12,219
974,3	14,676
974,7	13,648
975,2	13,962
975,6	11,676
976	13,819
976,4	12,619
976,8	13,476
977,3	12,848
977,7	11,99
978,1	10,448
978,5	8,562
978,9	1,305
979,4	2,619
979,8	1,333
980,2	1,048
980,6	-0,267
981	-1,638
981,5	-1,152
981,9	4,162
982,3	7,476
982,7	6,848
983,1	5,276
983,6	7,362
984	5,076
984,4	9,162
984,8	10,476
985,2	5,79
985,6	4,962
986,1	8,105
986,5	8,648
986,9	10,819
987,3	7,733
987,7	9,505
988,2	9,476
988,6	13,276
989	7,933
989,4	10,162
989,8	11,019
990,3	9,419
990,7	6,933
991,1	10,562
991,5	10,019
991,9	12,676
992,3	8,648
992,8	5,762
993,2	6,162
993,6	1,676
994	-0,981
994,4	-0,181
994,9	0,476
995,3	10,105
995,7	16,733
996,1	19,305
996,5	22,933
996,9	22,248
997,4	20,448
997,8	19,562
998,2	9,048
998,6	6,762
999	10,019
999,5	11,19
999,9	12,533
1000,3	12,876
1000,7	13,99
1001,1	13,705
1001,5	14,362
1002	11,733
1002,4	10,905
1002,8	9,733
1003,2	8,619
1003,6	8,276
1004	9,533
1004,5	4,762
1004,9	3,733
1005,3	0,105
1005,7	-0,552
1006,1	1,133
1006,6	-3,667
1007	-6,695
1007,4	-8,095
1007,8	-5,467
1008,2	0,876
1008,6	5,276
1009,1	6,876
1009,5	10,448
1009,9	14,962
1010,3	17,448
1010,7	19,705
1011,1	18,819
1011,6	20,276
1012	18,305
1012,4	20,562
1012,8	21,819
1013,2	26,076
1013,6	19,362
1014,1	14,676
1014,5	5,333
1014,9	5,648
1015,3	4,876
1015,7	5,533
1016,1	-2,095
1016,6	0,019
1017	5,705
1017,4	10,048
1017,8	7,533
1018,2	6,076
1018,6	7,676
1019,1	12,019
1019,5	11,019
1019,9	10,819
1020,3	7,762
1020,7	7,676
1021,1	8,59
1021,6	1,305
1022	-0,038
1022,4	0,333
1022,8	-2,181
1023,2	2,162
1023,6	0,562
1024,1	0,676
1024,5	2,962
1024,9	6,876
1025,3	7,048
1025,7	12,933
1026,1	13,048
1026,6	17,619
1027	17,019
1027,4	19,876
1027,8	13,533
1028,2	8,019
1028,6	4,39
1029	0,019
1029,5	-0,124
1029,9	-0,695
1030,3	0,619
1030,7	2,933
1031,1	9,962
1031,5	8,419
1032	11,676
1032,4	9,705
1032,8	11,819
1033,2	8,419
1033,6	10,048
1034	9,79
1034,4	8,848
1034,9	12,248
1035,3	13,79
1035,7	11,733
1036,1	9,19
1036,5	9,848
1036,9	10,619
1037,4	11,762
1037,8	8,905
1038,2	8,39
1038,6	10,648
1039	13,219
1039,4	12,733
1039,8	12,733
1040,3	11,448
1040,7	7,305
1041,1	7,962
1041,5	9,79
1041,9	6,476
1042,3	5,419
1042,7	2,105
1043,2	4,505
1043,6	7,762
1044	6,048
1044,4	2,933
1044,8	8,076
1045,2	8,705
1045,6	9,676
1046,1	9,105
1046,5	10,933
1046,9	11,819
1047,3	12,505
1047,7	12,648
1048,1	13,276
1048,5	14,962
1049	18,162
1049,4	14,133
1049,8	12,333
1050,2	8,333
1050,6	7,819
1051	4,305
1051,4	2,676
1051,9	-4,238
1052,3	-1,324
1052,7	-1,181
1053,1	2,19
1053,5	-3,581
1053,9	-1,467
1054,3	-6,638
1054,8	-4,952
1055,2	-9,495
1055,6	-3,867
1056	-5,724
1056,4	-0,324
1056,8	1,99
1057,2	7,048
1057,6	7,076
1058,1	15,505
1058,5	11,705
1058,9	11,59
1059,3	13,562
1059,7	8,962
1060,1	11,105
1060,5	10,676
1061	3,476
1061,4	7,076
1061,8	10,79
1062,2	5,333
1062,6	10,105
1063	8,905
1063,4	13,419
1063,8	15,476
1064,3	13,39
1064,7	9,133
1065,1	13,39
1065,5	13,905
1065,9	12,419
1066,3	7,076
1066,7	7,305
1067,1	5,333
1067,6	12,019
1068	9,476
1068,4	5,19
1068,8	1,533
1069,2	3,676
1069,6	3,99
1070	7,048
1070,4	1,905
1070,9	5,019
1071,3	8,905
1071,7	12,59
1072,1	8,019
1072,5	7,219
1072,9	1,448
1073,3	6,505
1073,7	6,305
1074,2	1,59
1074,6	-1,01
1075	4,333
1075,4	5,362
1075,8	4,562
1076,2	1,133
1076,6	-2,324
1077	1,133
1077,5	4,248
1077,9	1,905
1078,3	-0,667
1078,7	-2,038
1079,1	-5,895
1079,5	-11,095
1079,9	-15,181
1080,3	-18,41
1080,7	-17,667
1081,2	-13,41
1081,6	-12,524
1082	-9,095
1082,4	-4,638
1082,8	-1,181
1083,2	3,619
1083,6	1,562
1084	-0,495
1084,5	2,762
1084,9	-4,81
1085,3	-5,781
1085,7	-6,295
1086,1	-11,41
1086,5	-11,038
1086,9	-11,095
1087,3	-11,724
1087,7	-3,667
1088,2	0,076
1088,6	2,248
1089	6,248
1089,4	8,362
1089,8	10,162
1090,2	8,705
1090,6	6,333
1091	5,276
1091,4	4,448
1091,9	5,448
1092,3	8,876
1092,7	5,733
1093,1	3,819
1093,5	1,848
1093,9	-1,095
1094,3	-3,467
1094,7	-6,61
1095,1	-11,324
1095,5	-10,295
1096	-5,581
1096,4	-3,981
1096,8	3,59
1097,2	6,39
1097,6	9,105
1098	9,505
1098,4	6,619
1098,8	5,019
1099,2	3,676
1099,6	-0,952
1100,1	-3,981
1100,5	-2,267
1100,9	1,105
1101,3	3,076
1101,7	3,419
1102,1	7,819
1102,5	4,962
1102,9	1,248
1103,3	1,705
1103,7	-2,267
1104,2	1,362
1104,6	3,219
1105	3,59
1105,4	7,705
1105,8	11,962
1106,2	8,248
1106,6	8,819
1107	6,076
1107,4	5,4
1107,8	2,853
1108,3	-0,117
