Data from Subt2_00098.txt Node
Date: Mon Aug 28 13:36:46 MSK 2023
User: vat
Spectrometer: MAYP114033
Trigger mode: 0
Integration Time (sec): 1,000000E0
Scans to average: 5
Electric dark correction enabled: true
Nonlinearity correction enabled: false
Boxcar width: 3
XAxis mode: Wavelengths
Number of Pixels in Spectrum: 2068
>>>>>Begin Spectral Data<<<<<
199,4	-0,133
199,9	-3,993
200,4	-2,033
200,8	-1,662
201,3	-0,69
201,8	1,51
202,2	1,424
202,7	1,595
203,2	6,481
203,6	5,824
204,1	5,167
204,6	7,11
205	7,767
205,5	10,138
206	9,767
206,4	6,795
206,9	6,195
207,4	7,538
207,8	5,424
208,3	3,224
208,8	-0,09
209,2	5,452
209,7	7,452
210,2	8,995
210,6	10,824
211,1	15,281
211,5	16,195
212	17,481
212,5	13,767
212,9	12,624
213,4	15,538
213,9	13,395
214,3	11,767
214,8	14,824
215,3	17,395
215,7	19,881
216,2	24,11
216,7	23,252
217,1	19,652
217,6	19,738
218,1	18,424
218,5	17,452
219	16,795
219,5	18,367
219,9	16,824
220,4	25,71
220,9	24,967
221,3	23,138
221,8	20,424
222,3	22,367
222,7	21,938
223,2	17,452
223,6	12,052
224,1	15,681
224,6	19,881
225	23,567
225,5	21,11
226	17,024
226,4	26,338
226,9	26,595
227,4	30,938
227,8	29,138
228,3	23,795
228,8	26,11
229,2	29,224
229,7	28,052
230,2	32,595
230,6	25,024
231,1	23,881
231,5	30,424
232	30,11
232,5	25,538
232,9	25,71
233,4	23,081
233,9	23,767
234,3	26,11
234,8	22,795
235,3	21,852
235,7	24,367
236,2	21,967
236,7	16,595
237,1	16,624
237,6	15,967
238,1	19,138
238,5	16,395
239	16,824
239,4	16,167
239,9	22,424
240,4	22,567
240,8	23,081
241,3	20,338
241,8	15,767
242,2	16,367
242,7	13,995
243,2	11,967
243,6	14,91
244,1	12,424
244,6	13,081
245	19,195
245,5	16,11
245,9	20,767
246,4	19,367
246,9	14,767
247,3	13,795
247,8	11,11
248,3	11,138
248,7	15,452
249,2	15,024
249,7	21,995
250,1	17,881
250,6	18,595
251	19,567
251,5	17,452
252	14,252
252,4	11,424
252,9	7,681
253,4	12,452
253,8	12,395
254,3	15,195
254,8	20,938
255,2	20,31
255,7	20,824
256,1	18,395
256,6	18,167
257,1	23,567
257,5	18,938
258	13,481
258,5	14,852
258,9	9,852
259,4	14,252
259,9	10,71
260,3	3,767
260,8	8,967
261,2	13,081
261,7	15,338
262,2	19,51
262,6	20,167
263,1	22,91
263,6	21,424
264	21,824
264,5	20,252
264,9	16,91
265,4	14,51
265,9	8,224
266,3	9,167
266,8	13,767
267,3	12,252
267,7	11,424
268,2	10,652
268,7	14,481
269,1	13,767
269,6	10,395
270	4,395
270,5	9,195
271	4,652
271,4	1,338
271,9	-0,976
272,4	1,252
272,8	6,367
273,3	8,595
273,7	2,081
274,2	6,281
274,7	11,767
275,1	16,395
275,6	21,395
276,1	17,195
276,5	26,024
277	30,681
277,4	31,967
277,9	29,624
278,4	21,995
278,8	16,938
279,3	19,11
279,8	14,681
280,2	12,452
280,7	8,51
281,1	8,052
281,6	11,024
282,1	12,624
282,5	16,967
283	13,91
283,4	14,652
283,9	21,91
284,4	24,652
284,8	22,795
285,3	20,824
285,8	13,938
286,2	12,024
286,7	10,367
287,1	6,081
287,6	3,824
288,1	8,052
288,5	13,938
289	15,052
289,5	18,567
289,9	15,824
290,4	15,481
290,8	17,824
291,3	18,224
291,8	16,624
292,2	16,767
292,7	19,252
293,1	26,167
293,6	21,681
294,1	21,052
294,5	20,224
295	17,624
295,5	20,224
295,9	19,567
296,4	16,738
296,8	23,624
297,3	23,881
297,8	27,71
298,2	28,995
298,7	27,252
299,1	24,195
299,6	22,738
300,1	20,967
300,5	22,938
301	23,595
301,5	20,31
301,9	17,481
302,4	19,024
302,8	20,195
303,3	20,367
303,8	20,481
304,2	16,881
304,7	17,767
305,1	19,052
305,6	17,481
306,1	15,395
306,5	8,11
307	3,624
307,4	0,595
307,9	-1,519
308,4	0,252
308,8	2,424
309,3	5,167
309,8	17,424
310,2	19,252
310,7	21,252
311,1	21,052
311,6	17,567
312,1	13,91
312,5	11,71
313	6,167
313,4	9,595
313,9	10,91
314,4	11,51
314,8	16,51
315,3	19,452
315,7	21,052
316,2	18,91
316,7	17,11
317,1	14,281
317,6	14,967
318	18,852
318,5	19,567
319	20,481
319,4	23,681
319,9	20,767
320,3	21,281
320,8	18,767
321,3	11,195
321,7	11,538
322,2	8,595
322,6	11,367
323,1	8,767
323,6	9,538
324	10,424
324,5	10,11
324,9	13,624
325,4	14,967
325,9	11,71
326,3	14,824
326,8	14,31
327,2	15,081
327,7	15,767
328,2	12,567
328,6	14,481
329,1	7,938
329,5	9,71
330	9,195
330,5	18,51
330,9	20,052
331,4	16,395
331,8	14,481
332,3	22,71
332,8	22,567
333,2	26,91
333,7	18,938
334,1	13,252
334,6	12,71
335,1	13,595
335,5	12,224
336	14,367
336,4	12,624
336,9	12,938
337,4	18,138
337,8	18,824
338,3	15,338
338,7	13,224
339,2	8,367
339,7	5,852
340,1	4,395
340,6	-0,462
341	-0,062
341,5	1,967
342	3,024
342,4	1,195
342,9	4,795
343,3	10,681
343,8	16,652
344,2	19,51
344,7	20,081
345,2	17,338
345,6	25,995
346,1	22,51
346,5	20,938
347	18,538
347,5	17,652
347,9	18,938
348,4	23,967
348,8	17,738
349,3	17,624
349,8	16,081
350,2	19,138
350,7	21,567
351,1	20,624
351,6	18,624
352	20,11
352,5	27,881
353	33,052
353,4	36,852
353,9	42,652
354,3	54,824
354,8	61,31
355,3	73,567
355,7	85,024
356,2	97,338
356,6	116,881
357,1	134,338
357,5	154,91
358	187,081
358,5	216,795
358,9	250,252
359,4	289,795
359,8	332,138
360,3	376,224
360,8	428,31
361,2	486,881
361,7	556,881
362,1	626,795
362,6	706,852
363	794,91
363,5	888,081
364	981,081
364,4	1074,252
364,9	1168,281
365,3	1265,395
365,8	1362,71
366,3	1438,024
366,7	1512,338
367,2	1578,252
367,6	1643,652
368,1	1684,881
368,5	1715,052
369	1719,052
369,5	1726,767
369,9	1716,881
370,4	1689,338
370,8	1640,938
371,3	1589,71
371,7	1529,081
372,2	1471,024
372,7	1401,424
373,1	1329,71
373,6	1258,31
374	1180,538
374,5	1105,338
374,9	1032,167
375,4	957,938
375,9	889,195
376,3	816,595
376,8	750,252
377,2	694,338
377,7	640,995
378,2	587,91
378,6	536,081
379,1	484,11
379,5	449,767
380	413,681
380,4	378,91
380,9	343,767
381,4	313,595
381,8	288,995
382,3	268,367
382,7	249,452
383,2	228,567
383,6	216,11
384,1	205,738
384,6	193,624
385	184,995
385,5	179,338
385,9	163,481
386,4	162,138
386,8	153,31
387,3	143,91
387,7	137,31
388,2	127,31
388,7	112,595
389,1	109,881
389,6	101,652
390	92,738
390,5	88,252
390,9	80,367
391,4	76,824
391,9	76,11
392,3	74,081
392,8	65,195
393,2	62,51
393,7	64,338
394,1	58,452
394,6	57,31
395,1	60,938
395,5	53,71
396	56,71
396,4	51,967
396,9	47,138
397,3	55,424
397,8	52,11
398,2	43,795
398,7	39,538
399,2	36,852
399,6	39,138
400,1	34,452
400,5	32,995
401	38,224
401,4	31,967
401,9	35,481
402,4	32,538
402,8	35,738
403,3	40,91
403,7	36,824
404,2	32,481
404,6	42,195
405,1	48,081
405,5	50,995
406	49,31
406,5	50,51
406,9	54,652
407,4	55,024
407,8	53,881
408,3	50,595
408,7	51,881
409,2	51,624
409,6	48,224
410,1	46,481
410,6	46,31
411	49,081
411,5	48,767
411,9	47,195
412,4	50,167
412,8	53,71
413,3	54,71
413,7	56,967
414,2	58,595
414,7	58,995
415,1	65,167
415,6	61,024
416	62,967
416,5	71,71
416,9	79,538
417,4	85,11
417,8	91,338
418,3	91,452
418,8	98,138
419,2	99,138
419,7	95,624
420,1	93,881
420,6	93,624
421	95,767
421,5	101,481
421,9	105,624
422,4	107,281
422,8	110,338
423,3	114,11
423,8	115,081
424,2	112,195
424,7	113,31
425,1	110,91
425,6	113,681
426	114,452
426,5	111,681
426,9	109,281
427,4	120,224
427,9	119,852
428,3	120,824
428,8	121,567
429,2	123,452
429,7	127,424
430,1	130,338
430,6	124,167
431	127,281
431,5	131,081
431,9	134,795
432,4	136,281
432,8	136,852
433,3	140,281
433,8	144,052
434,2	143,624
434,7	144,052
435,1	150,795
435,6	153,11
436	158,138
436,5	161,938
436,9	168,681
437,4	173,452
437,8	184,338
438,3	189,824
438,8	200,624
439,2	204,681
439,7	216,852
440,1	223,767
440,6	232,167
441	238,824
441,5	241,224
441,9	246,91
442,4	263,424
442,8	269,338
443,3	281,738
443,7	290,51
444,2	302,652
444,7	318,167
445,1	336,024
445,6	348,395
446	365,938
446,5	380,51
446,9	401,738
447,4	419,995
447,8	444,081
448,3	457,995
448,7	476,167
449,2	491,081
449,6	508,767
450,1	524,252
450,6	545,624
451	560,452
451,5	587,652
451,9	607,167
452,4	628,31
452,8	653,024
453,3	679,595
453,7	702,11
454,2	723,51
454,6	744,567
455,1	773,938
455,5	802,081
456	830,395
456,4	854,195
456,9	883,367
457,3	916,252
457,8	943,224
458,3	969,367
458,7	999,024
459,2	1029,195
459,6	1067,452
460,1	1099,367
460,5	1129,195
461	1165,567
461,4	1199,424
461,9	1229,567
462,3	1264,681
462,8	1297,252
463,2	1329,367
463,7	1367,51
464,1	1398,71
464,6	1433,795
465	1476,424
465,5	1511,367
466	1549,738
466,4	1590,367
466,9	1626,71
467,3	1671,881
467,8	1716,195
468,2	1759,595
468,7	1801,795
469,1	1839,424
469,6	1877,624
470	1920,995
470,5	1958,281
470,9	1994,795
471,4	2035,938
471,8	2074,852
472,3	2117,081
472,7	2159,967
473,2	2199,51
473,6	2240,51
474,1	2281,824
474,5	2312,852
475	2352,024
475,4	2391,624
475,9	2423,881
476,4	2465,195
476,8	2508,138
477,3	2544,938
477,7	2592,395
478,2	2631,452
478,6	2666,852
479,1	2712,081
479,5	2758,452
480	2795,91
480,4	2835,024
480,9	2867,795
481,3	2904,11
481,8	2943,538
482,2	2977,881
482,7	3004,938
483,1	3033,71
483,6	3074,481
484	3108,367
484,5	3147,224
484,9	3183,738
485,4	3216,452
485,8	3244,967
486,3	3277,081
486,7	3303,424
487,2	3334,11
487,6	3358,052
488,1	3385,081
488,5	3409,795
489	3440,167
489,4	3468,824
489,9	3486,91
490,4	3505,767
490,8	3526,367
491,3	3543,538
491,7	3565,852
492,2	3586,51
492,6	3600,738
493,1	3620,995
493,5	3642,881
494	3663,91
494,4	3682,367
494,9	3704,51
495,3	3717,538
495,8	3739,31
496,2	3753,395
496,7	3767,938
497,1	3780,538
497,6	3799,367
498	3808,795
498,5	3819,281
498,9	3833,395
499,4	3851,138
499,8	3856,91
500,3	3871,481
500,7	3876,31
501,2	3890,281
501,6	3906,452
502,1	3918,567
502,5	3926,595
503	3942,052
503,4	3950,11
503,9	3967,652
504,3	3978,681
504,8	3984,195
505,2	3993,195
505,7	4009,395
506,1	4020,824
506,6	4029,538
507	4035,11
507,5	4042,51
507,9	4055,081
508,4	4054,052
508,8	4054,824
509,3	4058,167
509,7	4064,424
510,2	4071,51
510,6	4073,452
511,1	4072,681
511,5	4082,481
512	4090,538
512,4	4101,595
512,9	4106,338
513,3	4108,938
513,8	4116,338
514,2	4125,452
514,7	4125,167
515,1	4127,967
515,6	4140,224
516	4148,138
516,5	4152,424
516,9	4160,024
517,4	4168,024
517,8	4178,938
518,3	4188,538
518,7	4188,452
519,2	4199,052
519,6	4204,481
520,1	4212,795
520,5	4215,538
521	4221,881
521,4	4232,652
521,9	4231,595
522,3	4227,767
522,8	4233,167
523,2	4237,024
523,7	4243,338
524,1	4250,652
524,6	4248,595
525	4260,31
525,5	4271,567
525,9	4276,738
526,4	4279,967
526,8	4286,195
527,3	4295,367
527,7	4308,11
528,2	4318,367
528,6	4328,081
529,1	4342,51
529,5	4352,91
530	4362,195
530,4	4373,624
530,9	4382,367
531,3	4394,024
531,8	4402,567
532,2	4408,138
532,6	4418,367
533,1	4424,767
533,5	4428,795
534	4430,767
534,4	4430,195
534,9	4438,995
535,3	4450,195
535,8	4457,281
536,2	4468,995
536,7	4471,71
537,1	4490,224
537,6	4504,138
538	4518,881
538,5	4530,481
538,9	4539,624
539,4	4554,967
539,8	4567,995
540,3	4574,595
540,7	4579,167
541,2	4580,51
541,6	4585,195
542,1	4592,052
542,5	4598,595
543	4611,024
543,4	4617,652
543,9	4631,681
544,3	4640,567
544,8	4656,395
545,2	4671,081
545,7	4684,024
546,1	4698,51
546,5	4704,595
547	4722,938
547,4	4735,367
547,9	4736,881
548,3	4744,367
548,8	4743,081
549,2	4757,767
549,7	4773,138
550,1	4772,024
550,6	4782,538
551	4797,595
551,5	4812,252
551,9	4827,624
552,4	4831,195
552,8	4835,167
553,3	4842,595
553,7	4854,738
554,2	4867,052
554,6	4879,995
555,1	4891,538
555,5	4894,167
555,9	4908,138
556,4	4921,795
556,8	4928,538
557,3	4928,281
557,7	4928,281
558,2	4933,624
558,6	4944,767
559,1	4952,081
559,5	4961,31
560	4963,367
560,4	4969,481
560,9	4972,824
561,3	4979,881
561,8	4989,995
562,2	4989,31
562,7	4989,852
563,1	4997,481
563,6	5008,081
564	5012,338
564,4	5017,167
564,9	5019,624
565,3	5026,452
565,8	5036,367
566,2	5042,681
566,7	5047,224
567,1	5055,195
567,6	5060,31
568	5062,824
568,5	5067,538
568,9	5065,767
569,4	5064,367
569,8	5067,167
570,3	5073,367
570,7	5074,167
571,1	5072,167
571,6	5076,367
572	5079,51
572,5	5081,052
572,9	5075,081
573,4	5071,881
573,8	5074,538
574,3	5075,652
574,7	5074,71
575,2	5062,452
575,6	5071,51
576,1	5084,967
576,5	5084,395
576,9	5076,452
577,4	5080,595
577,8	5073,51
578,3	5082,595
578,7	5066,595
579,2	5055,195
579,6	5051,424
580,1	5053,624
580,5	5041,167
581	5034,195
581,4	5026,252
581,9	5020,338
582,3	5015,767
582,7	5011,567
583,2	5002,938
583,6	4996,195
584,1	4988,938
584,5	4984,595
585	4982,252
585,4	4971,738
585,9	4959,71
586,3	4947,91
586,8	4946,024
587,2	4944,767
587,6	4939,595
588,1	4928,938
588,5	4923,881
589	4913,367
589,4	4908,51
589,9	4895,081
590,3	4885,081
590,8	4873,738
591,2	4873,138
591,7	4863,881
592,1	4861,167
592,5	4851,852
593	4846,252
593,4	4842,31
593,9	4837,338
594,3	4832,938
594,8	4827,167
595,2	4816,595
595,7	4817,595
596,1	4811,024
596,6	4800,167
597	4791,71
597,4	4770,71
597,9	4760,167
598,3	4750,281
598,8	4737,681
599,2	4728,652
599,7	4719,081
600,1	4709,195
600,6	4708,338
601	4706,138
601,4	4709,624
601,9	4692,652
602,3	4685,31
602,8	4680,024
603,2	4666,51
603,7	4653,367
604,1	4633,424
604,6	4610,11
605	4602,91
605,4	4587,11
605,9	4567,31
606,3	4561,71
606,8	4552,881
607,2	4545,081
607,7	4531,881
608,1	4520,252
608,6	4509,281
609	4499,567
609,4	4480,967
609,9	4465,967
610,3	4447,052
610,8	4433,51
611,2	4415,481
611,7	4403,081
612,1	4385,881
612,6	4368,595
613	4346,795
613,4	4332,652
613,9	4316,224
614,3	4305,31
614,8	4285,024
615,2	4272,31
615,7	4259,595
616,1	4249,138
616,6	4236,795
617	4222,024
617,4	4206,452
617,9	4187,452
618,3	4171,138
618,8	4154,595
619,2	4137,11
619,7	4124,11
620,1	4109,595
620,5	4084,338
621	4069,71
621,4	4058,852
621,9	4044,424
622,3	4028,852
622,8	4004,852
623,2	3991,624
623,6	3976,738
624,1	3960,538
624,5	3937,795
625	3920,138
625,4	3901,51
625,9	3886,052
626,3	3865,938
626,8	3849,31
627,2	3837,852
627,6	3819,881
628,1	3798,824
628,5	3780,681
629	3759,652
629,4	3741,452
629,9	3729,338
630,3	3707,167
630,7	3690,024
631,2	3676,138
631,6	3654,681
632,1	3641,938
632,5	3617,967
633	3594,195
633,4	3574,338
633,8	3551,71
634,3	3526,538
634,7	3512,967
635,2	3489,081
635,6	3475,281
636,1	3460,081
636,5	3438,824
636,9	3421,738
637,4	3406,195
637,8	3391,138
638,3	3373,652
638,7	3354,91
639,2	3336,395
639,6	3320,738
640	3304,224
640,5	3286,024
640,9	3261,624
641,4	3244,338
641,8	3232,938
642,2	3212,652
642,7	3198,338
643,1	3182,567
643,6	3174,338
644	3165,024
644,5	3156,795
644,9	3135,367
645,3	3127,91
645,8	3112,252
646,2	3100,595
646,7	3075,738
647,1	3054,681
647,6	3033,167
648	3013,052
648,4	2997,052
648,9	2974,281
649,3	2958,224
649,8	2943,767
650,2	2929,424
650,6	2917,881
651,1	2914,738
651,5	2891,938
652	2888,224
652,4	2867,452
652,9	2851,367
653,3	2838,167
653,7	2824,252
654,2	2805,967
654,6	2792,624
655,1	2767,91
655,5	2756,824
655,9	2744,91
656,4	2731,795
656,8	2716,395
657,3	2696,252
657,7	2680,395
658,2	2668,967
658,6	2650,71
659	2629,51
659,5	2606,452
659,9	2580,167
660,4	2560,767
660,8	2545,595
661,2	2526,31
661,7	2516,681
662,1	2507,51
662,6	2496,681
663	2485,024
663,4	2473,91
663,9	2461,081
664,3	2450,995
664,8	2425,281
665,2	2407,31
665,6	2395,138
666,1	2381,167
666,5	2364,31
667	2350,138
667,4	2330,624
667,9	2321,538
668,3	2309,767
668,7	2289,452
669,2	2275,681
669,6	2257,767
670,1	2237,881
670,5	2225,738
670,9	2204,767
671,4	2189,538
671,8	2173,395
672,3	2160,081
672,7	2150,881
673,1	2136,852
673,6	2120,452
674	2115,224
674,5	2095,395
674,9	2082,31
675,3	2064,967
675,8	2053,281
676,2	2037,995
676,7	2028,595
677,1	2011,624
677,5	1998,71
678	1987,11
678,4	1975,167
678,9	1964,71
679,3	1955,452
679,7	1939,681
680,2	1926,224
680,6	1920,081
681,1	1910,138
681,5	1897,252
681,9	1876,052
682,4	1865,795
682,8	1854,624
683,3	1841,967
683,7	1831,395
684,1	1817,51
684,6	1805,11
685	1795,71
685,5	1784,195
685,9	1774,938
686,3	1769,11
686,8	1755,51
687,2	1745,081
687,7	1733,995
688,1	1724,967
688,5	1713,881
689	1700,938
689,4	1688,595
689,9	1674,852
690,3	1666,681
690,7	1655,224
691,2	1635,938
691,6	1624,367
692	1605,852
692,5	1594,081
692,9	1583,081
693,4	1568,367
693,8	1563,052
694,2	1561,938
694,7	1549,995
695,1	1551,624
695,6	1544,452
696	1543,31
696,4	1532,081
696,9	1518,338
697,3	1503,967
697,8	1496,624
698,2	1477,567
698,6	1466,938
699,1	1451,824
699,5	1438,224
699,9	1430,367
700,4	1423,367
700,8	1413,395
701,3	1411,995
701,7	1400,338
702,1	1389,224
702,6	1380,424
703	1372,024
703,5	1359,367
703,9	1344,795
704,3	1332,681
704,8	1324,452
705,2	1312,424
705,6	1308,51
706,1	1293,481
706,5	1293,281
707	1287,71
707,4	1276,567
707,8	1262,624
708,3	1258,824
708,7	1243,367
709,2	1237,738
709,6	1222,767
710	1215,224
710,5	1210,424
710,9	1204,995
711,3	1193,424
711,8	1190,624
712,2	1184,595
712,7	1172,195
713,1	1165,824
713,5	1154,11
714	1146,424
714,4	1138,967
714,8	1132,652
715,3	1122,367
715,7	1116,281
716,2	1106,338
716,6	1100,624
717	1093,367
717,5	1083,967
717,9	1073,767
718,3	1067,31
718,8	1063,624
719,2	1054,481
719,7	1042,824
720,1	1031,224
720,5	1025,395
721	1013,367
721,4	1006,052
721,8	997,024
722,3	991,852
722,7	989,967
723,2	984,91
723,6	974,824
724	970,567
724,5	960,138
724,9	954,338
725,3	945,224
725,8	932,252
726,2	920,138
726,7	916,852
727,1	910,681
727,5	904,338
728	900,11
728,4	893,767
728,8	886,595
729,3	879,652
729,7	877,367
730,1	869,167
730,6	862,224
731	852,567
731,5	845,167
731,9	846,595
732,3	850,71
732,8	841,252
733,2	842,624
733,6	841,31
734,1	836,081
734,5	832,138
734,9	821,767
735,4	811,738
735,8	804,281
736,3	799,595
736,7	793,052
737,1	789,252
737,6	785,567
738	787,167
738,4	780,681
738,9	775,395
739,3	769,767
739,7	763,852
740,2	759,367
740,6	756,624
741,1	747,51
741,5	747,081
741,9	743,738
742,4	739,567
742,8	734,738
743,2	730,367
743,7	723,824
744,1	723,052
744,5	716,024
745	707,395
745,4	700,51
745,8	697,938
746,3	693,624
746,7	687,652
747,2	678,681
747,6	675,052
748	674,738
748,5	670,967
748,9	658,167
749,3	645,624
749,8	641,11
750,2	637,424
750,6	634,681
751,1	631,71
751,5	623,138
751,9	621,452
752,4	620,395
752,8	617,881
753,3	613,081
753,7	605,052
754,1	596,167
754,6	595,424
755	597,138
755,4	599,824
755,9	595,938
756,3	591,424
756,7	591,538
757,2	589,595
757,6	581,624
758	577,31
758,5	571,538
758,9	565,338
759,3	560,967
759,8	552,938
760,2	551,938
760,6	551,452
761,1	544,252
761,5	539,852
761,9	535,452
762,4	531,938
762,8	532,681
763,3	523,395
763,7	517,338
764,1	516,424
764,6	511,51
765	507,481
765,4	506,481
765,9	503,624
766,3	503,167
766,7	501,881
767,2	501,652
767,6	501,11
768	502,767
768,5	496,281
768,9	495,91
769,3	490,738
769,8	487,567
770,2	480,195
770,6	474,31
771,1	467,052
771,5	467,052
771,9	464,395
772,4	463,652
772,8	461,167
773,2	460,338
773,7	454,567
774,1	456,395
774,5	446,91
775	435,51
775,4	430,367
775,8	426,252
776,3	423,281
776,7	419,595
777,1	406,538
777,6	408,138
778	406,91
778,4	409,595
778,9	409,167
779,3	406,31
779,7	405,881
780,2	413,281
780,6	404,995
781	403,11
781,5	396,824
781,9	392,595
782,3	388,567
782,8	391,567
783,2	386,652
783,6	391,224
784,1	384,681
784,5	380,424
784,9	375,367
785,4	370,795
785,8	362,167
786,2	354,481
786,7	349,224
787,1	349,481
787,5	349,738
788	347,738
788,4	345,367
788,8	341,481
789,3	342,767
789,7	347,195
790,1	344,652
790,6	337,11
791	337,395
791,4	336,967
791,9	331,824
792,3	326,795
792,7	317,31
793,2	312,881
793,6	313,481
794	309,081
794,5	305,224
794,9	310,167
795,3	313,081
795,8	313,967
796,2	313,024
796,6	314,881
797,1	305,567
797,5	306,91
797,9	299,938
798,4	292,452
798,8	285,595
799,2	285,967
799,7	284,538
800,1	288,91
800,5	282,738
801	282,052
801,4	283,795
801,8	280,538
802,2	277,481
802,7	276,51
803,1	276,167
803,5	274,595
804	274,91
804,4	273,424
804,8	277,367
805,3	277,795
805,7	271,024
806,1	266,852
806,6	263,138
807	259,51
807,4	255,481
807,9	250,538
808,3	243,91
808,7	242,424
809,2	239,424
809,6	240,281
810	236,652
810,4	233,081
810,9	230,91
811,3	234,395
811,7	236,481
812,2	237,11
812,6	232,224
813	231,852
813,5	230,367
813,9	229,338
814,3	221,51
814,8	212,052
815,2	212,052
815,6	212,024
816,1	209,824
816,5	210,367
816,9	205,51
817,3	210,938
817,8	214,195
818,2	209,681
818,6	208,624
819,1	209,367
819,5	204,281
819,9	204,052
820,4	197,452
820,8	194,138
821,2	196,167
821,7	193,967
822,1	188,881
822,5	190,881
822,9	192,081
823,4	194,938
823,8	195,052
824,2	193,367
824,7	194,338
825,1	192,881
825,5	188,624
826	186,995
826,4	180,738
826,8	179,052
827,3	177,167
827,7	177,31
828,1	180,11
828,5	176,51
829	174,367
829,4	170,967
829,8	168,167
830,3	166,052
830,7	163,281
831,1	161,681
831,6	164,71
832	170,795
832,4	170,681
832,8	164,852
833,3	163,481
833,7	159,51
834,1	158,195
834,6	158,567
835	152,51
835,4	149,452
835,8	152,91
836,3	148,51
836,7	147,081
837,1	142,538
837,6	138,052
838	131,538
838,4	134,767
838,9	132,31
839,3	137,852
839,7	141,424
840,1	137,281
840,6	136,738
841	142,224
841,4	144,995
841,9	142,452
842,3	136,081
842,7	126,824
843,1	132,852
843,6	133,11
844	129,195
844,4	120,91
844,9	119,195
845,3	122,224
845,7	122,052
846,2	121,338
846,6	118,767
847	119,51
847,4	117,167
847,9	120,338
848,3	115,967
848,7	118,595
849,2	118,51
849,6	114,395
850	115,11
850,4	119,338
850,9	112,195
851,3	112,452
851,7	111,738
852,2	111,795
852,6	115,452
853	109,91
853,4	102,395
853,9	107,567
854,3	105,91
854,7	105,452
855,2	104,824
855,6	100,538
856	101,11
856,4	107,052
856,9	106,652
857,3	106,052
857,7	107,938
858,2	96,852
858,6	98,51
859	94,595
859,4	93,452
859,9	95,338
860,3	91,595
860,7	86,338
861,1	91,91
861,6	99,71
862	99,252
862,4	94,767
862,9	91,224
863,3	92,167
863,7	92,881
864,1	87,681
864,6	80,424
865	85,881
865,4	89,281
865,9	85,71
866,3	90,51
866,7	92,481
867,1	94,367
867,6	91,424
868	91,624
868,4	89,71
868,8	88,824
869,3	83,31
869,7	80,967
870,1	85,052
870,6	81,795
871	157,624
871,4	155,91
871,8	159,224
872,3	158,881
872,7	161,595
873,1	159,71
873,5	165,11
874	82,224
874,4	78,624
874,8	82,424
875,3	80,767
875,7	74,11
876,1	71,024
876,5	65,538
877	66,224
877,4	68,795
877,8	64,995
878,2	65,024
878,7	68,367
879,1	68,881
879,5	69,881
879,9	69,538
880,4	70,595
880,8	68,595
881,2	70,281
881,7	67,481
882,1	65,195
882,5	67,738
882,9	66,795
883,4	62,938
883,8	62,995
884,2	57,767
884,6	58,195
885,1	58,738
885,5	58,367
885,9	60,167
886,3	64,31
886,8	61,681
887,2	62,452
887,6	57,481
888	62,081
888,5	60,967
888,9	58,852
889,3	54,51
889,8	56,167
890,2	57,11
890,6	61,31
891	58,481
891,5	55,052
891,9	52,595
892,3	53,938
892,7	54,824
893,2	55,567
893,6	54,195
894	50,824
894,4	48,995
894,9	50,31
895,3	53,024
895,7	49,138
896,1	50,452
896,6	52,452
897	52,395
897,4	53,967
897,8	58,681
898,3	59,452
898,7	57,852
899,1	54,538
899,5	52,51
900	52,252
900,4	53,024
900,8	47,595
901,2	42,567
901,7	42,51
902,1	45,281
902,5	39,91
902,9	38,195
903,4	37,452
903,8	40,281
904,2	41,11
904,6	42,252
905,1	44,767
905,5	50,052
905,9	53,995
906,3	51,91
906,8	47,938
907,2	44,338
907,6	46,852
908	40,424
908,5	42,052
908,9	41,881
909,3	41,852
909,7	43,338
910,2	49,51
910,6	42,51
911	39,624
911,4	34,91
911,9	32,452
912,3	29,481
912,7	27,281
913,1	19,567
913,6	21,681
914	24,738
914,4	23,11
914,8	22,767
915,3	24,795
915,7	27,31
916,1	31,652
916,5	32,624
916,9	29,938
917,4	33,681
917,8	31,567
918,2	32,024
918,6	29,738
919,1	27,938
919,5	27,595
919,9	33,481
920,3	35,967
920,8	40,967
921,2	40,51
921,6	43,852
922	47,024
922,5	49,138
922,9	46,11
923,3	45,224
923,7	44,424
924,2	46,367
924,6	42,424
925	42,11
925,4	41,738
925,8	43,367
926,3	43,424
926,7	43,738
927,1	41,252
927,5	45,195
928	39,224
928,4	40,481
928,8	36,652
929,2	32,967
929,7	29,052
930,1	29,567
930,5	25,71
930,9	24,71
931,3	21,424
931,8	24,995
932,2	27,767
932,6	26,852
933	25,938
933,5	29,281
933,9	31,824
934,3	29,452
934,7	23,767
935,2	22,31
935,6	22,395
936	20,567
936,4	18,71
936,8	22,167
937,3	24,052
937,7	25,91
938,1	22,252
938,5	21,167
939	27,51
939,4	24,595
939,8	21,51
940,2	21,367
940,6	22,31
941,1	26,31
941,5	28,538
941,9	28,652
942,3	24,024
942,8	28,624
943,2	31,11
943,6	31,167
944	27,281
944,4	27,252
944,9	23,767
945,3	24,881
945,7	21,138
946,1	15,995
946,6	16,967
947	21,338
947,4	19,138
947,8	18,31
948,2	18,567
948,7	18,281
949,1	20,424
949,5	19,91
949,9	17,481
950,3	19,767
950,8	23,481
951,2	28,052
951,6	27,767
952	26,595
952,5	22,367
952,9	23,567
953,3	24,538
953,7	20,338
954,1	21,424
954,6	22,538
955	22,767
955,4	28,71
955,8	27,367
956,2	26,881
956,7	30,395
957,1	22,824
957,5	20,91
957,9	22,51
958,3	18,052
958,8	17,252
959,2	13,338
959,6	10,281
960	16,767
960,5	13,024
960,9	15,852
961,3	17,167
961,7	15,024
962,1	17,11
962,6	17,51
963	16,024
963,4	22,538
963,8	21,681
964,2	21,652
964,7	24,452
965,1	17,395
965,5	18,338
965,9	21,395
966,3	18,767
966,8	16,824
967,2	11,652
967,6	14,395
968	21,024
968,4	18,624
968,9	19,481
969,3	21,481
969,7	18,795
970,1	23,11
970,5	17,395
971	12,567
971,4	11,252
971,8	5,767
972,2	4,052
972,6	2,767
973,1	3,338
973,5	5,538
973,9	7,967
974,3	12,224
974,7	14,338
975,2	13,91
975,6	16,795
976	17,624
976,4	17,195
976,8	20,824
977,3	20,595
977,7	20,967
978,1	21,71
978,5	19,567
978,9	16,595
979,4	18,138
979,8	13,938
980,2	9,538
980,6	9,624
981	11,938
981,5	14,452
981,9	12,852
982,3	12,538
982,7	14,767
983,1	14,681
983,6	13,767
984	9,967
984,4	10,738
984,8	17,024
985,2	18,081
985,6	17,424
986,1	19,795
986,5	19,995
986,9	20,395
987,3	14,824
987,7	14,31
988,2	13,252
988,6	14,252
989	11,852
989,4	11,567
989,8	11,624
990,3	15,452
990,7	16,738
991,1	17,395
991,5	17,138
991,9	16,995
992,3	15,452
992,8	17,595
993,2	16,995
993,6	10,167
994	7,624
994,4	14,252
994,9	13,91
995,3	20,11
995,7	15,938
996,1	15,624
996,5	16,852
996,9	16,395
997,4	11,081
997,8	18,595
998,2	10,167
998,6	14,252
999	16,024
999,5	17,11
999,9	16,452
1000,3	15,481
1000,7	12,452
1001,1	14,567
1001,5	18,567
1002	18,224
1002,4	21,767
1002,8	22,31
1003,2	23,024
1003,6	22,024
1004	22,167
1004,5	14,567
1004,9	17,624
1005,3	14,967
1005,7	18,824
1006,1	18,51
1006,6	16,167
1007	13,91
1007,4	11,081
1007,8	10,938
1008,2	12,395
1008,6	7,567
1009,1	10,681
1009,5	14,624
1009,9	16,967
1010,3	23,252
1010,7	22,567
1011,1	21,795
1011,6	26,567
1012	18,452
1012,4	19,367
1012,8	20,595
1013,2	19,91
1013,6	18,195
1014,1	14,938
1014,5	11,824
1014,9	16,938
1015,3	12,395
1015,7	11,767
1016,1	7,595
1016,6	3,538
1017	10,91
1017,4	12,138
1017,8	6,081
1018,2	8,852
1018,6	10,881
1019,1	13,424
1019,5	15,624
1019,9	11,281
1020,3	6,338
1020,7	9,852
1021,1	8,567
1021,6	9,11
1022	12,224
1022,4	14,881
1022,8	14,167
1023,2	18,967
1023,6	16,881
1024,1	18,938
1024,5	13,281
1024,9	13,395
1025,3	12,481
1025,7	13,224
1026,1	16,567
1026,6	23,995
1027	20,338
1027,4	26,767
1027,8	21,681
1028,2	21,538
1028,6	23,567
1029	17,395
1029,5	13,995
1029,9	17,452
1030,3	19,31
1030,7	18,624
1031,1	20,367
1031,5	22,538
1032	23,652
1032,4	25,195
1032,8	24,224
1033,2	22,338
1033,6	24,967
1034	19,995
1034,4	19,367
1034,9	22,11
1035,3	22,652
1035,7	21,595
1036,1	19,652
1036,5	25,481
1036,9	33,795
1037,4	33,424
1037,8	34,824
1038,2	31,367
1038,6	34,595
1039	33,967
1039,4	28,281
1039,8	21,795
1040,3	19,795
1040,7	15,51
1041,1	14,338
1041,5	15,052
1041,9	14,31
1042,3	13,367
1042,7	15,481
1043,2	15,395
1043,6	19,052
1044	26,024
1044,4	23,31
1044,8	26,595
1045,2	30,852
1045,6	26,824
1046,1	25,31
1046,5	23,281
1046,9	17,367
1047,3	16,395
1047,7	15,395
1048,1	12,624
1048,5	19,567
1049	24,624
1049,4	27,795
1049,8	25,481
1050,2	26,91
1050,6	27,795
1051	23,224
1051,4	17,167
1051,9	11,11
1052,3	11,367
1052,7	16,052
1053,1	14,481
1053,5	10,51
1053,9	16,881
1054,3	17,738
1054,8	18,795
1055,2	12,881
1055,6	12,881
1056	11,252
1056,4	14,167
1056,8	11,395
1057,2	12,052
1057,6	14,224
1058,1	20,824
1058,5	16,938
1058,9	20,224
1059,3	17,138
1059,7	16,795
1060,1	18,252
1060,5	14,11
1061	10,424
1061,4	16,281
1061,8	16,91
1062,2	14,081
1062,6	17,567
1063	19,281
1063,4	23,052
1063,8	23,881
1064,3	18,51
1064,7	20,51
1065,1	28,224
1065,5	29,024
1065,9	27,795
1066,3	28,681
1066,7	23,795
1067,1	25,367
1067,6	23,052
1068	19,481
1068,4	18,481
1068,8	11,824
1069,2	10,852
1069,6	10,567
1070	12,024
1070,4	13,824
1070,9	15,11
1071,3	16,91
1071,7	25,852
1072,1	21,167
1072,5	27,481
1072,9	26,767
1073,3	25,652
1073,7	23,852
1074,2	19,795
1074,6	13,795
1075	17,224
1075,4	14,595
1075,8	12,052
1076,2	9,91
1076,6	14,024
1077	15,052
1077,5	17,024
1077,9	15,281
1078,3	13,595
1078,7	15,795
1079,1	18,452
1079,5	13,395
1079,9	13,481
1080,3	13,081
1080,7	15,51
1081,2	19,595
1081,6	14,195
1082	11,824
1082,4	12,681
1082,8	7,452
1083,2	8,281
1083,6	4,367
1084	1,567
1084,5	8,281
1084,9	4,195
1085,3	3,767
1085,7	11,31
1086,1	9,91
1086,5	10,51
1086,9	13,281
1087,3	8,367
1087,7	10,081
1088,2	9,938
1088,6	1,71
1089	4,167
1089,4	5,824
1089,8	2,852
1090,2	3,424
1090,6	6,367
1091	5,681
1091,4	12,024
1091,9	10,71
1092,3	11,281
1092,7	9,824
1093,1	13,481
1093,5	11,424
1093,9	14,51
1094,3	12,967
1094,7	13,624
1095,1	15,024
1095,5	13,424
1096	12,195
1096,4	12,624
1096,8	10,652
1097,2	9,452
1097,6	9,852
1098	8,481
1098,4	9,424
1098,8	6,681
1099,2	4,31
1099,6	3,11
1100,1	5,024
1100,5	3,624
1100,9	6,995
1101,3	9,51
1101,7	12,138
1102,1	15,652
1102,5	13,481
1102,9	9,167
1103,3	9,738
1103,7	5,138
1104,2	4,281
1104,6	7,167
1105	8,395
1105,4	13,052
1105,8	14,71
1106,2	12,795
1106,6	11,395
1107	10,91
1107,4	8,067
1107,8	3,927
1108,3	0,217
