Data from Subt2_00066.txt Node
Date: Mon Aug 28 13:27:16 MSK 2023
User: vat
Spectrometer: MAYP114033
Trigger mode: 0
Integration Time (sec): 1,000000E0
Scans to average: 5
Electric dark correction enabled: true
Nonlinearity correction enabled: false
Boxcar width: 3
XAxis mode: Wavelengths
Number of Pixels in Spectrum: 2068
>>>>>Begin Spectral Data<<<<<
199,4	-0,1
199,9	-6,38
200,4	-2,6
200,8	1,843
201,3	3,614
201,8	7,471
202,2	7,271
202,7	7,643
203,2	12,5
203,6	13,1
204,1	9,329
204,6	9,814
205	4,9
205,5	6,643
206	5,9
206,4	8,1
206,9	6,3
207,4	5,614
207,8	4,557
208,3	5,957
208,8	5,014
209,2	7,357
209,7	1,243
210,2	0,786
210,6	2,7
211,1	7,3
211,5	10,529
212	10,871
212,5	7,986
212,9	12,157
213,4	13,671
213,9	10,614
214,3	7,271
214,8	6,757
215,3	8,814
215,7	8,614
216,2	6,7
216,7	8,271
217,1	5,986
217,6	5,5
218,1	3,129
218,5	1,5
219	3,129
219,5	8,357
219,9	0,357
220,4	7,643
220,9	7,843
221,3	7,071
221,8	4,529
222,3	6,243
222,7	6,157
223,2	9,329
223,6	4,214
224,1	4,471
224,6	7,871
225	9,443
225,5	5,5
226	0,186
226,4	5,757
226,9	6,843
227,4	8,843
227,8	5,214
228,3	3,643
228,8	5,043
229,2	10,5
229,7	7,414
230,2	7,929
230,6	-0,043
231,1	-1,786
231,5	2,329
232	4,757
232,5	-2,157
232,9	2,414
233,4	5,243
233,9	11,5
234,3	15,786
234,8	13,1
235,3	13,071
235,7	19,014
236,2	12,414
236,7	8,071
237,1	7,614
237,6	8,471
238,1	11,643
238,5	9,871
239	7,671
239,4	11,9
239,9	14,414
240,4	13,957
240,8	15,043
241,3	11,871
241,8	13,843
242,2	11,814
242,7	5,329
243,2	7,786
243,6	7,757
244,1	6,243
244,6	5,414
245	2,014
245,5	3,157
245,9	9,5
246,4	8,5
246,9	6,7
247,3	7,214
247,8	3,471
248,3	11,529
248,7	13,414
249,2	10,471
249,7	12,3
250,1	8,5
250,6	5,643
251	9,186
251,5	3,671
252	1,357
252,4	1,929
252,9	0,929
253,4	3,871
253,8	5,614
254,3	8,414
254,8	10,129
255,2	8,386
255,7	7,986
256,1	0,7
256,6	2,957
257,1	4,786
257,5	-1,157
258	-6,271
258,5	1,386
258,9	0,7
259,4	9,1
259,9	1,986
260,3	-1,986
260,8	2,929
261,2	7,329
261,7	4,129
262,2	5,443
262,6	4,071
263,1	10,329
263,6	6,929
264	8,786
264,5	8,9
264,9	8,014
265,4	5,929
265,9	5,014
266,3	4,071
266,8	11,643
267,3	10,414
267,7	8,071
268,2	7,557
268,7	11,329
269,1	7,557
269,6	9,443
270	1,1
270,5	3,186
271	1,9
271,4	-3,357
271,9	-4,729
272,4	-1,643
272,8	-3,614
273,3	0,9
273,7	-1,014
274,2	-2,243
274,7	4,386
275,1	3,357
275,6	4,871
276,1	6,129
276,5	5,9
277	7,329
277,4	10,471
277,9	6,157
278,4	4,014
278,8	0,643
279,3	0,1
279,8	-0,1
280,2	0,757
280,7	-0,471
281,1	0,471
281,6	2,586
282,1	6,271
282,5	8,129
283	5,3
283,4	4,329
283,9	6,814
284,4	6,443
284,8	7,729
285,3	3,214
285,8	1,586
286,2	4,329
286,7	1,329
287,1	1,729
287,6	1,671
288,1	1,757
288,5	6,929
289	3,614
289,5	5,757
289,9	5,529
290,4	2,414
290,8	7,157
291,3	8,5
291,8	2,643
292,2	8,5
292,7	5,957
293,1	6,271
293,6	7,243
294,1	3,1
294,5	4,9
295	8,614
295,5	9,414
295,9	11,557
296,4	12,329
296,8	12,814
297,3	17,414
297,8	18,214
298,2	20,043
298,7	14,5
299,1	13,129
299,6	12,386
300,1	12,671
300,5	9,7
301	5,157
301,5	1,986
301,9	0,986
302,4	-0,043
302,8	2,529
303,3	3,271
303,8	6,614
304,2	5,386
304,7	3,643
305,1	5,186
305,6	6,7
306,1	4,329
306,5	-0,243
307	-3,071
307,4	-5,929
307,9	-3,786
308,4	-1,271
308,8	-2,129
309,3	1,814
309,8	5,986
310,2	2,786
310,7	8,386
311,1	9,586
311,6	7,071
312,1	8,014
312,5	5,471
313	7,843
313,4	10,214
313,9	6,471
314,4	0,271
314,8	3,471
315,3	4,614
315,7	2,929
316,2	-0,071
316,7	0,214
317,1	1,7
317,6	8,014
318	7,414
318,5	6,043
319	6,357
319,4	9,357
319,9	7,1
320,3	5,871
320,8	7,957
321,3	4,529
321,7	3,471
322,2	2,386
322,6	2,729
323,1	0,929
323,6	2,843
324	-3,214
324,5	1,443
324,9	6,7
325,4	7,3
325,9	5,243
326,3	6,3
326,8	3,014
327,2	3,529
327,7	-3,043
328,2	-5,957
328,6	-0,557
329,1	-5,471
329,5	-4,471
330	1,3
330,5	8,186
330,9	9,843
331,4	7,986
331,8	5,414
332,3	10,214
332,8	13,786
333,2	12,386
333,7	0,7
334,1	-1,043
334,6	0,271
335,1	0,071
335,5	-1,386
336	2,843
336,4	0,9
336,9	10,329
337,4	14,5
337,8	15,557
338,3	13,957
338,7	15,643
339,2	3,529
339,7	5,157
340,1	-0,929
340,6	-1,3
341	-2,786
341,5	-2,614
342	-4,043
342,4	-4,557
342,9	-0,643
343,3	1,357
343,8	2,271
344,2	2,3
344,7	1,757
345,2	2,671
345,6	8,357
346,1	2,471
346,5	5,014
347	3,871
347,5	7,386
347,9	9,329
348,4	7,5
348,8	11,357
349,3	11,386
349,8	12,329
350,2	18,357
350,7	17,671
351,1	17,214
351,6	19,386
352	19,443
352,5	25,843
353	31,443
353,4	34,043
353,9	46,271
354,3	59,357
354,8	69,443
355,3	82,357
355,7	99,271
356,2	116,386
356,6	135,271
357,1	155,929
357,5	180,271
358	218,671
358,5	257,843
358,9	299,214
359,4	348,357
359,8	405,471
360,3	460,014
360,8	532,786
361,2	604,271
361,7	684,157
362,1	770,957
362,6	865,871
363	972,243
363,5	1086,7
364	1194,043
364,4	1315,3
364,9	1432,071
365,3	1550,129
365,8	1669,757
366,3	1772,386
366,7	1864,243
367,2	1945,7
367,6	2008,043
368,1	2059,7
368,5	2090,843
369	2095,414
369,5	2093,443
369,9	2075,614
370,4	2044,414
370,8	1995,329
371,3	1936,786
371,7	1865,843
372,2	1795,557
372,7	1708,329
373,1	1622,186
373,6	1529,014
374	1430,586
374,5	1336,129
374,9	1248,557
375,4	1157,443
375,9	1074,329
376,3	986,957
376,8	909,9
377,2	846,014
377,7	777,757
378,2	712,929
378,6	649,957
379,1	586,3
379,5	538,243
380	492,1
380,4	446,9
380,9	410,443
381,4	378,814
381,8	351,843
382,3	331,643
382,7	308,386
383,2	284,357
383,6	266,786
384,1	248,814
384,6	228,386
385	213,214
385,5	198,386
385,9	184,9
386,4	180,414
386,8	168,3
387,3	156,186
387,7	148,814
388,2	136,3
388,7	127,986
389,1	121,5
389,6	107,814
390	101,386
390,5	97,5
390,9	89,329
391,4	84,614
391,9	79,329
392,3	76,986
392,8	76,529
393,2	72,729
393,7	71,414
394,1	68,843
394,6	67,9
395,1	70,529
395,5	65,386
396	60,586
396,4	57,529
396,9	52,557
397,3	51,5
397,8	45,614
398,2	37,614
398,7	32,643
399,2	32,3
399,6	35,614
400,1	30,357
400,5	28,786
401	35,1
401,4	31,757
401,9	37,671
402,4	36,3
402,8	35,614
403,3	38,671
403,7	39,071
404,2	34,957
404,6	39,757
405,1	41,614
405,5	41,929
406	43,329
406,5	39,5
406,9	42,043
407,4	41,243
407,8	43,214
408,3	38,957
408,7	38,471
409,2	33,786
409,6	44,129
410,1	43,329
410,6	46,671
411	46,786
411,5	47,443
411,9	46,014
412,4	49,871
412,8	41,729
413,3	41,471
413,7	41,214
414,2	38,243
414,7	40,157
415,1	49,3
415,6	48,757
416	59,586
416,5	70,729
416,9	79,071
417,4	87,129
417,8	91,9
418,3	91,243
418,8	95,7
419,2	94,929
419,7	88,129
420,1	84,243
420,6	86,214
421	86,643
421,5	94,529
421,9	97,986
422,4	99,1
422,8	103,1
423,3	106,357
423,8	107,929
424,2	107,357
424,7	103,214
425,1	99,243
425,6	99,957
426	102,5
426,5	100,671
426,9	97,843
427,4	105,329
427,9	110,9
428,3	111,671
428,8	113,529
429,2	114,671
429,7	120,271
430,1	122,557
430,6	116,043
431	114,157
431,5	117,329
431,9	119,386
432,4	116,614
432,8	120,243
433,3	121,443
433,8	129,443
434,2	133,786
434,7	139,271
435,1	144,643
435,6	150,386
436	150,329
436,5	160,529
436,9	166,586
437,4	171,7
437,8	182,271
438,3	192,471
438,8	204,357
439,2	211,214
439,7	219,157
440,1	226,129
440,6	231,243
441	235,243
441,5	242,157
441,9	251,1
442,4	263,243
442,8	272,3
443,3	284,414
443,7	297,9
444,2	310,957
444,7	325,871
445,1	339,614
445,6	356,243
446	373,014
446,5	389,043
446,9	409,586
447,4	427,871
447,8	443,7
448,3	459,214
448,7	475,157
449,2	493,129
449,6	507,929
450,1	522,157
450,6	543,357
451	564,3
451,5	588,329
451,9	611,557
452,4	631,929
452,8	654,957
453,3	682,129
453,7	701,557
454,2	722,243
454,6	742,1
455,1	770,471
455,5	799,786
456	832,5
456,4	855,671
456,9	886,986
457,3	916,7
457,8	949,3
458,3	974,614
458,7	1003,614
459,2	1028,043
459,6	1064,7
460,1	1094,757
460,5	1126,786
461	1160,957
461,4	1191,614
461,9	1225,5
462,3	1261,729
462,8	1294,5
463,2	1331,757
463,7	1368,929
464,1	1403,5
464,6	1437,586
465	1470,271
465,5	1506,329
466	1547,557
466,4	1582,957
466,9	1621,529
467,3	1657,386
467,8	1705,814
468,2	1752,643
468,7	1796,357
469,1	1834,671
469,6	1872,443
470	1916,186
470,5	1963,214
470,9	2002,643
471,4	2043,443
471,8	2086,3
472,3	2126,243
472,7	2169,329
473,2	2209,471
473,6	2246,271
474,1	2285,157
474,5	2322,357
475	2363,1
475,4	2406,386
475,9	2451,386
476,4	2493,586
476,8	2539,1
477,3	2581,214
477,7	2624,3
478,2	2666,7
478,6	2705,471
479,1	2746,386
479,5	2788,157
480	2828,414
480,4	2866,386
480,9	2904,1
481,3	2939,929
481,8	2976,7
482,2	3010,786
482,7	3041,586
483,1	3073,471
483,6	3109,614
484	3140,271
484,5	3172,414
484,9	3205,3
485,4	3239,471
485,8	3269,786
486,3	3297,1
486,7	3326,671
487,2	3358,9
487,6	3387,529
488,1	3409,843
488,5	3436,414
489	3462,986
489,4	3496,071
489,9	3517,9
490,4	3534,1
490,8	3553,986
491,3	3580,243
491,7	3598,414
492,2	3619,443
492,6	3629,871
493,1	3652,586
493,5	3680,471
494	3707,043
494,4	3721,986
494,9	3741,671
495,3	3762,386
495,8	3782,729
496,2	3801,357
496,7	3816,9
497,1	3828,414
497,6	3854,586
498	3872,471
498,5	3881,014
498,9	3895,814
499,4	3906,414
499,8	3918,329
500,3	3929,129
500,7	3930,586
501,2	3933,671
501,6	3946,529
502,1	3962,9
502,5	3975,357
503	3994,129
503,4	4000,3
503,9	4013,729
504,3	4030,9
504,8	4040,3
505,2	4044,614
505,7	4054,729
506,1	4046,386
506,6	4053,071
507	4059,357
507,5	4062,5
507,9	4072,329
508,4	4076,386
508,8	4080,557
509,3	4097,643
509,7	4103,271
510,2	4110,729
510,6	4117,186
511,1	4130,586
511,5	4141,071
512	4143,529
512,4	4144,986
512,9	4161,014
513,3	4166,214
513,8	4179,186
514,2	4176,271
514,7	4180,843
515,1	4188,586
515,6	4196,871
516	4192,386
516,5	4195,757
516,9	4197,7
517,4	4204,129
517,8	4209,557
518,3	4220,729
518,7	4223,129
519,2	4235,9
519,6	4241,643
520,1	4250,614
520,5	4251,643
521	4250,929
521,4	4250,871
521,9	4255,5
522,3	4260,7
522,8	4266,671
523,2	4265,329
523,7	4278,557
524,1	4288,357
524,6	4296,671
525	4310,414
525,5	4318,757
525,9	4327,7
526,4	4336,843
526,8	4334,757
527,3	4348,3
527,7	4360,157
528,2	4367,329
528,6	4375,071
529,1	4386,7
529,5	4389,986
530	4403,757
530,4	4411,157
530,9	4413,557
531,3	4424,443
531,8	4434,614
532,2	4441,1
532,6	4456,443
533,1	4460,929
533,5	4458,786
534	4464,3
534,4	4462,014
534,9	4466,357
535,3	4479,3
535,8	4493,1
536,2	4503,3
536,7	4520,443
537,1	4538,529
537,6	4553,757
538	4563,129
538,5	4570,214
538,9	4574,357
539,4	4589,3
539,8	4598,9
540,3	4606,671
540,7	4610,729
541,2	4621,814
541,6	4622,7
542,1	4624,986
542,5	4630,843
543	4640,357
543,4	4645,157
543,9	4660,557
544,3	4678,129
544,8	4693,986
545,2	4711,043
545,7	4716,957
546,1	4726,014
546,5	4738,9
547	4745,5
547,4	4750,386
547,9	4761,386
548,3	4765,7
548,8	4777,129
549,2	4787,986
549,7	4791,557
550,1	4803,9
550,6	4807,729
551	4817,5
551,5	4829,1
551,9	4837,986
552,4	4839,929
552,8	4851,614
553,3	4857,1
553,7	4867,9
554,2	4875,671
554,6	4883,614
555,1	4888,186
555,5	4901,843
555,9	4904,214
556,4	4915,843
556,8	4926,557
557,3	4933,871
557,7	4950,5
558,2	4965,3
558,6	4968,643
559,1	4982,414
559,5	4988,7
560	4987,929
560,4	4990,557
560,9	4990,814
561,3	4997,529
561,8	5009,7
562,2	5016,986
562,7	5018,157
563,1	5028,9
563,6	5040,214
564	5040,9
564,4	5043,471
564,9	5052,814
565,3	5060,014
565,8	5074,386
566,2	5076,871
566,7	5086,757
567,1	5093,186
567,6	5104,614
568	5096,414
568,5	5096,757
568,9	5095,929
569,4	5096,586
569,8	5095,414
570,3	5101,186
570,7	5096,443
571,1	5103,729
571,6	5106,986
572	5106,271
572,5	5106,929
572,9	5098,414
573,4	5095,786
573,8	5095,214
574,3	5097,471
574,7	5100,871
575,2	5097,814
575,6	5100,786
576,1	5106,043
576,5	5107,471
576,9	5107,214
577,4	5104,129
577,8	5095,814
578,3	5092,071
578,7	5085,643
579,2	5073,043
579,6	5070,3
580,1	5069,329
580,5	5064,586
581	5053,814
581,4	5058,586
581,9	5046,814
582,3	5052,7
582,7	5037,729
583,2	5024,757
583,6	5009,729
584,1	5007,671
584,5	4993,271
585	4986,786
585,4	4970,786
585,9	4971,471
586,3	4961,671
586,8	4961,214
587,2	4957,1
587,6	4949,271
588,1	4952,471
588,5	4950,957
589	4941,386
589,4	4939,071
589,9	4926,414
590,3	4913,243
590,8	4901,443
591,2	4885,329
591,7	4872,786
592,1	4866,129
592,5	4860,243
593	4855,586
593,4	4847,414
593,9	4847,529
594,3	4842,786
594,8	4835,214
595,2	4824,014
595,7	4814,557
596,1	4808,243
596,6	4802,757
597	4797,157
597,4	4790,7
597,9	4788,186
598,3	4775,329
598,8	4764,871
599,2	4761,414
599,7	4747,329
600,1	4735,471
600,6	4721,9
601	4706,7
601,4	4710,529
601,9	4701,9
602,3	4680,043
602,8	4675,843
603,2	4662,671
603,7	4655,757
604,1	4650,214
604,6	4628,471
605	4618,043
605,4	4610,729
605,9	4598,471
606,3	4592,757
606,8	4584,243
607,2	4569,7
607,7	4559,014
608,1	4550,614
608,6	4544,043
609	4533,129
609,4	4517,9
609,9	4495,357
610,3	4476,329
610,8	4460,014
611,2	4439,729
611,7	4415,329
612,1	4395,414
612,6	4370,014
613	4350,757
613,4	4340,271
613,9	4334,157
614,3	4321,471
614,8	4303,614
615,2	4287,357
615,7	4278,586
616,1	4270,5
616,6	4257,643
617	4233,414
617,4	4214,1
617,9	4204,871
618,3	4188,786
618,8	4172,271
619,2	4159,329
619,7	4136,357
620,1	4117,986
620,5	4100,557
621	4082,586
621,4	4071,3
621,9	4054,214
622,3	4030,7
622,8	4013,1
623,2	3996,1
623,6	3974,329
624,1	3953,814
624,5	3935,729
625	3909,929
625,4	3896,843
625,9	3881,929
626,3	3869,957
626,8	3852,014
627,2	3833,7
627,6	3811,757
628,1	3797,3
628,5	3782,757
629	3763,729
629,4	3744,729
629,9	3732,3
630,3	3715,843
630,7	3694,414
631,2	3680,129
631,6	3657,9
632,1	3637,557
632,5	3612,5
633	3590,243
633,4	3574,3
633,8	3557,5
634,3	3541,271
634,7	3518,071
635,2	3497,329
635,6	3482,271
636,1	3467,471
636,5	3450,357
636,9	3430,557
637,4	3408,243
637,8	3396,586
638,3	3374,814
638,7	3363,7
639,2	3342,443
639,6	3325,386
640	3306,386
640,5	3288,843
640,9	3269,243
641,4	3260,3
641,8	3241,729
642,2	3229,814
642,7	3213,214
643,1	3196,529
643,6	3188,271
644	3171,814
644,5	3159,014
644,9	3136,614
645,3	3117,643
645,8	3096,586
646,2	3083,3
646,7	3056,986
647,1	3039,414
647,6	3019,614
648	3009,7
648,4	2994,729
648,9	2979,414
649,3	2967,129
649,8	2958,014
650,2	2948,386
650,6	2936,729
651,1	2918,614
651,5	2899,043
652	2889,071
652,4	2873,043
652,9	2858,3
653,3	2838,814
653,7	2826,586
654,2	2810,071
654,6	2801,071
655,1	2785,9
655,5	2770,7
655,9	2752,071
656,4	2737,529
656,8	2710,157
657,3	2696,729
657,7	2678,7
658,2	2659,729
658,6	2643,843
659	2625,471
659,5	2606,757
659,9	2591,786
660,4	2568,871
660,8	2550,871
661,2	2532,186
661,7	2517,329
662,1	2508,043
662,6	2494,614
663	2481,814
663,4	2466,471
663,9	2453,443
664,3	2437,671
664,8	2419,043
665,2	2396,129
665,6	2383,957
666,1	2366,757
666,5	2355,186
667	2342,614
667,4	2329,414
667,9	2319,243
668,3	2304,986
668,7	2283,557
669,2	2270,7
669,6	2254,757
670,1	2236,843
670,5	2227,243
670,9	2208,814
671,4	2196,871
671,8	2188,729
672,3	2172,929
672,7	2165,957
673,1	2150,757
673,6	2131,586
674	2121,3
674,5	2107,557
674,9	2087,586
675,3	2072,9
675,8	2055,043
676,2	2047,1
676,7	2032,1
677,1	2021,386
677,5	2009,014
678	2005,271
678,4	1998,071
678,9	1986,729
679,3	1967,243
679,7	1958,557
680,2	1936,986
680,6	1923,871
681,1	1910,357
681,5	1890,529
681,9	1876,729
682,4	1865,557
682,8	1856,357
683,3	1850,386
683,7	1838,043
684,1	1821,043
684,6	1807,386
685	1796,386
685,5	1789,643
685,9	1776,557
686,3	1762,929
686,8	1751,814
687,2	1736,871
687,7	1728,843
688,1	1713,986
688,5	1702,471
689	1688,871
689,4	1679,214
689,9	1669,129
690,3	1660,871
690,7	1653,843
691,2	1640,729
691,6	1626,186
692	1614,186
692,5	1604,129
692,9	1588,043
693,4	1578,7
693,8	1571,929
694,2	1562,557
694,7	1551,5
695,1	1544,3
695,6	1532,443
696	1524,471
696,4	1516,5
696,9	1500,729
697,3	1488,586
697,8	1478,929
698,2	1464,643
698,6	1450,871
699,1	1443,243
699,5	1428,557
699,9	1424,357
700,4	1416,757
700,8	1409,271
701,3	1402,614
701,7	1394,843
702,1	1382,243
702,6	1378,871
703	1362,986
703,5	1358,529
703,9	1346,529
704,3	1337,386
704,8	1330,9
705,2	1321,5
705,6	1308,414
706,1	1301,643
706,5	1292,471
707	1286,129
707,4	1272,671
707,8	1256,929
708,3	1252,071
708,7	1242,643
709,2	1230,186
709,6	1214,271
710	1207,043
710,5	1203,471
710,9	1201,129
711,3	1187,043
711,8	1180,129
712,2	1175,786
712,7	1166,557
713,1	1153,757
713,5	1143,929
714	1135,443
714,4	1130,414
714,8	1123,986
715,3	1117,357
715,7	1108,986
716,2	1106,786
716,6	1096,929
717	1089,329
717,5	1081,1
717,9	1072,786
718,3	1059,471
718,8	1060,043
719,2	1046,614
719,7	1037,529
720,1	1027,3
720,5	1021,586
721	1010,529
721,4	1006,814
721,8	996,7
722,3	991,986
722,7	989,014
723,2	983,729
723,6	975,329
724	966,843
724,5	956,014
724,9	948,471
725,3	940,014
725,8	933,1
726,2	923,786
726,7	916,757
727,1	913,071
727,5	908,786
728	897,9
728,4	892,414
728,8	881,1
729,3	874,471
729,7	868,929
730,1	858,586
730,6	850,7
731	851,9
731,5	841,586
731,9	842,643
732,3	837,386
732,8	830,186
733,2	825,386
733,6	823,471
734,1	817,586
734,5	816,614
734,9	807,614
735,4	802,414
735,8	795,871
736,3	790,214
736,7	783,271
737,1	776,471
737,6	773,386
738	770,671
738,4	765,5
738,9	765,1
739,3	764,043
739,7	757,929
740,2	756,357
740,6	748,414
741,1	739,643
741,5	734,9
741,9	731,671
742,4	727,814
742,8	723,729
743,2	713,614
743,7	705,614
744,1	706,043
744,5	705,471
745	691,129
745,4	683,814
745,8	678,214
746,3	678,129
746,7	677,3
747,2	667,643
747,6	658,957
748	663,329
748,5	659,786
748,9	657,129
749,3	649,043
749,8	646,043
750,2	641,729
750,6	644,9
751,1	640,643
751,5	634,786
751,9	631,414
752,4	629,443
752,8	622,186
753,3	617,471
753,7	604,129
754,1	596,414
754,6	595,671
755	589,757
755,4	586,9
755,9	586,386
756,3	583,671
756,7	585,043
757,2	586,043
757,6	578,043
758	574,043
758,5	570,014
758,9	561,471
759,3	558,071
759,8	549,043
760,2	540,729
760,6	538,643
761,1	533,871
761,5	529,529
761,9	531,5
762,4	527,214
762,8	523,386
763,3	516,214
763,7	507,1
764,1	506,214
764,6	499,957
765	491,386
765,4	491,5
765,9	493,529
766,3	494,643
766,7	495,3
767,2	489,643
767,6	485,014
768	483,557
768,5	478,957
768,9	477,757
769,3	469,957
769,8	468,214
770,2	465,471
770,6	463,671
771,1	460,786
771,5	453,9
771,9	450,5
772,4	453,1
772,8	450,729
773,2	444,814
773,7	438,786
774,1	434,329
774,5	430,757
775	419,014
775,4	412,157
775,8	409,214
776,3	409,986
776,7	409,471
777,1	406,471
777,6	406,471
778	408,729
778,4	409,1
778,9	401,043
779,3	399,471
779,7	397,271
780,2	399,986
780,6	392,871
781	386,5
781,5	384,643
781,9	388,843
782,3	387,357
782,8	388,014
783,2	379,757
783,6	384,643
784,1	382,843
784,5	376,214
784,9	371,157
785,4	366,643
785,8	361,386
786,2	355,929
786,7	349,014
787,1	352,529
787,5	350,329
788	349,1
788,4	347,671
788,8	343,9
789,3	341,414
789,7	340,529
790,1	333,643
790,6	329,5
791	325,871
791,4	323,414
791,9	321,014
792,3	320,671
792,7	314,3
793,2	314,471
793,6	315,043
794	313,329
794,5	310,157
794,9	307,871
795,3	308,529
795,8	308,271
796,2	303,243
796,6	301,386
797,1	294,7
797,5	292,957
797,9	294,5
798,4	287,443
798,8	284,386
799,2	281,929
799,7	275,814
800,1	273,357
800,5	269,614
801	265,043
801,4	268,014
801,8	265,014
802,2	265,443
802,7	267,643
803,1	269,5
803,5	267,671
804	263,814
804,4	261,671
804,8	263,3
805,3	265,586
805,7	259,786
806,1	256,529
806,6	255,7
807	256,614
807,4	251,157
807,9	245,929
808,3	237,157
808,7	234,986
809,2	233,929
809,6	231,757
810	224,757
810,4	223,129
810,9	221,471
811,3	221,014
811,7	225,471
812,2	224,9
812,6	218,843
813	219,957
813,5	215,9
813,9	212,9
814,3	209,329
814,8	199,357
815,2	193,529
815,6	193,357
816,1	192,157
816,5	198,129
816,9	198,529
817,3	199,614
817,8	202,557
818,2	207,329
818,6	205,871
819,1	205,357
819,5	199,186
819,9	196,586
820,4	194,586
820,8	188,243
821,2	181,871
821,7	181,157
822,1	178,329
822,5	175,729
822,9	176,386
823,4	173,843
823,8	175,729
824,2	175,586
824,7	177,129
825,1	171,986
825,5	167,557
826	164,329
826,4	163,586
826,8	162,243
827,3	163,986
827,7	162,671
828,1	165,757
828,5	169,443
829	170,529
829,4	164,586
829,8	162,186
830,3	158,7
830,7	152,071
831,1	153,129
831,6	151,757
832	152,786
832,4	156,557
832,8	155,214
833,3	151,614
833,7	148,271
834,1	143,071
834,6	140,757
835	140,557
835,4	139,129
835,8	137,443
836,3	138,9
836,7	143,157
837,1	143,814
837,6	142,471
838	136,271
838,4	134,957
838,9	133,329
839,3	135,871
839,7	136,1
840,1	130,5
840,6	130,329
841	132,414
841,4	131,3
841,9	133,186
842,3	127,357
842,7	124,729
843,1	127,729
843,6	127,643
844	123,586
844,4	118,643
844,9	115,014
845,3	119,614
845,7	119,529
846,2	116,614
846,6	115,671
847	116,271
847,4	112,9
847,9	114,986
848,3	107,786
848,7	106,214
849,2	108,014
849,6	102,214
850	103,671
850,4	108,186
850,9	104,186
851,3	105,5
851,7	104,871
852,2	104,043
852,6	109,071
853	103,7
853,4	100,643
853,9	99,786
854,3	97,214
854,7	95,014
855,2	94,986
855,6	92,1
856	89,929
856,4	92,957
856,9	95,1
857,3	93,214
857,7	93,529
858,2	83,214
858,6	81,586
859	82,929
859,4	81,843
859,9	81,271
860,3	80,614
860,7	78,157
861,1	83,014
861,6	88,1
862	87,014
862,4	81,729
862,9	84,5
863,3	83,071
863,7	85,586
864,1	84,843
864,6	82,871
865	82,357
865,4	86,129
865,9	84,1
866,3	85,443
866,7	84,071
867,1	82,729
867,6	78,129
868	85,1
868,4	82,871
868,8	81,671
869,3	81,643
869,7	78,186
870,1	79,071
870,6	72,5
871	63,5
871,4	59,814
871,8	55,243
872,3	54,871
872,7	56,757
873,1	54,586
873,5	59,929
874	60,414
874,4	63,614
874,8	71,671
875,3	69,643
875,7	66,5
876,1	63,9
876,5	63,186
877	66,129
877,4	65,671
877,8	62,757
878,2	59,014
878,7	61,986
879,1	65,757
879,5	64,014
879,9	57,957
880,4	59,043
880,8	53,843
881,2	57,5
881,7	52,929
882,1	55,186
882,5	60,671
882,9	62,557
883,4	61,843
883,8	61,271
884,2	57,757
884,6	58,7
885,1	55,243
885,5	51,843
885,9	54,357
886,3	52,9
886,8	52,157
887,2	51,043
887,6	54,3
888	54,729
888,5	51,557
888,9	51,957
889,3	51,043
889,8	54,957
890,2	56,814
890,6	54,386
891	52,186
891,5	56,3
891,9	52,043
892,3	50,186
892,7	47,729
893,2	46,557
893,6	47,071
894	49,986
894,4	45,043
894,9	42,386
895,3	42,129
895,7	41,129
896,1	43,786
896,6	43,443
897	39,929
897,4	38,729
897,8	43,186
898,3	41,357
898,7	40,386
899,1	40,414
899,5	40,329
900	42,1
900,4	45,129
900,8	42,329
901,2	47,214
901,7	47,814
902,1	46,729
902,5	43,643
902,9	38,643
903,4	36,814
903,8	36,329
904,2	29,586
904,6	29,214
905,1	33,671
905,5	35,3
905,9	37,614
906,3	33,243
906,8	36,957
907,2	40,129
907,6	42,5
908	33,586
908,5	33,014
908,9	33,786
909,3	37,414
909,7	35,614
910,2	37,7
910,6	30,129
911	29,557
911,4	28,157
911,9	28,157
912,3	23,243
912,7	21,186
913,1	15,814
913,6	16,5
914	24,7
914,4	18,414
914,8	21,471
915,3	23,043
915,7	24,814
916,1	27,1
916,5	31,843
916,9	25,243
917,4	33,843
917,8	25,871
918,2	29,471
918,6	29,557
919,1	29,929
919,5	27,186
919,9	27,9
920,3	26,1
920,8	30,271
921,2	29,214
921,6	28,357
922	28,357
922,5	31,043
922,9	32,357
923,3	32,471
923,7	35,043
924,2	34,7
924,6	32,643
925	32,843
925,4	30,357
925,8	30,1
926,3	29,5
926,7	26,1
927,1	25,529
927,5	30,129
928	27,786
928,4	25,3
928,8	23,557
929,2	23,729
929,7	23,529
930,1	23,129
930,5	19,929
930,9	17,214
931,3	20,129
931,8	18,7
932,2	20,643
932,6	21,243
933	20,443
933,5	22,014
933,9	26,043
934,3	26,5
934,7	24,043
935,2	22,1
935,6	21,586
936	19,443
936,4	17,157
936,8	16,843
937,3	14,986
937,7	16,271
938,1	12,3
938,5	10,243
939	14,557
939,4	14,786
939,8	16,071
940,2	16,471
940,6	13,614
941,1	17,243
941,5	18,3
941,9	21,529
942,3	17,357
942,8	21,9
943,2	27,471
943,6	31,871
944	26,5
944,4	26,586
944,9	21,586
945,3	22,671
945,7	20,071
946,1	10,586
946,6	12,443
947	18,157
947,4	14,871
947,8	16,3
948,2	16,014
948,7	7,7
949,1	11,9
949,5	8,357
949,9	7,329
950,3	10,9
950,8	11,471
951,2	15,557
951,6	17,557
952	16,129
952,5	13,357
952,9	12,329
953,3	12,986
953,7	12,557
954,1	10,814
954,6	13,014
955	12,929
955,4	20,871
955,8	21,3
956,2	22,614
956,7	20,043
957,1	12,843
957,5	11,957
957,9	11,671
958,3	7,986
958,8	6,414
959,2	3,614
959,6	4,614
960	12,529
960,5	8,186
960,9	9,471
961,3	6,7
961,7	8,329
962,1	8,786
962,6	8,3
963	3,529
963,4	9,329
963,8	10,586
964,2	16,957
964,7	18,186
965,1	12,014
965,5	15,586
965,9	18,529
966,3	17,214
966,8	18,271
967,2	12,7
967,6	13,614
968	19,557
968,4	17,814
968,9	18,786
969,3	18,414
969,7	16,329
970,1	15,957
970,5	12,214
971	11,643
971,4	10,5
971,8	9,586
972,2	9,957
972,6	7,443
973,1	8,786
973,5	9,329
973,9	8,643
974,3	9,786
974,7	9,814
975,2	9,129
975,6	12,414
976	11,357
976,4	6,957
976,8	4,957
977,3	1,557
977,7	2,243
978,1	5,157
978,5	1,157
978,9	0,329
979,4	2,043
979,8	5,986
980,2	9,3
980,6	4,957
981	-0,186
981,5	4,471
981,9	9,443
982,3	13,071
982,7	11,386
983,1	6,586
983,6	9,757
984	9,071
984,4	7,586
984,8	4,357
985,2	1,729
985,6	1,043
986,1	3,9
986,5	0,586
986,9	3,3
987,3	0,814
987,7	2,1
988,2	5,757
988,6	5,243
989	4,129
989,4	5,814
989,8	7,986
990,3	7,5
990,7	11,586
991,1	10,729
991,5	11,129
991,9	13,157
992,3	12,586
992,8	12,157
993,2	13,814
993,6	2,729
994	0,271
994,4	1,5
994,9	-0,043
995,3	8,5
995,7	3,986
996,1	2,014
996,5	4,443
996,9	2,471
997,4	-0,786
997,8	3,986
998,2	-2,329
998,6	2,1
999	4,186
999,5	6,871
999,9	9,757
1000,3	12,9
1000,7	6,986
1001,1	5,786
1001,5	8,729
1002	8,957
1002,4	11,643
1002,8	9,3
1003,2	13,414
1003,6	16,786
1004	17,871
1004,5	12,729
1004,9	10,871
1005,3	7,5
1005,7	9,043
1006,1	8,614
1006,6	4,186
1007	-0,871
1007,4	-4,386
1007,8	0,586
1008,2	2,357
1008,6	1,757
1009,1	0,1
1009,5	3,614
1009,9	6,329
1010,3	9,586
1010,7	8,3
1011,1	9,386
1011,6	12,129
1012	10,671
1012,4	10,071
1012,8	10,014
1013,2	15,529
1013,6	14,729
1014,1	12,357
1014,5	9,814
1014,9	11,271
1015,3	10,043
1015,7	10,043
1016,1	1,643
1016,6	-2,529
1017	-2,529
1017,4	-2,214
1017,8	-8,5
1018,2	-6,957
1018,6	-0,729
1019,1	6,186
1019,5	8,129
1019,9	11,929
1020,3	12,871
1020,7	17,243
1021,1	17,414
1021,6	10,786
1022	10,557
1022,4	12,586
1022,8	11,471
1023,2	9,014
1023,6	5,7
1024,1	2,5
1024,5	6,071
1024,9	4,729
1025,3	5,1
1025,7	2,5
1026,1	6,3
1026,6	10,786
1027	12,529
1027,4	10,671
1027,8	5,014
1028,2	1,586
1028,6	4,643
1029	1,786
1029,5	0,586
1029,9	6,529
1030,3	9,871
1030,7	12,729
1031,1	15,9
1031,5	16,586
1032	17,7
1032,4	16,414
1032,8	10,414
1033,2	7,043
1033,6	6,929
1034	7,271
1034,4	5,529
1034,9	8,071
1035,3	6,671
1035,7	6,757
1036,1	6,9
1036,5	12,471
1036,9	14,214
1037,4	16,671
1037,8	16,129
1038,2	16,614
1038,6	16,357
1039	13,814
1039,4	10,443
1039,8	5,186
1040,3	4,414
1040,7	-4,157
1041,1	-5,529
1041,5	1,529
1041,9	0,643
1042,3	-3,243
1042,7	-6,071
1043,2	-7,557
1043,6	-0,5
1044	4,643
1044,4	-2,329
1044,8	-0,557
1045,2	4,557
1045,6	11,043
1046,1	14,357
1046,5	9,729
1046,9	6,929
1047,3	10,557
1047,7	16,3
1048,1	15,443
1048,5	14,757
1049	15,386
1049,4	17,729
1049,8	21,1
1050,2	19,271
1050,6	12,586
1051	8,871
1051,4	5,529
1051,9	-2,157
1052,3	5,071
1052,7	2,1
1053,1	1,329
1053,5	4,557
1053,9	7,157
1054,3	0,557
1054,8	2,071
1055,2	-4,757
1055,6	-3,014
1056	-2,443
1056,4	-3,529
1056,8	0,214
1057,2	8,014
1057,6	9,443
1058,1	16,5
1058,5	12,671
1058,9	14,186
1059,3	17,3
1059,7	12,7
1060,1	10,643
1060,5	10,529
1061	5,1
1061,4	12,214
1061,8	10,414
1062,2	5,557
1062,6	4,1
1063	7,071
1063,4	6,9
1063,8	9,071
1064,3	2,729
1064,7	3,671
1065,1	6,3
1065,5	8,557
1065,9	7,729
1066,3	7,414
1066,7	3,614
1067,1	3,557
1067,6	9,729
1068	10,357
1068,4	9,786
1068,8	4,414
1069,2	6,357
1069,6	3,443
1070	6,786
1070,4	3,3
1070,9	4,043
1071,3	8,129
1071,7	16,5
1072,1	14,071
1072,5	18,271
1072,9	15,9
1073,3	14,3
1073,7	18,557
1074,2	17,386
1074,6	12,843
1075	13,214
1075,4	12,671
1075,8	15,3
1076,2	15,586
1076,6	11,129
1077	9,043
1077,5	11,614
1077,9	12,529
1078,3	10,3
1078,7	7,357
1079,1	6,614
1079,5	1,814
1079,9	-2,043
1080,3	-6,414
1080,7	-8,071
1081,2	-4,014
1081,6	-8,614
1082	-8,043
1082,4	-4,357
1082,8	-0,643
1083,2	5,386
1083,6	5,5
1084	1,614
1084,5	10,671
1084,9	1,757
1085,3	1,1
1085,7	0,186
1086,1	-3,129
1086,5	-6,643
1086,9	-8,243
1087,3	-15,957
1087,7	-9,5
1088,2	-7,9
1088,6	-7,671
1089	-11,129
1089,4	-5,5
1089,8	-0,071
1090,2	3,957
1090,6	3,929
1091	4,186
1091,4	5,7
1091,9	12,214
1092,3	13,271
1092,7	12,729
1093,1	11,9
1093,5	11,7
1093,9	11,843
1094,3	11,414
1094,7	10,3
1095,1	7,586
1095,5	3,586
1096	5,814
1096,4	7,043
1096,8	3,929
1097,2	3,243
1097,6	6,529
1098	9,1
1098,4	10,3
1098,8	11,214
1099,2	9,814
1099,6	12,443
1100,1	11,5
1100,5	8,5
1100,9	7,557
1101,3	10,986
1101,7	6,5
1102,1	8,671
1102,5	3,129
1102,9	0,3
1103,3	-1,186
1103,7	-0,757
1104,2	-1,471
1104,6	4,357
1105	4,871
1105,4	10,271
1105,8	13,643
1106,2	12,929
1106,6	10,586
1107	8,9
1107,4	5,667
1107,8	2,66
1108,3	0,1
