Data from Subt2_00013.txt Node
Date: Mon Aug 28 13:07:26 MSK 2023
User: vat
Spectrometer: MAYP114033
Trigger mode: 0
Integration Time (sec): 1,000000E0
Scans to average: 5
Electric dark correction enabled: true
Nonlinearity correction enabled: false
Boxcar width: 3
XAxis mode: Wavelengths
Number of Pixels in Spectrum: 2068
>>>>>Begin Spectral Data<<<<<
199,4	-0,617
199,9	1,233
200,4	0,633
200,8	2,062
201,3	1,576
201,8	4,862
202,2	5,805
202,7	7,89
203,2	6,405
203,6	6,433
204,1	7,919
204,6	12,376
205	15,919
205,5	17,719
206	16,348
206,4	18,348
206,9	17,89
207,4	17,005
207,8	14,89
208,3	10,776
208,8	13,862
209,2	19,319
209,7	17,405
210,2	14,948
210,6	16,262
211,1	15,176
211,5	16,005
212	13,748
212,5	11,433
212,9	12,176
213,4	17,376
213,9	16,633
214,3	16,833
214,8	17,405
215,3	15,405
215,7	14,49
216,2	17,119
216,7	17,176
217,1	13,09
217,6	14,976
218,1	7,948
218,5	8,348
219	7,033
219,5	5,719
219,9	7,376
220,4	10,033
220,9	8,748
221,3	12,005
221,8	14,919
222,3	17,433
222,7	17,519
223,2	14,633
223,6	15,462
224,1	15,833
224,6	16,49
225	14,662
225,5	12,233
226	14,376
226,4	15,062
226,9	14,748
227,4	16,605
227,8	17,605
228,3	16,69
228,8	15,576
229,2	18,748
229,7	18,976
230,2	15,09
230,6	12,405
231,1	10,319
231,5	12,49
232	18,062
232,5	10,89
232,9	9,576
233,4	13,948
233,9	18,548
234,3	20,49
234,8	19,605
235,3	12,433
235,7	12,148
236,2	7,805
236,7	8,09
237,1	8,405
237,6	8,319
238,1	1,49
238,5	6,348
239	10,005
239,4	19,062
239,9	20,233
240,4	16,89
240,8	20,348
241,3	31,89
241,8	28,548
242,2	29,948
242,7	28,062
243,2	25,948
243,6	29,176
244,1	24,719
244,6	20,233
245	21,462
245,5	17,205
245,9	13,976
246,4	15,376
246,9	15,948
247,3	14,548
247,8	11,319
248,3	11,033
248,7	15,176
249,2	15,205
249,7	14,262
250,1	8,633
250,6	10,976
251	11,433
251,5	16,462
252	9,433
252,4	11,148
252,9	10,776
253,4	16,319
253,8	15,119
254,3	14,376
254,8	11,376
255,2	15,005
255,7	13,633
256,1	15,233
256,6	10,948
257,1	12,376
257,5	14,062
258	7,919
258,5	7,405
258,9	6,148
259,4	5,005
259,9	5,119
260,3	7,405
260,8	6,69
261,2	11,262
261,7	12,519
262,2	16,09
262,6	16,69
263,1	19,862
263,6	17,805
264	16,948
264,5	17,833
264,9	17,948
265,4	16,633
265,9	16,062
266,3	16,49
266,8	12,433
267,3	14,176
267,7	14,062
268,2	14,205
268,7	14,69
269,1	11,576
269,6	8,805
270	12,976
270,5	13,29
271	14,748
271,4	10,462
271,9	13,176
272,4	17,776
272,8	19,09
273,3	18,862
273,7	15,519
274,2	13,519
274,7	15,548
275,1	15,948
275,6	14,462
276,1	11,833
276,5	13,033
277	20,262
277,4	21,49
277,9	22,548
278,4	19,49
278,8	19,89
279,3	19,919
279,8	16,433
280,2	8,748
280,7	5,89
281,1	8,233
281,6	8,833
282,1	6,548
282,5	6,833
283	8,605
283,4	10,833
283,9	11,519
284,4	9,062
284,8	8,119
285,3	9,119
285,8	9,919
286,2	5,719
286,7	6,605
287,1	7,69
287,6	8,805
288,1	11,062
288,5	9,633
289	12,69
289,5	14,805
289,9	18,862
290,4	21,49
290,8	20,262
291,3	16,919
291,8	18,29
292,2	15,805
292,7	15,148
293,1	11,748
293,6	6,29
294,1	7,148
294,5	8,519
295	10,005
295,5	5,348
295,9	9,119
296,4	7,005
296,8	9,605
297,3	7,376
297,8	3,805
298,2	4,833
298,7	8,633
299,1	9,119
299,6	11,719
300,1	12,519
300,5	13,205
301	18,862
301,5	15,49
301,9	14,319
302,4	10,176
302,8	11,433
303,3	15,176
303,8	17,748
304,2	12,319
304,7	13,519
305,1	13,69
305,6	18,462
306,1	15,89
306,5	11,462
307	7,662
307,4	10,719
307,9	7,462
308,4	6,233
308,8	6,662
309,3	7,519
309,8	10,776
310,2	12,148
310,7	14,948
311,1	19,519
311,6	24,148
312,1	23,376
312,5	24,176
313	16,605
313,4	22,719
313,9	18,833
314,4	18,833
314,8	17,233
315,3	17,805
315,7	16,662
316,2	20,519
316,7	13,605
317,1	13,548
317,6	11,633
318	11,548
318,5	9,662
319	12,09
319,4	12,748
319,9	8,805
320,3	14,348
320,8	18,576
321,3	14,919
321,7	14,319
322,2	12,948
322,6	11,519
323,1	16,005
323,6	9,748
324	6,119
324,5	12,89
324,9	13,233
325,4	13,862
325,9	15,462
326,3	14,662
326,8	13,462
327,2	15,519
327,7	12,976
328,2	10,605
328,6	9,405
329,1	8,148
329,5	10,576
330	9,948
330,5	9,776
330,9	7,033
331,4	11,49
331,8	14,148
332,3	17,662
332,8	17,09
333,2	24,262
333,7	21,719
334,1	24,719
334,6	23,89
335,1	22,205
335,5	20,119
336	17,805
336,4	18,805
336,9	19,319
337,4	18,205
337,8	13,69
338,3	11,805
338,7	9,348
339,2	14,205
339,7	11,662
340,1	11,348
340,6	9,948
341	12,205
341,5	16,005
342	20,433
342,4	22,405
342,9	22,89
343,3	23,376
343,8	20,948
344,2	25,548
344,7	27,976
345,2	25,548
345,6	24,405
346,1	23,548
346,5	23,233
347	28,148
347,5	25,605
347,9	16,805
348,4	16,919
348,8	15,576
349,3	19,576
349,8	22,262
350,2	23,319
350,7	25,776
351,1	30,776
351,6	33,49
352	35,119
352,5	37,233
353	37,862
353,4	41,976
353,9	45,005
354,3	51,176
354,8	59,433
355,3	72,033
355,7	81,548
356,2	95,548
356,6	113,09
357,1	131,119
357,5	156,49
358	180,205
358,5	207,89
358,9	243,29
359,4	281,919
359,8	322,862
360,3	368,176
360,8	416,319
361,2	476,89
361,7	536,662
362,1	592,376
362,6	664,69
363	739,148
363,5	824,176
364	909,376
364,4	1000,405
364,9	1092,176
365,3	1191,348
365,8	1278,948
366,3	1359,033
366,7	1429,662
367,2	1494,119
367,6	1538,633
368,1	1573,005
368,5	1597,005
369	1608,548
369,5	1611,319
369,9	1597,548
370,4	1573,205
370,8	1544,033
371,3	1497,776
371,7	1445,376
372,2	1387,519
372,7	1323,69
373,1	1260,662
373,6	1188,205
374	1113,233
374,5	1044,319
374,9	974,462
375,4	904,005
375,9	832,262
376,3	765,605
376,8	707,89
377,2	645,976
377,7	598,662
378,2	547,519
378,6	503,748
379,1	466,548
379,5	424,519
380	384,833
380,4	361,148
380,9	330,605
381,4	305,376
381,8	283,919
382,3	263,49
382,7	251,376
383,2	236,662
383,6	219,29
384,1	201,176
384,6	189,119
385	175,919
385,5	163,29
385,9	151,462
386,4	146,319
386,8	137,405
387,3	133,319
387,7	124,433
388,2	115,748
388,7	107,776
389,1	97,005
389,6	88,233
390	83,976
390,5	78,233
390,9	73,576
391,4	65,233
391,9	64,805
392,3	66,062
392,8	65,519
393,2	62,09
393,7	59,776
394,1	56,748
394,6	61,233
395,1	60,376
395,5	57,29
396	51,348
396,4	49,548
396,9	48,548
397,3	52,405
397,8	46,348
398,2	43,633
398,7	47,033
399,2	49,49
399,6	49,948
400,1	50,548
400,5	50,49
401	57,89
401,4	61,348
401,9	60,519
402,4	64,29
402,8	63,062
403,3	63,662
403,7	62,719
404,2	62,89
404,6	59,005
405,1	59,89
405,5	62,176
406	64,376
406,5	65,805
406,9	68,605
407,4	71,005
407,8	78,262
408,3	84,776
408,7	86,319
409,2	90,976
409,6	94,319
410,1	103,033
410,6	106,348
411	112,062
411,5	120,233
411,9	132,548
412,4	143,09
412,8	156,033
413,3	163,833
413,7	178,605
414,2	191,919
414,7	198,976
415,1	209,005
415,6	220,862
416	234,719
416,5	249,033
416,9	262,176
417,4	279,433
417,8	294,348
418,3	308,862
418,8	331,062
419,2	354,462
419,7	378,976
420,1	400,548
420,6	414,433
421	444,719
421,5	468,805
421,9	494,119
422,4	519,69
422,8	543,433
423,3	575,319
423,8	606,919
424,2	634,976
424,7	667,319
425,1	702,005
425,6	735,69
426	772,462
426,5	808,605
426,9	855,748
427,4	902,233
427,9	952,633
428,3	1001,29
428,8	1049,233
429,2	1104,376
429,7	1159,719
430,1	1216,29
430,6	1278,833
431	1345,833
431,5	1413,319
431,9	1489,748
432,4	1563,005
432,8	1649,919
433,3	1735,233
433,8	1826,776
434,2	1912,605
434,7	2007,433
435,1	2109,119
435,6	2213,148
436	2317,69
436,5	2428,633
436,9	2544,976
437,4	2670,233
437,8	2796,433
438,3	2931,519
438,8	3080,29
439,2	3229,148
439,7	3386,633
440,1	3543,033
440,6	3708,633
441	3878,662
441,5	4048,348
441,9	4221,833
442,4	4398,062
442,8	4589,833
443,3	4783,748
443,7	4984,748
444,2	5194,319
444,7	5410,519
445,1	5635,148
445,6	5871,69
446	6102,833
446,5	6344,176
446,9	6592,69
447,4	6851,005
447,8	7108,976
448,3	7364,005
448,7	7626,433
449,2	7893,776
449,6	8173,176
450,1	8457,29
450,6	8743,09
451	9036,948
451,5	9347,319
451,9	9666,919
452,4	9985,805
452,8	10311,148
453,3	10623,262
453,7	10945,662
454,2	11280,119
454,6	11617,719
455,1	11956,805
455,5	12299,262
456	12647,976
456,4	13015,433
456,9	13390,233
457,3	13766,748
457,8	14142,69
458,3	14514,49
458,7	14899,262
459,2	15285,833
459,6	15676,605
460,1	16068,376
460,5	16452,005
461	16830,233
461,4	17229,462
461,9	17618,405
462,3	18006,348
462,8	18406,519
463,2	18789,576
463,7	19166,205
464,1	19556,148
464,6	19939,719
465	20335,833
465,5	20717,262
466	21113,29
466,4	21484,09
466,9	21880,09
467,3	22273,462
467,8	22647,348
468,2	23018,69
468,7	23394,69
469,1	23735,433
469,6	24116,462
470	24492,833
470,5	24842,062
470,9	25192,233
471,4	25543,09
471,8	25878,233
472,3	26216,09
472,7	26543,005
473,2	26865,776
473,6	27188,433
474,1	27510,919
474,5	27811,433
475	28119,033
475,4	28430,605
475,9	28717,033
476,4	28994,605
476,8	29275,548
477,3	29532,262
477,7	29798,519
478,2	30046,576
478,6	30277,29
479,1	30513,719
479,5	30730,49
480	30920,062
480,4	31128,376
480,9	31314,433
481,3	31492,605
481,8	31670,719
482,2	31830,776
482,7	31976,29
483,1	32144,919
483,6	32288,69
484	32412,633
484,5	32537,176
484,9	32625,633
485,4	32715,148
485,8	32795,062
486,3	32856,49
486,7	32902,033
487,2	32969,319
487,6	33005,376
488,1	33045,148
488,5	33068,119
489	33100,348
489,4	33110,719
489,9	33126,49
490,4	33098,205
490,8	33086,919
491,3	33067,948
491,7	33064,205
492,2	33002,348
492,6	32933,805
493,1	32849,548
493,5	32777,29
494	32701,548
494,4	32608,976
494,9	32476,548
495,3	32388,176
495,8	32305,776
496,2	32201,348
496,7	32087,862
497,1	31968,433
497,6	31860,748
498	31749,205
498,5	31611,062
498,9	31469,576
499,4	31333,89
499,8	31197,062
500,3	31037,033
500,7	30872,405
501,2	30710,49
501,6	30549,748
502,1	30381,89
502,5	30221,576
503	30044,576
503,4	29888,576
503,9	29692,748
504,3	29508,662
504,8	29319,605
505,2	29124,605
505,7	28922,548
506,1	28724,919
506,6	28502,09
507	28300,576
507,5	28098,376
507,9	27885,09
508,4	27668,633
508,8	27443,948
509,3	27226,462
509,7	27002,433
510,2	26774,49
510,6	26545,576
511,1	26323,119
511,5	26079,776
512	25859,348
512,4	25618,976
512,9	25379,976
513,3	25153,348
513,8	24920,262
514,2	24677,662
514,7	24457,462
515,1	24207,348
515,6	23969,033
516	23743,948
516,5	23495,919
516,9	23255,119
517,4	23025,09
517,8	22789,405
518,3	22564,205
518,7	22334,576
519,2	22093,405
519,6	21871,062
520,1	21631,89
520,5	21400,462
521	21161,776
521,4	20920,748
521,9	20688,462
522,3	20459,633
522,8	20231,062
523,2	20003,69
523,7	19780,662
524,1	19564,176
524,6	19353,176
525	19153,233
525,5	18948,662
525,9	18737,462
526,4	18523,919
526,8	18309,89
527,3	18100,662
527,7	17902,062
528,2	17686,605
528,6	17488,09
529,1	17297,376
529,5	17101,148
530	16903,205
530,4	16702,205
530,9	16496,29
531,3	16304,519
531,8	16108,119
532,2	15908,89
532,6	15728,148
533,1	15543,29
533,5	15363,176
534	15188,976
534,4	15007,633
534,9	14837,662
535,3	14674,833
535,8	14507,748
536,2	14349,005
536,7	14194,919
537,1	14027,205
537,6	13869,776
538	13706,519
538,5	13560,033
538,9	13403,462
539,4	13243,49
539,8	13095,748
540,3	12953,262
540,7	12809,948
541,2	12665,948
541,6	12518,29
542,1	12378,205
542,5	12242,662
543	12102,605
543,4	11968,205
543,9	11826,005
544,3	11691,748
544,8	11547,405
545,2	11414,405
545,7	11286,176
546,1	11154,948
546,5	11028,833
547	10915,919
547,4	10795,519
547,9	10682,433
548,3	10576,948
548,8	10466,119
549,2	10358,976
549,7	10247,062
550,1	10136,005
550,6	10027,29
551	9923,89
551,5	9810,119
551,9	9707,005
552,4	9597,976
552,8	9510,548
553,3	9406,776
553,7	9319,119
554,2	9226,348
554,6	9129,833
555,1	9031,662
555,5	8952,319
555,9	8850,662
556,4	8760,548
556,8	8662,919
557,3	8561,319
557,7	8482,205
558,2	8402,748
558,6	8314,005
559,1	8231,633
559,5	8160,776
560	8085,033
560,4	8009,433
560,9	7933,376
561,3	7854,405
561,8	7773,748
562,2	7697,205
562,7	7613,319
563,1	7536,976
563,6	7470,748
564	7396,919
564,4	7321,833
564,9	7260,89
565,3	7190,176
565,8	7134,262
566,2	7065,319
566,7	7002,205
567,1	6938,319
567,6	6880,862
568	6808,833
568,5	6748,433
568,9	6677,376
569,4	6615,833
569,8	6546,805
570,3	6481,633
570,7	6416,919
571,1	6361,005
571,6	6299,69
572	6250,919
572,5	6198,605
572,9	6142,776
573,4	6091,89
573,8	6049,833
574,3	5994,49
574,7	5944,205
575,2	5885,948
575,6	5839,948
576,1	5791,176
576,5	5743,719
576,9	5678,69
577,4	5632,862
577,8	5580,69
578,3	5534,548
578,7	5474,433
579,2	5430,262
579,6	5377,548
580,1	5341,233
580,5	5291,433
581	5250,548
581,4	5199,833
581,9	5154,948
582,3	5110,176
582,7	5069,09
583,2	5020,233
583,6	4976,576
584,1	4935,862
584,5	4898,49
585	4860,976
585,4	4812,09
585,9	4767,319
586,3	4729,862
586,8	4685,89
587,2	4648,233
587,6	4607,519
588,1	4578,548
588,5	4538,69
589	4501,519
589,4	4459,29
589,9	4424,319
590,3	4384,205
590,8	4347,119
591,2	4300,319
591,7	4273,148
592,1	4245,376
592,5	4217,919
593	4190,433
593,4	4158,576
593,9	4126,805
594,3	4100,49
594,8	4071,948
595,2	4037,662
595,7	4007,576
596,1	3979,976
596,6	3951,176
597	3926,348
597,4	3901,69
597,9	3877,405
598,3	3854,633
598,8	3826,233
599,2	3794,776
599,7	3777,862
600,1	3752,833
600,6	3729,89
601	3700,348
601,4	3670,805
601,9	3643,89
602,3	3620,662
602,8	3586,233
603,2	3555,119
603,7	3517,176
604,1	3488,09
604,6	3465,176
605	3443,833
605,4	3417,033
605,9	3390,405
606,3	3370,233
606,8	3350,376
607,2	3329,919
607,7	3300,976
608,1	3272,605
608,6	3253,548
609	3237,805
609,4	3213,033
609,9	3195,005
610,3	3177,576
610,8	3164,719
611,2	3148,09
611,7	3119,69
612,1	3090,548
612,6	3069,776
613	3040,49
613,4	3013,576
613,9	2992,633
614,3	2973,319
614,8	2956,862
615,2	2939,776
615,7	2921,033
616,1	2900,833
616,6	2883,233
617	2855,405
617,4	2826,462
617,9	2806,462
618,3	2783,833
618,8	2766,548
619,2	2753,919
619,7	2730,89
620,1	2711,49
620,5	2692,948
621	2675,176
621,4	2657,119
621,9	2631,49
622,3	2612,176
622,8	2594,319
623,2	2579,205
623,6	2561,69
624,1	2543,433
624,5	2522,89
625	2502,09
625,4	2484,948
625,9	2466,09
626,3	2455,005
626,8	2442,833
627,2	2419,176
627,6	2405,176
628,1	2387,805
628,5	2365,376
629	2348,976
629,4	2324,119
629,9	2298,005
630,3	2283,805
630,7	2264,405
631,2	2252,89
631,6	2233,09
632,1	2216,862
632,5	2202,433
633	2191,805
633,4	2176,348
633,8	2164,033
634,3	2143,548
634,7	2133,69
635,2	2121,833
635,6	2103,462
636,1	2086,148
636,5	2069,462
636,9	2047,576
637,4	2035,519
637,8	2018,405
638,3	2002,748
638,7	1983,119
639,2	1974,519
639,6	1963,662
640	1956,005
640,5	1938,548
640,9	1929,805
641,4	1919,748
641,8	1909,005
642,2	1892,89
642,7	1878,29
643,1	1863,519
643,6	1860,519
644	1852,433
644,5	1836,662
644,9	1827,662
645,3	1817,69
645,8	1807,605
646,2	1798,405
646,7	1778,033
647,1	1754,29
647,6	1743,119
648	1732,033
648,4	1719,719
648,9	1705,09
649,3	1692,462
649,8	1684,376
650,2	1678,605
650,6	1663,89
651,1	1648,89
651,5	1635,49
652	1629,005
652,4	1618,005
652,9	1609,719
653,3	1590,833
653,7	1582,919
654,2	1575,005
654,6	1565,548
655,1	1551,033
655,5	1538,89
655,9	1520,319
656,4	1516,405
656,8	1511,433
657,3	1498,348
657,7	1485,548
658,2	1480,176
658,6	1468,719
659	1464,776
659,5	1453,948
659,9	1436,376
660,4	1428,062
660,8	1416,348
661,2	1399,376
661,7	1389,605
662,1	1378,833
662,6	1373,262
663	1361,633
663,4	1351,462
663,9	1342,976
664,3	1330,033
664,8	1322,062
665,2	1313,233
665,6	1296,433
666,1	1286,176
666,5	1277,833
667	1268,548
667,4	1272,719
667,9	1262,548
668,3	1248,262
668,7	1236,548
669,2	1229,462
669,6	1220,062
670,1	1212,662
670,5	1195,548
670,9	1187,319
671,4	1180,148
671,8	1175,49
672,3	1167,662
672,7	1160,49
673,1	1151,662
673,6	1145,862
674	1134,948
674,5	1130,176
674,9	1125,862
675,3	1117,148
675,8	1107,09
676,2	1094,09
676,7	1085,205
677,1	1076,69
677,5	1066,719
678	1056,262
678,4	1052,119
678,9	1041,976
679,3	1042,176
679,7	1030,89
680,2	1025,29
680,6	1019,376
681,1	1011,633
681,5	1004,405
681,9	998,119
682,4	986,948
682,8	982,462
683,3	975,605
683,7	966,605
684,1	961,49
684,6	948,576
685	941,748
685,5	927,862
685,9	922,262
686,3	918,262
686,8	910,976
687,2	902,319
687,7	896,776
688,1	892,776
688,5	890,833
689	886,976
689,4	879,062
689,9	875,576
690,3	868,119
690,7	864,833
691,2	858,176
691,6	851,49
692	840,605
692,5	832,976
692,9	827,148
693,4	822,319
693,8	817,976
694,2	809,49
694,7	802,69
695,1	802,776
695,6	798,176
696	790,976
696,4	788,833
696,9	780,662
697,3	782,033
697,8	780,262
698,2	765,948
698,6	761,033
699,1	759,548
699,5	751,633
699,9	742,948
700,4	731,605
700,8	727,89
701,3	725,776
701,7	718,033
702,1	709,205
702,6	702,405
703	700,49
703,5	697,89
703,9	694,919
704,3	690,948
704,8	688,033
705,2	682,805
705,6	681,205
706,1	673,833
706,5	669,719
707	666,862
707,4	665,062
707,8	661,005
708,3	655,662
708,7	651,633
709,2	647,233
709,6	647,148
710	637,319
710,5	632,805
710,9	628,862
711,3	622,29
711,8	611,748
712,2	611,605
712,7	595,805
713,1	588,548
713,5	583,748
714	575,748
714,4	571,033
714,8	571,376
715,3	566,376
715,7	568,576
716,2	570,776
716,6	563,89
717	561,205
717,5	559,348
717,9	552,548
718,3	550,69
718,8	547,376
719,2	542,719
719,7	538,233
720,1	531,633
720,5	530,605
721	528,176
721,4	520,09
721,8	514,462
722,3	508,919
722,7	505,748
723,2	509,376
723,6	509,119
724	503,948
724,5	502,862
724,9	500,148
725,3	492,69
725,8	489,148
726,2	479,176
726,7	466,205
727,1	462,633
727,5	456,976
728	447,49
728,4	449,948
728,8	446,462
729,3	444,49
729,7	447,29
730,1	445,576
730,6	441,862
731	442,776
731,5	442,748
731,9	438,033
732,3	436,633
732,8	428,89
733,2	428,433
733,6	428,005
734,1	424,548
734,5	416,748
734,9	411,662
735,4	405,662
735,8	403,433
736,3	395,948
736,7	391,119
737,1	390,662
737,6	384,862
738	391,633
738,4	392,29
738,9	392,376
739,3	394,662
739,7	397,005
740,2	393,576
740,6	397,062
741,1	389,29
741,5	384,062
741,9	377,376
742,4	375,233
742,8	371,862
743,2	368,948
743,7	364,833
744,1	365,176
744,5	364,29
745	366,062
745,4	362,433
745,8	357,976
746,3	354,09
746,7	349,919
747,2	341,49
747,6	345,205
748	345,005
748,5	344,662
748,9	341,033
749,3	341,89
749,8	337,919
750,2	336,462
750,6	326,748
751,1	320,976
751,5	316,262
751,9	313,062
752,4	317,748
752,8	319,548
753,3	317,976
753,7	317,89
754,1	319,633
754,6	311,776
755	308,662
755,4	302,005
755,9	298,548
756,3	300,89
756,7	298,919
757,2	293,462
757,6	297,69
758	295,176
758,5	288,519
758,9	285,033
759,3	281,376
759,8	276,348
760,2	275,233
760,6	276,348
761,1	279,233
761,5	277,005
761,9	274,405
762,4	275,69
762,8	278,376
763,3	280,09
763,7	276,348
764,1	270,319
764,6	270,548
765	270,09
765,4	267,262
765,9	265,605
766,3	264,176
766,7	265,49
767,2	262,89
767,6	264,89
768	260,49
768,5	256,69
768,9	251,89
769,3	246,205
769,8	237,09
770,2	237,119
770,6	231,233
771,1	232,633
771,5	232,005
771,9	232,662
772,4	229,005
772,8	230,09
773,2	235,633
773,7	236,605
774,1	241,662
774,5	238,89
775	236,433
775,4	236,005
775,8	235,805
776,3	229,348
776,7	226,09
777,1	218,176
777,6	212,833
778	210,348
778,4	213,29
778,9	210,576
779,3	210,805
779,7	208,69
780,2	210,262
780,6	218,148
781	216,976
781,5	214,805
781,9	214,89
782,3	212,719
782,8	216,862
783,2	211,376
783,6	205,548
784,1	206,748
784,5	205,919
784,9	206,09
785,4	203,976
785,8	194,548
786,2	194,148
786,7	188,576
787,1	192,719
787,5	191,833
788	185,662
788,4	188,862
788,8	190,148
789,3	191,862
789,7	199,09
790,1	193,062
790,6	190,29
791	187,748
791,4	185,405
791,9	183,433
792,3	181,119
792,7	176,605
793,2	176,805
793,6	174,862
794	178,605
794,5	173,89
794,9	177,005
795,3	174,776
795,8	177,348
796,2	168,433
796,6	166,205
797,1	164,462
797,5	161,519
797,9	158,919
798,4	153,548
798,8	147,805
799,2	156,548
799,7	155,033
800,1	153,976
800,5	158,148
801	160,633
801,4	166,29
801,8	165,719
802,2	162,262
802,7	164,29
803,1	166,062
803,5	160,462
804	155,119
804,4	151,29
804,8	149,605
805,3	144,576
805,7	141,833
806,1	136,176
806,6	139,633
807	138,49
807,4	137,119
807,9	137,919
808,3	141,433
808,7	144,062
809,2	144,833
809,6	143,576
810	143,662
810,4	147,976
810,9	149,89
811,3	148,662
811,7	142,119
812,2	138,119
812,6	136,205
813	135,348
813,5	129,748
813,9	127,062
814,3	124,262
814,8	125,576
815,2	128,348
815,6	124,576
816,1	124,033
816,5	126,605
816,9	124,719
817,3	125,348
817,8	123,348
818,2	121,776
818,6	122,662
819,1	120,405
819,5	114,976
819,9	116,49
820,4	119,805
820,8	118,662
821,2	117,69
821,7	113,862
822,1	115,176
822,5	120,119
822,9	117,948
823,4	115,176
823,8	117,605
824,2	115,862
824,7	115,405
825,1	110,29
825,5	101,319
826	93,805
826,4	91,205
826,8	89,719
827,3	89,833
827,7	91,919
828,1	94,662
828,5	101,148
829	102,319
829,4	97,205
829,8	100,005
830,3	98,319
830,7	96,719
831,1	94,719
831,6	87,919
832	87,805
832,4	90,948
832,8	84,948
833,3	84,976
833,7	80,005
834,1	82,119
834,6	83,862
835	84,633
835,4	80,119
835,8	80,719
836,3	80,062
836,7	83,148
837,1	78,462
837,6	79,005
838	76,176
838,4	75,433
838,9	75,262
839,3	77,233
839,7	76,89
840,1	82,433
840,6	82,69
841	81,319
841,4	80,548
841,9	79,919
842,3	77,605
842,7	75,433
843,1	72,262
843,6	70,005
844	71,69
844,4	75,433
844,9	74,862
845,3	72,09
845,7	72,462
846,2	75,062
846,6	75,776
847	77,776
847,4	81,176
847,9	79,576
848,3	76,605
848,7	74,919
849,2	72,519
849,6	71,319
850	69,376
850,4	62,89
850,9	64,233
851,3	71,719
851,7	71,633
852,2	69,433
852,6	70,176
853	71,69
853,4	70,49
853,9	66,976
854,3	67,062
854,7	71,69
855,2	72,062
855,6	68,805
856	68,89
856,4	67,633
856,9	68,605
857,3	62,405
857,7	62,576
858,2	59,662
858,6	57,062
859	55,433
859,4	57,319
859,9	58,69
860,3	62,005
860,7	56,69
861,1	59,89
861,6	64,433
862	67,662
862,4	64,862
862,9	63,805
863,3	58,633
863,7	58,919
864,1	51,405
864,6	53,148
865	49,233
865,4	46,462
865,9	46,776
866,3	51,376
866,7	46,148
867,1	47,662
867,6	46,633
868	42,205
868,4	47,919
868,8	47,919
869,3	48,805
869,7	56,576
870,1	62,09
870,6	57,605
871	102,319
871,4	99,262
871,8	100,062
872,3	95,89
872,7	88,005
873,1	80,119
873,5	79,862
874	42,062
874,4	43,862
874,8	41,719
875,3	39,033
875,7	42,719
876,1	47,433
876,5	50,405
877	44,833
877,4	43,605
877,8	40,062
878,2	44,805
878,7	43,205
879,1	42,376
879,5	40,29
879,9	38,405
880,4	35,49
880,8	36,548
881,2	31,519
881,7	33,719
882,1	31,576
882,5	30,519
882,9	29,205
883,4	30,948
883,8	32,69
884,2	34,919
884,6	33,748
885,1	33,005
885,5	31,805
885,9	34,919
886,3	35,948
886,8	38,09
887,2	36,319
887,6	36,319
888	38,262
888,5	41,605
888,9	35,69
889,3	30,805
889,8	29,348
890,2	27,976
890,6	28,776
891	31,005
891,5	27,119
891,9	29,948
892,3	34,49
892,7	29,005
893,2	30,662
893,6	26,433
894	24,348
894,4	23,29
894,9	26,09
895,3	25,148
895,7	27,605
896,1	27,89
896,6	30,862
897	33,405
897,4	35,376
897,8	39,29
898,3	41,519
898,7	40,062
899,1	41,605
899,5	41,062
900	37,748
900,4	39,348
900,8	30,319
901,2	24,233
901,7	25,748
902,1	23,433
902,5	23,205
902,9	23,376
903,4	23,176
903,8	26,633
904,2	31,919
904,6	33,576
905,1	32,548
905,5	31,633
905,9	30,005
906,3	27,833
906,8	27,719
907,2	24,633
907,6	23,548
908	24,49
908,5	20,862
908,9	23,148
909,3	24,319
909,7	22,833
910,2	21,49
910,6	21,719
911	22,205
911,4	24,033
911,9	22,776
912,3	23,405
912,7	26,69
913,1	25,69
913,6	26,662
914	28,719
914,4	32,748
914,8	31,49
915,3	29,49
915,7	26,862
916,1	29,205
916,5	23,576
916,9	19,776
917,4	15,948
917,8	18,605
918,2	22,576
918,6	20,148
919,1	17,976
919,5	21,119
919,9	20,29
920,3	24,262
920,8	22,69
921,2	16,548
921,6	18,433
922	14,605
922,5	13,319
922,9	18,005
923,3	15,805
923,7	13,319
924,2	17,09
924,6	13,519
925	19,148
925,4	20,29
925,8	17,662
926,3	15,348
926,7	14,69
927,1	12,033
927,5	18,748
928	17,233
928,4	13,548
928,8	13,29
929,2	16,919
929,7	21,119
930,1	26,376
930,5	24,148
930,9	25,776
931,3	33,69
931,8	35,233
932,2	34,405
932,6	31,605
933	23,862
933,5	24,633
933,9	27,09
934,3	19,262
934,7	19,148
935,2	18,748
935,6	15,005
936	14,719
936,4	14,148
936,8	12,948
937,3	16,576
937,7	16,119
938,1	16,148
938,5	17,719
939	18,89
939,4	18,148
939,8	16,405
940,2	17,548
940,6	15,205
941,1	15,433
941,5	21,719
941,9	25,548
942,3	25,405
942,8	25,49
943,2	15,319
943,6	16,119
944	11,405
944,4	9,176
944,9	5,176
945,3	5,462
945,7	4,662
946,1	11,605
946,6	9,662
947	12,919
947,4	7,005
947,8	10,976
948,2	13,09
948,7	13,862
949,1	17,605
949,5	17,09
949,9	19,548
950,3	19,719
950,8	16,09
951,2	13,49
951,6	13,776
952	10,976
952,5	9,89
952,9	6,29
953,3	9,062
953,7	5,233
954,1	4,69
954,6	4,09
955	4,09
955,4	4,776
955,8	8,462
956,2	4,976
956,7	10,29
957,1	12,319
957,5	14,405
957,9	14,376
958,3	20,09
958,8	21,29
959,2	27,576
959,6	31,748
960	29,805
960,5	23,862
960,9	27,833
961,3	20,605
961,7	19,805
962,1	20,033
962,6	16,319
963	19,29
963,4	22,89
963,8	16,433
964,2	16,805
964,7	10,49
965,1	9,805
965,5	12,033
965,9	8,548
966,3	10,89
966,8	15,748
967,2	19,748
967,6	22,148
968	18,862
968,4	18,605
968,9	19,176
969,3	17,862
969,7	15,719
970,1	11,633
970,5	13,119
971	18,233
971,4	16,89
971,8	16,405
972,2	14,319
972,6	15,719
973,1	18,405
973,5	19,062
973,9	14,348
974,3	14,719
974,7	15,49
975,2	17,948
975,6	15,09
976	16,719
976,4	13,576
976,8	15,976
977,3	12,033
977,7	9,976
978,1	11,405
978,5	14,605
978,9	15,148
979,4	15,948
979,8	12,69
980,2	12,376
980,6	15,605
981	9,976
981,5	5,633
981,9	5,662
982,3	4,462
982,7	4,09
983,1	7,948
983,6	6,09
984	10,462
984,4	9,49
984,8	7,748
985,2	14,205
985,6	14,576
986,1	9,319
986,5	12,805
986,9	8,376
987,3	8,033
987,7	7,519
988,2	2,776
988,6	1,976
989	5,233
989,4	0,262
989,8	3,29
990,3	6,405
990,7	4,576
991,1	1,862
991,5	5,462
991,9	3,376
992,3	2,262
992,8	1,148
993,2	2,948
993,6	3,49
994	6,205
994,4	10,89
994,9	11,433
995,3	15,548
995,7	14,776
996,1	10,719
996,5	10,29
996,9	14,205
997,4	6,005
997,8	7,148
998,2	6,319
998,6	6,119
999	5,776
999,5	9,976
999,9	4,519
1000,3	5,262
1000,7	10,69
1001,1	10,548
1001,5	12,233
1002	16,376
1002,4	14,09
1002,8	17,805
1003,2	15,776
1003,6	9,033
1004	13,89
1004,5	12,776
1004,9	10,176
1005,3	6,462
1005,7	6,09
1006,1	6,29
1006,6	8,233
1007	-0,567
1007,4	2,633
1007,8	4,862
1008,2	7,862
1008,6	7,89
1009,1	10,948
1009,5	11,148
1009,9	15,176
1010,3	15,89
1010,7	15,862
1011,1	18,548
1011,6	12,005
1012	11,576
1012,4	13,176
1012,8	11,548
1013,2	8,033
1013,6	8,519
1014,1	3,633
1014,5	8,948
1014,9	6,862
1015,3	7,262
1015,7	6,662
1016,1	7,319
1016,6	6,405
1017	8,69
1017,4	7,005
1017,8	12,005
1018,2	7,948
1018,6	10,833
1019,1	11,205
1019,5	8,805
1019,9	8,262
1020,3	6,833
1020,7	4,376
1021,1	3,148
1021,6	2,176
1022	3,005
1022,4	0,89
1022,8	2,062
1023,2	4,89
1023,6	5,233
1024,1	13,833
1024,5	16,948
1024,9	19,319
1025,3	26,376
1025,7	27,548
1026,1	26,862
1026,6	29,233
1027	22,605
1027,4	17,262
1027,8	11,833
1028,2	8,29
1028,6	6,748
1029	1,89
1029,5	-1,081
1029,9	0,833
1030,3	0,405
1030,7	2,319
1031,1	7,205
1031,5	9,062
1032	14,576
1032,4	20,719
1032,8	18,348
1033,2	14,548
1033,6	14,405
1034	9,605
1034,4	5,748
1034,9	8,548
1035,3	7,319
1035,7	4,119
1036,1	16,748
1036,5	15,49
1036,9	19,005
1037,4	21,919
1037,8	15,176
1038,2	12,862
1038,6	19,719
1039	16,148
1039,4	20,119
1039,8	20,69
1040,3	21,176
1040,7	25,09
1041,1	19,148
1041,5	17,548
1041,9	18,976
1042,3	18,119
1042,7	13,062
1043,2	10,49
1043,6	14,662
1044	20,719
1044,4	24,662
1044,8	22,09
1045,2	18,662
1045,6	22,062
1046,1	26,348
1046,5	21,062
1046,9	22,862
1047,3	19,176
1047,7	16,433
1048,1	14,09
1048,5	10,633
1049	8,005
1049,4	8,176
1049,8	5,633
1050,2	8,176
1050,6	10,205
1051	18,148
1051,4	18,776
1051,9	17,576
1052,3	17,376
1052,7	13,976
1053,1	7,605
1053,5	2,205
1053,9	0,919
1054,3	-5,367
1054,8	-1,995
1055,2	-1,024
1055,6	3,148
1056	10,548
1056,4	13,805
1056,8	11,576
1057,2	16,205
1057,6	17,405
1058,1	21,605
1058,5	17,376
1058,9	11,062
1059,3	10,605
1059,7	9,376
1060,1	12,376
1060,5	7,69
1061	-2,281
1061,4	-1,767
1061,8	1,462
1062,2	4,462
1062,6	2,548
1063	-0,167
1063,4	4,748
1063,8	7,29
1064,3	13,89
1064,7	16,748
1065,1	17,69
1065,5	18,862
1065,9	19,633
1066,3	14,148
1066,7	19,405
1067,1	14,519
1067,6	13,09
1068	12,433
1068,4	16,005
1068,8	16,976
1069,2	21,662
1069,6	16,748
1070	20,148
1070,4	19,176
1070,9	21,348
1071,3	20,89
1071,7	17,862
1072,1	12,776
1072,5	18,09
1072,9	13,605
1073,3	10,89
1073,7	7,719
1074,2	5,376
1074,6	7,062
1075	12,033
1075,4	14,233
1075,8	14,748
1076,2	17,176
1076,6	16,49
1077	23,233
1077,5	26,719
1077,9	21,462
1078,3	15,148
1078,7	15,405
1079,1	18,89
1079,5	21,119
1079,9	20,49
1080,3	16,719
1080,7	21,948
1081,2	24,148
1081,6	21,976
1082	22,605
1082,4	20,348
1082,8	17,519
1083,2	15,748
1083,6	14,348
1084	11,148
1084,5	12,69
1084,9	5,719
1085,3	2,719
1085,7	3,833
1086,1	9,433
1086,5	6,948
1086,9	9,919
1087,3	13,833
1087,7	18,605
1088,2	23,176
1088,6	19,605
1089	14,719
1089,4	18,348
1089,8	18,519
1090,2	14,09
1090,6	10,205
1091	4,433
1091,4	5,976
1091,9	6,062
1092,3	4,433
1092,7	0,948
1093,1	2,005
1093,5	2,719
1093,9	7,148
1094,3	5,376
1094,7	6,062
1095,1	6,633
1095,5	8,833
1096	8,662
1096,4	9,348
1096,8	10,633
1097,2	8,462
1097,6	12,49
1098	12,605
1098,4	16,319
1098,8	18,205
1099,2	16,548
1099,6	16,548
1100,1	20,09
1100,5	15,633
1100,9	13,09
1101,3	10,09
1101,7	7,062
1102,1	10,605
1102,5	7,233
1102,9	4,576
1103,3	9,062
1103,7	10,233
1104,2	8,348
1104,6	11,348
1105	9,005
1105,4	12,405
1105,8	12,833
1106,2	8,833
1106,6	7,148
1107	7,49
1107,4	5,133
1107,8	4,113
1108,3	0,683
