Data from Subt2_00056.txt Node
Date: Mon Aug 28 13:23:56 MSK 2023
User: vat
Spectrometer: MAYP114033
Trigger mode: 0
Integration Time (sec): 1,000000E0
Scans to average: 5
Electric dark correction enabled: true
Nonlinearity correction enabled: false
Boxcar width: 3
XAxis mode: Wavelengths
Number of Pixels in Spectrum: 2068
>>>>>Begin Spectral Data<<<<<
199,4	-0,95
199,9	-6,06
200,4	-3,767
200,8	-0,957
201,3	0,586
201,8	4,586
202,2	4,614
202,7	3,1
203,2	8,414
203,6	8,357
204,1	4,729
204,6	7,5
205	4,729
205,5	6,214
206	8,129
206,4	5,186
206,9	8,786
207,4	8,329
207,8	5,9
208,3	6,243
208,8	1,786
209,2	3,957
209,7	4,9
210,2	0,586
210,6	1,671
211,1	4,5
211,5	1,9
212	7,643
212,5	2,814
212,9	0,643
213,4	2,757
213,9	0,357
214,3	2,329
214,8	5,186
215,3	3,186
215,7	4,271
216,2	8,014
216,7	8,557
217,1	8,157
217,6	3,3
218,1	0,986
218,5	5,271
219	7,643
219,5	6,871
219,9	-1,186
220,4	7,757
220,9	5,786
221,3	4,271
221,8	1,443
222,3	2,757
222,7	8,071
223,2	9,1
223,6	1,871
224,1	5,786
224,6	10,186
225	7,014
225,5	2,814
226	-3,557
226,4	3,014
226,9	4,757
227,4	9,329
227,8	7,529
228,3	8,529
228,8	9,043
229,2	14,729
229,7	13,957
230,2	16,043
230,6	6,157
231,1	3,814
231,5	6,271
232	6,643
232,5	1,614
232,9	1,586
233,4	0,357
233,9	5,7
234,3	12,043
234,8	9,843
235,3	13,043
235,7	12,986
236,2	7,557
236,7	3,329
237,1	-0,243
237,6	-5,357
238,1	-5,043
238,5	-6,614
239	-4,386
239,4	1,929
239,9	4,957
240,4	4,443
240,8	10,214
241,3	10,271
241,8	7,871
242,2	3,929
242,7	0,557
243,2	5,329
243,6	11,614
244,1	3,986
244,6	-0,157
245	0,129
245,5	5,671
245,9	10,186
246,4	5,243
246,9	0,586
247,3	3,014
247,8	6,1
248,3	8,1
248,7	3,986
249,2	2,729
249,7	5,5
250,1	1,871
250,6	0,3
251	2,014
251,5	-0,729
252	-3,443
252,4	-5,5
252,9	-4,471
253,4	-1,614
253,8	-0,729
254,3	-2,414
254,8	6,271
255,2	6,7
255,7	2,043
256,1	-1,671
256,6	-2,586
257,1	2,1
257,5	-0,1
258	-9,9
258,5	-6,129
258,9	-2,129
259,4	-1,586
259,9	-5,043
260,3	-10,5
260,8	-9,557
261,2	-5,386
261,7	-5,329
262,2	-4,843
262,6	-1,757
263,1	0,414
263,6	-2,9
264	1,014
264,5	2,9
264,9	1,786
265,4	2,071
265,9	-0,386
266,3	0,757
266,8	7,214
267,3	3,357
267,7	-0,3
268,2	-1,386
268,7	-0,157
269,1	-4,386
269,6	-0,3
270	-4,7
270,5	-0,986
271	-1,271
271,4	-3,214
271,9	-7,3
272,4	-2,129
272,8	-2,386
273,3	-0,557
273,7	-2,986
274,2	-2,186
274,7	0,386
275,1	1,729
275,6	2,871
276,1	-3,186
276,5	-0,986
277	1,5
277,4	3,786
277,9	1,043
278,4	-1,5
278,8	-4,7
279,3	-1,129
279,8	-0,7
280,2	-0,414
280,7	-1,957
281,1	0,957
281,6	6,843
282,1	4,1
282,5	5,814
283	4,557
283,4	4,729
283,9	5,271
284,4	2,129
284,8	-0,7
285,3	3,043
285,8	4,243
286,2	1,529
286,7	1,586
287,1	-0,386
287,6	3,386
288,1	4,586
288,5	3,729
289	0,414
289,5	6,929
289,9	5,386
290,4	5,3
290,8	6,871
291,3	6,986
291,8	5,929
292,2	9,243
292,7	0,071
293,1	-1,414
293,6	-2,329
294,1	-1,529
294,5	-1,929
295	-2,471
295,5	-7,386
295,9	-0,643
296,4	-4,843
296,8	-1,1
297,3	-1,5
297,8	2,129
298,2	3,7
298,7	5,529
299,1	4,614
299,6	11,157
300,1	13,243
300,5	8,243
301	7,843
301,5	5,557
301,9	4,557
302,4	1,186
302,8	-0,1
303,3	-0,357
303,8	6,071
304,2	0,7
304,7	2,757
305,1	2,614
305,6	5,386
306,1	4,786
306,5	-1,986
307	-2,757
307,4	0,614
307,9	-0,129
308,4	3,214
308,8	4,414
309,3	4,443
309,8	8,129
310,2	3,329
310,7	3,386
311,1	3,986
311,6	0,271
312,1	-3,329
312,5	-5,529
313	-4,386
313,4	-1,357
313,9	-6,557
314,4	-6,871
314,8	-0,071
315,3	2,614
315,7	6,5
316,2	4,157
316,7	2,929
317,1	6,871
317,6	7,529
318	2,643
318,5	2,443
319	0,729
319,4	4,214
319,9	1,729
320,3	1,014
320,8	-1,271
321,3	-4,9
321,7	-3,529
322,2	-6,157
322,6	-5,243
323,1	-3,329
323,6	-5,643
324	-2,529
324,5	2,357
324,9	5,186
325,4	9,9
325,9	7,386
326,3	9,929
326,8	11,729
327,2	12,243
327,7	10,729
328,2	8,529
328,6	10,1
329,1	4,529
329,5	2,729
330	4,357
330,5	6,386
330,9	4,729
331,4	1,186
331,8	-5,5
332,3	1,9
332,8	-0,757
333,2	-1,329
333,7	-7,329
334,1	-9,157
334,6	-8,814
335,1	-2,071
335,5	-5,643
336	-2,986
336,4	-1,386
336,9	1,071
337,4	2,443
337,8	3,443
338,3	0,271
338,7	1,157
339,2	-1,871
339,7	-6,129
340,1	-7,5
340,6	-4,786
341	-3,814
341,5	-4,671
342	-9,157
342,4	-7,9
342,9	-0,9
343,3	1,014
343,8	2,7
344,2	1,843
344,7	2,786
345,2	7,443
345,6	10,929
346,1	7,1
346,5	6,814
347	-0,5
347,5	0,014
347,9	-1,214
348,4	0,357
348,8	0,443
349,3	-1,3
349,8	0,586
350,2	7,014
350,7	4,957
351,1	6,957
351,6	3,186
352	5,843
352,5	9,957
353	16,129
353,4	21,9
353,9	35,214
354,3	48,1
354,8	61,786
355,3	74,729
355,7	91,957
356,2	106,814
356,6	123,3
357,1	139,1
357,5	155,757
358	186,471
358,5	210,757
358,9	245,1
359,4	280,1
359,8	324,729
360,3	372,729
360,8	432,9
361,2	492,329
361,7	566,129
362,1	636,814
362,6	717,729
363	805,929
363,5	901,271
364	992,186
364,4	1084,586
364,9	1177,586
365,3	1270,271
365,8	1366,357
366,3	1445,3
366,7	1511,243
367,2	1570,871
367,6	1620,214
368,1	1651,671
368,5	1674,014
369	1678,814
369,5	1672,214
369,9	1660,9
370,4	1627,929
370,8	1580,786
371,3	1531,214
371,7	1471,014
372,2	1396,214
372,7	1323,386
373,1	1242,471
373,6	1170,3
374	1096,843
374,5	1018,614
374,9	941,7
375,4	873,614
375,9	807,729
376,3	743,214
376,8	680,071
377,2	626,986
377,7	579,043
378,2	535,529
378,6	493,814
379,1	447,186
379,5	410,443
380	379,929
380,4	345,471
380,9	313,214
381,4	289,757
381,8	266,014
382,3	251,529
382,7	233,929
383,2	215,214
383,6	205,243
384,1	193,843
384,6	176,471
385	166,1
385,5	155,9
385,9	145,586
386,4	138,157
386,8	126,9
387,3	118,9
387,7	110,014
388,2	103,843
388,7	95,214
389,1	90,3
389,6	82,071
390	76,214
390,5	70,557
390,9	66,929
391,4	60,757
391,9	53,471
392,3	52,929
392,8	48,843
393,2	48,471
393,7	48,5
394,1	46,3
394,6	46,414
395,1	51,757
395,5	49,271
396	47,843
396,4	41,814
396,9	41,986
397,3	43,843
397,8	37,843
398,2	29,757
398,7	21,357
399,2	21,186
399,6	24,986
400,1	20,871
400,5	19,671
401	24,871
401,4	21,357
401,9	23,671
402,4	23,443
402,8	24,014
403,3	24,186
403,7	22,386
404,2	18,129
404,6	24,671
405,1	31,043
405,5	34,786
406	37,614
406,5	36,986
406,9	41,386
407,4	42,186
407,8	43,929
408,3	42,557
408,7	40,071
409,2	33,814
409,6	39,586
410,1	38,271
410,6	38,843
411	39,557
411,5	37,386
411,9	38,271
412,4	47,586
412,8	45,271
413,3	44,043
413,7	47,014
414,2	47,214
414,7	50,9
415,1	55,329
415,6	53,014
416	57,357
416,5	66,586
416,9	75,3
417,4	80,7
417,8	83,614
418,3	86,386
418,8	91,271
419,2	91,814
419,7	91,386
420,1	82,814
420,6	92,014
421	95,071
421,5	99,3
421,9	95,7
422,4	99,129
422,8	98,957
423,3	104,529
423,8	94,043
424,2	94,471
424,7	95,671
425,1	96,5
425,6	95,414
426	97,1
426,5	98,7
426,9	103,643
427,4	105,186
427,9	103,243
428,3	106,1
428,8	106,986
429,2	108,786
429,7	111,5
430,1	109,414
430,6	107,5
431	108,671
431,5	112,386
431,9	116,643
432,4	116,471
432,8	123,3
433,3	129,186
433,8	135,186
434,2	137,271
434,7	137,014
435,1	148,157
435,6	146,929
436	146,071
436,5	154,071
436,9	162,1
437,4	170,243
437,8	179,843
438,3	185,871
438,8	200,557
439,2	209,243
439,7	215,929
440,1	221,843
440,6	231,814
441	240,1
441,5	244,529
441,9	252,986
442,4	263,1
442,8	272,643
443,3	284,671
443,7	290,529
444,2	300,414
444,7	312,871
445,1	330,443
445,6	346,671
446	363,329
446,5	377,643
446,9	400,129
447,4	418,671
447,8	436,9
448,3	452,014
448,7	467,843
449,2	484,671
449,6	509,786
450,1	528,929
450,6	555,071
451	575,729
451,5	601,814
451,9	626,014
452,4	645,7
452,8	662,014
453,3	687,471
453,7	709,671
454,2	730,471
454,6	751,357
455,1	778,243
455,5	809,929
456	842,071
456,4	869,014
456,9	897,929
457,3	930,214
457,8	961,757
458,3	989,3
458,7	1022,786
459,2	1053,443
459,6	1085,071
460,1	1116,157
460,5	1149,414
461	1186,014
461,4	1223,329
461,9	1254,043
462,3	1289,529
462,8	1324,614
463,2	1360,043
463,7	1400,471
464,1	1434,643
464,6	1468,357
465	1506,357
465,5	1547,1
466	1593,329
466,4	1637,071
466,9	1674,814
467,3	1713,471
467,8	1761,3
468,2	1802,843
468,7	1843,271
469,1	1883,014
469,6	1919,157
470	1961,414
470,5	2006,7
470,9	2047,214
471,4	2095,471
471,8	2134,3
472,3	2169,557
472,7	2215,957
473,2	2259,386
473,6	2295,729
474,1	2336,557
474,5	2369,9
475	2414,529
475,4	2461,5
475,9	2501,186
476,4	2541,186
476,8	2588,043
477,3	2632,557
477,7	2678,414
478,2	2722,186
478,6	2760,929
479,1	2805,3
479,5	2850,243
480	2894,071
480,4	2928,157
480,9	2964,643
481,3	2999,3
481,8	3041,843
482,2	3081,271
482,7	3117,243
483,1	3147,186
483,6	3185,586
484	3222,871
484,5	3259,243
484,9	3283,186
485,4	3307,443
485,8	3333,071
486,3	3358,3
486,7	3387,071
487,2	3415,9
487,6	3440,957
488,1	3467,957
488,5	3490,443
489	3519,757
489,4	3553,643
489,9	3572,814
490,4	3592,443
490,8	3614,929
491,3	3640,271
491,7	3673,357
492,2	3695,271
492,6	3715,529
493,1	3735,9
493,5	3758,443
494	3784,214
494,4	3799,843
494,9	3818,214
495,3	3828,414
495,8	3848,043
496,2	3867,786
496,7	3884,9
497,1	3892,243
497,6	3913,357
498	3920,014
498,5	3936,843
498,9	3947,214
499,4	3958,586
499,8	3972,7
500,3	3989,671
500,7	4000,957
501,2	4015,614
501,6	4026,529
502,1	4034,986
502,5	4046,329
503	4052,986
503,4	4059,443
503,9	4068,014
504,3	4076,471
504,8	4090,014
505,2	4106,471
505,7	4117,186
506,1	4125,843
506,6	4128,871
507	4138,7
507,5	4144,3
507,9	4151,9
508,4	4158,129
508,8	4162,557
509,3	4173,386
509,7	4186,643
510,2	4191,643
510,6	4200,586
511,1	4207,757
511,5	4211,071
512	4219,071
512,4	4224,243
512,9	4228,929
513,3	4237,129
513,8	4251,757
514,2	4253,957
514,7	4261,357
515,1	4267,271
515,6	4268,414
516	4273,557
516,5	4278,7
516,9	4284,271
517,4	4291,729
517,8	4296,871
518,3	4307,471
518,7	4320,986
519,2	4334,471
519,6	4334,386
520,1	4338,957
520,5	4342,643
521	4344,957
521,4	4349,643
521,9	4349,729
522,3	4346,157
522,8	4356,814
523,2	4354,9
523,7	4362,329
524,1	4366,586
524,6	4370,471
525	4378,357
525,5	4384,929
525,9	4395,186
526,4	4409,129
526,8	4418,871
527,3	4431,157
527,7	4439,471
528,2	4451,529
528,6	4468,414
529,1	4477,157
529,5	4482,957
530	4494,414
530,4	4507,529
530,9	4517,643
531,3	4527,929
531,8	4525,329
532,2	4534,214
532,6	4541,814
533,1	4538,386
533,5	4538,814
534	4542,5
534,4	4545,157
534,9	4565,986
535,3	4572,214
535,8	4587,7
536,2	4609,157
536,7	4620,614
537,1	4638,014
537,6	4658,443
538	4667,757
538,5	4676,957
538,9	4679,529
539,4	4689,443
539,8	4705,243
540,3	4710,271
540,7	4711,271
541,2	4719,786
541,6	4731,186
542,1	4741,1
542,5	4744,614
543	4748,586
543,4	4764,471
543,9	4770,157
544,3	4780,843
544,8	4791,471
545,2	4802,329
545,7	4818,786
546,1	4828,271
546,5	4831,586
547	4848,1
547,4	4853,557
547,9	4863,329
548,3	4877,386
548,8	4876,157
549,2	4890,643
549,7	4899,757
550,1	4910,014
550,6	4921,871
551	4931,843
551,5	4926,471
551,9	4939,1
552,4	4944,929
552,8	4956,129
553,3	4962,357
553,7	4970,843
554,2	4983,643
554,6	5002,9
555,1	5011,043
555,5	5017,586
555,9	5026,986
556,4	5038,3
556,8	5049,586
557,3	5049,814
557,7	5055,129
558,2	5072,7
558,6	5085,414
559,1	5092,443
559,5	5097,757
560	5103,386
560,4	5113,9
560,9	5120,643
561,3	5121,243
561,8	5127,329
562,2	5138,7
562,7	5140,671
563,1	5148,957
563,6	5157,157
564	5166,329
564,4	5177,414
564,9	5180,014
565,3	5182,929
565,8	5192,329
566,2	5189,871
566,7	5189,1
567,1	5193,529
567,6	5193,386
568	5196,357
568,5	5195,357
568,9	5200,757
569,4	5210,729
569,8	5213,814
570,3	5219,986
570,7	5222,471
571,1	5226,157
571,6	5231,614
572	5224,157
572,5	5214,986
572,9	5220,386
573,4	5214,871
573,8	5222,586
574,3	5221,014
574,7	5217,157
575,2	5216,329
575,6	5227,071
576,1	5224,329
576,5	5228,071
576,9	5220,814
577,4	5216,929
577,8	5216,614
578,3	5218,929
578,7	5210,443
579,2	5204,843
579,6	5197,3
580,1	5198,443
580,5	5202,357
581	5196,186
581,4	5195,757
581,9	5184,329
582,3	5176,729
582,7	5170,3
583,2	5151,3
583,6	5136,014
584,1	5128,014
584,5	5116,414
585	5112,729
585,4	5105,1
585,9	5097,643
586,3	5090,357
586,8	5083,586
587,2	5077,786
587,6	5068,557
588,1	5062,386
588,5	5051,443
589	5042,843
589,4	5037,986
589,9	5030,9
590,3	5018,814
590,8	5010,729
591,2	5007,157
591,7	5005,557
592,1	5000,957
592,5	4994,757
593	4984,357
593,4	4979,3
593,9	4972,929
594,3	4965,471
594,8	4964,471
595,2	4956,186
595,7	4945,929
596,1	4942,9
596,6	4936,157
597	4924,757
597,4	4916,386
597,9	4902,471
598,3	4894,043
598,8	4886,329
599,2	4883,586
599,7	4875,329
600,1	4868,043
600,6	4857,443
601	4850,671
601,4	4842,414
601,9	4830,329
602,3	4808,357
602,8	4791,5
603,2	4779,614
603,7	4764,929
604,1	4745,586
604,6	4734,186
605	4731,557
605,4	4723,586
605,9	4716,329
606,3	4706,414
606,8	4696,157
607,2	4679,929
607,7	4661,843
608,1	4646,329
608,6	4630,157
609	4616,786
609,4	4599,3
609,9	4584,986
610,3	4574,243
610,8	4559,843
611,2	4537,557
611,7	4526,843
612,1	4506,9
612,6	4496,129
613	4475,986
613,4	4462,5
613,9	4451,386
614,3	4438,814
614,8	4421,557
615,2	4409,071
615,7	4390,014
616,1	4384,357
616,6	4372,071
617	4348,814
617,4	4326,557
617,9	4305,957
618,3	4289,329
618,8	4272,757
619,2	4251,5
619,7	4233,386
620,1	4218,786
620,5	4205,843
621	4193,1
621,4	4176,3
621,9	4162,471
622,3	4144,186
622,8	4117,5
623,2	4096,814
623,6	4076,386
624,1	4054,1
624,5	4033,271
625	4011,529
625,4	3988,557
625,9	3979,614
626,3	3965,843
626,8	3952,414
627,2	3938,443
627,6	3921,357
628,1	3904,271
628,5	3884,186
629	3859,557
629,4	3837,643
629,9	3818,414
630,3	3798,3
630,7	3775,5
631,2	3756,186
631,6	3738,957
632,1	3721,871
632,5	3701,7
633	3675,357
633,4	3653,186
633,8	3634,357
634,3	3610,129
634,7	3597,9
635,2	3578,071
635,6	3568,957
636,1	3554,443
636,5	3537,614
636,9	3522,129
637,4	3513,529
637,8	3491,643
638,3	3472,614
638,7	3450,671
639,2	3430,071
639,6	3410,071
640	3392,843
640,5	3369,929
640,9	3350,757
641,4	3332,271
641,8	3314,729
642,2	3302,157
642,7	3286,271
643,1	3272,929
643,6	3260,7
644	3246,1
644,5	3234,071
644,9	3215,071
645,3	3204,757
645,8	3186,957
646,2	3166,129
646,7	3142,9
647,1	3122,214
647,6	3103,7
648	3084,586
648,4	3063,386
648,9	3049,129
649,3	3039,757
649,8	3026,071
650,2	3020,1
650,6	3009,014
651,1	2994,1
651,5	2971,729
652	2957,443
652,4	2931,957
652,9	2916,929
653,3	2897,1
653,7	2881,843
654,2	2868,014
654,6	2854,814
655,1	2837,014
655,5	2828,786
655,9	2815,986
656,4	2799,986
656,8	2777,614
657,3	2762,271
657,7	2750,643
658,2	2738,671
658,6	2723,329
659	2702,329
659,5	2684,071
659,9	2669,443
660,4	2650,9
660,8	2634,471
661,2	2616,3
661,7	2599,157
662,1	2592,5
662,6	2576,1
663	2561,157
663,4	2550,043
663,9	2533,586
664,3	2519,957
664,8	2496,157
665,2	2469,414
665,6	2454,529
666,1	2440,043
666,5	2422,186
667	2408,271
667,4	2390,471
667,9	2379,243
668,3	2368,757
668,7	2355,843
669,2	2338,586
669,6	2319,929
670,1	2302,986
670,5	2285,414
670,9	2271,071
671,4	2254,329
671,8	2234,014
672,3	2223,014
672,7	2209,7
673,1	2194,671
673,6	2177,043
674	2162,957
674,5	2146,357
674,9	2133,986
675,3	2114,614
675,8	2104,7
676,2	2085,843
676,7	2077,3
677,1	2067,414
677,5	2055,9
678	2045,157
678,4	2035,386
678,9	2018,186
679,3	2011,5
679,7	2000,729
680,2	1985,671
680,6	1979,671
681,1	1966,214
681,5	1951,043
681,9	1941,671
682,4	1931,443
682,8	1918,243
683,3	1905,414
683,7	1890,1
684,1	1872,043
684,6	1858,986
685	1844,386
685,5	1826,643
685,9	1813,843
686,3	1796,1
686,8	1783,5
687,2	1777,1
687,7	1764,014
688,1	1747,1
688,5	1740,186
689	1727,186
689,4	1724,1
689,9	1714,957
690,3	1707,186
690,7	1698,443
691,2	1687,186
691,6	1677,386
692	1669,9
692,5	1655,757
692,9	1636,443
693,4	1617,1
693,8	1608,929
694,2	1602,643
694,7	1585,729
695,1	1574,129
695,6	1561,843
696	1555,414
696,4	1551,557
696,9	1537,671
697,3	1526,471
697,8	1518,786
698,2	1500,357
698,6	1487,471
699,1	1484,871
699,5	1469,071
699,9	1464,529
700,4	1454,214
700,8	1438,5
701,3	1434,529
701,7	1426,471
702,1	1410,614
702,6	1406,186
703	1393,043
703,5	1383,357
703,9	1377,871
704,3	1364,786
704,8	1359,129
705,2	1348,5
705,6	1336,414
706,1	1323,9
706,5	1316,843
707	1309,614
707,4	1308,157
707,8	1288,386
708,3	1279,186
708,7	1271,243
709,2	1270,129
709,6	1256,043
710	1249,5
710,5	1241,357
710,9	1247,043
711,3	1235,043
711,8	1221,929
712,2	1207,043
712,7	1205,814
713,1	1194,9
713,5	1180,671
714	1169,786
714,4	1165,7
714,8	1157,386
715,3	1148,843
715,7	1133,9
716,2	1124,671
716,6	1118,329
717	1103,957
717,5	1092,9
717,9	1084,471
718,3	1078,729
718,8	1077,729
719,2	1069,271
719,7	1061,443
720,1	1060,014
720,5	1050,814
721	1042,586
721,4	1031,786
721,8	1022,414
722,3	1014,214
722,7	1007,386
723,2	995,5
723,6	989,643
724	978,129
724,5	967,614
724,9	959,729
725,3	956,3
725,8	946,729
726,2	934,7
726,7	929,329
727,1	925,014
727,5	920,471
728	909,786
728,4	898,757
728,8	890,414
729,3	887,071
729,7	881,186
730,1	878,357
730,6	871,871
731	869,157
731,5	862,386
731,9	862,186
732,3	857,757
732,8	853,643
733,2	850,014
733,6	850,671
734,1	844,157
734,5	842,786
734,9	830,386
735,4	827,529
735,8	817,586
736,3	814,871
736,7	804,643
737,1	802,071
737,6	798,443
738	798,271
738,4	792,1
738,9	789,843
739,3	781,586
739,7	774,814
740,2	772,757
740,6	766,929
741,1	758,843
741,5	753,871
741,9	747,557
742,4	745,3
742,8	745,957
743,2	739,986
743,7	732,386
744,1	732,271
744,5	730,1
745	721,671
745,4	712,9
745,8	707,243
746,3	700,1
746,7	695,414
747,2	690,7
747,6	683,386
748	684,3
748,5	679,271
748,9	668,329
749,3	658,757
749,8	658,271
750,2	648,729
750,6	643,614
751,1	642,843
751,5	639,786
751,9	641,986
752,4	641,643
752,8	631,014
753,3	630,471
753,7	624,786
754,1	614,443
754,6	612,529
755	605,843
755,4	605,443
755,9	603,643
756,3	599,157
756,7	599,329
757,2	597,1
757,6	591,929
758	590,643
758,5	582,214
758,9	578,186
759,3	568,3
759,8	560,186
760,2	549,386
760,6	545,243
761,1	533,129
761,5	533,786
761,9	529,614
762,4	533,357
762,8	529,986
763,3	532,443
763,7	521,329
764,1	527,214
764,6	515,414
765	509,529
765,4	506,357
765,9	506,329
766,3	503,757
766,7	507,9
767,2	500,757
767,6	505,786
768	503,757
768,5	497,814
768,9	492,586
769,3	480,786
769,8	476,614
770,2	473,129
770,6	466,071
771,1	464,529
771,5	462,586
771,9	464,586
772,4	471,557
772,8	471,814
773,2	470,986
773,7	462,7
774,1	460,814
774,5	450,843
775	441,414
775,4	432,929
775,8	428,986
776,3	430,014
776,7	429,443
777,1	427,557
777,6	423,814
778	421,186
778,4	420,1
778,9	413,071
779,3	401,643
779,7	400,957
780,2	400,186
780,6	401,157
781	394,529
781,5	388,129
781,9	385,186
782,3	383,186
782,8	384,929
783,2	373,329
783,6	375,157
784,1	375,843
784,5	374,614
784,9	371,271
785,4	365,786
785,8	356,671
786,2	357,443
786,7	353,871
787,1	352,214
787,5	354,671
788	351,643
788,4	355,271
788,8	348,671
789,3	343,871
789,7	340,929
790,1	337,614
790,6	332,643
791	332,757
791,4	330,071
791,9	330,471
792,3	329,443
792,7	320,7
793,2	317,443
793,6	316,7
794	308,586
794,5	304,357
794,9	307,843
795,3	310,443
795,8	314,214
796,2	313,186
796,6	310,014
797,1	306,357
797,5	304,614
797,9	300,071
798,4	289,157
798,8	284,871
799,2	283,214
799,7	278,586
800,1	281,7
800,5	277,843
801	278,7
801,4	282,7
801,8	279,986
802,2	279,1
802,7	282,757
803,1	281,214
803,5	283,814
804	277,214
804,4	273,1
804,8	274,414
805,3	274,957
805,7	266,1
806,1	263,3
806,6	256,557
807	253,729
807,4	249,043
807,9	242,986
808,3	237,014
808,7	233,843
809,2	236,929
809,6	234,757
810	230,043
810,4	228,129
810,9	226,671
811,3	227,7
811,7	232,243
812,2	224,7
812,6	220,557
813	220,871
813,5	218,071
813,9	215,671
814,3	208,786
814,8	200,014
815,2	202,529
815,6	202,9
816,1	200,3
816,5	203,3
816,9	200,329
817,3	200,014
817,8	200,671
818,2	194,586
818,6	194,443
819,1	198,471
819,5	195,1
819,9	200,243
820,4	198,357
820,8	195,129
821,2	196,243
821,7	192,9
822,1	185,9
822,5	187,129
822,9	181,214
823,4	179,071
823,8	178,957
824,2	179,957
824,7	180,643
825,1	180,586
825,5	176,9
826	178,243
826,4	177,586
826,8	177,214
827,3	170,957
827,7	170,1
828,1	170,214
828,5	168,014
829	166,129
829,4	159,843
829,8	159,014
830,3	156,957
830,7	153,7
831,1	151,5
831,6	152,986
832	152,471
832,4	155,157
832,8	149,071
833,3	154,186
833,7	154,129
834,1	156,414
834,6	152,671
835	152,929
835,4	152,157
835,8	154,186
836,3	148,843
836,7	147,043
837,1	139,7
837,6	137,071
838	127,386
838,4	127,843
838,9	126,329
839,3	130,214
839,7	130,243
840,1	127,3
840,6	128,214
841	134,129
841,4	135,357
841,9	135,443
842,3	127,757
842,7	123,157
843,1	127,9
843,6	131,186
844	130,586
844,4	124,071
844,9	124,043
845,3	126,729
845,7	127,814
846,2	125,929
846,6	119,671
847	118,529
847,4	114,7
847,9	111,757
848,3	105,614
848,7	102,843
849,2	99,586
849,6	96,071
850	92,586
850,4	92,871
850,9	91,671
851,3	93,357
851,7	90,614
852,2	94,014
852,6	95,129
853	91,929
853,4	93,243
853,9	93,014
854,3	92,957
854,7	96,014
855,2	95,986
855,6	93,843
856	96,243
856,4	97,3
856,9	95,386
857,3	92,471
857,7	92,129
858,2	83,414
858,6	83,014
859	77,3
859,4	75,186
859,9	77,814
860,3	78,186
860,7	74,7
861,1	78,214
861,6	81,614
862	83,214
862,4	82,586
862,9	80,757
863,3	79,586
863,7	83,843
864,1	82,557
864,6	80,614
865	83,671
865,4	81,271
865,9	82,186
866,3	84,1
866,7	84,614
867,1	85,529
867,6	84,757
868	86,557
868,4	89,471
868,8	86,729
869,3	90,586
869,7	88,929
870,1	89,157
870,6	79,757
871	68,214
871,4	66,929
871,8	64,614
872,3	56,129
872,7	53,9
873,1	50,643
873,5	58,071
874	59,757
874,4	54,043
874,8	59,014
875,3	62,271
875,7	60,729
876,1	58,071
876,5	52,929
877	55,157
877,4	58,329
877,8	54,529
878,2	51,843
878,7	55,014
879,1	55,871
879,5	57,986
879,9	58,186
880,4	61,471
880,8	59,357
881,2	59,157
881,7	51,614
882,1	52,9
882,5	56,557
882,9	56,357
883,4	50,729
883,8	51,3
884,2	48,186
884,6	53,071
885,1	53,014
885,5	52,9
885,9	53,043
886,3	53,471
886,8	53,9
887,2	51,7
887,6	45,643
888	44,071
888,5	42,871
888,9	44,243
889,3	46,729
889,8	48,3
890,2	49,3
890,6	51,5
891	49,757
891,5	50,071
891,9	45,014
892,3	45,586
892,7	43,929
893,2	48,186
893,6	50,643
894	51,929
894,4	47,1
894,9	48,014
895,3	42,357
895,7	40,271
896,1	34,471
896,6	36,271
897	33,843
897,4	35,5
897,8	35,3
898,3	41,786
898,7	40,043
899,1	44,443
899,5	37,386
900	38,871
900,4	40,786
900,8	38,957
901,2	35,529
901,7	35,1
902,1	35,757
902,5	36,757
902,9	32,043
903,4	24,557
903,8	27,671
904,2	23,986
904,6	24,071
905,1	23,529
905,5	25,471
905,9	24,271
906,3	26,443
906,8	23,443
907,2	22,129
907,6	26,1
908	22,271
908,5	22,786
908,9	28,586
909,3	30,243
909,7	29,843
910,2	33,729
910,6	28,357
911	28,071
911,4	22,214
911,9	21,043
912,3	16,729
912,7	14,586
913,1	12,071
913,6	8,271
914	12,7
914,4	13,843
914,8	14,671
915,3	18,586
915,7	24,386
916,1	25,986
916,5	30,614
916,9	23,986
917,4	24,014
917,8	20,986
918,2	19,757
918,6	17,814
919,1	17,5
919,5	15,014
919,9	20,529
920,3	19,471
920,8	24,3
921,2	23,271
921,6	23,7
922	25,157
922,5	26,3
922,9	24,986
923,3	29,957
923,7	27,529
924,2	28,5
924,6	27,329
925	27,7
925,4	31,871
925,8	30,643
926,3	30,786
926,7	31,157
927,1	31,7
927,5	37,5
928	31,043
928,4	31,129
928,8	29,129
929,2	25,157
929,7	26,357
930,1	27,129
930,5	21,329
930,9	22,586
931,3	18,071
931,8	18,871
932,2	23,729
932,6	19,5
933	17,443
933,5	19,786
933,9	18,3
934,3	23,586
934,7	22,729
935,2	24,014
935,6	25,929
936	22,271
936,4	24,043
936,8	25,443
937,3	19,614
937,7	19,471
938,1	7,271
938,5	8,014
939	12,271
939,4	4,643
939,8	8,7
940,2	6,329
940,6	4,471
941,1	11,614
941,5	12,843
941,9	14,871
942,3	14,243
942,8	9,871
943,2	14,071
943,6	19,243
944	13,814
944,4	13,957
944,9	11,471
945,3	10,871
945,7	10,014
946,1	9,871
946,6	8,614
947	15,614
947,4	8,729
947,8	8,357
948,2	11,071
948,7	8,414
949,1	7,871
949,5	5,5
949,9	2,071
950,3	4,7
950,8	5,757
951,2	3,1
951,6	7,729
952	6,529
952,5	4,986
952,9	2,786
953,3	4,243
953,7	7,014
954,1	8,414
954,6	7,129
955	7,529
955,4	13,929
955,8	18,7
956,2	21,843
956,7	17,671
957,1	12,986
957,5	13,3
957,9	12,329
958,3	4,357
958,8	0,957
959,2	-5,1
959,6	-6,7
960	0,643
960,5	-0,786
960,9	3,357
961,3	3,843
961,7	3,157
962,1	5,357
962,6	7,443
963	5,929
963,4	7,786
963,8	5,357
964,2	8,443
964,7	10,529
965,1	7,986
965,5	3,7
965,9	2,214
966,3	-1,614
966,8	-2,071
967,2	-6,386
967,6	-5,671
968	-3,871
968,4	1,729
968,9	2,1
969,3	5,671
969,7	6,986
970,1	6,443
970,5	3,471
971	-0,786
971,4	-4,529
971,8	-6,071
972,2	-2,871
972,6	-3,614
973,1	1,3
973,5	0,414
973,9	2,957
974,3	5,7
974,7	5,557
975,2	3,671
975,6	1,5
976	-0,014
976,4	-0,243
976,8	-1,786
977,3	-3,443
977,7	1,414
978,1	-0,557
978,5	-0,443
978,9	-2,471
979,4	5,271
979,8	9,643
980,2	10,214
980,6	7,243
981	10,386
981,5	10,643
981,9	10,643
982,3	7,186
982,7	2,043
983,1	-0,214
983,6	3,529
984	-1,671
984,4	-1,129
984,8	3,729
985,2	2,7
985,6	7,871
986,1	8,586
986,5	4,786
986,9	7,7
987,3	5,729
987,7	3,671
988,2	1,929
988,6	0,129
989	1,757
989,4	5,357
989,8	3,586
990,3	5,9
990,7	9,414
991,1	14,129
991,5	14,814
991,9	10,1
992,3	2,871
992,8	0,157
993,2	-0,071
993,6	-3,414
994	-9,014
994,4	-5,9
994,9	-1,586
995,3	10,929
995,7	14,329
996,1	13,043
996,5	8,786
996,9	8,129
997,4	2,014
997,8	7,586
998,2	0,357
998,6	3,3
999	5,043
999,5	8,3
999,9	12,471
1000,3	14,071
1000,7	10,757
1001,1	6,586
1001,5	6,329
1002	4,929
1002,4	4,243
1002,8	2,043
1003,2	2,271
1003,6	3,071
1004	6,014
1004,5	2,814
1004,9	3,357
1005,3	8,071
1005,7	6,329
1006,1	8,214
1006,6	2,1
1007	-0,1
1007,4	-2,157
1007,8	1,9
1008,2	-0,471
1008,6	0,871
1009,1	1,014
1009,5	3,157
1009,9	4,329
1010,3	7,443
1010,7	5,443
1011,1	6,843
1011,6	10,129
1012	11,614
1012,4	13,929
1012,8	18,043
1013,2	16,671
1013,6	13,671
1014,1	7,9
1014,5	6,014
1014,9	2,929
1015,3	1,014
1015,7	-0,5
1016,1	-5,9
1016,6	-5,757
1017	-0,929
1017,4	-3,329
1017,8	-7,471
1018,2	-8,129
1018,6	-10,3
1019,1	-8,043
1019,5	-7,986
1019,9	-5,614
1020,3	-2,757
1020,7	5,929
1021,1	7,243
1021,6	6,814
1022	12,7
1022,4	15,414
1022,8	13,043
1023,2	9,443
1023,6	2,414
1024,1	3,957
1024,5	1,357
1024,9	-0,929
1025,3	-1,671
1025,7	-3,7
1026,1	1,5
1026,6	6,814
1027	4,243
1027,4	12,271
1027,8	9,929
1028,2	4,814
1028,6	4,186
1029	-0,129
1029,5	-6,329
1029,9	-4,386
1030,3	-6,786
1030,7	-0,9
1031,1	1,157
1031,5	4,214
1032	3,871
1032,4	7,529
1032,8	4,414
1033,2	4,129
1033,6	1,129
1034	6,786
1034,4	3,614
1034,9	8,471
1035,3	9,729
1035,7	9,386
1036,1	6,443
1036,5	7,586
1036,9	7,329
1037,4	11,071
1037,8	9,929
1038,2	11,414
1038,6	11,357
1039	11,1
1039,4	7,729
1039,8	2,5
1040,3	3,443
1040,7	3,843
1041,1	-0,443
1041,5	3,471
1041,9	3,329
1042,3	3,329
1042,7	2,043
1043,2	-1,843
1043,6	-1,871
1044	0,529
1044,4	-0,529
1044,8	3,471
1045,2	5,157
1045,6	6,386
1046,1	5,529
1046,5	1,957
1046,9	2,386
1047,3	1,9
1047,7	-0,071
1048,1	-0,186
1048,5	4,843
1049	10,671
1049,4	12,786
1049,8	11,586
1050,2	9,671
1050,6	6,186
1051	3,557
1051,4	0,557
1051,9	-7,414
1052,3	-7,271
1052,7	-4,757
1053,1	-4,471
1053,5	-3,414
1053,9	2,7
1054,3	-2,186
1054,8	3,5
1055,2	0,471
1055,6	-1,814
1056	-2,471
1056,4	-0,3
1056,8	-1,357
1057,2	4,5
1057,6	5,9
1058,1	9,7
1058,5	6,471
1058,9	8,214
1059,3	11,957
1059,7	8,671
1060,1	7,186
1060,5	1,843
1061	-3,129
1061,4	3,357
1061,8	2,214
1062,2	-0,557
1062,6	1,157
1063	3,043
1063,4	4,043
1063,8	7,071
1064,3	4,157
1064,7	8,614
1065,1	7,329
1065,5	8,243
1065,9	6,071
1066,3	8,271
1066,7	5,986
1067,1	2,014
1067,6	-0,986
1068	0,214
1068,4	-3,271
1068,8	-8,186
1069,2	-7,214
1069,6	-9,043
1070	-1,414
1070,4	1,614
1070,9	-1,586
1071,3	7,3
1071,7	14,1
1072,1	9,071
1072,5	15,071
1072,9	7,329
1073,3	7,243
1073,7	11,529
1074,2	5,5
1074,6	6,243
1075	7,614
1075,4	6,729
1075,8	15,7
1076,2	12,3
1076,6	14,5
1077	12,986
1077,5	8,929
1077,9	8,471
1078,3	7,1
1078,7	-2,643
1079,1	-0,271
1079,5	-6,414
1079,9	-2,986
1080,3	-2,843
1080,7	-0,329
1081,2	1,5
1081,6	2,871
1082	2,414
1082,4	3,929
1082,8	1,471
1083,2	6,386
1083,6	2,757
1084	1,871
1084,5	8,214
1084,9	4,357
1085,3	3,7
1085,7	4,814
1086,1	1,729
1086,5	5,014
1086,9	3,329
1087,3	-3,471
1087,7	-4,043
1088,2	-2,5
1088,6	-4,014
1089	-5,5
1089,4	-7,586
1089,8	-9,014
1090,2	-7,986
1090,6	-3,214
1091	-3,529
1091,4	-1,871
1091,9	-1,186
1092,3	-0,1
1092,7	4,671
1093,1	5,414
1093,5	3,5
1093,9	1,729
1094,3	-0,3
1094,7	4,071
1095,1	4,843
1095,5	-1,3
1096	2,786
1096,4	0,471
1096,8	1,386
1097,2	0,957
1097,6	1,5
1098	1,757
1098,4	3,5
1098,8	-2,3
1099,2	0,614
1099,6	1,9
1100,1	3,043
1100,5	-0,786
1100,9	-0,386
1101,3	0,186
1101,7	-0,529
1102,1	0,729
1102,5	-4,986
1102,9	-8,243
1103,3	-8,586
1103,7	-8,9
1104,2	-6,871
1104,6	-1,157
1105	-0,357
1105,4	3,443
1105,8	6,529
1106,2	6,214
1106,6	4,843
1107	4,443
1107,4	2,767
1107,8	-0,46
1108,3	0,25
