Data from Subt2_00065.txt Node
Date: Mon Aug 28 13:26:11 MSK 2023
User: vat
Spectrometer: MAYP114033
Trigger mode: 0
Integration Time (sec): 1,000000E0
Scans to average: 5
Electric dark correction enabled: true
Nonlinearity correction enabled: false
Boxcar width: 3
XAxis mode: Wavelengths
Number of Pixels in Spectrum: 2068
>>>>>Begin Spectral Data<<<<<
199,4	-1,35
199,9	-5,38
200,4	-4,4
200,8	-0,957
201,3	-1,271
201,8	0,557
202,2	1,043
202,7	0,671
203,2	7,671
203,6	7,243
204,1	3,757
204,6	3,386
205	0,757
205,5	0,043
206	-1,043
206,4	-6,186
206,9	-1,129
207,4	-2,3
207,8	-1,471
208,3	0,729
208,8	-0,9
209,2	3,443
209,7	5,529
210,2	3,386
210,6	6,186
211,1	7,529
211,5	6,729
212	11,5
212,5	9,557
212,9	7,471
213,4	6,871
213,9	4,471
214,3	3,671
214,8	6,557
215,3	2,014
215,7	5,1
216,2	5,471
216,7	7,157
217,1	9,414
217,6	9,243
218,1	7,186
218,5	8,757
219	6,643
219,5	10,986
219,9	5,157
220,4	9,271
220,9	7,386
221,3	8,557
221,8	10,271
222,3	11,643
222,7	9,729
223,2	11,214
223,6	3,786
224,1	12,843
224,6	15,386
225	12,214
225,5	9,529
226	7,557
226,4	11,329
226,9	13,129
227,4	8,443
227,8	0,471
228,3	0,3
228,8	1,3
229,2	6,014
229,7	4,443
230,2	10,929
230,6	6,729
231,1	13,014
231,5	18,786
232	19,471
232,5	14,786
232,9	16,7
233,4	16,757
233,9	20,329
234,3	19,1
234,8	19,614
235,3	21,671
235,7	22,5
236,2	19,9
236,7	11,329
237,1	13,386
237,6	12,129
238,1	9,871
238,5	6,357
239	5,814
239,4	8,243
239,9	12,614
240,4	6,443
240,8	8,071
241,3	2,214
241,8	2,157
242,2	-3,271
242,7	-6,1
243,2	-3,871
243,6	0,871
244,1	-1,129
244,6	-0,214
245	-2,9
245,5	3,871
245,9	7,586
246,4	5,014
246,9	5,157
247,3	7,757
247,8	9,814
248,3	16,671
248,7	15,9
249,2	11,729
249,7	13,986
250,1	8,614
250,6	4,643
251	3,214
251,5	-0,329
252	-2,1
252,4	-0,271
252,9	-1,129
253,4	1,186
253,8	4,3
254,3	5,814
254,8	8,043
255,2	7,643
255,7	6,7
256,1	4,329
256,6	7,329
257,1	5,071
257,5	2,871
258	-3,814
258,5	-0,9
258,9	-2,329
259,4	-2,157
259,9	-10,529
260,3	-11,986
260,8	-11,586
261,2	-4,786
261,7	-5,186
262,2	-2,786
262,6	-1,643
263,1	4,214
263,6	1,471
264	5,014
264,5	2,443
264,9	3,471
265,4	3,186
265,9	2,414
266,3	-3,243
266,8	4,586
267,3	7,329
267,7	6,643
268,2	5,214
268,7	4,671
269,1	-0,214
269,6	7,586
270	3,329
270,5	2,814
271	-0,214
271,4	-6,414
271,9	-9,757
272,4	-5,757
272,8	-6,357
273,3	-6,386
273,7	-11,7
274,2	-8,757
274,7	-0,9
275,1	1,014
275,6	4,414
276,1	0,414
276,5	0,357
277	0,9
277,4	2,871
277,9	-3,3
278,4	-3,386
278,8	-7,729
279,3	-4,7
279,8	-4,271
280,2	-2,557
280,7	-4,386
281,1	-0,157
281,6	-1,129
282,1	0,843
282,5	3,186
283	3,814
283,4	2,643
283,9	2,929
284,4	3,271
284,8	2,243
285,3	1,386
285,8	-0,671
286,2	-2,9
286,7	-0,329
287,1	-3,414
287,6	-4,986
288,1	-1,471
288,5	-1,386
289	-7,7
289,5	-5,843
289,9	-8,271
290,4	-6,329
290,8	-5,271
291,3	-3,386
291,8	-2,357
292,2	5,214
292,7	2,7
293,1	4,929
293,6	1,357
294,1	2,757
294,5	2,386
295	0,586
295,5	-0,243
295,9	3,414
296,4	2,357
296,8	7,443
297,3	7,1
297,8	7,557
298,2	6,557
298,7	5,1
299,1	4,643
299,6	5,329
300,1	6,071
300,5	4,5
301	1,243
301,5	5,129
301,9	5,643
302,4	4,7
302,8	3,614
303,3	7,471
303,8	10,729
304,2	11,814
304,7	7,129
305,1	4,757
305,6	3,643
306,1	-0,071
306,5	-6,9
307	-10,043
307,4	-12,929
307,9	-11,1
308,4	-8,471
308,8	-5,586
309,3	0,986
309,8	-0,243
310,2	-1,129
310,7	0,757
311,1	3,243
311,6	3,071
312,1	2,814
312,5	-2,643
313	2,471
313,4	5,614
313,9	2,814
314,4	2,586
314,8	5,443
315,3	7,729
315,7	9,443
316,2	5,129
316,7	3,929
317,1	6,5
317,6	4,786
318	4,557
318,5	2,871
319	7,986
319,4	12,557
319,9	10,9
320,3	15,9
320,8	13,386
321,3	9,129
321,7	9,871
322,2	2,186
322,6	2,157
323,1	3,014
323,6	3,5
324	5,9
324,5	7,757
324,9	7,471
325,4	8,071
325,9	7,957
326,3	8,9
326,8	3,243
327,2	2,471
327,7	2,786
328,2	5,986
328,6	11,357
329,1	3,214
329,5	3,957
330	5,843
330,5	9,186
330,9	7,014
331,4	3,471
331,8	-0,9
332,3	6,157
332,8	4,9
333,2	5,386
333,7	2,129
334,1	-0,7
334,6	-4,643
335,1	-1,471
335,5	-3,129
336	0,357
336,4	-0,871
336,9	2,357
337,4	5,586
337,8	9,929
338,3	7,671
338,7	8,329
339,2	2,957
339,7	3,586
340,1	-1,843
340,6	-0,529
341	-2,871
341,5	-0,986
342	-1,729
342,4	-2,386
342,9	-0,271
343,3	1,986
343,8	5,643
344,2	7,814
344,7	6,5
345,2	6,214
345,6	10,586
346,1	7,786
346,5	11,471
347	3,414
347,5	3,443
347,9	0,729
348,4	0,7
348,8	-0,643
349,3	-3,586
349,8	-5,843
350,2	-2,671
350,7	-2,071
351,1	2,471
351,6	3,3
352	4,471
352,5	11,3
353	13,586
353,4	21,614
353,9	30,614
354,3	42,157
354,8	48,1
355,3	61,443
355,7	75,043
356,2	92,957
356,6	108,157
357,1	123,386
357,5	140,586
358	174,386
358,5	198,957
358,9	230,929
359,4	266,843
359,8	308,271
360,3	354,3
360,8	406,9
361,2	463,157
361,7	531,7
362,1	601,3
362,6	677,586
363	760,671
363,5	850,443
364	941,157
364,4	1035,614
364,9	1124,557
365,3	1220,757
365,8	1316,843
366,3	1394,271
366,7	1462,671
367,2	1532,414
367,6	1588,7
368,1	1630,814
368,5	1653,214
369	1657,129
369,5	1659,414
369,9	1649,843
370,4	1618,071
370,8	1572,586
371,3	1528,786
371,7	1474,014
372,2	1412,929
372,7	1347,9
373,1	1281,3
373,6	1208,186
374	1135,5
374,5	1057,671
374,9	983,871
375,4	914,357
375,9	853,1
376,3	781,271
376,8	720,214
377,2	667,529
377,7	611,843
378,2	563,586
378,6	519,586
379,1	467,786
379,5	428,614
380	393,214
380,4	353,986
380,9	327,386
381,4	294,929
381,8	266,986
382,3	245,671
382,7	230,271
383,2	210,586
383,6	200,414
384,1	187,357
384,6	176,929
385	166,843
385,5	157,729
385,9	147,243
386,4	143,1
386,8	130,786
387,3	123,1
387,7	117,814
388,2	109,843
388,7	103,5
389,1	95,1
389,6	85,157
390	80,157
390,5	73,871
390,9	65,757
391,4	61,386
391,9	57,643
392,3	58,157
392,8	54,957
393,2	52,9
393,7	51,3
394,1	53,271
394,6	52,671
395,1	53,5
395,5	49,729
396	48,214
396,4	44,471
396,9	44,871
397,3	44,471
397,8	40,786
398,2	35,3
398,7	32,329
399,2	36,186
399,6	34,757
400,1	27,557
400,5	26,157
401	28,471
401,4	24,357
401,9	31,871
402,4	22,357
402,8	29,986
403,3	35,757
403,7	38,443
404,2	38,757
404,6	42,7
405,1	39,9
405,5	49,014
406	47,129
406,5	44,643
406,9	44,671
407,4	41,986
407,8	42,9
408,3	38,929
408,7	36,671
409,2	32,129
409,6	34,043
410,1	29,1
410,6	27,529
411	29,786
411,5	31,043
411,9	28,671
412,4	36,529
412,8	37,7
413,3	39,729
413,7	46,186
414,2	46,071
414,7	49,186
415,1	58,471
415,6	56,843
416	60,843
416,5	69,729
416,9	73,986
417,4	77,357
417,8	82,043
418,3	80,957
418,8	84,443
419,2	86,471
419,7	86,557
420,1	84,986
420,6	91,3
421	95,243
421,5	100,814
421,9	101,186
422,4	100,986
422,8	101,271
423,3	106,043
423,8	100,7
424,2	100,071
424,7	98,586
425,1	97,443
425,6	97,1
426	98,243
426,5	97,643
426,9	102,043
427,4	104,386
427,9	108,757
428,3	112,443
428,8	112,986
429,2	115,814
429,7	117,414
430,1	118,329
430,6	112,1
431	110,043
431,5	109,386
431,9	114,9
432,4	113,471
432,8	116,7
433,3	119,557
433,8	126,814
434,2	129,814
434,7	133,9
435,1	138,757
435,6	142,586
436	144,929
436,5	148,214
436,9	156,214
437,4	162,7
437,8	171,014
438,3	180,414
438,8	189,071
439,2	197,986
439,7	205,957
440,1	210,757
440,6	218,443
441	224,186
441,5	226,271
441,9	233,986
442,4	243,3
442,8	255,671
443,3	267,271
443,7	272,471
444,2	285,243
444,7	301,443
445,1	318,386
445,6	332,586
446	347,614
446,5	362,014
446,9	385,3
447,4	403,5
447,8	420,186
448,3	431,214
448,7	447,757
449,2	464,786
449,6	482,443
450,1	495,043
450,6	516,014
451	532,214
451,5	558,386
451,9	579,071
452,4	598,214
452,8	622,357
453,3	646,786
453,7	664,071
454,2	684,814
454,6	708,014
455,1	730,1
455,5	754,214
456	782,014
456,4	810,729
456,9	841,786
457,3	875,814
457,8	897,271
458,3	924,471
458,7	957,214
459,2	985,386
459,6	1017,529
460,1	1047,471
460,5	1077,071
461	1115,957
461,4	1154,214
461,9	1182,414
462,3	1216,243
462,8	1249,129
463,2	1286,957
463,7	1322,7
464,1	1356,443
464,6	1391,671
465	1428,929
465,5	1464,986
466	1501,471
466,4	1537,129
466,9	1574,071
467,3	1611,3
467,8	1647,357
468,2	1688,557
468,7	1731,357
469,1	1771,557
469,6	1806,757
470	1851,271
470,5	1896,271
470,9	1937,957
471,4	1979,757
471,8	2017,043
472,3	2054,214
472,7	2099,014
473,2	2133,643
473,6	2170,929
474,1	2211,7
474,5	2250,129
475	2287,929
475,4	2326,243
475,9	2360,157
476,4	2403,414
476,8	2443,671
477,3	2479,729
477,7	2515,157
478,2	2554,786
478,6	2593,843
479,1	2639,471
479,5	2674,986
480	2711,814
480,4	2749,757
480,9	2791,071
481,3	2825,529
481,8	2858,5
482,2	2889,671
482,7	2922,643
483,1	2947,986
483,6	2986,043
484	3013,414
484,5	3046,957
484,9	3084,9
485,4	3113,186
485,8	3146,7
486,3	3178,614
486,7	3203,986
487,2	3239,757
487,6	3264,414
488,1	3288,929
488,5	3314,329
489	3335,729
489,4	3369,214
489,9	3391,529
490,4	3411,243
490,8	3435,386
491,3	3455,671
491,7	3481,929
492,2	3499,271
492,6	3509,043
493,1	3529,157
493,5	3547,271
494	3573,443
494,4	3583,5
494,9	3596,1
495,3	3613,386
495,8	3630,157
496,2	3642,7
496,7	3658,243
497,1	3662,386
497,6	3687,986
498	3700,729
498,5	3713,614
498,9	3728,1
499,4	3743,043
499,8	3754,186
500,3	3762,071
500,7	3764,186
501,2	3778,786
501,6	3794,071
502,1	3807,557
502,5	3816,757
503	3828,157
503,4	3840,529
503,9	3857,014
504,3	3861,671
504,8	3871,471
505,2	3882,986
505,7	3891,7
506,1	3888,9
506,6	3892,557
507	3897,529
507,5	3904,729
507,9	3916,586
508,4	3913,929
508,8	3920,957
509,3	3938,529
509,7	3947,814
510,2	3952,7
510,6	3957,957
511,1	3956,757
511,5	3969,557
512	3974,043
512,4	3975,986
512,9	3986,843
513,3	3999,929
513,8	4013,357
514,2	4023,643
514,7	4021,071
515,1	4025,271
515,6	4034,3
516	4035,471
516,5	4035,1
516,9	4035,3
517,4	4037,357
517,8	4051,243
518,3	4062,729
518,7	4063,443
519,2	4069,243
519,6	4071,157
520,1	4084,614
520,5	4086,786
521	4085,757
521,4	4083,129
521,9	4088,757
522,3	4095,1
522,8	4101,871
523,2	4105,329
523,7	4109,186
524,1	4115,786
524,6	4124,186
525	4129,157
525,5	4138,071
525,9	4143,9
526,4	4142,843
526,8	4152,557
527,3	4165,757
527,7	4173,9
528,2	4186,386
528,6	4195,957
529,1	4208,843
529,5	4224,043
530	4228,9
530,4	4237,586
530,9	4249,157
531,3	4263,671
531,8	4264,014
532,2	4274,271
532,6	4274,957
533,1	4279,357
533,5	4279,843
534	4276,786
534,4	4272,443
534,9	4284,471
535,3	4297,957
535,8	4313,243
536,2	4331,129
536,7	4341,443
537,1	4357,014
537,6	4371,871
538	4382,729
538,5	4388,129
538,9	4392,071
539,4	4398,014
539,8	4408,129
540,3	4420,3
540,7	4427,214
541,2	4434,529
541,6	4434,614
542,1	4442,7
542,5	4453,957
543	4461,157
543,4	4465,671
543,9	4475,757
544,3	4489,786
544,8	4498,671
545,2	4512,357
545,7	4517,014
546,1	4530,643
546,5	4539,986
547	4552,557
547,4	4561,129
547,9	4571,814
548,3	4577,614
548,8	4586,786
549,2	4599,786
549,7	4608,529
550,1	4616,071
550,6	4622,271
551	4634,1
551,5	4645,243
551,9	4652,329
552,4	4652,871
552,8	4667,614
553,3	4675,071
553,7	4680,329
554,2	4688,414
554,6	4697,243
555,1	4714,843
555,5	4728,986
555,9	4729,729
556,4	4740,271
556,8	4752,871
557,3	4763,243
557,7	4765,757
558,2	4773,214
558,6	4775,557
559,1	4788,1
559,5	4796,414
560	4799,186
560,4	4800,557
560,9	4804,414
561,3	4805,414
561,8	4814,471
562,2	4820,014
562,7	4817,443
563,1	4825,786
563,6	4834,671
564	4844,214
564,4	4858,586
564,9	4859,586
565,3	4858,386
565,8	4865,643
566,2	4868,529
566,7	4871,1
567,1	4879,071
567,6	4873,243
568	4877,014
568,5	4886,929
568,9	4892,757
569,4	4889,357
569,8	4891,014
570,3	4889,9
570,7	4889,243
571,1	4897,614
571,6	4902,071
572	4899,529
572,5	4901,814
572,9	4902,271
573,4	4901,129
573,8	4904,9
574,3	4898,1
574,7	4890,357
575,2	4885,671
575,6	4891,814
576,1	4893,271
576,5	4899,557
576,9	4898,186
577,4	4898,643
577,8	4895,757
578,3	4897,757
578,7	4890,7
579,2	4884,071
579,6	4874,271
580,1	4871,1
580,5	4868,214
581	4863,014
581,4	4861,129
581,9	4852,986
582,3	4846,814
582,7	4833,957
583,2	4833,129
583,6	4824,9
584,1	4823,871
584,5	4807,671
585	4800,443
585,4	4795,443
585,9	4795,929
586,3	4781,157
586,8	4771,329
587,2	4761,614
587,6	4757,586
588,1	4754,157
588,5	4750,214
589	4736,786
589,4	4729,071
589,9	4726,214
590,3	4714,329
590,8	4711,871
591,2	4703,957
591,7	4692,986
592,1	4696,443
592,5	4694,871
593	4681,357
593,4	4682,014
593,9	4674,614
594,3	4668,957
594,8	4660,3
595,2	4647,786
595,7	4633,614
596,1	4628,814
596,6	4613,614
597	4603,043
597,4	4595,043
597,9	4587,929
598,3	4574,643
598,8	4563,357
599,2	4561,329
599,7	4555,7
600,1	4545,043
600,6	4530,7
601	4524,671
601,4	4520,357
601,9	4519,129
602,3	4504,186
602,8	4494,271
603,2	4492,843
603,7	4491,9
604,1	4472,814
604,6	4459,043
605	4445,586
605,4	4431,586
605,9	4416,643
606,3	4399,186
606,8	4383,1
607,2	4374,729
607,7	4368,271
608,1	4357,614
608,6	4348,129
609	4342,129
609,4	4326,729
609,9	4311,386
610,3	4301,043
610,8	4282,9
611,2	4263,1
611,7	4251,3
612,1	4232,443
612,6	4216,043
613	4198,957
613,4	4182,414
613,9	4163,7
614,3	4151,357
614,8	4131,129
615,2	4114,614
615,7	4102,1
616,1	4086,786
616,6	4073,986
617	4057,929
617,4	4041,243
617,9	4028,071
618,3	4013,043
618,8	3996,9
619,2	3986,214
619,7	3971,043
620,1	3959,386
620,5	3936,929
621	3921,757
621,4	3909,214
621,9	3893,443
622,3	3874,757
622,8	3854,186
623,2	3831,071
623,6	3813,814
624,1	3792,271
624,5	3770,071
625	3754,329
625,4	3732,957
625,9	3718,586
626,3	3711,557
626,8	3699,929
627,2	3690,3
627,6	3682,586
628,1	3665,329
628,5	3649,757
629	3633,157
629,4	3613,443
629,9	3600,671
630,3	3578,386
630,7	3555,586
631,2	3535,3
631,6	3520,214
632,1	3498,729
632,5	3479,671
633	3460,1
633,4	3440,814
633,8	3420,671
634,3	3407,529
634,7	3384,1
635,2	3366,643
635,6	3353,157
636,1	3334,014
636,5	3311,757
636,9	3299,729
637,4	3285,157
637,8	3273,586
638,3	3254,9
638,7	3234,386
639,2	3215,671
639,6	3207,957
640	3186,014
640,5	3163,071
640,9	3142,614
641,4	3128,471
641,8	3116,386
642,2	3101,186
642,7	3079,929
643,1	3064,614
643,6	3053,557
644	3043,186
644,5	3031,557
644,9	3009,214
645,3	2998,043
645,8	2985,786
646,2	2967,929
646,7	2945,386
647,1	2928,5
647,6	2909,7
648	2892,414
648,4	2872,471
648,9	2856,729
649,3	2849,471
649,8	2838,643
650,2	2826,471
650,6	2815,729
651,1	2803,9
651,5	2790,157
652	2775,757
652,4	2755,271
652,9	2741,214
653,3	2725,671
653,7	2713,443
654,2	2706,357
654,6	2694,043
655,1	2672,243
655,5	2662,329
655,9	2647,814
656,4	2627,671
656,8	2604,843
657,3	2585,529
657,7	2569,243
658,2	2559,386
658,6	2538,786
659	2522,614
659,5	2509,9
659,9	2497,586
660,4	2483,757
660,8	2467,1
661,2	2447,3
661,7	2437,357
662,1	2424,386
662,6	2412,443
663	2391,586
663,4	2376,957
663,9	2359,529
664,3	2354,5
664,8	2334,071
665,2	2315,9
665,6	2303,871
666,1	2301,643
666,5	2285,357
667	2279,1
667,4	2263,186
667,9	2253,414
668,3	2238,186
668,7	2218,386
669,2	2194,014
669,6	2181,243
670,1	2161,271
670,5	2143,671
670,9	2129,071
671,4	2116,614
671,8	2103,871
672,3	2094,271
672,7	2080,757
673,1	2069,043
673,6	2056,214
674	2041,9
674,5	2024,957
674,9	2010,014
675,3	1993,214
675,8	1978,043
676,2	1957,957
676,7	1944,757
677,1	1932,986
677,5	1926,157
678	1919,329
678,4	1910,129
678,9	1899,214
679,3	1895,957
679,7	1882,071
680,2	1868,129
680,6	1858,586
681,1	1841,271
681,5	1827,5
681,9	1816,586
682,4	1804,643
682,8	1796,986
683,3	1785,129
683,7	1769,614
684,1	1756,243
684,6	1743,929
685	1729,5
685,5	1714,071
685,9	1697,871
686,3	1690,014
686,8	1678,129
687,2	1669,843
687,7	1657,757
688,1	1649,071
688,5	1642,357
689	1636,757
689,4	1627,157
689,9	1620,014
690,3	1613,9
690,7	1603,186
691,2	1579,443
691,6	1568,986
692	1555,986
692,5	1536,957
692,9	1522,557
693,4	1506,957
693,8	1501,986
694,2	1503,214
694,7	1489,614
695,1	1483,757
695,6	1476,586
696	1469,814
696,4	1466,243
696,9	1451,9
697,3	1439,471
697,8	1426,043
698,2	1411,957
698,6	1404,729
699,1	1390,043
699,5	1369,7
699,9	1361,186
700,4	1352,243
700,8	1350,671
701,3	1343,271
701,7	1333,3
702,1	1323,186
702,6	1317,3
703	1309,471
703,5	1298,671
703,9	1283,186
704,3	1270,071
704,8	1260,9
705,2	1253,671
705,6	1247,357
706,1	1234,557
706,5	1232,271
707	1228,329
707,4	1228,271
707,8	1216,1
708,3	1208,586
708,7	1199,014
709,2	1191,986
709,6	1178,357
710	1170,414
710,5	1157,043
710,9	1154,586
711,3	1148,157
711,8	1138,529
712,2	1134,329
712,7	1128,786
713,1	1121,643
713,5	1112,3
714	1105,643
714,4	1095,614
714,8	1089,786
715,3	1084,043
715,7	1073,329
716,2	1063,871
716,6	1056,757
717	1047,786
717,5	1036,586
717,9	1027,929
718,3	1015,014
718,8	1012,414
719,2	1004,557
719,7	996,329
720,1	988,3
720,5	987,757
721	979,986
721,4	978,957
721,8	972,129
722,3	964,157
722,7	958,7
723,2	949,443
723,6	937,643
724	928,9
724,5	914,129
724,9	907,729
725,3	903,329
725,8	898,3
726,2	889,786
726,7	886,786
727,1	878,586
727,5	874,243
728	862,186
728,4	854,1
728,8	841,414
729,3	834,186
729,7	827,443
730,1	823,157
730,6	816,643
731	812,557
731,5	804,529
731,9	805,214
732,3	803,243
732,8	797,671
733,2	793,214
733,6	793,957
734,1	788,671
734,5	787,786
734,9	779,614
735,4	774,529
735,8	770,957
736,3	770,929
736,7	763,414
737,1	758,5
737,6	753,643
738	754,7
738,4	750,757
738,9	749,271
739,3	742,757
739,7	735,129
740,2	732,843
740,6	725,043
741,1	718,214
741,5	714,157
741,9	706,7
742,4	699,9
742,8	700,7
743,2	699,1
743,7	691,1
744,1	686,557
744,5	684,557
745	674,5
745,4	672,957
745,8	666,129
746,3	657,7
746,7	661,329
747,2	653,757
747,6	644,9
748	643,414
748,5	637,414
748,9	633,043
749,3	627,214
749,8	620,9
750,2	616,071
750,6	616,329
751,1	612,871
751,5	607,529
751,9	604,414
752,4	601,471
752,8	595,443
753,3	594,329
753,7	585,1
754,1	577,443
754,6	570,814
755	562,014
755,4	561,7
755,9	556,957
756,3	552,5
756,7	552,243
757,2	548,671
757,6	549,129
758	550,7
758,5	544,957
758,9	541,471
759,3	535,529
759,8	530,1
760,2	528,443
760,6	527,643
761,1	516,443
761,5	513,357
761,9	509,671
762,4	507,557
762,8	502,843
763,3	497,586
763,7	485,957
764,1	490,386
764,6	485,557
765	484,1
765,4	481,357
765,9	481,243
766,3	479,557
766,7	480,271
767,2	475,843
767,6	474,357
768	470,843
768,5	465,071
768,9	461,271
769,3	454,729
769,8	452,157
770,2	447,471
770,6	441,929
771,1	436,7
771,5	437,157
771,9	438,357
772,4	439,729
772,8	435,729
773,2	432,071
773,7	427,843
774,1	430,129
774,5	419,929
775	405,814
775,4	400,729
775,8	398,471
776,3	394,586
776,7	394,014
777,1	383,129
777,6	382,214
778	385,414
778,4	386,329
778,9	383,957
779,3	383,7
779,7	379,843
780,2	383,414
780,6	380,814
781	376,471
781,5	369,929
781,9	364,843
782,3	361,929
782,8	363,1
783,2	356,757
783,6	359,7
784,1	357,443
784,5	352,014
784,9	350,1
785,4	347,329
785,8	342,729
786,2	340,214
786,7	335,786
787,1	330,671
787,5	335,043
788	334,671
788,4	330,986
788,8	326,814
789,3	326,243
789,7	323,929
790,1	323,814
790,6	320,9
791	318,214
791,4	315,7
791,9	313,414
792,3	312,271
792,7	308,729
793,2	309,129
793,6	305,986
794	303,5
794,5	299,043
794,9	297,757
795,3	296,786
795,8	296,214
796,2	295,129
796,6	295,3
797,1	282,7
797,5	287,1
797,9	282,557
798,4	273,9
798,8	270,814
799,2	267,9
799,7	263,7
800,1	271,786
800,5	261,814
801	262,357
801,4	268,186
801,8	265,957
802,2	264,471
802,7	263,471
803,1	258,586
803,5	256,129
804	253,014
804,4	249,3
804,8	250,643
805,3	245,643
805,7	241,586
806,1	245,214
806,6	247,1
807	245,214
807,4	240,586
807,9	232,386
808,3	231,529
808,7	227,386
809,2	222,443
809,6	222,329
810	217,014
810,4	214,071
810,9	213,786
811,3	211,586
811,7	217,214
812,2	218,214
812,6	211,386
813	210,443
813,5	206,729
813,9	205,186
814,3	204,329
814,8	194,9
815,2	192,386
815,6	192,843
816,1	189,529
816,5	193,929
816,9	188,5
817,3	189,814
817,8	192,357
818,2	191,443
818,6	190,129
819,1	192,957
819,5	189,757
819,9	195,329
820,4	191,443
820,8	188,014
821,2	185,843
821,7	186,814
822,1	185,671
822,5	185,186
822,9	180,814
823,4	181,814
823,8	182,586
824,2	183,9
824,7	180,986
825,1	177,214
825,5	173,329
826	175,214
826,4	169,186
826,8	167,3
827,3	161,729
827,7	163,414
828,1	165,986
828,5	159,329
829	158,557
829,4	153,843
829,8	151,071
830,3	153,986
830,7	147,586
831,1	143,529
831,6	149,243
832	144,043
832,4	148,7
832,8	144,071
833,3	142,014
833,7	141,5
834,1	142,271
834,6	142,357
835	143,871
835,4	139,414
835,8	144,671
836,3	137,071
836,7	139,5
837,1	140,043
837,6	136,443
838	133,214
838,4	131,671
838,9	126,9
839,3	130,957
839,7	129,586
840,1	121,671
840,6	122,643
841	122,643
841,4	121,014
841,9	119,214
842,3	118,671
842,7	112,043
843,1	118,414
843,6	115,643
844	115,3
844,4	118,757
844,9	118,043
845,3	114,043
845,7	113,614
846,2	109,157
846,6	108,614
847	105,157
847,4	93,757
847,9	94,7
848,3	94,329
848,7	97,843
849,2	95,643
849,6	91,5
850	93,157
850,4	96,214
850,9	93,957
851,3	93,214
851,7	92,386
852,2	94,871
852,6	95,243
853	90,271
853,4	91,386
853,9	90,043
854,3	90,014
854,7	87,243
855,2	85,557
855,6	85,329
856	86,671
856,4	87,271
856,9	87,529
857,3	85,529
857,7	85,1
858,2	76,557
858,6	74,043
859	73,729
859,4	77,471
859,9	79,157
860,3	76,186
860,7	76,129
861,1	80,986
861,6	83,7
862	81,443
862,4	75,3
862,9	74,129
863,3	74,186
863,7	73,271
864,1	73,157
864,6	71,243
865	73,614
865,4	73,7
865,9	71,957
866,3	76,986
866,7	77,671
867,1	73,157
867,6	80,671
868	87,071
868,4	86,471
868,8	85,043
869,3	82,671
869,7	77,557
870,1	83,3
870,6	71,9
871	54,414
871,4	56,186
871,8	55,186
872,3	52,843
872,7	56,529
873,1	50,471
873,5	56,5
874	62,043
874,4	60,614
874,8	65,614
875,3	65,443
875,7	62,614
876,1	67,3
876,5	62,843
877	61,986
877,4	60,9
877,8	60,3
878,2	61,414
878,7	65,814
879,1	65,529
879,5	66,243
879,9	73,329
880,4	75,9
880,8	66,3
881,2	64,5
881,7	60,071
882,1	58,957
882,5	60,471
882,9	55,014
883,4	54,614
883,8	59,414
884,2	56,786
884,6	56,786
885,1	56,9
885,5	54,214
885,9	54,443
886,3	51,557
886,8	49,357
887,2	48,271
887,6	46,214
888	43,414
888,5	44,614
888,9	48,3
889,3	47,7
889,8	49,471
890,2	50,243
890,6	51,671
891	48,871
891,5	47,843
891,9	43,757
892,3	41,557
892,7	40,243
893,2	42,157
893,6	41,014
894	42,9
894,4	41,929
894,9	40,129
895,3	40,757
895,7	38,9
896,1	38,5
896,6	37,386
897	39,957
897,4	42,157
897,8	46,414
898,3	47,957
898,7	48,329
899,1	50,3
899,5	49,929
900	46,957
900,4	46,129
900,8	41,614
901,2	43,186
901,7	42,586
902,1	43,3
902,5	42,7
902,9	37,557
903,4	37,671
903,8	40,614
904,2	36,671
904,6	38,186
905,1	33,957
905,5	35,586
905,9	40,529
906,3	33,357
906,8	32,357
907,2	31,129
907,6	34,5
908	31,843
908,5	30,586
908,9	33,5
909,3	37,3
909,7	33,814
910,2	37,471
910,6	31,729
911	27,014
911,4	24,9
911,9	15,414
912,3	9,986
912,7	5,557
913,1	1,214
913,6	-0,643
914	5,1
914,4	6,471
914,8	11,729
915,3	14,3
915,7	24,157
916,1	23,5
916,5	29,357
916,9	27,3
917,4	30,729
917,8	29,814
918,2	32,843
918,6	27,729
919,1	30,414
919,5	28,757
919,9	32,557
920,3	33,786
920,8	34,957
921,2	30,957
921,6	35,043
922	35,529
922,5	34,214
922,9	33,414
923,3	29,529
923,7	28,586
924,2	29,357
924,6	25,929
925	24,843
925,4	28,586
925,8	28,1
926,3	30,643
926,7	34,157
927,1	33,443
927,5	34,614
928	34,071
928,4	29,786
928,8	30,243
929,2	25,443
929,7	23,929
930,1	25,529
930,5	22,814
930,9	20,814
931,3	20,357
931,8	16,186
932,2	19,7
932,6	14,357
933	11,7
933,5	17,271
933,9	14,9
934,3	12,757
934,7	13,929
935,2	16,186
935,6	16,9
936	18,071
936,4	15,614
936,8	21,071
937,3	23,729
937,7	23,586
938,1	13,7
938,5	11,443
939	12,757
939,4	9,814
939,8	6,814
940,2	5,671
940,6	2,157
941,1	8,1
941,5	14,7
941,9	15,071
942,3	14,7
942,8	18,386
943,2	19,9
943,6	24,586
944	22,414
944,4	21,643
944,9	21,043
945,3	19,186
945,7	16,329
946,1	12,557
946,6	15,129
947	12,871
947,4	11,043
947,8	12,071
948,2	13,071
948,7	10,986
949,1	14,614
949,5	9,671
949,9	15,1
950,3	14,729
950,8	16,243
951,2	17,071
951,6	19,071
952	15,471
952,5	12,586
952,9	8,986
953,3	11,1
953,7	9,271
954,1	10,9
954,6	8,786
955	6,529
955,4	14,614
955,8	16,3
956,2	13,243
956,7	11,757
957,1	8,414
957,5	9,757
957,9	13,757
958,3	7,5
958,8	7,929
959,2	9,271
959,6	6,557
960	6,643
960,5	3,357
960,9	2,5
961,3	5,843
961,7	3,529
962,1	2,471
962,6	4,929
963	2,843
963,4	7,3
963,8	7,729
964,2	4,957
964,7	6,386
965,1	3,586
965,5	5,071
965,9	8,471
966,3	7,271
966,8	7,443
967,2	3,843
967,6	2,3
968	1,5
968,4	0,786
968,9	2,243
969,3	-0,529
969,7	-2,443
970,1	-1,586
970,5	-2,3
971	2,157
971,4	-2,9
971,8	-3,643
972,2	0,586
972,6	1,9
973,1	2,986
973,5	5,014
973,9	3,243
974,3	10,757
974,7	7,157
975,2	8,729
975,6	8,043
976	12,414
976,4	10,957
976,8	14,186
977,3	12,9
977,7	17,014
978,1	12,014
978,5	10,414
978,9	6,929
979,4	9,386
979,8	8,157
980,2	6,929
980,6	5,671
981	4,214
981,5	5,586
981,9	6,986
982,3	6,671
982,7	0,843
983,1	-2,786
983,6	-1,986
984	-0,529
984,4	1,357
984,8	3,471
985,2	0,814
985,6	8,1
986,1	10,443
986,5	11,557
986,9	10,614
987,3	7,071
987,7	7,786
988,2	7,357
988,6	4,729
989	3,986
989,4	4,186
989,8	6,329
990,3	7,729
990,7	5,243
991,1	6,3
991,5	5,1
991,9	4,757
992,3	-0,5
992,8	-3,014
993,2	-2,9
993,6	-5,871
994	-3,671
994,4	0,3
994,9	1,671
995,3	9,843
995,7	11,986
996,1	11,214
996,5	13,757
996,9	8,357
997,4	3,386
997,8	6,129
998,2	2,386
998,6	6,271
999	9,214
999,5	7,671
999,9	10,157
1000,3	14,471
1000,7	14,529
1001,1	9,557
1001,5	7,586
1002	5,5
1002,4	7,271
1002,8	6,186
1003,2	5,043
1003,6	5,557
1004	7,471
1004,5	5,471
1004,9	7,871
1005,3	7,414
1005,7	8,7
1006,1	10,271
1006,6	4,7
1007	2,129
1007,4	-2,671
1007,8	2,043
1008,2	3,043
1008,6	4,443
1009,1	0,671
1009,5	4,386
1009,9	7,529
1010,3	11,871
1010,7	9,214
1011,1	9,871
1011,6	11,071
1012	13,843
1012,4	16,129
1012,8	14,557
1013,2	15,843
1013,6	14,786
1014,1	13,243
1014,5	9,329
1014,9	9,9
1015,3	2,929
1015,7	5,157
1016,1	2,043
1016,6	-4,871
1017	-5,443
1017,4	0,043
1017,8	-6,986
1018,2	-3,157
1018,6	-4,471
1019,1	-4,1
1019,5	-1,786
1019,9	2,157
1020,3	-0,757
1020,7	0,929
1021,1	1,929
1021,6	2,071
1022	3,471
1022,4	7,386
1022,8	3,386
1023,2	-0,443
1023,6	-0,157
1024,1	-5,614
1024,5	-9,157
1024,9	-9,071
1025,3	-10,929
1025,7	-8,786
1026,1	-3,671
1026,6	3,243
1027	5,186
1027,4	12,871
1027,8	14,014
1028,2	11,3
1028,6	10,3
1029	7,757
1029,5	3,786
1029,9	4,329
1030,3	1,843
1030,7	0,243
1031,1	4,986
1031,5	5,586
1032	7,014
1032,4	6,3
1032,8	9,414
1033,2	10,129
1033,6	9,929
1034	8,186
1034,4	8,243
1034,9	10,243
1035,3	11,5
1035,7	9,586
1036,1	7,557
1036,5	11,786
1036,9	11,814
1037,4	13,986
1037,8	14,671
1038,2	11,443
1038,6	12,9
1039	13,929
1039,4	10,186
1039,8	9,414
1040,3	9,043
1040,7	6,271
1041,1	7,129
1041,5	8,071
1041,9	4,071
1042,3	5,843
1042,7	2,214
1043,2	0,043
1043,6	3,3
1044	5,243
1044,4	0,243
1044,8	4,843
1045,2	6,414
1045,6	7,443
1046,1	7,329
1046,5	6,586
1046,9	6,071
1047,3	6,271
1047,7	6,586
1048,1	4,471
1048,5	7,843
1049	11,557
1049,4	4,957
1049,8	5,071
1050,2	7,186
1050,6	3,243
1051	2,843
1051,4	-0,157
1051,9	-7,014
1052,3	-3,071
1052,7	-3,157
1053,1	-1,929
1053,5	-0,414
1053,9	-0,186
1054,3	-2,243
1054,8	-0,386
1055,2	-2,757
1055,6	-0,014
1056	-0,329
1056,4	2,157
1056,8	6,871
1057,2	14,5
1057,6	16,929
1058,1	21,043
1058,5	16,471
1058,9	18,643
1059,3	17,929
1059,7	13,471
1060,1	8,586
1060,5	2,843
1061	0,243
1061,4	0,929
1061,8	0,357
1062,2	0,214
1062,6	0,214
1063	1,871
1063,4	6,9
1063,8	8,643
1064,3	8,7
1064,7	8,557
1065,1	10,586
1065,5	9,843
1065,9	11,014
1066,3	13,414
1066,7	9,729
1067,1	10,529
1067,6	10,843
1068	11,1
1068,4	10,357
1068,8	4,3
1069,2	1,3
1069,6	-0,843
1070	1,014
1070,4	3,843
1070,9	3,729
1071,3	8,557
1071,7	13,671
1072,1	15,729
1072,5	21,1
1072,9	18,529
1073,3	19,414
1073,7	18,3
1074,2	15,757
1074,6	16,329
1075	13,014
1075,4	12,671
1075,8	12,643
1076,2	7,071
1076,6	10,443
1077	8,843
1077,5	11,329
1077,9	11,814
1078,3	8,586
1078,7	8,329
1079,1	8,214
1079,5	0,357
1079,9	-4,243
1080,3	-8,986
1080,7	-4,757
1081,2	-1,814
1081,6	-0,7
1082	0,414
1082,4	-4,243
1082,8	0,871
1083,2	5,843
1083,6	1,129
1084	2,157
1084,5	2,071
1084,9	-6,014
1085,3	0,186
1085,7	3,014
1086,1	-1,814
1086,5	-1,9
1086,9	-3,557
1087,3	-8,129
1087,7	-2,586
1088,2	-0,929
1088,6	-2,957
1089	-4,843
1089,4	-5,071
1089,8	-6,614
1090,2	-1,414
1090,6	1,414
1091	5,386
1091,4	1,529
1091,9	4,157
1092,3	10,014
1092,7	13,814
1093,1	13,814
1093,5	11,957
1093,9	8,3
1094,3	9,843
1094,7	9,529
1095,1	4,243
1095,5	-1,3
1096	-2,3
1096,4	-2,7
1096,8	-3,3
1097,2	-0,557
1097,6	3,129
1098	5,414
1098,4	6,043
1098,8	4,557
1099,2	2,1
1099,6	1,329
1100,1	1,786
1100,5	1,271
1100,9	2,1
1101,3	4,986
1101,7	5,329
1102,1	8,957
1102,5	8,1
1102,9	2,214
1103,3	1,643
1103,7	-0,757
1104,2	1,414
1104,6	6,814
1105	5,929
1105,4	7,043
1105,8	10,757
1106,2	8,386
1106,6	7,929
1107	5,586
1107,4	1,333
1107,8	1,02
1108,3	0,5
