Data from Subt2_00083.txt Node
Date: Mon Aug 28 13:32:21 MSK 2023
User: vat
Spectrometer: MAYP114033
Trigger mode: 0
Integration Time (sec): 1,000000E0
Scans to average: 5
Electric dark correction enabled: true
Nonlinearity correction enabled: false
Boxcar width: 3
XAxis mode: Wavelengths
Number of Pixels in Spectrum: 2068
>>>>>Begin Spectral Data<<<<<
199,4	-0,433
199,9	-2,813
200,4	-3,933
200,8	0,781
201,3	2,895
201,8	3,238
202,2	3,752
202,7	5,695
203,2	9,524
203,6	14,638
204,1	11,352
204,6	11,495
205	10,867
205,5	13,067
206	12,41
206,4	9,895
206,9	6,524
207,4	6,924
207,8	4,352
208,3	6,438
208,8	2,01
209,2	4,924
209,7	7,267
210,2	11,867
210,6	12,238
211,1	16,867
211,5	18,381
212	22,181
212,5	16,467
212,9	12,238
213,4	8,181
213,9	5,952
214,3	4,924
214,8	0,924
215,3	1,067
215,7	3,867
216,2	6,124
216,7	9,895
217,1	6,924
217,6	6,067
218,1	6,467
218,5	2,638
219	2,495
219,5	3,581
219,9	-3,105
220,4	2,152
220,9	1,038
221,3	3,667
221,8	4,438
222,3	4,695
222,7	7,067
223,2	6,095
223,6	3,381
224,1	10,038
224,6	11,41
225	14,238
225,5	14,01
226	9,552
226,4	15,41
226,9	17,781
227,4	17,438
227,8	12,867
228,3	11,724
228,8	11,352
229,2	13,781
229,7	12,381
230,2	15,61
230,6	12,924
231,1	14,867
231,5	17,038
232	18,495
232,5	14,324
232,9	19,552
233,4	15,267
233,9	11,895
234,3	16,01
234,8	15,667
235,3	16,895
235,7	23,581
236,2	19,181
236,7	18,467
237,1	22,038
237,6	20,952
238,1	20,324
238,5	20,438
239	19,552
239,4	20,267
239,9	23,067
240,4	20,524
240,8	21,324
241,3	21,524
241,8	18,81
242,2	16,067
242,7	11,61
243,2	12,181
243,6	13,324
244,1	7,495
244,6	3,81
245	4,352
245,5	1,924
245,9	5,41
246,4	0,524
246,9	0,638
247,3	4,295
247,8	3,581
248,3	10,438
248,7	17,381
249,2	18,095
249,7	22,552
250,1	14,124
250,6	11,724
251	12,952
251,5	5,41
252	-1,448
252,4	-4,79
252,9	-4,048
253,4	3,61
253,8	5,695
254,3	6,438
254,8	10,581
255,2	13,038
255,7	16,21
256,1	17,181
256,6	15,695
257,1	17,838
257,5	16,724
258	11,324
258,5	12,61
258,9	8,695
259,4	10,295
259,9	6,524
260,3	-0,39
260,8	-1,79
261,2	0,495
261,7	-0,333
262,2	4,21
262,6	-1,39
263,1	2,638
263,6	2,324
264	6,895
264,5	8,152
264,9	8,067
265,4	1,181
265,9	3,695
266,3	1,324
266,8	6,695
267,3	6,952
267,7	5,01
268,2	8,781
268,7	14,181
269,1	10,152
269,6	11,41
270	6,61
270,5	8,381
271	7,724
271,4	2,667
271,9	-2,562
272,4	1,01
272,8	2,41
273,3	6,695
273,7	5,981
274,2	3,581
274,7	5,495
275,1	11,01
275,6	11,867
276,1	11,095
276,5	8,467
277	7,524
277,4	10,667
277,9	3,952
278,4	2,238
278,8	-1,133
279,3	-0,99
279,8	5,695
280,2	5,095
280,7	4,381
281,1	11,095
281,6	11,695
282,1	13,781
282,5	15,61
283	13,295
283,4	15,067
283,9	15,81
284,4	15,41
284,8	15,381
285,3	13,295
285,8	12,581
286,2	8,924
286,7	7,038
287,1	5,438
287,6	7,667
288,1	7,695
288,5	7,095
289	6,781
289,5	4,981
289,9	4,238
290,4	5,524
290,8	5,667
291,3	7,295
291,8	9,552
292,2	11,352
292,7	15,81
293,1	18,01
293,6	15,838
294,1	12,581
294,5	9,267
295	8,238
295,5	7,095
295,9	8,067
296,4	5,552
296,8	9,638
297,3	9,838
297,8	16,324
298,2	16,752
298,7	16,01
299,1	13,438
299,6	14,581
300,1	15,095
300,5	15,152
301	12,324
301,5	13,61
301,9	13,295
302,4	12,095
302,8	13,352
303,3	15,238
303,8	18,552
304,2	15,724
304,7	13,095
305,1	11,152
305,6	9,438
306,1	8,81
306,5	2,21
307	-0,476
307,4	-2,705
307,9	2,352
308,4	2,524
308,8	6,267
309,3	5,667
309,8	6,752
310,2	7,981
310,7	11,61
311,1	8,838
311,6	10,781
312,1	4,095
312,5	3,695
313	4,581
313,4	6,695
313,9	4,981
314,4	4,095
314,8	9,581
315,3	18,724
315,7	16,724
316,2	17,01
316,7	14,181
317,1	14,981
317,6	15,61
318	10,752
318,5	2,924
319	8,61
319,4	10,981
319,9	6,524
320,3	5,667
320,8	5,41
321,3	2,667
321,7	5,467
322,2	0,01
322,6	1,238
323,1	1,867
323,6	3,495
324	1,238
324,5	8,667
324,9	11,324
325,4	13,038
325,9	12,21
326,3	17,124
326,8	19,124
327,2	19,552
327,7	9,324
328,2	9,524
328,6	12,238
329,1	3,495
329,5	-0,733
330	-1,933
330,5	3,838
330,9	7,438
331,4	5,895
331,8	1,467
332,3	8,724
332,8	14,181
333,2	14,381
333,7	8,295
334,1	7,067
334,6	7,238
335,1	9,781
335,5	11,495
336	12,61
336,4	10,867
336,9	14,095
337,4	15,324
337,8	15,81
338,3	17,495
338,7	16,81
339,2	11,41
339,7	12,867
340,1	10,267
340,6	10,524
341	11,181
341,5	9,324
342	9,352
342,4	6,552
342,9	6,924
343,3	11,21
343,8	14,21
344,2	13,895
344,7	14,495
345,2	14,152
345,6	17,381
346,1	16,81
346,5	15,181
347	8,81
347,5	13,295
347,9	9,267
348,4	9,324
348,8	14,495
349,3	12,524
349,8	10,495
350,2	14,781
350,7	10,381
351,1	15,21
351,6	16,467
352	15,438
352,5	25,924
353	32,867
353,4	41,324
353,9	57,467
354,3	71,552
354,8	80,552
355,3	100,61
355,7	116,838
356,2	132,781
356,6	152,781
357,1	172,21
357,5	198,01
358	236,667
358,5	260,981
358,9	301,495
359,4	353,038
359,8	406,867
360,3	463,038
360,8	528,61
361,2	599,524
361,7	688,952
362,1	770,581
362,6	863,61
363	967,352
363,5	1072,295
364	1181,438
364,4	1290,124
364,9	1400,238
365,3	1517,124
365,8	1631,467
366,3	1725,638
366,7	1813,724
367,2	1887,438
367,6	1953,124
368,1	1999,838
368,5	2026,067
369	2031,467
369,5	2026,81
369,9	2010,952
370,4	1975,552
370,8	1930,895
371,3	1869,638
371,7	1803,724
372,2	1727,467
372,7	1649,61
373,1	1565,495
373,6	1481,895
374	1389,21
374,5	1302,952
374,9	1217,067
375,4	1135,095
375,9	1059,81
376,3	976,295
376,8	906,61
377,2	843,752
377,7	783,781
378,2	723,724
378,6	669,267
379,1	612,124
379,5	578,038
380	533,81
380,4	494,952
380,9	463,152
381,4	437,21
381,8	411,181
382,3	388,495
382,7	366,352
383,2	350,01
383,6	333,352
384,1	322,61
384,6	303,524
385	292,095
385,5	282,41
385,9	268,924
386,4	256,467
386,8	246,467
387,3	225,81
387,7	216,41
388,2	206,295
388,7	195,467
389,1	183,352
389,6	171,552
390	160,438
390,5	156,352
390,9	147,124
391,4	138,981
391,9	131,552
392,3	130,152
392,8	126,438
393,2	122,695
393,7	118,495
394,1	117,21
394,6	115,352
395,1	117,695
395,5	111,181
396	107,667
396,4	105,095
396,9	100,895
397,3	100,724
397,8	90,695
398,2	81,267
398,7	75,981
399,2	74,867
399,6	73,895
400,1	70,295
400,5	68,61
401	77,095
401,4	75,524
401,9	82,381
402,4	79,467
402,8	79,181
403,3	84,352
403,7	80,381
404,2	80,352
404,6	81,895
405,1	80,752
405,5	86,724
406	88,952
406,5	83,438
406,9	86,581
407,4	81,781
407,8	83,667
408,3	79,895
408,7	75,152
409,2	70,667
409,6	75,267
410,1	72,752
410,6	72,352
411	73,495
411,5	72,724
411,9	73,781
412,4	75,952
412,8	73,724
413,3	73,181
413,7	73,867
414,2	70,61
414,7	74,352
415,1	79,524
415,6	77,21
416	80,495
416,5	90,324
416,9	96,524
417,4	103,21
417,8	105,981
418,3	106,495
418,8	112,095
419,2	112,552
419,7	108,895
420,1	107,01
420,6	111,295
421	115,381
421,5	119,924
421,9	118,667
422,4	124,61
422,8	125,952
423,3	130,467
423,8	126,924
424,2	125,924
424,7	125,324
425,1	126,352
425,6	119,438
426	122,581
426,5	118,238
426,9	119,181
427,4	118,781
427,9	120,352
428,3	122,295
428,8	121,895
429,2	123,01
429,7	129,838
430,1	128,895
430,6	126,924
431	124,638
431,5	127,124
431,9	132,638
432,4	127,495
432,8	128,61
433,3	134,581
433,8	140,838
434,2	145,695
434,7	146,095
435,1	154,724
435,6	159,124
436	160,267
436,5	164,124
436,9	167,752
437,4	173,838
437,8	181,61
438,3	188,467
438,8	199,41
439,2	210,124
439,7	217,381
440,1	222,895
440,6	229,61
441	237,895
441,5	243,867
441,9	253,267
442,4	262,181
442,8	276,552
443,3	295,867
443,7	305,324
444,2	318,352
444,7	336,324
445,1	350,752
445,6	365,095
446	375,638
446,5	382,152
446,9	402,124
447,4	420,667
447,8	433,438
448,3	448,381
448,7	466,752
449,2	487,581
449,6	512,352
450,1	531,067
450,6	556,238
451	574,238
451,5	602,552
451,9	621,867
452,4	643,381
452,8	669,124
453,3	692,781
453,7	711,752
454,2	738,038
454,6	761,295
455,1	788,524
455,5	819,552
456	843,638
456,4	872,581
456,9	906,181
457,3	937,352
457,8	962,952
458,3	991,352
458,7	1019,895
459,2	1055,124
459,6	1088,724
460,1	1122,438
460,5	1152,895
461	1194,238
461,4	1232,381
461,9	1269,781
462,3	1305,524
462,8	1341,524
463,2	1374,152
463,7	1415,295
464,1	1448,524
464,6	1482,581
465	1516,438
465,5	1553,638
466	1599,467
466,4	1644,152
466,9	1686,952
467,3	1728,267
467,8	1779,895
468,2	1826,095
468,7	1871,41
469,1	1908,152
469,6	1943,895
470	1987,267
470,5	2030,067
470,9	2068,181
471,4	2112,895
471,8	2149,61
472,3	2192,352
472,7	2239,524
473,2	2278,867
473,6	2322,952
474,1	2363,524
474,5	2400,152
475	2446,781
475,4	2490,695
475,9	2531,981
476,4	2573,067
476,8	2618,124
477,3	2660,781
477,7	2706,21
478,2	2746,667
478,6	2789,01
479,1	2832,952
479,5	2881,61
480	2919,581
480,4	2960,352
480,9	3001,295
481,3	3038,124
481,8	3072,238
482,2	3104,695
482,7	3140,867
483,1	3174,81
483,6	3214,238
484	3244,41
484,5	3281,267
484,9	3317,352
485,4	3349,981
485,8	3375,181
486,3	3407,152
486,7	3433,181
487,2	3467,124
487,6	3496,838
488,1	3525,924
488,5	3551,467
489	3581,981
489,4	3616,752
489,9	3640,581
490,4	3661,21
490,8	3686,01
491,3	3709,267
491,7	3736,667
492,2	3759,01
492,6	3776,895
493,1	3806,038
493,5	3831,038
494	3859,752
494,4	3878,267
494,9	3894,867
495,3	3912,438
495,8	3927,41
496,2	3936,381
496,7	3956,81
497,1	3958,981
497,6	3981,152
498	3992,695
498,5	4006,181
498,9	4025,981
499,4	4048,952
499,8	4057,667
500,3	4074,21
500,7	4082,21
501,2	4097,381
501,6	4114,724
502,1	4124,238
502,5	4132,867
503	4145,81
503,4	4151,667
503,9	4161,295
504,3	4178,981
504,8	4189,838
505,2	4198,81
505,7	4204,095
506,1	4207,638
506,6	4222,552
507	4235,124
507,5	4235,524
507,9	4241,495
508,4	4250,867
508,8	4261,581
509,3	4271,981
509,7	4278,324
510,2	4283,752
510,6	4295,781
511,1	4297,924
511,5	4302,067
512	4300,781
512,4	4309,095
512,9	4311,038
513,3	4312,01
513,8	4318,981
514,2	4329,152
514,7	4343,381
515,1	4358,038
515,6	4369,752
516	4378,781
516,5	4384,324
516,9	4386,638
517,4	4394,467
517,8	4391,524
518,3	4392,552
518,7	4387,467
519,2	4396,324
519,6	4404,724
520,1	4418,352
520,5	4423,667
521	4422,267
521,4	4437,095
521,9	4448,324
522,3	4458,781
522,8	4465,724
523,2	4470,552
523,7	4474,01
524,1	4492,324
524,6	4491,724
525	4496,381
525,5	4503,552
525,9	4512,667
526,4	4518,41
526,8	4524,838
527,3	4528,581
527,7	4538,324
528,2	4545,952
528,6	4556,524
529,1	4568,067
529,5	4576,067
530	4593,467
530,4	4601,81
530,9	4610,581
531,3	4627,61
531,8	4631,724
532,2	4639,295
532,6	4651,41
533,1	4655,552
533,5	4661,495
534	4662,752
534,4	4662,638
534,9	4671,01
535,3	4682,267
535,8	4700,238
536,2	4708,867
536,7	4719,324
537,1	4744,638
537,6	4760,095
538	4775,838
538,5	4779,095
538,9	4774,552
539,4	4791,238
539,8	4802,095
540,3	4802,838
540,7	4813,152
541,2	4819,438
541,6	4832,41
542,1	4846,038
542,5	4843,524
543	4853,381
543,4	4866,695
543,9	4876,01
544,3	4887,352
544,8	4900,638
545,2	4909,095
545,7	4927,638
546,1	4935,981
546,5	4949,495
547	4957,038
547,4	4959,724
547,9	4961,552
548,3	4970,181
548,8	4967,038
549,2	4982,038
549,7	4985,295
550,1	4990,981
550,6	5004,581
551	5021,724
551,5	5024,438
551,9	5042,781
552,4	5054,238
552,8	5066,752
553,3	5081,381
553,7	5090,81
554,2	5090,352
554,6	5107,552
555,1	5113,952
555,5	5114,952
555,9	5118,867
556,4	5130,124
556,8	5141,524
557,3	5153,381
557,7	5166,467
558,2	5176,324
558,6	5189,181
559,1	5196,924
559,5	5206,667
560	5208,638
560,4	5222,438
560,9	5219,638
561,3	5224,981
561,8	5223,381
562,2	5230,724
562,7	5226,924
563,1	5234,324
563,6	5229,867
564	5236,181
564,4	5249,324
564,9	5262,638
565,3	5266,552
565,8	5276,038
566,2	5281,981
566,7	5297,324
567,1	5313,067
567,6	5305,495
568	5304,638
568,5	5304,867
568,9	5304,924
569,4	5302,095
569,8	5296,952
570,3	5289,352
570,7	5300,952
571,1	5300,638
571,6	5311,61
572	5318,581
572,5	5318,152
572,9	5317,752
573,4	5311,124
573,8	5305,552
574,3	5311,21
574,7	5303,724
575,2	5298,581
575,6	5306,552
576,1	5307,095
576,5	5315,552
576,9	5315,467
577,4	5312,952
577,8	5316,952
578,3	5308,295
578,7	5298,295
579,2	5290,981
579,6	5283,067
580,1	5278,238
580,5	5278,352
581	5265,667
581,4	5268,838
581,9	5256,838
582,3	5250,667
582,7	5238,267
583,2	5234,067
583,6	5213,438
584,1	5200,667
584,5	5186,095
585	5177,352
585,4	5172,838
585,9	5169,295
586,3	5155,524
586,8	5146,41
587,2	5147,438
587,6	5141,924
588,1	5132,695
588,5	5125,495
589	5118,438
589,4	5106,638
589,9	5104,552
590,3	5089,581
590,8	5073,81
591,2	5069,21
591,7	5053,638
592,1	5042,895
592,5	5036,438
593	5024,924
593,4	5020,21
593,9	5023,781
594,3	5020,467
594,8	5019,438
595,2	5013,724
595,7	5006,01
596,1	4998,981
596,6	4991,61
597	4979,067
597,4	4965,781
597,9	4954,324
598,3	4942,952
598,8	4937,638
599,2	4932,067
599,7	4924,838
600,1	4917,781
600,6	4909,924
601	4904,381
601,4	4897,01
601,9	4888,01
602,3	4871,324
602,8	4859,781
603,2	4840,895
603,7	4826,952
604,1	4807,981
604,6	4798,781
605	4783,924
605,4	4776,21
605,9	4757,867
606,3	4751,638
606,8	4745,924
607,2	4733,838
607,7	4714,752
608,1	4699,667
608,6	4685,21
609	4674,238
609,4	4659,581
609,9	4639,267
610,3	4620,781
610,8	4602,952
611,2	4584,438
611,7	4568,924
612,1	4545,838
612,6	4525,21
613	4504,724
613,4	4494,781
613,9	4480,095
614,3	4471,438
614,8	4454,324
615,2	4443,981
615,7	4430,324
616,1	4419,067
616,6	4401,552
617	4387,067
617,4	4360,638
617,9	4344,724
618,3	4321,924
618,8	4306,267
619,2	4291,181
619,7	4273,781
620,1	4253,638
620,5	4237,952
621	4215,267
621,4	4202,152
621,9	4183,181
622,3	4163,867
622,8	4140,81
623,2	4122,838
623,6	4106,581
624,1	4098,41
624,5	4079,695
625	4063,981
625,4	4046,41
625,9	4026,667
626,3	4017,495
626,8	3998,467
627,2	3972,381
627,6	3956,295
628,1	3934,667
628,5	3910,952
629	3897,438
629,4	3866,724
629,9	3848,124
630,3	3825,495
630,7	3799,952
631,2	3777,124
631,6	3759,667
632,1	3742,324
632,5	3716,81
633	3697,781
633,4	3678,61
633,8	3665,781
634,3	3642,81
634,7	3629,695
635,2	3606,41
635,6	3596,067
636,1	3580,552
636,5	3563,924
636,9	3545,152
637,4	3530,924
637,8	3506,867
638,3	3488,467
638,7	3471,267
639,2	3443,124
639,6	3428,267
640	3407,952
640,5	3387,467
640,9	3367,067
641,4	3353,181
641,8	3336,438
642,2	3323,638
642,7	3298,952
643,1	3279,838
643,6	3272,695
644	3263,952
644,5	3247,781
644,9	3234,895
645,3	3219,095
645,8	3207,952
646,2	3191,467
646,7	3162,838
647,1	3140,152
647,6	3117,724
648	3097,81
648,4	3077,495
648,9	3061,924
649,3	3045,752
649,8	3033,238
650,2	3020,038
650,6	3009,324
651,1	2991,095
651,5	2978,695
652	2963,238
652,4	2950,552
652,9	2933,01
653,3	2914,124
653,7	2897,867
654,2	2884,467
654,6	2870,124
655,1	2856,238
655,5	2838,238
655,9	2829,01
656,4	2810,21
656,8	2785,524
657,3	2765,295
657,7	2748,21
658,2	2730,667
658,6	2713,381
659	2696,981
659,5	2684,01
659,9	2672,495
660,4	2658,21
660,8	2644,295
661,2	2618,495
661,7	2608,724
662,1	2588,667
662,6	2572,01
663	2555,124
663,4	2537,095
663,9	2521,41
664,3	2521,181
664,8	2497,552
665,2	2479,752
665,6	2461,695
666,1	2448,552
666,5	2436,524
667	2420,41
667,4	2398,181
667,9	2390,667
668,3	2378,581
668,7	2371,724
669,2	2357,81
669,6	2338,01
670,1	2319,61
670,5	2303,581
670,9	2286,695
671,4	2267,524
671,8	2246,41
672,3	2227,438
672,7	2220,724
673,1	2206,152
673,6	2193,352
674	2176,552
674,5	2166,638
674,9	2152,438
675,3	2139,552
675,8	2122,924
676,2	2104,667
676,7	2089,695
677,1	2075,21
677,5	2058,038
678	2046,181
678,4	2036,61
678,9	2022,124
679,3	2018,324
679,7	2005,695
680,2	1992,095
680,6	1987,467
681,1	1976,267
681,5	1963,295
681,9	1950,81
682,4	1934,038
682,8	1919,952
683,3	1905,467
683,7	1890,524
684,1	1877,238
684,6	1865,152
685	1849,724
685,5	1838,381
685,9	1824,838
686,3	1818,01
686,8	1805,381
687,2	1793,067
687,7	1778,067
688,1	1766,495
688,5	1750,438
689	1739,238
689,4	1726,467
689,9	1717,01
690,3	1707,495
690,7	1697,695
691,2	1683,867
691,6	1679,467
692	1665,781
692,5	1655,295
692,9	1637,21
693,4	1622,667
693,8	1610,81
694,2	1603,895
694,7	1588,952
695,1	1584,01
695,6	1570,667
696	1567,181
696,4	1559,438
696,9	1548,638
697,3	1538,267
697,8	1529,324
698,2	1514,667
698,6	1500,867
699,1	1491,495
699,5	1474,867
699,9	1465,695
700,4	1457,552
700,8	1449,238
701,3	1439,381
701,7	1434,667
702,1	1419,524
702,6	1413,267
703	1402,667
703,5	1389,638
703,9	1372,667
704,3	1363,952
704,8	1355,038
705,2	1342,01
705,6	1335,895
706,1	1323,324
706,5	1315,038
707	1315,895
707,4	1312,952
707,8	1301,638
708,3	1298,267
708,7	1283,01
709,2	1277,752
709,6	1269,21
710	1258,067
710,5	1246,181
710,9	1234,467
711,3	1222,581
711,8	1218,152
712,2	1209,924
712,7	1201,581
713,1	1188,467
713,5	1178,495
714	1172,981
714,4	1166,581
714,8	1156,495
715,3	1149,095
715,7	1138,352
716,2	1129,495
716,6	1118,038
717	1108,495
717,5	1096,924
717,9	1089,238
718,3	1080,552
718,8	1075,152
719,2	1068,095
719,7	1062,21
720,1	1055,552
720,5	1046,61
721	1038,381
721,4	1032,438
721,8	1021,838
722,3	1019,581
722,7	1015,067
723,2	1005,038
723,6	1003,41
724	995,438
724,5	980,952
724,9	976,324
725,3	962,152
725,8	952,038
726,2	943,838
726,7	937,238
727,1	933,952
727,5	931,981
728	921,667
728,4	918,038
728,8	910,41
729,3	903,467
729,7	898,267
730,1	884,981
730,6	874,581
731	871,752
731,5	863,038
731,9	859,267
732,3	855,181
732,8	847,124
733,2	844,095
733,6	844,61
734,1	840,381
734,5	838,524
734,9	827,152
735,4	822,581
735,8	811,867
736,3	812,181
736,7	804,438
737,1	800,638
737,6	795,267
738	797,552
738,4	796,095
738,9	799,181
739,3	792,295
739,7	788,352
740,2	781,267
740,6	776,752
741,1	765,781
741,5	762,495
741,9	756,381
742,4	748,695
742,8	743,21
743,2	743,438
743,7	733,924
744,1	738,01
744,5	734,495
745	722,524
745,4	722,524
745,8	718,895
746,3	710,752
746,7	710,181
747,2	701,924
747,6	689,867
748	686,581
748,5	677,724
748,9	670,724
749,3	659,324
749,8	657,267
750,2	650,41
750,6	650,924
751,1	647,981
751,5	640,552
751,9	634,867
752,4	632,781
752,8	625,81
753,3	621,952
753,7	610,952
754,1	608,21
754,6	609,61
755	606,838
755,4	607,067
755,9	602,352
756,3	599,638
756,7	600,181
757,2	594,152
757,6	587,181
758	586,724
758,5	581,181
758,9	575,01
759,3	568,067
759,8	564,667
760,2	556,667
760,6	555,495
761,1	544,267
761,5	539,438
761,9	540,581
762,4	541,152
762,8	533,838
763,3	531,924
763,7	523,695
764,1	524,352
764,6	522,067
765	513,01
765,4	505,238
765,9	504,524
766,3	501,981
766,7	499,724
767,2	498,495
767,6	497,552
768	496,552
768,5	497,495
768,9	496,524
769,3	493,867
769,8	491,752
770,2	482,352
770,6	476,495
771,1	474,81
771,5	469,752
771,9	464,467
772,4	464,524
772,8	464,067
773,2	465,552
773,7	460,524
774,1	456,981
774,5	448,838
775	443,667
775,4	435,152
775,8	432,152
776,3	429,238
776,7	426,295
777,1	422,81
777,6	421,352
778	420,581
778,4	420,238
778,9	414,981
779,3	409,124
779,7	404,981
780,2	403,895
780,6	400,695
781	396,781
781,5	392,381
781,9	386,61
782,3	388,095
782,8	390,638
783,2	382,352
783,6	382,01
784,1	379,038
784,5	376,267
784,9	375,238
785,4	367,924
785,8	359,638
786,2	358,381
786,7	360,895
787,1	358,295
787,5	359,467
788	359,867
788,4	354,581
788,8	352,495
789,3	348,924
789,7	340,895
790,1	339,21
790,6	335,638
791	332,781
791,4	334,295
791,9	333,352
792,3	333,124
792,7	328,81
793,2	322,61
793,6	321,41
794	315,41
794,5	314,781
794,9	315,295
795,3	315,895
795,8	317,581
796,2	317,61
796,6	315,638
797,1	308,352
797,5	307,152
797,9	300,581
798,4	294,352
798,8	290,895
799,2	292,238
799,7	289,524
800,1	293,01
800,5	289,21
801	288,638
801,4	292,838
801,8	285,981
802,2	283,238
802,7	285,267
803,1	286,295
803,5	284,867
804	281,124
804,4	274,61
804,8	275,695
805,3	281,495
805,7	274,724
806,1	271,695
806,6	266,61
807	266,61
807,4	261,895
807,9	257,895
808,3	246,21
808,7	240,781
809,2	239,752
809,6	238,667
810	236,267
810,4	233,952
810,9	234,01
811,3	231,038
811,7	232,667
812,2	225,181
812,6	220,124
813	220,095
813,5	216,867
813,9	213,067
814,3	210,581
814,8	208,552
815,2	210,324
815,6	208,81
816,1	207,867
816,5	208,61
816,9	206,867
817,3	206,124
817,8	202,667
818,2	198,724
818,6	198,124
819,1	196,295
819,5	196,752
819,9	197,21
820,4	196,924
820,8	194,152
821,2	195,952
821,7	196,838
822,1	191,352
822,5	185,638
822,9	184,952
823,4	189,124
823,8	186,81
824,2	186,152
824,7	188,295
825,1	186,61
825,5	187,267
826	184,152
826,4	178,61
826,8	182,01
827,3	178,61
827,7	175,895
828,1	177,095
828,5	176,181
829	176,81
829,4	172,495
829,8	166,867
830,3	164,981
830,7	159,581
831,1	157,381
831,6	158,238
832	157,667
832,4	156,724
832,8	152,638
833,3	155,095
833,7	155,352
834,1	160,352
834,6	158,038
835	158,01
835,4	155,524
835,8	160,352
836,3	151,524
836,7	151,524
837,1	145,695
837,6	142,524
838	141,238
838,4	139,467
838,9	137,01
839,3	144,638
839,7	145,181
840,1	137,61
840,6	142,667
841	137,924
841,4	138,924
841,9	136,21
842,3	131,067
842,7	124,781
843,1	130,352
843,6	124,724
844	125,895
844,4	123,21
844,9	122,352
845,3	122,238
845,7	121,581
846,2	116,924
846,6	116,867
847	114,41
847,4	113,952
847,9	107,724
848,3	105,667
848,7	106,152
849,2	108,724
849,6	103,638
850	105,352
850,4	104,724
850,9	107,981
851,3	109,381
851,7	111,295
852,2	108,324
852,6	107,981
853	105,695
853,4	102,524
853,9	104,552
854,3	101,295
854,7	102,352
855,2	105,238
855,6	107,581
856	105,295
856,4	109,667
856,9	110,752
857,3	108,352
857,7	103,867
858,2	97,752
858,6	93,467
859	90,467
859,4	90,952
859,9	90,095
860,3	88,752
860,7	89,467
861,1	90,181
861,6	97,381
862	98,152
862,4	92,667
862,9	90,095
863,3	87,152
863,7	86,724
864,1	88,124
864,6	83,724
865	84,038
865,4	86,695
865,9	86,124
866,3	90,124
866,7	90,124
867,1	83,695
867,6	83,21
868	84,438
868,4	79,61
868,8	76,295
869,3	76,124
869,7	72,181
870,1	76,381
870,6	69,924
871	66,781
871,4	69,238
871,8	73,267
872,3	73,267
872,7	76,781
873,1	75,781
873,5	77,667
874	71,467
874,4	70,924
874,8	71,495
875,3	66,838
875,7	62,895
876,1	60,381
876,5	61,124
877	64,124
877,4	63,352
877,8	62,752
878,2	65,095
878,7	66,01
879,1	66,124
879,5	64,467
879,9	68,638
880,4	70,238
880,8	68,467
881,2	66,524
881,7	63,067
882,1	63,981
882,5	67,895
882,9	64,552
883,4	64,867
883,8	61,495
884,2	59,152
884,6	61,752
885,1	60,667
885,5	58,238
885,9	59,981
886,3	59,152
886,8	59,61
887,2	57,095
887,6	54,152
888	59,124
888,5	55,295
888,9	57,924
889,3	51,581
889,8	51,581
890,2	54,124
890,6	55,495
891	48,467
891,5	53,667
891,9	48,267
892,3	53,524
892,7	54,352
893,2	57,638
893,6	54,324
894	54,095
894,4	52,095
894,9	50,467
895,3	48,124
895,7	45,21
896,1	45,21
896,6	49,724
897	51,21
897,4	51,724
897,8	55,152
898,3	53,695
898,7	52,667
899,1	49,695
899,5	44,495
900	42,638
900,4	40,21
900,8	35,467
901,2	34,895
901,7	33,695
902,1	37,295
902,5	36,895
902,9	35,752
903,4	35,81
903,8	38,038
904,2	38,352
904,6	38,695
905,1	37,667
905,5	38,695
905,9	41,238
906,3	35,838
906,8	37,895
907,2	33,21
907,6	37,581
908	33,838
908,5	35,295
908,9	33,352
909,3	39,238
909,7	36,81
910,2	44,924
910,6	39,581
911	39,695
911,4	41,438
911,9	42,295
912,3	37,667
912,7	33,695
913,1	26,638
913,6	26,524
914	31,124
914,4	21,667
914,8	20,61
915,3	21,467
915,7	29,524
916,1	33,438
916,5	31,981
916,9	22,81
917,4	31,61
917,8	31,895
918,2	30,981
918,6	25,495
919,1	23,752
919,5	24,952
919,9	30,638
920,3	27,21
920,8	29,61
921,2	29,724
921,6	33,238
922	35,01
922,5	40,467
922,9	38,667
923,3	39,867
923,7	38,695
924,2	42,61
924,6	38,038
925	37,038
925,4	35,438
925,8	37,295
926,3	40,381
926,7	38,41
927,1	34,952
927,5	37,295
928	31,238
928,4	28,438
928,8	25,581
929,2	21,781
929,7	24,324
930,1	28,381
930,5	25,638
930,9	27,152
931,3	28,581
931,8	27,981
932,2	29,467
932,6	24,867
933	17,152
933,5	20,81
933,9	22,238
934,3	23,981
934,7	19,067
935,2	22,238
935,6	23,01
936	23,381
936,4	22,324
936,8	21,495
937,3	21,267
937,7	23,41
938,1	11,21
938,5	11,324
939	14,838
939,4	12,295
939,8	15,581
940,2	12,867
940,6	14,667
941,1	19,267
941,5	16,438
941,9	17,467
942,3	19,267
942,8	20,21
943,2	21,638
943,6	25,21
944	24,124
944,4	27,552
944,9	27,895
945,3	23,981
945,7	21,295
946,1	21,952
946,6	18,61
947	22,467
947,4	19,467
947,8	18,21
948,2	22,152
948,7	20,952
949,1	17,238
949,5	18,752
949,9	16,581
950,3	18,41
950,8	18,524
951,2	18,238
951,6	17,867
952	21,438
952,5	18,667
952,9	20,267
953,3	19,838
953,7	18,381
954,1	13,781
954,6	16,952
955	10,152
955,4	16,181
955,8	18,495
956,2	19,752
956,7	20,552
957,1	24,095
957,5	20,752
957,9	26,295
958,3	21,61
958,8	19,41
959,2	15,381
959,6	13,895
960	18,381
960,5	18,267
960,9	18,181
961,3	17,152
961,7	15,724
962,1	20,752
962,6	22,21
963	15,438
963,4	17,238
963,8	16,21
964,2	21,01
964,7	21,467
965,1	13,495
965,5	12,867
965,9	13,667
966,3	12,038
966,8	12,638
967,2	7,01
967,6	10,181
968	12,295
968,4	13,81
968,9	15,695
969,3	15,981
969,7	14,01
970,1	12,61
970,5	8,152
971	9,324
971,4	8,21
971,8	7,695
972,2	11,724
972,6	12,81
973,1	14,21
973,5	15,095
973,9	14,295
974,3	13,581
974,7	9,867
975,2	10,552
975,6	11,895
976	12,667
976,4	8,295
976,8	9,667
977,3	9,41
977,7	12,267
978,1	8,838
978,5	3,067
978,9	0,81
979,4	6,781
979,8	7,01
980,2	3,152
980,6	5,381
981	3,467
981,5	5,152
981,9	7,952
982,3	8,267
982,7	4,981
983,1	4,01
983,6	4,524
984	1,124
984,4	4,067
984,8	2,838
985,2	-1,219
985,6	1,267
986,1	8,352
986,5	4,467
986,9	7,924
987,3	3,867
987,7	6,267
988,2	6,667
988,6	7,952
989	2,61
989,4	7,724
989,8	6,038
990,3	8,667
990,7	10,381
991,1	9,724
991,5	13,295
991,9	12,01
992,3	7,381
992,8	7,867
993,2	7,781
993,6	4,81
994	6,324
994,4	9,095
994,9	12,295
995,3	16,095
995,7	17,467
996,1	15,181
996,5	15,324
996,9	17,01
997,4	11,467
997,8	15,895
998,2	9,724
998,6	14,01
999	14,752
999,5	15,867
999,9	15,695
1000,3	21,181
1000,7	22,324
1001,1	24,01
1001,5	23,467
1002	25,352
1002,4	27,01
1002,8	25,067
1003,2	18,295
1003,6	13,267
1004	12,038
1004,5	8,838
1004,9	6,295
1005,3	1,667
1005,7	1,724
1006,1	6,238
1006,6	2,438
1007	5,81
1007,4	3,067
1007,8	6,267
1008,2	7,381
1008,6	5,952
1009,1	4,895
1009,5	10,124
1009,9	7,895
1010,3	9,552
1010,7	12,952
1011,1	16,695
1011,6	20,21
1012	20,524
1012,4	23,381
1012,8	24,952
1013,2	26,01
1013,6	23,752
1014,1	20,981
1014,5	15,238
1014,9	14,067
1015,3	12,267
1015,7	13,267
1016,1	10,552
1016,6	6,695
1017	7,152
1017,4	10,295
1017,8	3,924
1018,2	2,724
1018,6	1,552
1019,1	5,152
1019,5	7,895
1019,9	10,067
1020,3	10,495
1020,7	15,581
1021,1	11,667
1021,6	8,667
1022	9,324
1022,4	11,324
1022,8	9,267
1023,2	8,238
1023,6	3,952
1024,1	5,152
1024,5	8,381
1024,9	9,638
1025,3	7,61
1025,7	11,61
1026,1	16,895
1026,6	25,41
1027	26,61
1027,4	30,01
1027,8	24,238
1028,2	20,495
1028,6	15,724
1029	5,152
1029,5	3,667
1029,9	9,752
1030,3	6,352
1030,7	11,181
1031,1	14,067
1031,5	21,352
1032	25,895
1032,4	24,524
1032,8	18,495
1033,2	20,267
1033,6	17,095
1034	18,381
1034,4	13,095
1034,9	14,152
1035,3	13,81
1035,7	15,638
1036,1	15,381
1036,5	17,352
1036,9	13,924
1037,4	12,067
1037,8	13,981
1038,2	12,667
1038,6	12,552
1039	10,924
1039,4	12,238
1039,8	10,61
1040,3	12,695
1040,7	7,41
1041,1	7,581
1041,5	10,667
1041,9	8,695
1042,3	7,324
1042,7	11,724
1043,2	11,181
1043,6	21,238
1044	21,838
1044,4	16,467
1044,8	18,695
1045,2	21,238
1045,6	19,781
1046,1	17,238
1046,5	8,838
1046,9	8,324
1047,3	10,867
1047,7	10,752
1048,1	5,61
1048,5	5,838
1049	10,581
1049,4	12,638
1049,8	9,952
1050,2	7,238
1050,6	4,552
1051	4,467
1051,4	6,381
1051,9	-1,99
1052,3	-2,448
1052,7	0,381
1053,1	0,267
1053,5	0,152
1053,9	4,41
1054,3	-1,562
1054,8	2,295
1055,2	-2,362
1055,6	-3,219
1056	-4,162
1056,4	0,981
1056,8	-2,619
1057,2	1,267
1057,6	5,324
1058,1	15,467
1058,5	14,067
1058,9	12,952
1059,3	7,552
1059,7	5,752
1060,1	10,124
1060,5	5,267
1061	-0,533
1061,4	3,952
1061,8	10,524
1062,2	14,01
1062,6	19,124
1063	17,095
1063,4	18,21
1063,8	18,181
1064,3	16,381
1064,7	12,724
1065,1	15,152
1065,5	14,21
1065,9	17,067
1066,3	17,981
1066,7	16,81
1067,1	10,752
1067,6	15,038
1068	12,41
1068,4	13,981
1068,8	5,81
1069,2	6,467
1069,6	9,638
1070	17,438
1070,4	12,095
1070,9	8,495
1071,3	9,781
1071,7	13,41
1072,1	10,581
1072,5	8,095
1072,9	3,867
1073,3	10,324
1073,7	15,838
1074,2	12,952
1074,6	9,21
1075	9,867
1075,4	14,524
1075,8	15,952
1076,2	12,124
1076,6	12,124
1077	9,352
1077,5	12,695
1077,9	12,181
1078,3	5,924
1078,7	3,124
1079,1	4,495
1079,5	2,038
1079,9	0,895
1080,3	0,61
1080,7	4,152
1081,2	7,838
1081,6	9,01
1082	7,267
1082,4	3,381
1082,8	5,495
1083,2	7,581
1083,6	3,724
1084	1,667
1084,5	4,352
1084,9	-0,705
1085,3	2,895
1085,7	7,895
1086,1	8,181
1086,5	6,295
1086,9	7,524
1087,3	3,152
1087,7	5,581
1088,2	4,095
1088,6	0,495
1089	-3,99
1089,4	2,095
1089,8	0,781
1090,2	1,581
1090,6	2,124
1091	6,581
1091,4	6,21
1091,9	9,467
1092,3	7,124
1092,7	8,638
1093,1	9,324
1093,5	11,467
1093,9	7,038
1094,3	10,467
1094,7	9,752
1095,1	12,838
1095,5	7,067
1096	8,924
1096,4	6,838
1096,8	8,095
1097,2	3,295
1097,6	6,41
1098	2,924
1098,4	9,781
1098,8	10,21
1099,2	11,467
1099,6	8,695
1100,1	10,81
1100,5	9,552
1100,9	12,838
1101,3	12,952
1101,7	13,524
1102,1	16,867
1102,5	13,324
1102,9	8,81
1103,3	6,695
1103,7	3,552
1104,2	3,467
1104,6	4,781
1105	4,095
1105,4	11,695
1105,8	13,81
1106,2	12,638
1106,6	11,752
1107	9,81
1107,4	7,233
1107,8	3,347
1108,3	-0,233
