Data from Subt2_00010.txt Node
Date: Fri Jul 14 14:14:55 MSK 2023
User: vat
Spectrometer: MAYP114033
Trigger mode: 0
Integration Time (sec): 5,000000E-1
Scans to average: 5
Electric dark correction enabled: true
Nonlinearity correction enabled: false
Boxcar width: 0
XAxis mode: Wavelengths
Number of Pixels in Spectrum: 2068
>>>>>Begin Spectral Data<<<<<
199,4	10,667
199,9	-3,533
200,4	-2,733
200,8	0,867
201,3	72,267
201,8	87,667
202,2	98,267
202,7	88,667
203,2	94,267
203,6	73,467
204,1	63,867
204,6	77,267
205	101,867
205,5	113,467
206	73,467
206,4	106,067
206,9	86,867
207,4	90,267
207,8	92,667
208,3	111,267
208,8	107,067
209,2	88,867
209,7	86,267
210,2	100,467
210,6	123,667
211,1	95,867
211,5	90,667
212	104,067
212,5	125,667
212,9	92,267
213,4	106,067
213,9	111,467
214,3	89,867
214,8	136,067
215,3	124,067
215,7	125,667
216,2	110,667
216,7	145,267
217,1	119,867
217,6	125,267
218,1	111,667
218,5	137,467
219	115,667
219,5	134,867
219,9	123,467
220,4	133,467
220,9	130,467
221,3	137,467
221,8	119,867
222,3	124,467
222,7	136,867
223,2	134,067
223,6	110,667
224,1	105,067
224,6	120,867
225	122,267
225,5	143,267
226	122,067
226,4	136,867
226,9	108,467
227,4	91,867
227,8	132,667
228,3	113,467
228,8	133,267
229,2	134,867
229,7	102,467
230,2	127,067
230,6	163,667
231,1	125,867
231,5	136,067
232	134,667
232,5	120,267
232,9	145,867
233,4	123,067
233,9	148,667
234,3	145,267
234,8	126,867
235,3	144,867
235,7	130,267
236,2	118,067
236,7	144,867
237,1	121,267
237,6	123,867
238,1	138,267
238,5	133,867
239	123,067
239,4	141,667
239,9	145,267
240,4	139,267
240,8	118,867
241,3	121,267
241,8	100,867
242,2	126,067
242,7	152,667
243,2	114,067
243,6	119,467
244,1	124,067
244,6	157,267
245	142,467
245,5	130,267
245,9	146,467
246,4	135,067
246,9	148,467
247,3	105,067
247,8	132,067
248,3	143,467
248,7	128,467
249,2	110,867
249,7	127,467
250,1	111,067
250,6	129,267
251	124,867
251,5	125,067
252	120,267
252,4	146,467
252,9	148,267
253,4	125,267
253,8	117,667
254,3	130,867
254,8	122,867
255,2	134,267
255,7	124,267
256,1	127,467
256,6	135,867
257,1	128,067
257,5	122,067
258	141,467
258,5	134,267
258,9	115,067
259,4	109,467
259,9	93,067
260,3	114,867
260,8	120,867
261,2	170,867
261,7	106,467
262,2	153,267
262,6	120,267
263,1	155,067
263,6	118,867
264	144,667
264,5	131,067
264,9	130,867
265,4	146,467
265,9	120,667
266,3	122,667
266,8	118,067
267,3	156,867
267,7	103,667
268,2	137,267
268,7	139,667
269,1	120,067
269,6	111,667
270	105,867
270,5	143,667
271	114,067
271,4	140,467
271,9	161,867
272,4	105,067
272,8	126,667
273,3	140,067
273,7	107,867
274,2	156,267
274,7	128,067
275,1	127,867
275,6	139,667
276,1	141,467
276,5	137,667
277	152,267
277,4	123,067
277,9	137,867
278,4	134,667
278,8	117,267
279,3	116,867
279,8	111,667
280,2	118,867
280,7	113,267
281,1	111,667
281,6	128,267
282,1	121,067
282,5	104,667
283	132,667
283,4	133,467
283,9	108,467
284,4	127,067
284,8	94,867
285,3	128,467
285,8	135,867
286,2	121,467
286,7	115,867
287,1	127,467
287,6	119,867
288,1	135,867
288,5	109,867
289	129,067
289,5	126,267
289,9	121,667
290,4	141,267
290,8	129,867
291,3	119,067
291,8	133,467
292,2	105,467
292,7	122,467
293,1	110,267
293,6	120,067
294,1	162,267
294,5	124,067
295	128,867
295,5	138,667
295,9	117,867
296,4	102,067
296,8	118,667
297,3	131,067
297,8	132,667
298,2	122,867
298,7	131,867
299,1	172,467
299,6	147,467
300,1	108,267
300,5	108,267
301	124,067
301,5	126,067
301,9	109,467
302,4	149,067
302,8	123,467
303,3	158,667
303,8	140,267
304,2	131,467
304,7	153,067
305,1	138,467
305,6	133,667
306,1	89,667
306,5	128,067
307	109,267
307,4	140,467
307,9	103,667
308,4	116,467
308,8	104,867
309,3	123,467
309,8	118,867
310,2	128,067
310,7	153,867
311,1	134,067
311,6	97,667
312,1	143,467
312,5	116,067
313	125,067
313,4	110,867
313,9	97,467
314,4	132,667
314,8	144,667
315,3	119,467
315,7	125,867
316,2	133,667
316,7	134,667
317,1	142,067
317,6	112,067
318	110,267
318,5	117,867
319	106,867
319,4	124,067
319,9	145,467
320,3	135,667
320,8	131,867
321,3	120,467
321,7	140,467
322,2	127,267
322,6	109,267
323,1	113,067
323,6	109,067
324	140,067
324,5	130,867
324,9	111,267
325,4	118,867
325,9	128,067
326,3	113,267
326,8	129,267
327,2	108,067
327,7	133,467
328,2	133,867
328,6	135,467
329,1	123,667
329,5	127,067
330	119,667
330,5	124,467
330,9	146,867
331,4	129,067
331,8	125,867
332,3	121,467
332,8	166,867
333,2	110,667
333,7	128,267
334,1	130,067
334,6	105,467
335,1	109,467
335,5	110,267
336	123,267
336,4	122,067
336,9	104,867
337,4	105,467
337,8	115,467
338,3	125,067
338,7	104,067
339,2	115,067
339,7	120,667
340,1	105,267
340,6	135,667
341	156,067
341,5	106,267
342	143,467
342,4	112,467
342,9	134,067
343,3	142,667
343,8	130,667
344,2	134,467
344,7	140,667
345,2	128,067
345,6	106,867
346,1	108,667
346,5	137,667
347	120,667
347,5	149,467
347,9	165,267
348,4	129,067
348,8	105,667
349,3	116,267
349,8	134,067
350,2	121,067
350,7	118,267
351,1	118,467
351,6	135,267
352	130,467
352,5	136,467
353	130,867
353,4	118,667
353,9	135,667
354,3	131,867
354,8	129,867
355,3	153,467
355,7	142,667
356,2	146,267
356,6	159,267
357,1	153,867
357,5	172,667
358	166,267
358,5	186,667
358,9	201,067
359,4	216,867
359,8	234,467
360,3	244,667
360,8	272,467
361,2	250,667
361,7	264,667
362,1	313,067
362,6	347,467
363	390,267
363,5	414,667
364	424,067
364,4	456,267
364,9	493,467
365,3	539,067
365,8	550,267
366,3	594,067
366,7	614,667
367,2	649,067
367,6	635,067
368,1	661,267
368,5	697,467
369	704,067
369,5	691,267
369,9	713,067
370,4	698,067
370,8	684,467
371,3	656,467
371,7	639,067
372,2	629,867
372,7	620,867
373,1	587,067
373,6	543,867
374	528,467
374,5	526,067
374,9	467,467
375,4	428,267
375,9	433,067
376,3	375,467
376,8	383,667
377,2	350,667
377,7	331,667
378,2	310,267
378,6	315,267
379,1	274,867
379,5	272,467
380	253,667
380,4	272,867
380,9	243,867
381,4	210,867
381,8	216,267
382,3	212,467
382,7	237,667
383,2	189,267
383,6	209,467
384,1	189,267
384,6	183,667
385	179,267
385,5	188,867
385,9	200,267
386,4	159,267
386,8	179,667
387,3	190,267
387,7	186,667
388,2	154,667
388,7	144,267
389,1	140,067
389,6	160,667
390	176,467
390,5	159,467
390,9	158,067
391,4	159,867
391,9	135,867
392,3	134,667
392,8	157,067
393,2	141,867
393,7	127,467
394,1	165,867
394,6	128,667
395,1	143,667
395,5	156,667
396	138,267
396,4	148,667
396,9	135,067
397,3	157,067
397,8	141,267
398,2	129,067
398,7	147,067
399,2	138,267
399,6	132,667
400,1	143,667
400,5	132,667
401	153,067
401,4	136,467
401,9	144,667
402,4	173,667
402,8	143,267
403,3	165,067
403,7	151,067
404,2	112,467
404,6	138,667
405,1	147,267
405,5	164,267
406	142,467
406,5	130,467
406,9	131,267
407,4	163,867
407,8	137,667
408,3	142,067
408,7	150,867
409,2	144,467
409,6	148,867
410,1	153,867
410,6	130,067
411	132,467
411,5	145,067
411,9	150,867
412,4	179,867
412,8	133,067
413,3	164,267
413,7	179,867
414,2	162,467
414,7	148,467
415,1	161,867
415,6	152,867
416	136,867
416,5	174,867
416,9	153,067
417,4	191,067
417,8	168,067
418,3	206,667
418,8	156,867
419,2	169,667
419,7	187,267
420,1	189,667
420,6	164,067
421	219,067
421,5	197,267
421,9	197,467
422,4	197,867
422,8	201,467
423,3	213,067
423,8	168,067
424,2	196,267
424,7	207,067
425,1	212,667
425,6	194,267
426	197,667
426,5	216,067
426,9	223,867
427,4	224,267
427,9	228,867
428,3	214,667
428,8	219,867
429,2	242,067
429,7	214,467
430,1	258,267
430,6	226,267
431	227,467
431,5	274,867
431,9	260,467
432,4	264,267
432,8	247,667
433,3	281,667
433,8	267,667
434,2	279,867
434,7	293,267
435,1	302,467
435,6	289,267
436	293,667
436,5	312,667
436,9	328,267
437,4	335,667
437,8	335,067
438,3	343,867
438,8	341,067
439,2	373,467
439,7	402,667
440,1	415,867
440,6	382,467
441	413,667
441,5	430,667
441,9	433,467
442,4	433,867
442,8	468,667
443,3	488,067
443,7	490,867
444,2	531,667
444,7	561,467
445,1	546,667
445,6	552,267
446	560,067
446,5	620,667
446,9	626,867
447,4	638,867
447,8	649,267
448,3	688,267
448,7	692,267
449,2	707,067
449,6	751,467
450,1	752,867
450,6	763,267
451	789,467
451,5	816,067
451,9	857,867
452,4	900,867
452,8	898,667
453,3	911,067
453,7	945,067
454,2	957,867
454,6	1004,867
455,1	1021,267
455,5	1090,867
456	1098,867
456,4	1091,067
456,9	1136,467
457,3	1195,467
457,8	1174,667
458,3	1179,267
458,7	1249,667
459,2	1298,467
459,6	1327,867
460,1	1338,867
460,5	1357,267
461	1415,067
461,4	1481,467
461,9	1479,467
462,3	1471,867
462,8	1531,067
463,2	1523,467
463,7	1589,467
464,1	1610,067
464,6	1612,467
465	1653,267
465,5	1711,267
466	1717,067
466,4	1786,067
466,9	1786,067
467,3	1816,267
467,8	1877,667
468,2	1927,667
468,7	1945,867
469,1	1962,667
469,6	2020,867
470	1996,467
470,5	2022,067
470,9	2080,267
471,4	2130,467
471,8	2140,267
472,3	2149,067
472,7	2217,867
473,2	2244,467
473,6	2261,667
474,1	2284,267
474,5	2341,667
475	2354,867
475,4	2363,667
475,9	2414,467
476,4	2455,067
476,8	2462,667
477,3	2498,067
477,7	2528,267
478,2	2566,667
478,6	2563,067
479,1	2628,267
479,5	2608,467
480	2638,267
480,4	2660,867
480,9	2673,667
481,3	2687,667
481,8	2732,667
482,2	2756,067
482,7	2759,067
483,1	2768,067
483,6	2810,467
484	2816,267
484,5	2838,867
484,9	2807,267
485,4	2894,667
485,8	2892,067
486,3	2877,667
486,7	2915,867
487,2	2905,267
487,6	2877,267
488,1	2933,267
488,5	2948,667
489	2984,267
489,4	2972,467
489,9	2959,867
490,4	2983,667
490,8	3000,067
491,3	2975,267
491,7	3041,267
492,2	2987,467
492,6	2986,267
493,1	2997,667
493,5	2999,067
494	3005,067
494,4	2968,867
494,9	3005,867
495,3	3054,867
495,8	2993,067
496,2	3020,267
496,7	3031,267
497,1	2958,667
497,6	2977,867
498	3039,467
498,5	2990,667
498,9	3001,267
499,4	2972,067
499,8	2973,467
500,3	2949,067
500,7	2979,667
501,2	2992,067
501,6	2953,067
502,1	2929,467
502,5	2938,067
503	2960,067
503,4	2959,867
503,9	2930,667
504,3	2938,667
504,8	2920,267
505,2	2929,867
505,7	2904,067
506,1	2867,667
506,6	2893,067
507	2885,067
507,5	2857,467
507,9	2839,667
508,4	2826,467
508,8	2826,067
509,3	2829,667
509,7	2795,467
510,2	2807,467
510,6	2784,867
511,1	2777,067
511,5	2796,467
512	2765,267
512,4	2751,667
512,9	2741,467
513,3	2705,467
513,8	2679,867
514,2	2727,667
514,7	2664,867
515,1	2654,067
515,6	2720,467
516	2654,267
516,5	2634,467
516,9	2630,067
517,4	2635,067
517,8	2583,267
518,3	2592,667
518,7	2618,867
519,2	2517,867
519,6	2556,267
520,1	2515,267
520,5	2499,067
521	2507,867
521,4	2471,667
521,9	2493,667
522,3	2464,667
522,8	2468,867
523,2	2460,667
523,7	2428,067
524,1	2402,667
524,6	2417,267
525	2359,267
525,5	2373,267
525,9	2402,667
526,4	2363,067
526,8	2336,867
527,3	2352,467
527,7	2372,267
528,2	2317,667
528,6	2283,667
529,1	2286,667
529,5	2307,467
530	2288,867
530,4	2232,067
530,9	2244,267
531,3	2233,867
531,8	2218,667
532,2	2228,867
532,6	2207,067
533,1	2213,467
533,5	2158,267
534	2181,667
534,4	2179,667
534,9	2204,667
535,3	2175,467
535,8	2131,267
536,2	2110,267
536,7	2165,267
537,1	2102,467
537,6	2090,467
538	2105,067
538,5	2101,467
538,9	2074,667
539,4	2097,867
539,8	2059,267
540,3	2066,867
540,7	2068,667
541,2	2075,867
541,6	2022,867
542,1	2044,267
542,5	2010,867
543	2009,067
543,4	2013,867
543,9	1998,067
544,3	1969,067
544,8	1965,067
545,2	1991,867
545,7	1959,267
546,1	1956,267
546,5	1970,867
547	1959,467
547,4	1956,867
547,9	1927,467
548,3	1957,667
548,8	1929,067
549,2	1918,267
549,7	1909,267
550,1	1893,867
550,6	1897,667
551	1869,867
551,5	1870,267
551,9	1888,067
552,4	1879,267
552,8	1880,067
553,3	1898,667
553,7	1888,067
554,2	1870,267
554,6	1790,067
555,1	1866,467
555,5	1821,667
555,9	1827,867
556,4	1840,267
556,8	1838,467
557,3	1864,267
557,7	1833,667
558,2	1811,667
558,6	1797,067
559,1	1826,867
559,5	1791,067
560	1813,067
560,4	1822,267
560,9	1814,467
561,3	1783,267
561,8	1767,067
562,2	1783,467
562,7	1780,867
563,1	1785,267
563,6	1797,067
564	1761,467
564,4	1756,067
564,9	1727,867
565,3	1751,467
565,8	1691,067
566,2	1742,067
566,7	1750,867
567,1	1748,467
567,6	1704,667
568	1755,667
568,5	1744,667
568,9	1709,467
569,4	1715,867
569,8	1730,667
570,3	1665,667
570,7	1700,867
571,1	1660,867
571,6	1661,267
572	1718,267
572,5	1670,467
572,9	1656,467
573,4	1684,667
573,8	1695,667
574,3	1647,667
574,7	1652,067
575,2	1634,867
575,6	1638,867
576,1	1641,867
576,5	1629,267
576,9	1613,867
577,4	1664,867
577,8	1627,467
578,3	1598,867
578,7	1623,067
579,2	1640,267
579,6	1601,267
580,1	1609,867
580,5	1592,667
581	1584,267
581,4	1586,667
581,9	1584,867
582,3	1585,667
582,7	1569,867
583,2	1598,667
583,6	1552,467
584,1	1561,267
584,5	1546,867
585	1564,067
585,4	1566,467
585,9	1514,667
586,3	1530,667
586,8	1540,867
587,2	1532,267
587,6	1526,267
588,1	1499,667
588,5	1464,267
589	1503,067
589,4	1511,267
589,9	1476,267
590,3	1511,467
590,8	1501,467
591,2	1509,467
591,7	1508,867
592,1	1492,867
592,5	1483,467
593	1418,867
593,4	1461,467
593,9	1462,467
594,3	1515,867
594,8	1455,467
595,2	1489,867
595,7	1455,867
596,1	1436,267
596,6	1431,267
597	1436,067
597,4	1420,067
597,9	1406,867
598,3	1422,867
598,8	1403,867
599,2	1447,867
599,7	1378,867
600,1	1393,867
600,6	1397,467
601	1365,467
601,4	1403,267
601,9	1416,667
602,3	1387,667
602,8	1390,267
603,2	1389,267
603,7	1380,467
604,1	1378,467
604,6	1355,867
605	1380,267
605,4	1379,467
605,9	1322,267
606,3	1359,467
606,8	1364,467
607,2	1333,667
607,7	1322,267
608,1	1326,667
608,6	1333,267
609	1315,267
609,4	1309,867
609,9	1296,867
610,3	1305,667
610,8	1289,067
611,2	1284,467
611,7	1287,867
612,1	1331,067
612,6	1262,067
613	1300,067
613,4	1310,667
613,9	1274,467
614,3	1254,667
614,8	1240,067
615,2	1257,667
615,7	1250,867
616,1	1256,667
616,6	1220,467
617	1244,667
617,4	1262,467
617,9	1226,467
618,3	1224,667
618,8	1205,667
619,2	1213,867
619,7	1237,667
620,1	1220,267
620,5	1188,867
621	1213,067
621,4	1210,067
621,9	1196,467
622,3	1168,467
622,8	1165,867
623,2	1205,267
623,6	1147,067
624,1	1175,467
624,5	1167,467
625	1145,867
625,4	1142,467
625,9	1146,867
626,3	1151,667
626,8	1137,667
627,2	1137,467
627,6	1113,467
628,1	1103,867
628,5	1122,267
629	1119,067
629,4	1115,067
629,9	1071,867
630,3	1114,467
630,7	1079,867
631,2	1058,467
631,6	1074,467
632,1	1099,267
632,5	1051,867
633	1038,267
633,4	1041,667
633,8	1076,867
634,3	1061,467
634,7	1097,867
635,2	1023,467
635,6	1043,067
636,1	1026,667
636,5	1036,867
636,9	1012,667
637,4	987,867
637,8	1036,067
638,3	1030,267
638,7	994,067
639,2	1021,667
639,6	991,267
640	985,067
640,5	997,067
640,9	1004,667
641,4	967,467
641,8	960,867
642,2	990,467
642,7	970,867
643,1	936,267
643,6	978,067
644	1003,867
644,5	961,067
644,9	941,867
645,3	949,467
645,8	932,267
646,2	948,667
646,7	971,267
647,1	931,467
647,6	937,267
648	897,667
648,4	921,867
648,9	918,267
649,3	905,267
649,8	909,667
650,2	943,467
650,6	899,867
651,1	886,667
651,5	923,867
652	891,667
652,4	870,867
652,9	909,267
653,3	898,267
653,7	868,867
654,2	897,667
654,6	892,267
655,1	843,867
655,5	874,067
655,9	850,067
656,4	861,267
656,8	826,067
657,3	860,267
657,7	863,467
658,2	852,467
658,6	835,667
659	837,467
659,5	838,067
659,9	813,467
660,4	825,667
660,8	828,467
661,2	851,667
661,7	818,267
662,1	827,267
662,6	814,267
663	812,067
663,4	782,067
663,9	825,267
664,3	778,467
664,8	788,267
665,2	769,067
665,6	763,267
666,1	767,067
666,5	781,867
667	759,067
667,4	768,867
667,9	715,067
668,3	767,067
668,7	738,667
669,2	769,467
669,6	729,067
670,1	756,067
670,5	733,267
670,9	743,467
671,4	740,667
671,8	702,067
672,3	754,467
672,7	704,667
673,1	730,867
673,6	702,267
674	725,867
674,5	696,267
674,9	705,867
675,3	699,867
675,8	707,667
676,2	701,867
676,7	680,867
677,1	691,667
677,5	695,067
678	665,467
678,4	682,267
678,9	662,267
679,3	674,267
679,7	694,667
680,2	665,067
680,6	670,267
681,1	654,867
681,5	672,067
681,9	671,067
682,4	640,667
682,8	664,667
683,3	651,867
683,7	662,067
684,1	623,867
684,6	655,067
685	617,867
685,5	597,867
685,9	627,267
686,3	642,667
686,8	643,267
687,2	610,267
687,7	634,267
688,1	619,867
688,5	616,067
689	593,267
689,4	596,667
689,9	593,467
690,3	620,467
690,7	614,067
691,2	589,267
691,6	602,467
692	568,867
692,5	608,467
692,9	594,467
693,4	572,667
693,8	595,467
694,2	601,667
694,7	575,067
695,1	586,067
695,6	565,467
696	578,667
696,4	583,467
696,9	548,067
697,3	538,867
697,8	524,467
698,2	528,667
698,6	563,067
699,1	544,467
699,5	558,867
699,9	539,267
700,4	555,067
700,8	555,067
701,3	551,467
701,7	534,267
702,1	527,067
702,6	538,067
703	511,467
703,5	552,467
703,9	499,267
704,3	530,667
704,8	502,067
705,2	505,267
705,6	544,067
706,1	538,267
706,5	511,667
707	505,267
707,4	540,467
707,8	508,467
708,3	482,867
708,7	490,867
709,2	503,467
709,6	512,267
710	520,867
710,5	488,067
710,9	509,267
711,3	469,867
711,8	517,467
712,2	472,667
712,7	473,467
713,1	471,867
713,5	490,067
714	451,667
714,4	469,067
714,8	496,467
715,3	443,867
715,7	501,867
716,2	481,867
716,6	455,267
717	491,267
717,5	456,667
717,9	454,067
718,3	444,667
718,8	460,867
719,2	469,467
719,7	438,067
720,1	442,667
720,5	458,867
721	449,067
721,4	427,667
721,8	422,467
722,3	418,067
722,7	431,467
723,2	425,667
723,6	442,067
724	434,467
724,5	422,867
724,9	400,267
725,3	410,667
725,8	426,867
726,2	419,667
726,7	406,067
727,1	391,267
727,5	375,267
728	399,867
728,4	411,267
728,8	404,067
729,3	398,267
729,7	403,067
730,1	381,067
730,6	389,667
731	403,067
731,5	394,867
731,9	381,267
732,3	396,867
732,8	357,067
733,2	388,467
733,6	383,467
734,1	364,067
734,5	382,267
734,9	388,467
735,4	371,467
735,8	385,667
736,3	392,067
736,7	369,267
737,1	389,267
737,6	372,867
738	354,467
738,4	357,067
738,9	360,067
739,3	384,667
739,7	372,467
740,2	353,067
740,6	382,067
741,1	393,267
741,5	380,067
741,9	366,667
742,4	331,467
742,8	352,267
743,2	348,467
743,7	338,667
744,1	360,467
744,5	360,267
745	382,267
745,4	348,667
745,8	338,667
746,3	344,267
746,7	371,067
747,2	328,267
747,6	338,467
748	335,267
748,5	351,067
748,9	365,267
749,3	315,867
749,8	343,067
750,2	327,067
750,6	331,867
751,1	347,067
751,5	338,867
751,9	356,267
752,4	326,267
752,8	317,067
753,3	341,467
753,7	303,067
754,1	312,867
754,6	314,667
755	320,067
755,4	315,667
755,9	314,267
756,3	305,467
756,7	337,667
757,2	321,867
757,6	311,067
758	299,467
758,5	310,867
758,9	291,467
759,3	309,467
759,8	308,667
760,2	312,867
760,6	287,267
761,1	301,067
761,5	298,467
761,9	300,267
762,4	311,467
762,8	296,267
763,3	296,067
763,7	286,067
764,1	295,067
764,6	295,267
765	294,267
765,4	283,867
765,9	282,867
766,3	276,067
766,7	277,867
767,2	290,467
767,6	302,267
768	278,267
768,5	290,067
768,9	283,467
769,3	277,067
769,8	266,867
770,2	297,867
770,6	283,467
771,1	268,067
771,5	274,067
771,9	262,467
772,4	298,667
772,8	272,867
773,2	267,267
773,7	286,667
774,1	299,467
774,5	265,467
775	266,067
775,4	256,267
775,8	268,267
776,3	255,867
776,7	293,867
777,1	277,467
777,6	267,867
778	267,067
778,4	288,467
778,9	251,267
779,3	248,467
779,7	245,867
780,2	251,667
780,6	236,267
781	273,867
781,5	272,067
781,9	263,667
782,3	265,067
782,8	321,667
783,2	254,067
783,6	245,467
784,1	262,267
784,5	262,067
784,9	267,667
785,4	239,267
785,8	250,667
786,2	240,867
786,7	264,067
787,1	271,867
787,5	207,667
788	264,867
788,4	253,467
788,8	233,067
789,3	228,867
789,7	268,067
790,1	233,867
790,6	233,867
791	222,867
791,4	215,467
791,9	246,067
792,3	235,867
792,7	243,867
793,2	266,867
793,6	214,867
794	220,667
794,5	239,067
794,9	220,667
795,3	229,067
795,8	222,067
796,2	231,067
796,6	251,067
797,1	242,067
797,5	234,867
797,9	217,067
798,4	255,267
798,8	230,667
799,2	240,067
799,7	221,267
800,1	224,267
800,5	238,067
801	227,667
801,4	207,467
801,8	241,067
802,2	198,867
802,7	222,267
803,1	222,867
803,5	237,067
804	207,867
804,4	205,067
804,8	210,067
805,3	217,467
805,7	224,467
806,1	204,467
806,6	233,867
807	210,867
807,4	218,467
807,9	220,667
808,3	218,467
808,7	168,667
809,2	198,267
809,6	214,667
810	214,067
810,4	223,067
810,9	198,467
811,3	235,467
811,7	209,067
812,2	186,867
812,6	213,067
813	204,267
813,5	222,067
813,9	186,667
814,3	193,267
814,8	202,467
815,2	186,867
815,6	182,867
816,1	199,467
816,5	194,067
816,9	190,267
817,3	212,067
817,8	184,467
818,2	198,867
818,6	176,467
819,1	226,467
819,5	190,267
819,9	177,067
820,4	206,667
820,8	202,267
821,2	172,467
821,7	182,867
822,1	187,867
822,5	193,267
822,9	168,667
823,4	192,267
823,8	187,067
824,2	171,867
824,7	217,667
825,1	206,267
825,5	191,067
826	182,067
826,4	176,667
826,8	200,267
827,3	174,267
827,7	181,867
828,1	182,667
828,5	167,467
829	157,867
829,4	169,067
829,8	195,267
830,3	159,667
830,7	174,667
831,1	176,467
831,6	187,267
832	201,067
832,4	204,867
832,8	157,667
833,3	201,267
833,7	137,867
834,1	174,067
834,6	172,667
835	161,867
835,4	170,467
835,8	188,067
836,3	192,267
836,7	179,467
837,1	189,267
837,6	148,067
838	203,667
838,4	158,467
838,9	172,667
839,3	151,667
839,7	171,467
840,1	173,067
840,6	167,467
841	180,267
841,4	192,267
841,9	156,667
842,3	190,467
842,7	144,467
843,1	168,067
843,6	158,467
844	161,667
844,4	145,467
844,9	182,867
845,3	172,267
845,7	183,867
846,2	142,467
846,6	169,067
847	156,267
847,4	159,867
847,9	167,267
848,3	159,067
848,7	179,867
849,2	161,267
849,6	183,467
850	168,667
850,4	167,667
850,9	165,667
851,3	178,467
851,7	165,667
852,2	154,067
852,6	163,667
853	159,667
853,4	171,667
853,9	169,467
854,3	164,267
854,7	156,267
855,2	144,467
855,6	147,267
856	153,467
856,4	163,467
856,9	138,267
857,3	160,867
857,7	159,867
858,2	168,267
858,6	153,667
859	175,867
859,4	161,467
859,9	149,467
860,3	162,867
860,7	155,867
861,1	133,267
861,6	162,267
862	163,667
862,4	153,867
862,9	164,267
863,3	147,667
863,7	155,067
864,1	159,067
864,6	154,667
865	153,267
865,4	150,067
865,9	155,867
866,3	140,667
866,7	143,067
867,1	150,667
867,6	181,467
868	150,067
868,4	164,467
868,8	158,867
869,3	145,267
869,7	141,467
870,1	161,467
870,6	165,667
871	152,667
871,4	139,267
871,8	166,067
872,3	337,667
872,7	160,667
873,1	168,467
873,5	133,067
874	150,667
874,4	165,067
874,8	147,067
875,3	160,667
875,7	159,267
876,1	157,467
876,5	152,267
877	154,267
877,4	180,467
877,8	153,267
878,2	139,467
878,7	111,867
879,1	145,667
879,5	162,267
879,9	100,067
880,4	121,467
880,8	154,067
881,2	148,667
881,7	148,667
882,1	157,667
882,5	153,067
882,9	122,867
883,4	158,467
883,8	132,867
884,2	134,467
884,6	141,467
885,1	157,067
885,5	131,667
885,9	122,867
886,3	160,267
886,8	148,467
887,2	144,867
887,6	119,667
888	145,867
888,5	117,467
888,9	151,467
889,3	147,267
889,8	170,667
890,2	124,467
890,6	125,667
891	127,467
891,5	126,467
891,9	126,067
892,3	113,867
892,7	127,067
893,2	120,267
893,6	158,267
894	128,867
894,4	109,867
894,9	137,467
895,3	139,667
895,7	147,467
896,1	115,867
896,6	123,267
897	135,267
897,4	154,267
897,8	105,667
898,3	151,267
898,7	130,467
899,1	146,067
899,5	143,467
900	174,067
900,4	137,067
900,8	134,467
901,2	129,267
901,7	140,667
902,1	152,667
902,5	143,267
902,9	136,867
903,4	122,667
903,8	137,267
904,2	145,467
904,6	142,267
905,1	120,467
905,5	116,067
905,9	150,867
906,3	135,467
906,8	144,667
907,2	141,667
907,6	120,867
908	135,867
908,5	129,067
908,9	134,467
909,3	131,867
909,7	94,867
910,2	154,867
910,6	137,067
911	126,667
911,4	146,267
911,9	137,267
912,3	144,667
912,7	158,867
913,1	120,667
913,6	123,867
914	119,667
914,4	133,067
914,8	141,267
915,3	128,467
915,7	133,667
916,1	133,067
916,5	120,667
916,9	154,067
917,4	133,267
917,8	144,067
918,2	117,867
918,6	139,067
919,1	137,467
919,5	134,467
919,9	120,467
920,3	145,467
920,8	135,467
921,2	121,067
921,6	128,467
922	139,267
922,5	133,667
922,9	174,867
923,3	126,867
923,7	142,867
924,2	115,467
924,6	117,467
925	144,067
925,4	124,067
925,8	111,867
926,3	128,067
926,7	138,467
927,1	140,067
927,5	123,467
928	121,267
928,4	153,867
928,8	102,467
929,2	154,667
929,7	122,667
930,1	125,267
930,5	127,067
930,9	133,467
931,3	99,867
931,8	135,667
932,2	129,067
932,6	146,067
933	104,867
933,5	107,267
933,9	142,867
934,3	115,067
934,7	136,467
935,2	152,267
935,6	121,267
936	117,467
936,4	138,267
936,8	142,267
937,3	134,467
937,7	129,467
938,1	131,867
938,5	130,067
939	131,467
939,4	150,667
939,8	146,067
940,2	132,867
940,6	115,467
941,1	127,667
941,5	134,667
941,9	128,867
942,3	119,067
942,8	149,667
943,2	164,267
943,6	151,067
944	134,467
944,4	164,267
944,9	138,667
945,3	134,667
945,7	122,467
946,1	145,667
946,6	99,467
947	130,867
947,4	113,467
947,8	135,467
948,2	132,267
948,7	144,467
949,1	135,467
949,5	125,267
949,9	111,067
950,3	121,667
950,8	123,867
951,2	137,867
951,6	131,267
952	122,867
952,5	152,267
952,9	127,067
953,3	98,667
953,7	126,867
954,1	137,467
954,6	111,867
955	111,067
955,4	132,067
955,8	128,267
956,2	151,667
956,7	110,467
957,1	124,667
957,5	141,867
957,9	107,867
958,3	155,067
958,8	125,467
959,2	129,867
959,6	133,267
960	132,067
960,5	120,067
960,9	110,667
961,3	106,267
961,7	154,867
962,1	108,667
962,6	104,067
963	110,867
963,4	149,867
963,8	89,267
964,2	131,667
964,7	114,267
965,1	132,467
965,5	98,667
965,9	127,067
966,3	124,267
966,8	137,267
967,2	119,267
967,6	106,667
968	139,067
968,4	120,067
968,9	139,867
969,3	120,267
969,7	114,667
970,1	122,267
970,5	134,667
971	118,067
971,4	116,467
971,8	110,667
972,2	142,267
972,6	135,067
973,1	141,067
973,5	114,267
973,9	127,067
974,3	112,667
974,7	130,267
975,2	152,267
975,6	135,867
976	120,067
976,4	129,667
976,8	112,467
977,3	103,067
977,7	137,467
978,1	134,067
978,5	136,267
978,9	140,067
979,4	135,867
979,8	135,067
980,2	99,067
980,6	124,667
981	102,867
981,5	106,467
981,9	126,067
982,3	175,467
982,7	141,467
983,1	129,867
983,6	124,667
984	122,267
984,4	123,067
984,8	140,267
985,2	139,667
985,6	141,667
986,1	121,667
986,5	129,067
986,9	124,667
987,3	119,867
987,7	105,067
988,2	137,667
988,6	103,267
989	133,267
989,4	139,067
989,8	152,467
990,3	146,067
990,7	139,667
991,1	102,867
991,5	109,867
991,9	133,467
992,3	111,067
992,8	106,467
993,2	138,267
993,6	134,867
994	143,667
994,4	122,267
994,9	115,467
995,3	152,067
995,7	153,067
996,1	136,267
996,5	120,267
996,9	122,267
997,4	117,667
997,8	140,267
998,2	178,867
998,6	140,467
999	114,267
999,5	112,067
999,9	139,267
1000,3	139,667
1000,7	128,467
1001,1	123,467
1001,5	137,067
1002	134,667
1002,4	108,267
1002,8	144,467
1003,2	129,867
1003,6	110,267
1004	124,667
1004,5	110,667
1004,9	120,867
1005,3	120,667
1005,7	130,467
1006,1	132,267
1006,6	118,667
1007	134,867
1007,4	125,667
1007,8	112,467
1008,2	110,667
1008,6	110,667
1009,1	115,467
1009,5	124,067
1009,9	139,067
1010,3	138,267
1010,7	140,267
1011,1	116,267
1011,6	150,067
1012	140,467
1012,4	119,667
1012,8	126,467
1013,2	126,467
1013,6	125,267
1014,1	133,467
1014,5	145,267
1014,9	121,467
1015,3	118,467
1015,7	126,467
1016,1	137,267
1016,6	125,667
1017	136,067
1017,4	107,867
1017,8	124,067
1018,2	143,467
1018,6	162,467
1019,1	129,667
1019,5	144,667
1019,9	163,067
1020,3	110,667
1020,7	143,267
1021,1	142,667
1021,6	149,467
1022	124,467
1022,4	141,067
1022,8	113,867
1023,2	145,667
1023,6	153,467
1024,1	154,067
1024,5	111,667
1024,9	97,667
1025,3	130,867
1025,7	136,667
1026,1	140,667
1026,6	123,867
1027	142,867
1027,4	134,467
1027,8	154,667
1028,2	132,667
1028,6	159,267
1029	133,267
1029,5	146,867
1029,9	128,867
1030,3	130,867
1030,7	119,467
1031,1	137,467
1031,5	177,867
1032	159,667
1032,4	149,667
1032,8	162,267
1033,2	147,867
1033,6	126,067
1034	152,867
1034,4	141,267
1034,9	139,067
1035,3	149,067
1035,7	156,867
1036,1	121,667
1036,5	195,267
1036,9	150,867
1037,4	145,067
1037,8	161,467
1038,2	165,667
1038,6	149,067
1039	171,467
1039,4	151,867
1039,8	132,467
1040,3	151,867
1040,7	145,467
1041,1	186,267
1041,5	150,867
1041,9	165,467
1042,3	153,267
1042,7	161,067
1043,2	137,067
1043,6	155,867
1044	119,467
1044,4	141,867
1044,8	140,667
1045,2	150,667
1045,6	153,867
1046,1	127,267
1046,5	143,667
1046,9	167,067
1047,3	186,267
1047,7	150,067
1048,1	146,067
1048,5	142,667
1049	150,067
1049,4	150,267
1049,8	145,467
1050,2	137,667
1050,6	145,467
1051	144,267
1051,4	134,867
1051,9	177,867
1052,3	155,467
1052,7	194,267
1053,1	155,267
1053,5	165,867
1053,9	186,667
1054,3	136,867
1054,8	149,067
1055,2	170,067
1055,6	156,067
1056	152,267
1056,4	133,867
1056,8	152,867
1057,2	157,667
1057,6	165,267
1058,1	168,467
1058,5	166,467
1058,9	163,067
1059,3	159,867
1059,7	148,867
1060,1	152,067
1060,5	156,667
1061	140,867
1061,4	140,067
1061,8	165,667
1062,2	138,667
1062,6	147,267
1063	139,267
1063,4	183,867
1063,8	141,867
1064,3	155,467
1064,7	143,467
1065,1	120,267
1065,5	140,467
1065,9	151,867
1066,3	156,467
1066,7	173,867
1067,1	139,867
1067,6	164,267
1068	129,267
1068,4	179,867
1068,8	140,867
1069,2	149,667
1069,6	129,667
1070	142,467
1070,4	135,867
1070,9	129,467
1071,3	151,067
1071,7	136,667
1072,1	132,667
1072,5	117,067
1072,9	137,667
1073,3	171,067
1073,7	125,067
1074,2	133,067
1074,6	114,667
1075	137,267
1075,4	120,067
1075,8	137,667
1076,2	129,067
1076,6	128,267
1077	133,867
1077,5	136,067
1077,9	142,267
1078,3	130,267
1078,7	125,067
1079,1	137,667
1079,5	124,067
1079,9	130,867
1080,3	143,667
1080,7	136,667
1081,2	138,067
1081,6	124,867
1082	113,667
1082,4	115,467
1082,8	96,467
1083,2	125,467
1083,6	135,267
1084	163,867
1084,5	129,267
1084,9	114,267
1085,3	135,267
1085,7	126,467
1086,1	148,067
1086,5	142,267
1086,9	133,467
1087,3	113,267
1087,7	157,267
1088,2	120,867
1088,6	133,867
1089	92,467
1089,4	105,867
1089,8	137,067
1090,2	124,267
1090,6	90,667
1091	132,667
1091,4	128,667
1091,9	127,667
1092,3	115,267
1092,7	112,267
1093,1	125,667
1093,5	122,867
1093,9	116,067
1094,3	122,267
1094,7	117,667
1095,1	89,267
1095,5	96,067
1096	151,667
1096,4	154,267
1096,8	122,867
1097,2	128,667
1097,6	96,067
1098	99,267
1098,4	106,267
1098,8	92,867
1099,2	88,267
1099,6	111,467
1100,1	90,267
1100,5	90,667
1100,9	83,067
1101,3	81,667
1101,7	85,067
1102,1	105,467
1102,5	93,267
1102,9	73,667
1103,3	87,667
1103,7	76,867
1104,2	92,267
1104,6	77,267
1105	86,867
1105,4	82,667
1105,8	90,067
1106,2	77,067
1106,6	60,867
1107	-0,333
1107,4	-0,533
1107,8	2,867
1108,3	-0,133
