Data from Subt2_00013.txt Node
Date: Fri Jul 14 14:20:00 MSK 2023
User: vat
Spectrometer: MAYP114033
Trigger mode: 0
Integration Time (sec): 5,000000E-1
Scans to average: 5
Electric dark correction enabled: true
Nonlinearity correction enabled: false
Boxcar width: 0
XAxis mode: Wavelengths
Number of Pixels in Spectrum: 2068
>>>>>Begin Spectral Data<<<<<
199,4	-0,733
199,9	1,667
200,4	-0,333
200,8	0,867
201,3	21,267
201,8	6,267
202,2	-3,533
202,7	-1,933
203,2	11,667
203,6	17,267
204,1	5,867
204,6	9,067
205	16,067
205,5	20,267
206	14,267
206,4	12,467
206,9	2,667
207,4	12,267
207,8	17,867
208,3	16,067
208,8	10,067
209,2	16,267
209,7	14,067
210,2	21,867
210,6	18,067
211,1	23,467
211,5	24,867
212	9,667
212,5	31,267
212,9	21,467
213,4	32,267
213,9	15,267
214,3	12,467
214,8	27,067
215,3	14,667
215,7	22,467
216,2	17,467
216,7	18,667
217,1	29,267
217,6	16,867
218,1	22,267
218,5	24,867
219	36,867
219,5	6,467
219,9	4,267
220,4	19,067
220,9	40,467
221,3	13,067
221,8	24,667
222,3	19,267
222,7	4,467
223,2	12,667
223,6	26,267
224,1	30,867
224,6	-1,133
225	28,867
225,5	27,067
226	34,867
226,4	51,067
226,9	20,267
227,4	11,267
227,8	0,667
228,3	36,267
228,8	9,467
229,2	14,667
229,7	14,867
230,2	46,067
230,6	38,867
231,1	26,667
231,5	28,867
232	30,267
232,5	12,067
232,9	25,067
233,4	25,067
233,9	24,867
234,3	24,467
234,8	27,667
235,3	22,467
235,7	9,667
236,2	18,667
236,7	31,067
237,1	9,067
237,6	8,667
238,1	6,667
238,5	35,867
239	22,667
239,4	31,867
239,9	13,667
240,4	24,667
240,8	31,267
241,3	13,267
241,8	6,667
242,2	21,267
242,7	19,867
243,2	4,067
243,6	8,867
244,1	23,467
244,6	30,067
245	28,667
245,5	8,867
245,9	30,667
246,4	40,667
246,9	32,867
247,3	-8,533
247,8	16,667
248,3	5,467
248,7	7,867
249,2	7,667
249,7	21,067
250,1	11,267
250,6	13,267
251	-9,533
251,5	35,667
252	21,867
252,4	41,667
252,9	38,067
253,4	27,867
253,8	15,067
254,3	19,867
254,8	8,667
255,2	35,667
255,7	32,867
256,1	25,867
256,6	19,067
257,1	15,867
257,5	18,667
258	19,467
258,5	37,867
258,9	32,667
259,4	33,867
259,9	28,067
260,3	14,667
260,8	-8,133
261,2	30,467
261,7	13,267
262,2	34,467
262,6	19,467
263,1	25,067
263,6	14,267
264	48,067
264,5	24,067
264,9	8,667
265,4	36,267
265,9	-1,933
266,3	21,267
266,8	15,867
267,3	28,467
267,7	35,867
268,2	30,067
268,7	26,667
269,1	9,867
269,6	17,667
270	8,867
270,5	18,867
271	20,067
271,4	18,667
271,9	15,067
272,4	9,667
272,8	16,467
273,3	12,067
273,7	25,467
274,2	9,867
274,7	14,267
275,1	9,267
275,6	22,467
276,1	16,867
276,5	21,867
277	8,267
277,4	24,267
277,9	26,667
278,4	36,267
278,8	10,467
279,3	8,667
279,8	43,067
280,2	9,267
280,7	12,067
281,1	20,867
281,6	9,667
282,1	10,467
282,5	22,867
283	13,867
283,4	12,267
283,9	-5,333
284,4	23,667
284,8	1,067
285,3	31,667
285,8	27,667
286,2	19,867
286,7	40,267
287,1	23,267
287,6	22,867
288,1	-0,533
288,5	6,067
289	2,667
289,5	24,867
289,9	21,667
290,4	13,067
290,8	26,667
291,3	30,467
291,8	19,067
292,2	11,867
292,7	20,467
293,1	15,867
293,6	3,467
294,1	34,867
294,5	6,067
295	34,267
295,5	18,667
295,9	13,267
296,4	2,467
296,8	7,067
297,3	38,867
297,8	12,867
298,2	15,467
298,7	39,067
299,1	11,867
299,6	26,267
300,1	-2,933
300,5	18,467
301	16,467
301,5	21,867
301,9	19,667
302,4	14,067
302,8	17,267
303,3	19,667
303,8	33,867
304,2	26,467
304,7	15,067
305,1	32,267
305,6	27,867
306,1	14,267
306,5	25,867
307	20,467
307,4	29,267
307,9	16,467
308,4	21,467
308,8	29,067
309,3	27,667
309,8	15,067
310,2	20,867
310,7	23,467
311,1	12,267
311,6	11,267
312,1	8,267
312,5	18,467
313	37,267
313,4	25,067
313,9	20,467
314,4	28,467
314,8	39,467
315,3	33,067
315,7	1,667
316,2	20,467
316,7	25,267
317,1	17,867
317,6	14,867
318	17,267
318,5	30,067
319	26,667
319,4	18,067
319,9	24,467
320,3	36,467
320,8	24,267
321,3	13,467
321,7	2,867
322,2	27,667
322,6	12,067
323,1	26,467
323,6	16,667
324	16,867
324,5	-10,133
324,9	7,467
325,4	20,467
325,9	3,267
326,3	24,867
326,8	12,267
327,2	27,467
327,7	25,267
328,2	44,467
328,6	33,667
329,1	3,467
329,5	31,467
330	17,867
330,5	25,867
330,9	21,467
331,4	2,467
331,8	21,667
332,3	25,467
332,8	0,667
333,2	21,267
333,7	0,267
334,1	23,267
334,6	25,467
335,1	-3,933
335,5	6,467
336	15,267
336,4	13,667
336,9	30,067
337,4	30,667
337,8	11,067
338,3	20,867
338,7	24,267
339,2	39,267
339,7	28,267
340,1	31,467
340,6	28,667
341	17,267
341,5	22,467
342	18,267
342,4	21,667
342,9	32,467
343,3	6,467
343,8	7,867
344,2	32,267
344,7	27,867
345,2	20,667
345,6	4,267
346,1	15,867
346,5	20,667
347	35,267
347,5	18,867
347,9	22,267
348,4	30,867
348,8	19,267
349,3	17,667
349,8	16,667
350,2	5,067
350,7	37,467
351,1	30,067
351,6	30,067
352	16,467
352,5	23,067
353	36,467
353,4	30,067
353,9	18,467
354,3	35,867
354,8	24,667
355,3	30,467
355,7	43,067
356,2	36,667
356,6	58,467
357,1	50,267
357,5	61,867
358	67,067
358,5	83,667
358,9	104,867
359,4	115,467
359,8	106,867
360,3	113,067
360,8	175,467
361,2	167,067
361,7	184,467
362,1	204,267
362,6	213,267
363	244,267
363,5	292,667
364	330,067
364,4	349,067
364,9	389,467
365,3	427,267
365,8	455,267
366,3	478,467
366,7	509,667
367,2	524,667
367,6	532,667
368,1	584,867
368,5	562,067
369	560,867
369,5	553,667
369,9	582,267
370,4	579,267
370,8	551,867
371,3	528,467
371,7	521,067
372,2	497,267
372,7	476,467
373,1	453,067
373,6	438,467
374	394,467
374,5	370,867
374,9	347,067
375,4	314,267
375,9	325,267
376,3	274,467
376,8	272,267
377,2	249,667
377,7	217,667
378,2	202,667
378,6	179,467
379,1	182,867
379,5	149,067
380	138,667
380,4	144,267
380,9	131,867
381,4	118,067
381,8	109,867
382,3	105,067
382,7	111,067
383,2	95,467
383,6	103,667
384,1	87,867
384,6	94,667
385	73,867
385,5	88,467
385,9	67,467
386,4	61,867
386,8	66,667
387,3	72,067
387,7	65,267
388,2	63,267
388,7	67,467
389,1	39,067
389,6	57,067
390	56,067
390,5	43,467
390,9	48,867
391,4	41,067
391,9	59,667
392,3	36,867
392,8	46,867
393,2	32,667
393,7	38,467
394,1	49,267
394,6	48,667
395,1	52,667
395,5	43,667
396	43,867
396,4	42,467
396,9	27,267
397,3	45,067
397,8	28,067
398,2	34,267
398,7	11,667
399,2	18,067
399,6	35,667
400,1	37,067
400,5	30,267
401	42,067
401,4	35,467
401,9	43,467
402,4	31,467
402,8	43,667
403,3	13,267
403,7	57,867
404,2	45,467
404,6	20,867
405,1	27,467
405,5	40,467
406	42,667
406,5	43,867
406,9	26,867
407,4	35,667
407,8	38,267
408,3	24,467
408,7	38,467
409,2	32,867
409,6	35,267
410,1	59,667
410,6	45,467
411	25,867
411,5	60,267
411,9	55,267
412,4	72,067
412,8	43,267
413,3	48,467
413,7	44,267
414,2	65,267
414,7	49,667
415,1	55,867
415,6	66,867
416	66,667
416,5	68,067
416,9	81,467
417,4	73,067
417,8	85,067
418,3	82,467
418,8	74,267
419,2	81,267
419,7	72,067
420,1	73,467
420,6	86,667
421	100,467
421,5	83,667
421,9	90,867
422,4	101,867
422,8	85,067
423,3	108,467
423,8	94,067
424,2	107,467
424,7	103,467
425,1	111,067
425,6	112,267
426	92,267
426,5	115,467
426,9	113,867
427,4	126,667
427,9	138,667
428,3	124,467
428,8	153,067
429,2	152,467
429,7	163,467
430,1	159,867
430,6	136,467
431	148,067
431,5	183,667
431,9	177,267
432,4	172,867
432,8	175,067
433,3	201,467
433,8	198,667
434,2	208,667
434,7	232,267
435,1	240,867
435,6	252,467
436	242,267
436,5	236,467
436,9	245,067
437,4	264,867
437,8	282,067
438,3	294,267
438,8	279,067
439,2	327,267
439,7	324,867
440,1	347,067
440,6	353,267
441	359,267
441,5	377,867
441,9	407,267
442,4	415,867
442,8	436,867
443,3	453,067
443,7	452,467
444,2	508,067
444,7	501,867
445,1	562,067
445,6	568,867
446	581,267
446,5	613,467
446,9	619,267
447,4	639,467
447,8	662,267
448,3	679,867
448,7	741,867
449,2	752,867
449,6	765,267
450,1	786,467
450,6	825,467
451	844,067
451,5	869,867
451,9	910,267
452,4	951,867
452,8	962,267
453,3	980,067
453,7	1017,667
454,2	1057,467
454,6	1075,667
455,1	1101,067
455,5	1172,467
456	1182,867
456,4	1243,867
456,9	1259,467
457,3	1312,667
457,8	1324,867
458,3	1376,267
458,7	1401,467
459,2	1439,667
459,6	1462,267
460,1	1515,467
460,5	1542,467
461	1571,467
461,4	1640,467
461,9	1672,667
462,3	1702,467
462,8	1726,467
463,2	1804,067
463,7	1812,067
464,1	1861,067
464,6	1910,667
465	1909,067
465,5	1993,467
466	2043,267
466,4	2036,067
466,9	2088,467
467,3	2153,067
467,8	2177,867
468,2	2202,467
468,7	2243,067
469,1	2283,867
469,6	2338,267
470	2370,867
470,5	2409,067
470,9	2439,267
471,4	2485,667
471,8	2500,667
472,3	2580,067
472,7	2610,867
473,2	2639,267
473,6	2652,867
474,1	2702,267
474,5	2730,067
475	2761,667
475,4	2827,067
475,9	2876,867
476,4	2901,667
476,8	2888,267
477,3	2947,267
477,7	2973,467
478,2	3013,267
478,6	3064,267
479,1	3053,667
479,5	3072,867
480	3118,867
480,4	3151,867
480,9	3186,867
481,3	3212,267
481,8	3223,867
482,2	3234,267
482,7	3276,467
483,1	3317,467
483,6	3327,467
484	3379,067
484,5	3393,467
484,9	3406,067
485,4	3381,467
485,8	3429,867
486,3	3446,067
486,7	3451,267
487,2	3481,667
487,6	3478,067
488,1	3497,867
488,5	3508,867
489	3519,667
489,4	3524,267
489,9	3536,267
490,4	3552,667
490,8	3554,667
491,3	3559,067
491,7	3561,867
492,2	3593,467
492,6	3558,667
493,1	3549,667
493,5	3567,467
494	3561,067
494,4	3622,067
494,9	3563,067
495,3	3593,267
495,8	3558,467
496,2	3583,067
496,7	3571,267
497,1	3518,867
497,6	3547,667
498	3533,267
498,5	3536,067
498,9	3545,867
499,4	3541,467
499,8	3472,667
500,3	3513,467
500,7	3504,667
501,2	3524,267
501,6	3526,467
502,1	3492,867
502,5	3471,467
503	3484,867
503,4	3472,867
503,9	3414,667
504,3	3466,867
504,8	3454,867
505,2	3417,267
505,7	3422,067
506,1	3405,467
506,6	3375,067
507	3355,067
507,5	3363,067
507,9	3331,667
508,4	3307,067
508,8	3333,067
509,3	3273,467
509,7	3267,067
510,2	3256,867
510,6	3233,867
511,1	3235,267
511,5	3191,067
512	3212,067
512,4	3192,067
512,9	3139,467
513,3	3140,467
513,8	3118,467
514,2	3138,467
514,7	3112,867
515,1	3071,067
515,6	3051,467
516	3028,867
516,5	3040,667
516,9	3012,267
517,4	3010,667
517,8	2948,667
518,3	2913,067
518,7	2914,067
519,2	2907,467
519,6	2884,667
520,1	2887,667
520,5	2851,067
521	2840,067
521,4	2800,467
521,9	2806,867
522,3	2770,467
522,8	2758,667
523,2	2772,667
523,7	2765,267
524,1	2704,867
524,6	2722,867
525	2662,867
525,5	2681,467
525,9	2667,267
526,4	2637,467
526,8	2611,667
527,3	2624,067
527,7	2598,667
528,2	2565,467
528,6	2582,867
529,1	2542,267
529,5	2546,267
530	2530,667
530,4	2522,267
530,9	2524,067
531,3	2494,867
531,8	2465,867
532,2	2465,067
532,6	2424,467
533,1	2420,067
533,5	2402,267
534	2382,067
534,4	2371,467
534,9	2376,667
535,3	2368,467
535,8	2340,667
536,2	2350,067
536,7	2324,867
537,1	2283,267
537,6	2281,467
538	2263,467
538,5	2268,267
538,9	2268,267
539,4	2238,067
539,8	2228,067
540,3	2204,067
540,7	2217,667
541,2	2217,467
541,6	2197,467
542,1	2177,667
542,5	2163,667
543	2144,667
543,4	2151,467
543,9	2106,467
544,3	2130,267
544,8	2137,467
545,2	2108,267
545,7	2102,667
546,1	2077,867
546,5	2052,067
547	2053,467
547,4	2046,067
547,9	2024,667
548,3	2029,067
548,8	2033,667
549,2	1993,867
549,7	2018,267
550,1	2006,467
550,6	2000,067
551	1932,267
551,5	1990,867
551,9	1950,667
552,4	1957,267
552,8	1976,667
553,3	1953,267
553,7	1940,267
554,2	1938,067
554,6	1914,267
555,1	1900,867
555,5	1895,667
555,9	1921,467
556,4	1894,867
556,8	1899,867
557,3	1885,467
557,7	1879,267
558,2	1886,467
558,6	1869,067
559,1	1864,867
559,5	1848,667
560	1844,467
560,4	1847,467
560,9	1809,467
561,3	1825,467
561,8	1814,067
562,2	1817,867
562,7	1827,267
563,1	1813,867
563,6	1786,867
564	1766,067
564,4	1791,667
564,9	1756,467
565,3	1782,267
565,8	1775,067
566,2	1767,867
566,7	1740,867
567,1	1764,067
567,6	1742,467
568	1742,467
568,5	1734,867
568,9	1725,267
569,4	1732,067
569,8	1696,867
570,3	1714,267
570,7	1691,067
571,1	1711,067
571,6	1709,267
572	1722,467
572,5	1692,467
572,9	1665,267
573,4	1654,667
573,8	1666,867
574,3	1658,067
574,7	1663,867
575,2	1656,867
575,6	1666,467
576,1	1622,267
576,5	1658,067
576,9	1635,067
577,4	1643,067
577,8	1608,867
578,3	1617,667
578,7	1628,867
579,2	1576,467
579,6	1578,267
580,1	1578,867
580,5	1573,267
581	1593,067
581,4	1559,867
581,9	1565,067
582,3	1546,267
582,7	1551,667
583,2	1554,467
583,6	1556,267
584,1	1541,867
584,5	1529,867
585	1526,867
585,4	1516,067
585,9	1489,667
586,3	1503,867
586,8	1509,467
587,2	1499,467
587,6	1489,667
588,1	1486,867
588,5	1469,667
589	1495,067
589,4	1463,867
589,9	1485,867
590,3	1461,067
590,8	1474,667
591,2	1455,867
591,7	1456,267
592,1	1454,667
592,5	1430,067
593	1448,267
593,4	1403,467
593,9	1399,267
594,3	1422,467
594,8	1398,267
595,2	1437,667
595,7	1380,467
596,1	1393,867
596,6	1407,467
597	1381,467
597,4	1369,267
597,9	1388,467
598,3	1366,667
598,8	1377,667
599,2	1381,467
599,7	1372,267
600,1	1353,467
600,6	1350,067
601	1350,667
601,4	1343,867
601,9	1350,867
602,3	1321,067
602,8	1337,067
603,2	1319,267
603,7	1318,867
604,1	1325,467
604,6	1318,667
605	1302,067
605,4	1317,067
605,9	1315,267
606,3	1293,067
606,8	1307,067
607,2	1303,667
607,7	1275,067
608,1	1273,067
608,6	1287,667
609	1310,667
609,4	1267,067
609,9	1284,067
610,3	1260,067
610,8	1264,267
611,2	1236,267
611,7	1252,467
612,1	1250,467
612,6	1257,267
613	1222,467
613,4	1239,467
613,9	1230,867
614,3	1192,067
614,8	1204,667
615,2	1215,267
615,7	1210,067
616,1	1203,667
616,6	1171,267
617	1184,067
617,4	1184,267
617,9	1182,267
618,3	1188,667
618,8	1166,067
619,2	1189,667
619,7	1156,867
620,1	1176,667
620,5	1158,267
621	1141,867
621,4	1139,067
621,9	1161,867
622,3	1114,067
622,8	1124,267
623,2	1116,867
623,6	1122,467
624,1	1117,067
624,5	1105,267
625	1108,267
625,4	1097,067
625,9	1100,067
626,3	1096,667
626,8	1087,867
627,2	1043,667
627,6	1046,867
628,1	1059,667
628,5	1053,467
629	1054,667
629,4	1060,467
629,9	1060,467
630,3	1049,067
630,7	1044,467
631,2	1030,067
631,6	1014,667
632,1	999,267
632,5	1004,467
633	999,667
633,4	1044,067
633,8	1004,067
634,3	999,867
634,7	1003,067
635,2	995,667
635,6	968,867
636,1	1007,067
636,5	986,267
636,9	939,267
637,4	984,067
637,8	973,667
638,3	946,667
638,7	950,867
639,2	947,267
639,6	938,467
640	934,667
640,5	948,267
640,9	929,867
641,4	922,667
641,8	898,067
642,2	938,267
642,7	910,467
643,1	922,267
643,6	928,267
644	909,667
644,5	894,467
644,9	908,867
645,3	903,667
645,8	908,867
646,2	896,067
646,7	877,667
647,1	860,667
647,6	876,267
648	844,667
648,4	878,467
648,9	854,267
649,3	845,267
649,8	847,667
650,2	846,067
650,6	845,267
651,1	858,467
651,5	848,067
652	841,667
652,4	831,467
652,9	847,867
653,3	869,067
653,7	828,067
654,2	808,867
654,6	810,667
655,1	827,467
655,5	816,267
655,9	806,267
656,4	790,867
656,8	792,867
657,3	797,867
657,7	798,067
658,2	807,867
658,6	788,267
659	779,867
659,5	774,267
659,9	769,867
660,4	788,867
660,8	778,067
661,2	743,467
661,7	751,067
662,1	751,067
662,6	754,667
663	738,267
663,4	756,467
663,9	724,067
664,3	726,867
664,8	759,067
665,2	737,667
665,6	721,467
666,1	735,267
666,5	719,867
667	724,267
667,4	704,667
667,9	713,067
668,3	692,267
668,7	700,067
669,2	706,067
669,6	678,467
670,1	691,267
670,5	685,667
670,9	693,667
671,4	680,667
671,8	661,067
672,3	675,667
672,7	657,267
673,1	673,267
673,6	643,667
674	648,067
674,5	657,867
674,9	640,267
675,3	631,467
675,8	658,667
676,2	638,267
676,7	648,667
677,1	631,467
677,5	645,867
678	625,667
678,4	620,267
678,9	618,267
679,3	611,467
679,7	604,067
680,2	610,667
680,6	597,067
681,1	578,667
681,5	604,467
681,9	587,667
682,4	564,267
682,8	596,067
683,3	604,067
683,7	586,467
684,1	590,267
684,6	568,067
685	601,267
685,5	574,667
685,9	583,867
686,3	562,667
686,8	569,667
687,2	567,267
687,7	546,067
688,1	573,467
688,5	559,267
689	574,267
689,4	552,667
689,9	542,867
690,3	532,867
690,7	551,867
691,2	547,267
691,6	545,867
692	536,467
692,5	523,667
692,9	524,267
693,4	520,867
693,8	514,867
694,2	520,667
694,7	509,067
695,1	528,467
695,6	518,067
696	528,467
696,4	494,067
696,9	520,267
697,3	506,867
697,8	502,267
698,2	487,267
698,6	508,467
699,1	482,067
699,5	488,267
699,9	470,467
700,4	460,267
700,8	472,667
701,3	468,267
701,7	465,067
702,1	478,867
702,6	466,267
703	460,467
703,5	488,267
703,9	470,067
704,3	498,667
704,8	473,267
705,2	484,267
705,6	461,467
706,1	469,467
706,5	449,267
707	468,467
707,4	467,467
707,8	436,267
708,3	426,667
708,7	415,667
709,2	447,867
709,6	447,667
710	433,867
710,5	429,467
710,9	436,667
711,3	411,067
711,8	420,467
712,2	421,667
712,7	434,667
713,1	417,667
713,5	407,067
714	432,867
714,4	422,467
714,8	410,467
715,3	403,467
715,7	410,867
716,2	403,867
716,6	384,867
717	401,467
717,5	370,467
717,9	389,267
718,3	368,267
718,8	377,067
719,2	383,267
719,7	379,667
720,1	367,467
720,5	370,067
721	370,067
721,4	378,267
721,8	362,667
722,3	371,467
722,7	352,267
723,2	393,467
723,6	361,867
724	375,267
724,5	345,667
724,9	353,067
725,3	345,467
725,8	336,467
726,2	336,267
726,7	338,067
727,1	338,467
727,5	345,867
728	337,067
728,4	343,667
728,8	330,467
729,3	349,067
729,7	339,267
730,1	329,867
730,6	350,467
731	323,667
731,5	323,867
731,9	325,667
732,3	319,067
732,8	322,267
733,2	311,867
733,6	330,667
734,1	320,067
734,5	304,867
734,9	315,867
735,4	304,067
735,8	280,067
736,3	307,867
736,7	324,667
737,1	307,267
737,6	312,867
738	313,467
738,4	285,267
738,9	305,467
739,3	323,267
739,7	303,467
740,2	304,667
740,6	290,867
741,1	303,667
741,5	287,867
741,9	274,467
742,4	283,067
742,8	272,667
743,2	286,267
743,7	267,267
744,1	272,667
744,5	277,067
745	271,267
745,4	288,867
745,8	264,667
746,3	259,667
746,7	272,067
747,2	266,067
747,6	272,467
748	274,267
748,5	265,667
748,9	287,667
749,3	256,667
749,8	275,267
750,2	250,467
750,6	260,467
751,1	256,867
751,5	268,067
751,9	276,667
752,4	263,267
752,8	262,667
753,3	236,867
753,7	257,667
754,1	238,667
754,6	243,067
755	247,067
755,4	254,067
755,9	246,467
756,3	233,467
756,7	251,467
757,2	239,067
757,6	232,867
758	230,467
758,5	245,867
758,9	217,867
759,3	222,467
759,8	237,267
760,2	211,867
760,6	215,067
761,1	213,067
761,5	222,067
761,9	206,867
762,4	230,067
762,8	228,067
763,3	230,867
763,7	201,267
764,1	215,067
764,6	225,267
765	204,467
765,4	222,667
765,9	207,267
766,3	219,667
766,7	206,867
767,2	212,067
767,6	182,667
768	199,067
768,5	200,067
768,9	213,467
769,3	225,267
769,8	190,667
770,2	206,467
770,6	202,067
771,1	201,467
771,5	211,467
771,9	191,667
772,4	175,867
772,8	187,267
773,2	183,067
773,7	197,467
774,1	203,667
774,5	204,867
775	177,467
775,4	192,067
775,8	174,067
776,3	184,067
776,7	184,067
777,1	186,467
777,6	194,867
778	195,067
778,4	198,067
778,9	186,867
779,3	180,867
779,7	171,067
780,2	172,267
780,6	159,867
781	168,867
781,5	169,267
781,9	166,867
782,3	169,067
782,8	203,867
783,2	181,667
783,6	171,267
784,1	177,867
784,5	174,467
784,9	166,667
785,4	170,867
785,8	184,667
786,2	167,467
786,7	149,667
787,1	156,067
787,5	158,467
788	167,067
788,4	145,867
788,8	164,067
789,3	168,667
789,7	134,067
790,1	149,467
790,6	158,267
791	157,267
791,4	145,667
791,9	141,867
792,3	129,467
792,7	154,867
793,2	162,867
793,6	143,067
794	143,467
794,5	160,867
794,9	143,867
795,3	165,667
795,8	127,667
796,2	152,467
796,6	141,867
797,1	150,867
797,5	137,467
797,9	133,067
798,4	124,867
798,8	136,467
799,2	152,467
799,7	151,467
800,1	140,467
800,5	130,667
801	137,067
801,4	132,867
801,8	137,867
802,2	106,067
802,7	132,267
803,1	132,867
803,5	132,267
804	135,667
804,4	114,467
804,8	100,467
805,3	138,867
805,7	116,067
806,1	124,667
806,6	135,867
807	120,467
807,4	127,067
807,9	118,667
808,3	120,267
808,7	110,467
809,2	99,467
809,6	123,667
810	128,267
810,4	118,867
810,9	110,267
811,3	119,867
811,7	118,267
812,2	119,867
812,6	108,067
813	100,867
813,5	118,067
813,9	113,867
814,3	121,467
814,8	116,067
815,2	104,267
815,6	93,667
816,1	117,467
816,5	107,867
816,9	116,867
817,3	113,667
817,8	100,267
818,2	99,467
818,6	88,467
819,1	99,267
819,5	100,467
819,9	115,467
820,4	92,267
820,8	84,467
821,2	105,467
821,7	104,867
822,1	97,067
822,5	100,067
822,9	97,667
823,4	97,067
823,8	104,267
824,2	101,067
824,7	84,067
825,1	118,667
825,5	73,667
826	101,867
826,4	78,467
826,8	80,267
827,3	81,867
827,7	98,467
828,1	94,467
828,5	93,067
829	95,067
829,4	92,667
829,8	89,867
830,3	74,067
830,7	92,267
831,1	70,867
831,6	72,067
832	79,067
832,4	115,667
832,8	102,467
833,3	82,667
833,7	92,067
834,1	97,667
834,6	95,467
835	76,867
835,4	74,467
835,8	89,067
836,3	85,867
836,7	62,467
837,1	60,867
837,6	81,267
838	85,267
838,4	76,667
838,9	83,267
839,3	76,067
839,7	69,467
840,1	64,067
840,6	63,467
841	76,867
841,4	84,867
841,9	47,467
842,3	81,867
842,7	59,467
843,1	68,067
843,6	78,667
844	45,667
844,4	71,467
844,9	69,467
845,3	74,267
845,7	72,867
846,2	59,667
846,6	71,067
847	72,867
847,4	65,667
847,9	73,867
848,3	78,467
848,7	65,267
849,2	56,267
849,6	78,267
850	67,467
850,4	76,667
850,9	70,467
851,3	68,067
851,7	67,867
852,2	55,667
852,6	65,267
853	60,267
853,4	58,867
853,9	67,667
854,3	62,667
854,7	54,067
855,2	54,267
855,6	74,867
856	58,667
856,4	37,267
856,9	60,067
857,3	60,067
857,7	72,067
858,2	69,067
858,6	64,467
859	51,467
859,4	61,867
859,9	47,267
860,3	69,467
860,7	51,667
861,1	69,667
861,6	57,867
862	68,867
862,4	65,067
862,9	53,667
863,3	66,267
863,7	59,267
864,1	41,267
864,6	47,867
865	51,267
865,4	54,067
865,9	68,267
866,3	47,467
866,7	45,867
867,1	49,467
867,6	75,667
868	54,267
868,4	49,467
868,8	29,867
869,3	45,267
869,7	61,467
870,1	48,467
870,6	66,867
871	34,867
871,4	30,267
871,8	65,267
872,3	364,467
872,7	40,867
873,1	59,267
873,5	54,267
874	53,867
874,4	55,467
874,8	45,667
875,3	44,067
875,7	42,067
876,1	39,267
876,5	41,067
877	37,267
877,4	48,867
877,8	49,067
878,2	54,867
878,7	32,267
879,1	57,267
879,5	59,267
879,9	35,867
880,4	51,267
880,8	38,067
881,2	58,667
881,7	38,467
882,1	71,467
882,5	63,467
882,9	42,267
883,4	52,267
883,8	48,467
884,2	47,867
884,6	49,267
885,1	51,067
885,5	30,667
885,9	50,867
886,3	52,067
886,8	30,867
887,2	50,867
887,6	29,467
888	26,467
888,5	54,267
888,9	33,867
889,3	45,667
889,8	32,067
890,2	44,467
890,6	48,067
891	33,667
891,5	34,867
891,9	30,867
892,3	43,867
892,7	44,667
893,2	33,867
893,6	43,467
894	40,067
894,4	40,467
894,9	31,067
895,3	44,067
895,7	53,867
896,1	11,067
896,6	37,067
897	34,067
897,4	40,867
897,8	28,867
898,3	50,267
898,7	23,467
899,1	34,867
899,5	33,467
900	36,867
900,4	50,867
900,8	18,867
901,2	27,467
901,7	43,267
902,1	50,267
902,5	43,467
902,9	29,267
903,4	25,267
903,8	44,667
904,2	39,267
904,6	31,667
905,1	34,467
905,5	41,067
905,9	34,667
906,3	65,267
906,8	26,867
907,2	34,867
907,6	33,267
908	19,067
908,5	47,067
908,9	58,467
909,3	22,867
909,7	25,867
910,2	24,067
910,6	47,067
911	15,667
911,4	38,267
911,9	25,667
912,3	26,867
912,7	41,467
913,1	38,467
913,6	34,267
914	46,067
914,4	28,867
914,8	23,467
915,3	44,067
915,7	40,467
916,1	35,467
916,5	44,867
916,9	30,467
917,4	30,267
917,8	42,667
918,2	33,267
918,6	26,667
919,1	10,067
919,5	30,467
919,9	31,467
920,3	28,267
920,8	20,467
921,2	24,467
921,6	38,867
922	23,467
922,5	40,467
922,9	24,267
923,3	18,067
923,7	31,467
924,2	29,067
924,6	17,667
925	32,667
925,4	14,267
925,8	17,667
926,3	30,267
926,7	48,867
927,1	14,467
927,5	25,067
928	21,867
928,4	32,267
928,8	34,667
929,2	37,667
929,7	28,867
930,1	16,667
930,5	35,467
930,9	31,067
931,3	14,067
931,8	42,667
932,2	32,267
932,6	37,267
933	21,667
933,5	43,467
933,9	13,467
934,3	26,867
934,7	23,867
935,2	12,467
935,6	16,067
936	28,867
936,4	11,867
936,8	34,467
937,3	37,667
937,7	38,067
938,1	28,867
938,5	20,267
939	21,467
939,4	41,667
939,8	14,267
940,2	10,467
940,6	45,667
941,1	8,067
941,5	34,067
941,9	25,267
942,3	25,667
942,8	42,067
943,2	24,667
943,6	17,867
944	41,067
944,4	18,667
944,9	32,667
945,3	11,067
945,7	20,467
946,1	20,267
946,6	40,467
947	39,667
947,4	19,467
947,8	14,067
948,2	14,867
948,7	22,867
949,1	24,067
949,5	36,467
949,9	23,067
950,3	29,067
950,8	23,067
951,2	12,267
951,6	23,467
952	20,267
952,5	13,067
952,9	5,067
953,3	3,467
953,7	32,267
954,1	23,067
954,6	10,667
955	20,667
955,4	37,667
955,8	19,667
956,2	20,867
956,7	22,267
957,1	18,067
957,5	18,267
957,9	5,467
958,3	22,267
958,8	24,667
959,2	18,267
959,6	32,867
960	37,667
960,5	40,867
960,9	22,867
961,3	38,867
961,7	39,267
962,1	28,467
962,6	27,667
963	23,867
963,4	40,267
963,8	50,467
964,2	36,867
964,7	1,467
965,1	28,667
965,5	19,467
965,9	34,867
966,3	21,267
966,8	32,867
967,2	23,867
967,6	9,867
968	20,267
968,4	13,667
968,9	32,667
969,3	15,067
969,7	18,267
970,1	32,667
970,5	23,267
971	21,867
971,4	18,267
971,8	12,867
972,2	17,667
972,6	37,267
973,1	21,667
973,5	20,667
973,9	14,667
974,3	19,067
974,7	43,467
975,2	48,467
975,6	20,867
976	20,267
976,4	4,467
976,8	2,067
977,3	37,267
977,7	7,267
978,1	21,267
978,5	14,667
978,9	17,667
979,4	14,667
979,8	22,267
980,2	19,667
980,6	52,267
981	27,067
981,5	24,267
981,9	20,667
982,3	37,067
982,7	11,467
983,1	17,267
983,6	20,467
984	28,667
984,4	19,067
984,8	5,867
985,2	10,067
985,6	16,267
986,1	21,867
986,5	17,467
986,9	30,067
987,3	20,067
987,7	6,267
988,2	22,867
988,6	41,667
989	26,867
989,4	45,067
989,8	12,267
990,3	26,467
990,7	17,267
991,1	2,667
991,5	24,267
991,9	19,267
992,3	25,267
992,8	19,667
993,2	30,867
993,6	31,867
994	23,467
994,4	18,267
994,9	33,667
995,3	20,267
995,7	17,067
996,1	8,467
996,5	31,667
996,9	22,267
997,4	40,667
997,8	22,867
998,2	29,667
998,6	22,067
999	8,267
999,5	13,067
999,9	46,667
1000,3	22,267
1000,7	4,667
1001,1	20,067
1001,5	20,267
1002	29,267
1002,4	16,467
1002,8	26,067
1003,2	26,867
1003,6	30,467
1004	8,867
1004,5	15,067
1004,9	14,267
1005,3	21,267
1005,7	28,467
1006,1	16,267
1006,6	9,867
1007	20,467
1007,4	23,267
1007,8	7,467
1008,2	18,267
1008,6	23,067
1009,1	24,267
1009,5	29,067
1009,9	-2,733
1010,3	16,867
1010,7	57,467
1011,1	33,667
1011,6	34,267
1012	12,067
1012,4	35,667
1012,8	11,267
1013,2	2,467
1013,6	20,067
1014,1	2,467
1014,5	29,667
1014,9	14,667
1015,3	25,467
1015,7	7,867
1016,1	30,067
1016,6	22,267
1017	39,667
1017,4	11,067
1017,8	23,467
1018,2	23,467
1018,6	10,267
1019,1	36,667
1019,5	26,467
1019,9	28,067
1020,3	7,867
1020,7	24,067
1021,1	15,867
1021,6	2,667
1022	2,067
1022,4	20,667
1022,8	21,667
1023,2	0,267
1023,6	3,667
1024,1	25,067
1024,5	8,267
1024,9	31,867
1025,3	22,467
1025,7	28,267
1026,1	13,667
1026,6	15,067
1027	37,267
1027,4	8,467
1027,8	34,667
1028,2	26,467
1028,6	30,667
1029	6,267
1029,5	26,467
1029,9	37,867
1030,3	29,867
1030,7	13,267
1031,1	14,867
1031,5	8,667
1032	10,667
1032,4	40,467
1032,8	41,067
1033,2	18,667
1033,6	35,667
1034	40,267
1034,4	19,067
1034,9	9,067
1035,3	39,867
1035,7	21,467
1036,1	17,867
1036,5	14,067
1036,9	8,667
1037,4	10,667
1037,8	18,867
1038,2	36,867
1038,6	38,867
1039	14,267
1039,4	10,467
1039,8	2,267
1040,3	15,067
1040,7	7,467
1041,1	51,467
1041,5	28,467
1041,9	30,867
1042,3	39,667
1042,7	48,067
1043,2	16,467
1043,6	32,467
1044	34,867
1044,4	31,667
1044,8	15,867
1045,2	26,667
1045,6	24,867
1046,1	33,067
1046,5	2,667
1046,9	32,867
1047,3	7,067
1047,7	36,667
1048,1	25,867
1048,5	19,867
1049	16,867
1049,4	34,867
1049,8	42,867
1050,2	17,867
1050,6	23,867
1051	35,467
1051,4	16,467
1051,9	19,267
1052,3	28,467
1052,7	44,067
1053,1	24,667
1053,5	32,067
1053,9	24,867
1054,3	38,667
1054,8	28,467
1055,2	20,067
1055,6	25,867
1056	-0,733
1056,4	31,267
1056,8	27,067
1057,2	35,467
1057,6	11,667
1058,1	44,267
1058,5	11,067
1058,9	44,667
1059,3	23,467
1059,7	8,467
1060,1	1,467
1060,5	22,067
1061	17,267
1061,4	23,267
1061,8	22,667
1062,2	14,667
1062,6	42,267
1063	12,067
1063,4	16,667
1063,8	21,267
1064,3	14,067
1064,7	30,667
1065,1	25,267
1065,5	34,467
1065,9	38,867
1066,3	3,867
1066,7	23,867
1067,1	23,067
1067,6	22,267
1068	17,867
1068,4	15,867
1068,8	-1,133
1069,2	25,267
1069,6	1,867
1070	13,067
1070,4	18,467
1070,9	41,867
1071,3	32,067
1071,7	29,467
1072,1	14,067
1072,5	24,867
1072,9	1,267
1073,3	18,667
1073,7	37,067
1074,2	28,067
1074,6	26,267
1075	27,067
1075,4	34,067
1075,8	19,267
1076,2	34,067
1076,6	22,067
1077	24,467
1077,5	3,467
1077,9	16,867
1078,3	20,867
1078,7	21,667
1079,1	15,467
1079,5	13,667
1079,9	17,467
1080,3	22,267
1080,7	36,667
1081,2	20,667
1081,6	21,667
1082	16,467
1082,4	-5,333
1082,8	29,467
1083,2	38,067
1083,6	16,067
1084	20,867
1084,5	27,467
1084,9	17,267
1085,3	20,267
1085,7	26,667
1086,1	39,267
1086,5	20,467
1086,9	3,467
1087,3	11,867
1087,7	37,267
1088,2	23,067
1088,6	14,867
1089	15,267
1089,4	13,467
1089,8	24,667
1090,2	29,867
1090,6	18,267
1091	25,867
1091,4	4,667
1091,9	17,867
1092,3	40,267
1092,7	26,867
1093,1	12,067
1093,5	19,667
1093,9	6,667
1094,3	29,467
1094,7	8,267
1095,1	8,267
1095,5	28,467
1096	42,267
1096,4	39,067
1096,8	27,867
1097,2	26,467
1097,6	14,467
1098	21,867
1098,4	17,867
1098,8	25,867
1099,2	15,267
1099,6	14,867
1100,1	13,867
1100,5	14,867
1100,9	13,667
1101,3	23,867
1101,7	21,667
1102,1	15,667
1102,5	28,467
1102,9	10,267
1103,3	9,867
1103,7	16,467
1104,2	20,867
1104,6	6,667
1105	19,467
1105,4	5,467
1105,8	8,267
1106,2	17,867
1106,6	-3,533
1107	-0,933
1107,4	-1,133
1107,8	1,667
1108,3	-0,133
