Data from Subt2_00014.txt Node
Date: Fri Jul 14 14:21:38 MSK 2023
User: vat
Spectrometer: MAYP114033
Trigger mode: 0
Integration Time (sec): 5,000000E-1
Scans to average: 5
Electric dark correction enabled: true
Nonlinearity correction enabled: false
Boxcar width: 0
XAxis mode: Wavelengths
Number of Pixels in Spectrum: 2068
>>>>>Begin Spectral Data<<<<<
199,4	2,5
199,9	1,1
200,4	-1,3
200,8	2,3
201,3	23,1
201,8	24,9
202,2	3,7
202,7	0,9
203,2	28,3
203,6	15,1
204,1	10,7
204,6	12,9
205	20,9
205,5	31,9
206	8,9
206,4	19,7
206,9	1,5
207,4	16,5
207,8	16,7
208,3	21,1
208,8	24,7
209,2	20,7
209,7	21,3
210,2	35,9
210,6	4,3
211,1	29,9
211,5	10,1
212	19,5
212,5	28,5
212,9	21,3
213,4	23,9
213,9	22,3
214,3	17,5
214,8	28,9
215,3	36,1
215,7	21,5
216,2	31,3
216,7	32,1
217,1	24,9
217,6	11,1
218,1	30,3
218,5	31,9
219	45,7
219,5	30,1
219,9	22,7
220,4	22,9
220,9	32,9
221,3	24,7
221,8	35,7
222,3	21,1
222,7	15,9
223,2	-3,5
223,6	29,3
224,1	27,5
224,6	13,7
225	54,3
225,5	32,9
226	38,9
226,4	51,3
226,9	30,7
227,4	20,9
227,8	23,7
228,3	52,7
228,8	25,3
229,2	37,3
229,7	23,5
230,2	40,9
230,6	43,1
231,1	28,3
231,5	27,5
232	34,7
232,5	31,7
232,9	-6,9
233,4	35,1
233,9	48,1
234,3	30,1
234,8	35,7
235,3	33,5
235,7	15,3
236,2	24,5
236,7	29,1
237,1	27,5
237,6	23,9
238,1	4,9
238,5	29,9
239	34,7
239,4	22,5
239,9	35,9
240,4	33,1
240,8	28,9
241,3	39,5
241,8	30,9
242,2	19,1
242,7	18,1
243,2	20,1
243,6	5,9
244,1	23,5
244,6	17,1
245	28,3
245,5	29,7
245,9	19,7
246,4	57,7
246,9	42,7
247,3	12,9
247,8	23,1
248,3	23,3
248,7	19,9
249,2	34,9
249,7	12,3
250,1	29,9
250,6	7,9
251	13,3
251,5	42,3
252	9,7
252,4	52,9
252,9	36,5
253,4	31,5
253,8	20,7
254,3	12,9
254,8	15,5
255,2	31,7
255,7	43,7
256,1	33,7
256,6	27,3
257,1	20,1
257,5	25,5
258	17,1
258,5	35,7
258,9	27,5
259,4	32,5
259,9	28,7
260,3	31,5
260,8	1,5
261,2	18,3
261,7	12,3
262,2	39,5
262,6	13,3
263,1	35,7
263,6	20,3
264	28,1
264,5	31,3
264,9	36,7
265,4	32,5
265,9	16,9
266,3	13,3
266,8	22,9
267,3	48,9
267,7	37,5
268,2	27,9
268,7	32,1
269,1	16,7
269,6	12,3
270	20,9
270,5	25,5
271	24,9
271,4	31,3
271,9	31,5
272,4	17,3
272,8	20,9
273,3	24,9
273,7	32,7
274,2	15,9
274,7	21,7
275,1	6,1
275,6	36,7
276,1	17,1
276,5	21,1
277	18,5
277,4	22,7
277,9	47,9
278,4	51,7
278,8	25,1
279,3	28,5
279,8	36,9
280,2	34,7
280,7	11,7
281,1	27,1
281,6	11,5
282,1	27,5
282,5	30,5
283	37,3
283,4	32,5
283,9	4,5
284,4	25,3
284,8	27,1
285,3	43,9
285,8	39,7
286,2	28,1
286,7	39,9
287,1	39,3
287,6	29,9
288,1	21,7
288,5	26,9
289	16,3
289,5	14,1
289,9	28,3
290,4	28,7
290,8	20,1
291,3	32,9
291,8	27,7
292,2	22,9
292,7	26,5
293,1	33,5
293,6	25,9
294,1	31,1
294,5	21,3
295	35,5
295,5	26,5
295,9	26,5
296,4	1,5
296,8	19,9
297,3	46,5
297,8	38,7
298,2	24,7
298,7	49,5
299,1	33,3
299,6	36,7
300,1	0,9
300,5	31,5
301	5,1
301,5	22,7
301,9	11,5
302,4	29,1
302,8	31,1
303,3	47,3
303,8	15,1
304,2	39,3
304,7	20,7
305,1	23,3
305,6	46,1
306,1	24,7
306,5	35,9
307	21,3
307,4	39,9
307,9	29,7
308,4	15,5
308,8	33,7
309,3	35,9
309,8	7,1
310,2	36,7
310,7	14,3
311,1	28,3
311,6	23,1
312,1	19,3
312,5	25,1
313	46,9
313,4	30,7
313,9	20,3
314,4	45,3
314,8	41,9
315,3	38,7
315,7	10,7
316,2	34,3
316,7	40,5
317,1	16,9
317,6	23,1
318	34,5
318,5	35,1
319	18,9
319,4	30,1
319,9	31,5
320,3	24,3
320,8	24,7
321,3	24,1
321,7	17,7
322,2	23,3
322,6	22,1
323,1	20,9
323,6	15,1
324	31,3
324,5	9,5
324,9	25,3
325,4	31,1
325,9	27,3
326,3	30,1
326,8	26,5
327,2	28,1
327,7	29,7
328,2	16,3
328,6	43,7
329,1	30,9
329,5	29,1
330	38,5
330,5	15,5
330,9	25,3
331,4	15,9
331,8	19,5
332,3	20,9
332,8	24,1
333,2	23,9
333,7	22,5
334,1	38,9
334,6	24,5
335,1	12,1
335,5	19,5
336	30,3
336,4	27,5
336,9	42,1
337,4	51,5
337,8	7,9
338,3	30,9
338,7	24,7
339,2	52,5
339,7	26,1
340,1	31,1
340,6	34,7
341	30,7
341,5	19,3
342	36,9
342,4	42,5
342,9	45,1
343,3	32,9
343,8	29,9
344,2	32,1
344,7	24,7
345,2	24,3
345,6	24,3
346,1	23,3
346,5	29,1
347	40,9
347,5	29,5
347,9	48,7
348,4	29,1
348,8	22,1
349,3	17,5
349,8	32,1
350,2	10,5
350,7	40,5
351,1	14,3
351,6	22,7
352	20,5
352,5	24,9
353	37,9
353,4	41,3
353,9	31,1
354,3	36,9
354,8	26,9
355,3	26,1
355,7	66,1
356,2	36,7
356,6	68,5
357,1	45,9
357,5	77,7
358	74,1
358,5	72,9
358,9	102,9
359,4	126,1
359,8	94,7
360,3	124,5
360,8	140,9
361,2	164,3
361,7	195,1
362,1	189,9
362,6	231,1
363	241,7
363,5	281,9
364	316,5
364,4	344,3
364,9	368,7
365,3	409,1
365,8	430,9
366,3	450,7
366,7	492,9
367,2	517,7
367,6	520,3
368,1	546,3
368,5	549,3
369	532,1
369,5	551,5
369,9	558,9
370,4	550,1
370,8	532,3
371,3	498,3
371,7	495,9
372,2	475,1
372,7	458,3
373,1	456,3
373,6	415,7
374	369,5
374,5	380,5
374,9	332,3
375,4	304,9
375,9	321,7
376,3	254,3
376,8	256,7
377,2	252,3
377,7	201,1
378,2	210,5
378,6	180,3
379,1	149,7
379,5	156,7
380	134,1
380,4	149,3
380,9	135,7
381,4	112,1
381,8	124,1
382,3	104,7
382,7	118,3
383,2	109,3
383,6	107,3
384,1	84,9
384,6	90,7
385	87,9
385,5	95,1
385,9	80,1
386,4	68,5
386,8	70,5
387,3	64,5
387,7	61,3
388,2	64,1
388,7	62,7
389,1	59,7
389,6	42,9
390	36,1
390,5	38,9
390,9	54,7
391,4	34,3
391,9	66,5
392,3	50,5
392,8	52,3
393,2	50,7
393,7	32,7
394,1	42,7
394,6	51,9
395,1	38,5
395,5	56,3
396	44,3
396,4	53,1
396,9	41,5
397,3	37,9
397,8	40,9
398,2	29,3
398,7	30,1
399,2	39,5
399,6	44,1
400,1	44,3
400,5	23,5
401	35,5
401,4	27,5
401,9	52,3
402,4	32,7
402,8	61,5
403,3	19,1
403,7	32,9
404,2	54,9
404,6	29,9
405,1	35,5
405,5	53,9
406	46,1
406,5	46,7
406,9	40,1
407,4	52,3
407,8	26,3
408,3	30,9
408,7	47,5
409,2	46,9
409,6	53,7
410,1	64,7
410,6	47,9
411	43,7
411,5	67,9
411,9	48,3
412,4	64,1
412,8	52,3
413,3	46,1
413,7	52,3
414,2	66,3
414,7	54,9
415,1	54,1
415,6	77,3
416	50,3
416,5	65,7
416,9	69,7
417,4	93,9
417,8	52,9
418,3	104,7
418,8	67,1
419,2	89,3
419,7	89,5
420,1	92,1
420,6	95,5
421	117,7
421,5	89,7
421,9	114,1
422,4	107,1
422,8	89,7
423,3	112,1
423,8	94,3
424,2	123,9
424,7	109,9
425,1	102,9
425,6	126,9
426	100,5
426,5	115,3
426,9	111,1
427,4	114,3
427,9	125,5
428,3	117,5
428,8	140,5
429,2	161,5
429,7	156,1
430,1	165,5
430,6	140,1
431	152,5
431,5	176,9
431,9	164,5
432,4	193,5
432,8	196,1
433,3	187,5
433,8	212,5
434,2	210,3
434,7	229,7
435,1	237,1
435,6	249,7
436	248,7
436,5	239,3
436,9	269,3
437,4	272,5
437,8	284,5
438,3	291,5
438,8	294,5
439,2	327,3
439,7	318,5
440,1	355,1
440,6	368,7
441	374,1
441,5	393,3
441,9	433,5
442,4	415,5
442,8	452,3
443,3	436,9
443,7	449,1
444,2	499,1
444,7	518,3
445,1	531,1
445,6	569,1
446	562,1
446,5	580,1
446,9	628,9
447,4	638,1
447,8	658,1
448,3	680,5
448,7	731,5
449,2	739,3
449,6	773,5
450,1	776,7
450,6	806,9
451	843,9
451,5	908,5
451,9	906,5
452,4	934,3
452,8	968,5
453,3	992,7
453,7	1036,7
454,2	1068,1
454,6	1081,1
455,1	1108,9
455,5	1162,3
456	1187,3
456,4	1209,7
456,9	1263,3
457,3	1296,7
457,8	1298,5
458,3	1364,1
458,7	1387,3
459,2	1436,9
459,6	1472,9
460,1	1510,9
460,5	1544,3
461	1572,9
461,4	1593,5
461,9	1649,7
462,3	1709,1
462,8	1755,1
463,2	1779,5
463,7	1822,9
464,1	1851,3
464,6	1888,5
465	1910,3
465,5	1968,7
466	2027,3
466,4	2025,3
466,9	2094,3
467,3	2125,5
467,8	2169,7
468,2	2204,3
468,7	2259,3
469,1	2310,3
469,6	2338,7
470	2377,5
470,5	2404,9
470,9	2456,5
471,4	2487,3
471,8	2483,5
472,3	2566,1
472,7	2611,1
473,2	2623,5
473,6	2667,5
474,1	2696,7
474,5	2732,3
475	2826,9
475,4	2759,7
475,9	2837,3
476,4	2905,3
476,8	2908,5
477,3	2943,3
477,7	2986,5
478,2	3032,3
478,6	3043,9
479,1	3113,9
479,5	3117,9
480	3128,7
480,4	3174,9
480,9	3188,1
481,3	3235,9
481,8	3221,1
482,2	3248,7
482,7	3315,7
483,1	3292,5
483,6	3320,3
484	3349,5
484,5	3400,9
484,9	3400,1
485,4	3377,3
485,8	3446,9
486,3	3488,3
486,7	3490,9
487,2	3476,3
487,6	3473,3
488,1	3519,7
488,5	3489,1
489	3511,3
489,4	3514,7
489,9	3568,3
490,4	3577,9
490,8	3597,3
491,3	3522,9
491,7	3571,9
492,2	3557,1
492,6	3580,5
493,1	3578,9
493,5	3578,5
494	3576,5
494,4	3580,1
494,9	3607,9
495,3	3642,3
495,8	3624,9
496,2	3566,5
496,7	3543,7
497,1	3587,7
497,6	3587,5
498	3552,7
498,5	3562,1
498,9	3518,9
499,4	3565,9
499,8	3533,5
500,3	3524,5
500,7	3546,5
501,2	3521,1
501,6	3505,3
502,1	3526,3
502,5	3494,3
503	3517,3
503,4	3476,5
503,9	3456,9
504,3	3465,7
504,8	3470,1
505,2	3443,3
505,7	3432,3
506,1	3416,1
506,6	3430,5
507	3390,3
507,5	3351,3
507,9	3363,5
508,4	3307,1
508,8	3321,5
509,3	3289,3
509,7	3300,7
510,2	3255,9
510,6	3251,7
511,1	3260,1
511,5	3216,1
512	3231,3
512,4	3195,7
512,9	3182,1
513,3	3166,3
513,8	3143,7
514,2	3126,3
514,7	3102,7
515,1	3109,9
515,6	3080,3
516	3028,9
516,5	3008,1
516,9	3023,1
517,4	3022,1
517,8	2986,7
518,3	2976,1
518,7	2942,9
519,2	2918,3
519,6	2907,5
520,1	2899,7
520,5	2853,3
521	2875,3
521,4	2835,3
521,9	2831,5
522,3	2792,3
522,8	2778,7
523,2	2756,5
523,7	2750,1
524,1	2704,5
524,6	2703,5
525	2719,5
525,5	2715,1
525,9	2675,3
526,4	2688,3
526,8	2671,3
527,3	2610,9
527,7	2620,5
528,2	2577,3
528,6	2592,7
529,1	2530,9
529,5	2544,1
530	2519,7
530,4	2500,5
530,9	2530,7
531,3	2483,3
531,8	2457,9
532,2	2475,9
532,6	2456,1
533,1	2437,7
533,5	2421,1
534	2399,1
534,4	2390,1
534,9	2378,5
535,3	2350,5
535,8	2353,3
536,2	2312,7
536,7	2357,1
537,1	2309,3
537,6	2277,1
538	2277,7
538,5	2261,7
538,9	2265,5
539,4	2253,5
539,8	2243,3
540,3	2229,1
540,7	2194,9
541,2	2224,9
541,6	2161,3
542,1	2171,1
542,5	2173,5
543	2144,1
543,4	2153,1
543,9	2139,3
544,3	2149,7
544,8	2121,5
545,2	2068,3
545,7	2123,5
546,1	2094,9
546,5	2058,3
547	2071,3
547,4	2036,3
547,9	2072,1
548,3	2045,9
548,8	2025,5
549,2	2005,1
549,7	2008,1
550,1	2024,7
550,6	1967,1
551	1975,1
551,5	1978,3
551,9	1952,9
552,4	1958,3
552,8	1971,7
553,3	1976,5
553,7	1936,7
554,2	1954,7
554,6	1899,9
555,1	1914,7
555,5	1899,3
555,9	1900,1
556,4	1900,9
556,8	1887,9
557,3	1906,3
557,7	1877,3
558,2	1882,1
558,6	1877,9
559,1	1874,7
559,5	1833,9
560	1864,3
560,4	1843,7
560,9	1798,7
561,3	1815,5
561,8	1821,3
562,2	1816,9
562,7	1816,7
563,1	1801,7
563,6	1803,9
564	1803,3
564,4	1755,1
564,9	1783,7
565,3	1776,5
565,8	1773,9
566,2	1772,7
566,7	1729,1
567,1	1760,1
567,6	1744,3
568	1730,1
568,5	1726,3
568,9	1710,3
569,4	1725,9
569,8	1705,9
570,3	1727,3
570,7	1727,1
571,1	1703,9
571,6	1692,3
572	1703,3
572,5	1678,7
572,9	1662,5
573,4	1673,3
573,8	1670,3
574,3	1657,1
574,7	1631,5
575,2	1632,3
575,6	1655,7
576,1	1638,1
576,5	1634,7
576,9	1627,9
577,4	1639,9
577,8	1608,5
578,3	1607,5
578,7	1608,3
579,2	1579,7
579,6	1593,7
580,1	1589,3
580,5	1581,3
581	1591,9
581,4	1554,1
581,9	1587,3
582,3	1525,1
582,7	1556,5
583,2	1535,5
583,6	1530,1
584,1	1518,3
584,5	1561,7
585	1508,9
585,4	1506,5
585,9	1507,9
586,3	1516,3
586,8	1514,7
587,2	1518,3
587,6	1497,5
588,1	1448,9
588,5	1476,1
589	1477,3
589,4	1435,3
589,9	1441,9
590,3	1455,3
590,8	1454,7
591,2	1437,5
591,7	1462,9
592,1	1442,9
592,5	1421,9
593	1431,5
593,4	1429,3
593,9	1396,3
594,3	1435,5
594,8	1404,9
595,2	1405,5
595,7	1387,9
596,1	1391,3
596,6	1388,3
597	1388,7
597,4	1367,3
597,9	1382,1
598,3	1396,7
598,8	1377,7
599,2	1371,5
599,7	1355,5
600,1	1370,1
600,6	1340,5
601	1348,1
601,4	1354,5
601,9	1346,5
602,3	1321,7
602,8	1315,7
603,2	1317,1
603,7	1323,3
604,1	1310,3
604,6	1338,9
605	1314,9
605,4	1298,9
605,9	1307,3
606,3	1295,9
606,8	1290,1
607,2	1299,9
607,7	1261,5
608,1	1261,9
608,6	1279,7
609	1280,7
609,4	1259,5
609,9	1263,9
610,3	1254,9
610,8	1255,9
611,2	1273,7
611,7	1258,3
612,1	1252,1
612,6	1241,5
613	1251,9
613,4	1254,5
613,9	1216,7
614,3	1198,5
614,8	1193,5
615,2	1207,7
615,7	1199,7
616,1	1204,7
616,6	1161,3
617	1192,3
617,4	1204,7
617,9	1161,9
618,3	1169,3
618,8	1165,9
619,2	1151,3
619,7	1161,1
620,1	1146,1
620,5	1152,5
621	1151,5
621,4	1145,3
621,9	1146,5
622,3	1090,7
622,8	1103,7
623,2	1109,7
623,6	1101,7
624,1	1129,5
624,5	1123,7
625	1106,1
625,4	1085,7
625,9	1083,3
626,3	1091,3
626,8	1049,1
627,2	1047,9
627,6	1072,3
628,1	1058,1
628,5	1044,9
629	1058,1
629,4	1039,3
629,9	1051,1
630,3	1047,1
630,7	1033,7
631,2	1026,3
631,6	1023,5
632,1	1019,7
632,5	1007,1
633	996,9
633,4	1016,7
633,8	1016,3
634,3	985,1
634,7	970,5
635,2	959,3
635,6	977,7
636,1	986,1
636,5	970,9
636,9	945,7
637,4	964,9
637,8	987,5
638,3	936,3
638,7	932,9
639,2	937,5
639,6	941,3
640	937,1
640,5	942,3
640,9	911,5
641,4	922,7
641,8	914,5
642,2	918,9
642,7	916,5
643,1	902,1
643,6	910,5
644	918,5
644,5	911,1
644,9	912,1
645,3	895,1
645,8	884,1
646,2	880,7
646,7	914,5
647,1	857,5
647,6	851,3
648	854,9
648,4	870,1
648,9	850,1
649,3	857,3
649,8	866,3
650,2	842,3
650,6	840,5
651,1	856,7
651,5	843,3
652	833,5
652,4	840,3
652,9	828,1
653,3	828,5
653,7	821,5
654,2	829,3
654,6	817,7
655,1	830,1
655,5	814,9
655,9	815,7
656,4	782,7
656,8	790,9
657,3	797,7
657,7	781,9
658,2	800,7
658,6	782,3
659	798,1
659,5	762,5
659,9	741,3
660,4	766,3
660,8	761,5
661,2	738,5
661,7	752,5
662,1	740,7
662,6	751,1
663	732,3
663,4	725,1
663,9	737,5
664,3	734,9
664,8	719,3
665,2	723,7
665,6	723,3
666,1	712,1
666,5	700,3
667	727,9
667,4	703,9
667,9	700,7
668,3	705,5
668,7	661,7
669,2	681,7
669,6	679,7
670,1	668,9
670,5	673,7
670,9	690,3
671,4	691,3
671,8	674,3
672,3	677,1
672,7	663,5
673,1	674,3
673,6	661,1
674	632,7
674,5	649,1
674,9	647,7
675,3	635,7
675,8	641,7
676,2	651,9
676,7	639,9
677,1	631,1
677,5	642,7
678	607,5
678,4	627,3
678,9	633,1
679,3	606,9
679,7	604,5
680,2	590,7
680,6	598,5
681,1	604,7
681,5	595,7
681,9	611,3
682,4	571,3
682,8	603,3
683,3	594,9
683,7	586,1
684,1	583,9
684,6	576,1
685	583,7
685,5	571,5
685,9	576,7
686,3	541,9
686,8	570,3
687,2	571,1
687,7	545,3
688,1	581,3
688,5	573,5
689	561,9
689,4	561,3
689,9	548,3
690,3	515,3
690,7	534,9
691,2	542,1
691,6	539,1
692	539,7
692,5	518,9
692,9	525,7
693,4	538,7
693,8	532,3
694,2	529,1
694,7	518,5
695,1	521,1
695,6	497,1
696	528,3
696,4	512,1
696,9	485,3
697,3	495,5
697,8	491,3
698,2	498,3
698,6	515,5
699,1	498,3
699,5	506,9
699,9	480,1
700,4	470,7
700,8	490,5
701,3	483,9
701,7	473,7
702,1	497,5
702,6	457,3
703	473,3
703,5	492,7
703,9	447,1
704,3	499,7
704,8	475,9
705,2	470,5
705,6	460,9
706,1	442,1
706,5	449,9
707	456,9
707,4	446,3
707,8	456,3
708,3	427,1
708,7	420,9
709,2	436,1
709,6	456,1
710	421,3
710,5	432,3
710,9	430,5
711,3	418,1
711,8	424,3
712,2	411,3
712,7	430,5
713,1	417,1
713,5	429,3
714	414,1
714,4	414,9
714,8	414,9
715,3	403,7
715,7	393,3
716,2	400,5
716,6	404,9
717	415,3
717,5	390,9
717,9	394,7
718,3	385,1
718,8	396,7
719,2	367,1
719,7	382,5
720,1	372,3
720,5	383,1
721	379,1
721,4	364,9
721,8	357,5
722,3	364,5
722,7	365,7
723,2	384,3
723,6	375,9
724	361,7
724,5	347,3
724,9	367,1
725,3	353,3
725,8	353,7
726,2	338,7
726,7	335,9
727,1	337,7
727,5	359,7
728	337,5
728,4	351,9
728,8	327,1
729,3	360,5
729,7	323,9
730,1	325,9
730,6	328,7
731	324,1
731,5	325,3
731,9	330,3
732,3	315,7
732,8	318,3
733,2	314,9
733,6	328,7
734,1	316,7
734,5	326,5
734,9	302,9
735,4	296,9
735,8	301,1
736,3	315,7
736,7	325,5
737,1	320,3
737,6	308,3
738	317,1
738,4	299,9
738,9	286,1
739,3	340,7
739,7	298,3
740,2	315,7
740,6	308,5
741,1	286,7
741,5	293,7
741,9	300,1
742,4	267,9
742,8	289,9
743,2	276,3
743,7	274,3
744,1	266,9
744,5	290,9
745	294,3
745,4	281,5
745,8	256,9
746,3	276,1
746,7	285,7
747,2	275,3
747,6	281,5
748	274,9
748,5	277,7
748,9	261,7
749,3	267,7
749,8	268,7
750,2	235,1
750,6	274,1
751,1	263,7
751,5	279,3
751,9	284,7
752,4	260,3
752,8	254,1
753,3	263,7
753,7	264,1
754,1	251,1
754,6	243,5
755	244,3
755,4	239,5
755,9	257,7
756,3	246,5
756,7	240,9
757,2	242,5
757,6	254,1
758	230,1
758,5	244,1
758,9	228,9
759,3	234,3
759,8	239,9
760,2	222,9
760,6	219,5
761,1	217,7
761,5	223,9
761,9	233,1
762,4	216,3
762,8	235,5
763,3	242,5
763,7	199,7
764,1	208,7
764,6	226,1
765	228,9
765,4	216,9
765,9	224,9
766,3	216,7
766,7	216,3
767,2	209,5
767,6	195,5
768	219,1
768,5	208,7
768,9	200,7
769,3	231,9
769,8	210,3
770,2	217,1
770,6	207,3
771,1	211,5
771,5	205,1
771,9	195,1
772,4	184,3
772,8	189,5
773,2	207,9
773,7	207,5
774,1	199,5
774,5	199,3
775	183,7
775,4	208,1
775,8	173,5
776,3	185,1
776,7	185,7
777,1	194,9
777,6	205,5
778	198,9
778,4	177,7
778,9	183,5
779,3	183,1
779,7	175,5
780,2	191,9
780,6	184,3
781	171,7
781,5	183,9
781,9	180,1
782,3	164,7
782,8	182,7
783,2	171,9
783,6	180,7
784,1	184,7
784,5	171,1
784,9	170,1
785,4	165,9
785,8	171,1
786,2	169,9
786,7	181,3
787,1	162,7
787,5	155,9
788	169,1
788,4	147,3
788,8	156,7
789,3	169,3
789,7	141,7
790,1	175,3
790,6	135,7
791	161,5
791,4	158,9
791,9	138,5
792,3	146,9
792,7	154,3
793,2	162,3
793,6	139,1
794	151,7
794,5	142,5
794,9	131,3
795,3	169,9
795,8	126,1
796,2	150,1
796,6	150,3
797,1	156,3
797,5	140,5
797,9	123,5
798,4	149,9
798,8	148,9
799,2	156,1
799,7	154,9
800,1	139,5
800,5	142,3
801	156,7
801,4	120,7
801,8	138,1
802,2	124,1
802,7	150,5
803,1	142,7
803,5	134,5
804	127,9
804,4	137,3
804,8	109,9
805,3	139,9
805,7	128,1
806,1	130,5
806,6	130,9
807	117,5
807,4	133,1
807,9	127,1
808,3	130,3
808,7	107,7
809,2	119,5
809,6	125,5
810	117,7
810,4	115,3
810,9	125,1
811,3	135,7
811,7	117,7
812,2	124,5
812,6	108,1
813	127,5
813,5	119,9
813,9	120,9
814,3	107,1
814,8	119,1
815,2	110,1
815,6	113,3
816,1	118,7
816,5	118,7
816,9	110,7
817,3	104,1
817,8	100,1
818,2	94,9
818,6	99,9
819,1	119,7
819,5	106,7
819,9	114,1
820,4	87,9
820,8	87,9
821,2	123,5
821,7	114,1
822,1	103,9
822,5	116,9
822,9	87,5
823,4	79,9
823,8	94,9
824,2	109,3
824,7	103,1
825,1	115,1
825,5	102,5
826	119,5
826,4	79,7
826,8	106,3
827,3	110,7
827,7	103,9
828,1	108,5
828,5	88,9
829	101,9
829,4	103,3
829,8	85,5
830,3	80,5
830,7	84,9
831,1	68,7
831,6	79,5
832	86,9
832,4	90,9
832,8	90,9
833,3	96,3
833,7	84,3
834,1	96,7
834,6	76,9
835	74,7
835,4	70,3
835,8	91,5
836,3	88,7
836,7	81,9
837,1	75,3
837,6	68,1
838	98,5
838,4	84,7
838,9	81,3
839,3	73,5
839,7	76,9
840,1	82,1
840,6	82,9
841	89,1
841,4	97,3
841,9	68,9
842,3	98,3
842,7	73,1
843,1	65,9
843,6	99,7
844	65,9
844,4	78,5
844,9	69,3
845,3	59,3
845,7	73,5
846,2	56,1
846,6	87,7
847	87,9
847,4	55,7
847,9	71,7
848,3	76,7
848,7	84,5
849,2	76,1
849,6	86,5
850	64,9
850,4	92,9
850,9	79,5
851,3	78,7
851,7	61,5
852,2	61,1
852,6	82,3
853	58,3
853,4	52,7
853,9	77,5
854,3	81,3
854,7	46,1
855,2	61,3
855,6	81,1
856	43,9
856,4	65,3
856,9	63,9
857,3	63,3
857,7	73,9
858,2	73,3
858,6	68,7
859	83,5
859,4	63,1
859,9	62,7
860,3	79,7
860,7	66,9
861,1	69,5
861,6	68,3
862	77,9
862,4	68,3
862,9	53,3
863,3	61,9
863,7	63,7
864,1	63,3
864,6	42,5
865	61,5
865,4	60,3
865,9	51,7
866,3	73,1
866,7	71,1
867,1	53,1
867,6	56,9
868	74,5
868,4	60,9
868,8	32,9
869,3	55,9
869,7	47,7
870,1	69,1
870,6	59,3
871	36,9
871,4	54,3
871,8	71,7
872,3	321,9
872,7	43,5
873,1	72,5
873,5	64,1
874	59,7
874,4	78,9
874,8	46,3
875,3	58,3
875,7	57,1
876,1	42,7
876,5	64,9
877	45,5
877,4	54,3
877,8	50,7
878,2	75,3
878,7	39,1
879,1	69,7
879,5	60,1
879,9	36,1
880,4	70,7
880,8	55,1
881,2	59,7
881,7	52,9
882,1	66,9
882,5	59,7
882,9	46,1
883,4	56,3
883,8	61,1
884,2	63,3
884,6	62,1
885,1	46,5
885,5	52,1
885,9	55,7
886,3	41,7
886,8	58,3
887,2	46,1
887,6	49,7
888	43,5
888,5	50,1
888,9	43,7
889,3	58,5
889,8	53,5
890,2	41,5
890,6	58,9
891	31,5
891,5	48,3
891,9	31,1
892,3	38,3
892,7	41,1
893,2	22,3
893,6	67,1
894	35,1
894,4	51,9
894,9	37,1
895,3	54,3
895,7	40,3
896,1	34,3
896,6	54,3
897	29,3
897,4	48,1
897,8	28,9
898,3	59,5
898,7	50,5
899,1	34,1
899,5	38,3
900	41,3
900,4	53,5
900,8	56,1
901,2	34,7
901,7	45,1
902,1	66,3
902,5	50,3
902,9	38,5
903,4	22,5
903,8	61,3
904,2	57,5
904,6	50,7
905,1	30,1
905,5	51,5
905,9	34,7
906,3	58,7
906,8	33,9
907,2	35,3
907,6	40,9
908	33,3
908,5	43,3
908,9	59,7
909,3	27,5
909,7	40,5
910,2	11,9
910,6	61,3
911	39,5
911,4	43,9
911,9	27,5
912,3	29,7
912,7	46,9
913,1	26,5
913,6	23,3
914	45,1
914,4	22,7
914,8	37,9
915,3	37,1
915,7	42,3
916,1	44,7
916,5	44,1
916,9	47,3
917,4	39,7
917,8	54,9
918,2	33,5
918,6	44,5
919,1	19,5
919,5	31,5
919,9	24,1
920,3	20,9
920,8	40,1
921,2	47,5
921,6	49,5
922	25,7
922,5	35,1
922,9	32,3
923,3	29,9
923,7	38,9
924,2	27,7
924,6	13,7
925	44,5
925,4	22,9
925,8	30,1
926,3	45,1
926,7	52,9
927,1	17,3
927,5	44,9
928	19,9
928,4	39,1
928,8	19,7
929,2	42,1
929,7	41,9
930,1	36,5
930,5	45,9
930,9	43,3
931,3	29,9
931,8	39,5
932,2	34,5
932,6	28,1
933	30,5
933,5	39,3
933,9	22,3
934,3	24,5
934,7	37,9
935,2	37,3
935,6	27,9
936	44,3
936,4	26,5
936,8	48,9
937,3	53,5
937,7	45,3
938,1	50,9
938,5	34,9
939	29,5
939,4	40,3
939,8	4,5
940,2	12,7
940,6	50,9
941,1	35,9
941,5	42,7
941,9	47,1
942,3	29,3
942,8	42,3
943,2	34,7
943,6	19,1
944	50,1
944,4	31,3
944,9	23,7
945,3	47,9
945,7	28,1
946,1	29,7
946,6	31,5
947	54,5
947,4	22,7
947,8	19,3
948,2	30,3
948,7	32,5
949,1	40,5
949,5	29,3
949,9	45,5
950,3	30,7
950,8	18,7
951,2	13,5
951,6	38,7
952	9,9
952,5	25,7
952,9	17,5
953,3	30,7
953,7	37,5
954,1	19,9
954,6	36,7
955	28,7
955,4	59,1
955,8	33,9
956,2	26,5
956,7	25,5
957,1	36,5
957,5	16,7
957,9	41,5
958,3	28,5
958,8	32,5
959,2	33,9
959,6	42,7
960	20,9
960,5	49,9
960,9	23,3
961,3	66,7
961,7	36,9
962,1	40,3
962,6	47,3
963	26,7
963,4	40,5
963,8	35,3
964,2	27,9
964,7	29,7
965,1	31,5
965,5	18,3
965,9	53,3
966,3	23,5
966,8	20,9
967,2	6,5
967,6	27,3
968	12,9
968,4	35,5
968,9	34,9
969,3	26,3
969,7	30,5
970,1	22,5
970,5	41,7
971	28,1
971,4	27,5
971,8	32,7
972,2	31,7
972,6	41,1
973,1	41,5
973,5	32,1
973,9	26,1
974,3	24,7
974,7	34,9
975,2	13,1
975,6	23,3
976	44,1
976,4	18,7
976,8	21,9
977,3	41,7
977,7	15,7
978,1	38,5
978,5	31,5
978,9	30,1
979,4	23,3
979,8	29,7
980,2	28,7
980,6	43,1
981	27,5
981,5	26,3
981,9	26,1
982,3	35,1
982,7	27,1
983,1	34,1
983,6	17,7
984	26,3
984,4	30,1
984,8	45,3
985,2	29,7
985,6	26,9
986,1	30,5
986,5	33,3
986,9	25,3
987,3	30,1
987,7	14,7
988,2	36,3
988,6	34,9
989	39,3
989,4	55,7
989,8	19,1
990,3	25,9
990,7	32,7
991,1	11,1
991,5	33,1
991,9	18,7
992,3	15,3
992,8	28,7
993,2	40,7
993,6	22,7
994	42,9
994,4	34,1
994,9	31,3
995,3	37,7
995,7	20,9
996,1	39,3
996,5	35,3
996,9	45,7
997,4	38,5
997,8	47,9
998,2	40,3
998,6	36,3
999	29,3
999,5	27,1
999,9	46,7
1000,3	34,3
1000,7	29,1
1001,1	17,3
1001,5	34,7
1002	44,7
1002,4	31,9
1002,8	32,3
1003,2	20,7
1003,6	26,9
1004	10,7
1004,5	14,9
1004,9	20,9
1005,3	24,5
1005,7	26,9
1006,1	20,9
1006,6	31,1
1007	21,9
1007,4	20,9
1007,8	27,9
1008,2	25,5
1008,6	23,9
1009,1	19,7
1009,5	18,7
1009,9	24,3
1010,3	46,5
1010,7	51,7
1011,1	28,3
1011,6	22,5
1012	27,1
1012,4	48,5
1012,8	36,7
1013,2	37,1
1013,6	25,3
1014,1	13,1
1014,5	38,5
1014,9	34,1
1015,3	16,3
1015,7	28,9
1016,1	21,3
1016,6	47,1
1017	40,1
1017,4	21,1
1017,8	33,3
1018,2	16,7
1018,6	14,7
1019,1	46,9
1019,5	25,5
1019,9	26,5
1020,3	19,9
1020,7	43,1
1021,1	17,9
1021,6	14,3
1022	2,3
1022,4	46,9
1022,8	25,9
1023,2	18,5
1023,6	5,7
1024,1	31,5
1024,5	-5,5
1024,9	44,3
1025,3	15,1
1025,7	22,9
1026,1	26,5
1026,6	29,3
1027	41,5
1027,4	30,9
1027,8	52,1
1028,2	38,3
1028,6	59,5
1029	13,3
1029,5	39,1
1029,9	53,3
1030,3	43,3
1030,7	32,3
1031,1	30,5
1031,5	26,7
1032	30,5
1032,4	33,1
1032,8	32,7
1033,2	30,1
1033,6	17,9
1034	43,3
1034,4	34,1
1034,9	19,5
1035,3	41,3
1035,7	24,9
1036,1	24,9
1036,5	35,3
1036,9	31,5
1037,4	21,1
1037,8	29,3
1038,2	49,9
1038,6	34,1
1039	40,7
1039,4	33,3
1039,8	21,1
1040,3	30,9
1040,7	24,1
1041,1	61,7
1041,5	42,7
1041,9	22,5
1042,3	24,1
1042,7	23,7
1043,2	19,5
1043,6	39,7
1044	36,1
1044,4	33,1
1044,8	44,1
1045,2	38,7
1045,6	43,3
1046,1	51,3
1046,5	22,5
1046,9	35,7
1047,3	21,7
1047,7	39,3
1048,1	41,5
1048,5	19,1
1049	23,9
1049,4	46,3
1049,8	33,7
1050,2	22,3
1050,6	16,3
1051	24,9
1051,4	7,1
1051,9	19,9
1052,3	23,7
1052,7	36,7
1053,1	24,7
1053,5	39,9
1053,9	33,1
1054,3	36,5
1054,8	29,3
1055,2	38,5
1055,6	24,5
1056	25,7
1056,4	43,7
1056,8	38,7
1057,2	50,9
1057,6	31,9
1058,1	44,1
1058,5	27,1
1058,9	48,7
1059,3	37,9
1059,7	20,3
1060,1	20,5
1060,5	38,5
1061	34,9
1061,4	34,7
1061,8	48,5
1062,2	24,5
1062,6	35,5
1063	36,3
1063,4	26,5
1063,8	32,7
1064,3	25,1
1064,7	32,5
1065,1	19,3
1065,5	52,1
1065,9	52,7
1066,3	26,5
1066,7	14,5
1067,1	52,7
1067,6	32,1
1068	22,9
1068,4	34,3
1068,8	6,5
1069,2	37,3
1069,6	41,7
1070	17,7
1070,4	26,7
1070,9	43,3
1071,3	20,1
1071,7	28,1
1072,1	39,1
1072,5	23,7
1072,9	22,1
1073,3	28,9
1073,7	30,5
1074,2	33,7
1074,6	45,1
1075	62,1
1075,4	27,5
1075,8	32,3
1076,2	47,9
1076,6	28,5
1077	28,5
1077,5	26,1
1077,9	20,5
1078,3	24,9
1078,7	30,9
1079,1	16,5
1079,5	30,1
1079,9	22,1
1080,3	20,1
1080,7	52,9
1081,2	26,1
1081,6	37,7
1082	21,1
1082,4	4,5
1082,8	28,5
1083,2	36,3
1083,6	27,1
1084	37,9
1084,5	25,3
1084,9	20,3
1085,3	26,3
1085,7	63,7
1086,1	35,5
1086,5	23,7
1086,9	8,7
1087,3	40,7
1087,7	25,7
1088,2	26,3
1088,6	31,3
1089	12,1
1089,4	22,5
1089,8	17,5
1090,2	18,3
1090,6	37,1
1091	22,7
1091,4	21,7
1091,9	26,3
1092,3	33,7
1092,7	25,9
1093,1	17,3
1093,5	26,1
1093,9	13,9
1094,3	20,3
1094,7	27,3
1095,1	12,7
1095,5	24,3
1096	24,1
1096,4	44,1
1096,8	48,5
1097,2	41,5
1097,6	31,1
1098	25,5
1098,4	25,3
1098,8	25,9
1099,2	13,1
1099,6	18,5
1100,1	23,7
1100,5	21,3
1100,9	20,7
1101,3	44,7
1101,7	22,7
1102,1	13,7
1102,5	19,7
1102,9	18,5
1103,3	4,9
1103,7	19,1
1104,2	24,5
1104,6	10,3
1105	16,7
1105,4	9,9
1105,8	17,3
1106,2	13,7
1106,6	18,3
1107	-2,1
1107,4	2,9
1107,8	-1,9
1108,3	0,1
