Data from Subt2_00017.txt Node
Date: Fri Jul 14 14:26:40 MSK 2023
User: vat
Spectrometer: MAYP114033
Trigger mode: 0
Integration Time (sec): 5,000000E-1
Scans to average: 5
Electric dark correction enabled: true
Nonlinearity correction enabled: false
Boxcar width: 0
XAxis mode: Wavelengths
Number of Pixels in Spectrum: 2068
>>>>>Begin Spectral Data<<<<<
199,4	1,067
199,9	-0,933
200,4	-1,533
200,8	0,067
201,3	46,067
201,8	19,267
202,2	7,467
202,7	24,467
203,2	41,667
203,6	15,667
204,1	32,867
204,6	17,067
205	41,867
205,5	45,067
206	26,467
206,4	41,267
206,9	17,667
207,4	24,867
207,8	48,667
208,3	37,067
208,8	32,267
209,2	42,467
209,7	42,867
210,2	45,667
210,6	34,267
211,1	42,867
211,5	31,267
212	27,267
212,5	67,867
212,9	42,467
213,4	40,667
213,9	33,267
214,3	37,267
214,8	62,267
215,3	33,467
215,7	57,867
216,2	44,067
216,7	67,867
217,1	49,667
217,6	40,067
218,1	57,867
218,5	57,467
219	53,667
219,5	63,267
219,9	42,667
220,4	29,267
220,9	51,667
221,3	46,067
221,8	54,867
222,3	40,667
222,7	43,467
223,2	24,467
223,6	68,867
224,1	43,467
224,6	32,467
225	57,467
225,5	68,867
226	67,067
226,4	69,267
226,9	42,867
227,4	41,467
227,8	45,067
228,3	50,667
228,8	47,667
229,2	65,067
229,7	42,867
230,2	78,667
230,6	69,467
231,1	53,867
231,5	70,867
232	73,867
232,5	49,867
232,9	36,067
233,4	50,467
233,9	62,267
234,3	65,067
234,8	65,467
235,3	45,267
235,7	33,867
236,2	51,867
236,7	41,067
237,1	49,467
237,6	43,867
238,1	32,667
238,5	64,667
239	63,467
239,4	54,067
239,9	28,267
240,4	63,467
240,8	62,267
241,3	40,067
241,8	39,467
242,2	48,867
242,7	39,067
243,2	31,067
243,6	41,267
244,1	54,867
244,6	40,267
245	65,067
245,5	48,667
245,9	51,267
246,4	79,867
246,9	57,067
247,3	19,067
247,8	32,067
248,3	41,067
248,7	40,667
249,2	47,667
249,7	35,267
250,1	29,467
250,6	45,867
251	16,267
251,5	63,267
252	42,067
252,4	62,867
252,9	69,467
253,4	58,267
253,8	52,467
254,3	50,267
254,8	46,867
255,2	60,867
255,7	73,467
256,1	44,467
256,6	44,667
257,1	45,667
257,5	50,867
258	56,667
258,5	65,467
258,9	63,667
259,4	53,067
259,9	39,267
260,3	54,867
260,8	20,067
261,2	55,267
261,7	49,267
262,2	77,867
262,6	39,667
263,1	62,267
263,6	53,667
264	67,067
264,5	64,867
264,9	47,467
265,4	60,067
265,9	42,667
266,3	37,267
266,8	53,267
267,3	61,667
267,7	56,867
268,2	38,667
268,7	41,267
269,1	52,667
269,6	53,067
270	27,467
270,5	43,667
271	56,067
271,4	50,667
271,9	53,667
272,4	39,267
272,8	53,067
273,3	35,267
273,7	58,267
274,2	41,067
274,7	47,467
275,1	37,067
275,6	51,067
276,1	31,067
276,5	43,267
277	52,867
277,4	28,867
277,9	58,867
278,4	59,067
278,8	45,467
279,3	52,067
279,8	66,267
280,2	60,467
280,7	39,667
281,1	61,267
281,6	37,467
282,1	58,667
282,5	55,067
283	70,067
283,4	41,667
283,9	11,867
284,4	38,667
284,8	24,267
285,3	52,667
285,8	42,667
286,2	47,267
286,7	64,267
287,1	36,267
287,6	38,267
288,1	49,467
288,5	38,467
289	38,067
289,5	45,667
289,9	49,867
290,4	39,867
290,8	40,867
291,3	38,467
291,8	87,467
292,2	43,467
292,7	53,667
293,1	38,467
293,6	42,067
294,1	61,467
294,5	45,867
295	73,067
295,5	58,067
295,9	30,667
296,4	27,867
296,8	31,067
297,3	67,467
297,8	56,867
298,2	51,667
298,7	58,867
299,1	53,667
299,6	65,067
300,1	23,467
300,5	32,667
301	49,667
301,5	42,667
301,9	30,867
302,4	49,067
302,8	50,267
303,3	61,067
303,8	65,667
304,2	46,267
304,7	47,067
305,1	50,867
305,6	57,667
306,1	39,067
306,5	65,867
307	54,667
307,4	72,067
307,9	55,067
308,4	49,867
308,8	37,867
309,3	47,467
309,8	51,067
310,2	48,467
310,7	55,067
311,1	54,667
311,6	47,067
312,1	43,067
312,5	36,267
313	53,067
313,4	52,867
313,9	51,267
314,4	54,867
314,8	47,267
315,3	53,667
315,7	36,867
316,2	36,667
316,7	60,667
317,1	48,067
317,6	39,267
318	48,867
318,5	54,467
319	38,467
319,4	51,067
319,9	50,667
320,3	58,667
320,8	47,667
321,3	53,467
321,7	49,667
322,2	56,067
322,6	54,667
323,1	38,067
323,6	27,667
324	47,267
324,5	28,867
324,9	40,467
325,4	54,467
325,9	54,467
326,3	55,267
326,8	43,467
327,2	52,667
327,7	45,467
328,2	53,067
328,6	80,067
329,1	34,667
329,5	46,267
330	63,467
330,5	32,467
330,9	40,867
331,4	38,267
331,8	40,267
332,3	49,467
332,8	42,267
333,2	51,867
333,7	51,267
334,1	54,867
334,6	45,467
335,1	37,067
335,5	44,067
336	52,667
336,4	67,867
336,9	57,067
337,4	43,267
337,8	35,667
338,3	50,667
338,7	50,067
339,2	69,867
339,7	58,867
340,1	37,067
340,6	54,667
341	50,667
341,5	35,067
342	41,867
342,4	61,267
342,9	51,867
343,3	53,067
343,8	40,867
344,2	55,867
344,7	73,467
345,2	34,867
345,6	52,467
346,1	48,467
346,5	58,267
347	56,667
347,5	51,867
347,9	56,667
348,4	60,867
348,8	45,267
349,3	43,067
349,8	46,667
350,2	31,867
350,7	64,267
351,1	41,667
351,6	47,467
352	53,667
352,5	51,667
353	74,267
353,4	41,467
353,9	48,067
354,3	57,467
354,8	55,467
355,3	63,467
355,7	70,467
356,2	52,067
356,6	85,667
357,1	72,067
357,5	80,067
358	96,467
358,5	93,867
358,9	118,867
359,4	132,667
359,8	119,267
360,3	124,467
360,8	172,667
361,2	162,867
361,7	180,667
362,1	182,667
362,6	218,067
363	232,067
363,5	278,267
364	290,267
364,4	312,667
364,9	334,867
365,3	353,667
365,8	380,067
366,3	411,467
366,7	418,667
367,2	450,667
367,6	462,267
368,1	476,867
368,5	494,067
369	484,067
369,5	478,067
369,9	517,267
370,4	502,867
370,8	499,267
371,3	439,867
371,7	443,867
372,2	418,267
372,7	441,267
373,1	412,467
373,6	380,867
374	351,267
374,5	328,867
374,9	289,267
375,4	279,667
375,9	297,867
376,3	229,267
376,8	266,667
377,2	221,867
377,7	199,667
378,2	205,267
378,6	167,267
379,1	152,867
379,5	149,267
380	158,067
380,4	154,467
380,9	141,467
381,4	127,267
381,8	112,667
382,3	125,267
382,7	97,067
383,2	105,467
383,6	128,667
384,1	96,867
384,6	91,267
385	83,667
385,5	109,067
385,9	83,067
386,4	68,867
386,8	86,267
387,3	91,267
387,7	88,267
388,2	87,267
388,7	69,067
389,1	66,667
389,6	61,267
390	88,067
390,5	70,867
390,9	64,467
391,4	65,867
391,9	70,867
392,3	56,467
392,8	69,667
393,2	64,667
393,7	51,667
394,1	53,667
394,6	60,867
395,1	57,667
395,5	81,267
396	49,667
396,4	64,467
396,9	49,667
397,3	63,867
397,8	57,467
398,2	48,467
398,7	66,067
399,2	60,467
399,6	57,267
400,1	72,667
400,5	53,667
401	56,867
401,4	51,467
401,9	70,867
402,4	75,667
402,8	62,867
403,3	54,667
403,7	71,267
404,2	82,267
404,6	46,467
405,1	47,667
405,5	68,867
406	48,267
406,5	60,867
406,9	50,267
407,4	82,267
407,8	56,267
408,3	44,867
408,7	66,067
409,2	68,467
409,6	45,667
410,1	77,067
410,6	71,467
411	49,067
411,5	81,067
411,9	72,067
412,4	88,667
412,8	67,067
413,3	83,267
413,7	69,267
414,2	81,667
414,7	62,667
415,1	66,867
415,6	100,067
416	93,467
416,5	84,667
416,9	97,667
417,4	110,467
417,8	88,067
418,3	127,267
418,8	97,467
419,2	104,867
419,7	99,867
420,1	112,267
420,6	102,467
421	134,467
421,5	126,867
421,9	116,467
422,4	115,667
422,8	111,067
423,3	119,467
423,8	116,867
424,2	130,467
424,7	119,867
425,1	133,067
425,6	129,067
426	136,067
426,5	144,067
426,9	132,667
427,4	138,867
427,9	145,667
428,3	152,267
428,8	179,667
429,2	172,667
429,7	179,867
430,1	181,067
430,6	172,267
431	179,267
431,5	201,267
431,9	198,467
432,4	210,067
432,8	209,667
433,3	226,867
433,8	235,267
434,2	230,067
434,7	236,467
435,1	273,867
435,6	275,067
436	266,067
436,5	272,467
436,9	279,067
437,4	292,067
437,8	304,267
438,3	324,067
438,8	334,267
439,2	364,867
439,7	369,667
440,1	385,067
440,6	393,267
441	410,467
441,5	414,067
441,9	476,467
442,4	461,667
442,8	483,867
443,3	497,267
443,7	510,467
444,2	552,867
444,7	551,467
445,1	605,267
445,6	613,267
446	636,467
446,5	653,267
446,9	708,667
447,4	708,667
447,8	749,867
448,3	756,267
448,7	789,467
449,2	808,067
449,6	826,067
450,1	859,867
450,6	905,467
451	944,267
451,5	953,467
451,9	1004,267
452,4	1038,667
452,8	1059,867
453,3	1078,667
453,7	1144,667
454,2	1171,867
454,6	1169,667
455,1	1235,067
455,5	1279,467
456	1328,067
456,4	1349,067
456,9	1403,267
457,3	1406,667
457,8	1464,467
458,3	1492,467
458,7	1524,467
459,2	1609,867
459,6	1635,267
460,1	1674,267
460,5	1714,667
461	1771,667
461,4	1795,267
461,9	1831,667
462,3	1889,267
462,8	1927,267
463,2	1939,667
463,7	1988,467
464,1	2033,467
464,6	2108,067
465	2107,467
465,5	2161,867
466	2235,867
466,4	2263,067
466,9	2292,467
467,3	2380,467
467,8	2378,867
468,2	2444,067
468,7	2495,867
469,1	2515,667
469,6	2616,867
470	2598,667
470,5	2683,067
470,9	2694,667
471,4	2767,867
471,8	2786,467
472,3	2863,267
472,7	2877,867
473,2	2904,867
473,6	2964,267
474,1	2992,867
474,5	3058,867
475	3081,267
475,4	3124,867
475,9	3172,867
476,4	3185,067
476,8	3234,667
477,3	3279,867
477,7	3292,467
478,2	3333,667
478,6	3385,867
479,1	3436,867
479,5	3463,267
480	3435,267
480,4	3495,067
480,9	3511,067
481,3	3542,467
481,8	3568,667
482,2	3630,267
482,7	3672,667
483,1	3709,067
483,6	3689,867
484	3736,467
484,5	3755,467
484,9	3784,467
485,4	3780,267
485,8	3831,267
486,3	3822,267
486,7	3831,667
487,2	3831,267
487,6	3845,467
488,1	3913,667
488,5	3936,067
489	3928,267
489,4	3965,267
489,9	3931,667
490,4	3956,067
490,8	3978,467
491,3	3968,667
491,7	3987,067
492,2	3973,667
492,6	3975,267
493,1	3938,467
493,5	3977,667
494	3959,267
494,4	4008,067
494,9	3942,267
495,3	4026,667
495,8	3972,667
496,2	3975,867
496,7	3951,267
497,1	3988,467
497,6	3932,067
498	3936,467
498,5	3959,467
498,9	3927,467
499,4	3945,667
499,8	3917,667
500,3	3906,467
500,7	3909,867
501,2	3918,467
501,6	3875,667
502,1	3882,267
502,5	3902,467
503	3909,067
503,4	3880,267
503,9	3881,267
504,3	3860,667
504,8	3827,467
505,2	3807,867
505,7	3809,267
506,1	3784,267
506,6	3751,267
507	3729,667
507,5	3726,867
507,9	3664,267
508,4	3672,267
508,8	3715,867
509,3	3653,267
509,7	3640,267
510,2	3633,667
510,6	3614,067
511,1	3588,067
511,5	3576,067
512	3562,667
512,4	3552,867
512,9	3501,067
513,3	3486,667
513,8	3452,467
514,2	3442,067
514,7	3418,867
515,1	3424,667
515,6	3387,067
516	3380,867
516,5	3331,467
516,9	3316,267
517,4	3301,467
517,8	3292,867
518,3	3262,867
518,7	3246,667
519,2	3233,267
519,6	3201,867
520,1	3167,667
520,5	3175,667
521	3115,867
521,4	3108,467
521,9	3088,467
522,3	3033,067
522,8	3056,667
523,2	3031,667
523,7	3050,667
524,1	2968,067
524,6	2960,867
525	2957,867
525,5	2949,067
525,9	2896,667
526,4	2935,267
526,8	2863,667
527,3	2862,467
527,7	2839,267
528,2	2816,867
528,6	2803,067
529,1	2796,267
529,5	2772,867
530	2794,267
530,4	2742,267
530,9	2738,467
531,3	2700,467
531,8	2668,067
532,2	2647,867
532,6	2635,067
533,1	2619,467
533,5	2610,267
534	2572,467
534,4	2581,467
534,9	2573,267
535,3	2555,867
535,8	2511,467
536,2	2505,667
536,7	2503,267
537,1	2497,267
537,6	2452,467
538	2471,067
538,5	2417,467
538,9	2439,267
539,4	2430,667
539,8	2414,667
540,3	2364,067
540,7	2374,267
541,2	2348,067
541,6	2330,267
542,1	2328,867
542,5	2302,667
543	2303,267
543,4	2298,667
543,9	2294,467
544,3	2266,067
544,8	2251,667
545,2	2257,267
545,7	2218,667
546,1	2231,667
546,5	2198,267
547	2183,467
547,4	2168,467
547,9	2163,867
548,3	2180,267
548,8	2115,467
549,2	2132,667
549,7	2129,467
550,1	2124,267
550,6	2098,267
551	2056,267
551,5	2082,667
551,9	2061,867
552,4	2083,467
552,8	2079,067
553,3	2070,267
553,7	2031,467
554,2	2010,467
554,6	2007,067
555,1	2003,267
555,5	1985,667
555,9	2017,267
556,4	1969,067
556,8	1985,667
557,3	1953,467
557,7	1946,467
558,2	1942,867
558,6	1953,467
559,1	1925,867
559,5	1897,867
560	1917,067
560,4	1940,467
560,9	1877,667
561,3	1884,067
561,8	1863,667
562,2	1874,667
562,7	1880,667
563,1	1877,467
563,6	1824,867
564	1817,067
564,4	1836,267
564,9	1805,867
565,3	1826,267
565,8	1821,467
566,2	1825,867
566,7	1793,067
567,1	1807,867
567,6	1784,467
568	1786,867
568,5	1794,267
568,9	1773,667
569,4	1752,067
569,8	1762,067
570,3	1749,467
570,7	1773,067
571,1	1708,467
571,6	1747,867
572	1743,467
572,5	1703,667
572,9	1722,467
573,4	1685,267
573,8	1708,067
574,3	1688,667
574,7	1655,867
575,2	1696,667
575,6	1675,467
576,1	1659,267
576,5	1683,467
576,9	1670,067
577,4	1658,667
577,8	1645,867
578,3	1648,467
578,7	1632,467
579,2	1636,067
579,6	1625,667
580,1	1624,067
580,5	1593,467
581	1609,067
581,4	1604,267
581,9	1594,267
582,3	1590,467
582,7	1611,067
583,2	1567,267
583,6	1571,267
584,1	1557,667
584,5	1572,267
585	1551,067
585,4	1539,467
585,9	1548,467
586,3	1517,067
586,8	1544,267
587,2	1521,667
587,6	1493,667
588,1	1471,667
588,5	1508,067
589	1490,667
589,4	1481,067
589,9	1487,067
590,3	1462,667
590,8	1472,467
591,2	1461,867
591,7	1454,867
592,1	1451,667
592,5	1454,467
593	1459,467
593,4	1442,267
593,9	1420,067
594,3	1473,667
594,8	1413,267
595,2	1435,067
595,7	1425,667
596,1	1419,667
596,6	1414,867
597	1398,667
597,4	1387,467
597,9	1377,067
598,3	1397,667
598,8	1396,867
599,2	1377,667
599,7	1392,267
600,1	1402,067
600,6	1336,667
601	1376,067
601,4	1359,867
601,9	1338,467
602,3	1315,667
602,8	1340,867
603,2	1348,267
603,7	1338,667
604,1	1308,667
604,6	1318,867
605	1326,267
605,4	1317,467
605,9	1325,067
606,3	1294,067
606,8	1293,067
607,2	1317,067
607,7	1291,867
608,1	1268,267
608,6	1301,667
609	1298,467
609,4	1283,867
609,9	1263,067
610,3	1257,067
610,8	1260,267
611,2	1258,067
611,7	1258,467
612,1	1259,467
612,6	1248,467
613	1240,667
613,4	1239,467
613,9	1266,067
614,3	1214,667
614,8	1216,867
615,2	1191,867
615,7	1226,067
616,1	1196,467
616,6	1178,467
617	1176,467
617,4	1224,067
617,9	1191,267
618,3	1216,467
618,8	1192,267
619,2	1184,267
619,7	1164,867
620,1	1170,867
620,5	1152,667
621	1168,067
621,4	1150,467
621,9	1126,067
622,3	1127,067
622,8	1095,067
623,2	1152,067
623,6	1130,467
624,1	1124,067
624,5	1087,467
625	1108,067
625,4	1105,067
625,9	1103,267
626,3	1110,467
626,8	1079,667
627,2	1067,867
627,6	1065,667
628,1	1086,667
628,5	1048,667
629	1053,067
629,4	1062,067
629,9	1059,467
630,3	1057,667
630,7	1032,867
631,2	1022,667
631,6	1023,267
632,1	1032,267
632,5	1020,667
633	1026,667
633,4	1023,667
633,8	1015,867
634,3	1018,467
634,7	1017,467
635,2	1000,667
635,6	1002,267
636,1	986,667
636,5	988,667
636,9	953,867
637,4	981,267
637,8	993,067
638,3	975,067
638,7	951,067
639,2	966,067
639,6	956,667
640	952,067
640,5	938,467
640,9	951,067
641,4	942,667
641,8	921,867
642,2	939,267
642,7	936,067
643,1	927,867
643,6	937,667
644	941,067
644,5	937,467
644,9	929,067
645,3	902,467
645,8	906,067
646,2	910,867
646,7	909,467
647,1	871,667
647,6	890,067
648	851,267
648,4	894,467
648,9	863,667
649,3	845,067
649,8	869,667
650,2	897,067
650,6	846,467
651,1	862,867
651,5	860,467
652	851,067
652,4	848,467
652,9	853,667
653,3	864,867
653,7	850,067
654,2	860,667
654,6	852,267
655,1	815,067
655,5	852,667
655,9	815,267
656,4	807,067
656,8	817,667
657,3	814,067
657,7	814,467
658,2	814,667
658,6	802,067
659	805,067
659,5	769,467
659,9	774,867
660,4	791,467
660,8	793,467
661,2	751,867
661,7	796,067
662,1	772,467
662,6	761,467
663	741,667
663,4	759,467
663,9	750,667
664,3	764,267
664,8	755,267
665,2	742,267
665,6	750,067
666,1	737,267
666,5	744,667
667	746,267
667,4	732,467
667,9	727,867
668,3	719,667
668,7	720,267
669,2	733,467
669,6	723,067
670,1	709,467
670,5	691,467
670,9	723,867
671,4	705,867
671,8	672,667
672,3	694,467
672,7	689,067
673,1	700,067
673,6	665,067
674	673,267
674,5	673,267
674,9	668,467
675,3	665,267
675,8	691,067
676,2	669,067
676,7	648,867
677,1	642,467
677,5	661,867
678	639,867
678,4	655,867
678,9	639,467
679,3	629,667
679,7	625,467
680,2	614,867
680,6	620,267
681,1	617,667
681,5	652,867
681,9	613,267
682,4	597,067
682,8	620,067
683,3	637,267
683,7	627,267
684,1	595,267
684,6	612,867
685	614,067
685,5	604,067
685,9	600,267
686,3	594,467
686,8	588,067
687,2	600,067
687,7	577,267
688,1	580,667
688,5	589,067
689	581,067
689,4	575,667
689,9	557,067
690,3	550,067
690,7	558,667
691,2	560,467
691,6	566,267
692	547,467
692,5	556,267
692,9	551,067
693,4	534,267
693,8	548,067
694,2	526,067
694,7	552,467
695,1	555,667
695,6	527,667
696	544,667
696,4	552,267
696,9	528,067
697,3	523,067
697,8	521,667
698,2	504,467
698,6	542,667
699,1	531,467
699,5	523,267
699,9	518,067
700,4	504,667
700,8	511,867
701,3	513,467
701,7	489,467
702,1	508,667
702,6	492,467
703	482,267
703,5	548,467
703,9	478,467
704,3	529,467
704,8	509,067
705,2	497,267
705,6	495,467
706,1	470,667
706,5	472,067
707	470,867
707,4	483,267
707,8	484,867
708,3	466,667
708,7	462,667
709,2	467,667
709,6	506,067
710	478,267
710,5	453,067
710,9	467,867
711,3	444,267
711,8	465,667
712,2	430,667
712,7	450,467
713,1	453,267
713,5	439,867
714	446,667
714,4	443,467
714,8	432,467
715,3	427,667
715,7	418,667
716,2	423,467
716,6	437,867
717	423,467
717,5	412,867
717,9	434,067
718,3	413,067
718,8	413,467
719,2	413,467
719,7	416,867
720,1	409,867
720,5	405,067
721	403,067
721,4	410,867
721,8	384,467
722,3	395,667
722,7	395,667
723,2	417,467
723,6	397,067
724	392,067
724,5	376,667
724,9	376,467
725,3	372,267
725,8	361,067
726,2	349,667
726,7	373,467
727,1	373,267
727,5	372,667
728	368,267
728,4	381,467
728,8	384,267
729,3	393,067
729,7	354,867
730,1	343,867
730,6	377,867
731	355,267
731,5	357,667
731,9	352,467
732,3	353,867
732,8	341,267
733,2	335,667
733,6	361,867
734,1	373,467
734,5	341,267
734,9	364,067
735,4	328,267
735,8	316,667
736,3	357,667
736,7	343,667
737,1	363,467
737,6	336,067
738	337,267
738,4	314,867
738,9	339,067
739,3	363,667
739,7	330,867
740,2	330,667
740,6	340,867
741,1	324,667
741,5	324,867
741,9	319,267
742,4	303,667
742,8	307,667
743,2	308,267
743,7	301,467
744,1	318,467
744,5	338,067
745	303,867
745,4	311,267
745,8	292,867
746,3	300,867
746,7	311,867
747,2	288,067
747,6	290,867
748	309,667
748,5	308,867
748,9	302,067
749,3	288,667
749,8	285,867
750,2	278,667
750,6	288,667
751,1	292,067
751,5	282,267
751,9	313,667
752,4	289,267
752,8	296,067
753,3	289,667
753,7	295,667
754,1	258,667
754,6	271,667
755	267,267
755,4	278,867
755,9	268,067
756,3	278,667
756,7	281,067
757,2	286,067
757,6	268,067
758	269,267
758,5	267,867
758,9	267,067
759,3	254,667
759,8	253,667
760,2	257,667
760,6	235,067
761,1	252,067
761,5	268,067
761,9	257,067
762,4	250,267
762,8	267,267
763,3	243,267
763,7	226,467
764,1	235,067
764,6	244,867
765	253,867
765,4	249,067
765,9	234,267
766,3	250,267
766,7	240,867
767,2	231,467
767,6	217,267
768	217,867
768,5	239,667
768,9	228,867
769,3	263,267
769,8	225,867
770,2	240,067
770,6	229,867
771,1	227,267
771,5	243,667
771,9	238,467
772,4	226,267
772,8	241,067
773,2	222,267
773,7	231,067
774,1	222,467
774,5	223,867
775	205,467
775,4	223,867
775,8	221,067
776,3	202,667
776,7	234,667
777,1	229,667
777,6	220,267
778	239,267
778,4	221,667
778,9	216,267
779,3	213,867
779,7	199,467
780,2	218,067
780,6	189,267
781	199,667
781,5	207,667
781,9	196,067
782,3	195,667
782,8	226,867
783,2	205,467
783,6	198,467
784,1	197,267
784,5	221,867
784,9	219,267
785,4	194,867
785,8	195,267
786,2	214,467
786,7	206,667
787,1	190,867
787,5	182,867
788	186,867
788,4	176,067
788,8	177,467
789,3	204,067
789,7	173,267
790,1	202,467
790,6	174,467
791	180,667
791,4	191,467
791,9	194,867
792,3	188,867
792,7	171,067
793,2	190,067
793,6	154,867
794	179,067
794,5	184,667
794,9	166,467
795,3	187,467
795,8	145,067
796,2	175,267
796,6	176,067
797,1	173,267
797,5	168,267
797,9	164,867
798,4	193,667
798,8	173,667
799,2	173,267
799,7	176,867
800,1	164,667
800,5	164,867
801	164,067
801,4	165,667
801,8	166,667
802,2	141,667
802,7	179,867
803,1	171,267
803,5	155,667
804	158,067
804,4	169,667
804,8	130,667
805,3	161,267
805,7	147,067
806,1	164,267
806,6	176,667
807	150,267
807,4	159,867
807,9	150,467
808,3	162,467
808,7	134,067
809,2	145,267
809,6	165,867
810	159,267
810,4	128,667
810,9	155,067
811,3	167,067
811,7	150,467
812,2	148,867
812,6	134,067
813	129,067
813,5	146,667
813,9	139,667
814,3	141,267
814,8	144,267
815,2	138,867
815,6	115,067
816,1	148,467
816,5	150,867
816,9	154,067
817,3	120,067
817,8	134,867
818,2	135,067
818,6	118,467
819,1	143,867
819,5	117,667
819,9	140,067
820,4	125,067
820,8	118,867
821,2	149,867
821,7	117,867
822,1	138,867
822,5	127,267
822,9	117,667
823,4	106,867
823,8	125,467
824,2	114,467
824,7	127,067
825,1	156,267
825,5	111,667
826	138,867
826,4	101,467
826,8	114,267
827,3	110,867
827,7	141,467
828,1	116,867
828,5	119,667
829	104,867
829,4	117,067
829,8	113,867
830,3	100,867
830,7	111,667
831,1	103,667
831,6	90,467
832	106,867
832,4	109,467
832,8	106,267
833,3	127,067
833,7	91,067
834,1	130,267
834,6	104,067
835	96,867
835,4	109,667
835,8	103,267
836,3	106,067
836,7	105,267
837,1	102,867
837,6	94,667
838	107,267
838,4	95,267
838,9	100,067
839,3	88,067
839,7	108,067
840,1	85,267
840,6	100,067
841	101,467
841,4	109,067
841,9	93,067
842,3	125,067
842,7	87,667
843,1	101,467
843,6	107,867
844	89,067
844,4	100,667
844,9	121,667
845,3	98,267
845,7	106,467
846,2	79,667
846,6	101,867
847	106,267
847,4	94,067
847,9	103,067
848,3	102,467
848,7	98,667
849,2	91,267
849,6	111,067
850	102,267
850,4	101,667
850,9	104,867
851,3	96,467
851,7	81,867
852,2	83,467
852,6	110,467
853	85,067
853,4	95,867
853,9	108,667
854,3	98,867
854,7	90,267
855,2	84,467
855,6	94,267
856	84,867
856,4	84,667
856,9	89,267
857,3	104,867
857,7	80,067
858,2	96,267
858,6	95,667
859	85,467
859,4	93,667
859,9	85,867
860,3	98,667
860,7	93,267
861,1	90,867
861,6	87,667
862	98,667
862,4	107,667
862,9	73,267
863,3	76,667
863,7	82,267
864,1	79,667
864,6	69,467
865	92,867
865,4	79,067
865,9	87,067
866,3	84,267
866,7	85,667
867,1	85,667
867,6	104,067
868	78,267
868,4	83,667
868,8	61,867
869,3	77,267
869,7	83,667
870,1	81,267
870,6	88,867
871	61,467
871,4	71,267
871,8	80,067
872,3	567,667
872,7	62,467
873,1	91,267
873,5	70,267
874	89,067
874,4	103,067
874,8	85,867
875,3	62,067
875,7	76,667
876,1	57,467
876,5	85,067
877	72,067
877,4	66,667
877,8	70,667
878,2	79,067
878,7	64,667
879,1	72,667
879,5	85,467
879,9	54,867
880,4	80,867
880,8	65,067
881,2	85,467
881,7	81,867
882,1	80,267
882,5	84,467
882,9	74,467
883,4	82,467
883,8	52,067
884,2	84,667
884,6	70,667
885,1	85,667
885,5	59,667
885,9	74,267
886,3	53,467
886,8	75,867
887,2	65,867
887,6	60,667
888	61,467
888,5	77,667
888,9	72,667
889,3	88,867
889,8	69,067
890,2	42,667
890,6	80,467
891	50,267
891,5	66,467
891,9	47,667
892,3	56,867
892,7	77,267
893,2	59,667
893,6	85,467
894	61,467
894,4	58,067
894,9	42,867
895,3	75,467
895,7	60,867
896,1	55,267
896,6	79,067
897	66,867
897,4	69,667
897,8	46,867
898,3	66,667
898,7	68,067
899,1	67,467
899,5	72,067
900	66,267
900,4	75,467
900,8	74,067
901,2	53,067
901,7	84,267
902,1	71,267
902,5	71,067
902,9	69,467
903,4	49,667
903,8	63,867
904,2	76,067
904,6	58,467
905,1	51,267
905,5	56,267
905,9	55,867
906,3	77,667
906,8	52,267
907,2	62,067
907,6	60,867
908	52,267
908,5	73,867
908,9	71,067
909,3	46,667
909,7	64,067
910,2	67,867
910,6	74,267
911	70,267
911,4	69,867
911,9	52,867
912,3	65,667
912,7	55,067
913,1	43,667
913,6	58,867
914	76,267
914,4	54,667
914,8	60,867
915,3	56,667
915,7	53,867
916,1	64,867
916,5	64,667
916,9	70,867
917,4	56,467
917,8	52,067
918,2	79,267
918,6	45,867
919,1	52,067
919,5	50,667
919,9	53,267
920,3	50,267
920,8	63,467
921,2	53,867
921,6	67,867
922	60,067
922,5	78,867
922,9	58,467
923,3	56,667
923,7	61,467
924,2	45,267
924,6	45,467
925	72,267
925,4	42,467
925,8	44,867
926,3	70,067
926,7	85,467
927,1	44,067
927,5	64,667
928	36,067
928,4	69,467
928,8	57,067
929,2	65,067
929,7	67,267
930,1	54,067
930,5	57,267
930,9	70,267
931,3	44,467
931,8	81,467
932,2	61,067
932,6	45,667
933	54,267
933,5	66,067
933,9	62,467
934,3	35,467
934,7	53,267
935,2	56,267
935,6	59,467
936	49,667
936,4	25,067
936,8	66,667
937,3	62,067
937,7	79,067
938,1	69,267
938,5	63,667
939	32,067
939,4	67,267
939,8	49,067
940,2	55,467
940,6	69,267
941,1	56,267
941,5	60,267
941,9	62,067
942,3	49,467
942,8	55,067
943,2	69,867
943,6	50,267
944	56,467
944,4	58,267
944,9	42,667
945,3	43,867
945,7	33,067
946,1	48,467
946,6	42,867
947	52,467
947,4	64,067
947,8	45,667
948,2	48,867
948,7	59,067
949,1	45,867
949,5	65,467
949,9	66,667
950,3	39,467
950,8	46,467
951,2	49,867
951,6	37,267
952	40,267
952,5	44,267
952,9	44,667
953,3	30,667
953,7	66,467
954,1	43,267
954,6	43,467
955	34,867
955,4	73,267
955,8	53,867
956,2	56,267
956,7	60,867
957,1	47,467
957,5	36,867
957,9	51,467
958,3	57,867
958,8	39,667
959,2	45,067
959,6	64,067
960	47,067
960,5	68,667
960,9	43,267
961,3	69,667
961,7	70,867
962,1	50,067
962,6	56,467
963	44,667
963,4	56,067
963,8	55,467
964,2	46,267
964,7	29,267
965,1	49,267
965,5	36,267
965,9	49,067
966,3	60,267
966,8	61,867
967,2	48,667
967,6	40,267
968	44,467
968,4	53,467
968,9	31,667
969,3	60,467
969,7	50,667
970,1	47,667
970,5	45,667
971	58,067
971,4	43,467
971,8	52,467
972,2	61,067
972,6	72,467
973,1	51,467
973,5	42,267
973,9	40,867
974,3	39,467
974,7	57,267
975,2	52,267
975,6	54,667
976	46,667
976,4	39,667
976,8	46,467
977,3	54,267
977,7	42,467
978,1	61,867
978,5	32,067
978,9	40,267
979,4	30,067
979,8	42,267
980,2	42,867
980,6	75,267
981	46,267
981,5	52,667
981,9	43,867
982,3	55,267
982,7	28,667
983,1	44,667
983,6	38,867
984	50,867
984,4	44,467
984,8	37,067
985,2	31,267
985,6	48,867
986,1	63,867
986,5	52,067
986,9	60,067
987,3	41,267
987,7	36,867
988,2	44,667
988,6	69,067
989	64,867
989,4	61,267
989,8	26,667
990,3	61,067
990,7	48,867
991,1	36,067
991,5	47,867
991,9	48,067
992,3	41,667
992,8	35,667
993,2	67,467
993,6	51,267
994	43,867
994,4	49,267
994,9	50,267
995,3	49,867
995,7	38,467
996,1	50,867
996,5	61,867
996,9	70,867
997,4	69,867
997,8	60,867
998,2	75,267
998,6	72,867
999	43,667
999,5	43,667
999,9	87,467
1000,3	70,267
1000,7	37,867
1001,1	37,867
1001,5	56,867
1002	64,867
1002,4	52,467
1002,8	47,867
1003,2	53,667
1003,6	50,867
1004	43,467
1004,5	33,867
1004,9	40,067
1005,3	29,467
1005,7	63,267
1006,1	49,867
1006,6	45,867
1007	39,867
1007,4	50,667
1007,8	40,067
1008,2	59,867
1008,6	42,067
1009,1	39,667
1009,5	52,467
1009,9	37,467
1010,3	56,267
1010,7	84,467
1011,1	47,867
1011,6	59,267
1012	53,467
1012,4	51,467
1012,8	55,067
1013,2	52,467
1013,6	52,667
1014,1	34,667
1014,5	48,067
1014,9	44,267
1015,3	54,067
1015,7	35,467
1016,1	36,667
1016,6	50,467
1017	76,067
1017,4	58,467
1017,8	47,667
1018,2	70,667
1018,6	30,667
1019,1	65,867
1019,5	65,067
1019,9	61,667
1020,3	42,067
1020,7	66,667
1021,1	49,667
1021,6	27,667
1022	39,867
1022,4	50,067
1022,8	58,667
1023,2	29,667
1023,6	34,467
1024,1	59,267
1024,5	24,667
1024,9	69,467
1025,3	50,067
1025,7	51,267
1026,1	53,067
1026,6	51,467
1027	65,467
1027,4	53,267
1027,8	66,867
1028,2	53,467
1028,6	86,267
1029	37,867
1029,5	61,667
1029,9	64,667
1030,3	61,667
1030,7	43,267
1031,1	58,667
1031,5	46,467
1032	48,867
1032,4	64,267
1032,8	69,267
1033,2	47,867
1033,6	56,467
1034	62,667
1034,4	56,667
1034,9	34,267
1035,3	50,467
1035,7	48,467
1036,1	44,867
1036,5	64,067
1036,9	49,067
1037,4	43,867
1037,8	45,667
1038,2	80,867
1038,6	74,867
1039	58,267
1039,4	55,267
1039,8	24,467
1040,3	62,067
1040,7	42,467
1041,1	76,467
1041,5	74,067
1041,9	62,067
1042,3	44,467
1042,7	60,667
1043,2	34,267
1043,6	68,067
1044	62,867
1044,4	61,467
1044,8	73,867
1045,2	47,067
1045,6	53,667
1046,1	65,467
1046,5	48,667
1046,9	66,267
1047,3	26,067
1047,7	50,667
1048,1	61,467
1048,5	74,867
1049	41,467
1049,4	69,867
1049,8	63,667
1050,2	42,867
1050,6	54,067
1051	63,667
1051,4	52,467
1051,9	52,067
1052,3	60,267
1052,7	60,467
1053,1	58,667
1053,5	87,067
1053,9	76,867
1054,3	65,667
1054,8	58,867
1055,2	54,067
1055,6	54,467
1056	65,667
1056,4	61,467
1056,8	67,667
1057,2	67,267
1057,6	61,467
1058,1	62,867
1058,5	47,867
1058,9	74,867
1059,3	55,067
1059,7	51,867
1060,1	33,467
1060,5	49,067
1061	68,267
1061,4	61,467
1061,8	63,867
1062,2	43,467
1062,6	85,467
1063	40,267
1063,4	47,467
1063,8	69,867
1064,3	47,667
1064,7	57,067
1065,1	49,067
1065,5	63,467
1065,9	71,067
1066,3	46,467
1066,7	61,867
1067,1	61,667
1067,6	51,667
1068	50,667
1068,4	52,867
1068,8	36,267
1069,2	47,867
1069,6	57,667
1070	52,067
1070,4	56,467
1070,9	64,267
1071,3	69,467
1071,7	61,067
1072,1	46,267
1072,5	53,067
1072,9	39,867
1073,3	63,467
1073,7	53,667
1074,2	55,667
1074,6	57,467
1075	77,667
1075,4	59,667
1075,8	51,867
1076,2	53,467
1076,6	46,467
1077	51,467
1077,5	42,867
1077,9	48,467
1078,3	56,867
1078,7	62,067
1079,1	41,067
1079,5	38,267
1079,9	45,267
1080,3	56,067
1080,7	57,067
1081,2	44,467
1081,6	58,467
1082	56,867
1082,4	21,867
1082,8	42,667
1083,2	47,867
1083,6	48,467
1084	60,067
1084,5	40,667
1084,9	33,267
1085,3	41,267
1085,7	53,467
1086,1	64,267
1086,5	40,467
1086,9	58,067
1087,3	52,467
1087,7	55,667
1088,2	44,467
1088,6	32,267
1089	30,467
1089,4	48,667
1089,8	38,267
1090,2	41,267
1090,6	50,867
1091	65,867
1091,4	30,067
1091,9	56,867
1092,3	56,867
1092,7	55,867
1093,1	51,267
1093,5	58,467
1093,9	39,267
1094,3	56,267
1094,7	38,667
1095,1	28,867
1095,5	36,667
1096	55,667
1096,4	70,467
1096,8	46,467
1097,2	51,267
1097,6	42,667
1098	39,067
1098,4	40,867
1098,8	43,867
1099,2	34,667
1099,6	32,267
1100,1	22,867
1100,5	47,467
1100,9	37,267
1101,3	51,067
1101,7	33,067
1102,1	39,667
1102,5	55,667
1102,9	36,267
1103,3	35,667
1103,7	35,067
1104,2	49,067
1104,6	30,267
1105	39,867
1105,4	30,467
1105,8	26,467
1106,2	27,867
1106,6	23,067
1107	-0,733
1107,4	1,667
1107,8	0,067
1108,3	0,467
