Data from Subt2_00018.txt Node
Date: Fri Jul 14 14:27:58 MSK 2023
User: vat
Spectrometer: MAYP114033
Trigger mode: 0
Integration Time (sec): 5,000000E-1
Scans to average: 5
Electric dark correction enabled: true
Nonlinearity correction enabled: false
Boxcar width: 0
XAxis mode: Wavelengths
Number of Pixels in Spectrum: 2068
>>>>>Begin Spectral Data<<<<<
199,4	0,433
199,9	2,033
200,4	-2,967
200,8	1,233
201,3	45,433
201,8	34,433
202,2	21,633
202,7	32,033
203,2	42,633
203,6	29,633
204,1	22,033
204,6	27,233
205	33,633
205,5	62,233
206	32,433
206,4	37,433
206,9	25,633
207,4	29,833
207,8	53,633
208,3	61,233
208,8	46,633
209,2	49,433
209,7	38,833
210,2	45,633
210,6	58,033
211,1	43,233
211,5	20,233
212	28,833
212,5	63,433
212,9	44,033
213,4	47,633
213,9	49,433
214,3	33,833
214,8	69,033
215,3	45,033
215,7	47,833
216,2	50,433
216,7	56,033
217,1	53,033
217,6	34,833
218,1	55,833
218,5	52,233
219	54,433
219,5	59,633
219,9	41,233
220,4	43,033
220,9	66,033
221,3	55,633
221,8	55,233
222,3	47,633
222,7	41,833
223,2	42,633
223,6	55,033
224,1	51,433
224,6	37,633
225	78,033
225,5	66,433
226	76,033
226,4	73,033
226,9	51,833
227,4	47,233
227,8	42,233
228,3	61,433
228,8	56,833
229,2	59,433
229,7	39,433
230,2	67,433
230,6	77,433
231,1	57,433
231,5	50,233
232	77,033
232,5	47,833
232,9	34,833
233,4	55,233
233,9	60,233
234,3	70,833
234,8	62,433
235,3	60,033
235,7	45,833
236,2	52,633
236,7	53,433
237,1	41,833
237,6	42,233
238,1	36,433
238,5	55,833
239	53,633
239,4	52,633
239,9	49,633
240,4	63,833
240,8	58,833
241,3	36,233
241,8	39,433
242,2	65,433
242,7	63,633
243,2	48,233
243,6	40,633
244,1	45,433
244,6	64,033
245	62,633
245,5	67,433
245,9	62,633
246,4	84,833
246,9	66,433
247,3	42,233
247,8	54,033
248,3	34,633
248,7	56,433
249,2	50,833
249,7	56,833
250,1	35,633
250,6	45,633
251	36,433
251,5	74,833
252	40,233
252,4	84,433
252,9	75,433
253,4	39,233
253,8	50,433
254,3	40,033
254,8	46,633
255,2	68,633
255,7	80,433
256,1	58,033
256,6	70,233
257,1	59,433
257,5	50,833
258	64,033
258,5	53,633
258,9	63,633
259,4	59,433
259,9	57,433
260,3	52,833
260,8	32,633
261,2	75,233
261,7	37,633
262,2	64,833
262,6	45,033
263,1	73,033
263,6	44,033
264	80,033
264,5	73,033
264,9	60,633
265,4	57,633
265,9	35,833
266,3	42,233
266,8	46,233
267,3	43,433
267,7	51,233
268,2	58,833
268,7	40,833
269,1	40,633
269,6	46,233
270	30,033
270,5	50,033
271	40,433
271,4	65,033
271,9	74,433
272,4	58,033
272,8	56,033
273,3	61,833
273,7	61,033
274,2	67,833
274,7	49,633
275,1	49,633
275,6	67,433
276,1	51,433
276,5	43,833
277	53,433
277,4	64,433
277,9	68,633
278,4	59,433
278,8	43,833
279,3	52,633
279,8	75,633
280,2	57,633
280,7	37,833
281,1	39,233
281,6	40,633
282,1	38,033
282,5	43,033
283	47,033
283,4	59,633
283,9	21,433
284,4	57,033
284,8	34,833
285,3	67,433
285,8	51,433
286,2	32,233
286,7	61,633
287,1	50,833
287,6	46,633
288,1	63,833
288,5	48,833
289	43,233
289,5	50,433
289,9	50,433
290,4	53,833
290,8	51,033
291,3	59,633
291,8	60,033
292,2	47,633
292,7	53,633
293,1	52,433
293,6	41,433
294,1	88,433
294,5	74,833
295	73,433
295,5	61,633
295,9	47,233
296,4	39,033
296,8	32,033
297,3	54,433
297,8	73,433
298,2	49,233
298,7	67,033
299,1	56,833
299,6	64,233
300,1	23,633
300,5	54,433
301	34,233
301,5	79,233
301,9	52,633
302,4	60,833
302,8	48,433
303,3	83,033
303,8	63,233
304,2	57,233
304,7	55,633
305,1	62,833
305,6	62,433
306,1	40,833
306,5	61,833
307	57,033
307,4	73,433
307,9	44,433
308,4	43,233
308,8	55,233
309,3	45,233
309,8	56,633
310,2	57,433
310,7	53,033
311,1	46,033
311,6	67,033
312,1	59,833
312,5	35,233
313	66,633
313,4	52,633
313,9	40,633
314,4	41,033
314,8	68,433
315,3	61,233
315,7	39,033
316,2	36,833
316,7	69,033
317,1	62,233
317,6	39,633
318	55,433
318,5	70,833
319	42,633
319,4	70,033
319,9	58,433
320,3	54,833
320,8	52,833
321,3	43,833
321,7	40,033
322,2	52,033
322,6	51,633
323,1	60,033
323,6	46,433
324	54,833
324,5	49,033
324,9	37,233
325,4	55,433
325,9	51,033
326,3	48,433
326,8	59,833
327,2	63,633
327,7	61,433
328,2	55,233
328,6	67,433
329,1	40,433
329,5	40,033
330	48,033
330,5	41,433
330,9	47,833
331,4	60,233
331,8	62,233
332,3	58,833
332,8	27,633
333,2	46,233
333,7	59,433
334,1	62,633
334,6	50,233
335,1	38,033
335,5	41,633
336	52,433
336,4	56,433
336,9	67,633
337,4	47,433
337,8	44,033
338,3	66,633
338,7	41,033
339,2	62,433
339,7	57,833
340,1	63,633
340,6	78,433
341	53,633
341,5	41,633
342	66,233
342,4	64,233
342,9	63,633
343,3	33,033
343,8	55,233
344,2	77,633
344,7	77,233
345,2	54,033
345,6	32,433
346,1	54,033
346,5	56,033
347	70,033
347,5	47,833
347,9	63,633
348,4	67,033
348,8	49,233
349,3	57,633
349,8	52,233
350,2	44,233
350,7	56,433
351,1	46,633
351,6	50,633
352	41,033
352,5	52,833
353	66,433
353,4	50,033
353,9	46,233
354,3	76,833
354,8	36,433
355,3	65,033
355,7	75,033
356,2	51,033
356,6	81,233
357,1	64,833
357,5	88,033
358	91,233
358,5	84,233
358,9	123,233
359,4	126,033
359,8	127,833
360,3	122,233
360,8	167,633
361,2	168,433
361,7	183,633
362,1	193,433
362,6	203,433
363	241,233
363,5	272,433
364	286,633
364,4	300,833
364,9	349,433
365,3	366,833
365,8	384,633
366,3	393,233
366,7	429,633
367,2	449,833
367,6	469,033
368,1	480,433
368,5	495,633
369	479,033
369,5	481,833
369,9	526,433
370,4	488,833
370,8	472,833
371,3	461,033
371,7	436,033
372,2	437,233
372,7	418,833
373,1	417,233
373,6	381,033
374	353,833
374,5	334,033
374,9	312,033
375,4	296,833
375,9	288,833
376,3	238,233
376,8	267,433
377,2	231,633
377,7	212,833
378,2	196,033
378,6	190,633
379,1	163,033
379,5	134,033
380	156,833
380,4	152,433
380,9	142,033
381,4	133,633
381,8	140,833
382,3	119,233
382,7	109,833
383,2	110,833
383,6	124,433
384,1	110,833
384,6	111,833
385	102,633
385,5	97,233
385,9	104,833
386,4	74,833
386,8	87,433
387,3	106,833
387,7	76,633
388,2	97,633
388,7	81,833
389,1	67,433
389,6	64,033
390	75,633
390,5	59,833
390,9	60,233
391,4	44,633
391,9	80,233
392,3	76,033
392,8	77,233
393,2	58,233
393,7	73,033
394,1	69,833
394,6	75,433
395,1	73,433
395,5	67,833
396	62,833
396,4	85,633
396,9	48,633
397,3	68,633
397,8	54,233
398,2	46,033
398,7	53,033
399,2	50,233
399,6	50,633
400,1	63,633
400,5	61,633
401	76,233
401,4	67,233
401,9	58,433
402,4	82,033
402,8	86,433
403,3	57,033
403,7	80,433
404,2	83,633
404,6	48,433
405,1	58,233
405,5	75,433
406	65,033
406,5	72,433
406,9	60,833
407,4	66,633
407,8	59,633
408,3	45,033
408,7	63,433
409,2	58,433
409,6	72,233
410,1	96,033
410,6	70,833
411	62,433
411,5	91,833
411,9	73,833
412,4	79,233
412,8	64,433
413,3	89,633
413,7	89,633
414,2	83,433
414,7	75,033
415,1	76,833
415,6	97,433
416	85,633
416,5	101,233
416,9	99,833
417,4	110,633
417,8	80,633
418,3	133,633
418,8	90,833
419,2	115,233
419,7	118,833
420,1	118,633
420,6	108,433
421	119,633
421,5	110,633
421,9	123,833
422,4	126,433
422,8	111,033
423,3	138,033
423,8	113,033
424,2	131,633
424,7	129,033
425,1	136,433
425,6	140,833
426	118,633
426,5	154,233
426,9	155,633
427,4	156,033
427,9	165,433
428,3	161,433
428,8	172,833
429,2	195,433
429,7	182,033
430,1	191,033
430,6	176,833
431	173,233
431,5	205,433
431,9	208,433
432,4	215,033
432,8	220,833
433,3	229,233
433,8	227,033
434,2	250,233
434,7	265,433
435,1	278,833
435,6	277,033
436	282,233
436,5	279,033
436,9	298,033
437,4	308,033
437,8	313,033
438,3	339,033
438,8	324,833
439,2	377,233
439,7	382,633
440,1	400,833
440,6	396,033
441	416,033
441,5	440,833
441,9	449,233
442,4	446,433
442,8	505,033
443,3	502,233
443,7	529,233
444,2	564,233
444,7	570,633
445,1	586,633
445,6	620,033
446	647,433
446,5	674,233
446,9	702,833
447,4	710,033
447,8	752,433
448,3	760,033
448,7	809,633
449,2	827,833
449,6	852,233
450,1	884,433
450,6	896,433
451	918,233
451,5	990,233
451,9	993,833
452,4	1044,033
452,8	1092,433
453,3	1097,833
453,7	1142,033
454,2	1190,833
454,6	1222,233
455,1	1250,633
455,5	1307,433
456	1357,233
456,4	1365,633
456,9	1407,433
457,3	1441,433
457,8	1485,833
458,3	1505,033
458,7	1570,233
459,2	1617,433
459,6	1653,433
460,1	1696,433
460,5	1714,033
461	1762,633
461,4	1803,233
461,9	1854,633
462,3	1896,833
462,8	1961,833
463,2	1995,433
463,7	2045,633
464,1	2071,233
464,6	2137,433
465	2181,433
465,5	2207,433
466	2295,233
466,4	2280,433
466,9	2345,033
467,3	2385,033
467,8	2395,433
468,2	2511,033
468,7	2541,633
469,1	2576,033
469,6	2598,233
470	2662,233
470,5	2717,433
470,9	2752,633
471,4	2808,633
471,8	2827,433
472,3	2919,633
472,7	2924,633
473,2	2967,433
473,6	3015,233
474,1	3025,233
474,5	3083,833
475	3153,233
475,4	3156,233
475,9	3261,433
476,4	3272,633
476,8	3291,433
477,3	3344,833
477,7	3381,033
478,2	3419,033
478,6	3473,833
479,1	3492,433
479,5	3509,233
480	3494,433
480,4	3560,433
480,9	3608,833
481,3	3645,233
481,8	3642,233
482,2	3684,033
482,7	3738,433
483,1	3779,833
483,6	3751,033
484	3789,233
484,5	3831,633
484,9	3857,833
485,4	3872,233
485,8	3889,033
486,3	3923,633
486,7	3877,033
487,2	3936,233
487,6	3942,833
488,1	3977,233
488,5	4002,233
489	4013,633
489,4	4025,433
489,9	4016,433
490,4	4028,633
490,8	4042,233
491,3	4040,633
491,7	4023,033
492,2	4045,833
492,6	4074,633
493,1	4088,233
493,5	4078,633
494	4062,033
494,4	4091,033
494,9	4050,833
495,3	4090,433
495,8	4070,233
496,2	4041,833
496,7	4067,033
497,1	4039,833
497,6	4069,833
498	4012,433
498,5	4022,233
498,9	4001,233
499,4	4036,833
499,8	4040,033
500,3	3996,633
500,7	3994,833
501,2	3977,433
501,6	4023,033
502,1	3981,233
502,5	3975,633
503	3967,833
503,4	3938,633
503,9	3984,633
504,3	3954,433
504,8	3927,433
505,2	3911,833
505,7	3896,633
506,1	3847,233
506,6	3846,233
507	3833,433
507,5	3840,833
507,9	3803,633
508,4	3769,433
508,8	3748,833
509,3	3699,233
509,7	3732,433
510,2	3723,633
510,6	3687,633
511,1	3677,633
511,5	3662,833
512	3622,233
512,4	3629,833
512,9	3613,833
513,3	3584,233
513,8	3551,833
514,2	3505,633
514,7	3495,433
515,1	3477,633
515,6	3500,233
516	3471,233
516,5	3405,033
516,9	3432,233
517,4	3423,833
517,8	3358,233
518,3	3335,033
518,7	3310,033
519,2	3288,433
519,6	3260,633
520,1	3246,633
520,5	3215,433
521	3243,433
521,4	3201,033
521,9	3167,433
522,3	3156,233
522,8	3112,233
523,2	3116,633
523,7	3084,833
524,1	3063,233
524,6	3057,233
525	2988,833
525,5	3014,433
525,9	2987,033
526,4	2975,633
526,8	2928,833
527,3	2975,833
527,7	2927,833
528,2	2876,433
528,6	2907,233
529,1	2830,633
529,5	2838,433
530	2826,633
530,4	2792,033
530,9	2807,633
531,3	2777,233
531,8	2743,633
532,2	2724,033
532,6	2686,433
533,1	2703,433
533,5	2668,833
534	2657,033
534,4	2622,033
534,9	2633,833
535,3	2629,233
535,8	2618,233
536,2	2553,833
536,7	2543,233
537,1	2535,233
537,6	2509,433
538	2540,233
538,5	2496,233
538,9	2482,433
539,4	2470,633
539,8	2453,433
540,3	2445,433
540,7	2418,633
541,2	2421,033
541,6	2396,033
542,1	2408,433
542,5	2395,233
543	2389,633
543,4	2345,633
543,9	2326,833
544,3	2345,633
544,8	2305,633
545,2	2278,433
545,7	2303,433
546,1	2270,433
546,5	2239,633
547	2230,433
547,4	2238,033
547,9	2206,833
548,3	2214,033
548,8	2172,633
549,2	2168,833
549,7	2170,833
550,1	2157,033
550,6	2143,233
551	2119,833
551,5	2128,633
551,9	2106,233
552,4	2120,833
552,8	2122,633
553,3	2110,233
553,7	2093,433
554,2	2062,433
554,6	2047,833
555,1	2063,033
555,5	2032,233
555,9	2088,033
556,4	1998,033
556,8	2012,833
557,3	2021,033
557,7	1971,433
558,2	1993,633
558,6	1978,633
559,1	1980,033
559,5	1941,833
560	1962,233
560,4	1957,033
560,9	1914,033
561,3	1910,233
561,8	1919,033
562,2	1924,633
562,7	1924,233
563,1	1922,633
563,6	1907,233
564	1878,633
564,4	1857,833
564,9	1827,233
565,3	1873,033
565,8	1859,633
566,2	1846,233
566,7	1844,633
567,1	1852,633
567,6	1831,633
568	1860,233
568,5	1833,233
568,9	1826,433
569,4	1790,633
569,8	1786,033
570,3	1766,433
570,7	1791,433
571,1	1778,433
571,6	1757,633
572	1746,833
572,5	1733,433
572,9	1744,833
573,4	1721,233
573,8	1716,833
574,3	1735,033
574,7	1680,433
575,2	1728,633
575,6	1709,233
576,1	1708,033
576,5	1689,033
576,9	1687,833
577,4	1688,633
577,8	1659,833
578,3	1696,233
578,7	1680,433
579,2	1631,433
579,6	1667,633
580,1	1643,033
580,5	1669,033
581	1631,833
581,4	1628,833
581,9	1620,833
582,3	1625,233
582,7	1605,633
583,2	1592,233
583,6	1594,833
584,1	1615,433
584,5	1601,633
585	1565,633
585,4	1594,433
585,9	1584,433
586,3	1564,033
586,8	1553,433
587,2	1571,233
587,6	1554,033
588,1	1498,633
588,5	1541,033
589	1530,033
589,4	1484,433
589,9	1508,433
590,3	1491,633
590,8	1492,633
591,2	1484,233
591,7	1492,033
592,1	1482,233
592,5	1486,033
593	1454,633
593,4	1444,233
593,9	1459,833
594,3	1470,433
594,8	1455,833
595,2	1446,033
595,7	1443,633
596,1	1425,833
596,6	1431,633
597	1427,233
597,4	1397,233
597,9	1416,033
598,3	1423,233
598,8	1413,433
599,2	1408,833
599,7	1376,233
600,1	1401,433
600,6	1386,633
601	1391,033
601,4	1399,833
601,9	1375,233
602,3	1356,033
602,8	1384,433
603,2	1354,033
603,7	1365,233
604,1	1359,433
604,6	1360,833
605	1356,633
605,4	1338,233
605,9	1336,433
606,3	1340,833
606,8	1316,833
607,2	1326,033
607,7	1290,833
608,1	1297,233
608,6	1297,833
609	1319,233
609,4	1285,433
609,9	1280,433
610,3	1315,033
610,8	1293,833
611,2	1280,233
611,7	1272,033
612,1	1270,433
612,6	1246,433
613	1271,633
613,4	1266,833
613,9	1262,033
614,3	1240,633
614,8	1245,633
615,2	1263,633
615,7	1269,033
616,1	1221,433
616,6	1210,433
617	1211,033
617,4	1220,233
617,9	1201,033
618,3	1223,833
618,8	1203,233
619,2	1218,233
619,7	1231,833
620,1	1219,633
620,5	1170,633
621	1182,433
621,4	1166,233
621,9	1156,633
622,3	1144,833
622,8	1137,633
623,2	1146,033
623,6	1129,033
624,1	1163,033
624,5	1139,033
625	1135,833
625,4	1124,033
625,9	1130,433
626,3	1142,833
626,8	1086,433
627,2	1087,633
627,6	1093,433
628,1	1082,633
628,5	1088,833
629	1089,233
629,4	1087,633
629,9	1066,033
630,3	1067,833
630,7	1084,033
631,2	1034,833
631,6	1053,433
632,1	1055,233
632,5	1050,833
633	1044,233
633,4	1060,033
633,8	1030,233
634,3	1013,633
634,7	1047,633
635,2	1023,433
635,6	1027,033
636,1	971,833
636,5	1026,433
636,9	984,633
637,4	1009,033
637,8	1020,633
638,3	988,433
638,7	966,233
639,2	982,833
639,6	993,833
640	969,633
640,5	991,433
640,9	952,833
641,4	944,233
641,8	943,233
642,2	956,233
642,7	948,433
643,1	944,433
643,6	954,633
644	953,833
644,5	942,033
644,9	937,033
645,3	921,833
645,8	909,433
646,2	929,233
646,7	939,833
647,1	886,633
647,6	906,633
648	894,033
648,4	900,033
648,9	881,233
649,3	885,233
649,8	898,233
650,2	883,033
650,6	881,433
651,1	885,433
651,5	892,233
652	877,833
652,4	878,833
652,9	867,033
653,3	867,833
653,7	851,233
654,2	874,833
654,6	853,833
655,1	854,033
655,5	866,433
655,9	845,033
656,4	829,033
656,8	826,433
657,3	824,633
657,7	853,833
658,2	827,033
658,6	822,033
659	794,633
659,5	809,233
659,9	767,633
660,4	816,033
660,8	818,433
661,2	758,033
661,7	786,433
662,1	786,833
662,6	791,033
663	801,033
663,4	772,433
663,9	768,633
664,3	755,833
664,8	761,833
665,2	768,033
665,6	737,633
666,1	743,233
666,5	773,833
667	769,033
667,4	782,233
667,9	739,833
668,3	744,233
668,7	713,233
669,2	719,033
669,6	710,233
670,1	716,633
670,5	714,233
670,9	720,833
671,4	722,233
671,8	708,633
672,3	691,633
672,7	684,033
673,1	713,633
673,6	685,233
674	689,633
674,5	693,433
674,9	714,433
675,3	677,633
675,8	688,833
676,2	677,633
676,7	673,233
677,1	674,033
677,5	669,033
678	665,233
678,4	666,233
678,9	640,833
679,3	656,633
679,7	637,033
680,2	644,033
680,6	643,633
681,1	613,433
681,5	651,233
681,9	639,633
682,4	629,233
682,8	623,233
683,3	640,233
683,7	627,633
684,1	610,633
684,6	623,433
685	616,433
685,5	621,833
685,9	610,433
686,3	603,033
686,8	604,633
687,2	616,433
687,7	592,233
688,1	579,433
688,5	612,833
689	593,033
689,4	578,233
689,9	580,433
690,3	581,033
690,7	574,033
691,2	580,633
691,6	590,433
692	569,033
692,5	575,433
692,9	576,033
693,4	572,233
693,8	554,833
694,2	546,433
694,7	564,833
695,1	568,633
695,6	529,633
696	549,433
696,4	544,833
696,9	539,233
697,3	533,833
697,8	536,233
698,2	528,233
698,6	547,033
699,1	541,833
699,5	543,633
699,9	520,833
700,4	514,233
700,8	519,233
701,3	517,233
701,7	507,233
702,1	537,233
702,6	495,233
703	513,433
703,5	542,233
703,9	489,433
704,3	530,433
704,8	511,833
705,2	515,233
705,6	508,033
706,1	456,633
706,5	499,633
707	495,433
707,4	491,033
707,8	485,233
708,3	457,433
708,7	469,033
709,2	478,833
709,6	507,233
710	496,633
710,5	455,633
710,9	482,233
711,3	465,833
711,8	479,433
712,2	453,233
712,7	482,833
713,1	451,633
713,5	457,033
714	443,233
714,4	460,033
714,8	432,633
715,3	451,033
715,7	435,833
716,2	442,833
716,6	436,833
717	440,633
717,5	444,233
717,9	438,233
718,3	424,433
718,8	430,033
719,2	419,833
719,7	407,433
720,1	407,033
720,5	417,633
721	428,433
721,4	412,033
721,8	394,033
722,3	407,433
722,7	393,633
723,2	404,633
723,6	405,233
724	416,633
724,5	391,033
724,9	390,033
725,3	392,833
725,8	409,433
726,2	390,033
726,7	395,833
727,1	374,033
727,5	384,033
728	379,033
728,4	383,233
728,8	389,233
729,3	395,633
729,7	362,233
730,1	362,633
730,6	384,233
731	369,433
731,5	357,833
731,9	363,633
732,3	355,233
732,8	354,433
733,2	347,433
733,6	370,233
734,1	362,433
734,5	376,233
734,9	362,233
735,4	355,833
735,8	340,033
736,3	357,833
736,7	364,433
737,1	349,433
737,6	360,833
738	364,433
738,4	330,633
738,9	340,633
739,3	371,833
739,7	342,633
740,2	335,833
740,6	335,233
741,1	346,233
741,5	322,633
741,9	319,633
742,4	310,033
742,8	311,033
743,2	311,633
743,7	310,833
744,1	334,033
744,5	331,833
745	315,433
745,4	321,833
745,8	325,633
746,3	318,033
746,7	322,233
747,2	298,833
747,6	314,033
748	311,433
748,5	320,033
748,9	302,633
749,3	293,833
749,8	297,033
750,2	290,833
750,6	303,033
751,1	315,233
751,5	310,233
751,9	342,633
752,4	313,633
752,8	288,033
753,3	318,433
753,7	285,033
754,1	276,833
754,6	278,433
755	279,433
755,4	276,033
755,9	281,633
756,3	280,633
756,7	296,033
757,2	304,633
757,6	272,633
758	283,833
758,5	281,233
758,9	273,033
759,3	273,233
759,8	265,633
760,2	263,033
760,6	253,233
761,1	258,833
761,5	263,233
761,9	262,833
762,4	276,233
762,8	260,433
763,3	268,233
763,7	240,433
764,1	249,233
764,6	257,033
765	269,433
765,4	247,633
765,9	243,833
766,3	259,233
766,7	239,633
767,2	244,433
767,6	217,833
768	244,233
768,5	244,033
768,9	266,633
769,3	267,033
769,8	228,433
770,2	244,233
770,6	244,433
771,1	231,633
771,5	243,833
771,9	245,233
772,4	245,833
772,8	242,633
773,2	227,233
773,7	239,633
774,1	235,633
774,5	232,233
775	207,633
775,4	226,233
775,8	217,233
776,3	224,033
776,7	230,033
777,1	231,233
777,6	241,033
778	235,833
778,4	236,033
778,9	206,833
779,3	220,433
779,7	208,433
780,2	239,433
780,6	215,433
781	201,033
781,5	216,833
781,9	211,033
782,3	194,833
782,8	236,633
783,2	212,033
783,6	209,233
784,1	202,033
784,5	208,833
784,9	214,433
785,4	209,633
785,8	223,033
786,2	211,233
786,7	226,633
787,1	208,433
787,5	197,433
788	204,633
788,4	189,433
788,8	187,433
789,3	198,233
789,7	185,033
790,1	182,433
790,6	186,433
791	185,233
791,4	188,833
791,9	205,033
792,3	189,633
792,7	184,633
793,2	195,033
793,6	172,633
794	184,633
794,5	193,033
794,9	159,033
795,3	198,633
795,8	157,633
796,2	175,833
796,6	191,433
797,1	187,233
797,5	177,633
797,9	173,833
798,4	200,033
798,8	162,633
799,2	187,233
799,7	179,833
800,1	168,633
800,5	166,633
801	182,233
801,4	164,233
801,8	173,833
802,2	152,633
802,7	170,033
803,1	178,033
803,5	161,033
804	162,833
804,4	168,233
804,8	141,033
805,3	176,233
805,7	157,433
806,1	152,833
806,6	192,233
807	146,633
807,4	156,233
807,9	163,233
808,3	162,633
808,7	138,233
809,2	140,833
809,6	161,833
810	165,633
810,4	154,233
810,9	151,033
811,3	172,433
811,7	156,433
812,2	143,033
812,6	153,433
813	164,033
813,5	145,833
813,9	150,433
814,3	156,833
814,8	153,633
815,2	123,433
815,6	139,433
816,1	143,033
816,5	142,233
816,9	147,433
817,3	138,233
817,8	140,633
818,2	141,033
818,6	122,433
819,1	155,433
819,5	135,433
819,9	160,033
820,4	136,033
820,8	117,833
821,2	148,633
821,7	144,833
822,1	136,433
822,5	145,433
822,9	124,633
823,4	124,233
823,8	135,633
824,2	129,033
824,7	136,433
825,1	129,633
825,5	109,633
826	148,633
826,4	120,033
826,8	127,433
827,3	126,033
827,7	109,433
828,1	133,433
828,5	128,433
829	131,833
829,4	130,033
829,8	110,633
830,3	105,233
830,7	124,833
831,1	107,433
831,6	116,833
832	122,033
832,4	117,633
832,8	116,433
833,3	109,033
833,7	104,833
834,1	120,233
834,6	104,233
835	108,833
835,4	111,033
835,8	130,233
836,3	116,233
836,7	103,633
837,1	94,633
837,6	102,633
838	117,433
838,4	118,433
838,9	123,633
839,3	109,433
839,7	110,233
840,1	94,433
840,6	103,033
841	110,033
841,4	127,033
841,9	93,433
842,3	130,033
842,7	102,033
843,1	98,033
843,6	107,033
844	106,833
844,4	102,433
844,9	104,833
845,3	94,833
845,7	98,233
846,2	84,633
846,6	119,633
847	108,633
847,4	87,233
847,9	96,033
848,3	102,833
848,7	102,233
849,2	86,833
849,6	101,233
850	104,233
850,4	105,033
850,9	103,433
851,3	109,033
851,7	102,833
852,2	103,833
852,6	105,633
853	90,433
853,4	98,033
853,9	98,033
854,3	110,033
854,7	80,833
855,2	84,033
855,6	79,633
856	93,633
856,4	86,633
856,9	103,233
857,3	88,233
857,7	98,433
858,2	87,233
858,6	105,433
859	91,233
859,4	97,833
859,9	76,433
860,3	89,633
860,7	87,633
861,1	96,633
861,6	79,833
862	103,833
862,4	94,433
862,9	77,633
863,3	95,433
863,7	83,233
864,1	87,033
864,6	68,633
865	82,233
865,4	89,433
865,9	86,833
866,3	92,033
866,7	76,233
867,1	80,433
867,6	99,433
868	94,833
868,4	90,433
868,8	70,233
869,3	82,433
869,7	107,433
870,1	94,833
870,6	82,633
871	71,833
871,4	81,833
871,8	86,633
872,3	565,833
872,7	70,833
873,1	90,433
873,5	81,433
874	88,833
874,4	104,033
874,8	63,633
875,3	83,033
875,7	87,033
876,1	62,433
876,5	97,833
877	84,833
877,4	71,033
877,8	77,033
878,2	76,833
878,7	58,233
879,1	72,833
879,5	89,633
879,9	84,833
880,4	85,433
880,8	88,833
881,2	84,233
881,7	78,033
882,1	89,833
882,5	99,633
882,9	72,633
883,4	83,433
883,8	58,433
884,2	79,233
884,6	100,233
885,1	85,033
885,5	61,433
885,9	88,433
886,3	63,233
886,8	79,033
887,2	85,833
887,6	70,433
888	75,433
888,5	65,433
888,9	83,233
889,3	95,833
889,8	89,433
890,2	60,633
890,6	78,633
891	96,433
891,5	77,633
891,9	43,833
892,3	84,433
892,7	76,033
893,2	71,233
893,6	79,833
894	66,233
894,4	71,033
894,9	50,433
895,3	62,433
895,7	70,033
896,1	43,433
896,6	76,833
897	63,233
897,4	88,033
897,8	65,633
898,3	68,233
898,7	67,033
899,1	79,633
899,5	65,633
900	70,033
900,4	89,033
900,8	62,833
901,2	61,233
901,7	74,033
902,1	92,633
902,5	79,433
902,9	72,233
903,4	59,033
903,8	76,833
904,2	76,833
904,6	65,833
905,1	48,233
905,5	66,233
905,9	83,233
906,3	76,433
906,8	55,033
907,2	83,433
907,6	56,633
908	45,833
908,5	78,033
908,9	96,833
909,3	49,233
909,7	61,033
910,2	65,233
910,6	81,833
911	56,233
911,4	71,233
911,9	59,433
912,3	60,033
912,7	69,833
913,1	60,033
913,6	69,833
914	73,633
914,4	57,633
914,8	63,433
915,3	72,233
915,7	87,033
916,1	57,233
916,5	59,233
916,9	88,233
917,4	65,033
917,8	51,633
918,2	64,433
918,6	54,233
919,1	53,633
919,5	59,233
919,9	62,233
920,3	60,633
920,8	62,833
921,2	59,033
921,6	63,433
922	66,233
922,5	60,633
922,9	63,633
923,3	52,633
923,7	78,833
924,2	46,633
924,6	43,233
925	92,433
925,4	55,033
925,8	54,033
926,3	58,233
926,7	83,633
927,1	69,833
927,5	70,233
928	49,433
928,4	66,433
928,8	58,033
929,2	72,233
929,7	62,433
930,1	59,433
930,5	69,833
930,9	75,033
931,3	56,233
931,8	69,833
932,2	61,833
932,6	65,633
933	46,833
933,5	63,433
933,9	71,033
934,3	58,633
934,7	71,833
935,2	60,833
935,6	60,833
936	55,033
936,4	38,233
936,8	70,833
937,3	71,433
937,7	68,833
938,1	66,233
938,5	59,033
939	57,033
939,4	72,433
939,8	66,633
940,2	46,833
940,6	72,233
941,1	60,033
941,5	72,233
941,9	64,633
942,3	55,433
942,8	67,033
943,2	78,433
943,6	51,433
944	65,833
944,4	68,433
944,9	64,833
945,3	67,633
945,7	44,233
946,1	69,233
946,6	63,033
947	68,633
947,4	56,833
947,8	41,233
948,2	52,033
948,7	62,233
949,1	46,433
949,5	60,633
949,9	67,833
950,3	64,233
950,8	47,833
951,2	32,433
951,6	56,033
952	39,433
952,5	62,033
952,9	33,233
953,3	32,033
953,7	65,433
954,1	46,033
954,6	52,233
955	34,633
955,4	76,833
955,8	57,233
956,2	38,833
956,7	49,633
957,1	65,633
957,5	55,633
957,9	51,833
958,3	51,233
958,8	51,833
959,2	54,033
959,6	74,633
960	55,633
960,5	68,633
960,9	55,033
961,3	69,633
961,7	68,233
962,1	43,033
962,6	59,233
963	38,633
963,4	63,033
963,8	64,433
964,2	55,433
964,7	50,033
965,1	69,833
965,5	44,833
965,9	54,633
966,3	54,833
966,8	72,833
967,2	30,433
967,6	34,433
968	40,633
968,4	59,433
968,9	48,233
969,3	69,033
969,7	58,633
970,1	64,833
970,5	48,833
971	63,833
971,4	38,033
971,8	54,433
972,2	48,633
972,6	76,433
973,1	58,033
973,5	50,833
973,9	41,433
974,3	50,433
974,7	69,833
975,2	60,033
975,6	62,233
976	51,233
976,4	39,433
976,8	42,233
977,3	57,633
977,7	39,033
978,1	67,633
978,5	62,433
978,9	76,633
979,4	63,633
979,8	66,633
980,2	42,033
980,6	75,833
981	44,833
981,5	53,433
981,9	62,433
982,3	78,833
982,7	41,833
983,1	70,833
983,6	38,033
984	57,033
984,4	51,833
984,8	48,033
985,2	60,833
985,6	59,233
986,1	61,633
986,5	76,233
986,9	58,833
987,3	47,433
987,7	48,633
988,2	65,433
988,6	52,433
989	70,833
989,4	74,433
989,8	36,833
990,3	52,233
990,7	59,033
991,1	44,833
991,5	46,633
991,9	45,833
992,3	41,033
992,8	34,233
993,2	61,033
993,6	54,233
994	60,833
994,4	54,033
994,9	63,233
995,3	74,033
995,7	55,633
996,1	49,233
996,5	46,433
996,9	52,833
997,4	79,233
997,8	70,633
998,2	74,233
998,6	65,033
999	45,433
999,5	41,833
999,9	88,233
1000,3	57,033
1000,7	55,433
1001,1	36,833
1001,5	37,833
1002	63,633
1002,4	45,833
1002,8	51,433
1003,2	41,033
1003,6	56,233
1004	40,033
1004,5	42,033
1004,9	46,633
1005,3	59,233
1005,7	68,633
1006,1	44,633
1006,6	36,633
1007	59,233
1007,4	56,233
1007,8	32,633
1008,2	57,233
1008,6	62,833
1009,1	42,833
1009,5	55,033
1009,9	46,233
1010,3	53,833
1010,7	69,633
1011,1	62,833
1011,6	59,233
1012	57,633
1012,4	64,233
1012,8	57,033
1013,2	59,633
1013,6	47,833
1014,1	44,833
1014,5	60,033
1014,9	62,233
1015,3	46,433
1015,7	49,433
1016,1	53,433
1016,6	53,033
1017	68,433
1017,4	62,233
1017,8	55,633
1018,2	64,033
1018,6	43,633
1019,1	80,033
1019,5	47,233
1019,9	66,233
1020,3	49,033
1020,7	69,033
1021,1	72,633
1021,6	42,433
1022	42,833
1022,4	53,833
1022,8	51,233
1023,2	54,433
1023,6	32,833
1024,1	56,833
1024,5	43,033
1024,9	57,433
1025,3	60,433
1025,7	66,233
1026,1	63,633
1026,6	60,233
1027	71,233
1027,4	60,633
1027,8	54,233
1028,2	52,633
1028,6	86,233
1029	43,033
1029,5	69,433
1029,9	55,833
1030,3	74,433
1030,7	54,833
1031,1	52,233
1031,5	62,433
1032	45,233
1032,4	78,433
1032,8	58,433
1033,2	72,433
1033,6	56,833
1034	60,233
1034,4	52,433
1034,9	56,033
1035,3	83,433
1035,7	57,233
1036,1	57,033
1036,5	66,033
1036,9	56,833
1037,4	53,033
1037,8	52,233
1038,2	84,033
1038,6	81,033
1039	63,633
1039,4	56,633
1039,8	36,033
1040,3	59,233
1040,7	56,833
1041,1	112,633
1041,5	73,033
1041,9	61,833
1042,3	58,033
1042,7	67,233
1043,2	39,833
1043,6	78,833
1044	79,433
1044,4	74,633
1044,8	70,233
1045,2	59,833
1045,6	54,033
1046,1	70,833
1046,5	56,633
1046,9	85,233
1047,3	36,233
1047,7	66,433
1048,1	52,433
1048,5	72,633
1049	37,633
1049,4	76,633
1049,8	67,833
1050,2	53,833
1050,6	53,833
1051	79,433
1051,4	52,033
1051,9	61,233
1052,3	66,633
1052,7	57,233
1053,1	65,233
1053,5	80,833
1053,9	82,433
1054,3	84,633
1054,8	65,233
1055,2	78,833
1055,6	38,633
1056	57,233
1056,4	50,833
1056,8	71,233
1057,2	85,233
1057,6	60,233
1058,1	81,433
1058,5	58,633
1058,9	74,433
1059,3	63,633
1059,7	60,433
1060,1	53,433
1060,5	55,633
1061	54,633
1061,4	64,033
1061,8	86,233
1062,2	52,433
1062,6	78,033
1063	73,233
1063,4	75,433
1063,8	79,633
1064,3	67,233
1064,7	77,633
1065,1	46,833
1065,5	58,233
1065,9	82,033
1066,3	48,033
1066,7	50,633
1067,1	71,833
1067,6	67,433
1068	50,233
1068,4	51,633
1068,8	33,033
1069,2	50,233
1069,6	65,033
1070	50,833
1070,4	69,033
1070,9	71,033
1071,3	72,633
1071,7	75,633
1072,1	62,633
1072,5	52,033
1072,9	55,433
1073,3	68,033
1073,7	53,233
1074,2	51,433
1074,6	57,233
1075	91,233
1075,4	66,833
1075,8	61,033
1076,2	56,033
1076,6	43,633
1077	49,033
1077,5	45,233
1077,9	55,033
1078,3	44,433
1078,7	76,033
1079,1	55,633
1079,5	47,633
1079,9	51,233
1080,3	64,233
1080,7	65,233
1081,2	50,833
1081,6	64,033
1082	42,633
1082,4	41,233
1082,8	42,233
1083,2	59,433
1083,6	68,033
1084	79,033
1084,5	51,233
1084,9	34,833
1085,3	42,433
1085,7	66,833
1086,1	71,433
1086,5	53,233
1086,9	47,233
1087,3	62,833
1087,7	64,833
1088,2	57,433
1088,6	48,633
1089	44,633
1089,4	46,433
1089,8	41,633
1090,2	55,033
1090,6	49,233
1091	63,633
1091,4	29,433
1091,9	48,433
1092,3	57,033
1092,7	50,633
1093,1	43,633
1093,5	52,433
1093,9	51,233
1094,3	48,633
1094,7	35,033
1095,1	46,033
1095,5	45,233
1096	56,033
1096,4	66,833
1096,8	56,033
1097,2	46,233
1097,6	45,233
1098	33,633
1098,4	45,433
1098,8	61,233
1099,2	42,033
1099,6	44,033
1100,1	28,433
1100,5	29,433
1100,9	34,433
1101,3	58,633
1101,7	47,833
1102,1	35,833
1102,5	43,833
1102,9	44,033
1103,3	34,233
1103,7	33,433
1104,2	41,033
1104,6	34,433
1105	40,633
1105,4	30,633
1105,8	43,033
1106,2	42,833
1106,6	32,233
1107	0,833
1107,4	0,433
1107,8	-0,367
1108,3	0,833
