Data from Subt2_00003.txt Node
Date: Fri Jul 14 14:02:33 MSK 2023
User: vat
Spectrometer: MAYP114033
Trigger mode: 0
Integration Time (sec): 5,000000E-1
Scans to average: 5
Electric dark correction enabled: true
Nonlinearity correction enabled: false
Boxcar width: 0
XAxis mode: Wavelengths
Number of Pixels in Spectrum: 2068
>>>>>Begin Spectral Data<<<<<
199,4	6,5
199,9	0,7
200,4	-1,1
200,8	0,5
201,3	44,9
201,8	31,5
202,2	43,9
202,7	37,7
203,2	28,9
203,6	41,3
204,1	16,3
204,6	32,1
205	41,9
205,5	46,3
206	21,1
206,4	50,9
206,9	32,1
207,4	34,5
207,8	55,1
208,3	42,5
208,8	45,9
209,2	35,7
209,7	35,7
210,2	29,3
210,6	40,7
211,1	46,9
211,5	35,1
212	48,7
212,5	54,9
212,9	40,7
213,4	64,3
213,9	49,1
214,3	39,1
214,8	50,9
215,3	61,9
215,7	56,3
216,2	38,3
216,7	51,5
217,1	50,9
217,6	57,7
218,1	57,3
218,5	62,1
219	58,3
219,5	61,5
219,9	43,7
220,4	52,7
220,9	64,9
221,3	64,3
221,8	46,1
222,3	61,7
222,7	55,1
223,2	63,9
223,6	38,7
224,1	36,3
224,6	42,3
225	54,1
225,5	56,3
226	55,3
226,4	56,7
226,9	34,5
227,4	23,9
227,8	48,7
228,3	51,7
228,8	37,7
229,2	71,5
229,7	50,5
230,2	48,3
230,6	53,9
231,1	59,7
231,5	57,9
232	44,7
232,5	54,9
232,9	52,3
233,4	39,9
233,9	70,9
234,3	53,7
234,8	57,9
235,3	44,9
235,7	49,9
236,2	46,7
236,7	66,1
237,1	52,3
237,6	43,3
238,1	48,5
238,5	46,1
239	42,9
239,4	84,7
239,9	55,9
240,4	57,5
240,8	49,1
241,3	39,9
241,8	44,9
242,2	51,3
242,7	58,1
243,2	49,3
243,6	41,1
244,1	42,1
244,6	65,7
245	48,5
245,5	54,3
245,9	50,1
246,4	61,3
246,9	68,3
247,3	51,7
247,8	71,3
248,3	58,1
248,7	48,7
249,2	48,5
249,7	57,5
250,1	55,5
250,6	59,3
251	74,7
251,5	49,3
252	50,5
252,4	63,9
252,9	63,5
253,4	45,3
253,8	44,3
254,3	61,7
254,8	52,9
255,2	44,3
255,7	45,7
256,1	59,9
256,6	44,9
257,1	46,7
257,5	46,5
258	57,9
258,5	58,5
258,9	38,5
259,4	39,9
259,9	28,9
260,3	48,9
260,8	64,9
261,2	60,5
261,7	46,1
262,2	69,9
262,6	41,9
263,1	54,5
263,6	44,1
264	53,1
264,5	55,3
264,9	41,7
265,4	70,7
265,9	39,3
266,3	59,7
266,8	40,3
267,3	58,7
267,7	56,5
268,2	63,1
268,7	66,7
269,1	42,7
269,6	47,1
270	54,5
270,5	56,7
271	33,9
271,4	55,5
271,9	52,7
272,4	49,1
272,8	52,3
273,3	55,1
273,7	45,5
274,2	72,3
274,7	58,3
275,1	57,9
275,6	69,3
276,1	57,7
276,5	63,7
277	64,9
277,4	49,7
277,9	70,7
278,4	52,3
278,8	53,1
279,3	43,7
279,8	42,1
280,2	51,3
280,7	41,9
281,1	42,9
281,6	40,5
282,1	46,1
282,5	36,7
283	40,7
283,4	57,9
283,9	39,5
284,4	72,7
284,8	50,1
285,3	72,1
285,8	65,9
286,2	38,3
286,7	59,7
287,1	42,7
287,6	57,9
288,1	52,5
288,5	31,5
289	55,1
289,5	61,7
289,9	44,1
290,4	67,7
290,8	55,5
291,3	45,3
291,8	49,9
292,2	46,3
292,7	42,5
293,1	58,7
293,6	43,3
294,1	42,3
294,5	57,9
295	49,5
295,5	52,5
295,9	47,3
296,4	49,5
296,8	61,5
297,3	39,9
297,8	53,9
298,2	64,3
298,7	51,1
299,1	76,9
299,6	71,1
300,1	49,9
300,5	27,9
301	56,3
301,5	42,5
301,9	49,7
302,4	54,1
302,8	56,1
303,3	79,5
303,8	65,7
304,2	59,3
304,7	63,3
305,1	52,1
305,6	56,1
306,1	40,3
306,5	49,7
307	39,5
307,4	68,9
307,9	51,3
308,4	51,9
308,8	60,1
309,3	46,9
309,8	43,1
310,2	48,9
310,7	46,5
311,1	56,7
311,6	34,5
312,1	51,7
312,5	41,1
313	61,3
313,4	43,9
313,9	43,7
314,4	45,1
314,8	56,7
315,3	61,7
315,7	52,1
316,2	58,3
316,7	44,9
317,1	69,9
317,6	51,7
318	55,9
318,5	60,1
319	46,3
319,4	57,1
319,9	68,1
320,3	55,5
320,8	49,1
321,3	44,9
321,7	59,7
322,2	58,1
322,6	29,7
323,1	41,9
323,6	57,7
324	69,5
324,5	71,5
324,9	42,1
325,4	55,5
325,9	60,3
326,3	56,9
326,8	62,1
327,2	42,9
327,7	60,1
328,2	46,9
328,6	59,1
329,1	64,5
329,5	69,5
330	49,1
330,5	46,1
330,9	60,1
331,4	39,5
331,8	54,9
332,3	71,5
332,8	73,5
333,2	51,1
333,7	72,1
334,1	57,7
334,6	40,3
335,1	48,5
335,5	49,1
336	57,7
336,4	56,9
336,9	50,7
337,4	48,3
337,8	52,1
338,3	50,5
338,7	44,1
339,2	58,1
339,7	61,7
340,1	47,7
340,6	62,9
341	69,7
341,5	62,1
342	84,5
342,4	56,1
342,9	57,7
343,3	54,3
343,8	64,3
344,2	79,1
344,7	54,9
345,2	73,7
345,6	48,1
346,1	60,9
346,5	79,7
347	68,9
347,5	70,3
347,9	84,7
348,4	66,3
348,8	68,7
349,3	68,5
349,8	71,5
350,2	80,1
350,7	75,5
351,1	92,5
351,6	105,5
352	117,5
352,5	140,1
353	159,5
353,4	162,5
353,9	198,3
354,3	214,7
354,8	263,1
355,3	317,1
355,7	375,9
356,2	440,7
356,6	503,7
357,1	607,1
357,5	703,3
358	832,1
358,5	950,7
358,9	1119,3
359,4	1285,1
359,8	1477,1
360,3	1684,5
360,8	1967,9
361,2	2206,1
361,7	2503,7
362,1	2861,5
362,6	3255,3
363	3640,9
363,5	4039,1
364	4550,5
364,4	4990,9
364,9	5419,1
365,3	5884,1
365,8	6360,5
366,3	6740,7
366,7	7155,5
367,2	7399,3
367,6	7701,9
368,1	7885,9
368,5	7958,3
369	8025,1
369,5	8032,1
369,9	7914,3
370,4	7789,1
370,8	7609,1
371,3	7303,5
371,7	7001,5
372,2	6742,3
372,7	6416,7
373,1	6047,7
373,6	5630,3
374	5277,1
374,5	4922,5
374,9	4588,1
375,4	4240,3
375,9	3903,3
376,3	3630,1
376,8	3289,3
377,2	3039,1
377,7	2827,7
378,2	2547,1
378,6	2360,3
379,1	2138,9
379,5	1963,9
380	1811,9
380,4	1684,9
380,9	1538,9
381,4	1411,3
381,8	1301,9
382,3	1231,3
382,7	1123,3
383,2	1047,3
383,6	985,1
384,1	890,1
384,6	840,1
385	795,7
385,5	743,5
385,9	688,7
386,4	647,5
386,8	613,9
387,3	575,9
387,7	522,3
388,2	482,5
388,7	443,9
389,1	412,5
389,6	395,5
390	389,7
390,5	361,9
390,9	336,1
391,4	310,3
391,9	289,3
392,3	257,7
392,8	273,1
393,2	214,1
393,7	218,9
394,1	227,5
394,6	199,1
395,1	201,5
395,5	180,1
396	154,9
396,4	179,9
396,9	164,3
397,3	165,9
397,8	150,5
398,2	131,1
398,7	132,3
399,2	123,3
399,6	113,9
400,1	131,5
400,5	116,7
401	140,5
401,4	124,7
401,9	106,7
402,4	127,9
402,8	108,5
403,3	126,3
403,7	92,9
404,2	106,1
404,6	105,3
405,1	91,3
405,5	99,5
406	96,5
406,5	76,5
406,9	78,3
407,4	115,9
407,8	85,5
408,3	97,3
408,7	92,1
409,2	105,3
409,6	95,7
410,1	82,7
410,6	82,3
411	87,5
411,5	83,7
411,9	96,5
412,4	109,3
412,8	95,9
413,3	107,7
413,7	121,1
414,2	94,5
414,7	109,7
415,1	107,1
415,6	114,5
416	119,7
416,5	98,7
416,9	113,5
417,4	124,3
417,8	112,1
418,3	134,1
418,8	124,9
419,2	114,7
419,7	130,7
420,1	139,7
420,6	123,1
421	165,5
421,5	134,5
421,9	137,3
422,4	139,7
422,8	156,3
423,3	164,5
423,8	132,5
424,2	138,3
424,7	146,1
425,1	148,9
425,6	164,7
426	154,1
426,5	162,1
426,9	176,9
427,4	168,1
427,9	176,3
428,3	161,1
428,8	184,3
429,2	184,7
429,7	172,9
430,1	199,9
430,6	182,5
431	202,3
431,5	216,3
431,9	226,1
432,4	217,9
432,8	217,7
433,3	230,5
433,8	232,9
434,2	246,7
434,7	250,1
435,1	240,9
435,6	258,3
436	264,9
436,5	269,3
436,9	285,5
437,4	312,7
437,8	307,5
438,3	313,7
438,8	320,1
439,2	349,9
439,7	382,9
440,1	389,7
440,6	372,9
441	380,9
441,5	398,7
441,9	410,3
442,4	438,7
442,8	461,1
443,3	481,1
443,7	477,5
444,2	516,9
444,7	523,9
445,1	528,9
445,6	556,1
446	552,9
446,5	587,1
446,9	613,3
447,4	632,9
447,8	654,3
448,3	668,3
448,7	697,9
449,2	696,3
449,6	722,3
450,1	781,3
450,6	759,5
451	791,3
451,5	845,9
451,9	848,9
452,4	872,5
452,8	895,9
453,3	900,3
453,7	955,3
454,2	960,1
454,6	986,3
455,1	995,7
455,5	1048,9
456	1077,1
456,4	1087,1
456,9	1115,5
457,3	1146,1
457,8	1173,7
458,3	1180,7
458,7	1222,1
459,2	1265,3
459,6	1304,7
460,1	1322,9
460,5	1306,7
461	1373,9
461,4	1404,5
461,9	1442,9
462,3	1448,9
462,8	1451,9
463,2	1490,3
463,7	1507,1
464,1	1577,5
464,6	1585,7
465	1562,5
465,5	1661,1
466	1669,5
466,4	1670,9
466,9	1707,7
467,3	1744,9
467,8	1785,5
468,2	1817,5
468,7	1829,7
469,1	1847,1
469,6	1884,7
470	1905,9
470,5	1927,5
470,9	1912,3
471,4	1979,1
471,8	1989,5
472,3	2038,9
472,7	2049,5
473,2	2041,3
473,6	2091,3
474,1	2122,1
474,5	2115,5
475	2153,7
475,4	2160,9
475,9	2191,3
476,4	2200,3
476,8	2215,9
477,3	2242,9
477,7	2265,5
478,2	2259,9
478,6	2332,1
479,1	2314,3
479,5	2284,1
480	2323,1
480,4	2339,5
480,9	2361,7
481,3	2336,5
481,8	2395,3
482,2	2389,1
482,7	2396,9
483,1	2360,9
483,6	2412,3
484	2425,5
484,5	2404,9
484,9	2427,9
485,4	2469,5
485,8	2454,9
486,3	2450,9
486,7	2462,5
487,2	2471,7
487,6	2431,7
488,1	2468,5
488,5	2465,3
489	2460,1
489,4	2474,5
489,9	2418,9
490,4	2466,7
490,8	2462,9
491,3	2457,1
491,7	2460,9
492,2	2454,9
492,6	2434,3
493,1	2417,7
493,5	2425,1
494	2421,5
494,4	2411,3
494,9	2381,3
495,3	2394,1
495,8	2382,3
496,2	2407,1
496,7	2379,7
497,1	2344,9
497,6	2348,9
498	2343,5
498,5	2357,5
498,9	2341,9
499,4	2345,9
499,8	2293,7
500,3	2275,5
500,7	2283,3
501,2	2283,3
501,6	2287,7
502,1	2211,5
502,5	2202,7
503	2235,1
503,4	2246,5
503,9	2197,9
504,3	2209,3
504,8	2179,9
505,2	2180,5
505,7	2129,9
506,1	2137,5
506,6	2133,7
507	2131,1
507,5	2090,1
507,9	2083,7
508,4	2056,5
508,8	2067,3
509,3	2030,5
509,7	2032,9
510,2	2007,3
510,6	1968,1
511,1	1953,5
511,5	1990,1
512	1945,3
512,4	1945,5
512,9	1908,7
513,3	1856,1
513,8	1871,7
514,2	1874,9
514,7	1845,7
515,1	1834,3
515,6	1832,9
516	1780,5
516,5	1754,7
516,9	1757,9
517,4	1714,7
517,8	1724,5
518,3	1727,1
518,7	1706,9
519,2	1677,1
519,6	1647,5
520,1	1615,9
520,5	1636,7
521	1607,5
521,4	1576,3
521,9	1578,7
522,3	1545,5
522,8	1549,1
523,2	1538,3
523,7	1495,5
524,1	1502,1
524,6	1502,9
525	1471,5
525,5	1431,3
525,9	1450,3
526,4	1423,5
526,8	1391,5
527,3	1415,5
527,7	1384,1
528,2	1382,1
528,6	1348,1
529,1	1327,3
529,5	1322,3
530	1301,3
530,4	1277,7
530,9	1271,3
531,3	1260,3
531,8	1251,7
532,2	1261,1
532,6	1224,5
533,1	1231,7
533,5	1191,3
534	1185,1
534,4	1171,3
534,9	1185,7
535,3	1143,7
535,8	1130,9
536,2	1129,7
536,7	1126,7
537,1	1102,5
537,6	1090,5
538	1074,5
538,5	1053,5
538,9	1061,5
539,4	1032,5
539,8	1012,7
540,3	1018,9
540,7	996,7
541,2	973,9
541,6	979,1
542,1	983,3
542,5	962,5
543	967,7
543,4	957,9
543,9	925,3
544,3	939,5
544,8	929,9
545,2	922,5
545,7	910,1
546,1	890,5
546,5	893,5
547	878,1
547,4	872,9
547,9	835,7
548,3	869,3
548,8	828,1
549,2	838,3
549,7	813,7
550,1	805,5
550,6	810,3
551	801,1
551,5	788,9
551,9	777,5
552,4	806,5
552,8	771,1
553,3	755,5
553,7	766,9
554,2	742,9
554,6	730,3
555,1	738,5
555,5	720,3
555,9	721,5
556,4	715,5
556,8	690,9
557,3	711,5
557,7	683,5
558,2	677,9
558,6	677,1
559,1	690,5
559,5	655,5
560	662,7
560,4	675,3
560,9	651,3
561,3	639,1
561,8	630,5
562,2	652,9
562,7	635,3
563,1	634,1
563,6	637,7
564	618,9
564,4	628,5
564,9	607,7
565,3	600,9
565,8	587,5
566,2	593,9
566,7	569,7
567,1	589,9
567,6	548,1
568	575,9
568,5	571,3
568,9	551,5
569,4	562,5
569,8	544,1
570,3	550,7
570,7	554,9
571,1	540,3
571,6	506,9
572	547,5
572,5	528,1
572,9	513,5
573,4	499,7
573,8	510,9
574,3	505,3
574,7	493,3
575,2	502,5
575,6	473,3
576,1	498,3
576,5	498,1
576,9	461,1
577,4	483,3
577,8	484,5
578,3	465,5
578,7	469,3
579,2	485,5
579,6	454,5
580,1	471,1
580,5	465,7
581	451,7
581,4	453,9
581,9	436,9
582,3	460,7
582,7	445,7
583,2	455,9
583,6	432,7
584,1	437,9
584,5	427,5
585	452,3
585,4	414,7
585,9	423,9
586,3	411,5
586,8	404,9
587,2	413,3
587,6	418,7
588,1	401,5
588,5	380,9
589	410,1
589,4	404,9
589,9	385,3
590,3	384,5
590,8	416,1
591,2	399,9
591,7	388,5
592,1	399,3
592,5	387,9
593	373,5
593,4	385,9
593,9	382,5
594,3	410,7
594,8	369,9
595,2	387,1
595,7	365,5
596,1	365,7
596,6	366,5
597	365,1
597,4	373,3
597,9	352,9
598,3	356,9
598,8	357,5
599,2	366,7
599,7	340,1
600,1	347,3
600,6	317,7
601	349,7
601,4	363,9
601,9	353,5
602,3	344,7
602,8	347,1
603,2	348,7
603,7	331,1
604,1	320,5
604,6	349,7
605	356,3
605,4	342,5
605,9	333,1
606,3	316,7
606,8	332,7
607,2	332,3
607,7	321,3
608,1	322,9
608,6	332,3
609	323,5
609,4	311,3
609,9	306,5
610,3	325,7
610,8	333,7
611,2	320,1
611,7	306,1
612,1	310,1
612,6	310,3
613	324,7
613,4	311,5
613,9	310,3
614,3	299,5
614,8	311,3
615,2	307,9
615,7	313,7
616,1	295,3
616,6	307,1
617	296,9
617,4	320,5
617,9	309,1
618,3	301,3
618,8	306,9
619,2	312,3
619,7	300,1
620,1	291,3
620,5	310,7
621	290,1
621,4	290,7
621,9	299,9
622,3	283,3
622,8	291,7
623,2	292,5
623,6	284,1
624,1	287,5
624,5	294,3
625	275,7
625,4	286,9
625,9	276,1
626,3	287,1
626,8	273,9
627,2	267,3
627,6	270,7
628,1	275,7
628,5	274,3
629	275,1
629,4	280,1
629,9	270,9
630,3	281,5
630,7	253,1
631,2	236,1
631,6	270,9
632,1	261,7
632,5	265,1
633	247,3
633,4	257,9
633,8	262,1
634,3	250,5
634,7	277,9
635,2	253,5
635,6	253,5
636,1	260,9
636,5	237,7
636,9	243,5
637,4	257,1
637,8	264,3
638,3	270,9
638,7	224,1
639,2	262,5
639,6	248,1
640	258,5
640,5	255,9
640,9	266,7
641,4	253,7
641,8	238,3
642,2	231,5
642,7	248,3
643,1	238,3
643,6	249,9
644	266,7
644,5	232,3
644,9	234,9
645,3	240,9
645,8	220,9
646,2	243,1
646,7	244,7
647,1	243,5
647,6	231,3
648	236,9
648,4	248,9
648,9	239,5
649,3	222,3
649,8	233,7
650,2	264,1
650,6	232,9
651,1	228,1
651,5	242,9
652	250,1
652,4	235,3
652,9	226,5
653,3	253,9
653,7	203,3
654,2	242,1
654,6	237,5
655,1	220,3
655,5	239,7
655,9	230,9
656,4	226,1
656,8	222,5
657,3	214,5
657,7	242,5
658,2	223,1
658,6	230,5
659	230,3
659,5	236,3
659,9	213,9
660,4	200,7
660,8	234,3
661,2	228,9
661,7	217,5
662,1	229,1
662,6	225,7
663	221,3
663,4	212,9
663,9	236,9
664,3	209,3
664,8	214,9
665,2	200,1
665,6	202,1
666,1	211,3
666,5	215,3
667	214,9
667,4	211,1
667,9	185,9
668,3	204,1
668,7	196,7
669,2	220,3
669,6	202,7
670,1	205,7
670,5	199,5
670,9	190,7
671,4	215,3
671,8	188,5
672,3	221,5
672,7	204,5
673,1	205,1
673,6	191,5
674	208,3
674,5	187,7
674,9	193,7
675,3	200,7
675,8	210,3
676,2	214,1
676,7	191,9
677,1	199,7
677,5	182,9
678	183,1
678,4	201,9
678,9	174,3
679,3	194,5
679,7	192,5
680,2	179,5
680,6	202,5
681,1	197,3
681,5	202,3
681,9	189,5
682,4	190,5
682,8	180,1
683,3	186,9
683,7	196,1
684,1	193,9
684,6	179,7
685	176,3
685,5	180,1
685,9	168,1
686,3	184,3
686,8	199,7
687,2	178,7
687,7	173,5
688,1	183,5
688,5	186,3
689	174,7
689,4	173,7
689,9	173,3
690,3	203,7
690,7	183,9
691,2	170,1
691,6	182,5
692	164,7
692,5	183,5
692,9	177,3
693,4	174,1
693,8	179,9
694,2	188,5
694,7	178,7
695,1	190,3
695,6	169,3
696	174,9
696,4	166,3
696,9	170,5
697,3	167,7
697,8	163,7
698,2	150,1
698,6	174,3
699,1	178,5
699,5	169,5
699,9	143,7
700,4	167,3
700,8	172,5
701,3	195,9
701,7	176,1
702,1	166,7
702,6	175,9
703	157,7
703,5	167,5
703,9	142,7
704,3	186,1
704,8	163,3
705,2	173,1
705,6	168,7
706,1	180,7
706,5	161,1
707	169,9
707,4	182,5
707,8	171,3
708,3	148,5
708,7	148,5
709,2	157,3
709,6	153,5
710	175,5
710,5	142,5
710,9	166,9
711,3	144,5
711,8	163,1
712,2	152,1
712,7	149,1
713,1	165,7
713,5	152,7
714	142,3
714,4	170,9
714,8	159,5
715,3	141,9
715,7	172,3
716,2	138,1
716,6	151,9
717	172,3
717,5	145,5
717,9	142,3
718,3	137,5
718,8	145,9
719,2	166,1
719,7	143,5
720,1	152,1
720,5	164,9
721	152,7
721,4	139,7
721,8	147,1
722,3	149,5
722,7	150,1
723,2	154,7
723,6	149,9
724	137,9
724,5	118,7
724,9	139,9
725,3	118,3
725,8	142,9
726,2	129,1
726,7	129,7
727,1	146,9
727,5	131,3
728	137,7
728,4	137,7
728,8	145,5
729,3	141,9
729,7	148,5
730,1	130,5
730,6	136,3
731	133,5
731,5	133,9
731,9	128,5
732,3	129,7
732,8	129,1
733,2	131,3
733,6	125,7
734,1	122,7
734,5	135,9
734,9	145,1
735,4	124,5
735,8	140,7
736,3	129,5
736,7	121,9
737,1	128,5
737,6	114,7
738	125,1
738,4	116,7
738,9	143,9
739,3	128,9
739,7	149,1
740,2	120,1
740,6	127,7
741,1	127,5
741,5	130,5
741,9	126,5
742,4	126,9
742,8	137,7
743,2	123,1
743,7	117,1
744,1	131,9
744,5	136,7
745	142,3
745,4	125,1
745,8	125,7
746,3	124,7
746,7	129,1
747,2	120,5
747,6	103,1
748	130,3
748,5	115,1
748,9	128,3
749,3	123,1
749,8	122,9
750,2	103,9
750,6	122,9
751,1	134,5
751,5	120,3
751,9	121,5
752,4	110,9
752,8	116,9
753,3	130,5
753,7	120,1
754,1	122,3
754,6	127,3
755	116,1
755,4	113,1
755,9	117,3
756,3	121,5
756,7	113,9
757,2	115,7
757,6	110,7
758	100,9
758,5	113,5
758,9	91,9
759,3	100,3
759,8	110,7
760,2	108,9
760,6	114,9
761,1	98,9
761,5	105,9
761,9	102,3
762,4	107,1
762,8	103,7
763,3	114,9
763,7	92,5
764,1	108,5
764,6	97,7
765	125,1
765,4	120,9
765,9	101,3
766,3	88,5
766,7	91,5
767,2	112,7
767,6	114,1
768	109,3
768,5	111,3
768,9	105,3
769,3	102,9
769,8	115,3
770,2	124,5
770,6	99,5
771,1	101,7
771,5	101,3
771,9	92,5
772,4	114,9
772,8	102,1
773,2	102,3
773,7	92,1
774,1	128,7
774,5	102,5
775	93,5
775,4	83,9
775,8	109,1
776,3	93,5
776,7	106,1
777,1	94,1
777,6	98,1
778	92,5
778,4	116,3
778,9	86,7
779,3	104,5
779,7	101,3
780,2	98,3
780,6	83,9
781	97,1
781,5	92,5
781,9	83,7
782,3	86,9
782,8	126,3
783,2	96,7
783,6	81,9
784,1	108,3
784,5	95,1
784,9	91,9
785,4	96,9
785,8	109,9
786,2	88,3
786,7	77,5
787,1	101,7
787,5	92,5
788	105,7
788,4	87,5
788,8	74,5
789,3	96,1
789,7	102,7
790,1	84,7
790,6	95,3
791	76,5
791,4	89,7
791,9	73,7
792,3	84,3
792,7	88,3
793,2	110,1
793,6	89,9
794	67,7
794,5	92,1
794,9	72,1
795,3	86,7
795,8	68,3
796,2	78,1
796,6	90,7
797,1	99,9
797,5	80,7
797,9	81,5
798,4	97,5
798,8	88,3
799,2	92,1
799,7	83,1
800,1	86,7
800,5	103,5
801	97,9
801,4	67,9
801,8	103,3
802,2	82,7
802,7	79,5
803,1	72,5
803,5	95,7
804	73,3
804,4	87,5
804,8	95,1
805,3	92,1
805,7	79,7
806,1	76,1
806,6	91,5
807	68,5
807,4	77,3
807,9	81,7
808,3	90,3
808,7	60,3
809,2	73,3
809,6	88,7
810	74,5
810,4	100,5
810,9	73,3
811,3	87,3
811,7	88,5
812,2	72,9
812,6	78,9
813	88,5
813,5	83,9
813,9	83,5
814,3	73,5
814,8	75,1
815,2	69,5
815,6	71,5
816,1	77,1
816,5	83,3
816,9	74,5
817,3	82,9
817,8	54,3
818,2	79,1
818,6	69,3
819,1	97,9
819,5	85,7
819,9	76,9
820,4	88,5
820,8	83,7
821,2	68,3
821,7	68,1
822,1	63,9
822,5	82,7
822,9	66,1
823,4	81,3
823,8	79,3
824,2	69,5
824,7	85,7
825,1	77,7
825,5	65,1
826	73,1
826,4	76,7
826,8	72,5
827,3	68,3
827,7	61,3
828,1	68,9
828,5	73,9
829	57,7
829,4	61,7
829,8	73,7
830,3	72,5
830,7	76,5
831,1	66,5
831,6	64,7
832	61,9
832,4	70,3
832,8	56,3
833,3	108,5
833,7	58,7
834,1	76,5
834,6	71,1
835	57,5
835,4	76,7
835,8	74,7
836,3	81,7
836,7	75,7
837,1	71,5
837,6	57,9
838	74,3
838,4	61,9
838,9	74,5
839,3	51,9
839,7	73,7
840,1	71,1
840,6	60,1
841	68,9
841,4	75,7
841,9	60,7
842,3	62,3
842,7	67,1
843,1	65,7
843,6	61,7
844	74,5
844,4	47,5
844,9	73,9
845,3	67,3
845,7	68,3
846,2	69,3
846,6	66,1
847	56,7
847,4	64,7
847,9	71,1
848,3	65,3
848,7	62,5
849,2	68,7
849,6	95,7
850	65,7
850,4	72,1
850,9	59,9
851,3	74,5
851,7	68,7
852,2	55,9
852,6	70,1
853	56,3
853,4	74,7
853,9	57,9
854,3	80,7
854,7	61,7
855,2	67,1
855,6	57,7
856	53,1
856,4	72,9
856,9	54,1
857,3	62,3
857,7	67,1
858,2	66,7
858,6	51,5
859	75,7
859,4	60,5
859,9	58,9
860,3	61,5
860,7	67,1
861,1	56,1
861,6	61,1
862	64,1
862,4	58,7
862,9	68,7
863,3	53,7
863,7	62,9
864,1	74,7
864,6	66,9
865	59,9
865,4	70,3
865,9	64,7
866,3	53,1
866,7	73,9
867,1	64,7
867,6	65,1
868	70,7
868,4	83,7
868,8	66,9
869,3	74,7
869,7	61,1
870,1	79,5
870,6	79,1
871	59,9
871,4	59,1
871,8	72,5
872,3	-43,3
872,7	75,5
873,1	74,9
873,5	58,7
874	45,1
874,4	72,3
874,8	63,3
875,3	56,3
875,7	52,1
876,1	72,9
876,5	69,5
877	67,9
877,4	73,1
877,8	61,3
878,2	54,1
878,7	42,1
879,1	51,7
879,5	63,7
879,9	47,7
880,4	51,5
880,8	58,3
881,2	51,5
881,7	66,9
882,1	69,1
882,5	84,1
882,9	46,7
883,4	66,5
883,8	58,9
884,2	63,7
884,6	56,1
885,1	56,3
885,5	45,9
885,9	54,5
886,3	40,1
886,8	66,3
887,2	53,3
887,6	36,1
888	65,7
888,5	42,1
888,9	54,7
889,3	54,9
889,8	87,1
890,2	44,5
890,6	37,7
891	57,3
891,5	36,7
891,9	65,3
892,3	47,3
892,7	52,7
893,2	38,7
893,6	66,9
894	52,1
894,4	52,9
894,9	56,3
895,3	67,5
895,7	64,1
896,1	46,3
896,6	67,9
897	57,5
897,4	62,3
897,8	52,1
898,3	60,7
898,7	50,3
899,1	74,7
899,5	44,9
900	63,9
900,4	44,9
900,8	49,7
901,2	48,9
901,7	72,5
902,1	60,7
902,5	48,1
902,9	55,7
903,4	42,7
903,8	40,9
904,2	53,5
904,6	57,5
905,1	41,5
905,5	45,9
905,9	69,7
906,3	57,7
906,8	58,7
907,2	66,1
907,6	47,5
908	60,5
908,5	26,5
908,9	53,3
909,3	53,9
909,7	53,1
910,2	55,7
910,6	44,7
911	51,9
911,4	71,9
911,9	58,7
912,3	53,3
912,7	50,9
913,1	48,7
913,6	46,7
914	56,1
914,4	66,5
914,8	48,7
915,3	41,3
915,7	52,1
916,1	49,1
916,5	57,5
916,9	55,7
917,4	41,7
917,8	62,5
918,2	61,3
918,6	65,9
919,1	55,9
919,5	56,3
919,9	38,3
920,3	60,5
920,8	56,9
921,2	47,1
921,6	52,9
922	65,7
922,5	72,1
922,9	68,1
923,3	53,3
923,7	49,7
924,2	49,1
924,6	51,9
925	56,9
925,4	57,7
925,8	37,1
926,3	45,9
926,7	65,9
927,1	62,5
927,5	59,5
928	53,1
928,4	55,5
928,8	43,3
929,2	54,9
929,7	53,9
930,1	42,9
930,5	62,3
930,9	53,3
931,3	35,9
931,8	66,3
932,2	46,1
932,6	54,7
933	35,7
933,5	49,3
933,9	68,1
934,3	46,1
934,7	41,5
935,2	56,5
935,6	53,9
936	52,1
936,4	65,9
936,8	63,3
937,3	54,1
937,7	66,3
938,1	57,1
938,5	53,7
939	50,3
939,4	47,1
939,8	61,1
940,2	45,3
940,6	47,3
941,1	38,1
941,5	63,5
941,9	42,3
942,3	34,9
942,8	54,1
943,2	67,9
943,6	62,9
944	58,3
944,4	62,7
944,9	64,9
945,3	39,1
945,7	56,7
946,1	69,5
946,6	36,7
947	57,3
947,4	49,3
947,8	44,5
948,2	63,3
948,7	41,5
949,1	63,5
949,5	52,3
949,9	32,1
950,3	59,7
950,8	45,3
951,2	64,9
951,6	59,5
952	62,5
952,5	61,3
952,9	53,9
953,3	35,1
953,7	69,7
954,1	61,3
954,6	50,9
955	36,9
955,4	68,7
955,8	56,5
956,2	69,7
956,7	46,5
957,1	57,5
957,5	60,1
957,9	38,9
958,3	90,1
958,8	54,7
959,2	47,3
959,6	55,9
960	65,7
960,5	35,9
960,9	57,7
961,3	56,7
961,7	63,5
962,1	59,1
962,6	43,7
963	47,7
963,4	61,5
963,8	28,3
964,2	45,7
964,7	34,7
965,1	64,5
965,5	45,1
965,9	60,9
966,3	44,7
966,8	54,1
967,2	44,9
967,6	35,1
968	52,1
968,4	40,1
968,9	60,7
969,3	64,7
969,7	56,9
970,1	62,1
970,5	40,7
971	52,1
971,4	47,5
971,8	35,7
972,2	40,9
972,6	61,3
973,1	67,1
973,5	52,9
973,9	50,1
974,3	47,3
974,7	60,3
975,2	61,9
975,6	56,1
976	57,3
976,4	51,1
976,8	55,7
977,3	35,7
977,7	55,3
978,1	49,3
978,5	55,1
978,9	43,3
979,4	52,3
979,8	59,3
980,2	36,1
980,6	63,1
981	42,3
981,5	47,3
981,9	47,9
982,3	72,1
982,7	50,5
983,1	55,5
983,6	38,7
984	50,3
984,4	55,5
984,8	65,1
985,2	46,7
985,6	62,7
986,1	56,3
986,5	44,7
986,9	42,9
987,3	43,1
987,7	49,5
988,2	68,3
988,6	51,1
989	29,5
989,4	46,9
989,8	51,7
990,3	59,9
990,7	55,3
991,1	31,3
991,5	60,5
991,9	49,5
992,3	49,1
992,8	48,3
993,2	56,5
993,6	64,7
994	65,7
994,4	40,9
994,9	48,9
995,3	57,7
995,7	72,9
996,1	62,5
996,5	53,1
996,9	46,1
997,4	41,3
997,8	51,5
998,2	72,5
998,6	49,1
999	53,7
999,5	42,1
999,9	49,3
1000,3	76,5
1000,7	50,9
1001,1	39,3
1001,5	55,3
1002	65,5
1002,4	39,5
1002,8	40,7
1003,2	48,5
1003,6	39,1
1004	54,3
1004,5	34,1
1004,9	48,3
1005,3	47,5
1005,7	51,3
1006,1	43,7
1006,6	41,5
1007	58,3
1007,4	57,3
1007,8	51,3
1008,2	50,3
1008,6	43,3
1009,1	47,1
1009,5	47,3
1009,9	47,7
1010,3	54,5
1010,7	51,3
1011,1	49,3
1011,6	69,7
1012	55,7
1012,4	45,7
1012,8	42,1
1013,2	53,7
1013,6	58,5
1014,1	61,3
1014,5	57,7
1014,9	46,7
1015,3	44,7
1015,7	67,3
1016,1	64,1
1016,6	46,5
1017	49,9
1017,4	48,5
1017,8	52,3
1018,2	68,5
1018,6	53,9
1019,1	55,3
1019,5	52,5
1019,9	75,7
1020,3	38,3
1020,7	42,1
1021,1	59,7
1021,6	74,3
1022	52,7
1022,4	41,3
1022,8	50,9
1023,2	61,1
1023,6	61,5
1024,1	59,5
1024,5	24,3
1024,9	31,3
1025,3	50,3
1025,7	65,9
1026,1	70,7
1026,6	46,7
1027	58,1
1027,4	46,5
1027,8	61,1
1028,2	55,5
1028,6	76,3
1029	53,5
1029,5	58,9
1029,9	41,9
1030,3	53,5
1030,7	46,5
1031,1	61,9
1031,5	70,5
1032	71,5
1032,4	56,7
1032,8	76,9
1033,2	46,7
1033,6	52,5
1034	79,3
1034,4	76,7
1034,9	69,7
1035,3	63,5
1035,7	77,3
1036,1	39,1
1036,5	83,1
1036,9	57,5
1037,4	55,7
1037,8	68,3
1038,2	73,3
1038,6	59,9
1039	88,1
1039,4	51,9
1039,8	64,7
1040,3	52,5
1040,7	64,9
1041,1	75,9
1041,5	68,5
1041,9	72,7
1042,3	61,7
1042,7	50,9
1043,2	62,1
1043,6	57,9
1044	41,3
1044,4	63,3
1044,8	64,9
1045,2	59,9
1045,6	56,9
1046,1	67,5
1046,5	55,3
1046,9	61,5
1047,3	70,1
1047,7	60,5
1048,1	60,5
1048,5	59,9
1049	73,1
1049,4	63,9
1049,8	48,7
1050,2	52,7
1050,6	58,7
1051	54,7
1051,4	55,3
1051,9	80,9
1052,3	55,5
1052,7	87,9
1053,1	70,5
1053,5	61,9
1053,9	69,5
1054,3	47,5
1054,8	51,9
1055,2	60,5
1055,6	62,7
1056	53,5
1056,4	62,7
1056,8	68,5
1057,2	70,5
1057,6	59,3
1058,1	57,5
1058,5	82,1
1058,9	59,7
1059,3	63,3
1059,7	70,3
1060,1	66,5
1060,5	67,3
1061	62,9
1061,4	63,7
1061,8	64,3
1062,2	60,5
1062,6	62,9
1063	67,7
1063,4	56,9
1063,8	60,9
1064,3	65,7
1064,7	54,7
1065,1	34,9
1065,5	53,3
1065,9	71,3
1066,3	68,7
1066,7	55,9
1067,1	66,1
1067,6	68,7
1068	57,1
1068,4	84,7
1068,8	46,9
1069,2	67,1
1069,6	74,5
1070	51,7
1070,4	52,9
1070,9	47,7
1071,3	47,3
1071,7	52,3
1072,1	53,3
1072,5	45,7
1072,9	69,1
1073,3	68,9
1073,7	44,9
1074,2	61,5
1074,6	44,9
1075	59,7
1075,4	52,5
1075,8	29,1
1076,2	53,7
1076,6	49,1
1077	48,1
1077,5	48,5
1077,9	51,9
1078,3	47,7
1078,7	58,3
1079,1	56,5
1079,5	57,9
1079,9	53,3
1080,3	60,3
1080,7	62,7
1081,2	52,3
1081,6	31,7
1082	53,3
1082,4	45,1
1082,8	39,9
1083,2	45,1
1083,6	53,9
1084	74,9
1084,5	62,3
1084,9	45,7
1085,3	41,5
1085,7	64,3
1086,1	53,3
1086,5	64,9
1086,9	54,7
1087,3	41,5
1087,7	64,5
1088,2	56,5
1088,6	55,3
1089	25,9
1089,4	39,9
1089,8	53,7
1090,2	70,5
1090,6	45,1
1091	57,9
1091,4	46,9
1091,9	45,5
1092,3	57,5
1092,7	56,9
1093,1	49,3
1093,5	35,9
1093,9	45,1
1094,3	56,5
1094,7	43,7
1095,1	29,1
1095,5	53,7
1096	53,7
1096,4	72,7
1096,8	58,3
1097,2	44,3
1097,6	41,3
1098	46,3
1098,4	47,7
1098,8	44,1
1099,2	35,5
1099,6	35,7
1100,1	44,3
1100,5	47,5
1100,9	34,3
1101,3	33,3
1101,7	39,1
1102,1	41,1
1102,5	34,9
1102,9	36,5
1103,3	40,1
1103,7	25,5
1104,2	38,9
1104,6	43,1
1105	37,9
1105,4	31,7
1105,8	24,7
1106,2	37,9
1106,6	18,1
1107	0,3
1107,4	-1,1
1107,8	1,7
1108,3	-0,3
