Data from Subt2_00004.txt Node
Date: Fri Jul 14 14:04:05 MSK 2023
User: vat
Spectrometer: MAYP114033
Trigger mode: 0
Integration Time (sec): 5,000000E-1
Scans to average: 5
Electric dark correction enabled: true
Nonlinearity correction enabled: false
Boxcar width: 0
XAxis mode: Wavelengths
Number of Pixels in Spectrum: 2068
>>>>>Begin Spectral Data<<<<<
199,4	5,733
199,9	0,533
200,4	0,933
200,8	-1,667
201,3	47,733
201,8	35,333
202,2	44,333
202,7	48,733
203,2	35,133
203,6	40,933
204,1	20,133
204,6	38,333
205	47,133
205,5	53,333
206	30,133
206,4	51,133
206,9	33,933
207,4	48,333
207,8	53,733
208,3	52,933
208,8	41,733
209,2	40,933
209,7	45,533
210,2	36,333
210,6	46,733
211,1	54,333
211,5	34,733
212	49,333
212,5	58,733
212,9	53,333
213,4	67,733
213,9	55,133
214,3	43,133
214,8	73,333
215,3	71,533
215,7	60,733
216,2	46,733
216,7	56,133
217,1	59,133
217,6	60,733
218,1	51,133
218,5	63,133
219	64,133
219,5	63,133
219,9	59,133
220,4	65,733
220,9	58,133
221,3	84,933
221,8	60,933
222,3	59,933
222,7	68,733
223,2	73,533
223,6	47,933
224,1	29,533
224,6	55,533
225	56,933
225,5	63,933
226	45,333
226,4	58,133
226,9	47,733
227,4	50,933
227,8	60,133
228,3	55,333
228,8	44,733
229,2	69,533
229,7	47,133
230,2	59,733
230,6	93,933
231,1	50,733
231,5	59,133
232	72,133
232,5	65,933
232,9	70,333
233,4	43,933
233,9	76,533
234,3	79,333
234,8	72,133
235,3	49,333
235,7	76,933
236,2	62,933
236,7	66,133
237,1	60,133
237,6	72,533
238,1	58,933
238,5	65,733
239	57,933
239,4	79,933
239,9	68,933
240,4	72,333
240,8	84,333
241,3	49,333
241,8	41,333
242,2	71,533
242,7	81,533
243,2	72,733
243,6	46,733
244,1	60,733
244,6	62,533
245	65,733
245,5	67,733
245,9	63,333
246,4	67,533
246,9	73,733
247,3	70,133
247,8	50,733
248,3	70,533
248,7	46,133
249,2	53,133
249,7	59,533
250,1	70,533
250,6	63,933
251	78,133
251,5	55,533
252	55,533
252,4	69,933
252,9	76,333
253,4	71,133
253,8	57,133
254,3	83,333
254,8	60,733
255,2	62,533
255,7	62,533
256,1	61,733
256,6	62,733
257,1	59,333
257,5	41,333
258	73,933
258,5	60,333
258,9	61,733
259,4	58,733
259,9	37,333
260,3	63,533
260,8	52,933
261,2	77,733
261,7	47,333
262,2	67,533
262,6	68,933
263,1	79,733
263,6	62,133
264	52,533
264,5	73,533
264,9	35,733
265,4	78,933
265,9	51,533
266,3	66,533
266,8	55,333
267,3	80,533
267,7	53,933
268,2	60,533
268,7	75,333
269,1	62,933
269,6	55,333
270	55,933
270,5	82,533
271	57,733
271,4	72,533
271,9	69,933
272,4	59,133
272,8	68,733
273,3	54,733
273,7	58,133
274,2	92,333
274,7	72,733
275,1	68,733
275,6	89,733
276,1	79,133
276,5	74,533
277	78,533
277,4	54,133
277,9	63,933
278,4	64,133
278,8	52,733
279,3	49,133
279,8	47,533
280,2	63,133
280,7	40,333
281,1	59,133
281,6	64,133
282,1	68,133
282,5	51,333
283	62,133
283,4	48,933
283,9	49,133
284,4	56,933
284,8	55,533
285,3	68,933
285,8	71,133
286,2	62,733
286,7	64,933
287,1	62,933
287,6	62,333
288,1	54,933
288,5	49,133
289	68,533
289,5	60,333
289,9	49,933
290,4	68,533
290,8	64,133
291,3	61,733
291,8	59,333
292,2	55,133
292,7	47,733
293,1	64,333
293,6	57,933
294,1	72,733
294,5	70,533
295	70,133
295,5	66,733
295,9	43,133
296,4	57,333
296,8	64,733
297,3	49,133
297,8	65,933
298,2	64,933
298,7	64,133
299,1	83,333
299,6	67,133
300,1	47,933
300,5	35,333
301	71,533
301,5	50,733
301,9	40,733
302,4	77,733
302,8	62,933
303,3	74,133
303,8	67,733
304,2	55,333
304,7	80,333
305,1	67,733
305,6	67,333
306,1	35,933
306,5	48,333
307	61,533
307,4	78,733
307,9	46,133
308,4	74,933
308,8	55,933
309,3	54,933
309,8	68,533
310,2	63,733
310,7	50,133
311,1	68,133
311,6	51,533
312,1	65,933
312,5	42,533
313	54,533
313,4	45,733
313,9	26,933
314,4	64,133
314,8	66,733
315,3	44,933
315,7	62,533
316,2	60,333
316,7	50,533
317,1	81,933
317,6	54,733
318	77,333
318,5	52,733
319	58,333
319,4	55,533
319,9	79,133
320,3	66,733
320,8	58,733
321,3	57,733
321,7	61,533
322,2	57,933
322,6	57,933
323,1	66,333
323,6	55,333
324	62,933
324,5	58,933
324,9	42,933
325,4	53,733
325,9	54,133
326,3	56,733
326,8	58,533
327,2	66,733
327,7	67,133
328,2	68,533
328,6	60,933
329,1	74,533
329,5	56,533
330	60,733
330,5	44,333
330,9	80,333
331,4	45,133
331,8	70,733
332,3	67,933
332,8	74,333
333,2	53,533
333,7	69,733
334,1	46,733
334,6	54,733
335,1	59,533
335,5	59,133
336	62,533
336,4	68,333
336,9	60,733
337,4	62,333
337,8	47,133
338,3	73,933
338,7	56,133
339,2	48,733
339,7	58,933
340,1	72,133
340,6	67,133
341	81,733
341,5	56,533
342	74,533
342,4	52,333
342,9	77,933
343,3	52,733
343,8	73,733
344,2	75,533
344,7	75,133
345,2	56,733
345,6	62,133
346,1	52,133
346,5	70,333
347	57,733
347,5	55,733
347,9	78,133
348,4	65,533
348,8	52,333
349,3	67,133
349,8	54,133
350,2	69,933
350,7	59,733
351,1	71,333
351,6	61,133
352	72,133
352,5	72,533
353	63,533
353,4	70,933
353,9	92,933
354,3	107,933
354,8	82,133
355,3	112,333
355,7	117,333
356,2	118,733
356,6	126,533
357,1	150,133
357,5	176,733
358	185,733
358,5	204,333
358,9	230,733
359,4	284,933
359,8	317,133
360,3	360,333
360,8	404,333
361,2	414,133
361,7	484,133
362,1	542,933
362,6	620,933
363	684,533
363,5	742,733
364	829,933
364,4	924,733
364,9	998,533
365,3	1076,933
365,8	1148,133
366,3	1234,733
366,7	1294,933
367,2	1344,933
367,6	1392,133
368,1	1430,933
368,5	1473,333
369	1483,133
369,5	1479,133
369,9	1498,333
370,4	1448,533
370,8	1402,133
371,3	1354,533
371,7	1324,533
372,2	1292,333
372,7	1214,533
373,1	1149,133
373,6	1088,133
374	1017,933
374,5	948,733
374,9	890,333
375,4	816,333
375,9	798,933
376,3	699,733
376,8	671,333
377,2	611,133
377,7	581,733
378,2	509,933
378,6	487,133
379,1	443,133
379,5	413,533
380	386,333
380,4	396,533
380,9	321,533
381,4	307,733
381,8	294,333
382,3	272,333
382,7	266,733
383,2	242,933
383,6	246,933
384,1	207,533
384,6	219,933
385	205,533
385,5	212,133
385,9	206,133
386,4	168,133
386,8	170,933
387,3	173,733
387,7	139,333
388,2	130,333
388,7	135,333
389,1	105,133
389,6	122,733
390	140,933
390,5	127,533
390,9	113,733
391,4	108,333
391,9	110,133
392,3	84,933
392,8	122,933
393,2	82,333
393,7	84,933
394,1	104,933
394,6	88,133
395,1	99,533
395,5	100,533
396	74,733
396,4	97,733
396,9	82,533
397,3	87,333
397,8	75,133
398,2	79,533
398,7	87,133
399,2	62,533
399,6	64,133
400,1	80,133
400,5	90,333
401	106,533
401,4	77,333
401,9	68,133
402,4	82,933
402,8	65,933
403,3	90,133
403,7	73,133
404,2	71,933
404,6	82,733
405,1	71,133
405,5	88,333
406	62,133
406,5	79,133
406,9	76,933
407,4	103,733
407,8	69,533
408,3	85,733
408,7	78,533
409,2	95,933
409,6	79,733
410,1	96,533
410,6	71,933
411	66,733
411,5	64,333
411,9	101,333
412,4	90,133
412,8	75,733
413,3	80,133
413,7	104,733
414,2	85,533
414,7	91,133
415,1	109,533
415,6	87,733
416	94,933
416,5	92,533
416,9	96,133
417,4	108,133
417,8	88,533
418,3	129,333
418,8	94,133
419,2	103,333
419,7	109,133
420,1	127,933
420,6	111,333
421	144,933
421,5	103,333
421,9	99,933
422,4	117,533
422,8	118,733
423,3	145,133
423,8	102,933
424,2	112,933
424,7	145,733
425,1	129,133
425,6	120,133
426	124,333
426,5	140,933
426,9	138,133
427,4	127,133
427,9	145,333
428,3	133,533
428,8	151,933
429,2	148,733
429,7	145,533
430,1	164,333
430,6	151,533
431	149,933
431,5	167,133
431,9	168,133
432,4	151,333
432,8	144,333
433,3	165,533
433,8	178,333
434,2	175,933
434,7	165,733
435,1	175,533
435,6	183,933
436	186,533
436,5	209,533
436,9	217,333
437,4	235,733
437,8	217,733
438,3	221,533
438,8	197,133
439,2	227,933
439,7	259,133
440,1	250,333
440,6	227,333
441	261,333
441,5	270,733
441,9	292,533
442,4	273,133
442,8	308,533
443,3	330,533
443,7	307,133
444,2	338,933
444,7	353,533
445,1	336,333
445,6	350,933
446	357,333
446,5	383,733
446,9	407,933
447,4	410,533
447,8	427,133
448,3	424,533
448,7	432,933
449,2	467,333
449,6	483,133
450,1	497,533
450,6	503,533
451	514,933
451,5	527,333
451,9	560,733
452,4	579,533
452,8	592,933
453,3	582,133
453,7	608,533
454,2	624,333
454,6	664,733
455,1	671,933
455,5	705,533
456	725,733
456,4	711,933
456,9	737,933
457,3	761,733
457,8	771,133
458,3	794,333
458,7	839,133
459,2	838,333
459,6	877,733
460,1	902,933
460,5	910,533
461	946,133
461,4	970,533
461,9	975,933
462,3	1006,733
462,8	1022,933
463,2	1034,933
463,7	1063,533
464,1	1090,533
464,6	1091,933
465	1128,333
465,5	1153,933
466	1175,333
466,4	1198,733
466,9	1206,933
467,3	1231,733
467,8	1267,333
468,2	1299,933
468,7	1318,733
469,1	1333,133
469,6	1363,933
470	1357,933
470,5	1400,333
470,9	1414,733
471,4	1451,333
471,8	1491,133
472,3	1506,533
472,7	1513,133
473,2	1518,133
473,6	1550,333
474,1	1567,133
474,5	1571,133
475	1622,533
475,4	1604,533
475,9	1645,333
476,4	1658,133
476,8	1659,533
477,3	1703,933
477,7	1721,133
478,2	1733,533
478,6	1783,333
479,1	1775,933
479,5	1773,333
480	1778,133
480,4	1820,133
480,9	1830,733
481,3	1855,733
481,8	1875,133
482,2	1880,733
482,7	1881,133
483,1	1905,733
483,6	1912,733
484	1927,333
484,5	1960,733
484,9	1948,333
485,4	1957,533
485,8	1986,933
486,3	2001,333
486,7	1972,733
487,2	1988,933
487,6	2002,133
488,1	2026,333
488,5	2001,333
489	2007,933
489,4	2029,733
489,9	2018,333
490,4	2054,533
490,8	2040,533
491,3	2044,133
491,7	2065,733
492,2	2045,533
492,6	2025,933
493,1	2060,133
493,5	2081,533
494	2079,533
494,4	2055,333
494,9	2034,733
495,3	2056,733
495,8	2067,533
496,2	2035,133
496,7	2048,933
497,1	2014,733
497,6	2044,933
498	2062,733
498,5	2042,533
498,9	2042,733
499,4	2034,533
499,8	2024,533
500,3	1986,533
500,7	2025,533
501,2	2022,733
501,6	2023,533
502,1	1951,933
502,5	1974,733
503	1986,733
503,4	1999,133
503,9	1974,733
504,3	1955,933
504,8	1941,333
505,2	1939,533
505,7	1923,333
506,1	1926,533
506,6	1936,933
507	1920,733
507,5	1904,133
507,9	1886,333
508,4	1854,733
508,8	1854,933
509,3	1862,133
509,7	1876,733
510,2	1839,133
510,6	1831,933
511,1	1795,733
511,5	1792,733
512	1796,333
512,4	1788,933
512,9	1787,933
513,3	1752,533
513,8	1732,733
514,2	1719,133
514,7	1696,133
515,1	1707,933
515,6	1688,133
516	1681,533
516,5	1674,733
516,9	1659,533
517,4	1642,133
517,8	1631,933
518,3	1639,333
518,7	1613,133
519,2	1581,933
519,6	1566,533
520,1	1542,333
520,5	1574,333
521	1559,533
521,4	1497,933
521,9	1548,133
522,3	1501,933
522,8	1486,733
523,2	1469,933
523,7	1429,733
524,1	1472,933
524,6	1419,733
525	1416,733
525,5	1384,733
525,9	1418,133
526,4	1377,133
526,8	1344,333
527,3	1385,733
527,7	1365,733
528,2	1358,333
528,6	1325,133
529,1	1315,133
529,5	1311,733
530	1291,333
530,4	1265,333
530,9	1285,133
531,3	1267,933
531,8	1223,933
532,2	1258,133
532,6	1218,933
533,1	1238,333
533,5	1213,733
534	1188,333
534,4	1169,133
534,9	1194,333
535,3	1150,133
535,8	1163,933
536,2	1139,133
536,7	1146,933
537,1	1125,333
537,6	1096,533
538	1086,733
538,5	1081,533
538,9	1069,533
539,4	1068,533
539,8	1058,933
540,3	1025,933
540,7	1029,933
541,2	1044,133
541,6	1004,533
542,1	1002,933
542,5	995,533
543	1013,533
543,4	981,133
543,9	952,333
544,3	954,733
544,8	959,933
545,2	957,733
545,7	945,733
546,1	924,533
546,5	911,733
547	921,733
547,4	916,933
547,9	895,333
548,3	902,933
548,8	875,733
549,2	891,333
549,7	849,933
550,1	854,533
550,6	839,933
551	838,933
551,5	823,533
551,9	829,133
552,4	844,333
552,8	813,133
553,3	821,533
553,7	814,933
554,2	771,133
554,6	759,533
555,1	800,533
555,5	778,933
555,9	765,533
556,4	757,133
556,8	768,133
557,3	767,533
557,7	746,933
558,2	758,133
558,6	712,333
559,1	752,933
559,5	709,933
560	715,733
560,4	726,533
560,9	732,733
561,3	701,533
561,8	681,933
562,2	705,933
562,7	672,733
563,1	677,733
563,6	699,733
564	670,533
564,4	671,133
564,9	676,533
565,3	670,333
565,8	639,333
566,2	639,333
566,7	639,733
567,1	635,533
567,6	609,533
568	647,733
568,5	637,333
568,9	613,533
569,4	605,333
569,8	618,933
570,3	592,733
570,7	607,733
571,1	585,933
571,6	563,933
572	582,533
572,5	549,933
572,9	564,533
573,4	582,933
573,8	586,933
574,3	566,733
574,7	550,933
575,2	553,133
575,6	550,133
576,1	551,933
576,5	557,933
576,9	536,533
577,4	551,333
577,8	526,533
578,3	527,733
578,7	519,333
579,2	553,133
579,6	514,733
580,1	502,933
580,5	500,333
581	512,333
581,4	496,933
581,9	510,933
582,3	504,533
582,7	501,933
583,2	502,733
583,6	481,933
584,1	487,133
584,5	469,733
585	490,733
585,4	455,933
585,9	470,333
586,3	468,333
586,8	459,933
587,2	452,333
587,6	477,333
588,1	456,533
588,5	437,133
589	432,533
589,4	463,333
589,9	427,533
590,3	436,533
590,8	448,333
591,2	457,333
591,7	447,533
592,1	454,333
592,5	425,333
593	421,533
593,4	420,933
593,9	415,333
594,3	439,333
594,8	410,333
595,2	432,333
595,7	406,133
596,1	415,333
596,6	414,933
597	399,133
597,4	402,333
597,9	393,133
598,3	399,933
598,8	389,733
599,2	410,733
599,7	384,333
600,1	384,333
600,6	370,733
601	381,733
601,4	386,333
601,9	383,733
602,3	380,133
602,8	378,133
603,2	375,733
603,7	372,733
604,1	381,133
604,6	375,133
605	380,333
605,4	391,133
605,9	340,733
606,3	365,333
606,8	358,933
607,2	384,333
607,7	341,733
608,1	350,933
608,6	352,333
609	363,333
609,4	374,733
609,9	335,533
610,3	337,933
610,8	349,533
611,2	350,133
611,7	337,533
612,1	348,933
612,6	313,133
613	346,533
613,4	347,733
613,9	316,733
614,3	329,133
614,8	328,933
615,2	343,733
615,7	343,333
616,1	320,333
616,6	330,733
617	308,333
617,4	339,733
617,9	321,133
618,3	331,933
618,8	306,133
619,2	315,733
619,7	313,733
620,1	309,133
620,5	308,933
621	326,133
621,4	327,733
621,9	313,333
622,3	307,533
622,8	313,933
623,2	325,333
623,6	283,933
624,1	305,933
624,5	304,733
625	294,733
625,4	312,533
625,9	287,533
626,3	309,933
626,8	278,933
627,2	293,533
627,6	287,533
628,1	274,333
628,5	300,933
629	285,933
629,4	283,133
629,9	267,933
630,3	284,133
630,7	258,133
631,2	263,133
631,6	263,133
632,1	278,933
632,5	275,133
633	247,133
633,4	258,533
633,8	272,533
634,3	277,933
634,7	281,733
635,2	260,133
635,6	249,533
636,1	266,533
636,5	253,333
636,9	251,533
637,4	236,933
637,8	277,533
638,3	267,133
638,7	243,133
639,2	259,333
639,6	252,533
640	247,133
640,5	246,533
640,9	254,533
641,4	235,533
641,8	242,333
642,2	256,133
642,7	241,533
643,1	228,733
643,6	250,133
644	287,733
644,5	240,733
644,9	247,333
645,3	256,733
645,8	214,533
646,2	245,333
646,7	261,733
647,1	241,333
647,6	234,333
648	242,733
648,4	231,733
648,9	228,333
649,3	223,133
649,8	212,933
650,2	236,333
650,6	221,333
651,1	224,333
651,5	241,333
652	239,533
652,4	223,733
652,9	234,133
653,3	237,333
653,7	205,533
654,2	238,733
654,6	220,133
655,1	217,533
655,5	225,933
655,9	227,133
656,4	224,133
656,8	211,733
657,3	210,333
657,7	224,733
658,2	218,733
658,6	218,933
659	217,733
659,5	224,333
659,9	205,133
660,4	212,333
660,8	249,333
661,2	215,733
661,7	199,133
662,1	209,533
662,6	193,333
663	226,333
663,4	198,733
663,9	234,733
664,3	208,333
664,8	193,333
665,2	183,333
665,6	196,733
666,1	193,733
666,5	200,533
667	205,133
667,4	198,933
667,9	175,133
668,3	184,333
668,7	197,333
669,2	209,733
669,6	185,333
670,1	188,133
670,5	188,533
670,9	197,333
671,4	201,733
671,8	184,133
672,3	204,733
672,7	183,733
673,1	195,733
673,6	194,733
674	166,333
674,5	177,733
674,9	182,133
675,3	188,133
675,8	195,933
676,2	202,733
676,7	177,933
677,1	182,533
677,5	176,533
678	165,333
678,4	180,333
678,9	168,533
679,3	174,533
679,7	183,333
680,2	161,933
680,6	183,933
681,1	177,333
681,5	196,933
681,9	171,333
682,4	172,733
682,8	177,133
683,3	186,133
683,7	193,533
684,1	198,333
684,6	168,933
685	163,333
685,5	153,933
685,9	157,933
686,3	174,333
686,8	189,733
687,2	163,933
687,7	173,333
688,1	182,733
688,5	173,733
689	167,733
689,4	161,933
689,9	169,333
690,3	193,733
690,7	162,533
691,2	170,533
691,6	161,933
692	158,133
692,5	174,933
692,9	162,933
693,4	161,133
693,8	169,733
694,2	161,733
694,7	167,933
695,1	162,733
695,6	158,333
696	160,933
696,4	146,533
696,9	163,533
697,3	146,533
697,8	141,933
698,2	133,333
698,6	156,733
699,1	172,733
699,5	161,933
699,9	142,533
700,4	147,333
700,8	160,133
701,3	143,133
701,7	156,933
702,1	144,933
702,6	173,333
703	157,533
703,5	147,133
703,9	133,733
704,3	157,533
704,8	134,533
705,2	151,133
705,6	153,133
706,1	153,733
706,5	133,933
707	141,933
707,4	166,333
707,8	158,733
708,3	148,533
708,7	135,933
709,2	154,533
709,6	149,133
710	147,733
710,5	127,133
710,9	161,533
711,3	137,933
711,8	156,933
712,2	136,933
712,7	138,133
713,1	133,133
713,5	153,533
714	132,533
714,4	155,333
714,8	173,733
715,3	135,133
715,7	159,733
716,2	137,933
716,6	143,533
717	147,733
717,5	130,533
717,9	140,533
718,3	143,133
718,8	152,933
719,2	157,533
719,7	125,133
720,1	142,933
720,5	161,733
721	132,333
721,4	118,333
721,8	119,333
722,3	135,533
722,7	134,133
723,2	142,533
723,6	140,133
724	135,733
724,5	116,333
724,9	117,333
725,3	141,733
725,8	143,133
726,2	133,333
726,7	126,333
727,1	120,533
727,5	130,933
728	127,933
728,4	138,533
728,8	126,933
729,3	134,733
729,7	125,733
730,1	116,133
730,6	120,733
731	112,733
731,5	114,733
731,9	111,133
732,3	128,933
732,8	122,133
733,2	134,733
733,6	129,333
734,1	103,333
734,5	126,533
734,9	124,133
735,4	125,933
735,8	123,933
736,3	126,933
736,7	107,333
737,1	110,533
737,6	115,533
738	106,133
738,4	123,333
738,9	124,133
739,3	118,533
739,7	135,533
740,2	119,933
740,6	126,533
741,1	138,933
741,5	114,333
741,9	124,533
742,4	109,533
742,8	108,333
743,2	119,733
743,7	96,533
744,1	136,133
744,5	132,133
745	128,333
745,4	122,533
745,8	110,133
746,3	123,133
746,7	133,733
747,2	105,133
747,6	97,333
748	120,333
748,5	115,133
748,9	124,733
749,3	104,733
749,8	111,733
750,2	105,533
750,6	105,933
751,1	119,933
751,5	130,533
751,9	107,333
752,4	121,933
752,8	106,933
753,3	123,933
753,7	106,533
754,1	106,333
754,6	107,933
755	102,933
755,4	114,333
755,9	120,733
756,3	102,933
756,7	127,533
757,2	118,733
757,6	90,533
758	103,133
758,5	99,333
758,9	94,733
759,3	99,933
759,8	91,133
760,2	96,533
760,6	101,133
761,1	87,933
761,5	100,733
761,9	104,333
762,4	104,733
762,8	96,933
763,3	102,733
763,7	98,933
764,1	124,333
764,6	101,333
765	101,133
765,4	103,933
765,9	85,733
766,3	86,733
766,7	80,333
767,2	120,133
767,6	110,533
768	101,933
768,5	117,333
768,9	103,933
769,3	103,333
769,8	110,533
770,2	120,133
770,6	93,933
771,1	110,133
771,5	83,533
771,9	86,133
772,4	116,333
772,8	111,733
773,2	92,933
773,7	122,733
774,1	125,133
774,5	90,133
775	103,533
775,4	96,933
775,8	97,533
776,3	99,733
776,7	98,733
777,1	88,133
777,6	104,533
778	95,533
778,4	100,933
778,9	86,333
779,3	94,133
779,7	79,733
780,2	90,733
780,6	98,933
781	92,333
781,5	90,533
781,9	100,933
782,3	92,133
782,8	123,333
783,2	118,333
783,6	96,533
784,1	113,933
784,5	100,533
784,9	97,933
785,4	89,533
785,8	100,333
786,2	102,933
786,7	93,933
787,1	106,733
787,5	72,333
788	94,933
788,4	107,533
788,8	77,933
789,3	81,933
789,7	95,533
790,1	96,933
790,6	84,533
791	91,533
791,4	71,733
791,9	74,533
792,3	79,933
792,7	92,933
793,2	104,733
793,6	83,933
794	97,933
794,5	102,733
794,9	83,733
795,3	92,733
795,8	74,333
796,2	78,333
796,6	92,133
797,1	86,133
797,5	93,933
797,9	71,933
798,4	108,933
798,8	81,733
799,2	80,533
799,7	83,533
800,1	87,733
800,5	86,333
801	107,933
801,4	85,133
801,8	102,733
802,2	72,933
802,7	85,933
803,1	75,533
803,5	97,133
804	83,933
804,4	95,533
804,8	81,933
805,3	83,333
805,7	91,333
806,1	75,933
806,6	98,933
807	94,333
807,4	74,133
807,9	92,133
808,3	88,733
808,7	61,933
809,2	76,333
809,6	87,533
810	75,533
810,4	80,533
810,9	75,733
811,3	108,533
811,7	94,533
812,2	76,733
812,6	76,333
813	102,533
813,5	82,133
813,9	78,533
814,3	78,133
814,8	80,533
815,2	82,933
815,6	69,533
816,1	80,133
816,5	89,933
816,9	74,333
817,3	86,133
817,8	69,933
818,2	80,733
818,6	75,333
819,1	111,133
819,5	87,133
819,9	78,533
820,4	89,333
820,8	84,733
821,2	75,333
821,7	65,333
822,1	74,733
822,5	89,333
822,9	78,933
823,4	95,133
823,8	75,133
824,2	70,333
824,7	88,933
825,1	101,333
825,5	88,533
826	71,733
826,4	73,133
826,8	86,333
827,3	69,533
827,7	77,333
828,1	72,933
828,5	64,733
829	84,333
829,4	79,933
829,8	82,533
830,3	59,533
830,7	73,733
831,1	68,533
831,6	60,133
832	77,133
832,4	82,933
832,8	64,733
833,3	106,533
833,7	43,933
834,1	67,533
834,6	71,733
835	55,733
835,4	64,733
835,8	91,133
836,3	82,733
836,7	66,533
837,1	77,933
837,6	51,133
838	69,133
838,4	65,133
838,9	66,933
839,3	72,933
839,7	69,333
840,1	74,333
840,6	73,133
841	84,933
841,4	88,533
841,9	79,133
842,3	78,133
842,7	77,733
843,1	75,333
843,6	77,133
844	73,533
844,4	76,333
844,9	77,933
845,3	61,133
845,7	88,333
846,2	61,133
846,6	73,933
847	63,933
847,4	63,133
847,9	62,733
848,3	80,933
848,7	73,533
849,2	62,333
849,6	79,733
850	78,133
850,4	88,733
850,9	70,533
851,3	94,533
851,7	79,533
852,2	62,533
852,6	66,333
853	71,133
853,4	78,533
853,9	63,333
854,3	59,133
854,7	76,733
855,2	80,533
855,6	83,733
856	60,733
856,4	65,933
856,9	51,933
857,3	68,133
857,7	78,333
858,2	68,533
858,6	65,733
859	78,133
859,4	75,133
859,9	55,733
860,3	79,133
860,7	68,933
861,1	62,933
861,6	64,333
862	73,133
862,4	67,733
862,9	66,733
863,3	57,333
863,7	57,333
864,1	85,333
864,6	67,933
865	80,933
865,4	73,533
865,9	68,133
866,3	51,533
866,7	73,133
867,1	57,133
867,6	55,333
868	69,133
868,4	73,733
868,8	60,933
869,3	81,133
869,7	59,333
870,1	69,133
870,6	84,533
871	65,133
871,4	66,933
871,8	81,133
872,3	-31,667
872,7	83,933
873,1	83,133
873,5	50,933
874	51,933
874,4	73,933
874,8	76,733
875,3	60,733
875,7	85,533
876,1	85,933
876,5	77,133
877	72,933
877,4	82,533
877,8	71,333
878,2	59,533
878,7	63,533
879,1	53,333
879,5	70,333
879,9	37,333
880,4	40,333
880,8	56,533
881,2	68,333
881,7	78,933
882,1	75,733
882,5	97,533
882,9	64,333
883,4	59,333
883,8	69,933
884,2	81,933
884,6	70,733
885,1	80,333
885,5	62,933
885,9	65,533
886,3	63,133
886,8	58,733
887,2	57,333
887,6	51,533
888	49,933
888,5	53,133
888,9	62,133
889,3	58,933
889,8	85,533
890,2	56,533
890,6	44,333
891	61,333
891,5	50,533
891,9	50,533
892,3	63,933
892,7	59,933
893,2	54,333
893,6	79,333
894	46,533
894,4	47,933
894,9	66,533
895,3	64,933
895,7	61,133
896,1	53,733
896,6	63,933
897	59,333
897,4	53,133
897,8	61,733
898,3	64,933
898,7	62,533
899,1	77,933
899,5	68,333
900	85,333
900,4	70,133
900,8	62,933
901,2	68,733
901,7	72,933
902,1	75,133
902,5	76,933
902,9	63,733
903,4	47,933
903,8	50,333
904,2	67,133
904,6	56,333
905,1	50,133
905,5	53,933
905,9	65,733
906,3	73,333
906,8	58,133
907,2	87,333
907,6	61,333
908	53,133
908,5	52,533
908,9	52,733
909,3	71,733
909,7	35,933
910,2	58,133
910,6	73,333
911	58,133
911,4	95,333
911,9	51,733
912,3	58,533
912,7	79,933
913,1	49,933
913,6	47,333
914	60,533
914,4	65,933
914,8	62,533
915,3	51,333
915,7	66,133
916,1	66,733
916,5	61,533
916,9	70,333
917,4	72,933
917,8	63,333
918,2	52,933
918,6	67,933
919,1	76,133
919,5	59,933
919,9	62,533
920,3	74,733
920,8	74,933
921,2	38,533
921,6	68,133
922	71,933
922,5	80,133
922,9	72,133
923,3	62,533
923,7	62,733
924,2	55,333
924,6	38,933
925	84,733
925,4	61,133
925,8	24,933
926,3	45,533
926,7	55,533
927,1	66,533
927,5	53,333
928	64,533
928,4	69,533
928,8	43,533
929,2	66,933
929,7	67,733
930,1	46,133
930,5	65,333
930,9	49,933
931,3	44,333
931,8	61,733
932,2	62,933
932,6	72,333
933	56,333
933,5	48,933
933,9	84,933
934,3	57,533
934,7	57,533
935,2	63,133
935,6	58,533
936	47,333
936,4	67,533
936,8	71,933
937,3	63,333
937,7	63,533
938,1	53,533
938,5	59,533
939	65,933
939,4	58,733
939,8	59,333
940,2	44,933
940,6	59,133
941,1	52,533
941,5	75,533
941,9	66,333
942,3	61,333
942,8	66,333
943,2	77,733
943,6	83,933
944	70,133
944,4	82,333
944,9	70,733
945,3	70,133
945,7	65,133
946,1	71,333
946,6	44,933
947	65,333
947,4	46,933
947,8	64,533
948,2	58,133
948,7	71,733
949,1	77,933
949,5	59,533
949,9	47,133
950,3	60,733
950,8	60,133
951,2	75,533
951,6	59,133
952	74,733
952,5	87,533
952,9	65,533
953,3	52,133
953,7	63,533
954,1	70,333
954,6	59,133
955	50,333
955,4	82,333
955,8	72,133
956,2	73,333
956,7	53,133
957,1	63,933
957,5	85,533
957,9	67,333
958,3	93,133
958,8	62,533
959,2	71,333
959,6	65,533
960	75,133
960,5	47,733
960,9	69,333
961,3	44,733
961,7	67,133
962,1	52,933
962,6	43,533
963	51,133
963,4	76,733
963,8	33,933
964,2	63,933
964,7	35,733
965,1	68,933
965,5	49,933
965,9	61,533
966,3	50,533
966,8	66,933
967,2	67,933
967,6	47,333
968	52,533
968,4	57,933
968,9	61,133
969,3	52,133
969,7	57,333
970,1	67,533
970,5	60,733
971	55,333
971,4	63,333
971,8	50,533
972,2	52,733
972,6	63,933
973,1	68,333
973,5	63,333
973,9	66,733
974,3	48,133
974,7	62,533
975,2	65,333
975,6	65,933
976	61,733
976,4	69,933
976,8	61,133
977,3	44,933
977,7	75,533
978,1	44,133
978,5	83,733
978,9	69,733
979,4	69,533
979,8	69,333
980,2	37,333
980,6	68,133
981	56,333
981,5	59,933
981,9	51,733
982,3	84,733
982,7	68,533
983,1	58,133
983,6	44,333
984	64,933
984,4	56,333
984,8	69,733
985,2	64,133
985,6	66,133
986,1	72,533
986,5	70,133
986,9	62,933
987,3	47,533
987,7	53,133
988,2	72,333
988,6	44,133
989	51,333
989,4	69,533
989,8	63,133
990,3	83,333
990,7	68,733
991,1	56,533
991,5	57,533
991,9	63,733
992,3	66,933
992,8	58,333
993,2	65,333
993,6	73,933
994	78,733
994,4	56,733
994,9	59,533
995,3	67,133
995,7	70,533
996,1	67,533
996,5	57,533
996,9	75,533
997,4	55,533
997,8	63,733
998,2	86,733
998,6	63,133
999	60,933
999,5	54,133
999,9	54,933
1000,3	70,133
1000,7	64,733
1001,1	55,333
1001,5	66,733
1002	70,533
1002,4	57,733
1002,8	47,133
1003,2	50,933
1003,6	46,333
1004	61,333
1004,5	23,733
1004,9	60,533
1005,3	56,333
1005,7	74,333
1006,1	60,333
1006,6	62,533
1007	74,133
1007,4	41,333
1007,8	38,933
1008,2	59,533
1008,6	47,733
1009,1	53,133
1009,5	37,133
1009,9	58,533
1010,3	46,733
1010,7	64,133
1011,1	64,333
1011,6	69,133
1012	57,733
1012,4	57,333
1012,8	57,133
1013,2	77,333
1013,6	59,333
1014,1	47,933
1014,5	65,333
1014,9	55,733
1015,3	56,533
1015,7	72,733
1016,1	69,533
1016,6	55,933
1017	76,533
1017,4	57,733
1017,8	57,933
1018,2	72,133
1018,6	87,333
1019,1	66,733
1019,5	63,133
1019,9	68,733
1020,3	48,733
1020,7	71,333
1021,1	83,733
1021,6	72,933
1022	74,333
1022,4	55,733
1022,8	61,533
1023,2	74,933
1023,6	69,133
1024,1	75,333
1024,5	34,133
1024,9	52,133
1025,3	73,133
1025,7	71,933
1026,1	68,933
1026,6	48,933
1027	76,933
1027,4	48,133
1027,8	68,733
1028,2	54,533
1028,6	90,533
1029	76,533
1029,5	76,733
1029,9	72,333
1030,3	54,733
1030,7	51,333
1031,1	60,933
1031,5	77,133
1032	74,933
1032,4	60,333
1032,8	77,533
1033,2	60,333
1033,6	58,133
1034	75,333
1034,4	80,933
1034,9	75,133
1035,3	75,733
1035,7	70,333
1036,1	50,333
1036,5	81,133
1036,9	71,133
1037,4	60,333
1037,8	69,333
1038,2	68,333
1038,6	69,733
1039	82,933
1039,4	58,533
1039,8	68,133
1040,3	64,733
1040,7	77,733
1041,1	95,933
1041,5	80,533
1041,9	85,733
1042,3	88,133
1042,7	64,333
1043,2	73,933
1043,6	85,933
1044	48,733
1044,4	56,133
1044,8	73,333
1045,2	71,333
1045,6	78,533
1046,1	70,733
1046,5	61,933
1046,9	90,133
1047,3	93,533
1047,7	77,333
1048,1	75,933
1048,5	71,333
1049	69,933
1049,4	64,533
1049,8	74,333
1050,2	75,133
1050,6	57,333
1051	83,133
1051,4	48,733
1051,9	84,333
1052,3	73,733
1052,7	83,333
1053,1	79,933
1053,5	90,333
1053,9	80,933
1054,3	65,133
1054,8	59,133
1055,2	71,733
1055,6	83,533
1056	74,733
1056,4	74,333
1056,8	68,133
1057,2	87,733
1057,6	78,133
1058,1	59,733
1058,5	88,733
1058,9	64,133
1059,3	70,133
1059,7	69,733
1060,1	63,133
1060,5	86,933
1061	76,333
1061,4	72,333
1061,8	98,133
1062,2	81,533
1062,6	70,733
1063	71,933
1063,4	81,733
1063,8	80,533
1064,3	85,333
1064,7	68,333
1065,1	48,533
1065,5	54,933
1065,9	80,733
1066,3	66,133
1066,7	79,933
1067,1	52,733
1067,6	90,133
1068	71,333
1068,4	91,533
1068,8	50,533
1069,2	76,333
1069,6	67,333
1070	74,933
1070,4	71,933
1070,9	69,933
1071,3	85,733
1071,7	66,133
1072,1	67,933
1072,5	77,933
1072,9	67,333
1073,3	83,933
1073,7	48,133
1074,2	73,533
1074,6	69,533
1075	66,333
1075,4	61,333
1075,8	70,933
1076,2	57,133
1076,6	64,933
1077	52,533
1077,5	68,733
1077,9	57,333
1078,3	63,533
1078,7	65,733
1079,1	53,933
1079,5	53,533
1079,9	64,933
1080,3	74,733
1080,7	62,333
1081,2	66,533
1081,6	58,733
1082	63,733
1082,4	54,533
1082,8	38,333
1083,2	59,733
1083,6	60,733
1084	73,733
1084,5	71,933
1084,9	62,733
1085,3	76,933
1085,7	56,333
1086,1	83,133
1086,5	36,333
1086,9	50,533
1087,3	56,133
1087,7	73,333
1088,2	64,733
1088,6	42,933
1089	43,333
1089,4	38,333
1089,8	79,933
1090,2	62,533
1090,6	45,533
1091	56,333
1091,4	55,133
1091,9	60,333
1092,3	70,533
1092,7	63,333
1093,1	69,933
1093,5	54,333
1093,9	40,133
1094,3	58,933
1094,7	45,333
1095,1	31,533
1095,5	57,333
1096	77,333
1096,4	81,133
1096,8	68,333
1097,2	55,333
1097,6	39,533
1098	55,933
1098,4	50,533
1098,8	45,133
1099,2	35,733
1099,6	37,933
1100,1	40,933
1100,5	63,333
1100,9	38,533
1101,3	38,333
1101,7	46,133
1102,1	47,333
1102,5	40,733
1102,9	39,933
1103,3	57,933
1103,7	30,933
1104,2	54,333
1104,6	49,533
1105	51,533
1105,4	37,333
1105,8	43,933
1106,2	41,733
1106,6	36,133
1107	0,533
1107,4	-0,867
1107,8	1,333
1108,3	-0,267
