Data from Subt2_00005.txt Node
Date: Fri Jul 14 14:05:30 MSK 2023
User: vat
Spectrometer: MAYP114033
Trigger mode: 0
Integration Time (sec): 5,000000E-1
Scans to average: 5
Electric dark correction enabled: true
Nonlinearity correction enabled: false
Boxcar width: 0
XAxis mode: Wavelengths
Number of Pixels in Spectrum: 2068
>>>>>Begin Spectral Data<<<<<
199,4	4,4
199,9	-1,6
200,4	-0,4
200,8	1,8
201,3	46,4
201,8	36,8
202,2	59,6
202,7	55,8
203,2	34,8
203,6	43,6
204,1	35
204,6	36,8
205	52,2
205,5	52,4
206	46,4
206,4	67
206,9	42
207,4	46,4
207,8	51,6
208,3	56,6
208,8	44,6
209,2	35,2
209,7	45,6
210,2	51,8
210,6	71
211,1	58,8
211,5	54,2
212	67,4
212,5	82,2
212,9	58,8
213,4	69,2
213,9	60,8
214,3	43,4
214,8	86
215,3	79,4
215,7	66
216,2	46,8
216,7	74,2
217,1	70
217,6	76,2
218,1	73
218,5	74,6
219	60,4
219,5	72,6
219,9	73
220,4	74,2
220,9	82,4
221,3	86,6
221,8	79,6
222,3	78,6
222,7	82,2
223,2	82,2
223,6	68,2
224,1	49
224,6	62,2
225	71
225,5	82
226	70,2
226,4	79,8
226,9	54
227,4	42,4
227,8	75
228,3	62
228,8	59,2
229,2	85,8
229,7	50,6
230,2	65,8
230,6	98,8
231,1	77
231,5	71,4
232	77,6
232,5	87,2
232,9	73,2
233,4	60
233,9	88,6
234,3	69,4
234,8	76
235,3	62,6
235,7	66,8
236,2	58,8
236,7	78
237,1	73,2
237,6	67
238,1	67,6
238,5	61,2
239	75,2
239,4	85
239,9	61
240,4	87,2
240,8	66,2
241,3	66,4
241,8	63,8
242,2	84,4
242,7	93
243,2	55,4
243,6	68,8
244,1	69
244,6	89,8
245	80
245,5	63,6
245,9	76,4
246,4	67
246,9	88,6
247,3	67,8
247,8	85,6
248,3	79,8
248,7	69,2
249,2	49,6
249,7	71,2
250,1	71,2
250,6	69
251	82
251,5	62,8
252	76,2
252,4	77,8
252,9	74,8
253,4	73,8
253,8	48,6
254,3	75,2
254,8	71,2
255,2	63,6
255,7	61
256,1	83
256,6	82,2
257,1	71
257,5	62,8
258	86,2
258,5	67,8
258,9	70,4
259,4	68,4
259,9	42,6
260,3	71,2
260,8	68,6
261,2	82,8
261,7	56
262,2	91,2
262,6	75,2
263,1	87,2
263,6	63,6
264	83
264,5	89,8
264,9	71,6
265,4	87,2
265,9	75
266,3	73,2
266,8	78
267,3	79
267,7	56,6
268,2	67,2
268,7	84,6
269,1	71,4
269,6	64
270	75,6
270,5	75,2
271	59,8
271,4	75,6
271,9	106
272,4	58,8
272,8	71,6
273,3	75,2
273,7	64
274,2	104,6
274,7	69
275,1	77,2
275,6	90,2
276,1	67,2
276,5	77,2
277	92,4
277,4	66
277,9	63,2
278,4	87,8
278,8	65
279,3	64
279,8	58,2
280,2	69,2
280,7	47,4
281,1	65,8
281,6	66,6
282,1	55
282,5	76,2
283	79
283,4	75,4
283,9	56,4
284,4	79
284,8	68
285,3	77,8
285,8	57
286,2	68,2
286,7	71,4
287,1	67,4
287,6	56,4
288,1	86,2
288,5	48,4
289	59
289,5	78,8
289,9	46,8
290,4	85,8
290,8	74,6
291,3	58,6
291,8	70
292,2	66,4
292,7	58
293,1	69,2
293,6	58,8
294,1	93,8
294,5	93
295	80,6
295,5	78
295,9	57,4
296,4	52,2
296,8	71,8
297,3	68,6
297,8	70,4
298,2	68,2
298,7	78,6
299,1	91,6
299,6	93
300,1	60,6
300,5	49,2
301	78,6
301,5	66,8
301,9	66,4
302,4	94,8
302,8	81,2
303,3	85
303,8	73,2
304,2	69
304,7	96,4
305,1	70,2
305,6	83
306,1	49
306,5	71,2
307	67,2
307,4	96
307,9	58,4
308,4	70
308,8	49,6
309,3	68,4
309,8	60,4
310,2	70,6
310,7	80,6
311,1	76,8
311,6	58,4
312,1	75,8
312,5	79,2
313	67,4
313,4	57,2
313,9	51,6
314,4	65
314,8	81,4
315,3	57,4
315,7	67,6
316,2	72,2
316,7	71,4
317,1	83,8
317,6	56,4
318	68,2
318,5	80,8
319	72,8
319,4	62,6
319,9	84
320,3	84
320,8	76,6
321,3	72,6
321,7	61,4
322,2	72,2
322,6	63,2
323,1	52,8
323,6	68,2
324	90,4
324,5	66
324,9	67,6
325,4	79
325,9	73
326,3	63,6
326,8	70
327,2	78,4
327,7	78,4
328,2	85,4
328,6	84
329,1	71,6
329,5	83,4
330	65,6
330,5	61,6
330,9	84
331,4	77,4
331,8	73,6
332,3	78,8
332,8	88,8
333,2	61,6
333,7	75
334,1	57,4
334,6	51,2
335,1	64,6
335,5	78,4
336	75,8
336,4	68,2
336,9	65,2
337,4	63,6
337,8	65,2
338,3	78,8
338,7	59
339,2	67,4
339,7	71,4
340,1	63,4
340,6	83,4
341	92,4
341,5	67,4
342	84
342,4	64,6
342,9	80,2
343,3	88
343,8	62,8
344,2	89,2
344,7	69,6
345,2	78,8
345,6	61,4
346,1	80,6
346,5	81
347	80,2
347,5	90,2
347,9	100,2
348,4	83,2
348,8	68,8
349,3	83,2
349,8	81,8
350,2	82,8
350,7	87,8
351,1	92,8
351,6	95,6
352	90,2
352,5	108,4
353	122,8
353,4	117,2
353,9	149,4
354,3	155,4
354,8	162,6
355,3	208,8
355,7	225,8
356,2	261,6
356,6	286
357,1	339,6
357,5	394,6
358	444,6
358,5	508,2
358,9	583,6
359,4	684,2
359,8	791,6
360,3	881,2
360,8	1022,6
361,2	1130,6
361,7	1266,4
362,1	1432,8
362,6	1592,2
363	1814
363,5	2013,2
364	2220,8
364,4	2444,6
364,9	2682
365,3	2893,8
365,8	3105,6
366,3	3296,8
366,7	3471,8
367,2	3604,8
367,6	3724,2
368,1	3824,6
368,5	3906,8
369	3889,6
369,5	3896,6
369,9	3846,4
370,4	3767,6
370,8	3629,8
371,3	3576,4
371,7	3347
372,2	3234,4
372,7	3062,8
373,1	2917,8
373,6	2717,8
374	2536,4
374,5	2390,6
374,9	2187,6
375,4	2019,2
375,9	1893,4
376,3	1730
376,8	1593,6
377,2	1450,6
377,7	1374,6
378,2	1227,4
378,6	1134,4
379,1	1027,2
379,5	940
380	868,8
380,4	819,6
380,9	735,2
381,4	684,4
381,8	640,4
382,3	592,4
382,7	565,8
383,2	529
383,6	502,8
384,1	438,8
384,6	435,4
385	391
385,5	400,4
385,9	366,8
386,4	338
386,8	308,6
387,3	325,4
387,7	292,6
388,2	284,6
388,7	244
389,1	229,4
389,6	223,2
390	239,8
390,5	208,2
390,9	200
391,4	186,6
391,9	167
392,3	154,2
392,8	162,8
393,2	140,4
393,7	136,8
394,1	160,4
394,6	136,8
395,1	129,8
395,5	143,6
396	114,2
396,4	139,8
396,9	123,8
397,3	131,8
397,8	113
398,2	118
398,7	118,6
399,2	111,2
399,6	99,2
400,1	108
400,5	100,2
401	114,4
401,4	113,2
401,9	93,2
402,4	122
402,8	95
403,3	127,8
403,7	100,4
404,2	93,4
404,6	102,4
405,1	105,8
405,5	107,2
406	84,6
406,5	77,6
406,9	103,6
407,4	96,6
407,8	80
408,3	103,2
408,7	80,4
409,2	96,6
409,6	101,2
410,1	105
410,6	81
411	91,2
411,5	79,4
411,9	107,4
412,4	106
412,8	102,4
413,3	100,4
413,7	113
414,2	99,4
414,7	93,8
415,1	101,8
415,6	113,6
416	102
416,5	106,6
416,9	114
417,4	131,2
417,8	100,6
418,3	140,8
418,8	117,4
419,2	113,4
419,7	116,8
420,1	131,8
420,6	117,4
421	151,8
421,5	121
421,9	125,6
422,4	127
422,8	134,6
423,3	144,2
423,8	103,8
424,2	118,6
424,7	132,4
425,1	114,2
425,6	126,4
426	125,6
426,5	128,2
426,9	152,8
427,4	126,8
427,9	143,2
428,3	127,2
428,8	128
429,2	142,2
429,7	124
430,1	158,6
430,6	134,4
431	136,4
431,5	170,8
431,9	157,2
432,4	150,6
432,8	140,6
433,3	161,2
433,8	160,2
434,2	166,8
434,7	156,2
435,1	159,8
435,6	163,2
436	174,2
436,5	188
436,9	183,6
437,4	190,4
437,8	169,4
438,3	183,8
438,8	164,4
439,2	199,2
439,7	207,8
440,1	226,6
440,6	204,6
441	209,6
441,5	201
441,9	241,2
442,4	219
442,8	244,8
443,3	261,2
443,7	236,8
444,2	284,4
444,7	270,4
445,1	274,4
445,6	269,6
446	287,8
446,5	294,8
446,9	323
447,4	309,8
447,8	333
448,3	330,8
448,7	332,6
449,2	348
449,6	358
450,1	382
450,6	372,2
451	386
451,5	384,8
451,9	405,8
452,4	415,2
452,8	426,8
453,3	434,6
453,7	439,6
454,2	468
454,6	489,2
455,1	486,6
455,5	516,8
456	509,6
456,4	508,8
456,9	538,8
457,3	543,6
457,8	544,4
458,3	543,8
458,7	586,4
459,2	581,6
459,6	635,2
460,1	618,8
460,5	627,4
461	630,2
461,4	676,8
461,9	670,2
462,3	669,2
462,8	707,2
463,2	703,2
463,7	712,4
464,1	745,4
464,6	756,4
465	727,4
465,5	771,2
466	774,4
466,4	791,6
466,9	811,6
467,3	823
467,8	832,4
468,2	849,8
468,7	873,4
469,1	870,4
469,6	908,6
470	883
470,5	903,4
470,9	910,8
471,4	951
471,8	948,8
472,3	967,2
472,7	978,4
473,2	984
473,6	991,6
474,1	1002,8
474,5	1010
475	1025,2
475,4	1027,6
475,9	1054,4
476,4	1041,8
476,8	1056
477,3	1080,8
477,7	1092,2
478,2	1078,8
478,6	1112,6
479,1	1117,2
479,5	1110,6
480	1116,4
480,4	1137,8
480,9	1127,2
481,3	1145,8
481,8	1148,8
482,2	1122,6
482,7	1153,2
483,1	1154,2
483,6	1170,2
484	1168,6
484,5	1192,6
484,9	1170,8
485,4	1187,8
485,8	1207,2
486,3	1196,8
486,7	1171,4
487,2	1193,6
487,6	1194,4
488,1	1192,6
488,5	1205,4
489	1191
489,4	1210,8
489,9	1176,2
490,4	1244,8
490,8	1204,4
491,3	1231
491,7	1244
492,2	1205,2
492,6	1217,8
493,1	1190,2
493,5	1232,4
494	1206,6
494,4	1208,4
494,9	1193,2
495,3	1205,2
495,8	1213,2
496,2	1222,6
496,7	1209,2
497,1	1194,4
497,6	1184,6
498	1195,6
498,5	1196,2
498,9	1203,6
499,4	1180,6
499,8	1152
500,3	1163,4
500,7	1169,4
501,2	1177,2
501,6	1156
502,1	1138,4
502,5	1135,6
503	1120
503,4	1148,4
503,9	1128,6
504,3	1127,4
504,8	1113,8
505,2	1107,8
505,7	1103,2
506,1	1082,8
506,6	1109,6
507	1083,2
507,5	1088,4
507,9	1071,2
508,4	1052
508,8	1055,8
509,3	1064,8
509,7	1047,6
510,2	1048,6
510,6	1038,4
511,1	1027,4
511,5	1040,6
512	1028,6
512,4	1012,8
512,9	1015,4
513,3	1003,8
513,8	988,6
514,2	1011,4
514,7	972,6
515,1	971,2
515,6	986,8
516	974,4
516,5	958
516,9	966,8
517,4	921,6
517,8	936,4
518,3	937,6
518,7	916,8
519,2	895
519,6	899
520,1	873,4
520,5	891,2
521	868,8
521,4	880,2
521,9	882,2
522,3	869
522,8	859,8
523,2	849,4
523,7	843,4
524,1	827
524,6	835,6
525	820,2
525,5	810,4
525,9	851,4
526,4	815,2
526,8	784
527,3	833,2
527,7	791,8
528,2	801,2
528,6	788,8
529,1	777,4
529,5	796,6
530	763,2
530,4	760,6
530,9	747
531,3	760,2
531,8	745,2
532,2	760
532,6	733,6
533,1	749,4
533,5	731,4
534	719,4
534,4	712,2
534,9	717,6
535,3	700,6
535,8	682,2
536,2	692,2
536,7	719,6
537,1	665,6
537,6	695,6
538	686,8
538,5	680,2
538,9	670,8
539,4	668,8
539,8	669,8
540,3	652,8
540,7	679,2
541,2	666,4
541,6	638,8
542,1	661,4
542,5	648,4
543	621,2
543,4	653,8
543,9	625,8
544,3	639,4
544,8	640,2
545,2	643,8
545,7	642
546,1	606,2
546,5	626,2
547	619,2
547,4	604,2
547,9	593,6
548,3	602,2
548,8	597,8
549,2	606,2
549,7	599,4
550,1	598,6
550,6	594
551	560,6
551,5	551
551,9	569
552,4	599
552,8	580,6
553,3	593
553,7	587,8
554,2	557,4
554,6	544,6
555,1	569,8
555,5	561,6
555,9	550,6
556,4	543,6
556,8	575
557,3	562,4
557,7	547,8
558,2	542,6
558,6	556,4
559,1	542,4
559,5	541,6
560	553,6
560,4	550,2
560,9	555,8
561,3	515,6
561,8	540,8
562,2	541
562,7	533,4
563,1	540,2
563,6	557,8
564	533,8
564,4	544
564,9	544,4
565,3	530,6
565,8	497,6
566,2	527
566,7	532,2
567,1	535
567,6	486
568	534,8
568,5	518,8
568,9	526,8
569,4	516
569,8	510,6
570,3	493,2
570,7	513
571,1	493,2
571,6	501
572	533,8
572,5	505
572,9	505,8
573,4	507,8
573,8	513,6
574,3	501
574,7	498,4
575,2	486,8
575,6	479
576,1	478,8
576,5	497,6
576,9	485,2
577,4	508,6
577,8	505,4
578,3	484,2
578,7	495,8
579,2	508
579,6	502
580,1	492,6
580,5	466,6
581	499
581,4	487
581,9	483
582,3	501,4
582,7	497,6
583,2	487,8
583,6	477,8
584,1	498,8
584,5	467,6
585	493,8
585,4	469
585,9	457,2
586,3	492
586,8	495,4
587,2	469,8
587,6	465,4
588,1	471,2
588,5	454,8
589	487,4
589,4	474,4
589,9	470,6
590,3	495
590,8	496,8
591,2	490,2
591,7	473,4
592,1	477,8
592,5	485,2
593	457,6
593,4	476
593,9	473
594,3	496,6
594,8	467,8
595,2	481,6
595,7	464,8
596,1	454,6
596,6	484
597	471,2
597,4	468,2
597,9	462
598,3	446,6
598,8	435,8
599,2	476,2
599,7	459,4
600,1	445,2
600,6	461,2
601	458,4
601,4	474,4
601,9	464,6
602,3	457,2
602,8	469,4
603,2	490,6
603,7	462,2
604,1	460
604,6	477,2
605	472
605,4	472
605,9	451,2
606,3	459,4
606,8	460,8
607,2	449,8
607,7	434,4
608,1	460,4
608,6	478,2
609	464,6
609,4	450
609,9	426,8
610,3	446,2
610,8	461
611,2	456,6
611,7	442,4
612,1	476
612,6	452,2
613	453,4
613,4	472
613,9	455,2
614,3	458,8
614,8	437,6
615,2	462
615,7	449,6
616,1	440,8
616,6	444,8
617	438,2
617,4	498
617,9	448,8
618,3	445,8
618,8	443,4
619,2	439
619,7	474,8
620,1	457,4
620,5	452,4
621	467,6
621,4	429,2
621,9	455
622,3	439
622,8	454,8
623,2	454,2
623,6	434
624,1	440,8
624,5	433,4
625	437,8
625,4	449,4
625,9	453,2
626,3	459,4
626,8	427,4
627,2	437,6
627,6	438,4
628,1	430,2
628,5	457,2
629	456,4
629,4	430
629,9	428,6
630,3	431,4
630,7	416,2
631,2	377,6
631,6	439
632,1	448,6
632,5	418
633	413,6
633,4	441,8
633,8	440,6
634,3	436,2
634,7	442
635,2	419,6
635,6	423
636,1	427,2
636,5	430,4
636,9	407,6
637,4	410
637,8	439
638,3	442
638,7	395,2
639,2	414,2
639,6	420,6
640	417,2
640,5	441
640,9	424,4
641,4	422,6
641,8	421,2
642,2	433,6
642,7	424
643,1	401,4
643,6	421,4
644	460,6
644,5	429,2
644,9	415,6
645,3	426,8
645,8	396,8
646,2	417
646,7	433,4
647,1	414,4
647,6	410,2
648	403,6
648,4	448,4
648,9	391,6
649,3	410,6
649,8	400,4
650,2	425,4
650,6	410,2
651,1	405,6
651,5	419
652	416,2
652,4	394,2
652,9	414,8
653,3	414
653,7	382,4
654,2	422,2
654,6	410
655,1	387,8
655,5	413,8
655,9	391,8
656,4	405,8
656,8	369,2
657,3	397,2
657,7	412,6
658,2	398
658,6	405,2
659	403
659,5	420
659,9	388,2
660,4	407,8
660,8	414,6
661,2	410,4
661,7	389
662,1	406,4
662,6	391,4
663	383,4
663,4	380,2
663,9	408,6
664,3	381,2
664,8	375,4
665,2	367,8
665,6	397,8
666,1	378,2
666,5	382,4
667	392
667,4	391,4
667,9	357,4
668,3	373,2
668,7	366,6
669,2	383,4
669,6	393,2
670,1	374,2
670,5	363,4
670,9	380,6
671,4	381,2
671,8	343,2
672,3	386,8
672,7	366,8
673,1	370,2
673,6	361,6
674	377
674,5	356
674,9	342
675,3	367,6
675,8	353,4
676,2	351,6
676,7	338,2
677,1	364,4
677,5	368,4
678	355,8
678,4	348,2
678,9	349
679,3	347,4
679,7	365,8
680,2	365,8
680,6	355,6
681,1	340,6
681,5	366,4
681,9	344
682,4	360,6
682,8	337,4
683,3	345,2
683,7	347,8
684,1	350,2
684,6	358
685	327,8
685,5	334
685,9	317,2
686,3	332,8
686,8	353,6
687,2	308,4
687,7	338,6
688,1	354,2
688,5	344,4
689	325,2
689,4	327,2
689,9	322,8
690,3	355,2
690,7	333,4
691,2	334,4
691,6	346
692	315,6
692,5	343,6
692,9	334,2
693,4	335,4
693,8	331
694,2	354,8
694,7	306,2
695,1	322,8
695,6	312,4
696	330,6
696,4	314,8
696,9	312,2
697,3	317,2
697,8	303,2
698,2	301,8
698,6	321
699,1	317,4
699,5	319,4
699,9	304
700,4	312
700,8	316,2
701,3	316
701,7	311
702,1	301,8
702,6	302,4
703	293
703,5	294,2
703,9	305,2
704,3	303,4
704,8	294,2
705,2	304,8
705,6	302
706,1	311,2
706,5	286,2
707	297,4
707,4	327
707,8	279
708,3	280
708,7	291
709,2	305,8
709,6	289,6
710	294,8
710,5	267,2
710,9	300,6
711,3	275,6
711,8	311,4
712,2	288,2
712,7	277,4
713,1	274,2
713,5	292,6
714	264,4
714,4	271,2
714,8	295,4
715,3	268,4
715,7	278
716,2	273,4
716,6	278
717	292,2
717,5	269,6
717,9	277,8
718,3	277,4
718,8	281,8
719,2	276,4
719,7	263,2
720,1	275,6
720,5	277,4
721	272,6
721,4	266,8
721,8	248,2
722,3	259,6
722,7	260
723,2	254,8
723,6	262,2
724	256,8
724,5	251,6
724,9	248,4
725,3	245,8
725,8	272,6
726,2	238
726,7	246,4
727,1	246,4
727,5	240,2
728	247,8
728,4	248,8
728,8	245
729,3	231,6
729,7	230,4
730,1	238,6
730,6	238,4
731	228,6
731,5	235,6
731,9	236,6
732,3	245,6
732,8	224,8
733,2	235,2
733,6	242
734,1	210,4
734,5	219,8
734,9	240,4
735,4	227,4
735,8	234,6
736,3	246,2
736,7	211,8
737,1	226,8
737,6	217
738	222,4
738,4	208,4
738,9	236,2
739,3	227,4
739,7	234,4
740,2	224,6
740,6	227,6
741,1	247,8
741,5	229
741,9	223,6
742,4	217,4
742,8	218,4
743,2	210,6
743,7	213,6
744,1	225,4
744,5	225
745	239,4
745,4	209,4
745,8	218
746,3	201,4
746,7	215
747,2	194,4
747,6	194,6
748	208,6
748,5	215,6
748,9	221,2
749,3	210,6
749,8	212,4
750,2	188,2
750,6	211,2
751,1	219,8
751,5	215,8
751,9	211,8
752,4	198,6
752,8	197,8
753,3	222,2
753,7	189
754,1	185,8
754,6	200,6
755	206,4
755,4	209,4
755,9	200,6
756,3	192,2
756,7	214
757,2	203,2
757,6	176,6
758	193,4
758,5	200,2
758,9	179,8
759,3	186,6
759,8	177,8
760,2	187,8
760,6	187,6
761,1	181,4
761,5	200,2
761,9	170,4
762,4	177,2
762,8	171,8
763,3	194,8
763,7	168,6
764,1	185,2
764,6	179,6
765	186,2
765,4	186,2
765,9	172,6
766,3	164
766,7	170,2
767,2	184
767,6	194,6
768	174,2
768,5	196,6
768,9	190,4
769,3	173,8
769,8	167,6
770,2	184,4
770,6	168,6
771,1	171,4
771,5	177,2
771,9	171
772,4	177,6
772,8	165,2
773,2	156,6
773,7	171,8
774,1	186
774,5	143
775	158,2
775,4	142,8
775,8	173,8
776,3	162,8
776,7	153,6
777,1	166,4
777,6	156
778	156,4
778,4	183,2
778,9	155,8
779,3	161,4
779,7	151,4
780,2	162,6
780,6	154,8
781	171,6
781,5	172,4
781,9	154
782,3	162,2
782,8	199,6
783,2	173,6
783,6	145,6
784,1	162
784,5	158,2
784,9	160,2
785,4	160
785,8	173,4
786,2	147,6
786,7	157
787,1	159,8
787,5	131,2
788	172,4
788,4	163,6
788,8	155,2
789,3	173,2
789,7	168
790,1	149,6
790,6	139,8
791	137,2
791,4	147,2
791,9	154
792,3	145,2
792,7	135
793,2	164
793,6	116,8
794	133,8
794,5	157,8
794,9	145,4
795,3	142,4
795,8	136,6
796,2	144
796,6	147,2
797,1	133,2
797,5	150,8
797,9	124,8
798,4	153,6
798,8	138,4
799,2	129,2
799,7	128,2
800,1	121,2
800,5	158,2
801	141,8
801,4	115,8
801,8	145,6
802,2	121,4
802,7	130,8
803,1	134,8
803,5	137
804	136,4
804,4	114,6
804,8	127,4
805,3	135,8
805,7	141
806,1	133,6
806,6	146,6
807	122,6
807,4	129,8
807,9	157,6
808,3	131
808,7	100,6
809,2	120,6
809,6	126,4
810	115,6
810,4	146,8
810,9	120
811,3	130,2
811,7	129,2
812,2	118
812,6	122,8
813	123,4
813,5	129,4
813,9	121,6
814,3	120,8
814,8	126
815,2	115,6
815,6	104,8
816,1	128
816,5	126
816,9	117,4
817,3	133,4
817,8	99,4
818,2	122,6
818,6	94,6
819,1	142
819,5	120,2
819,9	95
820,4	120,6
820,8	110
821,2	101,8
821,7	102,6
822,1	114,2
822,5	127,2
822,9	108,4
823,4	123,2
823,8	105,2
824,2	118
824,7	134,4
825,1	130,6
825,5	121,2
826	108,6
826,4	116,2
826,8	125
827,3	89,4
827,7	104,4
828,1	104,4
828,5	103,4
829	118,4
829,4	101
829,8	109,2
830,3	116,4
830,7	101,6
831,1	89,2
831,6	107,8
832	125,6
832,4	115,6
832,8	107,8
833,3	130
833,7	90
834,1	96,2
834,6	111,6
835	112,4
835,4	82,6
835,8	98,4
836,3	102,8
836,7	107
837,1	108,6
837,6	84
838	107
838,4	97
838,9	101,2
839,3	102,2
839,7	98,6
840,1	101,6
840,6	97,8
841	105
841,4	113,6
841,9	76,2
842,3	98,4
842,7	87,8
843,1	107,8
843,6	94,8
844	106,6
844,4	83,2
844,9	112,8
845,3	90,2
845,7	109,6
846,2	93,8
846,6	94,4
847	79,8
847,4	89,4
847,9	101,2
848,3	92,2
848,7	101,8
849,2	98
849,6	104,2
850	114,6
850,4	105,2
850,9	83,6
851,3	97,2
851,7	103,6
852,2	95,6
852,6	98,8
853	92,2
853,4	104,6
853,9	96,8
854,3	89,6
854,7	104,6
855,2	98
855,6	92,2
856	103,4
856,4	91
856,9	83,2
857,3	89,2
857,7	86,4
858,2	99,4
858,6	87,4
859	95
859,4	92,4
859,9	98
860,3	81,8
860,7	90,2
861,1	81,8
861,6	89,6
862	103,6
862,4	114,4
862,9	104,4
863,3	91,8
863,7	94,4
864,1	90,8
864,6	77,6
865	78
865,4	84,2
865,9	94
866,3	81
866,7	85
867,1	81,8
867,6	96,6
868	96,6
868,4	94,6
868,8	78,2
869,3	89,6
869,7	98,4
870,1	87,2
870,6	94,8
871	92,4
871,4	80,6
871,8	101,6
872,3	-11
872,7	102
873,1	91,2
873,5	70,8
874	88,6
874,4	75,2
874,8	91,4
875,3	88,8
875,7	89,4
876,1	87,2
876,5	98,4
877	109,8
877,4	105,2
877,8	91
878,2	79
878,7	61,2
879,1	80,2
879,5	96
879,9	62,6
880,4	65,4
880,8	82,2
881,2	74,8
881,7	83
882,1	87,4
882,5	100,4
882,9	70
883,4	92
883,8	72,2
884,2	85,4
884,6	80,4
885,1	100,4
885,5	73,8
885,9	71
886,3	86,8
886,8	83
887,2	80,6
887,6	70,6
888	76,6
888,5	69,8
888,9	79,8
889,3	65,2
889,8	108,6
890,2	70,2
890,6	78,2
891	74,2
891,5	67,2
891,9	73,8
892,3	81
892,7	79,8
893,2	60
893,6	97,4
894	69,2
894,4	75,4
894,9	79,4
895,3	78
895,7	77
896,1	64,2
896,6	71,2
897	85,4
897,4	78,4
897,8	70,6
898,3	94
898,7	76,2
899,1	88,2
899,5	64,2
900	98,8
900,4	75,4
900,8	73,4
901,2	81,6
901,7	88,8
902,1	99,8
902,5	96,4
902,9	96,2
903,4	72,8
903,8	74
904,2	78,8
904,6	59,8
905,1	60,8
905,5	65,6
905,9	87,2
906,3	73,8
906,8	80,4
907,2	95
907,6	64,2
908	78,6
908,5	75,8
908,9	76,4
909,3	68,4
909,7	52,8
910,2	80,4
910,6	92,4
911	75,8
911,4	91
911,9	71,6
912,3	74,4
912,7	72
913,1	60,6
913,6	64
914	80
914,4	83,4
914,8	92
915,3	59
915,7	93,6
916,1	74,2
916,5	81
916,9	79,6
917,4	91
917,8	77
918,2	54,2
918,6	69,4
919,1	78,2
919,5	88,4
919,9	72,8
920,3	84,8
920,8	81,6
921,2	63,6
921,6	63
922	90,8
922,5	86,6
922,9	82,6
923,3	62
923,7	78,8
924,2	58,6
924,6	73
925	99,4
925,4	74,6
925,8	38,4
926,3	59,4
926,7	83,6
927,1	80,4
927,5	73
928	83,8
928,4	89,4
928,8	53
929,2	80,2
929,7	84,6
930,1	61,8
930,5	73,2
930,9	65,2
931,3	40,4
931,8	58,8
932,2	78,4
932,6	76,6
933	58,4
933,5	68,6
933,9	93,2
934,3	60
934,7	92,2
935,2	90,4
935,6	67,2
936	59,6
936,4	79,4
936,8	74,8
937,3	73,4
937,7	92,4
938,1	79,4
938,5	79,2
939	77,6
939,4	68,6
939,8	81,4
940,2	61
940,6	68,6
941,1	65,8
941,5	78,8
941,9	71,2
942,3	68
942,8	78,6
943,2	103,2
943,6	73,8
944	89,4
944,4	67
944,9	87
945,3	86,8
945,7	68,2
946,1	102,8
946,6	66,2
947	74,8
947,4	59,2
947,8	74,8
948,2	79,2
948,7	73,4
949,1	87,6
949,5	59,8
949,9	64,6
950,3	74,4
950,8	71,8
951,2	86,8
951,6	63,4
952	89,8
952,5	71,4
952,9	64,8
953,3	47,4
953,7	78,6
954,1	76,8
954,6	69
955	56,8
955,4	79,6
955,8	73,2
956,2	76,6
956,7	71,6
957,1	70,6
957,5	86,8
957,9	67,6
958,3	81,6
958,8	49,2
959,2	83,8
959,6	76,4
960	79,4
960,5	73,6
960,9	82
961,3	83,2
961,7	75,8
962,1	64,8
962,6	60,6
963	58,6
963,4	82
963,8	45,2
964,2	60,2
964,7	51,8
965,1	79,4
965,5	62,4
965,9	71,4
966,3	65,6
966,8	52,8
967,2	73,6
967,6	52,4
968	80,4
968,4	51,6
968,9	52,8
969,3	73,4
969,7	73,4
970,1	69,6
970,5	86,8
971	65
971,4	64,4
971,8	54,2
972,2	69
972,6	72,8
973,1	78,8
973,5	58,6
973,9	57,8
974,3	69,2
974,7	52
975,2	77,6
975,6	76
976	67,6
976,4	80,6
976,8	67,6
977,3	61,6
977,7	81,8
978,1	79,8
978,5	96,6
978,9	71,8
979,4	92,8
979,8	64,4
980,2	53,6
980,6	84,8
981	62,8
981,5	67
981,9	60,2
982,3	106,8
982,7	72,6
983,1	69
983,6	68,2
984	72,2
984,4	80,4
984,8	87,6
985,2	85,6
985,6	95,4
986,1	67,8
986,5	75,2
986,9	77,2
987,3	62,2
987,7	57,2
988,2	80,4
988,6	46,6
989	78,4
989,4	72,2
989,8	94,4
990,3	72,6
990,7	78,4
991,1	55,2
991,5	57,4
991,9	76,4
992,3	69,8
992,8	47,8
993,2	82,2
993,6	85
994	97
994,4	51,4
994,9	51,4
995,3	73,4
995,7	103,8
996,1	94,2
996,5	70,6
996,9	52,6
997,4	60,8
997,8	89
998,2	97,4
998,6	79,4
999	62,8
999,5	59,4
999,9	83,8
1000,3	87
1000,7	68,4
1001,1	58,4
1001,5	87
1002	73,4
1002,4	64,6
1002,8	72,4
1003,2	76,6
1003,6	52
1004	67,2
1004,5	58
1004,9	74,2
1005,3	77,4
1005,7	80,2
1006,1	77,4
1006,6	68,2
1007	82,8
1007,4	58
1007,8	59,8
1008,2	67,8
1008,6	72,6
1009,1	55,8
1009,5	67,2
1009,9	82
1010,3	69,8
1010,7	69,4
1011,1	65,2
1011,6	77,6
1012	69,6
1012,4	64,6
1012,8	85,4
1013,2	81,6
1013,6	81
1014,1	73,8
1014,5	79,6
1014,9	72,6
1015,3	59
1015,7	75,6
1016,1	70
1016,6	59,2
1017	88,8
1017,4	76
1017,8	59,6
1018,2	89,6
1018,6	91
1019,1	66,4
1019,5	87,6
1019,9	85,2
1020,3	60
1020,7	84
1021,1	72,2
1021,6	79,8
1022	74,6
1022,4	61
1022,8	69,8
1023,2	83,2
1023,6	75,2
1024,1	87,2
1024,5	58,6
1024,9	58,4
1025,3	73,4
1025,7	98,4
1026,1	85
1026,6	64,8
1027	90,4
1027,4	78,8
1027,8	73
1028,2	80,2
1028,6	92
1029	79,2
1029,5	81,2
1029,9	73
1030,3	74
1030,7	69
1031,1	70,4
1031,5	83,4
1032	80,6
1032,4	80
1032,8	94,4
1033,2	62,8
1033,6	86,6
1034	81,6
1034,4	93,4
1034,9	73,4
1035,3	81,2
1035,7	82,2
1036,1	45,6
1036,5	107,6
1036,9	78,6
1037,4	82,6
1037,8	90,8
1038,2	75,6
1038,6	92,4
1039	103,8
1039,4	68,2
1039,8	83,6
1040,3	83,8
1040,7	77,6
1041,1	115
1041,5	76
1041,9	95
1042,3	87,6
1042,7	88,8
1043,2	74,8
1043,6	86
1044	54
1044,4	64,2
1044,8	93,2
1045,2	84
1045,6	83
1046,1	64,6
1046,5	91,8
1046,9	83,8
1047,3	83,4
1047,7	80,6
1048,1	82
1048,5	76,6
1049	89
1049,4	78,6
1049,8	77
1050,2	81,4
1050,6	88
1051	71,8
1051,4	68,4
1051,9	93,8
1052,3	75,2
1052,7	98,8
1053,1	80,2
1053,5	87,4
1053,9	100,4
1054,3	75,2
1054,8	81,4
1055,2	91,8
1055,6	88,8
1056	87,2
1056,4	76,4
1056,8	85,2
1057,2	108,6
1057,6	96
1058,1	86,2
1058,5	85,2
1058,9	81,4
1059,3	80,8
1059,7	67
1060,1	68,6
1060,5	91,4
1061	78,2
1061,4	80,4
1061,8	87
1062,2	88,4
1062,6	91,2
1063	93,4
1063,4	109,2
1063,8	91,6
1064,3	76,6
1064,7	103,2
1065,1	66,6
1065,5	79,2
1065,9	100,6
1066,3	78
1066,7	85,4
1067,1	75,6
1067,6	90,6
1068	79,2
1068,4	102,8
1068,8	73,6
1069,2	83,2
1069,6	69,6
1070	61,4
1070,4	69,4
1070,9	76
1071,3	86,2
1071,7	82,8
1072,1	74,2
1072,5	53,6
1072,9	81,4
1073,3	104
1073,7	72,6
1074,2	78
1074,6	58,4
1075	75,8
1075,4	64
1075,8	57
1076,2	67,4
1076,6	66,6
1077	66,6
1077,5	75,2
1077,9	49,6
1078,3	70,8
1078,7	84,4
1079,1	84,2
1079,5	77,6
1079,9	85
1080,3	88,8
1080,7	67,4
1081,2	79,8
1081,6	64,2
1082	79,6
1082,4	69
1082,8	45
1083,2	65,2
1083,6	80,8
1084	92,2
1084,5	72,8
1084,9	67,6
1085,3	70,6
1085,7	74,2
1086,1	80,2
1086,5	81
1086,9	64,2
1087,3	62,8
1087,7	75
1088,2	70,4
1088,6	62,4
1089	39,8
1089,4	54,6
1089,8	59
1090,2	71,6
1090,6	59
1091	71,4
1091,4	64,8
1091,9	84,4
1092,3	82,2
1092,7	61,4
1093,1	73
1093,5	63,2
1093,9	59,6
1094,3	69,4
1094,7	67,6
1095,1	50,6
1095,5	58,6
1096	98
1096,4	103
1096,8	81,4
1097,2	75,2
1097,6	40,6
1098	47
1098,4	68,2
1098,8	55
1099,2	50,4
1099,6	54,6
1100,1	61,2
1100,5	65,6
1100,9	43,6
1101,3	44,4
1101,7	47,6
1102,1	55,6
1102,5	43,8
1102,9	45,4
1103,3	58,6
1103,7	34,2
1104,2	55,4
1104,6	50,4
1105	49,6
1105,4	52
1105,8	48
1106,2	50,8
1106,6	26,6
1107	-0,4
1107,4	-2,4
1107,8	2,4
1108,3	-1
