Data from Subt2_00006.txt Node
Date: Fri Jul 14 14:07:35 MSK 2023
User: vat
Spectrometer: MAYP114033
Trigger mode: 0
Integration Time (sec): 5,000000E-1
Scans to average: 5
Electric dark correction enabled: true
Nonlinearity correction enabled: false
Boxcar width: 0
XAxis mode: Wavelengths
Number of Pixels in Spectrum: 2068
>>>>>Begin Spectral Data<<<<<
199,4	8,1
199,9	-4,5
200,4	0,5
200,8	-0,5
201,3	55,7
201,8	58,7
202,2	48,3
202,7	58,3
203,2	60,3
203,6	64,9
204,1	39,1
204,6	55,7
205	71,1
205,5	69,1
206	56,5
206,4	88,9
206,9	49,3
207,4	47,5
207,8	58,5
208,3	77,3
208,8	62,1
209,2	63,3
209,7	58,5
210,2	64,7
210,6	67,7
211,1	67,3
211,5	59,7
212	77,3
212,5	73,3
212,9	63,3
213,4	63,7
213,9	81,3
214,3	61,3
214,8	87,1
215,3	93,5
215,7	75,7
216,2	56,1
216,7	88,5
217,1	78,1
217,6	89,9
218,1	68,3
218,5	82,3
219	78,5
219,5	104,1
219,9	89,1
220,4	84,1
220,9	99,5
221,3	96,7
221,8	89,3
222,3	80,9
222,7	84,1
223,2	90,7
223,6	65,5
224,1	59,9
224,6	82,9
225	68,9
225,5	96,7
226	79,5
226,4	99,9
226,9	64,3
227,4	63,5
227,8	79,7
228,3	67,3
228,8	94,9
229,2	83,1
229,7	71,3
230,2	78,3
230,6	128,3
231,1	85,7
231,5	81,7
232	89,7
232,5	82,5
232,9	102,3
233,4	64,1
233,9	92,9
234,3	90,3
234,8	79,1
235,3	73,1
235,7	69,3
236,2	68,5
236,7	96,5
237,1	78,7
237,6	86,5
238,1	80,1
238,5	77,3
239	85,3
239,4	106,5
239,9	76,5
240,4	87,5
240,8	104,7
241,3	70,7
241,8	71,9
242,2	81,5
242,7	110,7
243,2	81,1
243,6	73,1
244,1	72,1
244,6	97,1
245	101,7
245,5	90,9
245,9	87,9
246,4	82,9
246,9	108,3
247,3	79,1
247,8	88,5
248,3	102,3
248,7	90,5
249,2	66,1
249,7	89,3
250,1	75,3
250,6	66,7
251	104,3
251,5	87,1
252	75,5
252,4	93,5
252,9	82,5
253,4	79,3
253,8	65,9
254,3	94,9
254,8	79,7
255,2	102,7
255,7	66,7
256,1	93,9
256,6	84,1
257,1	72,5
257,5	83,1
258	105,3
258,5	108,3
258,9	70,3
259,4	77,5
259,9	51,7
260,3	83,3
260,8	80,7
261,2	108,3
261,7	70,5
262,2	101,3
262,6	84,9
263,1	93,1
263,6	87,3
264	85,1
264,5	93,7
264,9	77,9
265,4	103,7
265,9	93,5
266,3	80,1
266,8	71,9
267,3	94,5
267,7	72,5
268,2	74,9
268,7	98,5
269,1	81,9
269,6	73,9
270	77,9
270,5	92,7
271	75,3
271,4	91,9
271,9	107,7
272,4	76,1
272,8	77,9
273,3	84,3
273,7	74,9
274,2	100,1
274,7	89,1
275,1	90,5
275,6	93,1
276,1	95,5
276,5	82,7
277	98,5
277,4	83,1
277,9	82,3
278,4	77,5
278,8	66,7
279,3	77,5
279,8	70,7
280,2	92,7
280,7	65,7
281,1	60,3
281,6	77,3
282,1	72,9
282,5	90,7
283	87,1
283,4	78,5
283,9	65,1
284,4	89,1
284,8	60,9
285,3	70,5
285,8	88,3
286,2	75,5
286,7	79,7
287,1	78,1
287,6	87,3
288,1	75,3
288,5	66,7
289	71,9
289,5	75,3
289,9	68,7
290,4	91,1
290,8	89,5
291,3	78,3
291,8	96,3
292,2	76,7
292,7	73,7
293,1	80,3
293,6	70,5
294,1	101,9
294,5	92,5
295	83,3
295,5	84,5
295,9	72,1
296,4	84,5
296,8	90,7
297,3	80,7
297,8	93,3
298,2	86,9
298,7	79,3
299,1	111,9
299,6	100,1
300,1	64,7
300,5	51,5
301	88,7
301,5	85,9
301,9	77,3
302,4	91,3
302,8	83,3
303,3	97,1
303,8	92,1
304,2	93,9
304,7	95,1
305,1	85,7
305,6	95,5
306,1	56,1
306,5	76,5
307	52,1
307,4	93,3
307,9	68,3
308,4	83,3
308,8	69,3
309,3	69,1
309,8	83,1
310,2	88,3
310,7	82,3
311,1	81,7
311,6	62,5
312,1	93,3
312,5	77,9
313	90,9
313,4	61,1
313,9	54,7
314,4	79,3
314,8	95,7
315,3	63,1
315,7	82,3
316,2	87,5
316,7	87,5
317,1	104,5
317,6	87,1
318	74,7
318,5	79,5
319	61,9
319,4	88,7
319,9	81,1
320,3	99,9
320,8	82,5
321,3	73,9
321,7	94,9
322,2	82,7
322,6	72,1
323,1	81,9
323,6	66,3
324	97,9
324,5	84,5
324,9	72,1
325,4	88,7
325,9	117,3
326,3	82,3
326,8	87,5
327,2	79,9
327,7	102,3
328,2	86,5
328,6	87,3
329,1	93,7
329,5	92,3
330	89,5
330,5	63,9
330,9	89,3
331,4	98,3
331,8	97,3
332,3	96,1
332,8	107,7
333,2	77,5
333,7	100,1
334,1	75,7
334,6	67,9
335,1	79,1
335,5	76,9
336	87,7
336,4	72,9
336,9	69,9
337,4	87,9
337,8	80,3
338,3	81,9
338,7	66,9
339,2	63,9
339,7	78,1
340,1	71,5
340,6	89,7
341	103,3
341,5	81,5
342	103,7
342,4	71,9
342,9	89,7
343,3	100,3
343,8	91,5
344,2	106,3
344,7	83,5
345,2	86,5
345,6	83,1
346,1	76,5
346,5	99,1
347	87,1
347,5	96,7
347,9	97,1
348,4	92,3
348,8	74,1
349,3	88,9
349,8	93,7
350,2	86,3
350,7	79,1
351,1	104,9
351,6	85,1
352	104,9
352,5	105,9
353	107,5
353,4	101,5
353,9	117,9
354,3	128,5
354,8	138,1
355,3	172,3
355,7	189,7
356,2	186,1
356,6	228,7
357,1	240,3
357,5	273,3
358	315,3
358,5	338,1
358,9	386,1
359,4	454,1
359,8	503,1
360,3	555,5
360,8	640,9
361,2	717,3
361,7	805,3
362,1	913,5
362,6	1034,9
363	1142,7
363,5	1281,9
364	1413,7
364,4	1534,3
364,9	1698,7
365,3	1836,1
365,8	1963,1
366,3	2086,5
366,7	2201,1
367,2	2291,3
367,6	2358,1
368,1	2445,5
368,5	2478,7
369	2503,5
369,5	2511,3
369,9	2475,5
370,4	2426,5
370,8	2381,9
371,3	2324,5
371,7	2214,7
372,2	2121,1
372,7	2042,1
373,1	1934,1
373,6	1789,9
374	1713,5
374,5	1578,9
374,9	1485,3
375,4	1375,5
375,9	1277,1
376,3	1166,3
376,8	1135,3
377,2	1000,3
377,7	933,1
378,2	855,3
378,6	801,3
379,1	726,3
379,5	667,7
380	621,9
380,4	600,1
380,9	541,7
381,4	500,1
381,8	463,1
382,3	457,9
382,7	422,5
383,2	386,3
383,6	372,3
384,1	348,3
384,6	329,5
385	307,7
385,5	303,3
385,9	290,7
386,4	270,5
386,8	258,7
387,3	230,7
387,7	234,3
388,2	215,9
388,7	204,3
389,1	199,7
389,6	196,1
390	207,3
390,5	188,7
390,9	177,7
391,4	171,5
391,9	159,3
392,3	141,1
392,8	154,7
393,2	130,3
393,7	118,1
394,1	137,9
394,6	131,7
395,1	128,1
395,5	132,9
396	109,9
396,4	130,7
396,9	131,5
397,3	131,7
397,8	116,3
398,2	113,9
398,7	125,3
399,2	122,1
399,6	106,1
400,1	108,1
400,5	104,7
401	127,1
401,4	93,9
401,9	104,9
402,4	114,7
402,8	94,3
403,3	137,1
403,7	113,7
404,2	102,3
404,6	93,9
405,1	104,1
405,5	113,7
406	107,5
406,5	84,7
406,9	95,1
407,4	117,1
407,8	93,5
408,3	123,7
408,7	97,1
409,2	97,5
409,6	96,3
410,1	117,1
410,6	82,5
411	106,5
411,5	100,5
411,9	116,5
412,4	130,7
412,8	103,7
413,3	120,7
413,7	147,9
414,2	107,9
414,7	111,9
415,1	119,3
415,6	137,5
416	117,5
416,5	112,7
416,9	136,9
417,4	150,1
417,8	124,7
418,3	152,9
418,8	140,3
419,2	127,1
419,7	124,7
420,1	148,3
420,6	128,7
421	157,7
421,5	142,7
421,9	156,1
422,4	162,9
422,8	152,7
423,3	161,1
423,8	137,9
424,2	138,3
424,7	166,1
425,1	160,5
425,6	179,7
426	154,5
426,5	161,5
426,9	175,3
427,4	160,3
427,9	188,1
428,3	177,7
428,8	179,1
429,2	183,7
429,7	176,7
430,1	232,9
430,6	189,9
431	201,9
431,5	238,3
431,9	211,9
432,4	219,1
432,8	196,3
433,3	224,5
433,8	214,3
434,2	228,9
434,7	241,9
435,1	225,7
435,6	244,9
436	257,1
436,5	273,1
436,9	276,7
437,4	289,1
437,8	269,5
438,3	282,7
438,8	290,5
439,2	321,9
439,7	340,7
440,1	354,5
440,6	329,1
441	345,1
441,5	366,9
441,9	383,1
442,4	373,3
442,8	413,3
443,3	444,7
443,7	418,9
444,2	471,1
444,7	474,5
445,1	471,9
445,6	479,3
446	489,3
446,5	542,5
446,9	572,9
447,4	568,1
447,8	597,9
448,3	603,9
448,7	618,3
449,2	633,7
449,6	665,5
450,1	674,5
450,6	708,1
451	724,7
451,5	763,9
451,9	783,9
452,4	801,1
452,8	831,3
453,3	839,1
453,7	851,7
454,2	876,9
454,6	931,5
455,1	911,7
455,5	989,1
456	999,9
456,4	1014,7
456,9	1056,7
457,3	1091,3
457,8	1101,1
458,3	1105,1
458,7	1145,5
459,2	1179,9
459,6	1239,3
460,1	1272,5
460,5	1275,9
461	1315,1
461,4	1360,3
461,9	1369,7
462,3	1406,9
462,8	1428,9
463,2	1473,9
463,7	1453,7
464,1	1497,5
464,6	1551,5
465	1537,7
465,5	1619,3
466	1638,5
466,4	1670,9
466,9	1696,1
467,3	1737,7
467,8	1760,1
468,2	1799,9
468,7	1854,3
469,1	1832,1
469,6	1906,1
470	1890,1
470,5	1956,9
470,9	1995,3
471,4	2023,9
471,8	2072,7
472,3	2083,3
472,7	2097,7
473,2	2150,3
473,6	2205,7
474,1	2182,3
474,5	2233,7
475	2265,7
475,4	2274,5
475,9	2297,1
476,4	2350,1
476,8	2349,5
477,3	2392,3
477,7	2436,3
478,2	2437,5
478,6	2512,3
479,1	2506,9
479,5	2516,3
480	2550,9
480,4	2558,5
480,9	2600,1
481,3	2592,1
481,8	2639,1
482,2	2606,5
482,7	2668,5
483,1	2664,1
483,6	2700,9
484	2729,9
484,5	2733,7
484,9	2746,1
485,4	2782,7
485,8	2808,5
486,3	2791,1
486,7	2765,1
487,2	2849,7
487,6	2846,1
488,1	2859,9
488,5	2854,5
489	2890,3
489,4	2882,5
489,9	2877,3
490,4	2867,9
490,8	2909,5
491,3	2917,1
491,7	2898,5
492,2	2898,5
492,6	2903,3
493,1	2916,9
493,5	2955,3
494	2962,7
494,4	2916,7
494,9	2924,7
495,3	2946,7
495,8	2931,3
496,2	2944,3
496,7	2941,3
497,1	2883,1
497,6	2930,7
498	2936,7
498,5	2925,1
498,9	2941,9
499,4	2937,9
499,8	2880,1
500,3	2894,7
500,7	2899,7
501,2	2914,3
501,6	2872,1
502,1	2870,3
502,5	2854,7
503	2875,9
503,4	2893,7
503,9	2856,9
504,3	2843,9
504,8	2835,5
505,2	2848,7
505,7	2838,5
506,1	2815,7
506,6	2810,5
507	2796,3
507,5	2801,3
507,9	2813,7
508,4	2730,1
508,8	2763,7
509,3	2764,3
509,7	2724,3
510,2	2738,7
510,6	2689,1
511,1	2705,5
511,5	2714,1
512	2669,3
512,4	2675,7
512,9	2654,3
513,3	2640,5
513,8	2602,3
514,2	2608,3
514,7	2586,3
515,1	2593,3
515,6	2625,9
516	2562,7
516,5	2566,9
516,9	2556,5
517,4	2511,7
517,8	2530,9
518,3	2513,1
518,7	2508,7
519,2	2461,1
519,6	2464,9
520,1	2419,5
520,5	2457,3
521	2422,9
521,4	2388,3
521,9	2433,3
522,3	2387,1
522,8	2372,5
523,2	2364,7
523,7	2318,7
524,1	2355,1
524,6	2329,3
525	2310,9
525,5	2289,7
525,9	2300,5
526,4	2291,5
526,8	2257,9
527,3	2295,7
527,7	2250,7
528,2	2251,5
528,6	2205,3
529,1	2230,5
529,5	2195,5
530	2201,1
530,4	2174,1
530,9	2158,5
531,3	2135,9
531,8	2167,3
532,2	2121,9
532,6	2119,9
533,1	2100,9
533,5	2101,9
534	2089,9
534,4	2084,1
534,9	2095,3
535,3	2049,3
535,8	2045,3
536,2	2039,5
536,7	2049,1
537,1	2022,7
537,6	1997,1
538	2025,1
538,5	2005,1
538,9	1982,7
539,4	2007,9
539,8	1973,7
540,3	1974,3
540,7	1963,3
541,2	1981,1
541,6	1911,5
542,1	1928,7
542,5	1935,3
543	1932,7
543,4	1932,7
543,9	1891,9
544,3	1890,9
544,8	1902,5
545,2	1895,9
545,7	1880,9
546,1	1896,1
546,5	1889,1
547	1877,7
547,4	1850,9
547,9	1842,3
548,3	1842,1
548,8	1816,9
549,2	1825,7
549,7	1793,1
550,1	1798,1
550,6	1791,1
551	1802,1
551,5	1782,1
551,9	1783,9
552,4	1804,5
552,8	1763,3
553,3	1767,5
553,7	1762,7
554,2	1774,5
554,6	1735,1
555,1	1737,9
555,5	1745,1
555,9	1745,7
556,4	1740,9
556,8	1757,1
557,3	1723,7
557,7	1702,7
558,2	1714,3
558,6	1716,7
559,1	1717,3
559,5	1703,7
560	1692,7
560,4	1711,3
560,9	1691,9
561,3	1659,5
561,8	1674,5
562,2	1670,1
562,7	1673,9
563,1	1661,7
563,6	1676,7
564	1659,9
564,4	1673,1
564,9	1669,9
565,3	1646,5
565,8	1645,3
566,2	1667,7
566,7	1624,3
567,1	1614,1
567,6	1586,1
568	1629,7
568,5	1645,9
568,9	1625,7
569,4	1603,5
569,8	1597,1
570,3	1586,5
570,7	1574,9
571,1	1584,5
571,6	1565,3
572	1600,9
572,5	1563,9
572,9	1563,5
573,4	1579,9
573,8	1579,5
574,3	1568,1
574,7	1538,1
575,2	1558,1
575,6	1548,5
576,1	1553,7
576,5	1553,1
576,9	1527,3
577,4	1550,7
577,8	1508,7
578,3	1521,1
578,7	1520,3
579,2	1542,1
579,6	1520,5
580,1	1494,3
580,5	1482,7
581	1505,9
581,4	1495,3
581,9	1481,9
582,3	1495,5
582,7	1505,9
583,2	1459,1
583,6	1477,5
584,1	1464,9
584,5	1454,3
585	1440,1
585,4	1461,1
585,9	1423,1
586,3	1464,7
586,8	1431,7
587,2	1428,3
587,6	1439,7
588,1	1416,5
588,5	1401,5
589	1421,5
589,4	1422,5
589,9	1383,5
590,3	1416,7
590,8	1424,1
591,2	1396,9
591,7	1393,9
592,1	1400,3
592,5	1392,7
593	1394,9
593,4	1389,7
593,9	1361,5
594,3	1400,9
594,8	1359,5
595,2	1373,1
595,7	1376,3
596,1	1348,7
596,6	1354,3
597	1346,7
597,4	1341,9
597,9	1343,3
598,3	1349,1
598,8	1349,7
599,2	1338,9
599,7	1327,1
600,1	1330,7
600,6	1309,1
601	1325,3
601,4	1299,9
601,9	1299,7
602,3	1306,5
602,8	1319,9
603,2	1295,1
603,7	1292,1
604,1	1294,5
604,6	1296,5
605	1296,1
605,4	1300,9
605,9	1248,5
606,3	1258,1
606,8	1293,7
607,2	1270,7
607,7	1239,3
608,1	1251,5
608,6	1267,3
609	1251,7
609,4	1231,1
609,9	1221,5
610,3	1220,3
610,8	1235,3
611,2	1241,7
611,7	1213,3
612,1	1250,5
612,6	1215,5
613	1227,1
613,4	1244,7
613,9	1204,5
614,3	1201,5
614,8	1190,3
615,2	1186,7
615,7	1191,9
616,1	1181,7
616,6	1204,3
617	1174,3
617,4	1201,9
617,9	1179,3
618,3	1172,3
618,8	1155,3
619,2	1179,7
619,7	1173,7
620,1	1158,5
620,5	1147,9
621	1163,1
621,4	1154,3
621,9	1147,9
622,3	1148,3
622,8	1128,1
623,2	1148,3
623,6	1125,1
624,1	1141,3
624,5	1099,7
625	1106,7
625,4	1110,7
625,9	1105,5
626,3	1102,9
626,8	1086,7
627,2	1070,5
627,6	1078,1
628,1	1067,1
628,5	1073,9
629	1081,9
629,4	1090,7
629,9	1047,7
630,3	1056,3
630,7	1024,5
631,2	1004,1
631,6	1041,7
632,1	1034,1
632,5	1045,7
633	1018,3
633,4	1021,5
633,8	1014,3
634,3	1035,7
634,7	1023,7
635,2	1008,7
635,6	989,7
636,1	996,3
636,5	989,1
636,9	949,3
637,4	989,1
637,8	992,1
638,3	979,5
638,7	954,3
639,2	967,3
639,6	997,1
640	965,9
640,5	978,3
640,9	987,3
641,4	967,5
641,8	940,5
642,2	960,1
642,7	938,7
643,1	926,3
643,6	932,5
644	953,5
644,5	911,9
644,9	917,7
645,3	939,9
645,8	889,9
646,2	893,7
646,7	916,7
647,1	922,7
647,6	898,3
648	871,9
648,4	912,3
648,9	887,1
649,3	854,7
649,8	885,5
650,2	895,3
650,6	889,7
651,1	878,9
651,5	895,9
652	857,9
652,4	873,9
652,9	879,1
653,3	876,3
653,7	833,3
654,2	866,1
654,6	870,3
655,1	837,1
655,5	860,1
655,9	831,7
656,4	841,3
656,8	826,7
657,3	830,5
657,7	853,1
658,2	828,5
658,6	830,5
659	824,7
659,5	819,7
659,9	822,1
660,4	818,1
660,8	819,5
661,2	830,7
661,7	790,5
662,1	798,7
662,6	791,7
663	801,9
663,4	761,1
663,9	792,1
664,3	766,9
664,8	775,3
665,2	762,1
665,6	760,9
666,1	757,9
666,5	753,9
667	755,3
667,4	768,1
667,9	726,1
668,3	749,3
668,7	745,1
669,2	756,1
669,6	748,5
670,1	747,1
670,5	721,7
670,9	722,9
671,4	746,9
671,8	714,9
672,3	733,1
672,7	711,3
673,1	717,1
673,6	691,1
674	682,7
674,5	702,9
674,9	681,7
675,3	709,1
675,8	688,3
676,2	682,9
676,7	661,5
677,1	676,7
677,5	677,5
678	668,3
678,4	687,3
678,9	649,9
679,3	641,9
679,7	661,5
680,2	650,7
680,6	664,7
681,1	642,5
681,5	652,3
681,9	649,3
682,4	640,3
682,8	633,1
683,3	630,3
683,7	639,7
684,1	662,3
684,6	638,1
685	612,9
685,5	608,1
685,9	634,7
686,3	620,9
686,8	649,3
687,2	618,5
687,7	614,9
688,1	627,5
688,5	622,3
689	579,9
689,4	601,1
689,9	611,1
690,3	610,5
690,7	591,9
691,2	598,5
691,6	582,3
692	571,7
692,5	584,7
692,9	597,1
693,4	567,9
693,8	584,9
694,2	579,3
694,7	580,5
695,1	582,1
695,6	553,1
696	579,3
696,4	553,9
696,9	556,1
697,3	526,3
697,8	532,1
698,2	530,3
698,6	541,9
699,1	549,3
699,5	557,1
699,9	526,1
700,4	553,3
700,8	534,3
701,3	560,7
701,7	534,5
702,1	531,3
702,6	525,1
703	498,5
703,5	524,5
703,9	502,5
704,3	530,5
704,8	496,9
705,2	519,9
705,6	521,3
706,1	513,5
706,5	497,7
707	508,9
707,4	520,1
707,8	500,9
708,3	476,7
708,7	484,3
709,2	484,3
709,6	493,9
710	498,5
710,5	466,7
710,9	501,7
711,3	478,9
711,8	509,9
712,2	464,5
712,7	490,9
713,1	472,9
713,5	487,1
714	480,7
714,4	462,9
714,8	479,3
715,3	471,3
715,7	487,5
716,2	464,5
716,6	456,9
717	477,7
717,5	422,3
717,9	440,3
718,3	424,5
718,8	467,5
719,2	472,7
719,7	433,7
720,1	453,3
720,5	466,7
721	446,5
721,4	436,1
721,8	420,7
722,3	405,9
722,7	414,7
723,2	412,5
723,6	440,5
724	423,9
724,5	392,9
724,9	416,5
725,3	390,3
725,8	402,5
726,2	391,3
726,7	391,3
727,1	400,3
727,5	388,1
728	388,1
728,4	396,5
728,8	373,9
729,3	392,3
729,7	383,1
730,1	361,7
730,6	381,7
731	373,1
731,5	392,1
731,9	363,9
732,3	402,5
732,8	366,1
733,2	368,9
733,6	373,1
734,1	362,9
734,5	381,1
734,9	382,3
735,4	370,3
735,8	394,1
736,3	379,9
736,7	359,7
737,1	354,7
737,6	343,7
738	358,1
738,4	351,7
738,9	366,1
739,3	351,3
739,7	367,1
740,2	342,9
740,6	355,3
741,1	363,9
741,5	347,7
741,9	337,1
742,4	336,1
742,8	363,7
743,2	333,9
743,7	335,1
744,1	345,3
744,5	343,1
745	346,1
745,4	344,7
745,8	326,3
746,3	321,5
746,7	336,3
747,2	316,9
747,6	317,1
748	328,3
748,5	324,1
748,9	340,7
749,3	315,5
749,8	331,1
750,2	313,5
750,6	323,1
751,1	332,3
751,5	329,9
751,9	321,3
752,4	299,1
752,8	305,7
753,3	321,3
753,7	295,7
754,1	312,9
754,6	313,5
755	296,7
755,4	304,1
755,9	311,7
756,3	284,7
756,7	306,9
757,2	294,9
757,6	268,3
758	297,1
758,5	272,1
758,9	273,9
759,3	274,9
759,8	283,3
760,2	286,1
760,6	267,1
761,1	271,5
761,5	289,7
761,9	270,5
762,4	270,7
762,8	274,9
763,3	269,5
763,7	255,5
764,1	293,7
764,6	273,1
765	258,1
765,4	255,9
765,9	250,1
766,3	251,7
766,7	245,1
767,2	286,1
767,6	262,5
768	263,1
768,5	265,9
768,9	265,1
769,3	266,1
769,8	258,1
770,2	273,7
770,6	250,5
771,1	266,1
771,5	259,1
771,9	244,7
772,4	265,7
772,8	250,5
773,2	253,1
773,7	263,9
774,1	270,3
774,5	247,1
775	233,1
775,4	236,9
775,8	259,1
776,3	255,3
776,7	254,3
777,1	243,1
777,6	245,3
778	243,1
778,4	243,9
778,9	231,3
779,3	231,3
779,7	213,9
780,2	241,9
780,6	215,3
781	240,3
781,5	226,9
781,9	257,5
782,3	236,1
782,8	274,5
783,2	233,5
783,6	213,3
784,1	253,7
784,5	228,9
784,9	237,9
785,4	226,1
785,8	218,1
786,2	209,9
786,7	224,9
787,1	235,3
787,5	204,7
788	226,9
788,4	224,5
788,8	213,9
789,3	217,7
789,7	228,3
790,1	215,9
790,6	204,9
791	206,9
791,4	201,9
791,9	201,5
792,3	206,9
792,7	205,3
793,2	230,7
793,6	180,1
794	193,9
794,5	219,9
794,9	197,7
795,3	201,7
795,8	182,5
796,2	199,9
796,6	202,5
797,1	196,3
797,5	199,3
797,9	183,3
798,4	220,9
798,8	189,5
799,2	181,5
799,7	200,5
800,1	184,5
800,5	215,5
801	191,3
801,4	180,7
801,8	202,9
802,2	165,1
802,7	186,5
803,1	188,3
803,5	185,5
804	194,9
804,4	166,5
804,8	181,9
805,3	190,9
805,7	191,3
806,1	198,1
806,6	192,7
807	189,1
807,4	179,5
807,9	186,3
808,3	187,3
808,7	155,5
809,2	161,1
809,6	181,1
810	178,7
810,4	190,9
810,9	169,9
811,3	215,9
811,7	191,7
812,2	163,3
812,6	182,5
813	181,5
813,5	170,1
813,9	167,3
814,3	169,7
814,8	179,1
815,2	167,1
815,6	142,9
816,1	160,1
816,5	180,1
816,9	156,9
817,3	182,1
817,8	147,1
818,2	156,9
818,6	161,5
819,1	187,5
819,5	161,9
819,9	159,1
820,4	161,1
820,8	158,7
821,2	147,1
821,7	153,3
822,1	151,1
822,5	157,9
822,9	155,9
823,4	157,9
823,8	136,5
824,2	137,1
824,7	154,1
825,1	162,9
825,5	142,7
826	152,1
826,4	139,3
826,8	161,1
827,3	139,9
827,7	145,1
828,1	152,1
828,5	145,7
829	133,7
829,4	130,5
829,8	156,9
830,3	135,7
830,7	160,3
831,1	136,5
831,6	141,9
832	133,7
832,4	152,7
832,8	134,9
833,3	154,3
833,7	135,1
834,1	130,1
834,6	135,1
835	146,1
835,4	134,7
835,8	145,3
836,3	149,3
836,7	146,9
837,1	143,1
837,6	108,9
838	158,3
838,4	121,1
838,9	137,5
839,3	128,3
839,7	141,9
840,1	133,9
840,6	122,3
841	133,7
841,4	163,3
841,9	105,3
842,3	151,9
842,7	143,7
843,1	139,5
843,6	120,3
844	134,7
844,4	130,1
844,9	132,3
845,3	120,3
845,7	148,3
846,2	114,5
846,6	136,7
847	136,3
847,4	136,1
847,9	126,9
848,3	120,7
848,7	126,7
849,2	131,5
849,6	139,5
850	126,9
850,4	131,9
850,9	118,1
851,3	150,7
851,7	121,9
852,2	131,7
852,6	116,7
853	128,1
853,4	134,3
853,9	108,3
854,3	133,1
854,7	125,1
855,2	119,7
855,6	113,3
856	121,7
856,4	122,5
856,9	103,7
857,3	122,3
857,7	117,3
858,2	122,5
858,6	124,3
859	128,9
859,4	110,9
859,9	110,3
860,3	114,5
860,7	105,3
861,1	112,3
861,6	112,3
862	127,9
862,4	119,1
862,9	110,3
863,3	114,3
863,7	105,3
864,1	117,1
864,6	116,5
865	125,9
865,4	94,9
865,9	111,9
866,3	86,1
866,7	109,3
867,1	106,1
867,6	112,7
868	111,5
868,4	108,9
868,8	104,9
869,3	126,1
869,7	118,7
870,1	104,9
870,6	129,5
871	113,9
871,4	104,7
871,8	107,7
872,3	177,3
872,7	122,3
873,1	131,1
873,5	96,5
874	89,1
874,4	119,3
874,8	114,7
875,3	106,5
875,7	121,9
876,1	109,3
876,5	114,1
877	105,5
877,4	117,5
877,8	112,9
878,2	106,3
878,7	85,7
879,1	94,5
879,5	124,3
879,9	89,9
880,4	95,1
880,8	105,3
881,2	102,3
881,7	110,3
882,1	113,1
882,5	134,1
882,9	103,9
883,4	121,7
883,8	90,3
884,2	88,7
884,6	113,9
885,1	121,7
885,5	98,3
885,9	82,9
886,3	109,3
886,8	105,1
887,2	99,9
887,6	83,5
888	102,1
888,5	91,7
888,9	119,9
889,3	91,9
889,8	131,3
890,2	102,9
890,6	74,1
891	96,7
891,5	76,3
891,9	92,9
892,3	83,7
892,7	100,9
893,2	93,3
893,6	108,5
894	85,7
894,4	84,1
894,9	100,9
895,3	98,3
895,7	84,7
896,1	75,9
896,6	104,9
897	73,7
897,4	106,9
897,8	84,1
898,3	106,5
898,7	99,7
899,1	101,3
899,5	89,5
900	125,7
900,4	82,5
900,8	101,1
901,2	94,3
901,7	116,5
902,1	101,7
902,5	110,7
902,9	105,9
903,4	71,1
903,8	83,9
904,2	91,9
904,6	95,1
905,1	73,1
905,5	89,5
905,9	93,5
906,3	87,9
906,8	86,3
907,2	100,5
907,6	78,5
908	104,9
908,5	73,1
908,9	86,1
909,3	95,5
909,7	61,7
910,2	106,9
910,6	103,5
911	96,9
911,4	116,7
911,9	84,3
912,3	93,5
912,7	102,7
913,1	78,9
913,6	78,1
914	101,5
914,4	102,3
914,8	95,3
915,3	92,3
915,7	79,5
916,1	89,3
916,5	77,9
916,9	102,1
917,4	100,3
917,8	119,1
918,2	91,7
918,6	92,1
919,1	94,7
919,5	94,5
919,9	80,3
920,3	110,5
920,8	86,7
921,2	79,7
921,6	95,1
922	93,9
922,5	102,5
922,9	109,9
923,3	85,9
923,7	99,3
924,2	79,5
924,6	88,1
925	90,5
925,4	88,3
925,8	74,1
926,3	86,5
926,7	92,7
927,1	115,1
927,5	88,1
928	86,3
928,4	94,7
928,8	65,5
929,2	93,1
929,7	98,1
930,1	87,9
930,5	89,5
930,9	88,1
931,3	59,5
931,8	101,5
932,2	94,5
932,6	98,3
933	79,5
933,5	75,3
933,9	89,5
934,3	77,5
934,7	90,1
935,2	108,7
935,6	88,5
936	80,7
936,4	91,3
936,8	107,1
937,3	99,5
937,7	92,3
938,1	94,1
938,5	106,5
939	90,5
939,4	80,1
939,8	90,7
940,2	78,7
940,6	64,7
941,1	87,3
941,5	108,5
941,9	89,9
942,3	84,3
942,8	87,9
943,2	113,3
943,6	102,1
944	95,1
944,4	105,7
944,9	115,9
945,3	74,7
945,7	79,5
946,1	115,7
946,6	68,7
947	94,1
947,4	85,3
947,8	83,3
948,2	88,5
948,7	104,3
949,1	87,3
949,5	78,3
949,9	65,7
950,3	81,1
950,8	89,5
951,2	112,5
951,6	90,9
952	84,7
952,5	96,3
952,9	71,5
953,3	73,9
953,7	90,5
954,1	88,7
954,6	76,3
955	61,9
955,4	92,3
955,8	86,7
956,2	95,1
956,7	80,7
957,1	98,3
957,5	89,5
957,9	66,9
958,3	105,5
958,8	81,5
959,2	86,5
959,6	90,5
960	96,3
960,5	95,3
960,9	80,3
961,3	100,5
961,7	91,1
962,1	93,3
962,6	80,9
963	76,9
963,4	102,1
963,8	67,5
964,2	90,5
964,7	65,9
965,1	92,5
965,5	67,5
965,9	84,5
966,3	86,5
966,8	84,7
967,2	70,1
967,6	60,9
968	83,7
968,4	66,7
968,9	87,1
969,3	87,3
969,7	84,1
970,1	94,3
970,5	93,1
971	78,9
971,4	76,5
971,8	82,7
972,2	68,5
972,6	70,1
973,1	82,7
973,5	80,3
973,9	96,1
974,3	65,9
974,7	85,5
975,2	85,5
975,6	100,3
976	78,3
976,4	91,5
976,8	74,1
977,3	73,1
977,7	93,5
978,1	84,1
978,5	92,3
978,9	95,9
979,4	79,3
979,8	78,7
980,2	66,3
980,6	87,1
981	67,3
981,5	94,1
981,9	72,7
982,3	117,3
982,7	100,7
983,1	75,7
983,6	73,1
984	70,9
984,4	83,5
984,8	104,1
985,2	96,5
985,6	95,9
986,1	89,5
986,5	97,9
986,9	58,9
987,3	79,9
987,7	70,1
988,2	86,3
988,6	64,7
989	90,1
989,4	76,9
989,8	82,3
990,3	107,9
990,7	97,3
991,1	50,3
991,5	76,7
991,9	76,9
992,3	81,1
992,8	70,7
993,2	89,5
993,6	93,7
994	105,9
994,4	67,1
994,9	86,3
995,3	80,7
995,7	87,9
996,1	107,9
996,5	84,7
996,9	91,7
997,4	76,1
997,8	98,3
998,2	118,1
998,6	90,5
999	82,9
999,5	59,7
999,9	90,1
1000,3	111,5
1000,7	88,3
1001,1	64,1
1001,5	82,9
1002	88,3
1002,4	84,1
1002,8	78,1
1003,2	85,1
1003,6	72,7
1004	73,3
1004,5	65,1
1004,9	97,1
1005,3	77,7
1005,7	98,5
1006,1	89,7
1006,6	86,1
1007	98,3
1007,4	62,9
1007,8	90,5
1008,2	84,7
1008,6	60,7
1009,1	71,1
1009,5	85,1
1009,9	81,9
1010,3	80,3
1010,7	108,7
1011,1	70,7
1011,6	91,9
1012	89,7
1012,4	69,1
1012,8	94,9
1013,2	88,1
1013,6	82,3
1014,1	81,3
1014,5	106,1
1014,9	82,5
1015,3	72,5
1015,7	77,7
1016,1	84,1
1016,6	75,3
1017	92,1
1017,4	77,3
1017,8	88,3
1018,2	100,3
1018,6	100,7
1019,1	76,9
1019,5	100,9
1019,9	109,5
1020,3	72,9
1020,7	91,5
1021,1	97,7
1021,6	101,3
1022	89,7
1022,4	83,5
1022,8	70,5
1023,2	125,5
1023,6	86,9
1024,1	93,7
1024,5	61,1
1024,9	73,3
1025,3	84,7
1025,7	98,3
1026,1	87,9
1026,6	80,7
1027	96,9
1027,4	80,3
1027,8	106,3
1028,2	81,9
1028,6	103,1
1029	80,9
1029,5	96,5
1029,9	93,7
1030,3	82,5
1030,7	73,3
1031,1	84,1
1031,5	101,1
1032	110,5
1032,4	97,5
1032,8	97,3
1033,2	89,1
1033,6	83,9
1034	107,5
1034,4	108,5
1034,9	93,9
1035,3	98,7
1035,7	98,5
1036,1	67,1
1036,5	115,5
1036,9	101,3
1037,4	97,5
1037,8	87,9
1038,2	109,1
1038,6	92,5
1039	96,7
1039,4	87,1
1039,8	99,3
1040,3	106,9
1040,7	89,9
1041,1	118,7
1041,5	107,1
1041,9	116,7
1042,3	102,7
1042,7	98,7
1043,2	91,9
1043,6	101,7
1044	74,7
1044,4	94,7
1044,8	107,9
1045,2	105,3
1045,6	102,9
1046,1	93,3
1046,5	100,7
1046,9	104,9
1047,3	126,9
1047,7	102,5
1048,1	82,5
1048,5	95,9
1049	105,9
1049,4	113,3
1049,8	77,9
1050,2	108,5
1050,6	86,1
1051	93,3
1051,4	78,7
1051,9	108,1
1052,3	105,1
1052,7	130,7
1053,1	121,1
1053,5	115,1
1053,9	136,5
1054,3	84,1
1054,8	85,1
1055,2	105,1
1055,6	104,9
1056	96,9
1056,4	89,5
1056,8	93,3
1057,2	111,3
1057,6	104,1
1058,1	105,1
1058,5	108,9
1058,9	114,7
1059,3	108,7
1059,7	85,3
1060,1	94,3
1060,5	109,9
1061	97,7
1061,4	96,5
1061,8	117,5
1062,2	96,7
1062,6	102,3
1063	83,5
1063,4	129,9
1063,8	98,1
1064,3	82,9
1064,7	97,7
1065,1	74,7
1065,5	91,7
1065,9	106,3
1066,3	85,5
1066,7	91,7
1067,1	93,1
1067,6	89,9
1068	86,9
1068,4	119,3
1068,8	102,3
1069,2	95,5
1069,6	80,1
1070	79,9
1070,4	94,7
1070,9	82,9
1071,3	105,7
1071,7	98,1
1072,1	102,3
1072,5	84,7
1072,9	106,9
1073,3	99,1
1073,7	63,3
1074,2	91,3
1074,6	78,5
1075	98,7
1075,4	89,9
1075,8	77,9
1076,2	79,7
1076,6	79,9
1077	85,5
1077,5	87,1
1077,9	86,7
1078,3	77,1
1078,7	90,5
1079,1	80,3
1079,5	83,7
1079,9	94,7
1080,3	103,3
1080,7	87,5
1081,2	93,3
1081,6	78,9
1082	87,7
1082,4	76,7
1082,8	91,5
1083,2	91,1
1083,6	92,9
1084	102,7
1084,5	98,1
1084,9	78,5
1085,3	81,1
1085,7	76,5
1086,1	92,5
1086,5	104,1
1086,9	91,5
1087,3	73,7
1087,7	111,5
1088,2	83,1
1088,6	69,5
1089	49,1
1089,4	58,1
1089,8	105,3
1090,2	85,3
1090,6	60,3
1091	87,7
1091,4	81,5
1091,9	81,5
1092,3	99,3
1092,7	73,9
1093,1	75,9
1093,5	72,9
1093,9	77,5
1094,3	86,7
1094,7	74,7
1095,1	72,5
1095,5	74,9
1096	100,1
1096,4	107,1
1096,8	89,5
1097,2	81,1
1097,6	57,3
1098	64,1
1098,4	74,5
1098,8	63,9
1099,2	54,5
1099,6	66,3
1100,1	67,3
1100,5	76,5
1100,9	56,7
1101,3	63,7
1101,7	59,9
1102,1	73,9
1102,5	53,3
1102,9	55,7
1103,3	52,7
1103,7	38,9
1104,2	68,1
1104,6	60,7
1105	58,3
1105,4	53,9
1105,8	44,9
1106,2	56,1
1106,6	38,1
1107	-0,5
1107,4	-1,5
1107,8	1,9
1108,3	0,1
