Data from Subt2_00007.txt Node
Date: Fri Jul 14 14:10:10 MSK 2023
User: vat
Spectrometer: MAYP114033
Trigger mode: 0
Integration Time (sec): 5,000000E-1
Scans to average: 5
Electric dark correction enabled: true
Nonlinearity correction enabled: false
Boxcar width: 0
XAxis mode: Wavelengths
Number of Pixels in Spectrum: 2068
>>>>>Begin Spectral Data<<<<<
199,4	7,533
199,9	-3,667
200,4	0,733
200,8	-1,467
201,3	65,933
201,8	57,933
202,2	80,733
202,7	71,333
203,2	54,933
203,6	57,333
204,1	39,733
204,6	57,333
205	72,533
205,5	92,733
206	65,533
206,4	72,533
206,9	63,733
207,4	76,533
207,8	80,333
208,3	80,933
208,8	73,333
209,2	73,133
209,7	67,733
210,2	75,733
210,6	81,133
211,1	77,933
211,5	91,733
212	84,133
212,5	90,333
212,9	76,733
213,4	96,933
213,9	89,733
214,3	68,333
214,8	107,533
215,3	89,133
215,7	96,133
216,2	77,733
216,7	130,333
217,1	78,333
217,6	109,733
218,1	92,733
218,5	113,533
219	96,533
219,5	112,933
219,9	102,733
220,4	119,933
220,9	100,933
221,3	117,733
221,8	82,333
222,3	113,133
222,7	112,333
223,2	99,533
223,6	71,133
224,1	73,533
224,6	89,533
225	90,333
225,5	97,933
226	113,133
226,4	107,933
226,9	89,933
227,4	75,933
227,8	101,533
228,3	100,333
228,8	97,533
229,2	111,133
229,7	96,933
230,2	95,733
230,6	115,933
231,1	102,133
231,5	94,133
232	111,333
232,5	104,133
232,9	98,133
233,4	80,133
233,9	127,733
234,3	94,733
234,8	112,933
235,3	104,133
235,7	83,533
236,2	88,733
236,7	115,133
237,1	100,533
237,6	90,733
238,1	99,933
238,5	96,933
239	85,133
239,4	119,933
239,9	96,933
240,4	108,333
240,8	103,733
241,3	83,933
241,8	78,933
242,2	95,933
242,7	116,133
243,2	106,533
243,6	94,933
244,1	106,133
244,6	113,133
245	109,333
245,5	113,533
245,9	100,133
246,4	105,333
246,9	95,933
247,3	90,533
247,8	111,133
248,3	121,133
248,7	103,533
249,2	90,333
249,7	95,533
250,1	96,333
250,6	109,733
251	97,533
251,5	97,133
252	96,733
252,4	122,533
252,9	107,533
253,4	95,333
253,8	83,933
254,3	101,133
254,8	91,733
255,2	117,133
255,7	99,933
256,1	103,333
256,6	113,333
257,1	77,133
257,5	90,133
258	121,533
258,5	111,533
258,9	87,533
259,4	79,333
259,9	70,133
260,3	105,333
260,8	99,733
261,2	105,533
261,7	76,533
262,2	113,133
262,6	90,933
263,1	120,733
263,6	105,933
264	106,333
264,5	107,733
264,9	99,533
265,4	125,533
265,9	96,333
266,3	105,933
266,8	89,133
267,3	117,733
267,7	79,933
268,2	90,933
268,7	111,333
269,1	100,933
269,6	104,333
270	82,733
270,5	117,333
271	93,533
271,4	123,333
271,9	108,933
272,4	83,133
272,8	103,133
273,3	103,133
273,7	83,533
274,2	122,933
274,7	106,533
275,1	104,533
275,6	120,333
276,1	101,933
276,5	103,133
277	126,333
277,4	92,733
277,9	102,933
278,4	114,133
278,8	99,933
279,3	101,133
279,8	91,533
280,2	100,333
280,7	96,333
281,1	84,533
281,6	91,133
282,1	84,533
282,5	92,933
283	103,533
283,4	101,133
283,9	84,933
284,4	110,533
284,8	88,533
285,3	116,533
285,8	100,133
286,2	102,933
286,7	93,733
287,1	87,733
287,6	98,133
288,1	108,333
288,5	80,733
289	110,733
289,5	92,533
289,9	92,733
290,4	103,333
290,8	95,333
291,3	96,933
291,8	101,133
292,2	91,933
292,7	89,733
293,1	91,733
293,6	88,333
294,1	121,733
294,5	109,333
295	115,133
295,5	121,133
295,9	82,533
296,4	93,133
296,8	92,933
297,3	101,933
297,8	95,133
298,2	87,333
298,7	111,133
299,1	128,533
299,6	123,533
300,1	87,733
300,5	64,333
301	112,333
301,5	97,533
301,9	92,333
302,4	123,133
302,8	102,333
303,3	120,133
303,8	99,533
304,2	99,733
304,7	127,533
305,1	112,333
305,6	104,333
306,1	80,333
306,5	94,933
307	79,333
307,4	120,133
307,9	96,133
308,4	97,933
308,8	93,533
309,3	98,333
309,8	79,533
310,2	109,533
310,7	105,933
311,1	107,133
311,6	91,733
312,1	104,333
312,5	84,733
313	114,533
313,4	79,733
313,9	70,733
314,4	95,733
314,8	110,933
315,3	92,733
315,7	92,133
316,2	102,333
316,7	101,733
317,1	119,333
317,6	92,133
318	99,533
318,5	91,533
319	91,133
319,4	107,933
319,9	110,533
320,3	104,533
320,8	108,933
321,3	90,533
321,7	103,733
322,2	111,533
322,6	89,533
323,1	102,133
323,6	81,533
324	116,533
324,5	92,533
324,9	88,533
325,4	96,533
325,9	108,733
326,3	99,333
326,8	94,133
327,2	94,733
327,7	110,533
328,2	110,933
328,6	107,133
329,1	115,133
329,5	98,533
330	95,933
330,5	90,133
330,9	111,933
331,4	104,533
331,8	97,533
332,3	95,733
332,8	118,733
333,2	98,733
333,7	99,933
334,1	90,133
334,6	72,733
335,1	105,533
335,5	93,333
336	90,133
336,4	103,733
336,9	95,333
337,4	83,533
337,8	97,733
338,3	100,333
338,7	98,133
339,2	80,533
339,7	93,733
340,1	86,533
340,6	94,333
341	122,733
341,5	103,133
342	110,733
342,4	81,933
342,9	108,333
343,3	105,933
343,8	92,533
344,2	120,333
344,7	104,733
345,2	95,333
345,6	94,933
346,1	91,933
346,5	98,133
347	93,133
347,5	97,133
347,9	124,933
348,4	103,133
348,8	85,133
349,3	114,733
349,8	107,733
350,2	94,733
350,7	81,333
351,1	96,333
351,6	102,133
352	104,933
352,5	117,533
353	113,733
353,4	111,733
353,9	120,733
354,3	138,933
354,8	117,733
355,3	137,333
355,7	129,933
356,2	139,533
356,6	161,733
357,1	183,933
357,5	182,933
358	216,533
358,5	214,333
358,9	233,333
359,4	278,133
359,8	296,933
360,3	334,933
360,8	380,733
361,2	399,933
361,7	411,533
362,1	487,733
362,6	536,733
363	594,533
363,5	663,533
364	716,133
364,4	779,133
364,9	845,533
365,3	908,133
365,8	972,133
366,3	1036,933
366,7	1082,733
367,2	1127,533
367,6	1167,933
368,1	1212,733
368,5	1218,133
369	1238,333
369,5	1247,733
369,9	1239,133
370,4	1233,533
370,8	1194,533
371,3	1185,533
371,7	1124,533
372,2	1087,333
372,7	1048,733
373,1	1010,733
373,6	925,733
374	894,133
374,5	844,333
374,9	779,133
375,4	718,133
375,9	679,733
376,3	635,533
376,8	610,933
377,2	538,133
377,7	511,533
378,2	474,333
378,6	453,333
379,1	408,533
379,5	376,733
380	355,133
380,4	369,733
380,9	302,733
381,4	301,333
381,8	311,333
382,3	265,733
382,7	281,533
383,2	247,733
383,6	255,333
384,1	227,933
384,6	217,733
385	208,133
385,5	225,133
385,9	216,333
386,4	185,733
386,8	180,333
387,3	190,533
387,7	183,533
388,2	183,333
388,7	161,933
389,1	143,333
389,6	155,333
390	173,533
390,5	160,333
390,9	161,533
391,4	161,133
391,9	134,333
392,3	141,933
392,8	144,933
393,2	113,133
393,7	103,333
394,1	152,333
394,6	133,133
395,1	134,533
395,5	144,133
396	114,933
396,4	139,133
396,9	126,733
397,3	119,733
397,8	112,333
398,2	125,933
398,7	124,133
399,2	119,133
399,6	108,333
400,1	124,733
400,5	113,333
401	128,733
401,4	124,333
401,9	130,733
402,4	139,333
402,8	106,133
403,3	139,733
403,7	131,733
404,2	105,133
404,6	115,933
405,1	126,533
405,5	130,733
406	117,933
406,5	110,533
406,9	120,333
407,4	133,133
407,8	92,933
408,3	133,533
408,7	117,533
409,2	119,733
409,6	118,733
410,1	124,333
410,6	114,333
411	116,733
411,5	116,733
411,9	146,333
412,4	145,733
412,8	110,733
413,3	130,933
413,7	163,333
414,2	139,733
414,7	127,733
415,1	141,933
415,6	138,133
416	138,533
416,5	139,133
416,9	143,133
417,4	168,333
417,8	139,533
418,3	169,533
418,8	153,933
419,2	139,133
419,7	162,533
420,1	164,333
420,6	149,733
421	190,133
421,5	171,733
421,9	173,133
422,4	164,533
422,8	174,733
423,3	182,733
423,8	165,333
424,2	180,333
424,7	184,933
425,1	189,533
425,6	182,933
426	177,933
426,5	176,933
426,9	189,333
427,4	189,333
427,9	193,933
428,3	183,933
428,8	197,733
429,2	208,733
429,7	205,733
430,1	239,333
430,6	211,933
431	217,333
431,5	255,333
431,9	254,133
432,4	242,133
432,8	246,333
433,3	251,533
433,8	255,333
434,2	261,733
434,7	267,133
435,1	267,933
435,6	276,933
436	283,133
436,5	295,533
436,9	310,533
437,4	322,133
437,8	325,733
438,3	324,533
438,8	312,533
439,2	329,733
439,7	371,733
440,1	383,933
440,6	369,533
441	383,733
441,5	403,733
441,9	417,933
442,4	422,333
442,8	437,133
443,3	467,733
443,7	456,133
444,2	532,333
444,7	506,333
445,1	518,333
445,6	546,533
446	531,533
446,5	565,333
446,9	598,333
447,4	609,333
447,8	628,733
448,3	645,133
448,7	671,333
449,2	678,533
449,6	714,133
450,1	743,933
450,6	754,133
451	776,733
451,5	812,933
451,9	823,133
452,4	867,733
452,8	870,333
453,3	874,333
453,7	925,333
454,2	909,133
454,6	963,733
455,1	976,933
455,5	1039,333
456	1044,733
456,4	1072,333
456,9	1096,533
457,3	1136,533
457,8	1142,933
458,3	1180,133
458,7	1225,333
459,2	1241,933
459,6	1275,533
460,1	1328,133
460,5	1335,133
461	1368,333
461,4	1403,933
461,9	1429,733
462,3	1446,733
462,8	1486,333
463,2	1502,133
463,7	1557,133
464,1	1577,133
464,6	1603,933
465	1602,733
465,5	1677,133
466	1667,933
466,4	1717,933
466,9	1760,133
467,3	1797,733
467,8	1806,733
468,2	1842,733
468,7	1901,333
469,1	1919,733
469,6	1954,733
470	1971,533
470,5	2030,533
470,9	2026,133
471,4	2069,133
471,8	2114,133
472,3	2145,733
472,7	2180,533
473,2	2192,933
473,6	2203,333
474,1	2234,333
474,5	2277,133
475	2297,933
475,4	2344,533
475,9	2384,933
476,4	2347,933
476,8	2394,333
477,3	2454,533
477,7	2475,133
478,2	2493,133
478,6	2499,533
479,1	2539,733
479,5	2567,333
480	2533,333
480,4	2591,933
480,9	2622,133
481,3	2591,333
481,8	2669,133
482,2	2658,533
482,7	2674,933
483,1	2708,533
483,6	2724,733
484	2779,733
484,5	2767,133
484,9	2785,933
485,4	2805,733
485,8	2824,333
486,3	2826,933
486,7	2823,733
487,2	2836,533
487,6	2815,333
488,1	2872,533
488,5	2850,133
489	2858,333
489,4	2891,733
489,9	2874,333
490,4	2923,133
490,8	2912,933
491,3	2896,933
491,7	2931,733
492,2	2889,133
492,6	2914,933
493,1	2949,333
493,5	2928,533
494	2898,533
494,4	2907,733
494,9	2894,933
495,3	2957,133
495,8	2931,733
496,2	2935,733
496,7	2905,333
497,1	2880,133
497,6	2884,533
498	2960,733
498,5	2915,133
498,9	2917,133
499,4	2887,133
499,8	2856,933
500,3	2868,133
500,7	2894,933
501,2	2858,333
501,6	2916,333
502,1	2876,933
502,5	2858,933
503	2872,933
503,4	2859,933
503,9	2844,733
504,3	2870,533
504,8	2815,333
505,2	2819,733
505,7	2786,733
506,1	2824,933
506,6	2778,533
507	2786,333
507,5	2787,333
507,9	2782,733
508,4	2714,733
508,8	2726,133
509,3	2749,733
509,7	2747,333
510,2	2695,733
510,6	2729,333
511,1	2669,133
511,5	2679,533
512	2648,733
512,4	2649,933
512,9	2658,533
513,3	2599,933
513,8	2588,533
514,2	2614,733
514,7	2569,333
515,1	2576,133
515,6	2594,533
516	2563,733
516,5	2546,533
516,9	2540,333
517,4	2518,733
517,8	2497,733
518,3	2515,333
518,7	2472,333
519,2	2465,333
519,6	2435,333
520,1	2430,533
520,5	2444,333
521	2419,533
521,4	2411,533
521,9	2428,333
522,3	2355,733
522,8	2349,333
523,2	2389,133
523,7	2348,533
524,1	2307,133
524,6	2312,533
525	2327,733
525,5	2308,933
525,9	2306,133
526,4	2256,733
526,8	2245,733
527,3	2285,733
527,7	2253,333
528,2	2246,933
528,6	2220,933
529,1	2219,733
529,5	2213,733
530	2205,333
530,4	2171,533
530,9	2173,733
531,3	2141,133
531,8	2166,533
532,2	2164,133
532,6	2143,933
533,1	2111,533
533,5	2131,133
534	2083,533
534,4	2106,333
534,9	2107,933
535,3	2068,133
535,8	2058,533
536,2	2044,133
536,7	2050,933
537,1	2068,733
537,6	2057,733
538	2058,733
538,5	2007,333
538,9	2030,333
539,4	2030,933
539,8	2021,733
540,3	1993,933
540,7	2003,533
541,2	1981,133
541,6	1950,333
542,1	1990,933
542,5	1977,333
543	1964,333
543,4	1947,333
543,9	1938,733
544,3	1939,133
544,8	1926,333
545,2	1912,133
545,7	1919,533
546,1	1872,333
546,5	1895,333
547	1907,933
547,4	1855,933
547,9	1912,933
548,3	1879,733
548,8	1893,533
549,2	1869,133
549,7	1848,933
550,1	1838,533
550,6	1851,933
551	1825,133
551,5	1841,333
551,9	1798,333
552,4	1843,533
552,8	1844,133
553,3	1806,933
553,7	1843,933
554,2	1806,933
554,6	1787,133
555,1	1789,533
555,5	1797,533
555,9	1774,333
556,4	1752,733
556,8	1797,333
557,3	1783,733
557,7	1774,733
558,2	1768,733
558,6	1736,533
559,1	1791,133
559,5	1751,533
560	1732,933
560,4	1763,733
560,9	1760,533
561,3	1705,133
561,8	1706,133
562,2	1722,933
562,7	1699,133
563,1	1713,733
563,6	1740,333
564	1705,533
564,4	1721,333
564,9	1698,333
565,3	1708,933
565,8	1680,933
566,2	1669,933
566,7	1674,933
567,1	1666,333
567,6	1657,533
568	1690,733
568,5	1713,133
568,9	1648,133
569,4	1672,133
569,8	1659,933
570,3	1633,133
570,7	1646,133
571,1	1645,133
571,6	1632,733
572	1653,733
572,5	1628,733
572,9	1616,133
573,4	1622,533
573,8	1625,533
574,3	1630,933
574,7	1600,933
575,2	1599,933
575,6	1580,533
576,1	1603,933
576,5	1587,333
576,9	1586,333
577,4	1599,133
577,8	1592,733
578,3	1541,733
578,7	1569,933
579,2	1599,933
579,6	1566,533
580,1	1557,533
580,5	1527,933
581	1535,733
581,4	1551,733
581,9	1534,533
582,3	1549,133
582,7	1529,133
583,2	1535,933
583,6	1519,333
584,1	1538,333
584,5	1506,133
585	1502,533
585,4	1516,333
585,9	1491,333
586,3	1491,733
586,8	1484,533
587,2	1463,133
587,6	1508,133
588,1	1471,333
588,5	1437,933
589	1482,133
589,4	1482,133
589,9	1428,933
590,3	1460,533
590,8	1455,533
591,2	1464,933
591,7	1437,733
592,1	1469,333
592,5	1443,733
593	1391,133
593,4	1442,933
593,9	1443,733
594,3	1428,733
594,8	1390,533
595,2	1430,133
595,7	1427,333
596,1	1385,133
596,6	1394,733
597	1385,533
597,4	1380,333
597,9	1361,333
598,3	1382,333
598,8	1360,333
599,2	1396,133
599,7	1368,533
600,1	1364,733
600,6	1362,933
601	1366,333
601,4	1374,933
601,9	1370,133
602,3	1361,533
602,8	1372,533
603,2	1343,733
603,7	1308,733
604,1	1346,733
604,6	1342,933
605	1339,933
605,4	1352,733
605,9	1286,333
606,3	1301,133
606,8	1312,933
607,2	1292,733
607,7	1291,133
608,1	1307,933
608,6	1281,733
609	1289,333
609,4	1270,733
609,9	1251,533
610,3	1276,133
610,8	1273,533
611,2	1245,533
611,7	1263,733
612,1	1289,133
612,6	1226,133
613	1263,733
613,4	1254,733
613,9	1231,933
614,3	1237,533
614,8	1218,333
615,2	1226,533
615,7	1215,133
616,1	1185,733
616,6	1211,733
617	1200,933
617,4	1237,933
617,9	1190,333
618,3	1176,133
618,8	1176,733
619,2	1199,333
619,7	1199,733
620,1	1167,733
620,5	1163,533
621	1176,533
621,4	1163,733
621,9	1166,733
622,3	1120,133
622,8	1145,133
623,2	1178,933
623,6	1121,133
624,1	1147,933
624,5	1105,333
625	1127,333
625,4	1113,733
625,9	1125,933
626,3	1118,733
626,8	1095,533
627,2	1103,533
627,6	1082,333
628,1	1067,533
628,5	1091,533
629	1090,133
629,4	1078,333
629,9	1062,733
630,3	1068,133
630,7	1026,733
631,2	1031,333
631,6	1049,733
632,1	1048,533
632,5	1030,333
633	992,133
633,4	1022,933
633,8	1047,933
634,3	1034,533
634,7	1043,333
635,2	1007,733
635,6	999,533
636,1	1020,133
636,5	997,333
636,9	983,933
637,4	977,333
637,8	1009,133
638,3	986,933
638,7	948,933
639,2	981,933
639,6	977,533
640	961,933
640,5	973,533
640,9	979,733
641,4	961,933
641,8	919,533
642,2	967,933
642,7	925,533
643,1	897,333
643,6	952,533
644	969,933
644,5	917,933
644,9	934,533
645,3	943,733
645,8	886,933
646,2	894,733
646,7	911,933
647,1	895,333
647,6	903,533
648	870,733
648,4	912,733
648,9	884,533
649,3	847,933
649,8	887,333
650,2	884,533
650,6	864,533
651,1	863,733
651,5	864,933
652	881,333
652,4	862,533
652,9	853,133
653,3	880,933
653,7	817,133
654,2	856,933
654,6	834,533
655,1	814,533
655,5	854,333
655,9	843,133
656,4	830,533
656,8	804,133
657,3	817,333
657,7	810,333
658,2	831,133
658,6	803,733
659	810,133
659,5	818,333
659,9	772,733
660,4	815,533
660,8	805,333
661,2	805,533
661,7	789,933
662,1	798,333
662,6	781,333
663	796,733
663,4	759,133
663,9	779,733
664,3	730,533
664,8	752,533
665,2	747,133
665,6	726,733
666,1	736,533
666,5	753,733
667	734,933
667,4	743,533
667,9	718,133
668,3	724,933
668,7	714,933
669,2	738,133
669,6	698,533
670,1	741,333
670,5	699,933
670,9	716,533
671,4	710,133
671,8	659,933
672,3	710,733
672,7	697,933
673,1	704,733
673,6	655,333
674	670,733
674,5	656,933
674,9	670,933
675,3	660,333
675,8	658,133
676,2	678,933
676,7	663,133
677,1	661,933
677,5	645,733
678	643,733
678,4	648,133
678,9	629,933
679,3	656,133
679,7	643,533
680,2	633,333
680,6	637,333
681,1	626,533
681,5	668,933
681,9	632,933
682,4	634,733
682,8	611,733
683,3	615,733
683,7	611,133
684,1	624,133
684,6	606,533
685	569,533
685,5	573,333
685,9	579,533
686,3	585,733
686,8	602,533
687,2	587,733
687,7	597,133
688,1	604,133
688,5	613,533
689	580,333
689,4	557,733
689,9	576,733
690,3	579,733
690,7	570,933
691,2	569,733
691,6	568,133
692	528,933
692,5	579,133
692,9	560,533
693,4	562,533
693,8	566,533
694,2	552,533
694,7	549,333
695,1	558,333
695,6	530,733
696	539,533
696,4	522,333
696,9	522,933
697,3	523,333
697,8	508,933
698,2	520,533
698,6	529,933
699,1	539,733
699,5	531,133
699,9	504,533
700,4	523,533
700,8	517,933
701,3	500,133
701,7	492,733
702,1	526,133
702,6	505,133
703	488,133
703,5	524,133
703,9	483,533
704,3	504,733
704,8	467,533
705,2	494,533
705,6	495,333
706,1	500,733
706,5	483,733
707	494,533
707,4	515,133
707,8	494,133
708,3	456,133
708,7	454,133
709,2	472,133
709,6	476,533
710	480,933
710,5	460,533
710,9	467,933
711,3	450,533
711,8	478,533
712,2	452,733
712,7	461,533
713,1	439,533
713,5	469,533
714	448,133
714,4	451,533
714,8	453,933
715,3	439,133
715,7	480,533
716,2	431,533
716,6	437,933
717	449,733
717,5	423,333
717,9	416,933
718,3	421,533
718,8	439,933
719,2	422,733
719,7	411,733
720,1	428,133
720,5	433,733
721	415,333
721,4	429,133
721,8	387,933
722,3	400,933
722,7	399,733
723,2	409,333
723,6	419,533
724	410,133
724,5	370,133
724,9	406,333
725,3	381,333
725,8	384,333
726,2	387,933
726,7	391,133
727,1	371,333
727,5	366,933
728	371,733
728,4	397,533
728,8	373,533
729,3	383,333
729,7	386,533
730,1	358,733
730,6	364,533
731	353,733
731,5	354,133
731,9	358,733
732,3	376,733
732,8	339,533
733,2	370,333
733,6	363,133
734,1	330,933
734,5	343,933
734,9	364,133
735,4	351,533
735,8	347,333
736,3	387,133
736,7	318,533
737,1	345,933
737,6	350,333
738	334,933
738,4	339,733
738,9	347,933
739,3	344,533
739,7	333,133
740,2	350,333
740,6	339,133
741,1	374,733
741,5	330,733
741,9	336,133
742,4	304,933
742,8	320,733
743,2	328,933
743,7	312,933
744,1	343,933
744,5	331,733
745	336,733
745,4	315,933
745,8	318,533
746,3	316,133
746,7	318,933
747,2	305,333
747,6	313,933
748	313,933
748,5	321,133
748,9	325,733
749,3	290,333
749,8	316,933
750,2	283,333
750,6	295,133
751,1	307,933
751,5	315,933
751,9	320,933
752,4	291,733
752,8	289,933
753,3	307,333
753,7	290,533
754,1	277,933
754,6	300,733
755	307,133
755,4	290,133
755,9	288,133
756,3	294,533
756,7	301,333
757,2	294,733
757,6	284,933
758	284,133
758,5	284,133
758,9	269,333
759,3	265,733
759,8	258,733
760,2	270,133
760,6	266,333
761,1	261,133
761,5	286,933
761,9	271,933
762,4	277,333
762,8	272,333
763,3	271,133
763,7	255,333
764,1	257,933
764,6	261,333
765	283,533
765,4	260,133
765,9	253,133
766,3	241,733
766,7	244,733
767,2	273,533
767,6	280,933
768	257,133
768,5	285,733
768,9	267,333
769,3	259,333
769,8	251,933
770,2	263,533
770,6	258,333
771,1	249,533
771,5	254,533
771,9	238,933
772,4	261,133
772,8	232,933
773,2	262,733
773,7	247,933
774,1	271,933
774,5	237,733
775	245,333
775,4	199,333
775,8	247,733
776,3	245,933
776,7	241,733
777,1	250,733
777,6	242,933
778	227,333
778,4	266,133
778,9	232,533
779,3	238,733
779,7	223,333
780,2	251,533
780,6	219,933
781	240,333
781,5	218,933
781,9	238,533
782,3	229,133
782,8	264,933
783,2	230,733
783,6	216,733
784,1	245,933
784,5	236,133
784,9	229,733
785,4	222,933
785,8	248,133
786,2	213,133
786,7	237,133
787,1	227,133
787,5	208,333
788	239,933
788,4	227,333
788,8	205,933
789,3	230,933
789,7	256,533
790,1	204,133
790,6	207,533
791	207,333
791,4	188,533
791,9	208,333
792,3	209,133
792,7	206,933
793,2	224,933
793,6	192,533
794	186,733
794,5	218,133
794,9	205,933
795,3	182,133
795,8	192,133
796,2	191,933
796,6	212,533
797,1	224,933
797,5	200,133
797,9	189,533
798,4	225,533
798,8	207,333
799,2	199,333
799,7	200,733
800,1	173,133
800,5	212,133
801	204,333
801,4	176,733
801,8	207,533
802,2	173,933
802,7	194,933
803,1	178,333
803,5	189,533
804	186,533
804,4	180,733
804,8	193,733
805,3	201,933
805,7	181,733
806,1	188,333
806,6	200,733
807	175,733
807,4	170,933
807,9	185,533
808,3	204,333
808,7	142,733
809,2	168,133
809,6	186,333
810	188,533
810,4	172,933
810,9	179,533
811,3	208,533
811,7	184,933
812,2	159,333
812,6	182,933
813	180,933
813,5	176,733
813,9	181,733
814,3	174,933
814,8	175,333
815,2	172,333
815,6	159,133
816,1	178,933
816,5	178,533
816,9	178,333
817,3	179,333
817,8	142,333
818,2	157,933
818,6	139,733
819,1	206,533
819,5	165,133
819,9	168,333
820,4	180,933
820,8	167,533
821,2	145,133
821,7	145,533
822,1	155,533
822,5	157,333
822,9	158,733
823,4	167,533
823,8	149,733
824,2	138,933
824,7	167,933
825,1	163,533
825,5	171,533
826	173,333
826,4	149,333
826,8	163,933
827,3	138,533
827,7	150,133
828,1	164,733
828,5	146,333
829	135,733
829,4	151,733
829,8	161,933
830,3	155,133
830,7	143,733
831,1	144,933
831,6	158,933
832	163,733
832,4	167,933
832,8	139,533
833,3	167,733
833,7	132,733
834,1	158,533
834,6	137,733
835	142,933
835,4	140,533
835,8	163,733
836,3	154,733
836,7	140,933
837,1	151,133
837,6	134,333
838	157,933
838,4	131,333
838,9	145,733
839,3	127,133
839,7	146,533
840,1	135,133
840,6	127,933
841	165,733
841,4	164,733
841,9	132,133
842,3	143,733
842,7	133,133
843,1	142,733
843,6	130,333
844	148,733
844,4	127,733
844,9	152,733
845,3	136,133
845,7	141,533
846,2	125,533
846,6	157,333
847	137,333
847,4	138,533
847,9	130,933
848,3	153,933
848,7	142,133
849,2	136,133
849,6	163,733
850	134,133
850,4	140,933
850,9	120,533
851,3	142,333
851,7	143,133
852,2	128,933
852,6	131,933
853	142,933
853,4	138,533
853,9	131,533
854,3	144,733
854,7	121,333
855,2	132,933
855,6	128,533
856	135,333
856,4	138,133
856,9	128,933
857,3	147,533
857,7	128,133
858,2	143,133
858,6	134,333
859	133,133
859,4	130,933
859,9	122,133
860,3	136,333
860,7	127,533
861,1	114,333
861,6	121,733
862	134,533
862,4	129,333
862,9	135,733
863,3	102,133
863,7	118,533
864,1	124,733
864,6	125,333
865	125,733
865,4	123,733
865,9	115,333
866,3	112,733
866,7	123,133
867,1	113,533
867,6	119,133
868	127,533
868,4	148,133
868,8	112,533
869,3	133,533
869,7	118,333
870,1	123,933
870,6	144,333
871	132,933
871,4	124,733
871,8	131,133
872,3	124,933
872,7	139,733
873,1	141,733
873,5	116,933
874	105,333
874,4	120,933
874,8	116,333
875,3	119,133
875,7	127,733
876,1	131,133
876,5	135,333
877	135,933
877,4	125,933
877,8	137,533
878,2	105,133
878,7	100,733
879,1	121,733
879,5	131,733
879,9	96,933
880,4	91,533
880,8	119,333
881,2	117,733
881,7	121,933
882,1	128,733
882,5	149,133
882,9	102,733
883,4	138,733
883,8	103,133
884,2	110,133
884,6	112,533
885,1	124,333
885,5	105,533
885,9	109,733
886,3	122,933
886,8	124,333
887,2	115,533
887,6	92,533
888	112,733
888,5	85,733
888,9	134,333
889,3	113,333
889,8	141,933
890,2	106,733
890,6	90,133
891	110,933
891,5	85,133
891,9	100,333
892,3	96,933
892,7	106,333
893,2	90,533
893,6	113,533
894	100,533
894,4	105,133
894,9	92,733
895,3	98,733
895,7	100,933
896,1	94,333
896,6	112,533
897	100,133
897,4	112,333
897,8	92,533
898,3	113,333
898,7	104,533
899,1	119,333
899,5	103,533
900	136,133
900,4	101,533
900,8	112,933
901,2	97,333
901,7	130,333
902,1	116,733
902,5	111,533
902,9	117,133
903,4	95,333
903,8	101,733
904,2	114,133
904,6	110,533
905,1	93,533
905,5	85,333
905,9	130,933
906,3	116,733
906,8	104,333
907,2	116,933
907,6	91,733
908	112,733
908,5	97,733
908,9	115,733
909,3	109,733
909,7	90,333
910,2	114,333
910,6	113,933
911	104,733
911,4	120,733
911,9	105,333
912,3	111,333
912,7	105,133
913,1	83,333
913,6	96,533
914	114,933
914,4	125,733
914,8	124,333
915,3	104,533
915,7	105,933
916,1	98,133
916,5	102,933
916,9	122,133
917,4	100,333
917,8	108,133
918,2	103,733
918,6	95,533
919,1	123,333
919,5	99,333
919,9	94,533
920,3	118,933
920,8	113,133
921,2	86,533
921,6	104,933
922	119,133
922,5	106,733
922,9	116,933
923,3	92,933
923,7	106,133
924,2	85,933
924,6	98,733
925	125,533
925,4	104,133
925,8	77,533
926,3	86,533
926,7	99,333
927,1	119,933
927,5	103,933
928	94,333
928,4	119,333
928,8	85,333
929,2	113,733
929,7	100,933
930,1	93,733
930,5	103,133
930,9	103,733
931,3	91,933
931,8	108,133
932,2	104,733
932,6	115,933
933	101,333
933,5	95,133
933,9	123,733
934,3	101,133
934,7	101,933
935,2	130,533
935,6	112,333
936	95,733
936,4	126,533
936,8	114,333
937,3	128,533
937,7	100,333
938,1	105,133
938,5	120,533
939	110,133
939,4	110,933
939,8	112,933
940,2	86,133
940,6	88,333
941,1	102,533
941,5	122,133
941,9	108,933
942,3	102,333
942,8	110,533
943,2	137,533
943,6	99,733
944	114,733
944,4	106,533
944,9	121,533
945,3	86,333
945,7	86,133
946,1	112,333
946,6	85,733
947	101,133
947,4	86,133
947,8	108,533
948,2	100,333
948,7	112,133
949,1	126,333
949,5	91,533
949,9	89,533
950,3	103,933
950,8	107,333
951,2	113,933
951,6	105,733
952	106,533
952,5	115,733
952,9	98,733
953,3	79,133
953,7	110,933
954,1	112,333
954,6	92,733
955	92,533
955,4	109,333
955,8	101,733
956,2	128,533
956,7	83,333
957,1	99,733
957,5	111,733
957,9	88,333
958,3	134,933
958,8	88,333
959,2	118,733
959,6	102,733
960	119,933
960,5	96,333
960,9	109,333
961,3	91,333
961,7	115,133
962,1	105,533
962,6	96,333
963	88,333
963,4	120,133
963,8	72,133
964,2	100,133
964,7	87,133
965,1	106,533
965,5	97,933
965,9	111,933
966,3	99,933
966,8	115,933
967,2	100,533
967,6	86,533
968	86,933
968,4	93,933
968,9	97,733
969,3	93,133
969,7	94,933
970,1	89,533
970,5	107,933
971	94,133
971,4	115,333
971,8	84,933
972,2	100,933
972,6	97,133
973,1	116,933
973,5	93,533
973,9	91,533
974,3	85,933
974,7	101,533
975,2	105,933
975,6	108,133
976	93,533
976,4	114,933
976,8	93,133
977,3	75,533
977,7	98,333
978,1	112,933
978,5	122,733
978,9	113,333
979,4	97,733
979,8	99,733
980,2	80,133
980,6	106,733
981	90,133
981,5	93,133
981,9	91,533
982,3	129,333
982,7	90,533
983,1	89,533
983,6	107,733
984	103,333
984,4	100,133
984,8	114,533
985,2	112,933
985,6	119,733
986,1	97,133
986,5	114,333
986,9	102,733
987,3	88,133
987,7	83,933
988,2	115,533
988,6	87,533
989	97,133
989,4	111,333
989,8	100,933
990,3	117,333
990,7	106,133
991,1	77,933
991,5	80,733
991,9	95,533
992,3	89,933
992,8	92,333
993,2	113,333
993,6	118,733
994	123,533
994,4	72,933
994,9	114,333
995,3	106,533
995,7	107,533
996,1	125,533
996,5	109,933
996,9	101,933
997,4	94,733
997,8	117,333
998,2	126,933
998,6	103,533
999	106,333
999,5	85,533
999,9	101,133
1000,3	105,933
1000,7	110,333
1001,1	80,333
1001,5	99,933
1002	117,333
1002,4	97,133
1002,8	108,533
1003,2	95,533
1003,6	83,333
1004	98,333
1004,5	91,533
1004,9	76,733
1005,3	97,733
1005,7	116,333
1006,1	100,533
1006,6	89,133
1007	112,533
1007,4	79,733
1007,8	91,533
1008,2	98,933
1008,6	74,533
1009,1	96,733
1009,5	96,333
1009,9	107,333
1010,3	104,333
1010,7	120,933
1011,1	101,333
1011,6	113,733
1012	100,733
1012,4	102,933
1012,8	96,333
1013,2	98,133
1013,6	97,933
1014,1	92,533
1014,5	108,333
1014,9	89,133
1015,3	103,533
1015,7	101,533
1016,1	91,733
1016,6	107,933
1017	111,533
1017,4	92,133
1017,8	93,333
1018,2	117,133
1018,6	129,133
1019,1	117,133
1019,5	101,533
1019,9	122,133
1020,3	91,333
1020,7	120,133
1021,1	121,933
1021,6	108,933
1022	104,133
1022,4	96,933
1022,8	87,533
1023,2	123,533
1023,6	118,333
1024,1	123,533
1024,5	86,333
1024,9	88,133
1025,3	124,333
1025,7	107,133
1026,1	107,333
1026,6	79,133
1027	107,933
1027,4	100,933
1027,8	131,133
1028,2	91,933
1028,6	152,133
1029	120,533
1029,5	120,533
1029,9	107,133
1030,3	114,333
1030,7	93,933
1031,1	117,533
1031,5	134,733
1032	131,933
1032,4	116,933
1032,8	121,333
1033,2	108,933
1033,6	105,933
1034	140,533
1034,4	119,533
1034,9	115,733
1035,3	113,533
1035,7	114,133
1036,1	80,133
1036,5	131,933
1036,9	108,933
1037,4	111,533
1037,8	129,733
1038,2	126,533
1038,6	109,533
1039	129,733
1039,4	120,733
1039,8	107,533
1040,3	113,933
1040,7	115,533
1041,1	154,333
1041,5	130,333
1041,9	144,933
1042,3	125,133
1042,7	118,133
1043,2	98,933
1043,6	128,333
1044	95,333
1044,4	122,133
1044,8	125,533
1045,2	126,933
1045,6	129,933
1046,1	108,333
1046,5	111,933
1046,9	133,333
1047,3	141,533
1047,7	118,733
1048,1	105,333
1048,5	117,533
1049	123,533
1049,4	116,733
1049,8	111,733
1050,2	108,933
1050,6	103,333
1051	122,933
1051,4	107,733
1051,9	138,333
1052,3	118,333
1052,7	139,733
1053,1	122,933
1053,5	145,933
1053,9	145,533
1054,3	100,733
1054,8	115,133
1055,2	136,533
1055,6	143,533
1056	112,533
1056,4	104,733
1056,8	102,733
1057,2	144,933
1057,6	145,933
1058,1	134,333
1058,5	129,133
1058,9	146,533
1059,3	117,333
1059,7	101,333
1060,1	101,333
1060,5	127,533
1061	117,533
1061,4	123,933
1061,8	144,933
1062,2	111,333
1062,6	129,533
1063	134,133
1063,4	140,733
1063,8	126,533
1064,3	118,333
1064,7	125,533
1065,1	78,733
1065,5	104,133
1065,9	125,333
1066,3	130,333
1066,7	121,933
1067,1	107,133
1067,6	119,133
1068	107,133
1068,4	146,733
1068,8	114,333
1069,2	107,333
1069,6	109,733
1070	109,333
1070,4	99,733
1070,9	110,333
1071,3	140,333
1071,7	110,933
1072,1	104,933
1072,5	106,933
1072,9	102,733
1073,3	139,133
1073,7	90,133
1074,2	105,933
1074,6	98,133
1075	137,533
1075,4	103,933
1075,8	92,933
1076,2	101,133
1076,6	82,333
1077	87,733
1077,5	106,133
1077,9	98,933
1078,3	97,333
1078,7	112,733
1079,1	100,333
1079,5	108,933
1079,9	99,533
1080,3	103,933
1080,7	101,933
1081,2	108,533
1081,6	92,333
1082	96,733
1082,4	96,533
1082,8	80,133
1083,2	114,533
1083,6	117,733
1084	124,933
1084,5	100,733
1084,9	99,333
1085,3	101,133
1085,7	106,533
1086,1	114,733
1086,5	118,333
1086,9	97,733
1087,3	90,933
1087,7	115,933
1088,2	99,933
1088,6	89,533
1089	64,133
1089,4	85,333
1089,8	109,733
1090,2	102,333
1090,6	82,133
1091	117,733
1091,4	81,333
1091,9	97,333
1092,3	102,533
1092,7	80,933
1093,1	87,933
1093,5	100,533
1093,9	71,733
1094,3	103,333
1094,7	86,933
1095,1	63,533
1095,5	85,133
1096	130,333
1096,4	132,933
1096,8	121,933
1097,2	90,733
1097,6	73,933
1098	79,133
1098,4	83,733
1098,8	66,533
1099,2	65,533
1099,6	75,133
1100,1	84,933
1100,5	86,333
1100,9	65,133
1101,3	74,933
1101,7	64,333
1102,1	69,133
1102,5	75,733
1102,9	73,533
1103,3	78,333
1103,7	60,133
1104,2	86,133
1104,6	57,133
1105	72,733
1105,4	61,733
1105,8	66,333
1106,2	66,933
1106,6	43,933
1107	0,133
1107,4	-0,467
1107,8	1,133
1108,3	-0,067
