Data from Subt2_120.txt Node
Date: Sat Aug 26 18:23:03 MSK 2023
User: vat
Spectrometer: MAYP114033
Trigger mode: 0
Integration Time (sec): 1,000000E0
Scans to average: 5
Electric dark correction enabled: true
Nonlinearity correction enabled: false
Boxcar width: 3
XAxis mode: Wavelengths
Number of Pixels in Spectrum: 2068
>>>>>Begin Spectral Data<<<<<
199,4	0,583
199,9	0,793
200,4	-1,533
200,8	0,633
201,3	0,09
201,8	1,09
202,2	-0,995
202,7	4,405
203,2	4,09
203,6	2,919
204,1	-0,195
204,6	-2,71
205	-2,167
205,5	0,776
206	-3,081
206,4	-0,795
206,9	1,49
207,4	2,776
207,8	4,29
208,3	4,176
208,8	3,319
209,2	3,005
209,7	1,69
210,2	4,519
210,6	4,976
211,1	9,29
211,5	6,376
212	6,69
212,5	5,719
212,9	3,033
213,4	1,49
213,9	-0,738
214,3	-2,31
214,8	0,033
215,3	-4,71
215,7	-1,652
216,2	2,148
216,7	2,405
217,1	1,548
217,6	1,919
218,1	2,062
218,5	5,548
219	-0,967
219,5	-2,138
219,9	-7,852
220,4	1,719
220,9	-0,624
221,3	-1,481
221,8	-1,31
222,3	2,948
222,7	5,69
223,2	8,09
223,6	-0,395
224,1	-2,224
224,6	0,262
225	-2,424
225,5	-6,881
226	-10,081
226,4	-5,11
226,9	-5,795
227,4	-0,738
227,8	-8,081
228,3	-8,281
228,8	-4,824
229,2	-3,052
229,7	-6,281
230,2	-4,024
230,6	-9,224
231,1	-0,881
231,5	2,433
232	1,633
232,5	-0,195
232,9	2,462
233,4	3,205
233,9	7,262
234,3	7,548
234,8	7,833
235,3	4,462
235,7	7,748
236,2	4,862
236,7	4,976
237,1	8,319
237,6	0,719
238,1	-3,195
238,5	-4,052
239	-4,681
239,4	0,376
239,9	-2,91
240,4	-4,538
240,8	1,148
241,3	2,462
241,8	7,433
242,2	3,719
242,7	-1,252
243,2	1,662
243,6	-2,11
244,1	-0,967
244,6	0,462
245	-1,481
245,5	1,776
245,9	-1,338
246,4	-0,081
246,9	-0,395
247,3	-4,224
247,8	0,262
248,3	4,862
248,7	4,09
249,2	6,919
249,7	6,662
250,1	8,919
250,6	9,233
251	5,776
251,5	2,405
252	-0,795
252,4	2,49
252,9	-1,624
253,4	-3,738
253,8	-4,595
254,3	-3,452
254,8	1,462
255,2	1,69
255,7	-3,51
256,1	1,605
256,6	0,69
257,1	5,376
257,5	-0,024
258	-6,767
258,5	-6,081
258,9	-4,51
259,4	-6,367
259,9	-4,624
260,3	-10,91
260,8	-9,081
261,2	-5,024
261,7	-6,824
262,2	-7,024
262,6	-7,452
263,1	-6,395
263,6	-1,052
264	4,49
264,5	5,119
264,9	9,062
265,4	11,805
265,9	11,005
266,3	12,262
266,8	10,89
267,3	8,405
267,7	7,576
268,2	6,49
268,7	4,205
269,1	5,805
269,6	2,605
270	1,833
270,5	-1,967
271	-2,167
271,4	-1,31
271,9	-1,795
272,4	-0,481
272,8	-0,481
273,3	-0,938
273,7	2,205
274,2	1,319
274,7	3,233
275,1	6,405
275,6	4,719
276,1	4,062
276,5	8,776
277	7,005
277,4	6,033
277,9	3,262
278,4	1,633
278,8	0,633
279,3	3,919
279,8	0,405
280,2	2,576
280,7	4,662
281,1	3,69
281,6	2,405
282,1	3,348
282,5	2,776
283	2,862
283,4	-0,738
283,9	1,776
284,4	6,262
284,8	6,462
285,3	4,005
285,8	4,033
286,2	3,005
286,7	7,262
287,1	2,49
287,6	-0,767
288,1	2,062
288,5	8,205
289	5,376
289,5	6,862
289,9	-0,538
290,4	0,805
290,8	0,262
291,3	-3,31
291,8	-5,195
292,2	-4,11
292,7	-2,167
293,1	1,662
293,6	3,576
294,1	4,205
294,5	6,433
295	4,033
295,5	3,862
295,9	2,776
296,4	4,548
296,8	0,948
297,3	-1,31
297,8	-4,481
298,2	-7,281
298,7	-2,652
299,1	-4,824
299,6	-7,51
300,1	-0,681
300,5	3,69
301	9,633
301,5	15,062
301,9	8,49
302,4	7,633
302,8	8,09
303,3	-0,824
303,8	-7,281
304,2	-11,795
304,7	-12,281
305,1	-12,51
305,6	-10,538
306,1	-4,338
306,5	2,519
307	9,748
307,4	13,433
307,9	14,176
308,4	14,862
308,8	9,233
309,3	4,89
309,8	0,033
310,2	-0,91
310,7	-5,338
311,1	-5,795
311,6	-2,052
312,1	1,69
312,5	3,462
313	7,29
313,4	5,09
313,9	7,776
314,4	6,262
314,8	1,405
315,3	-0,281
315,7	-6,938
316,2	-13,224
316,7	-16,224
317,1	-11,567
317,6	-11,967
318	-5,424
318,5	-2,595
319	5,29
319,4	9,29
319,9	15,433
320,3	10,576
320,8	8,862
321,3	8,033
321,7	6,405
322,2	2,89
322,6	4,919
323,1	0,662
323,6	-0,338
324	-1,767
324,5	-6,995
324,9	-0,652
325,4	0,29
325,9	1,319
326,3	1,348
326,8	3,948
327,2	4,49
327,7	4,319
328,2	-0,71
328,6	0,348
329,1	-3,795
329,5	-0,967
330	-3,081
330,5	2,89
330,9	10,119
331,4	9,033
331,8	5,233
332,3	10,633
332,8	8,976
333,2	4,405
333,7	1,348
334,1	-5,567
334,6	-8,024
335,1	-6,452
335,5	-10,224
336	-9,652
336,4	-2,395
336,9	3,519
337,4	8,605
337,8	11,633
338,3	14,319
338,7	15,176
339,2	12,148
339,7	12,005
340,1	4,348
340,6	-0,395
341	-4,138
341,5	-6,91
342	-8,167
342,4	-7,281
342,9	-12,138
343,3	-5,595
343,8	-1,167
344,2	2,833
344,7	6,405
345,2	4,405
345,6	7,09
346,1	8,805
346,5	1,49
347	-2,024
347,5	-3,11
347,9	-1,767
348,4	-0,938
348,8	-2,31
349,3	-1,71
349,8	1,062
350,2	3,833
350,7	3,205
351,1	0,005
351,6	4,176
352	7,919
352,5	14,233
353	21,69
353,4	23,833
353,9	31,948
354,3	40,376
354,8	43,176
355,3	55,119
355,7	64,576
356,2	77,605
356,6	98,319
357,1	120,29
357,5	141,662
358	173,233
358,5	195,719
358,9	226,376
359,4	256,233
359,8	291,805
360,3	334,462
360,8	382,233
361,2	434,205
361,7	494,062
362,1	564,862
362,6	637,405
363	716,49
363,5	794,976
364	885,776
364,4	971,833
364,9	1063,976
365,3	1146,29
365,8	1230,09
366,3	1308,833
366,7	1379,605
367,2	1439,662
367,6	1489,005
368,1	1528,976
368,5	1555,89
369	1570,633
369,5	1573,405
369,9	1564,119
370,4	1540,548
370,8	1508,348
371,3	1461,862
371,7	1407,576
372,2	1346,262
372,7	1275,405
373,1	1205,405
373,6	1128,405
374	1057,462
374,5	987,833
374,9	923,148
375,4	858,262
375,9	798,119
376,3	739,748
376,8	683,633
377,2	631,405
377,7	574,176
378,2	522,176
378,6	477,862
379,1	435,348
379,5	400,119
380	369,519
380,4	332,605
380,9	309,262
381,4	285,376
381,8	263,233
382,3	245,948
382,7	225,119
383,2	208,576
383,6	194,519
384,1	181,033
384,6	170,548
385	156,49
385,5	143,462
385,9	130,633
386,4	121,776
386,8	118,633
387,3	108,033
387,7	100,319
388,2	97,49
388,7	90,148
389,1	85,319
389,6	80,319
390	72,69
390,5	73,033
390,9	70,462
391,4	66,49
391,9	63,719
392,3	62,633
392,8	54,29
393,2	48,49
393,7	45,376
394,1	40,262
394,6	35,462
395,1	34,49
395,5	32,719
396	35,776
396,4	38,433
396,9	36,919
397,3	41,605
397,8	46,09
398,2	44,976
398,7	44,576
399,2	45,805
399,6	47,062
400,1	42,376
400,5	35,719
401	32,976
401,4	30,776
401,9	34,376
402,4	33,033
402,8	30,948
403,3	40,919
403,7	38,433
404,2	40,633
404,6	45,776
405,1	41,89
405,5	43,89
406	49,348
406,5	43,405
406,9	52,948
407,4	56,176
407,8	56,176
408,3	63,148
408,7	65,605
409,2	70,862
409,6	80,69
410,1	85,233
410,6	90,576
411	99,348
411,5	104,233
411,9	111,633
412,4	117,719
412,8	122,976
413,3	130,033
413,7	136,462
414,2	141,948
414,7	154,205
415,1	169,89
415,6	178,376
416	191,119
416,5	201,176
416,9	212,062
417,4	227,519
417,8	246,005
418,3	257,776
418,8	277,433
419,2	291,433
419,7	306,233
420,1	325,376
420,6	345,348
421	354,262
421,5	373,348
421,9	391,233
422,4	413,005
422,8	437,919
423,3	462,776
423,8	484,433
424,2	508,519
424,7	534,119
425,1	562,49
425,6	595,548
426	622,433
426,5	653,776
426,9	692,633
427,4	724,376
427,9	754,862
428,3	794,719
428,8	827,49
429,2	871,49
429,7	917,205
430,1	956,948
430,6	1012,29
431	1069,776
431,5	1120,433
431,9	1178,262
432,4	1241,49
432,8	1304,576
433,3	1370,548
433,8	1441,09
434,2	1518,176
434,7	1598,49
435,1	1679,262
435,6	1757,433
436	1841,548
436,5	1936,176
436,9	2025,976
437,4	2120,005
437,8	2214,976
438,3	2322,862
438,8	2438,605
439,2	2551,89
439,7	2673,605
440,1	2794,776
440,6	2926,719
441	3059,262
441,5	3192,748
441,9	3323,09
442,4	3467,948
442,8	3608,919
443,3	3767,805
443,7	3920,348
444,2	4085,862
444,7	4261,205
445,1	4436,662
445,6	4607,776
446	4795,119
446,5	4982,519
446,9	5163,833
447,4	5356,119
447,8	5544,748
448,3	5753,862
448,7	5965,09
449,2	6178,576
449,6	6398,69
450,1	6629,033
450,6	6864,776
451	7096,319
451,5	7330,09
451,9	7579,805
452,4	7829,948
452,8	8077,633
453,3	8337,005
453,7	8584,376
454,2	8862,176
454,6	9132,919
455,1	9400,433
455,5	9665,519
456	9948,176
456,4	10224,633
456,9	10520,205
457,3	10794,719
457,8	11083,919
458,3	11376,119
458,7	11670,662
459,2	11960,805
459,6	12263,49
460,1	12559,176
460,5	12855,462
461	13152,062
461,4	13442,148
461,9	13746,148
462,3	14053,033
462,8	14364,062
463,2	14676,919
463,7	14987,548
464,1	15297,633
464,6	15613,376
465	15921,176
465,5	16231,49
466	16522,09
466,4	16811,719
466,9	17109,376
467,3	17410,205
467,8	17712,005
468,2	18010,262
468,7	18296,633
469,1	18588,262
469,6	18879,005
470	19168,29
470,5	19448,576
470,9	19726,462
471,4	19994,748
471,8	20264,662
472,3	20536,69
472,7	20798,862
473,2	21051,119
473,6	21303,548
474,1	21544,576
474,5	21794,09
475	22026,919
475,4	22253,205
475,9	22475,833
476,4	22699,29
476,8	22916,09
477,3	23120,719
477,7	23320,89
478,2	23515,062
478,6	23709,148
479,1	23887,119
479,5	24066,976
480	24216,233
480,4	24381,09
480,9	24533,09
481,3	24678,576
481,8	24817,633
482,2	24954,405
482,7	25074,205
483,1	25195,29
483,6	25307,548
484	25396,862
484,5	25494,433
484,9	25552,633
485,4	25631,805
485,8	25700,062
486,3	25777,233
486,7	25818,262
487,2	25866,719
487,6	25904,348
488,1	25953,433
488,5	25964,148
489	25977,862
489,4	25981,033
489,9	25986,633
490,4	25980,605
490,8	25960,462
491,3	25938,833
491,7	25919,862
492,2	25890,976
492,6	25828,776
493,1	25783,576
493,5	25718,862
494	25651,319
494,4	25591,29
494,9	25506,033
495,3	25423,576
495,8	25356,376
496,2	25267,262
496,7	25171,662
497,1	25088,89
497,6	24988,005
498	24890,119
498,5	24795,576
498,9	24683,148
499,4	24557,519
499,8	24451,062
500,3	24333,605
500,7	24211,748
501,2	24096,976
501,6	23956,776
502,1	23843,49
502,5	23741,69
503	23624,262
503,4	23481,69
503,9	23331,519
504,3	23192,805
504,8	23047,462
505,2	22882,148
505,7	22722,805
506,1	22557,976
506,6	22387,09
507	22223,662
507,5	22049,948
507,9	21881,69
508,4	21718,605
508,8	21542,633
509,3	21366,233
509,7	21205,005
510,2	21043,833
510,6	20868,09
511,1	20696,805
511,5	20513,948
512	20327,605
512,4	20146,119
512,9	19961,319
513,3	19771,805
513,8	19584,433
514,2	19392,09
514,7	19202,862
515,1	19019,319
515,6	18838,89
516	18648,576
516,5	18452,405
516,9	18271,662
517,4	18093,919
517,8	17912,776
518,3	17729,319
518,7	17535,062
519,2	17349,29
519,6	17181,633
520,1	16999,176
520,5	16810,005
521	16619,148
521,4	16433,919
521,9	16263,262
522,3	16093,433
522,8	15912,062
523,2	15737,719
523,7	15569,519
524,1	15405,262
524,6	15231,176
525	15072,633
525,5	14898,662
525,9	14737,176
526,4	14568,262
526,8	14393,376
527,3	14236,805
527,7	14076,262
528,2	13905,605
528,6	13748,69
529,1	13590,262
529,5	13437,748
530	13294,09
530,4	13136,89
530,9	12994,49
531,3	12849,548
531,8	12705,29
532,2	12567,862
532,6	12420,262
533,1	12278,348
533,5	12140,833
534	12000,176
534,4	11862,433
534,9	11726,576
535,3	11576,462
535,8	11454,633
536,2	11324,605
536,7	11199,148
537,1	11075,805
537,6	10950,662
538	10829,748
538,5	10719,09
538,9	10587,605
539,4	10475,119
539,8	10356,005
540,3	10234,748
540,7	10114,119
541,2	10001,005
541,6	9878,748
542,1	9766,976
542,5	9655,433
543	9550,862
543,4	9447,776
543,9	9348,548
544,3	9245,919
544,8	9153,805
545,2	9056,605
545,7	8953,09
546,1	8847,462
546,5	8754,719
547	8655,319
547,4	8561,148
547,9	8463,29
548,3	8383,748
548,8	8299,776
549,2	8213,005
549,7	8123,233
550,1	8048,49
550,6	7966,433
551	7884,233
551,5	7799,205
551,9	7705,633
552,4	7633,548
552,8	7554,348
553,3	7467,719
553,7	7390,576
554,2	7319,519
554,6	7238,605
555,1	7173,519
555,5	7098,833
555,9	7028,605
556,4	6956,605
556,8	6886,776
557,3	6819,233
557,7	6757,033
558,2	6693,262
558,6	6633,462
559,1	6571,205
559,5	6515,548
560	6454,633
560,4	6388,862
560,9	6327,719
561,3	6270,376
561,8	6206,576
562,2	6139,233
562,7	6079,033
563,1	6026,605
563,6	5959,062
564	5903,376
564,4	5845,462
564,9	5786,919
565,3	5744,348
565,8	5687,69
566,2	5631,433
566,7	5594,976
567,1	5546,148
567,6	5497,433
568	5452,776
568,5	5403,833
568,9	5354,776
569,4	5303,519
569,8	5260,176
570,3	5214,519
570,7	5163,433
571,1	5119,748
571,6	5076,662
572	5039,062
572,5	5003,49
572,9	4956,405
573,4	4913,919
573,8	4876,062
574,3	4832,005
574,7	4788,233
575,2	4748,662
575,6	4704,148
576,1	4667,605
576,5	4627,833
576,9	4581,119
577,4	4535,89
577,8	4488,633
578,3	4443,605
578,7	4402,748
579,2	4362,576
579,6	4318,919
580,1	4289,376
580,5	4257,605
581	4232,148
581,4	4195,09
581,9	4161,319
582,3	4121,548
582,7	4093,805
583,2	4056,862
583,6	4025,405
584,1	3990,205
584,5	3961,119
585	3927,462
585,4	3892,348
585,9	3852,633
586,3	3822,805
586,8	3792,033
587,2	3759,205
587,6	3732,062
588,1	3707,605
588,5	3683,576
589	3658,49
589,4	3624,319
589,9	3595,205
590,3	3565,69
590,8	3536,462
591,2	3508,862
591,7	3485,119
592,1	3464,462
592,5	3447,319
593	3417,519
593,4	3395,176
593,9	3374,69
594,3	3348,205
594,8	3317,605
595,2	3287,262
595,7	3261,005
596,1	3240,205
596,6	3215,49
597	3192,29
597,4	3175,062
597,9	3156,09
598,3	3141,29
598,8	3124,119
599,2	3101,89
599,7	3079,576
600,1	3056,062
600,6	3027,519
601	3004,462
601,4	2981,776
601,9	2957,89
602,3	2938,433
602,8	2924,205
603,2	2907,519
603,7	2886,319
604,1	2873,148
604,6	2849,062
605	2821,548
605,4	2806,805
605,9	2779,548
606,3	2748,862
606,8	2727,605
607,2	2707,29
607,7	2685,976
608,1	2673,776
608,6	2651,29
609	2638,633
609,4	2628,605
609,9	2610,748
610,3	2590,833
610,8	2570,548
611,2	2555,748
611,7	2532,262
612,1	2512,69
612,6	2493,576
613	2485,29
613,4	2472,176
613,9	2454,948
614,3	2434,462
614,8	2427,919
615,2	2415,633
615,7	2404,69
616,1	2387,748
616,6	2362,862
617	2346,89
617,4	2329,919
617,9	2311,205
618,3	2294,519
618,8	2275,233
619,2	2257,976
619,7	2248,062
620,1	2236,833
620,5	2226,633
621	2206,348
621,4	2190,662
621,9	2172,176
622,3	2151,633
622,8	2132,519
623,2	2116,405
623,6	2096,919
624,1	2085,233
624,5	2069,262
625	2058,576
625,4	2047,633
625,9	2034,005
626,3	2019,262
626,8	2002,262
627,2	1988,833
627,6	1962,062
628,1	1943,119
628,5	1934,605
629	1918,548
629,4	1907,805
629,9	1895,49
630,3	1877,205
630,7	1871,433
631,2	1861,062
631,6	1839,719
632,1	1827,148
632,5	1815,605
633	1807,062
633,4	1796,205
633,8	1785,805
634,3	1770,948
634,7	1763,405
635,2	1746,233
635,6	1732,29
636,1	1713,405
636,5	1697,376
636,9	1678,548
637,4	1664,262
637,8	1647,09
638,3	1635,89
638,7	1618,062
639,2	1609,519
639,6	1607,948
640	1600,662
640,5	1592,119
640,9	1578,89
641,4	1574,719
641,8	1562,005
642,2	1547,805
642,7	1537,49
643,1	1529,976
643,6	1514,976
644	1506,89
644,5	1494,519
644,9	1489,119
645,3	1480,348
645,8	1459,948
646,2	1452,262
646,7	1450,605
647,1	1442,233
647,6	1432,605
648	1425,119
648,4	1416,005
648,9	1414,119
649,3	1399,776
649,8	1387,376
650,2	1382,576
650,6	1375,662
651,1	1364,548
651,5	1362,09
652	1351,205
652,4	1340,09
652,9	1330,262
653,3	1318,405
653,7	1305,919
654,2	1296,519
654,6	1281,605
655,1	1273,49
655,5	1270,233
655,9	1265,319
656,4	1256,948
656,8	1246,748
657,3	1240,376
657,7	1234,776
658,2	1227,576
658,6	1216,862
659	1208,319
659,5	1191,205
659,9	1186,462
660,4	1175,376
660,8	1162,205
661,2	1145,748
661,7	1140,205
662,1	1130,033
662,6	1127,948
663	1119,576
663,4	1109,033
663,9	1102,89
664,3	1097,976
664,8	1085,919
665,2	1073,719
665,6	1067,833
666,1	1058,519
666,5	1054,833
667	1048,89
667,4	1041,89
667,9	1035,89
668,3	1029,805
668,7	1017,005
669,2	1013,862
669,6	1008,948
670,1	999,748
670,5	994,205
670,9	987,719
671,4	980,719
671,8	977,376
672,3	967,548
672,7	958,49
673,1	949,262
673,6	941,205
674	937,548
674,5	929,519
674,9	917,976
675,3	910,033
675,8	903,805
676,2	899,233
676,7	892,148
677,1	883,033
677,5	875,348
678	873,062
678,4	867,662
678,9	862,89
679,3	855,776
679,7	846,376
680,2	835,805
680,6	829,633
681,1	823,69
681,5	816,576
681,9	810,948
682,4	803,062
682,8	804,519
683,3	801,033
683,7	797,576
684,1	793,519
684,6	785,833
685	778,519
685,5	772,29
685,9	758,662
686,3	748,605
686,8	741,919
687,2	735,462
687,7	727,605
688,1	715,69
688,5	712,919
689	710,976
689,4	710,633
689,9	707,89
690,3	701,119
690,7	703,49
691,2	707,519
691,6	702,405
692	699,519
692,5	693,89
692,9	684,09
693,4	675,462
693,8	666,433
694,2	654,719
694,7	650,29
695,1	643,662
695,6	641,89
696	640,519
696,4	639,319
696,9	632,89
697,3	629,662
697,8	625,005
698,2	622,633
698,6	616,376
699,1	613,862
699,5	612,833
699,9	612,919
700,4	604,605
700,8	603,319
701,3	599,576
701,7	594,033
702,1	586,262
702,6	579,776
703	574,633
703,5	575,233
703,9	566,919
704,3	559,69
704,8	554,719
705,2	552,462
705,6	549,405
706,1	545,748
706,5	540,719
707	540,09
707,4	541,09
707,8	535,148
708,3	532,262
708,7	526,176
709,2	521,462
709,6	519,376
710	516,605
710,5	507,176
710,9	505,233
711,3	500,633
711,8	495,776
712,2	491,348
712,7	486,89
713,1	482,833
713,5	480,176
714	476,633
714,4	474,033
714,8	472,548
715,3	469,176
715,7	464,348
716,2	457,748
716,6	457,205
717	450,948
717,5	444,005
717,9	442,148
718,3	435,833
718,8	438,09
719,2	439,233
719,7	434,69
720,1	437,862
720,5	440,005
721	433,576
721,4	430,919
721,8	423,948
722,3	413,633
722,7	418,976
723,2	409,662
723,6	396,605
724	391,233
724,5	389,176
724,9	384,948
725,3	384,005
725,8	373,719
726,2	377,833
726,7	380,433
727,1	379,862
727,5	377,919
728	372,633
728,4	371,49
728,8	366,033
729,3	354,519
729,7	347,862
730,1	345,948
730,6	345,49
731	343,033
731,5	339,519
731,9	338,119
732,3	341,005
732,8	344,29
733,2	343,319
733,6	338,776
734,1	341,09
734,5	337,433
734,9	337,119
735,4	334,605
735,8	330,776
736,3	330,376
736,7	327,033
737,1	321,433
737,6	324,89
738	323,433
738,4	320,719
738,9	321,519
739,3	319,233
739,7	320,519
740,2	319,062
740,6	316,348
741,1	313,09
741,5	305,862
741,9	302,319
742,4	303,033
742,8	302,119
743,2	301,633
743,7	292,976
744,1	290,776
744,5	289,519
745	284,033
745,4	272,919
745,8	269,719
746,3	267,262
746,7	267,005
747,2	265,633
747,6	273,605
748	274,433
748,5	277,433
748,9	272,748
749,3	272,748
749,8	274,662
750,2	274,776
750,6	266,033
751,1	267,633
751,5	266,662
751,9	268,833
752,4	268,29
752,8	267,29
753,3	260,976
753,7	261,262
754,1	254,319
754,6	250,233
755	244,605
755,4	239,833
755,9	236,519
756,3	234,405
756,7	234,348
757,2	236,005
757,6	237,233
758	235,633
758,5	233,548
758,9	231,033
759,3	232,433
759,8	229,776
760,2	227,319
760,6	224,919
761,1	220,833
761,5	218,519
761,9	218,033
762,4	215,233
762,8	215,348
763,3	213,89
763,7	212,262
764,1	214,833
764,6	215,205
765	214,833
765,4	212,605
765,9	207,433
766,3	208,433
766,7	205,605
767,2	202,805
767,6	203,405
768	200,348
768,5	198,776
768,9	200,005
769,3	193,862
769,8	188,033
770,2	185,919
770,6	182,748
771,1	185,233
771,5	185,719
771,9	185,576
772,4	186,576
772,8	190,176
773,2	194,262
773,7	191,376
774,1	185,348
774,5	180,033
775	176,005
775,4	175,262
775,8	174,605
776,3	170,805
776,7	170,776
777,1	165,49
777,6	169,433
778	171,09
778,4	166,49
778,9	164,976
779,3	163,29
779,7	161,205
780,2	167,29
780,6	164,862
781	160,719
781,5	161,776
781,9	162,033
782,3	159,49
782,8	160,776
783,2	158,976
783,6	161,519
784,1	159,119
784,5	155,319
784,9	153,805
785,4	156,348
785,8	156,605
786,2	154,69
786,7	148,776
787,1	148,662
787,5	148,948
788	146,176
788,4	144,69
788,8	141,376
789,3	138,633
789,7	140,805
790,1	143,69
790,6	148,948
791	150,233
791,4	151,805
791,9	151,205
792,3	150,748
792,7	153,805
793,2	146,376
793,6	139,09
794	140,005
794,5	133,948
794,9	135,662
795,3	136,976
795,8	131,69
796,2	138,49
796,6	142,805
797,1	136,633
797,5	133,462
797,9	127,376
798,4	122,605
798,8	120,176
799,2	115,176
799,7	116,519
800,1	117,005
800,5	120,09
801	125,69
801,4	124,862
801,8	121,005
802,2	121,348
802,7	114,233
803,1	116,662
803,5	114,662
804	109,462
804,4	109,833
804,8	109,09
805,3	104,633
805,7	108,09
806,1	103,062
806,6	104,119
807	103,862
807,4	102,262
807,9	97,405
808,3	101,462
808,7	100,605
809,2	102,748
809,6	103,719
810	102,119
810,4	104,205
810,9	109,919
811,3	109,576
811,7	110,033
812,2	112,976
812,6	107,576
813	110,29
813,5	113,348
813,9	112,376
814,3	107,519
814,8	101,862
815,2	96,462
815,6	100,319
816,1	96,433
816,5	89,548
816,9	88,662
817,3	88,633
817,8	95,376
818,2	95,205
818,6	88,89
819,1	88,348
819,5	88,033
819,9	86,319
820,4	88,49
820,8	81,405
821,2	79,09
821,7	79,719
822,1	83,29
822,5	88,205
822,9	90,348
823,4	87,233
823,8	88,49
824,2	90,033
824,7	86,776
825,1	80,805
825,5	74,89
826	70,805
826,4	71,433
826,8	70,233
827,3	72,433
827,7	75,233
828,1	75,948
828,5	78,433
829	78,862
829,4	79,09
829,8	74,376
830,3	71,148
830,7	68,69
831,1	67,062
831,6	65,09
832	67,405
832,4	63,805
832,8	67,148
833,3	64,062
833,7	61,29
834,1	61,633
834,6	58,862
835	56,233
835,4	57,262
835,8	53,519
836,3	53,09
836,7	55,948
837,1	58,576
837,6	63,09
838	62,748
838,4	64,176
838,9	66,548
839,3	67,262
839,7	70,605
840,1	64,062
840,6	60,233
841	58,605
841,4	57,262
841,9	57,89
842,3	56,062
842,7	51,633
843,1	56,376
843,6	59,605
844	61,862
844,4	63,605
844,9	63,833
845,3	67,062
845,7	66,29
846,2	59,319
846,6	53,405
847	52,09
847,4	47,433
847,9	47,833
848,3	44,005
848,7	45,433
849,2	47,919
849,6	44,405
850	46,09
850,4	45,948
850,9	40,548
851,3	44,29
851,7	46,976
852,2	48,462
852,6	53,119
853	51,09
853,4	52,519
853,9	52,176
854,3	48,09
854,7	45,09
855,2	42,348
855,6	41,005
856	44,69
856,4	42,233
856,9	38,233
857,3	43,49
857,7	45,805
858,2	50,49
858,6	50,176
859	47,376
859,4	51,405
859,9	53,69
860,3	45,519
860,7	43,976
861,1	42,005
861,6	42,29
862	39,89
862,4	36,462
862,9	40,462
863,3	43,548
863,7	42,148
864,1	43,69
864,6	38,462
865	37,09
865,4	38,462
865,9	38,405
866,3	33,919
866,7	33,119
867,1	26,319
867,6	33,148
868	33,176
868,4	32,148
868,8	30,148
869,3	30,976
869,7	34,09
870,1	33,633
870,6	27,69
871	10,005
871,4	11,862
871,8	10,262
872,3	14,519
872,7	14,976
873,1	19,576
873,5	25,148
874	42,69
874,4	41,576
874,8	40,519
875,3	39,862
875,7	34,462
876,1	35,29
876,5	31,919
877	30,148
877,4	25,462
877,8	27,605
878,2	29,576
878,7	32,405
879,1	30,319
879,5	32,49
879,9	35,348
880,4	37,462
880,8	37,605
881,2	34,462
881,7	30,062
882,1	27,776
882,5	24,176
882,9	23,233
883,4	24,033
883,8	21,862
884,2	22,29
884,6	23,576
885,1	23,548
885,5	26,633
885,9	28,319
886,3	26,833
886,8	25,062
887,2	20,29
887,6	14,405
888	13,205
888,5	13,748
888,9	8,005
889,3	8,29
889,8	11,976
890,2	14,576
890,6	15,948
891	17,548
891,5	16,719
891,9	18,062
892,3	19,548
892,7	17,69
893,2	20,119
893,6	23,576
894	24,119
894,4	21,948
894,9	22,69
895,3	21,605
895,7	22,348
896,1	18,548
896,6	18,433
897	21,233
897,4	25,948
897,8	27,548
898,3	28,148
898,7	26,633
899,1	28,948
899,5	26,919
900	18,205
900,4	13,776
900,8	11,005
901,2	3,776
901,7	4,233
902,1	4,405
902,5	8,29
902,9	11,09
903,4	12,119
903,8	13,976
904,2	16,948
904,6	18,09
905,1	12,319
905,5	11,29
905,9	15,005
906,3	18,605
906,8	22,148
907,2	24,862
907,6	27,748
908	36,519
908,5	34,748
908,9	28,519
909,3	21,49
909,7	16,748
910,2	15,376
910,6	13,633
911	7,09
911,4	10,405
911,9	14,033
912,3	15,576
912,7	17,69
913,1	21,662
913,6	19,348
914	22,433
914,4	18,148
914,8	18,89
915,3	14,205
915,7	12,376
916,1	11,519
916,5	8,719
916,9	9,833
917,4	10,948
917,8	6,576
918,2	6,062
918,6	4,862
919,1	6,148
919,5	9,548
919,9	6,49
920,3	4,29
920,8	7,662
921,2	11,805
921,6	13,605
922	9,748
922,5	9,748
922,9	10,605
923,3	10,148
923,7	11,89
924,2	9,176
924,6	8,433
925	6,976
925,4	4,776
925,8	6,805
926,3	4,662
926,7	1,919
927,1	2,376
927,5	2,548
928	1,376
928,4	-2,138
928,8	2,348
929,2	7,205
929,7	12,519
930,1	14,405
930,5	13,833
930,9	14,948
931,3	18,548
931,8	15,462
932,2	15,433
932,6	5,405
933	-0,395
933,5	0,29
933,9	3,833
934,3	7,062
934,7	0,633
935,2	-1,767
935,6	4,005
936	10,319
936,4	13,919
936,8	14,405
937,3	8,319
937,7	13,805
938,1	20,662
938,5	14,948
939	14,062
939,4	12,576
939,8	9,462
940,2	10,948
940,6	8,548
941,1	2,405
941,5	12,49
941,9	9,49
942,3	5,09
942,8	6,033
943,2	11,262
943,6	6,548
944	7,748
944,4	3,319
944,9	1,976
945,3	2,233
945,7	-5,367
946,1	-11,224
946,6	-11,052
947	-12,995
947,4	-10,481
947,8	-5,481
948,2	-8,024
948,7	-0,567
949,1	-0,852
949,5	7,148
949,9	10,462
950,3	8,348
950,8	4,805
951,2	7,605
951,6	1,548
952	5,605
952,5	-1,538
952,9	-4,595
953,3	-6,652
953,7	-7,024
954,1	-5,081
954,6	-1,452
955	-0,281
955,4	0,376
955,8	5,833
956,2	7,948
956,7	11,376
957,1	4,862
957,5	9,376
957,9	8,319
958,3	7,748
958,8	4,605
959,2	3,633
959,6	5,633
960	7,576
960,5	10,605
960,9	10,719
961,3	11,005
961,7	11,548
962,1	12,89
962,6	14,776
963	15,976
963,4	6,976
963,8	8,205
964,2	10,433
964,7	9,405
965,1	12,148
965,5	8,833
965,9	10,662
966,3	13,09
966,8	7,948
967,2	10,062
967,6	9,433
968	1,262
968,4	0,148
968,9	-0,138
969,3	2,776
969,7	4,433
970,1	-0,681
970,5	-4,51
971	1,833
971,4	1,376
971,8	1,262
972,2	1,948
972,6	-0,167
973,1	1,205
973,5	6,719
973,9	7,576
974,3	8,833
974,7	12,462
975,2	14,148
975,6	10,69
976	10,719
976,4	3,519
976,8	0,805
977,3	-2,624
977,7	-10,11
978,1	-16,452
978,5	-12,624
978,9	-14,995
979,4	-8,852
979,8	-10,71
980,2	-7,881
980,6	-3,51
981	0,919
981,5	0,862
981,9	1,919
982,3	1,033
982,7	6,29
983,1	1,662
983,6	-1,51
984	-3,281
984,4	-2,052
984,8	-1,881
985,2	-1,91
985,6	-6,11
986,1	-3,51
986,5	-1,824
986,9	-6,224
987,3	-4,881
987,7	-3,824
988,2	-8,052
988,6	-8,395
989	-7,024
989,4	-6,281
989,8	-5,224
990,3	-7,367
990,7	-11,31
991,1	-4,624
991,5	-1,167
991,9	5,119
992,3	4,948
992,8	7,062
993,2	8,89
993,6	11,576
994	11,09
994,4	6,833
994,9	3,062
995,3	3,405
995,7	-0,224
996,1	2,262
996,5	6,548
996,9	3,205
997,4	6,005
997,8	-1,11
998,2	-5,567
998,6	-7,367
999	-9,624
999,5	-13,595
999,9	-14,224
1000,3	-17,11
1000,7	-16,195
1001,1	-15,138
1001,5	-9,767
1002	-9,024
1002,4	-6,824
1002,8	-6,71
1003,2	-2,681
1003,6	1,462
1004	6,633
1004,5	5,976
1004,9	7,719
1005,3	3,433
1005,7	7,833
1006,1	3,948
1006,6	5,576
1007	8,862
1007,4	9,376
1007,8	8,433
1008,2	6,862
1008,6	8,89
1009,1	6,776
1009,5	3,69
1009,9	0,376
1010,3	3,805
1010,7	-0,51
1011,1	3,862
1011,6	-1,567
1012	5,005
1012,4	5,262
1012,8	1,09
1013,2	1,262
1013,6	4,09
1014,1	5,376
1014,5	5,062
1014,9	2,005
1015,3	3,233
1015,7	4,376
1016,1	-2,424
1016,6	-3,11
1017	-0,081
1017,4	-0,481
1017,8	-4,081
1018,2	-2,624
1018,6	-7,367
1019,1	-3,31
1019,5	-5,052
1019,9	-11,395
1020,3	-8,767
1020,7	-3,252
1021,1	-4,624
1021,6	2,09
1022	3,948
1022,4	6,376
1022,8	8,633
1023,2	7,948
1023,6	6,176
1024,1	10,29
1024,5	10,805
1024,9	7,262
1025,3	6,148
1025,7	4,09
1026,1	6,09
1026,6	6,29
1027	3,233
1027,4	3,576
1027,8	4,376
1028,2	1,49
1028,6	8,833
1029	5,119
1029,5	8,062
1029,9	4,148
1030,3	2,862
1030,7	0,519
1031,1	7,319
1031,5	-0,681
1032	-0,824
1032,4	-5,967
1032,8	-0,224
1033,2	0,948
1033,6	-1,224
1034	-4,395
1034,4	-5,424
1034,9	-3,481
1035,3	-0,824
1035,7	2,062
1036,1	-3,224
1036,5	0,49
1036,9	0,29
1037,4	4,005
1037,8	1,29
1038,2	-1,652
1038,6	-8,367
1039	-2,167
1039,4	1,09
1039,8	-5,595
1040,3	-5,938
1040,7	-3,852
1041,1	-2,138
1041,5	0,09
1041,9	-4,452
1042,3	-6,881
1042,7	-0,538
1043,2	-1,338
1043,6	-6,71
1044	-9,167
1044,4	-11,795
1044,8	-7,652
1045,2	-9,367
1045,6	-8,195
1046,1	-6,567
1046,5	0,833
1046,9	2,148
1047,3	1,09
1047,7	-4,424
1048,1	-4,252
1048,5	-4,395
1049	-1,31
1049,4	0,176
1049,8	-3,081
1050,2	-1,424
1050,6	4,548
1051	5,976
1051,4	4,519
1051,9	-2,367
1052,3	1,262
1052,7	3,176
1053,1	2,748
1053,5	1,919
1053,9	2,176
1054,3	1,605
1054,8	10,519
1055,2	8,233
1055,6	11,919
1056	10,719
1056,4	6,405
1056,8	4,29
1057,2	0,976
1057,6	-8,481
1058,1	-16,052
1058,5	-17,652
1058,9	-18,224
1059,3	-14,452
1059,7	-13,852
1060,1	-8,452
1060,5	-4,538
1061	-2,538
1061,4	-2,51
1061,8	2,262
1062,2	0,748
1062,6	2,948
1063	2,433
1063,4	1,376
1063,8	4,176
1064,3	4,405
1064,7	2,205
1065,1	0,69
1065,5	-2,024
1065,9	-3,967
1066,3	-5,967
1066,7	-10,252
1067,1	-7,31
1067,6	-5,738
1068	-9,052
1068,4	-6,652
1068,8	-3,281
1069,2	2,605
1069,6	6,29
1070	6,605
1070,4	6,519
1070,9	7,319
1071,3	6,462
1071,7	5,119
1072,1	3,205
1072,5	-4,738
1072,9	-6,795
1073,3	-3,652
1073,7	-0,852
1074,2	-3,424
1074,6	-4,91
1075	-7,824
1075,4	-0,481
1075,8	3,405
1076,2	-3,338
1076,6	0,176
1077	2,633
1077,5	4,605
1077,9	6,09
1078,3	2,976
1078,7	-3,652
1079,1	-0,138
1079,5	1,376
1079,9	2,148
1080,3	0,433
1080,7	4,433
1081,2	8,919
1081,6	11,233
1082	8,719
1082,4	11,348
1082,8	8,205
1083,2	11,862
1083,6	9,948
1084	8,976
1084,5	6,148
1084,9	3,148
1085,3	-8,31
1085,7	-6,195
1086,1	-7,652
1086,5	-5,795
1086,9	-2,795
1087,3	0,748
1087,7	4,976
1088,2	12,148
1088,6	14,062
1089	16,462
1089,4	14,376
1089,8	13,862
1090,2	10,176
1090,6	11,605
1091	14,29
1091,4	13,433
1091,9	8,49
1092,3	9,976
1092,7	8,919
1093,1	9,519
1093,5	8,205
1093,9	0,005
1094,3	6,462
1094,7	5,748
1095,1	0,89
1095,5	0,005
1096	-0,738
1096,4	-0,967
1096,8	1,348
1097,2	-5,424
1097,6	-1,595
1098	0,205
1098,4	-1,995
1098,8	3,29
1099,2	8,205
1099,6	8,662
1100,1	6,89
1100,5	4,405
1100,9	4,662
1101,3	6,662
1101,7	2,176
1102,1	-3,195
1102,5	-0,567
1102,9	1,376
1103,3	5,033
1103,7	7,919
1104,2	9,576
1104,6	10,748
1105	8,776
1105,4	9,033
1105,8	8,29
1106,2	4,262
1106,6	2,09
1107	-1,338
1107,4	-0,833
1107,8	2,873
1108,3	-0,767
