Data from Subt2_253.txt Node
Date: Sat Aug 26 18:59:43 MSK 2023
User: vat
Spectrometer: MAYP114033
Trigger mode: 0
Integration Time (sec): 1,000000E0
Scans to average: 5
Electric dark correction enabled: true
Nonlinearity correction enabled: false
Boxcar width: 3
XAxis mode: Wavelengths
Number of Pixels in Spectrum: 2068
>>>>>Begin Spectral Data<<<<<
199,4	-1,167
199,9	-1,007
200,4	-1,833
200,8	0,462
201,3	0,776
201,8	1,519
202,2	-0,024
202,7	2,319
203,2	1,29
203,6	-0,538
204,1	-3,11
204,6	-5,052
205	-0,138
205,5	-0,795
206	-0,224
206,4	2,605
206,9	2,205
207,4	3,919
207,8	6,633
208,3	-0,681
208,8	3,319
209,2	2,519
209,7	2,548
210,2	5,205
210,6	5,49
211,1	6,548
211,5	8,176
212	9,29
212,5	11,205
212,9	9,29
213,4	13,205
213,9	10,576
214,3	10,176
214,8	12,148
215,3	10,005
215,7	11,662
216,2	13,205
216,7	12,69
217,1	13,233
217,6	14,405
218,1	15,576
218,5	11,862
219	0,662
219,5	-1,224
219,9	-8,024
220,4	-0,881
220,9	-3,338
221,3	-5,767
221,8	-2,967
222,3	5,148
222,7	8,29
223,2	11,605
223,6	4,548
224,1	3,805
224,6	5,548
225	3,662
225,5	1,519
226	0,119
226,4	0,005
226,9	5,719
227,4	8,262
227,8	-1,91
228,3	0,148
228,8	0,09
229,2	2,519
229,7	5,033
230,2	-0,167
230,6	-1,995
231,1	8,576
231,5	10,748
232	13,319
232,5	6,576
232,9	8,005
233,4	13,348
233,9	10,805
234,3	7,833
234,8	6,548
235,3	2,976
235,7	9,376
236,2	8,833
236,7	4,176
237,1	10,433
237,6	11,262
238,1	10,405
238,5	9,462
239	8,948
239,4	8,09
239,9	5,69
240,4	3,633
240,8	5,49
241,3	6,662
241,8	6,09
242,2	5,89
242,7	5,062
243,2	13,176
243,6	9,233
244,1	11,176
244,6	12,062
245	15,69
245,5	15,69
245,9	11,49
246,4	3,919
246,9	8,519
247,3	7,005
247,8	3,319
248,3	4,119
248,7	4,948
249,2	9,633
249,7	15,605
250,1	18,205
250,6	18,719
251	22,405
251,5	19,005
252	17,462
252,4	19,176
252,9	7,205
253,4	-0,51
253,8	-4,795
254,3	-4,652
254,8	-1,281
255,2	-4,595
255,7	-11,338
256,1	-0,138
256,6	5,005
257,1	8,805
257,5	7,748
258	3,033
258,5	6,033
258,9	10,633
259,4	8,462
259,9	8,719
260,3	5,405
260,8	2,519
261,2	6,633
261,7	7,033
262,2	2,805
262,6	-1,681
263,1	-0,881
263,6	0,776
264	3,776
264,5	3,29
264,9	3,148
265,4	7,776
265,9	8,205
266,3	9,919
266,8	11,205
267,3	9,005
267,7	9,09
268,2	10,633
268,7	8,662
269,1	14,633
269,6	7,205
270	9,976
270,5	7,633
271	8,319
271,4	5,49
271,9	3,033
272,4	2,176
272,8	3,548
273,3	3,176
273,7	7,348
274,2	6,148
274,7	7,519
275,1	13,462
275,6	10,462
276,1	10,319
276,5	10,633
277	10,519
277,4	11,862
277,9	13,776
278,4	12,405
278,8	14,833
279,3	17,576
279,8	13,805
280,2	15,576
280,7	16,062
281,1	12,376
281,6	11,833
282,1	10,69
282,5	10,462
283	8,833
283,4	6,89
283,9	5,719
284,4	10,233
284,8	13,233
285,3	11,148
285,8	13,605
286,2	11,833
286,7	14,119
287,1	15,49
287,6	9,205
288,1	5,348
288,5	7,89
289	1,862
289,5	4,89
289,9	-1,395
290,4	-0,367
290,8	4,148
291,3	2,319
291,8	3,376
292,2	5,119
292,7	12,148
293,1	15,462
293,6	12,633
294,1	11,062
294,5	15,662
295	16,748
295,5	18,319
295,9	13,948
296,4	12,69
296,8	13,005
297,3	14,976
297,8	7,148
298,2	3,833
298,7	4,262
299,1	4,605
299,6	3,376
300,1	3,89
300,5	2,376
301	8,09
301,5	13,833
301,9	13,205
302,4	8,462
302,8	8,919
303,3	8,633
303,8	5,576
304,2	7,662
304,7	2,29
305,1	-1,281
305,6	1,548
306,1	8,833
306,5	8,148
307	14,776
307,4	16,405
307,9	13,976
308,4	13,748
308,8	5,833
309,3	1,976
309,8	3,062
310,2	1,49
310,7	-5,367
311,1	-3,51
311,6	2,576
312,1	12,69
312,5	10,376
313	12,462
313,4	9,919
313,9	10,376
314,4	11,119
314,8	4,033
315,3	1,976
315,7	-0,252
316,2	-3,338
316,7	-4,424
317,1	-0,081
317,6	-0,738
318	8,576
318,5	9,29
319	10,862
319,4	10,376
319,9	18,69
320,3	19,233
320,8	18,205
321,3	16,205
321,7	15,462
322,2	16,576
322,6	18,776
323,1	16,176
323,6	12,69
324	15,005
324,5	12,605
324,9	11,633
325,4	7,919
325,9	8,548
326,3	4,548
326,8	9,148
327,2	2,89
327,7	3,519
328,2	7,519
328,6	14,148
329,1	10,033
329,5	6,462
330	4,919
330,5	11,233
330,9	12,148
331,4	7,319
331,8	5,09
332,3	9,89
332,8	11,719
333,2	11,233
333,7	10,862
334,1	9,29
334,6	8,176
335,1	3,89
335,5	1,719
336	0,519
336,4	2,376
336,9	6,348
337,4	8,976
337,8	7,319
338,3	10,662
338,7	10,605
339,2	10,176
339,7	9,548
340,1	5,776
340,6	1,633
341	0,376
341,5	-1,567
342	-2,624
342,4	-0,995
342,9	-2,452
343,3	-1,281
343,8	0,433
344,2	5,062
344,7	11,976
345,2	10,49
345,6	13,633
346,1	11,69
346,5	5,433
347	2,89
347,5	1,033
347,9	4,148
348,4	7,09
348,8	6,69
349,3	10,176
349,8	17,519
350,2	24,233
350,7	24,89
351,1	18,319
351,6	20,862
352	20,49
352,5	23,262
353	27,233
353,4	29,605
353,9	38,948
354,3	44,89
354,8	51,433
355,3	66,462
355,7	80,49
356,2	93,49
356,6	107,748
357,1	127,605
357,5	151,919
358	180,776
358,5	204,748
358,9	235,205
359,4	274,862
359,8	318,462
360,3	366,748
360,8	413,805
361,2	470,376
361,7	533,062
362,1	601,776
362,6	678,405
363	757,69
363,5	838,69
364	937,605
364,4	1028,976
364,9	1125,776
365,3	1213,805
365,8	1296,49
366,3	1375,519
366,7	1448,748
367,2	1512,662
367,6	1560,605
368,1	1598,319
368,5	1626,405
369	1639,862
369,5	1646,633
369,9	1635,576
370,4	1603,462
370,8	1569,062
371,3	1521,776
371,7	1469,319
372,2	1405,519
372,7	1332,405
373,1	1262,376
373,6	1187,862
374	1113,519
374,5	1040,662
374,9	969,148
375,4	901,319
375,9	835,576
376,3	769,005
376,8	708,348
377,2	654,433
377,7	599,348
378,2	547,576
378,6	500,319
379,1	453,719
379,5	416,548
380	385,605
380,4	347,462
380,9	321,576
381,4	293,262
381,8	271,033
382,3	256,976
382,7	239,319
383,2	223,862
383,6	211,462
384,1	197,205
384,6	187,862
385	172,89
385,5	160,176
385,9	146,605
386,4	136,262
386,8	130,948
387,3	117,462
387,7	107,948
388,2	101,919
388,7	93,633
389,1	91,633
389,6	85,119
390	75,919
390,5	76,69
390,9	75,69
391,4	70,09
391,9	64,09
392,3	56,948
392,8	52,062
393,2	48,948
393,7	44,062
394,1	33,033
394,6	33,433
395,1	35,119
395,5	32,262
396	34,862
396,4	34,833
396,9	32,976
397,3	38,405
397,8	39,919
398,2	38,576
398,7	42,433
399,2	41,062
399,6	44,233
400,1	46,748
400,5	43,862
401	42,548
401,4	39,462
401,9	39,176
402,4	37,89
402,8	30,49
403,3	29,862
403,7	28,719
404,2	30,576
404,6	33,919
405,1	30,119
405,5	26,49
406	29,319
406,5	27,462
406,9	30,005
407,4	25,233
407,8	24,976
408,3	25,348
408,7	25,519
409,2	31,119
409,6	34,576
410,1	37,033
410,6	40,062
411	45,376
411,5	49,833
411,9	54,605
412,4	52,49
412,8	56,119
413,3	58,576
413,7	60,319
414,2	57,29
414,7	60,719
415,1	66,29
415,6	69,376
416	70,062
416,5	72,205
416,9	74,405
417,4	78,948
417,8	85,662
418,3	86,119
418,8	91,033
419,2	89,948
419,7	92,433
420,1	94,576
420,6	96,976
421	90,519
421,5	94,119
421,9	96,09
422,4	98,576
422,8	94,405
423,3	93,519
423,8	88,119
424,2	89,405
424,7	88,262
425,1	83,69
425,6	85,662
426	88,519
426,5	91,548
426,9	97,405
427,4	92,033
427,9	88,233
428,3	88,348
428,8	88,919
429,2	87,462
429,7	84,519
430,1	80,09
430,6	85,462
431	84,748
431,5	86,462
431,9	83,462
432,4	89,748
432,8	95,719
433,3	99,976
433,8	100,748
434,2	104,89
434,7	108,719
435,1	111,033
435,6	111,319
436	112,662
436,5	120,033
436,9	123,919
437,4	126,69
437,8	133,633
438,3	138,29
438,8	140,69
439,2	144,09
439,7	148,148
440,1	153,033
440,6	165,89
441	164,719
441,5	170,719
441,9	176,833
442,4	181,119
442,8	183,719
443,3	195,433
443,7	199,205
444,2	214,348
444,7	223,833
445,1	235,062
445,6	246,662
446	256,776
446,5	263,433
446,9	266,519
447,4	276,233
447,8	286,919
448,3	299,49
448,7	312,605
449,2	328,033
449,6	345,605
450,1	362,348
450,6	374,519
451	388,576
451,5	402,805
451,9	417,462
452,4	436,062
452,8	443,748
453,3	463,576
453,7	476,376
454,2	496,462
454,6	514,662
455,1	530,462
455,5	540,405
456	566,233
456,4	578,119
456,9	597,29
457,3	616,862
457,8	631,233
458,3	654,09
458,7	673,576
459,2	689,662
459,6	711,433
460,1	735,919
460,5	749,09
461	776,29
461,4	793,348
461,9	819,948
462,3	848,433
462,8	875,633
463,2	895,262
463,7	922,262
464,1	949,09
464,6	980,176
465	1005,976
465,5	1026,633
466	1052,233
466,4	1081,462
466,9	1110,662
467,3	1134,176
467,8	1162,09
468,2	1187,69
468,7	1215,233
469,1	1244,148
469,6	1270,148
470	1297,49
470,5	1321,776
470,9	1344,576
471,4	1369,348
471,8	1392,805
472,3	1423,29
472,7	1450,69
473,2	1479,948
473,6	1508,633
474,1	1540,462
474,5	1570,29
475	1604,805
475,4	1626,89
475,9	1651,633
476,4	1675,833
476,8	1705,548
477,3	1727,833
477,7	1754,69
478,2	1775,462
478,6	1798,433
479,1	1827,233
479,5	1853,662
480	1875,805
480,4	1905,176
480,9	1930,776
481,3	1957,633
481,8	1986,462
482,2	2002,862
482,7	2024,033
483,1	2047,319
483,6	2064,176
484	2082,262
484,5	2103,69
484,9	2119,433
485,4	2149,833
485,8	2166,519
486,3	2180,319
486,7	2200,49
487,2	2220,919
487,6	2239,833
488,1	2256,89
488,5	2265,348
489	2288,348
489,4	2310,262
489,9	2323,09
490,4	2342,119
490,8	2354,348
491,3	2372,062
491,7	2387,148
492,2	2401,748
492,6	2414,662
493,1	2429,433
493,5	2438,69
494	2445,605
494,4	2454,062
494,9	2464,748
495,3	2474,69
495,8	2487,89
496,2	2500,519
496,7	2503,776
497,1	2524,833
497,6	2534,662
498	2551,976
498,5	2559,405
498,9	2560,262
499,4	2565,119
499,8	2579,69
500,3	2587,576
500,7	2590,29
501,2	2586,776
501,6	2586,376
502,1	2590,09
502,5	2604,148
503	2612,233
503,4	2610,205
503,9	2622,376
504,3	2642,776
504,8	2655,633
505,2	2671,176
505,7	2673,119
506,1	2680,719
506,6	2686,09
507	2695,119
507,5	2693,719
507,9	2698,376
508,4	2705,433
508,8	2706,233
509,3	2709,233
509,7	2716,862
510,2	2723,233
510,6	2730,633
511,1	2738,005
511,5	2738,662
512	2743,376
512,4	2749,748
512,9	2752,976
513,3	2756,89
513,8	2763,776
514,2	2767,605
514,7	2773,833
515,1	2787,262
515,6	2788,176
516	2794,805
516,5	2798,519
516,9	2802,576
517,4	2810,176
517,8	2817,148
518,3	2816,433
518,7	2818,09
519,2	2820,576
519,6	2827,919
520,1	2829,89
520,5	2830,433
521	2832,633
521,4	2838,148
521,9	2854,205
522,3	2863,148
522,8	2867,433
523,2	2875,233
523,7	2885,89
524,1	2891,348
524,6	2897,862
525	2902,405
525,5	2904,719
525,9	2908,033
526,4	2907,862
526,8	2905,49
527,3	2915,462
527,7	2919,833
528,2	2922,605
528,6	2933,376
529,1	2943,976
529,5	2952,548
530	2968,09
530,4	2970,205
530,9	2980,748
531,3	2979,833
531,8	2986,719
532,2	2994,948
532,6	3005,776
533,1	3007,605
533,5	3018,376
534	3026,176
534,4	3036,833
534,9	3046,519
535,3	3048,748
535,8	3048,319
536,2	3061,69
536,7	3066,119
537,1	3072,548
537,6	3079,89
538	3090,119
538,5	3105,405
538,9	3114,433
539,4	3117,862
539,8	3125,062
540,3	3134,462
540,7	3144,348
541,2	3144,805
541,6	3147,69
542,1	3157,033
542,5	3170,233
543	3181,862
543,4	3182,748
543,9	3196,662
544,3	3208,976
544,8	3216,776
545,2	3226,948
545,7	3230,462
546,1	3241,433
546,5	3259,519
547	3261,205
547,4	3270,29
547,9	3277,49
548,3	3289,376
548,8	3302,833
549,2	3305,319
549,7	3307,605
550,1	3323,948
550,6	3331,89
551	3338,633
551,5	3344,29
551,9	3344,348
552,4	3351,148
552,8	3361,69
553,3	3359,89
553,7	3359,89
554,2	3367,89
554,6	3371,719
555,1	3386,233
555,5	3395,633
555,9	3397,748
556,4	3409,862
556,8	3419,605
557,3	3424,148
557,7	3434,719
558,2	3439,919
558,6	3448,262
559,1	3453,948
559,5	3455,319
560	3463,776
560,4	3470,433
560,9	3475,69
561,3	3473,69
561,8	3479,776
562,2	3491,719
562,7	3500,319
563,1	3501,805
563,6	3504,776
564	3506,719
564,4	3514,548
564,9	3511,976
565,3	3514,662
565,8	3514,119
566,2	3524,405
566,7	3529,49
567,1	3534,576
567,6	3534,776
568	3535,176
568,5	3532,119
568,9	3537,862
569,4	3534,062
569,8	3540,519
570,3	3543,776
570,7	3540,748
571,1	3548,205
571,6	3551,662
572	3550,033
572,5	3553,49
572,9	3551,005
573,4	3550,148
573,8	3563,948
574,3	3557,148
574,7	3555,405
575,2	3551,919
575,6	3546,519
576,1	3543,348
576,5	3546,148
576,9	3532,748
577,4	3532,433
577,8	3530,233
578,3	3530,376
578,7	3529,405
579,2	3538,605
579,6	3533,148
580,1	3530,29
580,5	3532,633
581	3528,548
581,4	3529,033
581,9	3526,633
582,3	3510,633
582,7	3504,033
583,2	3502,548
583,6	3490,433
584,1	3492,49
584,5	3485,005
585	3476,348
585,4	3469,776
585,9	3462,005
586,3	3456,919
586,8	3461,29
587,2	3449,862
587,6	3454,433
588,1	3460,862
588,5	3457,233
589	3454,776
589,4	3451,348
589,9	3436,748
590,3	3433,033
590,8	3419,719
591,2	3410,005
591,7	3411,205
592,1	3408,205
592,5	3405,233
593	3410,376
593,4	3406,09
593,9	3398,662
594,3	3386,548
594,8	3378,719
595,2	3369,776
595,7	3367,348
596,1	3354,519
596,6	3350,576
597	3349,576
597,4	3343,519
597,9	3333,49
598,3	3329,833
598,8	3318,805
599,2	3316,719
599,7	3307,576
600,1	3299,748
600,6	3298,062
601	3297,376
601,4	3294,776
601,9	3290,805
602,3	3284,205
602,8	3279,805
603,2	3268,005
603,7	3258,633
604,1	3249,462
604,6	3239,805
605	3229,719
605,4	3217,948
605,9	3207,576
606,3	3196,433
606,8	3185,176
607,2	3167,148
607,7	3155,262
608,1	3145,176
608,6	3139,433
609	3132,719
609,4	3132,176
609,9	3125,119
610,3	3119,319
610,8	3107,262
611,2	3101,205
611,7	3089,633
612,1	3074,662
612,6	3059,748
613	3048,176
613,4	3036,833
613,9	3027,119
614,3	3014,376
614,8	3002,49
615,2	2994,205
615,7	2990,233
616,1	2976,262
616,6	2963,576
617	2950,29
617,4	2939,605
617,9	2927,748
618,3	2914,919
618,8	2896,433
619,2	2892,319
619,7	2888,605
620,1	2879,376
620,5	2866,605
621	2854,548
621,4	2848,833
621,9	2841,062
622,3	2830,148
622,8	2813,605
623,2	2800,29
623,6	2791,405
624,1	2775,605
624,5	2755,348
625	2742,062
625,4	2722,89
625,9	2714,205
626,3	2699,176
626,8	2678,348
627,2	2672,519
627,6	2656,862
628,1	2641,062
628,5	2631,319
629	2612,348
629,4	2606,148
629,9	2591,605
630,3	2577,776
630,7	2566,69
631,2	2556,233
631,6	2543,719
632,1	2532,319
632,5	2512,662
633	2502,919
633,4	2487,719
633,8	2475,09
634,3	2455,462
634,7	2441,433
635,2	2427,119
635,6	2418,633
636,1	2410,348
636,5	2395,719
636,9	2381,805
637,4	2371,605
637,8	2352,805
638,3	2341,662
638,7	2330,062
639,2	2311,548
639,6	2306,633
640	2296,919
640,5	2288,433
640,9	2278,176
641,4	2265,005
641,8	2246,948
642,2	2236,805
642,7	2220,919
643,1	2210,119
643,6	2201,119
644	2193,948
644,5	2185,49
644,9	2179,633
645,3	2170,862
645,8	2161,148
646,2	2149,605
646,7	2133,69
647,1	2123,89
647,6	2116,919
648	2105,462
648,4	2087,576
648,9	2078,376
649,3	2068,205
649,8	2061,433
650,2	2051,09
650,6	2040,176
651,1	2026,233
651,5	2021,148
652	2010,433
652,4	1994,49
652,9	1984,605
653,3	1973,519
653,7	1961,919
654,2	1952,033
654,6	1941,976
655,1	1930,976
655,5	1930,005
655,9	1917,319
656,4	1904,148
656,8	1893,605
657,3	1883,519
657,7	1873,748
658,2	1856,376
658,6	1841,319
659	1828,748
659,5	1815,633
659,9	1799,833
660,4	1789,29
660,8	1773,433
661,2	1762,348
661,7	1746,433
662,1	1731,662
662,6	1725,233
663	1714,919
663,4	1703,405
663,9	1692,662
664,3	1682,119
664,8	1674,29
665,2	1666,976
665,6	1649,062
666,1	1638,09
666,5	1629,748
667	1621,662
667,4	1611,748
667,9	1600,176
668,3	1590,49
668,7	1582,748
669,2	1575,69
669,6	1564,119
670,1	1556,633
670,5	1548,633
670,9	1536,976
671,4	1525,033
671,8	1519,005
672,3	1511,29
672,7	1504,49
673,1	1490,405
673,6	1478,69
674	1471,205
674,5	1461,49
674,9	1444,919
675,3	1429,233
675,8	1416,548
676,2	1407,119
676,7	1400,433
677,1	1394,462
677,5	1383,948
678	1377,09
678,4	1369,89
678,9	1361,148
679,3	1355,29
679,7	1343,433
680,2	1327,148
680,6	1319,119
681,1	1314,29
681,5	1307,805
681,9	1298,09
682,4	1287,205
682,8	1280,176
683,3	1279,805
683,7	1271,148
684,1	1260,49
684,6	1250,033
685	1243,605
685,5	1234,433
685,9	1222,29
686,3	1210,948
686,8	1202,576
687,2	1201,919
687,7	1189,69
688,1	1178,805
688,5	1173,119
689	1169,148
689,4	1158,376
689,9	1148,862
690,3	1131,062
690,7	1130,119
691,2	1126,862
691,6	1121,69
692	1113,29
692,5	1106,433
692,9	1099,09
693,4	1095,348
693,8	1086,005
694,2	1077,862
694,7	1067,148
695,1	1061,919
695,6	1057,662
696	1053,719
696,4	1046,005
696,9	1034,605
697,3	1024,319
697,8	1016,576
698,2	1006,205
698,6	1000,319
699,1	991,462
699,5	988,805
699,9	983,748
700,4	974,005
700,8	970,319
701,3	966,805
701,7	956,89
702,1	954,319
702,6	943,805
703	939,662
703,5	937,09
703,9	925,49
704,3	919,69
704,8	912,033
705,2	898,805
705,6	889,148
706,1	883,405
706,5	873,29
707	870,576
707,4	866,805
707,8	859,49
708,3	861,433
708,7	861,176
709,2	857,033
709,6	852,462
710	847,919
710,5	835,205
710,9	831,148
711,3	821,833
711,8	812,919
712,2	806,976
712,7	798,976
713,1	795,29
713,5	792,862
714	788,29
714,4	781,605
714,8	779,176
715,3	771,862
715,7	771,69
716,2	761,148
716,6	753,433
717	748,062
717,5	743,776
717,9	741,005
718,3	733,09
718,8	725,205
719,2	720,319
719,7	717,633
720,1	716,205
720,5	712,833
721	701,062
721,4	699,319
721,8	695,348
722,3	687,405
722,7	684,376
723,2	669,348
723,6	652,948
724	646,748
724,5	636,948
724,9	628,033
725,3	626,262
725,8	616,948
726,2	620,948
726,7	626,005
727,1	620,233
727,5	620,748
728	619,176
728,4	618,433
728,8	615,69
729,3	608,49
729,7	600,376
730,1	600,462
730,6	594,605
731	587,89
731,5	582,29
731,9	576,633
732,3	574,862
732,8	573,176
733,2	571,976
733,6	566,033
734,1	566,29
734,5	563,548
734,9	567,576
735,4	565,776
735,8	560,405
736,3	558,948
736,7	556,89
737,1	556,033
737,6	551,29
738	543,633
738,4	535,748
738,9	531,376
739,3	521,29
739,7	517,148
740,2	510,69
740,6	510,69
741,1	508,176
741,5	503,176
741,9	506,033
742,4	507,919
742,8	504,69
743,2	500,405
743,7	486,633
744,1	479,376
744,5	478,862
745	468,976
745,4	458,748
745,8	454,205
746,3	450,662
746,7	453,033
747,2	449,519
747,6	445,519
748	451,519
748,5	454,833
748,9	451,576
749,3	453,09
749,8	453,519
750,2	453,119
750,6	450,519
751,1	445,776
751,5	440,176
751,9	439,776
752,4	436,862
752,8	430,148
753,3	424,29
753,7	427,805
754,1	415,805
754,6	409,49
755	405,233
755,4	400,805
755,9	399,49
756,3	395,833
756,7	388,319
757,2	391,69
757,6	394,605
758	392,519
758,5	389,348
758,9	385,548
759,3	386,233
759,8	381,148
760,2	376,69
760,6	369,69
761,1	368,49
761,5	363,205
761,9	357,233
762,4	351,348
762,8	350,119
763,3	351,576
763,7	352,005
764,1	347,405
764,6	347,576
765	352,119
765,4	354,89
765,9	357,633
766,3	354,89
766,7	347,348
767,2	341,148
767,6	343,69
768	339,605
768,5	333,748
768,9	327,462
769,3	325,148
769,8	323,119
770,2	324,09
770,6	317,805
771,1	320,062
771,5	319,805
771,9	319,862
772,4	319,89
772,8	320,376
773,2	322,576
773,7	319,176
774,1	312,005
774,5	306,548
775	298,176
775,4	294,833
775,8	290,548
776,3	289,548
776,7	285,548
777,1	282,176
777,6	286,719
778	291,033
778,4	287,319
778,9	289,862
779,3	286,376
779,7	289,89
780,2	290,005
780,6	285,462
781	278,405
781,5	275,919
781,9	273,005
782,3	265,976
782,8	259,262
783,2	257,119
783,6	253,462
784,1	253,319
784,5	252,062
784,9	249,376
785,4	251,205
785,8	249,09
786,2	248,462
786,7	248,233
787,1	245,89
787,5	241,833
788	240,233
788,4	238,662
788,8	239,005
789,3	235,462
789,7	236,633
790,1	238,319
790,6	241,376
791	239,233
791,4	240,69
791,9	237,29
792,3	233,548
792,7	233,148
793,2	222,576
793,6	220,548
794	218,405
794,5	211,919
794,9	215,833
795,3	216,119
795,8	208,29
796,2	210,09
796,6	207,633
797,1	204,176
797,5	198,29
797,9	189,49
798,4	185,748
798,8	187,09
799,2	188,033
799,7	192,49
800,1	194,862
800,5	198,662
801	201,033
801,4	197,09
801,8	193,005
802,2	191,662
802,7	183,833
803,1	181,348
803,5	179,748
804	176,862
804,4	183,919
804,8	183,49
805,3	183,805
805,7	183,376
806,1	183,576
806,6	183,776
807	183,805
807,4	175,633
807,9	171,062
808,3	169,233
808,7	163,176
809,2	159,633
809,6	159,605
810	157,262
810,4	158,633
810,9	160,519
811,3	158,576
811,7	162,176
812,2	165,233
812,6	160,576
813	163,119
813,5	164,776
813,9	166,262
814,3	161,69
814,8	157,719
815,2	155,29
815,6	152,376
816,1	152,319
816,5	147,548
816,9	143,433
817,3	144,233
817,8	148,09
818,2	147,376
818,6	144,09
819,1	141,405
819,5	142,262
819,9	144,548
820,4	144,148
820,8	135,033
821,2	129,633
821,7	135,176
822,1	134,233
822,5	133,805
822,9	129,776
823,4	128,233
823,8	133,433
824,2	135,433
824,7	132,09
825,1	125,29
825,5	118,148
826	116,062
826,4	115,919
826,8	112,09
827,3	110,662
827,7	107,205
828,1	105,719
828,5	107,376
829	102,605
829,4	103,119
829,8	98,662
830,3	99,348
830,7	99,176
831,1	105,519
831,6	106,919
832	111,062
832,4	107,376
832,8	108,719
833,3	107,919
833,7	106,548
834,1	101,462
834,6	95,29
835	96,148
835,4	100,148
835,8	97,405
836,3	93,405
836,7	94,662
837,1	92,776
837,6	99,833
838	96,662
838,4	92,719
838,9	94,805
839,3	95,976
839,7	97,005
840,1	91,09
840,6	84,405
841	83,433
841,4	85,376
841,9	86,405
842,3	84,29
842,7	82,233
843,1	89,405
843,6	96,29
844	99,119
844,4	98,433
844,9	98,719
845,3	99,776
845,7	96,29
846,2	93,09
846,6	83,719
847	82,976
847,4	84,319
847,9	85,462
848,3	81,49
848,7	84,633
849,2	82,49
849,6	84,633
850	86,119
850,4	80,976
850,9	78,376
851,3	81,69
851,7	81,319
852,2	79,205
852,6	81,633
853	79,862
853,4	81,319
853,9	77,176
854,3	76,033
854,7	73,662
855,2	77,119
855,6	75,119
856	73,976
856,4	68,119
856,9	66,376
857,3	68,348
857,7	69,205
858,2	71,948
858,6	70,833
859	71,49
859,4	74,948
859,9	78,29
860,3	74,405
860,7	75,262
861,1	75,09
861,6	71,005
862	68,005
862,4	66,205
862,9	64,033
863,3	62,29
863,7	56,976
864,1	54,062
864,6	55,29
865	53,633
865,4	57,005
865,9	57,062
866,3	53,633
866,7	53,662
867,1	51,519
867,6	53,119
868	51,948
868,4	45,833
868,8	48,262
869,3	47,919
869,7	53,719
870,1	49,148
870,6	46,548
871	-25,138
871,4	-15,052
871,8	-20,138
872,3	-13,224
872,7	-18,424
873,1	-12,195
873,5	-9,595
874	58,348
874,4	50,576
874,8	48,548
875,3	46,033
875,7	43,548
876,1	40,519
876,5	39,462
877	42,719
877,4	41,833
877,8	45,433
878,2	48,405
878,7	54,205
879,1	53,519
879,5	50,49
879,9	51,776
880,4	53,919
880,8	56,062
881,2	49,119
881,7	39,748
882,1	42,433
882,5	45,719
882,9	43,862
883,4	41,176
883,8	43,576
884,2	46,148
884,6	48,09
885,1	46,519
885,5	44,176
885,9	45,719
886,3	48,833
886,8	41,976
887,2	41,319
887,6	42,29
888	42,233
888,5	42,69
888,9	38,176
889,3	32,633
889,8	35,548
890,2	32,376
890,6	30,319
891	29,919
891,5	27,148
891,9	29,633
892,3	32,233
892,7	28,862
893,2	32,119
893,6	36,176
894	35,633
894,4	33,033
894,9	32,233
895,3	32,862
895,7	38,405
896,1	36,548
896,6	37,633
897	40,662
897,4	47,919
897,8	47,519
898,3	46,576
898,7	41,748
899,1	41,748
899,5	39,119
900	29,948
900,4	27,119
900,8	24,376
901,2	22,376
901,7	22,005
902,1	22,462
902,5	24,833
902,9	28,776
903,4	28,862
903,8	30,833
904,2	29,633
904,6	29,805
905,1	32,062
905,5	27,29
905,9	28,919
906,3	33,062
906,8	35,119
907,2	36,805
907,6	35,176
908	35,376
908,5	37,005
908,9	33,176
909,3	26,319
909,7	24,148
910,2	22,062
910,6	26,948
911	22,405
911,4	24,89
911,9	24,833
912,3	29,376
912,7	31,69
913,1	34,005
913,6	23,662
914	23,89
914,4	22,976
914,8	24,319
915,3	19,605
915,7	16,69
916,1	12,919
916,5	19,176
916,9	19,062
917,4	18,005
917,8	18,948
918,2	18,605
918,6	12,948
919,1	16,062
919,5	20,29
919,9	19,662
920,3	15,605
920,8	15,176
921,2	14,348
921,6	20,348
922	21,919
922,5	16,462
922,9	22,176
923,3	26,233
923,7	27,69
924,2	28,548
924,6	28,233
925	27,576
925,4	26,719
925,8	23,233
926,3	20,862
926,7	15,005
927,1	12,519
927,5	13,548
928	10,89
928,4	11,605
928,8	14,005
929,2	16,033
929,7	21,976
930,1	23,433
930,5	22,633
930,9	24,376
931,3	25,062
931,8	21,29
932,2	22,69
932,6	18,833
933	13,319
933,5	15,576
933,9	18,005
934,3	19,262
934,7	13,462
935,2	11,176
935,6	12,319
936	18,433
936,4	16,005
936,8	9,29
937,3	6,29
937,7	11,319
938,1	13,948
938,5	11,948
939	13,233
939,4	13,033
939,8	15,29
940,2	17,805
940,6	19,805
941,1	18,748
941,5	24,919
941,9	21,919
942,3	18,605
942,8	17,376
943,2	20,319
943,6	19,005
944	18,119
944,4	14,519
944,9	12,662
945,3	14,919
945,7	15,405
946,1	8,376
946,6	4,805
947	2,29
947,4	5,862
947,8	11,348
948,2	12,805
948,7	14,376
949,1	17,748
949,5	24,633
949,9	26,033
950,3	21,548
950,8	19,205
951,2	13,033
951,6	10,805
952	12,576
952,5	5,176
952,9	3,862
953,3	7,776
953,7	7,776
954,1	14,776
954,6	15,633
955	13,576
955,4	14,319
955,8	18,119
956,2	14,348
956,7	14,719
957,1	10,062
957,5	11,262
957,9	9,033
958,3	9,405
958,8	7,205
959,2	11,776
959,6	15,519
960	17,319
960,5	18,776
960,9	20,376
961,3	20,433
961,7	19,348
962,1	15,09
962,6	11,176
963	6,205
963,4	0,462
963,8	-2,138
964,2	0,205
964,7	0,805
965,1	3,29
965,5	3,948
965,9	7,89
966,3	14,605
966,8	17,376
967,2	14,205
967,6	13,233
968	7,519
968,4	11,548
968,9	12,633
969,3	14,405
969,7	12,29
970,1	16,748
970,5	19,062
971	26,605
971,4	21,548
971,8	20,719
972,2	14,776
972,6	16,376
973,1	16,89
973,5	18,576
973,9	16,462
974,3	16,462
974,7	22,29
975,2	26,233
975,6	23,519
976	20,548
976,4	14,148
976,8	10,805
977,3	10,348
977,7	4,662
978,1	2,09
978,5	0,205
978,9	-2,167
979,4	-2,081
979,8	-0,91
980,2	1,433
980,6	-1,652
981	-2,31
981,5	0,148
981,9	1,348
982,3	3,805
982,7	3,405
983,1	-0,281
983,6	3,519
984	6,919
984,4	10,376
984,8	10,09
985,2	11,119
985,6	6,69
986,1	8,29
986,5	10,348
986,9	4,833
987,3	3,033
987,7	1,405
988,2	0,605
988,6	6,233
989	8,948
989,4	6,205
989,8	5,89
990,3	5,462
990,7	8,062
991,1	7,205
991,5	6,919
991,9	7,519
992,3	11,862
992,8	16,519
993,2	16,376
993,6	18,09
994	18,462
994,4	17,49
994,9	15,576
995,3	11,919
995,7	7,262
996,1	7,976
996,5	6,576
996,9	5,433
997,4	6,09
997,8	2,262
998,2	0,09
998,6	-2,967
999	-2,31
999,5	-3,11
999,9	-2,195
1000,3	-4,481
1000,7	0,433
1001,1	-0,252
1001,5	7,605
1002	8,719
1002,4	9,805
1002,8	10,319
1003,2	13,062
1003,6	11,148
1004	15,89
1004,5	10,376
1004,9	8,348
1005,3	7,033
1005,7	10,262
1006,1	10,948
1006,6	9,348
1007	9,005
1007,4	11,005
1007,8	9,805
1008,2	6,519
1008,6	5,662
1009,1	3,348
1009,5	6,833
1009,9	6,348
1010,3	8,233
1010,7	12,176
1011,1	16,948
1011,6	17,119
1012	21,662
1012,4	19,348
1012,8	16,576
1013,2	16,29
1013,6	11,462
1014,1	9,662
1014,5	7,69
1014,9	1,919
1015,3	2,69
1015,7	3,005
1016,1	6,948
1016,6	10,376
1017	14,119
1017,4	16,348
1017,8	22,348
1018,2	23,176
1018,6	20,033
1019,1	13,69
1019,5	7,548
1019,9	2,262
1020,3	0,233
1020,7	-1,31
1021,1	-4,252
1021,6	-1,767
1022	4,376
1022,4	10,09
1022,8	13,862
1023,2	11,69
1023,6	7,433
1024,1	13,433
1024,5	15,405
1024,9	6,376
1025,3	5,119
1025,7	7,405
1026,1	11,433
1026,6	10,833
1027	4,805
1027,4	5,833
1027,8	7,748
1028,2	3,49
1028,6	4,262
1029	4,062
1029,5	9,176
1029,9	5,49
1030,3	1,348
1030,7	3,548
1031,1	8,833
1031,5	2,148
1032	-0,281
1032,4	-3,138
1032,8	7,748
1033,2	8,748
1033,6	4,89
1034	7,376
1034,4	13,376
1034,9	14,29
1035,3	12,148
1035,7	7,576
1036,1	9,919
1036,5	9,919
1036,9	6,948
1037,4	6,29
1037,8	-0,538
1038,2	1,033
1038,6	-0,824
1039	1,89
1039,4	9,748
1039,8	6,862
1040,3	4,776
1040,7	6,776
1041,1	11,776
1041,5	15,233
1041,9	9,919
1042,3	8,29
1042,7	11,862
1043,2	9,919
1043,6	12,09
1044	6,948
1044,4	4,09
1044,8	5,433
1045,2	2,319
1045,6	2,548
1046,1	4,348
1046,5	7,548
1046,9	6,919
1047,3	6,262
1047,7	6,062
1048,1	8,148
1048,5	4,919
1049	8,576
1049,4	10,262
1049,8	12,433
1050,2	13,776
1050,6	17,433
1051	12,89
1051,4	14,462
1051,9	7,033
1052,3	8,948
1052,7	9,805
1053,1	6,09
1053,5	7,976
1053,9	8,69
1054,3	9,719
1054,8	18,348
1055,2	17,462
1055,6	14,205
1056	17,148
1056,4	12,662
1056,8	15,805
1057,2	18,262
1057,6	11,69
1058,1	7,89
1058,5	8,519
1058,9	10,919
1059,3	10,605
1059,7	13,462
1060,1	11,605
1060,5	15,348
1061	16,519
1061,4	20,662
1061,8	17,348
1062,2	16,776
1062,6	14,662
1063	14,548
1063,4	9,919
1063,8	8,319
1064,3	3,662
1064,7	6,976
1065,1	8,719
1065,5	10,119
1065,9	5,69
1066,3	9,89
1066,7	8,233
1067,1	7,519
1067,6	10,576
1068	5,49
1068,4	3,576
1068,8	8,662
1069,2	7,548
1069,6	10,262
1070	12,948
1070,4	11,033
1070,9	11,862
1071,3	12,662
1071,7	8,548
1072,1	6,69
1072,5	3,033
1072,9	4,262
1073,3	4,69
1073,7	5,805
1074,2	3,862
1074,6	6,976
1075	7,919
1075,4	10,29
1075,8	11,862
1076,2	9,176
1076,6	13,748
1077	11,205
1077,5	15,205
1077,9	11,948
1078,3	9,233
1078,7	5,462
1079,1	5,062
1079,5	2,719
1079,9	5,89
1080,3	2,319
1080,7	8,662
1081,2	15,862
1081,6	13,262
1082	10,69
1082,4	14,319
1082,8	14,576
1083,2	12,919
1083,6	10,348
1084	7,776
1084,5	12,29
1084,9	9,262
1085,3	3,262
1085,7	3,69
1086,1	3,119
1086,5	3,033
1086,9	3,319
1087,3	2,548
1087,7	5,89
1088,2	5,548
1088,6	2,576
1089	1,633
1089,4	1,119
1089,8	-2,738
1090,2	-6,395
1090,6	-5,024
1091	1,29
1091,4	7,176
1091,9	10,862
1092,3	13,662
1092,7	12,748
1093,1	19,633
1093,5	19,033
1093,9	14,376
1094,3	15,205
1094,7	14,119
1095,1	8,662
1095,5	13,319
1096	9,348
1096,4	5,262
1096,8	4,89
1097,2	-1,452
1097,6	0,805
1098	2,119
1098,4	3,519
1098,8	5,348
1099,2	19,005
1099,6	18,148
1100,1	17,605
1100,5	15,205
1100,9	15,519
1101,3	13,89
1101,7	11,176
1102,1	3,89
1102,5	5,376
1102,9	8,49
1103,3	12,462
1103,7	16,005
1104,2	12,833
1104,6	12,833
1105	9,49
1105,4	9,376
1105,8	6,862
1106,2	1,633
1106,6	-1,881
1107	-0,881
1107,4	-1,267
1107,8	0,233
1108,3	-0,317
