Data from Subt2_008.txt Node
Date: Sat Aug 26 16:11:59 MSK 2023
User: vat
Spectrometer: MAYP114033
Trigger mode: 0
Integration Time (sec): 1,000000E0
Scans to average: 5
Electric dark correction enabled: true
Nonlinearity correction enabled: false
Boxcar width: 3
XAxis mode: Wavelengths
Number of Pixels in Spectrum: 2068
>>>>>Begin Spectral Data<<<<<
199,4	-1
199,9	0,36
200,4	-0,833
200,8	-1,543
201,3	-2,2
201,8	-0,857
202,2	0,343
202,7	1,886
203,2	2,914
203,6	3,943
204,1	10,543
204,6	12,771
205	13,314
205,5	14,429
206	10,857
206,4	6,886
206,9	8,714
207,4	3,714
207,8	7,229
208,3	4,286
208,8	3,771
209,2	4,743
209,7	6,571
210,2	7,229
210,6	3,6
211,1	2,886
211,5	2,257
212	2,457
212,5	3,343
212,9	5,314
213,4	-0,029
213,9	4,886
214,3	1,029
214,8	7,657
215,3	9,714
215,7	13,457
216,2	13,143
216,7	15,343
217,1	10,257
217,6	11,4
218,1	7,857
218,5	2,257
219	-1,143
219,5	-2,486
219,9	-3,2
220,4	0,486
220,9	-3,4
221,3	-3,829
221,8	-4,714
222,3	-5,114
222,7	-2,686
223,2	0,343
223,6	5,4
224,1	8,971
224,6	5,514
225	12,029
225,5	12,171
226	7,971
226,4	7,057
226,9	3,029
227,4	4,114
227,8	6,143
228,3	2,429
228,8	6,314
229,2	9,571
229,7	5,029
230,2	2,714
230,6	3,457
231,1	8,4
231,5	10,886
232	8,657
232,5	10,629
232,9	16,6
233,4	17,086
233,9	13,114
234,3	6,829
234,8	7,914
235,3	11,571
235,7	8,486
236,2	7,286
236,7	4,629
237,1	3,829
237,6	7,971
238,1	4,971
238,5	-0,714
239	2,429
239,4	1,057
239,9	0,6
240,4	4,114
240,8	1,6
241,3	0,057
241,8	2,657
242,2	0,286
242,7	4,143
243,2	10,514
243,6	9,514
244,1	8,743
244,6	8,829
245	3,886
245,5	4,171
245,9	2,429
246,4	1,429
246,9	3,429
247,3	3,657
247,8	1,457
248,3	2,857
248,7	6,143
249,2	3,429
249,7	3,686
250,1	4,4
250,6	3,171
251	5,6
251,5	10,914
252	9,686
252,4	12,457
252,9	7,086
253,4	6,686
253,8	10,371
254,3	12,086
254,8	7,657
255,2	3,143
255,7	-1,057
256,1	3,686
256,6	1,743
257,1	2,886
257,5	0,286
258	2,371
258,5	2,114
258,9	6,171
259,4	0,2
259,9	-3,543
260,3	-5,143
260,8	0,629
261,2	0,629
261,7	1,229
262,2	0,771
262,6	3
263,1	8,4
263,6	8,4
264	5,971
264,5	3,686
264,9	5,114
265,4	4,543
265,9	8,2
266,3	6,743
266,8	4,029
267,3	-3,2
267,7	-3,857
268,2	-5,229
268,7	-6,543
269,1	-8,4
269,6	-12,857
270	-7,229
270,5	-2,829
271	-1,571
271,4	1,457
271,9	4,286
272,4	5,571
272,8	11,4
273,3	6,229
273,7	7,657
274,2	6,029
274,7	7,657
275,1	7,057
275,6	4,343
276,1	3,771
276,5	6,086
277	5,457
277,4	5,486
277,9	1,4
278,4	3,229
278,8	3,229
279,3	3,029
279,8	1,229
280,2	5,171
280,7	10,114
281,1	10,114
281,6	5,343
282,1	5,086
282,5	3,771
283	9,971
283,4	2,543
283,9	-3,114
284,4	-4,629
284,8	0,6
285,3	2,171
285,8	-2,171
286,2	-8,686
286,7	-11,771
287,1	-5,229
287,6	-4,8
288,1	-8,343
288,5	-9,8
289	-2,914
289,5	0,4
289,9	5
290,4	-0,886
290,8	1,171
291,3	2,4
291,8	4,2
292,2	5,2
292,7	4,314
293,1	3,743
293,6	5,143
294,1	7,371
294,5	7,6
295	10,143
295,5	5,286
295,9	2,029
296,4	4,114
296,8	9,143
297,3	13,171
297,8	9,4
298,2	6,6
298,7	10,771
299,1	14,4
299,6	14,8
300,1	14,743
300,5	11,143
301	13
301,5	13
301,9	11,486
302,4	7,143
302,8	8,886
303,3	5,114
303,8	0,286
304,2	0,743
304,7	4,943
305,1	4,857
305,6	11,229
306,1	9,571
306,5	6,886
307	7,257
307,4	5,714
307,9	4,714
308,4	2,114
308,8	0,914
309,3	3,229
309,8	8,457
310,2	9,429
310,7	10,914
311,1	9,771
311,6	10,257
312,1	8,429
312,5	6,571
313	3,343
313,4	4,486
313,9	7,543
314,4	8,029
314,8	11,714
315,3	9,314
315,7	7,257
316,2	8,314
316,7	4,257
317,1	4,886
317,6	3,343
318	0,143
318,5	3,514
319	8,543
319,4	4,429
319,9	4,971
320,3	0,514
320,8	0,286
321,3	1,6
321,7	0,143
322,2	-5,257
322,6	-1,171
323,1	2,8
323,6	2,8
324	4,914
324,5	9,857
324,9	7,657
325,4	14,257
325,9	11,486
326,3	10
326,8	9,971
327,2	6,829
327,7	-0,371
328,2	-0,943
328,6	-2,514
329,1	-4,943
329,5	-4,8
330	-5,886
330,5	-5,257
330,9	-4,829
331,4	-2,314
331,8	-2,314
332,3	3,829
332,8	7,6
333,2	7,629
333,7	13,029
334,1	13,629
334,6	14,657
335,1	12,857
335,5	11,686
336	7,314
336,4	9,914
336,9	4,314
337,4	6,057
337,8	5,571
338,3	6,514
338,7	4,714
339,2	1,914
339,7	-3,971
340,1	-0,857
340,6	-4,171
341	-2,771
341,5	-2,8
342	3,743
342,4	14,886
342,9	25,257
343,3	20,286
343,8	22,4
344,2	19,257
344,7	17,714
345,2	15,2
345,6	9,771
346,1	4,914
346,5	8,543
347	9,286
347,5	13,343
347,9	18,914
348,4	17,257
348,8	20,886
349,3	23,029
349,8	23,4
350,2	27,943
350,7	31,6
351,1	32,2
351,6	42,914
352	49,029
352,5	61,943
353	76,686
353,4	88,514
353,9	105,886
354,3	135,914
354,8	159,8
355,3	190,057
355,7	224,257
356,2	272,6
356,6	329,714
357,1	394,657
357,5	458,057
358	542,6
358,5	639,286
358,9	750,457
359,4	870,857
359,8	1003,543
360,3	1161,029
360,8	1336,6
361,2	1530,943
361,7	1750,371
362,1	1991,457
362,6	2248,086
363	2530,143
363,5	2820,286
364	3133,971
364,4	3454,314
364,9	3775,714
365,3	4092,486
365,8	4402,171
366,3	4691,914
366,7	4954,629
367,2	5175,571
367,6	5365,057
368,1	5506,543
368,5	5601,343
369	5649,171
369,5	5650,771
369,9	5613,371
370,4	5532,171
370,8	5408,114
371,3	5251,171
371,7	5064,8
372,2	4856,229
372,7	4631,771
373,1	4384,2
373,6	4138,2
374	3882,143
374,5	3626,943
374,9	3377,171
375,4	3136,886
375,9	2897,2
376,3	2673,4
376,8	2457,743
377,2	2255,514
377,7	2072,086
378,2	1898,657
378,6	1739,143
379,1	1596,886
379,5	1463,543
380	1340,229
380,4	1230,4
380,9	1124,657
381,4	1034,543
381,8	947,057
382,3	869,743
382,7	806,086
383,2	747,543
383,6	693,829
384,1	645,6
384,6	599,514
385	559,171
385,5	517,657
385,9	474,714
386,4	439,571
386,8	410,686
387,3	380,914
387,7	351,771
388,2	324,457
388,7	304,914
389,1	286,086
389,6	265,943
390	244,514
390,5	228,114
390,9	211,771
391,4	200,229
391,9	187,943
392,3	177,514
392,8	165,571
393,2	152,371
393,7	143,114
394,1	134,314
394,6	123,686
395,1	114,143
395,5	108,286
396	104,686
396,4	100,171
396,9	94,771
397,3	93,6
397,8	92,486
398,2	89,057
398,7	83,086
399,2	76,2
399,6	73,543
400,1	69,486
400,5	64,714
401	58,086
401,4	55,971
401,9	52,886
402,4	52,914
402,8	51,029
403,3	50,429
403,7	53,686
404,2	59,143
404,6	60,057
405,1	59,686
405,5	64,8
406	65,743
406,5	68,829
406,9	68,514
407,4	64,943
407,8	68,229
408,3	72,743
408,7	71,057
409,2	77,543
409,6	83,314
410,1	88,743
410,6	92,057
411	94,971
411,5	104,286
411,9	112,8
412,4	122,086
412,8	128,8
413,3	136,514
413,7	147,771
414,2	159,343
414,7	163,257
415,1	166,057
415,6	171,486
416	173,714
416,5	181,486
416,9	191,514
417,4	196
417,8	205,486
418,3	219,371
418,8	233,229
419,2	251,657
419,7	262,029
420,1	273,286
420,6	293,886
421	307,343
421,5	321,771
421,9	331,8
422,4	344,8
422,8	365,171
423,3	386,629
423,8	398,686
424,2	415,829
424,7	437,743
425,1	459,743
425,6	478,371
426	499,171
426,5	520,914
426,9	545,886
427,4	579,2
427,9	601,029
428,3	631,029
428,8	668,257
429,2	703,771
429,7	735,4
430,1	775,943
430,6	811,914
431	856,086
431,5	897,171
431,9	938,143
432,4	980,743
432,8	1029,6
433,3	1071,629
433,8	1121,314
434,2	1171,457
434,7	1222,514
435,1	1284
435,6	1337,571
436	1402,2
436,5	1470,857
436,9	1536,6
437,4	1608,229
437,8	1688,286
438,3	1759,829
438,8	1843,8
439,2	1924,857
439,7	2005,771
440,1	2097,771
440,6	2186,714
441	2285,143
441,5	2380,886
441,9	2479,257
442,4	2588,8
442,8	2707,2
443,3	2817,029
443,7	2940,086
444,2	3050,286
444,7	3177,8
445,1	3304,343
445,6	3432,371
446	3552,686
446,5	3689,229
446,9	3826,171
447,4	3982,857
447,8	4132,971
448,3	4287,486
448,7	4438,943
449,2	4608,114
449,6	4767,714
450,1	4932,257
450,6	5092,629
451	5261,229
451,5	5442,4
451,9	5627,771
452,4	5798,886
452,8	5997,971
453,3	6194,343
453,7	6386,914
454,2	6583,029
454,6	6781,257
455,1	6978,829
455,5	7193,4
456	7395,743
456,4	7603,657
456,9	7830,714
457,3	8051,657
457,8	8270,257
458,3	8488,971
458,7	8721,286
459,2	8951,543
459,6	9174,629
460,1	9386,257
460,5	9613,2
461	9846,543
461,4	10082,943
461,9	10314,771
462,3	10546,371
462,8	10787,229
463,2	11027,486
463,7	11269,486
464,1	11510,314
464,6	11752,514
465	11977,943
465,5	12215,571
466	12462,029
466,4	12700,6
466,9	12938,4
467,3	13169,914
467,8	13405,343
468,2	13652,2
468,7	13887,8
469,1	14119,8
469,6	14349,771
470	14582,714
470,5	14817,514
470,9	15046,114
471,4	15270,229
471,8	15485,371
472,3	15690,257
472,7	15908,257
473,2	16110,143
473,6	16300,829
474,1	16496,143
474,5	16687,943
475	16884,457
475,4	17093,543
475,9	17280,886
476,4	17472,857
476,8	17644,514
477,3	17816,029
477,7	17988,343
478,2	18146,4
478,6	18300,486
479,1	18454,571
479,5	18593,4
480	18741,4
480,4	18888,286
480,9	19013,657
481,3	19154,2
481,8	19263,857
482,2	19369,057
482,7	19475,629
483,1	19590
483,6	19670,8
484	19766,4
484,5	19837,114
484,9	19915,086
485,4	19981,057
485,8	20039,943
486,3	20097,371
486,7	20153,143
487,2	20197,143
487,6	20237,543
488,1	20272
488,5	20296,714
489	20310,714
489,4	20317,143
489,9	20314
490,4	20303,943
490,8	20296,2
491,3	20264,743
491,7	20251,257
492,2	20244,371
492,6	20210
493,1	20179,771
493,5	20138,657
494	20085,457
494,4	20039,314
494,9	19979,686
495,3	19909,714
495,8	19836,371
496,2	19765,314
496,7	19699,6
497,1	19627,229
497,6	19562,743
498	19480,229
498,5	19391,6
498,9	19303
499,4	19217,629
499,8	19113,429
500,3	19008,829
500,7	18906,886
501,2	18802,571
501,6	18706,514
502,1	18603,343
502,5	18498,171
503	18404,8
503,4	18308,057
503,9	18184,343
504,3	18076,143
504,8	17947,114
505,2	17834,943
505,7	17698,6
506,1	17551,4
506,6	17401,486
507	17266,2
507,5	17130,714
507,9	16989,171
508,4	16844,2
508,8	16710,857
509,3	16575,371
509,7	16446,971
510,2	16315,4
510,6	16179,943
511,1	16046,914
511,5	15910,086
512	15763,571
512,4	15625,371
512,9	15470,8
513,3	15322,514
513,8	15172,543
514,2	15026
514,7	14880,2
515,1	14736,257
515,6	14585,486
516	14444,543
516,5	14288,457
516,9	14136,629
517,4	13984,143
517,8	13834,229
518,3	13693,429
518,7	13557,457
519,2	13417,257
519,6	13287,657
520,1	13142,514
520,5	12996,257
521	12850,514
521,4	12710,314
521,9	12569,086
522,3	12431,343
522,8	12283,514
523,2	12146,257
523,7	12023,686
524,1	11894,914
524,6	11760,457
525	11627,6
525,5	11493,371
525,9	11377,514
526,4	11257,371
526,8	11133,486
527,3	11011,429
527,7	10880,143
528,2	10764,171
528,6	10646,114
529,1	10523,114
529,5	10406,743
530	10294,8
530,4	10185,829
530,9	10081,286
531,3	9965,286
531,8	9855,4
532,2	9744,114
532,6	9642,114
533,1	9531,114
533,5	9418,057
534	9313,2
534,4	9200,429
534,9	9104,371
535,3	8999,514
535,8	8891,343
536,2	8796,314
536,7	8700,886
537,1	8607,971
537,6	8529,914
538	8433,914
538,5	8352,514
538,9	8266,829
539,4	8178,514
539,8	8099,229
540,3	8010,429
540,7	7912,429
541,2	7831,514
541,6	7748,343
542,1	7668,943
542,5	7585,057
543	7503,143
543,4	7426,029
543,9	7359,714
544,3	7284,743
544,8	7208,314
545,2	7138,057
545,7	7066,429
546,1	6992,914
546,5	6927,8
547	6856,886
547,4	6793,886
547,9	6719,686
548,3	6655,343
548,8	6591,257
549,2	6529,429
549,7	6466,971
550,1	6405,857
550,6	6341,086
551	6291,029
551,5	6233,457
551,9	6180,143
552,4	6123,629
552,8	6071,486
553,3	6015,343
553,7	5967,857
554,2	5913,314
554,6	5854,657
555,1	5803,457
555,5	5760,457
555,9	5706,629
556,4	5653,743
556,8	5601,629
557,3	5559,114
557,7	5517,057
558,2	5471,914
558,6	5417,4
559,1	5371,971
559,5	5336,543
560	5289,143
560,4	5241
560,9	5200,943
561,3	5160
561,8	5125,029
562,2	5079,714
562,7	5033,286
563,1	4997,914
563,6	4960,914
564	4919,914
564,4	4878,686
564,9	4832,514
565,3	4805,457
565,8	4779,286
566,2	4741,657
566,7	4707,629
567,1	4669,943
567,6	4633,714
568	4606,629
568,5	4571,943
568,9	4533,257
569,4	4495,343
569,8	4456,714
570,3	4424,057
570,7	4397,514
571,1	4366,286
571,6	4327,029
572	4293,229
572,5	4270,029
572,9	4241,657
573,4	4208,6
573,8	4184,229
574,3	4151,057
574,7	4121,857
575,2	4099,714
575,6	4072,971
576,1	4044,029
576,5	4015,943
576,9	3971,714
577,4	3945,914
577,8	3924,257
578,3	3897,571
578,7	3866,629
579,2	3836,2
579,6	3815,714
580,1	3796,143
580,5	3769,743
581	3743,429
581,4	3718,143
581,9	3686,6
582,3	3666,057
582,7	3637,914
583,2	3611,314
583,6	3585,771
584,1	3560,857
584,5	3525,143
585	3508,143
585,4	3486,286
585,9	3462,286
586,3	3438,829
586,8	3419,629
587,2	3400,457
587,6	3384,971
588,1	3366,343
588,5	3345,657
589	3329,543
589,4	3310,086
589,9	3291,229
590,3	3267,943
590,8	3246,686
591,2	3227,343
591,7	3205,086
592,1	3183,943
592,5	3166,171
593	3142,914
593,4	3127,486
593,9	3109,657
594,3	3084,171
594,8	3064,457
595,2	3045,457
595,7	3030,2
596,1	3018,143
596,6	3000,829
597	2985,8
597,4	2973,429
597,9	2954,743
598,3	2937,943
598,8	2922,229
599,2	2903,143
599,7	2890,457
600,1	2868,343
600,6	2848,514
601	2839,143
601,4	2825,429
601,9	2808,771
602,3	2788,571
602,8	2770,314
603,2	2760,657
603,7	2749,914
604,1	2735,571
604,6	2723,057
605	2710,029
605,4	2699,229
605,9	2688,6
606,3	2682,143
606,8	2670,286
607,2	2654,886
607,7	2635,286
608,1	2621,2
608,6	2611,4
609	2591,114
609,4	2564,571
609,9	2550,171
610,3	2539,429
610,8	2526,4
611,2	2503,343
611,7	2478,543
612,1	2463,229
612,6	2452,229
613	2433,314
613,4	2411,771
613,9	2397,371
614,3	2388,2
614,8	2382,857
615,2	2368,543
615,7	2353,686
616,1	2339,8
616,6	2328,914
617	2315,543
617,4	2300,743
617,9	2280,714
618,3	2258,371
618,8	2243,371
619,2	2228,229
619,7	2213,743
620,1	2199,629
620,5	2184,771
621	2170,657
621,4	2169,114
621,9	2156,543
622,3	2145,114
622,8	2133,514
623,2	2120,629
623,6	2109,114
624,1	2098,829
624,5	2089,657
625	2079,8
625,4	2063,343
625,9	2046,971
626,3	2035,029
626,8	2027,943
627,2	2020,086
627,6	2001,457
628,1	1981,857
628,5	1974,457
629	1969,057
629,4	1956,514
629,9	1939,771
630,3	1920,114
630,7	1902,686
631,2	1893,8
631,6	1877,714
632,1	1861,886
632,5	1852,171
633	1839,429
633,4	1832,2
633,8	1825,343
634,3	1812,457
634,7	1808,171
635,2	1796,886
635,6	1785,6
636,1	1776,743
636,5	1758,257
636,9	1746,029
637,4	1732,143
637,8	1715,314
638,3	1702,886
638,7	1685,657
639,2	1666,486
639,6	1660,857
640	1649,571
640,5	1643,543
640,9	1638,171
641,4	1624,4
641,8	1616,486
642,2	1613,371
642,7	1608,4
643,1	1600,257
643,6	1589,143
644	1573,943
644,5	1571,114
644,9	1562,714
645,3	1553,743
645,8	1537,886
646,2	1526,4
646,7	1515,8
647,1	1506,314
647,6	1489,114
648	1476,029
648,4	1463
648,9	1457,457
649,3	1447,943
649,8	1441,514
650,2	1435,029
650,6	1434,857
651,1	1430,229
651,5	1425,971
652	1419,371
652,4	1410,914
652,9	1405,171
653,3	1397,143
653,7	1382,829
654,2	1370,6
654,6	1356,343
655,1	1339,029
655,5	1329,829
655,9	1314,286
656,4	1306,714
656,8	1302,486
657,3	1296,2
657,7	1288,143
658,2	1283,514
658,6	1274,857
659	1268,943
659,5	1256,114
659,9	1245,457
660,4	1235,429
660,8	1229,2
661,2	1221,971
661,7	1214,714
662,1	1210,057
662,6	1194,857
663	1188,171
663,4	1182,371
663,9	1176,686
664,3	1168,829
664,8	1161,943
665,2	1150,457
665,6	1152,171
666,1	1142,771
666,5	1130,514
667	1116,057
667,4	1105,143
667,9	1091,8
668,3	1082,714
668,7	1070,629
669,2	1059,171
669,6	1056,8
670,1	1053,6
670,5	1042,229
670,9	1035,229
671,4	1026,029
671,8	1015,457
672,3	1011,6
672,7	1004,314
673,1	997,257
673,6	994,657
674	986,971
674,5	983,6
674,9	982,4
675,3	973,657
675,8	961,257
676,2	948,371
676,7	943,314
677,1	936,229
677,5	928,114
678	923,114
678,4	922,229
678,9	918,429
679,3	914,571
679,7	909,857
680,2	906,4
680,6	898,286
681,1	891,629
681,5	881,429
681,9	873,571
682,4	869,886
682,8	860,543
683,3	855
683,7	854,771
684,1	845,686
684,6	841,571
685	835,371
685,5	830,286
685,9	821,371
686,3	817,514
686,8	806,629
687,2	802,771
687,7	793,743
688,1	789,257
688,5	780,229
689	778,314
689,4	765,514
689,9	763,114
690,3	757,171
690,7	750,657
691,2	745,457
691,6	737,629
692	729,229
692,5	727,657
692,9	719,143
693,4	711,943
693,8	704,743
694,2	697,114
694,7	695,971
695,1	693,257
695,6	692,943
696	693,343
696,4	690,857
696,9	690,657
697,3	687,029
697,8	684,829
698,2	678,943
698,6	672,943
699,1	666,571
699,5	660,914
699,9	653,057
700,4	647,771
700,8	641,171
701,3	637,514
701,7	632,029
702,1	622,886
702,6	617,571
703	612,2
703,5	607,829
703,9	601,686
704,3	597,571
704,8	590,743
705,2	587,457
705,6	579,314
706,1	577,286
706,5	576,886
707	572,4
707,4	570
707,8	563,571
708,3	560,629
708,7	560,171
709,2	552,343
709,6	548,6
710	543,971
710,5	537,057
710,9	533,714
711,3	531,457
711,8	527,629
712,2	528
712,7	521,057
713,1	522,857
713,5	513,086
714	516,457
714,4	509,571
714,8	505,457
715,3	498,343
715,7	491,286
716,2	485,8
716,6	491,657
717	481,2
717,5	475,286
717,9	473,6
718,3	471,371
718,8	473,371
719,2	464,743
719,7	453,743
720,1	448,543
720,5	449,971
721	441,6
721,4	434,343
721,8	428,286
722,3	424,371
722,7	427,143
723,2	427,257
723,6	419,686
724	418,971
724,5	417,171
724,9	413,943
725,3	413,829
725,8	410,143
726,2	401,771
726,7	400,657
727,1	397,171
727,5	394,371
728	388,571
728,4	381,657
728,8	373,743
729,3	378,543
729,7	371,914
730,1	371,2
730,6	370,429
731	370,8
731,5	373,886
731,9	368,971
732,3	363,714
732,8	366,057
733,2	363,171
733,6	366,886
734,1	367,743
734,5	362,6
734,9	367,114
735,4	362,571
735,8	360,486
736,3	358,457
736,7	352,8
737,1	347,857
737,6	347,371
738	344,657
738,4	348,6
738,9	351,086
739,3	346,571
739,7	345,571
740,2	343,829
740,6	339,829
741,1	336,543
741,5	329,6
741,9	322,171
742,4	320,886
742,8	312,943
743,2	307,257
743,7	304,8
744,1	303,771
744,5	302,457
745	297,457
745,4	292,486
745,8	295,4
746,3	294,6
746,7	297,4
747,2	288,886
747,6	288,514
748	288,086
748,5	285,771
748,9	281,086
749,3	283,714
749,8	279,371
750,2	284,8
750,6	282,086
751,1	281,029
751,5	284,886
751,9	283,257
752,4	274,857
752,8	270,057
753,3	267,486
753,7	267
754,1	263,229
754,6	257,086
755	257,286
755,4	260,029
755,9	257,629
756,3	254,2
756,7	252,686
757,2	252,6
757,6	255,343
758	255,371
758,5	252
758,9	251,943
759,3	252,514
759,8	246,971
760,2	245,6
760,6	243
761,1	237,029
761,5	237,457
761,9	234,829
762,4	232
762,8	235,114
763,3	235,457
763,7	223,8
764,1	222,571
764,6	218,171
765	219,8
765,4	216,629
765,9	209
766,3	203,343
766,7	214,114
767,2	216,543
767,6	215,143
768	212,914
768,5	213,4
768,9	211,743
769,3	215,371
769,8	212,029
770,2	204,829
770,6	202,371
771,1	198,571
771,5	198,486
771,9	201,714
772,4	196,886
772,8	190,971
773,2	193,657
773,7	192,8
774,1	191,571
774,5	188,257
775	185,714
775,4	186
775,8	189,686
776,3	190,257
776,7	191,543
777,1	190,514
777,6	185,2
778	184,629
778,4	180,771
778,9	181,543
779,3	176,914
779,7	175,314
780,2	173,429
780,6	175,8
781	172,514
781,5	174,143
781,9	172,343
782,3	174,943
782,8	176,971
783,2	180,086
783,6	183,429
784,1	180
784,5	177,114
784,9	171,829
785,4	168,886
785,8	166,971
786,2	164,229
786,7	156,943
787,1	157,171
787,5	158,943
788	162,143
788,4	153,971
788,8	151,8
789,3	152,971
789,7	159,257
790,1	161,257
790,6	156,943
791	154,829
791,4	158,743
791,9	159,6
792,3	156,771
792,7	152,857
793,2	152,743
793,6	152,543
794	151,571
794,5	152,2
794,9	148,314
795,3	147,829
795,8	148,4
796,2	147,657
796,6	148,057
797,1	151,829
797,5	151,171
797,9	150,857
798,4	151,771
798,8	150,514
799,2	147,629
799,7	147,543
800,1	141,514
800,5	140,314
801	137
801,4	136,4
801,8	131,371
802,2	130,371
802,7	129,229
803,1	125,4
803,5	124,171
804	125,514
804,4	119,714
804,8	120,229
805,3	118,171
805,7	118,8
806,1	117,457
806,6	114,571
807	114,314
807,4	114,657
807,9	116,543
808,3	116,8
808,7	105,829
809,2	109,743
809,6	108,486
810	109,857
810,4	107,486
810,9	103,057
811,3	100,343
811,7	107,829
812,2	103,886
812,6	102,743
813	99,6
813,5	99,743
813,9	102,8
814,3	103,857
814,8	101,857
815,2	101,743
815,6	103,8
816,1	100,457
816,5	100,2
816,9	91,2
817,3	86,714
817,8	89,371
818,2	90,171
818,6	85,943
819,1	87,8
819,5	83,943
819,9	90,086
820,4	97,629
820,8	94,486
821,2	89,543
821,7	92,486
822,1	93,486
822,5	96,2
822,9	96,086
823,4	92,2
823,8	93,686
824,2	94,514
824,7	94,657
825,1	92,571
825,5	90,286
826	88,029
826,4	89,343
826,8	81,714
827,3	79,657
827,7	74,8
828,1	75,829
828,5	75,971
829	72,714
829,4	72,686
829,8	75,2
830,3	73,343
830,7	74,771
831,1	71
831,6	68,371
832	68
832,4	61,829
832,8	60,657
833,3	61,886
833,7	61,714
834,1	63
834,6	67,257
835	69,429
835,4	78,143
835,8	79,057
836,3	78,486
836,7	75,886
837,1	72,629
837,6	68,657
838	64
838,4	50,771
838,9	48,943
839,3	53,486
839,7	55
840,1	57,286
840,6	58,771
841	61,371
841,4	64,257
841,9	66,629
842,3	67,029
842,7	70,486
843,1	68,514
843,6	70,457
844	71,371
844,4	70,057
844,9	65,714
845,3	63,886
845,7	63,171
846,2	63,6
846,6	57,114
847	53,257
847,4	49,286
847,9	52,714
848,3	51,371
848,7	47,829
849,2	47,4
849,6	49,629
850	51,543
850,4	61,8
850,9	59,457
851,3	57,943
851,7	59,771
852,2	57,057
852,6	58,029
853	57,914
853,4	54,057
853,9	58,314
854,3	58,771
854,7	57,886
855,2	59,6
855,6	57,686
856	59,771
856,4	59,114
856,9	51,514
857,3	47,6
857,7	45,143
858,2	41,829
858,6	41,171
859	39,543
859,4	37,543
859,9	39,171
860,3	43,914
860,7	44,286
861,1	45,6
861,6	47,714
862	49,886
862,4	51,629
862,9	48,886
863,3	47,343
863,7	46,429
864,1	46,286
864,6	45,457
865	39,914
865,4	35,286
865,9	41,971
866,3	40,286
866,7	39,543
867,1	35,057
867,6	31,857
868	28,486
868,4	28,743
868,8	28,429
869,3	32,257
869,7	32,543
870,1	30,686
870,6	30,886
871	65,114
871,4	68,629
871,8	62,057
872,3	54,657
872,7	52,714
873,1	58,914
873,5	64,343
874	31,629
874,4	33,4
874,8	32,657
875,3	34,457
875,7	32,943
876,1	29,371
876,5	23,914
877	22,6
877,4	18,771
877,8	21,657
878,2	16,857
878,7	19,543
879,1	23,457
879,5	21,886
879,9	17,971
880,4	18,886
880,8	16,971
881,2	21,543
881,7	18,686
882,1	18,143
882,5	19,629
882,9	26,429
883,4	26,686
883,8	25,571
884,2	27,286
884,6	26,886
885,1	24,457
885,5	25,429
885,9	24,8
886,3	18,886
886,8	20,686
887,2	18,314
887,6	16,829
888	23
888,5	17,057
888,9	11,486
889,3	17,057
889,8	17,771
890,2	16,829
890,6	18,629
891	17,2
891,5	18,714
891,9	19,571
892,3	15,029
892,7	11,429
893,2	12,629
893,6	9,057
894	2,771
894,4	6,171
894,9	6,086
895,3	9,771
895,7	16,143
896,1	11,886
896,6	20,143
897	19,343
897,4	16,057
897,8	22,057
898,3	22,086
898,7	14,629
899,1	12,257
899,5	8,029
900	11,429
900,4	13,457
900,8	7,886
901,2	7,429
901,7	8,6
902,1	17,229
902,5	17,686
902,9	17,886
903,4	18,057
903,8	20,686
904,2	18,943
904,6	22,114
905,1	17,086
905,5	18,771
905,9	18,314
906,3	17,886
906,8	16,2
907,2	15,343
907,6	11,457
908	14,4
908,5	15,714
908,9	15
909,3	16
909,7	19,314
910,2	26,629
910,6	31,543
911	31,057
911,4	27,4
911,9	24,543
912,3	25,514
912,7	24,114
913,1	17,371
913,6	15,171
914	15,314
914,4	14,4
914,8	15,457
915,3	17,114
915,7	18
916,1	20,314
916,5	17,457
916,9	18,571
917,4	20,686
917,8	20,114
918,2	11,8
918,6	10,514
919,1	8,6
919,5	14
919,9	14,143
920,3	13
920,8	13,886
921,2	18,857
921,6	20,6
922	21,857
922,5	17,029
922,9	16
923,3	15,057
923,7	12,143
924,2	12,2
924,6	7,857
925	6,343
925,4	9,686
925,8	6,543
926,3	8,571
926,7	13,771
927,1	13,714
927,5	15,2
928	16,371
928,4	15,257
928,8	14,429
929,2	15,314
929,7	12,686
930,1	10,714
930,5	13,314
930,9	15,886
931,3	16,971
931,8	18,829
932,2	15,486
932,6	15,857
933	17,171
933,5	12,171
933,9	8,057
934,3	2,314
934,7	1,771
935,2	-0,457
935,6	-1,343
936	-1,171
936,4	-1,086
936,8	0,829
937,3	9,629
937,7	4,2
938,1	5,171
938,5	1,829
939	3,743
939,4	9,571
939,8	12,571
940,2	6,371
940,6	12,029
941,1	11,943
941,5	18,229
941,9	17,171
942,3	17,571
942,8	12,229
943,2	13,286
943,6	11,086
944	9,8
944,4	5,457
944,9	3,657
945,3	0,143
945,7	-0,086
946,1	-6,057
946,6	-3,457
947	0,286
947,4	1,8
947,8	0,2
948,2	2,743
948,7	2,429
949,1	7,086
949,5	5,029
949,9	7,714
950,3	5,914
950,8	4,8
951,2	3,543
951,6	4,743
952	6,914
952,5	8,2
952,9	3,514
953,3	6,314
953,7	7,943
954,1	8,257
954,6	6,114
955	6,771
955,4	7,543
955,8	5,714
956,2	5,486
956,7	7,086
957,1	6,143
957,5	6,257
957,9	3,029
958,3	1,257
958,8	2,2
959,2	1,943
959,6	2,171
960	2,143
960,5	5,514
960,9	8,743
961,3	11,514
961,7	12,971
962,1	6,286
962,6	6
963	8,514
963,4	10,8
963,8	12,543
964,2	12,457
964,7	10,657
965,1	19,486
965,5	18,371
965,9	11,971
966,3	9,514
966,8	4,057
967,2	-0,257
967,6	4,314
968	0,686
968,4	1,429
968,9	3,4
969,3	1,771
969,7	5,4
970,1	6,343
970,5	4,6
971	4,829
971,4	4,886
971,8	1,429
972,2	1
972,6	-1,086
973,1	3,171
973,5	3,257
973,9	2,971
974,3	4,343
974,7	6,914
975,2	6,486
975,6	6,971
976	6,971
976,4	0,371
976,8	3,343
977,3	4,857
977,7	9,657
978,1	8,943
978,5	10,429
978,9	4,514
979,4	5,971
979,8	0,486
980,2	-5,971
980,6	-9,6
981	-7,543
981,5	-13,429
981,9	-9
982,3	-4,171
982,7	-1,914
983,1	1,657
983,6	1,914
984	-1,371
984,4	4,429
984,8	6,457
985,2	6,486
985,6	3,4
986,1	4,086
986,5	4,686
986,9	5,029
987,3	5,6
987,7	3,629
988,2	2,914
988,6	7,943
989	8,886
989,4	10,286
989,8	9,086
990,3	8,229
990,7	8,171
991,1	4,8
991,5	8,486
991,9	8,286
992,3	7,314
992,8	7,657
993,2	4,086
993,6	1,2
994	5,714
994,4	1,657
994,9	-1,829
995,3	-3,086
995,7	-1,371
996,1	-1,629
996,5	-4
996,9	-5,029
997,4	-7,514
997,8	-1,686
998,2	-5,4
998,6	-5,971
999	-7,229
999,5	-4,714
999,9	-2,6
1000,3	-4,029
1000,7	-9,057
1001,1	-3,686
1001,5	-4,6
1002	-2,286
1002,4	-0,286
1002,8	-2,2
1003,2	0,857
1003,6	0,257
1004	-2,371
1004,5	-0,8
1004,9	1,029
1005,3	-2,571
1005,7	-2,771
1006,1	-1,886
1006,6	-2,714
1007	-1,829
1007,4	-1,714
1007,8	-4,743
1008,2	3,4
1008,6	1
1009,1	0,229
1009,5	3,429
1009,9	4,571
1010,3	2,971
1010,7	4,514
1011,1	-2,829
1011,6	4,629
1012	7,286
1012,4	7,714
1012,8	7,457
1013,2	5,257
1013,6	8,314
1014,1	5,971
1014,5	-2,514
1014,9	-5,857
1015,3	-7,2
1015,7	-7,771
1016,1	-1,171
1016,6	-4,457
1017	-0,2
1017,4	-1,6
1017,8	-0,657
1018,2	-1,457
1018,6	-1,086
1019,1	-1,057
1019,5	1,429
1019,9	-1,114
1020,3	2,086
1020,7	-1,114
1021,1	-2,086
1021,6	0,029
1022	-1,343
1022,4	-5,971
1022,8	-6,514
1023,2	-4,2
1023,6	-3,343
1024,1	0,371
1024,5	-1,486
1024,9	-1,714
1025,3	3,343
1025,7	7,714
1026,1	5,971
1026,6	6,8
1027	7,229
1027,4	5,514
1027,8	7,8
1028,2	6,057
1028,6	3,857
1029	6,429
1029,5	5,543
1029,9	-1,6
1030,3	-4,229
1030,7	-4,6
1031,1	-5,4
1031,5	-3,886
1032	-6,429
1032,4	-2,286
1032,8	1,8
1033,2	7,229
1033,6	4,343
1034	4,571
1034,4	4,314
1034,9	4,171
1035,3	1,829
1035,7	4,257
1036,1	4,829
1036,5	5,543
1036,9	8,4
1037,4	7,657
1037,8	9,657
1038,2	16,171
1038,6	13,743
1039	7,657
1039,4	13,943
1039,8	10,457
1040,3	14,286
1040,7	10,229
1041,1	5,114
1041,5	5,571
1041,9	12,886
1042,3	9,229
1042,7	9,686
1043,2	12,714
1043,6	8,743
1044	10,143
1044,4	12,657
1044,8	12,314
1045,2	9,943
1045,6	11,743
1046,1	6,143
1046,5	17,629
1046,9	17,743
1047,3	13,886
1047,7	12,2
1048,1	9,343
1048,5	7,743
1049	11,029
1049,4	6,543
1049,8	4,771
1050,2	7,029
1050,6	3,571
1051	4,4
1051,4	6,057
1051,9	-0,657
1052,3	0,8
1052,7	-0,514
1053,1	0,4
1053,5	0,171
1053,9	3,4
1054,3	4,286
1054,8	10,457
1055,2	12,571
1055,6	13,029
1056	12,571
1056,4	16,114
1056,8	16,171
1057,2	13,114
1057,6	4,2
1058,1	1,6
1058,5	-1,829
1058,9	1,4
1059,3	4,6
1059,7	5,429
1060,1	9,457
1060,5	19,457
1061	20,686
1061,4	25,029
1061,8	21,114
1062,2	16,629
1062,6	10,2
1063	7,971
1063,4	6,571
1063,8	3,2
1064,3	3,371
1064,7	3,6
1065,1	2,6
1065,5	7,029
1065,9	2,971
1066,3	-1,086
1066,7	1,057
1067,1	1,886
1067,6	0,571
1068	3,743
1068,4	2,543
1068,8	4,8
1069,2	7,629
1069,6	4,914
1070	2,771
1070,4	1,886
1070,9	-3,171
1071,3	-3,286
1071,7	-0,143
1072,1	-1,571
1072,5	-0,143
1072,9	0,943
1073,3	-2,514
1073,7	-0,286
1074,2	3,457
1074,6	-1,257
1075	-0,429
1075,4	1,914
1075,8	2,886
1076,2	8,571
1076,6	9,629
1077	3,371
1077,5	8,143
1077,9	8,629
1078,3	0,914
1078,7	-0,229
1079,1	-4,743
1079,5	-4,543
1079,9	-5,571
1080,3	-9,143
1080,7	-12,057
1081,2	-7,2
1081,6	-7,771
1082	-5,314
1082,4	-8,057
1082,8	-6,714
1083,2	-4,829
1083,6	-4,657
1084	-4,6
1084,5	-4,029
1084,9	-4,371
1085,3	-7,114
1085,7	-1,629
1086,1	-0,114
1086,5	-3,514
1086,9	-3,714
1087,3	-5,857
1087,7	-6,429
1088,2	-1,171
1088,6	-2,8
1089	-3,514
1089,4	1,4
1089,8	4,943
1090,2	2,514
1090,6	5,8
1091	5,029
1091,4	2,657
1091,9	1,486
1092,3	4,857
1092,7	-0,486
1093,1	6,457
1093,5	4,914
1093,9	4,114
1094,3	7,714
1094,7	9,8
1095,1	7,914
1095,5	9,771
1096	12,743
1096,4	13,6
1096,8	15,886
1097,2	14,971
1097,6	12,829
1098	12,514
1098,4	11,114
1098,8	2,4
1099,2	0,714
1099,6	1,457
1100,1	0,657
1100,5	1,257
1100,9	-0,657
1101,3	-3,229
1101,7	2,257
1102,1	6,143
1102,5	4,629
1102,9	5,314
1103,3	2,457
1103,7	4,857
1104,2	10,886
1104,6	7,943
1105	6,371
1105,4	4,314
1105,8	2,429
1106,2	4,943
1106,6	2,486
1107	1,057
1107,4	0,833
1107,8	-1,28
1108,3	0,25
