Data from Subt2_242.txt Node
Date: Sat Aug 26 18:57:13 MSK 2023
User: vat
Spectrometer: MAYP114033
Trigger mode: 0
Integration Time (sec): 1,000000E0
Scans to average: 5
Electric dark correction enabled: true
Nonlinearity correction enabled: false
Boxcar width: 3
XAxis mode: Wavelengths
Number of Pixels in Spectrum: 2068
>>>>>Begin Spectral Data<<<<<
199,4	-1,183
199,9	1,947
200,4	1,267
200,8	3,495
201,3	2,638
201,8	4,781
202,2	1,381
202,7	5,867
203,2	4,238
203,6	5,781
204,1	0,952
204,6	1,524
205	1,495
205,5	4,952
206	1,781
206,4	0,438
206,9	2,095
207,4	7,352
207,8	6,238
208,3	6,095
208,8	6,324
209,2	9,181
209,7	10,81
210,2	10,667
210,6	8,124
211,1	10,524
211,5	10,124
212	12,638
212,5	10,867
212,9	8,952
213,4	9,067
213,9	9,781
214,3	12,324
214,8	10,981
215,3	9,952
215,7	8,381
216,2	13,352
216,7	10,381
217,1	6,81
217,6	9,381
218,1	10,152
218,5	5,467
219	-0,933
219,5	0,495
219,9	0,095
220,4	10,495
220,9	6,41
221,3	8,924
221,8	11,924
222,3	18,638
222,7	15,667
223,2	18,552
223,6	13,438
224,1	15,095
224,6	15,181
225	11,867
225,5	13,695
226	12,352
226,4	11,552
226,9	12,21
227,4	10,952
227,8	6,438
228,3	10,295
228,8	8,01
229,2	8,095
229,7	6,581
230,2	7,152
230,6	13,038
231,1	18,181
231,5	19,581
232	19,724
232,5	19,352
232,9	20,21
233,4	18,295
233,9	12,238
234,3	8,152
234,8	7,838
235,3	8,638
235,7	12,124
236,2	8,867
236,7	10,067
237,1	9,867
237,6	9,21
238,1	5,01
238,5	1,238
239	-0,533
239,4	8,038
239,9	3,467
240,4	3,295
240,8	7,581
241,3	6,238
241,8	9,181
242,2	9,867
242,7	4,067
243,2	3,781
243,6	3,352
244,1	0,895
244,6	5,124
245	4,267
245,5	1,552
245,9	-0,619
246,4	4,981
246,9	3,61
247,3	5,552
247,8	7,895
248,3	8,924
248,7	10,781
249,2	14,924
249,7	10,381
250,1	11,895
250,6	9,095
251	10,038
251,5	8,581
252	9,895
252,4	9,495
252,9	9,352
253,4	4,581
253,8	3,41
254,3	3,895
254,8	5,295
255,2	0,61
255,7	0,038
256,1	1,038
256,6	4,095
257,1	8,295
257,5	5,238
258	3,181
258,5	6,667
258,9	4,581
259,4	4,038
259,9	5,324
260,3	1,067
260,8	-1,619
261,2	-0,333
261,7	1,638
262,2	0,752
262,6	2,81
263,1	4,952
263,6	8,638
264	12,895
264,5	15,981
264,9	10,695
265,4	13,895
265,9	12,152
266,3	12,667
266,8	13,124
267,3	11,352
267,7	6,438
268,2	9,152
268,7	8,01
269,1	8,352
269,6	5,467
270	5,381
270,5	3,181
271	8,438
271,4	6,21
271,9	2,981
272,4	4,067
272,8	4,295
273,3	0,724
273,7	1,495
274,2	-1,19
274,7	1,21
275,1	6,924
275,6	6,495
276,1	5,752
276,5	8,638
277	12,238
277,4	12,638
277,9	11,667
278,4	10,695
278,8	10,752
279,3	9,838
279,8	10,867
280,2	9,924
280,7	7,638
281,1	4,952
281,6	7,181
282,1	11,581
282,5	14,981
283	12,752
283,4	11,324
283,9	12,752
284,4	20,924
284,8	19,01
285,3	14,438
285,8	12,152
286,2	13,924
286,7	13,21
287,1	13,61
287,6	6,667
288,1	1,295
288,5	4,524
289	6,61
289,5	7,495
289,9	8,381
290,4	8,495
290,8	11,124
291,3	15,61
291,8	14,352
292,2	12,095
292,7	10,724
293,1	9,381
293,6	14,524
294,1	14,638
294,5	15,238
295	15,01
295,5	12,61
295,9	14,895
296,4	12,467
296,8	7,495
297,3	5,352
297,8	-0,048
298,2	-4,076
298,7	0,838
299,1	-0,562
299,6	0,438
300,1	2,067
300,5	5,981
301	14,467
301,5	21,981
301,9	20,724
302,4	16,295
302,8	17,952
303,3	13,695
303,8	5,295
304,2	1,895
304,7	-2,676
305,1	-4,505
305,6	-2,248
306,1	4,381
306,5	7,695
307	16,838
307,4	17,667
307,9	19,21
308,4	21,21
308,8	18,895
309,3	13,752
309,8	13,381
310,2	11,952
310,7	5,267
311,1	2,352
311,6	3,181
312,1	4,695
312,5	6,095
313	8,467
313,4	4,952
313,9	10,124
314,4	12,01
314,8	9,267
315,3	11,324
315,7	6,524
316,2	4,467
316,7	3,838
317,1	5,952
317,6	5,267
318	10,524
318,5	6,495
319	10,552
319,4	12,295
319,9	19,638
320,3	16,952
320,8	14,695
321,3	12,067
321,7	16,581
322,2	11,038
322,6	6,838
323,1	0,438
323,6	0,295
324	0,152
324,5	-5,019
324,9	-4,876
325,4	-5,648
325,9	-2,048
326,3	0,438
326,8	1,838
327,2	-2,362
327,7	0,724
328,2	-2,99
328,6	3,581
329,1	-1,733
329,5	-3,762
330	-4,533
330,5	2,81
330,9	5,581
331,4	7,238
331,8	5,295
332,3	10,352
332,8	12,81
333,2	12,952
333,7	11,81
334,1	11,981
334,6	11,695
335,1	8,895
335,5	8,867
336	5,381
336,4	7,095
336,9	13,21
337,4	12,352
337,8	11,324
338,3	10,495
338,7	11,724
339,2	13,095
339,7	14,381
340,1	4,038
340,6	3,895
341	0,924
341,5	4,867
342	1,81
342,4	-0,076
342,9	-2,733
343,3	-0,533
343,8	-2,59
344,2	3,067
344,7	8,324
345,2	7,981
345,6	7,095
346,1	10,352
346,5	11,895
347	10,838
347,5	8,981
347,9	6,867
348,4	6,981
348,8	12,981
349,3	10,295
349,8	9,352
350,2	17,61
350,7	15,495
351,1	13,152
351,6	19,838
352	18,981
352,5	22,438
353	34,067
353,4	33,581
353,9	45,381
354,3	54,61
354,8	59,81
355,3	75,324
355,7	91,124
356,2	105,095
356,6	125,324
357,1	147,152
357,5	174,21
358	203,124
358,5	230,61
358,9	262,695
359,4	301,838
359,8	347,067
360,3	401,752
360,8	452,295
361,2	515,152
361,7	589,095
362,1	665,895
362,6	752,295
363	836,695
363,5	927,467
364	1038,552
364,4	1141,41
364,9	1242,867
365,3	1346,867
365,8	1441,41
366,3	1533,295
366,7	1614,438
367,2	1679,724
367,6	1735,724
368,1	1781,61
368,5	1810,067
369	1823,238
369,5	1828,867
369,9	1816,467
370,4	1783,581
370,8	1746,352
371,3	1696,895
371,7	1636,152
372,2	1566,038
372,7	1487,181
373,1	1405,438
373,6	1325,152
374	1239,21
374,5	1152,067
374,9	1070,781
375,4	991,924
375,9	919,552
376,3	846,267
376,8	776,667
377,2	717,781
377,7	658,01
378,2	604,981
378,6	554,267
379,1	507,41
379,5	467,752
380	433,61
380,4	394,724
380,9	357,067
381,4	324,381
381,8	301,867
382,3	280,181
382,7	260,895
383,2	246,638
383,6	226,324
384,1	220,895
384,6	210,067
385	192,952
385,5	176,467
385,9	163,467
386,4	151,324
386,8	146,21
387,3	130,895
387,7	120,781
388,2	116,267
388,7	112,152
389,1	106,552
389,6	91,667
390	84,752
390,5	81,067
390,9	77,438
391,4	69,81
391,9	64,324
392,3	61,981
392,8	61,667
393,2	55,295
393,7	52,638
394,1	50,638
394,6	50,41
395,1	48,781
395,5	41,81
396	44,781
396,4	48,638
396,9	49,838
397,3	51,867
397,8	50,61
398,2	49,038
398,7	51,381
399,2	47,981
399,6	45,552
400,1	41,924
400,5	33,895
401	35,267
401,4	35,952
401,9	34,038
402,4	34,01
402,8	32,324
403,3	34,467
403,7	34,495
404,2	34,438
404,6	33,867
405,1	32,895
405,5	30,838
406	30,867
406,5	28,81
406,9	33,752
407,4	29,752
407,8	29,981
408,3	33,981
408,7	34,895
409,2	38,781
409,6	41,038
410,1	38,181
410,6	42,581
411	46,152
411,5	46,467
411,9	49,552
412,4	53,667
412,8	55,467
413,3	58,781
413,7	59,038
414,2	56,61
414,7	63,638
415,1	70,095
415,6	70,124
416	70,524
416,5	75,495
416,9	75,867
417,4	77,667
417,8	77,438
418,3	75,581
418,8	78,781
419,2	82,467
419,7	82,867
420,1	91,038
420,6	90,838
421	88,981
421,5	94,181
421,9	99,095
422,4	102,324
422,8	104,924
423,3	99,495
423,8	103,238
424,2	101,41
424,7	99,752
425,1	97,21
425,6	97,152
426	94,952
426,5	99,467
426,9	105,267
427,4	104,067
427,9	95,524
428,3	96,381
428,8	93,438
429,2	92,238
429,7	91,067
430,1	89,524
430,6	89,095
431	96,238
431,5	98,324
431,9	101,924
432,4	104,638
432,8	110,01
433,3	110,181
433,8	120,181
434,2	123,838
434,7	124,638
435,1	126,667
435,6	133,467
436	134,981
436,5	141,495
436,9	141,524
437,4	147,067
437,8	154,038
438,3	163,524
438,8	165,467
439,2	171,838
439,7	179,495
440,1	191,467
440,6	201,838
441	204,61
441,5	207,638
441,9	213,724
442,4	218,01
442,8	224,038
443,3	234,552
443,7	246,124
444,2	260,952
444,7	270,724
445,1	288,41
445,6	305,781
446	318,81
446,5	321,495
446,9	325,324
447,4	334,038
447,8	348,381
448,3	362,81
448,7	375,895
449,2	389,695
449,6	413,238
450,1	429,238
450,6	449,981
451	467,21
451,5	482,352
451,9	501,324
452,4	520,695
452,8	535,01
453,3	559,838
453,7	574,895
454,2	598,781
454,6	615,981
455,1	635,181
455,5	656,095
456	681,981
456,4	699,695
456,9	720,981
457,3	738,124
457,8	759,124
458,3	785,638
458,7	804,924
459,2	828,724
459,6	850,381
460,1	877,352
460,5	905,495
461	939,067
461,4	960,695
461,9	992,867
462,3	1021,81
462,8	1054,81
463,2	1078,381
463,7	1108,61
464,1	1140,467
464,6	1174,41
465	1203,124
465,5	1236,181
466	1267,667
466,4	1302,581
466,9	1337,752
467,3	1365,781
467,8	1397,038
468,2	1433,61
468,7	1460,952
469,1	1499,724
469,6	1534,295
470	1560,752
470,5	1592,438
470,9	1623,467
471,4	1651,981
471,8	1686,21
472,3	1718,752
472,7	1754,638
473,2	1793,381
473,6	1824,324
474,1	1864,581
474,5	1897,438
475	1933,667
475,4	1963,352
475,9	1995,295
476,4	2022,267
476,8	2063,267
477,3	2090,467
477,7	2129,61
478,2	2159,21
478,6	2183,067
479,1	2213,695
479,5	2250,81
480	2270,752
480,4	2301,524
480,9	2326,381
481,3	2352,381
481,8	2384,695
482,2	2407,01
482,7	2433,61
483,1	2464,467
483,6	2487,21
484	2515,238
484,5	2542,867
484,9	2571,41
485,4	2601,981
485,8	2624,952
486,3	2651,295
486,7	2676,467
487,2	2692,295
487,6	2709,724
488,1	2723,752
488,5	2735,895
489	2759,752
489,4	2781,381
489,9	2794,095
490,4	2812,752
490,8	2836,467
491,3	2860,467
491,7	2885,41
492,2	2898,21
492,6	2906,295
493,1	2925,667
493,5	2940,238
494	2953,724
494,4	2962,124
494,9	2972,21
495,3	2991,61
495,8	3003,867
496,2	3017,295
496,7	3025,467
497,1	3035,038
497,6	3051,61
498	3065,21
498,5	3068,295
498,9	3078,524
499,4	3089,095
499,8	3109,467
500,3	3124,267
500,7	3133,981
501,2	3137,41
501,6	3144,867
502,1	3160,81
502,5	3169,838
503	3177,438
503,4	3180,924
503,9	3187,152
504,3	3199,267
504,8	3207,01
505,2	3207,61
505,7	3215,438
506,1	3225,61
506,6	3235,01
507	3239,81
507,5	3248,724
507,9	3254,981
508,4	3264,095
508,8	3270,638
509,3	3271,21
509,7	3275,81
510,2	3284,267
510,6	3285,095
511,1	3294,038
511,5	3297,21
512	3298,495
512,4	3301,952
512,9	3308,352
513,3	3317,552
513,8	3320,324
514,2	3323,781
514,7	3334,495
515,1	3344,61
515,6	3346,152
516	3342,781
516,5	3348,467
516,9	3355,695
517,4	3361,01
517,8	3363,352
518,3	3360,038
518,7	3368,324
519,2	3379,352
519,6	3380,41
520,1	3391,01
520,5	3393,867
521	3402,038
521,4	3414,952
521,9	3423,381
522,3	3428,067
522,8	3427,01
523,2	3426,895
523,7	3434,924
524,1	3443,238
524,6	3447,638
525	3447,267
525,5	3452,724
525,9	3466,61
526,4	3473,01
526,8	3478,038
527,3	3477,667
527,7	3483,524
528,2	3496,495
528,6	3504,01
529,1	3507,324
529,5	3521,01
530	3531,41
530,4	3537,01
530,9	3549,295
531,3	3554,467
531,8	3561,352
532,2	3573,952
532,6	3578,152
533,1	3581,067
533,5	3590,752
534	3592,381
534,4	3607,724
534,9	3617,724
535,3	3621,381
535,8	3624,238
536,2	3640,095
536,7	3653,695
537,1	3662,181
537,6	3657,781
538	3669,724
538,5	3679,924
538,9	3691,581
539,4	3696,01
539,8	3699,21
540,3	3713,038
540,7	3724,21
541,2	3724,638
541,6	3727,324
542,1	3734,438
542,5	3739,895
543	3747,581
543,4	3751,552
543,9	3763,495
544,3	3773,524
544,8	3783,752
545,2	3793,81
545,7	3806,895
546,1	3817,524
546,5	3828,81
547	3836,952
547,4	3843,21
547,9	3851,667
548,3	3857,952
548,8	3859,638
549,2	3861,495
549,7	3867,924
550,1	3872,981
550,6	3884,438
551	3892,438
551,5	3900,952
551,9	3910,01
552,4	3922,181
552,8	3925,838
553,3	3930,181
553,7	3933,724
554,2	3936,581
554,6	3950,381
555,1	3957,581
555,5	3963,981
555,9	3976,495
556,4	3982,124
556,8	3985,781
557,3	3997,381
557,7	4001,838
558,2	4006,724
558,6	4016,238
559,1	4010,895
559,5	4021,467
560	4028,695
560,4	4035,924
560,9	4039,952
561,3	4047,81
561,8	4050,981
562,2	4062,381
562,7	4065,695
563,1	4074,838
563,6	4069,067
564	4074,238
564,4	4071,81
564,9	4076,238
565,3	4078,295
565,8	4085,495
566,2	4090,838
566,7	4108,152
567,1	4114,21
567,6	4122,495
568	4119,581
568,5	4122,81
568,9	4121,867
569,4	4124,352
569,8	4120,238
570,3	4115,638
570,7	4116,152
571,1	4123,181
571,6	4126,867
572	4132,952
572,5	4137,467
572,9	4140,924
573,4	4139,838
573,8	4143,438
574,3	4144,095
574,7	4139,838
575,2	4139,838
575,6	4129,952
576,1	4130,152
576,5	4131,952
576,9	4127,21
577,4	4121,61
577,8	4122,724
578,3	4115,01
578,7	4116,552
579,2	4113,067
579,6	4101,695
580,1	4090,981
580,5	4092,838
581	4088,324
581,4	4086,752
581,9	4076,638
582,3	4068,695
582,7	4072,695
583,2	4074,152
583,6	4068,295
584,1	4065,01
584,5	4054,581
585	4049,838
585,4	4042,981
585,9	4032,838
586,3	4027,838
586,8	4022,295
587,2	4013,581
587,6	4014,81
588,1	4013,867
588,5	4006,352
589	3999,752
589,4	3987,295
589,9	3973,924
590,3	3971,267
590,8	3959,552
591,2	3954,21
591,7	3952,238
592,1	3947,524
592,5	3950,438
593	3944,41
593,4	3930,667
593,9	3927,752
594,3	3917,981
594,8	3909,352
595,2	3904,781
595,7	3898,41
596,1	3890,41
596,6	3894,095
597	3893,267
597,4	3890,695
597,9	3890,067
598,3	3884,867
598,8	3873,238
599,2	3873,267
599,7	3864,952
600,1	3850,61
600,6	3840,152
601	3831,952
601,4	3830,638
601,9	3827,438
602,3	3809,895
602,8	3797,838
603,2	3790,524
603,7	3779,924
604,1	3770,752
604,6	3756,781
605	3741,952
605,4	3740,781
605,9	3727,038
606,3	3707,095
606,8	3693,695
607,2	3675,124
607,7	3662,038
608,1	3656,924
608,6	3639,067
609	3633,295
609,4	3630,838
609,9	3622,038
610,3	3616,01
610,8	3602,81
611,2	3586,324
611,7	3579,552
612,1	3564,61
612,6	3551,61
613	3544,981
613,4	3528,267
613,9	3511,067
614,3	3495,267
614,8	3484,61
615,2	3467,695
615,7	3457,695
616,1	3442,324
616,6	3431,638
617	3420,924
617,4	3409,61
617,9	3395,295
618,3	3387,21
618,8	3374,895
619,2	3362,181
619,7	3347,095
620,1	3334,038
620,5	3327,467
621	3309,838
621,4	3300,61
621,9	3281,352
622,3	3267,124
622,8	3248,267
623,2	3236,781
623,6	3221,01
624,1	3207,124
624,5	3187,924
625	3181,181
625,4	3164,638
625,9	3155,81
626,3	3141,867
626,8	3126,61
627,2	3115,895
627,6	3097,552
628,1	3073,724
628,5	3067,152
629	3047,295
629,4	3028,61
629,9	3010,81
630,3	2992,724
630,7	2977,238
631,2	2965,781
631,6	2942,724
632,1	2931,895
632,5	2915,324
633	2900,895
633,4	2883,638
633,8	2873,152
634,3	2856,781
634,7	2842,01
635,2	2822,152
635,6	2809,495
636,1	2796,552
636,5	2781,524
636,9	2760,181
637,4	2748,81
637,8	2733,81
638,3	2725,524
638,7	2709,124
639,2	2690,095
639,6	2675,552
640	2669,981
640,5	2651,724
640,9	2640,181
641,4	2622,381
641,8	2615,381
642,2	2601,752
642,7	2597,61
643,1	2581,952
643,6	2574,01
644	2560,724
644,5	2555,924
644,9	2542,124
645,3	2532,438
645,8	2512,524
646,2	2496,495
646,7	2482,981
647,1	2460,267
647,6	2448,924
648	2434,752
648,4	2415,438
648,9	2402,952
649,3	2396,21
649,8	2385,752
650,2	2383,038
650,6	2369,41
651,1	2351,924
651,5	2346,61
652	2335,838
652,4	2316,152
652,9	2297,895
653,3	2290,095
653,7	2269,381
654,2	2258,81
654,6	2241,01
655,1	2229,238
655,5	2227,352
655,9	2216,41
656,4	2197,81
656,8	2185,724
657,3	2179,924
657,7	2173,495
658,2	2158,581
658,6	2138,21
659	2129,267
659,5	2113,781
659,9	2103,667
660,4	2088,695
660,8	2071,981
661,2	2055,781
661,7	2044,41
662,1	2024,867
662,6	2010,324
663	1997,181
663,4	1983,467
663,9	1971,438
664,3	1964,752
664,8	1947,695
665,2	1939,895
665,6	1931,524
666,1	1922,638
666,5	1906,838
667	1897,038
667,4	1880,295
667,9	1873,581
668,3	1859,781
668,7	1847,895
669,2	1832,467
669,6	1821,838
670,1	1808,381
670,5	1793,295
670,9	1782,295
671,4	1771,238
671,8	1758,552
672,3	1752,552
672,7	1745,638
673,1	1734,124
673,6	1727,524
674	1716,724
674,5	1705,295
674,9	1692,752
675,3	1678,495
675,8	1663,467
676,2	1656,238
676,7	1643,724
677,1	1631,095
677,5	1619,295
678	1607,324
678,4	1594,981
678,9	1586,524
679,3	1571,81
679,7	1566,838
680,2	1555,952
680,6	1539,867
681,1	1529,781
681,5	1518,981
681,9	1510,095
682,4	1507,152
682,8	1496,41
683,3	1486,181
683,7	1485,238
684,1	1474,181
684,6	1462,867
685	1449,695
685,5	1432,324
685,9	1416,981
686,3	1406,01
686,8	1392,81
687,2	1390,924
687,7	1382,752
688,1	1374,124
688,5	1367,41
689	1361,467
689,4	1352,181
689,9	1350,638
690,3	1335,895
690,7	1328,695
691,2	1319,495
691,6	1310,867
692	1305,752
692,5	1298,095
692,9	1284,867
693,4	1277,467
693,8	1269,181
694,2	1259,667
694,7	1244,038
695,1	1228,01
695,6	1222,81
696	1215,381
696,4	1207,638
696,9	1193,838
697,3	1184,438
697,8	1184,467
698,2	1176,781
698,6	1170,695
699,1	1164,267
699,5	1157,238
699,9	1152,438
700,4	1145,924
700,8	1136,61
701,3	1131,838
701,7	1115,724
702,1	1103,867
702,6	1094,438
703	1088,295
703,5	1080,924
703,9	1070,324
704,3	1067,838
704,8	1063,181
705,2	1056,552
705,6	1047,295
706,1	1038,495
706,5	1030,781
707	1025,81
707,4	1018,895
707,8	1008,152
708,3	1004,552
708,7	1000,638
709,2	996,695
709,6	990,552
710	984,81
710,5	972,21
710,9	967,295
711,3	954,152
711,8	948,552
712,2	940,495
712,7	933,41
713,1	926,81
713,5	924,41
714	922,981
714,4	917,324
714,8	910,524
715,3	900,952
715,7	894,21
716,2	886,381
716,6	877,352
717	864,524
717,5	857,524
717,9	852,581
718,3	845,867
718,8	841,01
719,2	832,952
719,7	828,667
720,1	826,724
720,5	824,752
721	815,267
721,4	813,781
721,8	808,724
722,3	801,152
722,7	796,324
723,2	789,324
723,6	776,038
724	770,267
724,5	759,41
724,9	750,895
725,3	747,01
725,8	736,067
726,2	731,552
726,7	735,381
727,1	732,667
727,5	731,724
728	724,924
728,4	723,581
728,8	719,181
729,3	711,295
729,7	702,495
730,1	695,181
730,6	692,324
731	692,067
731,5	686,324
731,9	685,352
732,3	683,41
732,8	679,095
733,2	679,267
733,6	669,324
734,1	662,552
734,5	654,667
734,9	648,381
735,4	646,81
735,8	637,352
736,3	635,381
736,7	629,81
737,1	626,095
737,6	624,867
738	622,924
738,4	614,981
738,9	616,895
739,3	609,152
739,7	615,21
740,2	612,381
740,6	613,552
741,1	614,067
741,5	609,581
741,9	604,724
742,4	599,981
742,8	589,867
743,2	586,495
743,7	577,752
744,1	564,981
744,5	565,952
745	559,41
745,4	552,295
745,8	551,981
746,3	546,01
746,7	540,752
747,2	541,495
747,6	536,667
748	535,067
748,5	538,01
748,9	527,038
749,3	522,952
749,8	518,438
750,2	516,095
750,6	507,952
751,1	508,152
751,5	500,267
751,9	504,61
752,4	504,181
752,8	504,895
753,3	502,152
753,7	505,752
754,1	495,924
754,6	491,01
755	481,495
755,4	474,781
755,9	472,352
756,3	463,238
756,7	458,21
757,2	460,067
757,6	457,438
758	457,952
758,5	461,438
758,9	454,61
759,3	453,067
759,8	449,295
760,2	444,152
760,6	439,41
761,1	433,095
761,5	424,124
761,9	423,752
762,4	419,581
762,8	414,81
763,3	413,752
763,7	414,124
764,1	415,81
764,6	417,01
765	411,438
765,4	410,667
765,9	410,152
766,3	407,038
766,7	401,867
767,2	396,695
767,6	396,924
768	396,324
768,5	394,524
768,9	387,61
769,3	385,552
769,8	380,152
770,2	377,524
770,6	373,724
771,1	372,61
771,5	367,552
771,9	366,61
772,4	362,324
772,8	366,581
773,2	367,467
773,7	360,152
774,1	352,267
774,5	347,495
775	344,952
775,4	343,295
775,8	333,381
776,3	329,552
776,7	327,752
777,1	327,324
777,6	330,381
778	333,181
778,4	328,295
778,9	331,21
779,3	326,752
779,7	327,067
780,2	328,381
780,6	322,638
781	314,781
781,5	314,238
781,9	312,695
782,3	305,724
782,8	303,524
783,2	302,095
783,6	304,324
784,1	306,01
784,5	302,81
784,9	297,838
785,4	299,438
785,8	298,781
786,2	295,895
786,7	291,067
787,1	282,467
787,5	283,867
788	285,095
788,4	287,21
788,8	279,152
789,3	274,638
789,7	275,267
790,1	276,238
790,6	273,152
791	266,752
791,4	261,267
791,9	259,695
792,3	253,324
792,7	251,181
793,2	245,467
793,6	241,867
794	244,124
794,5	240,552
794,9	244,867
795,3	248,895
795,8	245,181
796,2	248,867
796,6	250,21
797,1	249,238
797,5	246,324
797,9	239,524
798,4	233,781
798,8	231,781
799,2	229,81
799,7	225,81
800,1	220,638
800,5	220,981
801	221,067
801,4	222,81
801,8	220,438
802,2	218,124
802,7	211,81
803,1	213,438
803,5	214,867
804	211,067
804,4	210,181
804,8	210,238
805,3	207,838
805,7	211,352
806,1	211,038
806,6	207,724
807	208,867
807,4	204,381
807,9	199,181
808,3	198,867
808,7	193,467
809,2	194,724
809,6	196,552
810	190,981
810,4	190,838
810,9	194,867
811,3	194,867
811,7	195,638
812,2	193,267
812,6	188,781
813	191,238
813,5	191,067
813,9	186,495
814,3	184,552
814,8	180,724
815,2	175,352
815,6	173,124
816,1	173,41
816,5	172,81
816,9	171,924
817,3	170,067
817,8	173,667
818,2	170,781
818,6	164,752
819,1	161,038
819,5	158,495
819,9	159,095
820,4	157,581
820,8	152,038
821,2	149,495
821,7	154,581
822,1	156,038
822,5	159,067
822,9	155,638
823,4	155,152
823,8	154,067
824,2	154,438
824,7	148,152
825,1	142,524
825,5	134,895
826	129,238
826,4	125,324
826,8	129,724
827,3	132,124
827,7	134,181
828,1	136,81
828,5	139,524
829	140,381
829,4	141,01
829,8	132,352
830,3	129,61
830,7	127,867
831,1	123,181
831,6	121,095
832	121,981
832,4	120,238
832,8	126,21
833,3	124,895
833,7	120,981
834,1	118,467
834,6	113,152
835	112,781
835,4	113,724
835,8	106,238
836,3	102,952
836,7	108,41
837,1	109,81
837,6	112,867
838	111,21
838,4	107,695
838,9	109,61
839,3	107,924
839,7	103,524
840,1	99,095
840,6	98,924
841	101,952
841,4	102,895
841,9	102,952
842,3	103,152
842,7	106,181
843,1	109,181
843,6	110,152
844	108,81
844,4	111,152
844,9	113,324
845,3	112,895
845,7	107,895
846,2	103,21
846,6	97,01
847	96,238
847,4	93,352
847,9	89,838
848,3	89,667
848,7	87,667
849,2	89,495
849,6	88,952
850	92,61
850,4	90,838
850,9	91,724
851,3	93,581
851,7	97,695
852,2	92,867
852,6	94,181
853	86,638
853,4	88,095
853,9	81,181
854,3	82,095
854,7	81,695
855,2	87,124
855,6	85,552
856	83,695
856,4	77,381
856,9	80,781
857,3	77,095
857,7	79,695
858,2	80,324
858,6	79,895
859	76,267
859,4	77,067
859,9	76,724
860,3	74,552
860,7	68,695
861,1	65,238
861,6	62,81
862	66,952
862,4	65,638
862,9	63,01
863,3	63,067
863,7	61,981
864,1	61,981
864,6	62,181
865	59,981
865,4	62,181
865,9	66,381
866,3	62,495
866,7	64,095
867,1	63,467
867,6	63,838
868	62,867
868,4	59,352
868,8	58,01
869,3	59,524
869,7	61,152
870,1	53,952
870,6	54,21
871	52,095
871,4	59,467
871,8	59,867
872,3	61,467
872,7	58,124
873,1	63,781
873,5	66,267
874	69,867
874,4	64,324
874,8	56,981
875,3	58,467
875,7	54,581
876,1	59,41
876,5	56,124
877	51,895
877,4	52,667
877,8	55,781
878,2	56,038
878,7	63,552
879,1	60,067
879,5	60,924
879,9	67,495
880,4	65,495
880,8	65,581
881,2	65,61
881,7	59,495
882,1	55,838
882,5	53,124
882,9	46,581
883,4	46,038
883,8	44,895
884,2	44,581
884,6	41,924
885,1	43,267
885,5	43,038
885,9	43,095
886,3	46,01
886,8	45,438
887,2	37,124
887,6	40,81
888	40,952
888,5	40,838
888,9	38,867
889,3	30,638
889,8	34,324
890,2	37,152
890,6	31,952
891	33,638
891,5	33,438
891,9	36,381
892,3	39,581
892,7	36,467
893,2	36,01
893,6	37,924
894	39,21
894,4	36,038
894,9	36,438
895,3	37,695
895,7	39,295
896,1	39,952
896,6	44,524
897	42,867
897,4	50,295
897,8	50,838
898,3	54,038
898,7	49,295
899,1	50,181
899,5	47,324
900	37,867
900,4	33,467
900,8	29,638
901,2	21,152
901,7	22,438
902,1	23,324
902,5	25,095
902,9	31,238
903,4	32,81
903,8	34,552
904,2	37,638
904,6	38,81
905,1	37,695
905,5	33,295
905,9	33,552
906,3	33,667
906,8	35,181
907,2	40,324
907,6	42,667
908	40,467
908,5	40,01
908,9	37,895
909,3	36,581
909,7	34,781
910,2	32,895
910,6	35,238
911	34,095
911,4	37,581
911,9	35,952
912,3	34,81
912,7	36,238
913,1	36,267
913,6	26,295
914	24,267
914,4	21,352
914,8	22,124
915,3	20,352
915,7	18,41
916,1	14,895
916,5	19,524
916,9	23,181
917,4	22,838
917,8	25,124
918,2	23,295
918,6	17,267
919,1	20,095
919,5	19,467
919,9	17,524
920,3	11,01
920,8	11,41
921,2	13,838
921,6	19,952
922	19,181
922,5	13,781
922,9	17,381
923,3	22,267
923,7	19,495
924,2	16,952
924,6	15,267
925	15,41
925,4	21,095
925,8	20,752
926,3	19,581
926,7	18,495
927,1	21,381
927,5	24,467
928	19,381
928,4	14,924
928,8	13,152
929,2	13,238
929,7	14,552
930,1	14,21
930,5	12,924
930,9	14,095
931,3	17,038
931,8	13,21
932,2	16,181
932,6	13,952
933	8,781
933,5	8,981
933,9	10,638
934,3	10,01
934,7	11,267
935,2	11,467
935,6	13,552
936	20,724
936,4	19,638
936,8	24,667
937,3	25,238
937,7	27,752
938,1	29,552
938,5	25,181
939	21,152
939,4	24,181
939,8	16,381
940,2	17,552
940,6	14,781
941,1	11,238
941,5	16,467
941,9	15,667
942,3	10,695
942,8	13,067
943,2	13,895
943,6	13,038
944	12,01
944,4	12,695
944,9	8,667
945,3	8,152
945,7	7,495
946,1	6,181
946,6	4,81
947	3,238
947,4	5,524
947,8	9,095
948,2	8,467
948,7	5,667
949,1	3,124
949,5	9,267
949,9	11,352
950,3	7,895
950,8	8,667
951,2	11,038
951,6	10,867
952	14,61
952,5	11,752
952,9	11,867
953,3	12,181
953,7	13,724
954,1	15,038
954,6	17,438
955	18,124
955,4	16,267
955,8	18,581
956,2	18,067
956,7	18,638
957,1	14,181
957,5	13,581
957,9	14,981
958,3	14,924
958,8	15,552
959,2	18,981
959,6	18,638
960	17,524
960,5	23,867
960,9	21,867
961,3	19,41
961,7	16,438
962,1	14,038
962,6	16,352
963	19,981
963,4	13,381
963,8	10,438
964,2	15,781
964,7	17,581
965,1	21,695
965,5	19,81
965,9	19,924
966,3	22,524
966,8	19,21
967,2	20,181
967,6	14,924
968	5,867
968,4	7,152
968,9	8,352
969,3	7,01
969,7	6,581
970,1	5,667
970,5	7,181
971	16,752
971,4	15,724
971,8	16,838
972,2	18,781
972,6	21,867
973,1	21,952
973,5	25,095
973,9	21,61
974,3	19,838
974,7	19,095
975,2	19,295
975,6	18,181
976	17,667
976,4	14,524
976,8	12,924
977,3	12,295
977,7	10,981
978,1	7,781
978,5	8,495
978,9	5,038
979,4	4,81
979,8	-0,39
980,2	2,01
980,6	-1,676
981	2,581
981,5	3,81
981,9	4,152
982,3	6,781
982,7	12,638
983,1	7,695
983,6	9,981
984	6,01
984,4	5,524
984,8	4,924
985,2	5,01
985,6	0,067
986,1	4,952
986,5	9,695
986,9	6,924
987,3	6,238
987,7	6,61
988,2	2,695
988,6	6,695
989	1,524
989,4	-3,276
989,8	-1,105
990,3	-1,162
990,7	1,381
991,1	2,381
991,5	5,21
991,9	9,695
992,3	13,067
992,8	12,924
993,2	14,638
993,6	16,467
994	18,838
994,4	15,81
994,9	12,295
995,3	8,295
995,7	8,638
996,1	8,695
996,5	8,038
996,9	2,981
997,4	6,295
997,8	2,667
998,2	3,695
998,6	0,495
999	0,895
999,5	-1,019
999,9	5,524
1000,3	-0,676
1000,7	4,781
1001,1	4,01
1001,5	10,867
1002	11,41
1002,4	14,581
1002,8	13,095
1003,2	21,181
1003,6	21,038
1004	24,467
1004,5	19,495
1004,9	19,124
1005,3	14,867
1005,7	14,324
1006,1	5,752
1006,6	6,381
1007	5,724
1007,4	5,781
1007,8	6,638
1008,2	7,724
1008,6	8,695
1009,1	13,095
1009,5	11,21
1009,9	12,067
1010,3	15,038
1010,7	13,438
1011,1	12,524
1011,6	12,267
1012	13,352
1012,4	11,581
1012,8	9,152
1013,2	9,352
1013,6	9,981
1014,1	14,581
1014,5	14,01
1014,9	11,067
1015,3	9,324
1015,7	9,867
1016,1	9,21
1016,6	5,295
1017	4,21
1017,4	4,781
1017,8	4,867
1018,2	12,352
1018,6	8,41
1019,1	8,41
1019,5	12,495
1019,9	5,838
1020,3	7,381
1020,7	6,695
1021,1	2,61
1021,6	7,381
1022	7,324
1022,4	7,067
1022,8	13,124
1023,2	11,352
1023,6	14,924
1024,1	16,924
1024,5	17,181
1024,9	16,438
1025,3	18,095
1025,7	13,695
1026,1	14,41
1026,6	16,21
1027	18,152
1027,4	16,524
1027,8	18,467
1028,2	13,838
1028,6	19,21
1029	18,124
1029,5	14,724
1029,9	10,581
1030,3	7,495
1030,7	6,838
1031,1	12,552
1031,5	8,667
1032	11,838
1032,4	9,01
1032,8	12,467
1033,2	17,781
1033,6	19,238
1034	18,267
1034,4	19,867
1034,9	18,067
1035,3	19,524
1035,7	18,181
1036,1	14,981
1036,5	9,295
1036,9	8,495
1037,4	10,352
1037,8	9,495
1038,2	4,21
1038,6	8,695
1039	11,981
1039,4	20,752
1039,8	14,324
1040,3	7,781
1040,7	6,867
1041,1	14,981
1041,5	14,067
1041,9	11,838
1042,3	10,924
1042,7	17,695
1043,2	22,438
1043,6	24,552
1044	22,181
1044,4	17,952
1044,8	21,838
1045,2	18,838
1045,6	18,667
1046,1	19,124
1046,5	18,924
1046,9	17,267
1047,3	20,467
1047,7	17,952
1048,1	12,895
1048,5	9,695
1049	9,152
1049,4	10,667
1049,8	9,667
1050,2	9,267
1050,6	12,381
1051	17,695
1051,4	17,952
1051,9	16,295
1052,3	19,667
1052,7	21,181
1053,1	18,352
1053,5	15,724
1053,9	12,867
1054,3	11,038
1054,8	13,067
1055,2	8,638
1055,6	14,638
1056	14,61
1056,4	9,781
1056,8	13,095
1057,2	16,267
1057,6	14,067
1058,1	11,752
1058,5	2,81
1058,9	7,038
1059,3	12,867
1059,7	13,695
1060,1	14,038
1060,5	16,324
1061	19,695
1061,4	26,81
1061,8	22,81
1062,2	18,695
1062,6	16,552
1063	15,295
1063,4	14,952
1063,8	11,667
1064,3	8,381
1064,7	9,667
1065,1	9,038
1065,5	4,467
1065,9	3,724
1066,3	4,21
1066,7	1,838
1067,1	-2,933
1067,6	0,495
1068	1,152
1068,4	5,781
1068,8	10,181
1069,2	10,267
1069,6	12,495
1070	22,067
1070,4	16,21
1070,9	17,41
1071,3	18,438
1071,7	15,952
1072,1	14,981
1072,5	11,238
1072,9	4,638
1073,3	4,867
1073,7	1,838
1074,2	1,552
1074,6	1,295
1075	1,124
1075,4	4,038
1075,8	9,238
1076,2	10,667
1076,6	13,895
1077	13,095
1077,5	14,181
1077,9	14,81
1078,3	16,667
1078,7	13,381
1079,1	17,838
1079,5	16,324
1079,9	16,552
1080,3	14,01
1080,7	12,695
1081,2	17,724
1081,6	17,752
1082	15,981
1082,4	21,41
1082,8	19,752
1083,2	19,524
1083,6	18,667
1084	14,981
1084,5	16,838
1084,9	11,41
1085,3	3,438
1085,7	4,467
1086,1	4,581
1086,5	7,152
1086,9	9,095
1087,3	9,238
1087,7	12,524
1088,2	15,41
1088,6	12,61
1089	15,924
1089,4	13,124
1089,8	13,267
1090,2	11,21
1090,6	11,181
1091	15,152
1091,4	19,724
1091,9	16,781
1092,3	18,238
1092,7	14,638
1093,1	15,038
1093,5	12,638
1093,9	8,867
1094,3	11,752
1094,7	12,581
1095,1	14,124
1095,5	14,41
1096	12,867
1096,4	13,038
1096,8	14,267
1097,2	8,895
1097,6	13,01
1098	12,781
1098,4	16,238
1098,8	19,838
1099,2	26,467
1099,6	23,467
1100,1	22,552
1100,5	17,524
1100,9	15,41
1101,3	12,181
1101,7	6,181
1102,1	0,867
1102,5	7,895
1102,9	10,238
1103,3	12,01
1103,7	13,838
1104,2	12,41
1104,6	14,924
1105	11,067
1105,4	7,152
1105,8	4,267
1106,2	1,324
1106,6	-0,619
1107	-0,448
1107,4	-1,1
1107,8	2,867
1108,3	-0,183
