Data from Subt2_297.txt Node
Date: Sat Aug 26 19:12:03 MSK 2023
User: vat
Spectrometer: MAYP114033
Trigger mode: 0
Integration Time (sec): 1,000000E0
Scans to average: 5
Electric dark correction enabled: true
Nonlinearity correction enabled: false
Boxcar width: 3
XAxis mode: Wavelengths
Number of Pixels in Spectrum: 2068
>>>>>Begin Spectral Data<<<<<
199,4	0,717
199,9	-0,453
200,4	-2
200,8	-2,819
201,3	-3,79
201,8	-0,533
202,2	-2,276
202,7	3,781
203,2	3,581
203,6	5,981
204,1	6,667
204,6	10,867
205	8,438
205,5	11,038
206	5,61
206,4	7,581
206,9	6,952
207,4	6,324
207,8	7,21
208,3	7,924
208,8	5,924
209,2	9,952
209,7	11,724
210,2	15,467
210,6	18,095
211,1	13,638
211,5	13,067
212	18,438
212,5	14,61
212,9	12,067
213,4	8,724
213,9	6,324
214,3	11,638
214,8	13,581
215,3	12,952
215,7	14,81
216,2	20,124
216,7	20,152
217,1	22,295
217,6	23,21
218,1	23,267
218,5	18,895
219	12,838
219,5	10,924
219,9	4,467
220,4	13,267
220,9	5,41
221,3	3,01
221,8	4,21
222,3	10,467
222,7	11,81
223,2	17,267
223,6	6,838
224,1	7,295
224,6	11,781
225	7,952
225,5	5,867
226	1,495
226,4	6,067
226,9	11,067
227,4	15,467
227,8	9,867
228,3	10,61
228,8	9,724
229,2	11,81
229,7	6,352
230,2	2,552
230,6	6,61
231,1	12,895
231,5	11,952
232	13,838
232,5	11,067
232,9	19,952
233,4	21,295
233,9	15,324
234,3	11,495
234,8	15,752
235,3	15,381
235,7	19,981
236,2	12,638
236,7	12,924
237,1	11,61
237,6	7,838
238,1	7,267
238,5	1,838
239	2,124
239,4	5,438
239,9	0,952
240,4	5,81
240,8	11,21
241,3	9,981
241,8	12,838
242,2	8,752
242,7	4,41
243,2	7,067
243,6	2,838
244,1	2,667
244,6	7,181
245	13,095
245,5	14,838
245,9	13,752
246,4	16,838
246,9	20,324
247,3	20,124
247,8	18,067
248,3	14,838
248,7	14,724
249,2	17,781
249,7	18,381
250,1	15,952
250,6	16,752
251	19,01
251,5	18,895
252	15,867
252,4	19,752
252,9	17,495
253,4	17,781
253,8	13,01
254,3	9,952
254,8	10,981
255,2	10,381
255,7	3,41
256,1	5,41
256,6	1,495
257,1	5,381
257,5	-0,362
258	-2,705
258,5	-0,905
258,9	4,038
259,4	0,581
259,9	5,324
260,3	3,924
260,8	8,152
261,2	8,981
261,7	11,667
262,2	5,952
262,6	4,638
263,1	3,981
263,6	4,095
264	7,981
264,5	8,667
264,9	7,524
265,4	12,952
265,9	14,724
266,3	22,495
266,8	26,067
267,3	21,638
267,7	20,952
268,2	20,238
268,7	20,581
269,1	20,924
269,6	11,581
270	10,667
270,5	10,981
271	12,924
271,4	13,267
271,9	8,41
272,4	12,495
272,8	16,124
273,3	8,667
273,7	10,61
274,2	10,181
274,7	12,552
275,1	13,495
275,6	12,952
276,1	8,095
276,5	15,81
277	15,267
277,4	15,01
277,9	14,267
278,4	16,038
278,8	12,867
279,3	17,524
279,8	16,495
280,2	14,524
280,7	14,581
281,1	10,267
281,6	12,524
282,1	14,667
282,5	11,952
283	12,152
283,4	11,124
283,9	11,324
284,4	19,41
284,8	16,467
285,3	13,724
285,8	14,924
286,2	10,524
286,7	13,724
287,1	9,01
287,6	2,41
288,1	-0,162
288,5	2,867
289	3,638
289,5	6,295
289,9	8,467
290,4	14,01
290,8	15,41
291,3	20,638
291,8	22,41
292,2	20,152
292,7	22,41
293,1	19,152
293,6	22,61
294,1	23,381
294,5	20,467
295	15,752
295,5	12,667
295,9	15,924
296,4	16,181
296,8	14,095
297,3	12,552
297,8	10,867
298,2	4,695
298,7	10,524
299,1	5,381
299,6	0,267
300,1	2,01
300,5	3,552
301	7,381
301,5	16,238
301,9	13,495
302,4	9,324
302,8	14,067
303,3	10,124
303,8	3,867
304,2	1,695
304,7	-0,219
305,1	-2,848
305,6	0,238
306,1	3,552
306,5	3,81
307	11,981
307,4	14,495
307,9	14,524
308,4	15,038
308,8	12,752
309,3	14,552
309,8	13,924
310,2	12,381
310,7	8,352
311,1	3,924
311,6	9,867
312,1	11,895
312,5	10,067
313	10,781
313,4	7,981
313,9	11,524
314,4	13,467
314,8	10,324
315,3	10,324
315,7	2,724
316,2	0,352
316,7	-0,99
317,1	1,152
317,6	5,61
318	8,867
318,5	7,124
319	13,724
319,4	18,924
319,9	25,352
320,3	22,352
320,8	19,21
321,3	17,124
321,7	19,895
322,2	16,81
322,6	13,724
323,1	7,895
323,6	6,21
324	8,124
324,5	4,924
324,9	4,41
325,4	3,867
325,9	6,981
326,3	13,581
326,8	15,21
327,2	13,524
327,7	15,41
328,2	19,981
328,6	25,61
329,1	18,067
329,5	14,667
330	14,124
330,5	13,781
330,9	15,81
331,4	13,238
331,8	9,638
332,3	17,467
332,8	17,295
333,2	16,067
333,7	19,038
334,1	18,295
334,6	16,867
335,1	14,352
335,5	10,895
336	9,01
336,4	13,752
336,9	17,01
337,4	20,552
337,8	18,495
338,3	22,267
338,7	24,095
339,2	25,01
339,7	25,181
340,1	16,067
340,6	11,838
341	11,781
341,5	11,152
342	5,552
342,4	5,838
342,9	0,952
343,3	5,895
343,8	5,524
344,2	7,438
344,7	9,181
345,2	12,495
345,6	12,495
346,1	16,467
346,5	15,095
347	13,467
347,5	13,01
347,9	14,552
348,4	19,752
348,8	18,667
349,3	17,895
349,8	22,067
350,2	30,238
350,7	33,238
351,1	31,638
351,6	30,038
352	36,095
352,5	42,724
353	48,467
353,4	48,81
353,9	56,21
354,3	67,124
354,8	77,867
355,3	93,467
355,7	104,924
356,2	120,667
356,6	144,238
357,1	169,581
357,5	196,638
358	226,895
358,5	257,724
358,9	300,295
359,4	342,295
359,8	394,067
360,3	448,895
360,8	509,581
361,2	581,752
361,7	662,495
362,1	752,067
362,6	848,638
363	946,752
363,5	1052,867
364	1174,61
364,4	1286,467
364,9	1401,924
365,3	1516,867
365,8	1622,21
366,3	1722,152
366,7	1817,524
367,2	1892,61
367,6	1954,324
368,1	2001,238
368,5	2026,495
369	2048,552
369,5	2051,724
369,9	2031,238
370,4	1993,067
370,8	1955,81
371,3	1900,352
371,7	1834,21
372,2	1753,524
372,7	1670,667
373,1	1584,667
373,6	1491,867
374	1398,01
374,5	1303,581
374,9	1215,381
375,4	1127,438
375,9	1042,267
376,3	961,238
376,8	887,81
377,2	817,124
377,7	753,895
378,2	688,381
378,6	633,01
379,1	578,838
379,5	531,638
380	493,21
380,4	456,238
380,9	417,495
381,4	386,324
381,8	360,21
382,3	337,21
382,7	311,381
383,2	289,41
383,6	267,867
384,1	248,952
384,6	236,495
385	218,81
385,5	204,324
385,9	190,752
386,4	178,81
386,8	167,21
387,3	160,438
387,7	151,895
388,2	144,524
388,7	134,41
389,1	129,724
389,6	127,21
390	120,552
390,5	117,067
390,9	111,638
391,4	105,267
391,9	101,752
392,3	96,552
392,8	83,924
393,2	77,181
393,7	73,467
394,1	65,324
394,6	61,324
395,1	60,01
395,5	60,01
396	60,095
396,4	61,21
396,9	55,81
397,3	61,667
397,8	63,524
398,2	62,41
398,7	63,638
399,2	62,867
399,6	63,495
400,1	66,352
400,5	56,467
401	56,124
401,4	47,467
401,9	45,295
402,4	47,581
402,8	43,581
403,3	44,61
403,7	45,924
404,2	44,667
404,6	51,295
405,1	48,524
405,5	44,981
406	48,781
406,5	39,524
406,9	43,495
407,4	38,724
407,8	39,752
408,3	42,552
408,7	46,667
409,2	47,181
409,6	53,867
410,1	52,41
410,6	61,495
411	64,581
411,5	65,81
411,9	63,752
412,4	63,438
412,8	65,638
413,3	69,952
413,7	64,638
414,2	60,61
414,7	65,152
415,1	71,581
415,6	74,352
416	75,238
416,5	75,21
416,9	79,152
417,4	88,752
417,8	92,324
418,3	96,638
418,8	102,124
419,2	103,924
419,7	104,81
420,1	110,895
420,6	106,638
421	104,752
421,5	102,495
421,9	102,61
422,4	106,552
422,8	105,667
423,3	103,21
423,8	102,667
424,2	100,324
424,7	100,438
425,1	100,181
425,6	100,552
426	103,524
426,5	105,524
426,9	110,152
427,4	106,181
427,9	101,352
428,3	101,467
428,8	100,81
429,2	99,924
429,7	96,524
430,1	93,238
430,6	100,638
431	102,381
431,5	101,667
431,9	100,152
432,4	101,924
432,8	104,467
433,3	108,152
433,8	105,552
434,2	110,267
434,7	113,152
435,1	117,524
435,6	118,552
436	121,838
436,5	127,295
436,9	126,781
437,4	130,238
437,8	135,524
438,3	140,324
438,8	146,467
439,2	153,181
439,7	156,095
440,1	170,924
440,6	180,724
441	180,638
441,5	187,838
441,9	197,067
442,4	199,438
442,8	203,981
443,3	212,467
443,7	218,038
444,2	230,638
444,7	235,038
445,1	241,295
445,6	250,752
446	265,524
446,5	265,838
446,9	267,238
447,4	277,352
447,8	293,638
448,3	306,01
448,7	321,152
449,2	333,981
449,6	353,267
450,1	369,01
450,6	382,41
451	389,352
451,5	404,381
451,9	419,067
452,4	431,752
452,8	444,781
453,3	466,095
453,7	480,352
454,2	499,01
454,6	513,038
455,1	529,524
455,5	543,324
456	565,838
456,4	582,981
456,9	602,581
457,3	621,01
457,8	634,81
458,3	658,124
458,7	680,038
459,2	696,495
459,6	711,638
460,1	734,981
460,5	753,21
461	783,638
461,4	798,467
461,9	819,41
462,3	846,352
462,8	874,21
463,2	886,695
463,7	916,867
464,1	941,295
464,6	974,038
465	1004,324
465,5	1027,238
466	1056,581
466,4	1092,095
466,9	1118,895
467,3	1143,581
467,8	1164,124
468,2	1190,752
468,7	1220,838
469,1	1250,067
469,6	1276,095
470	1304,267
470,5	1333,838
470,9	1359,752
471,4	1384,781
471,8	1408,638
472,3	1438,495
472,7	1474,067
473,2	1497,752
473,6	1526,038
474,1	1562,952
474,5	1592,638
475	1622,61
475,4	1643,067
475,9	1668,381
476,4	1699,638
476,8	1727,41
477,3	1750,524
477,7	1778,295
478,2	1807,067
478,6	1830,01
479,1	1851,981
479,5	1877,552
480	1902,067
480,4	1925,152
480,9	1946,467
481,3	1965,324
481,8	1993,724
482,2	2013,867
482,7	2037,495
483,1	2056,152
483,6	2075,924
484	2092,867
484,5	2114,781
484,9	2131,581
485,4	2157,181
485,8	2171,467
486,3	2192,552
486,7	2216,952
487,2	2238,095
487,6	2256,067
488,1	2277,124
488,5	2288,295
489	2297,981
489,4	2309,838
489,9	2312,952
490,4	2323,295
490,8	2337,695
491,3	2346,724
491,7	2357,124
492,2	2373,495
492,6	2386,438
493,1	2401,381
493,5	2409,067
494	2410,438
494,4	2418,752
494,9	2428,352
495,3	2440,124
495,8	2447,895
496,2	2459,41
496,7	2466,467
497,1	2476,781
497,6	2483,352
498	2491,267
498,5	2494,124
498,9	2494,21
499,4	2495,352
499,8	2504,038
500,3	2507,352
500,7	2507,038
501,2	2506,324
501,6	2502,724
502,1	2506,295
502,5	2511,952
503	2514,381
503,4	2513,295
503,9	2517,752
504,3	2516,924
504,8	2529,21
505,2	2532,01
505,7	2522,067
506,1	2523,124
506,6	2525,067
507	2526,81
507,5	2533,752
507,9	2532,152
508,4	2529,638
508,8	2537,038
509,3	2530,838
509,7	2534,981
510,2	2539,581
510,6	2529,695
511,1	2525,981
511,5	2529,095
512	2529,152
512,4	2532,295
512,9	2528,095
513,3	2521,838
513,8	2524,81
514,2	2522,124
514,7	2517,267
515,1	2508,867
515,6	2505,238
516	2501,438
516,5	2506,581
516,9	2504,438
517,4	2505,41
517,8	2510,095
518,3	2511,295
518,7	2507,21
519,2	2503,41
519,6	2494,667
520,1	2496,238
520,5	2492,381
521	2483,752
521,4	2487,638
521,9	2493,295
522,3	2491,838
522,8	2490,381
523,2	2487,81
523,7	2488,01
524,1	2488,952
524,6	2479,095
525	2475,838
525,5	2476,381
525,9	2480,381
526,4	2475,181
526,8	2470,552
527,3	2470,438
527,7	2475,352
528,2	2482,238
528,6	2482,038
529,1	2483,381
529,5	2489,895
530	2492,838
530,4	2492,981
530,9	2493,838
531,3	2491,381
531,8	2493,981
532,2	2494,495
532,6	2496,695
533,1	2495,81
533,5	2501,724
534	2500,495
534,4	2500,895
534,9	2507,095
535,3	2506,01
535,8	2506,952
536,2	2513,01
536,7	2517,61
537,1	2524,41
537,6	2522,038
538	2523,124
538,5	2525,381
538,9	2522,695
539,4	2529,781
539,8	2524,467
540,3	2524,867
540,7	2529,295
541,2	2525,124
541,6	2524,81
542,1	2529,495
542,5	2526,781
543	2526,952
543,4	2525,038
543,9	2531,067
544,3	2539,581
544,8	2543,781
545,2	2547,095
545,7	2553,61
546,1	2568,095
546,5	2576,41
547	2574,295
547,4	2577,181
547,9	2576,724
548,3	2581,181
548,8	2577,381
549,2	2573,381
549,7	2577,038
550,1	2582,981
550,6	2586,924
551	2588,667
551,5	2586,438
551,9	2587,752
552,4	2595,924
552,8	2594,295
553,3	2594,095
553,7	2594,838
554,2	2598,324
554,6	2610,01
555,1	2620,895
555,5	2615,124
555,9	2621,124
556,4	2624,781
556,8	2624,981
557,3	2631,524
557,7	2633,924
558,2	2634,981
558,6	2644,867
559,1	2645,095
559,5	2651,667
560	2660,438
560,4	2663,095
560,9	2662,438
561,3	2658,924
561,8	2656,61
562,2	2663,124
562,7	2661,867
563,1	2666,038
563,6	2666,21
564	2665,152
564,4	2668,638
564,9	2669,21
565,3	2667,152
565,8	2665,552
566,2	2663,152
566,7	2664,752
567,1	2670,152
567,6	2671,01
568	2673,324
568,5	2677,381
568,9	2677,181
569,4	2679,21
569,8	2679,352
570,3	2675,867
570,7	2675,981
571,1	2676,524
571,6	2672,838
572	2673,552
572,5	2669,667
572,9	2668,152
573,4	2668,867
573,8	2670,038
574,3	2666,095
574,7	2667,238
575,2	2668,267
575,6	2668,324
576,1	2671,838
576,5	2673,381
576,9	2667,81
577,4	2668,124
577,8	2664,095
578,3	2664,781
578,7	2658,095
579,2	2656,781
579,6	2649,838
580,1	2645,467
580,5	2642,038
581	2644,952
581,4	2640,924
581,9	2640,524
582,3	2631,781
582,7	2633,181
583,2	2633,324
583,6	2628,867
584,1	2624,61
584,5	2615,924
585	2611,124
585,4	2607,495
585,9	2601,724
586,3	2599,981
586,8	2598,181
587,2	2594,981
587,6	2600,181
588,1	2597,752
588,5	2593,867
589	2589,552
589,4	2585,838
589,9	2580,524
590,3	2571,238
590,8	2559,667
591,2	2558,924
591,7	2560,352
592,1	2557,295
592,5	2558,495
593	2557,524
593,4	2555,324
593,9	2555,895
594,3	2550,01
594,8	2542,638
595,2	2537,924
595,7	2531,438
596,1	2524,181
596,6	2522,067
597	2516,924
597,4	2510,952
597,9	2505,867
598,3	2504,067
598,8	2497,267
599,2	2492,438
599,7	2484,724
600,1	2480,41
600,6	2479,324
601	2474,695
601,4	2470,667
601,9	2470,152
602,3	2463,667
602,8	2460,81
603,2	2453,324
603,7	2441,324
604,1	2436,21
604,6	2426,981
605	2409,581
605,4	2409,41
605,9	2403,181
606,3	2389,495
606,8	2384,267
607,2	2376,352
607,7	2365,981
608,1	2366,324
608,6	2360,467
609	2357,724
609,4	2364,552
609,9	2359,01
610,3	2358,152
610,8	2352,781
611,2	2342,981
611,7	2332,381
612,1	2315,438
612,6	2304,838
613	2302,552
613,4	2287,952
613,9	2283,295
614,3	2273,524
614,8	2267,81
615,2	2264,21
615,7	2255,895
616,1	2247,61
616,6	2239,61
617	2226,124
617,4	2218,352
617,9	2210,667
618,3	2206,81
618,8	2202,41
619,2	2189,181
619,7	2183,41
620,1	2179,724
620,5	2178,781
621	2161,981
621,4	2153,524
621,9	2142,895
622,3	2137,181
622,8	2122,752
623,2	2114,981
623,6	2099,724
624,1	2098,295
624,5	2088,095
625	2080,152
625,4	2071,095
625,9	2066,038
626,3	2051,781
626,8	2047,952
627,2	2037,324
627,6	2022,324
628,1	2004,067
628,5	1998,952
629	1989,381
629,4	1980,581
629,9	1969,638
630,3	1960,267
630,7	1954,067
631,2	1952,524
631,6	1940,695
632,1	1932,524
632,5	1927,41
633	1918,381
633,4	1905,867
633,8	1894,867
634,3	1883,495
634,7	1873,724
635,2	1860,295
635,6	1852,552
636,1	1844,352
636,5	1836,867
636,9	1827,038
637,4	1821,152
637,8	1807,124
638,3	1800,695
638,7	1788,752
639,2	1776,638
639,6	1765,981
640	1755,238
640,5	1742,867
640,9	1734,438
641,4	1727,724
641,8	1721,695
642,2	1714,638
642,7	1716,638
643,1	1718,152
643,6	1710,295
644	1705,324
644,5	1700,952
644,9	1693,152
645,3	1683,81
645,8	1669,21
646,2	1665,181
646,7	1656,438
647,1	1650,21
647,6	1639,238
648	1631,924
648,4	1621,924
648,9	1617,21
649,3	1599,838
649,8	1591,352
650,2	1579,124
650,6	1578,552
651,1	1570,124
651,5	1568,838
652	1560,752
652,4	1548,438
652,9	1546,695
653,3	1537,038
653,7	1521,952
654,2	1512,667
654,6	1499,638
655,1	1494,981
655,5	1494,552
655,9	1485,752
656,4	1480,238
656,8	1471,21
657,3	1467,381
657,7	1466,238
658,2	1448,952
658,6	1439,267
659	1432,952
659,5	1426,124
659,9	1415,552
660,4	1405,41
660,8	1393,038
661,2	1390,781
661,7	1382,095
662,1	1371,781
662,6	1366,981
663	1363,581
663,4	1356,61
663,9	1348,61
664,3	1339,381
664,8	1330,524
665,2	1319,638
665,6	1305,695
666,1	1294,724
666,5	1286,238
667	1279,524
667,4	1268,867
667,9	1263,638
668,3	1256,01
668,7	1251,21
669,2	1246,495
669,6	1241,41
670,1	1236,41
670,5	1233,438
670,9	1221,267
671,4	1210,924
671,8	1206,181
672,3	1203,038
672,7	1194,838
673,1	1180,81
673,6	1170,295
674	1171,981
674,5	1167,581
674,9	1160,695
675,3	1148,152
675,8	1141,924
676,2	1137,524
676,7	1127,667
677,1	1117,095
677,5	1110,81
678	1102,61
678,4	1098,981
678,9	1089,752
679,3	1085,81
679,7	1083,152
680,2	1070,238
680,6	1061,295
681,1	1054,838
681,5	1049,924
681,9	1044,781
682,4	1038,638
682,8	1031,81
683,3	1029,638
683,7	1025,638
684,1	1017,581
684,6	1009,81
685	998,61
685,5	988,981
685,9	979,21
686,3	972,581
686,8	964,524
687,2	958,495
687,7	951,381
688,1	945,581
688,5	941,695
689	937,324
689,4	932,924
689,9	933,124
690,3	925,01
690,7	917,638
691,2	917,124
691,6	914,295
692	909,581
692,5	903,01
692,9	896,181
693,4	896,867
693,8	890,41
694,2	883,467
694,7	871,095
695,1	862,867
695,6	861,81
696	850,781
696,4	840,381
696,9	834,124
697,3	826,381
697,8	824,152
698,2	818,61
698,6	811,81
699,1	810,41
699,5	807,81
699,9	801,552
700,4	794,895
700,8	790,695
701,3	790,238
701,7	783,695
702,1	781,267
702,6	774,981
703	775,695
703,5	770,01
703,9	762,438
704,3	758,067
704,8	750,41
705,2	744,21
705,6	737,41
706,1	731,352
706,5	731,667
707	733,21
707,4	729,924
707,8	724,581
708,3	721,181
708,7	719,495
709,2	713,152
709,6	706,981
710	703,295
710,5	692,552
710,9	690,952
711,3	680,124
711,8	682,01
712,2	675,695
712,7	671,61
713,1	667,438
713,5	670,981
714	666,952
714,4	666,238
714,8	654,81
715,3	651,01
715,7	646,752
716,2	636,467
716,6	630,667
717	622,495
717,5	618,095
717,9	617,095
718,3	612,895
718,8	608,438
719,2	607,952
719,7	604,038
720,1	604,924
720,5	605,352
721	596,067
721,4	593,895
721,8	593,238
722,3	582,438
722,7	579,095
723,2	569,381
723,6	555,295
724	554,552
724,5	549,895
724,9	540,838
725,3	537,495
725,8	525,952
726,2	527,295
726,7	528,61
727,1	523,695
727,5	523,01
728	519,21
728,4	519,038
728,8	519,724
729,3	512,752
729,7	508,695
730,1	506,552
730,6	502,667
731	497,981
731,5	493,524
731,9	490,467
732,3	493,952
732,8	490,867
733,2	487,724
733,6	483,152
734,1	484,438
734,5	482,324
734,9	484,467
735,4	479,924
735,8	471,438
736,3	472,724
736,7	469,267
737,1	465,152
737,6	462,352
738	456,438
738,4	452,152
738,9	460,01
739,3	458,61
739,7	457,352
740,2	453,438
740,6	456,21
741,1	454,981
741,5	450,61
741,9	448,21
742,4	443,352
742,8	442,552
743,2	442,152
743,7	433,038
744,1	425,41
744,5	424,467
745	416,752
745,4	408,724
745,8	401,952
746,3	401,095
746,7	400,524
747,2	397,352
747,6	399,038
748	399,924
748,5	399,981
748,9	397,352
749,3	391,867
749,8	389,638
750,2	389,981
750,6	382,495
751,1	384,095
751,5	383,352
751,9	384,895
752,4	385,438
752,8	384,81
753,3	384,438
753,7	384,067
754,1	370,438
754,6	363,295
755	357,238
755,4	352,352
755,9	343,067
756,3	339,695
756,7	337,781
757,2	339,838
757,6	343,324
758	343,952
758,5	342,895
758,9	342,238
759,3	338,438
759,8	334,41
760,2	333,867
760,6	326,124
761,1	320,81
761,5	320,21
761,9	321,095
762,4	319,067
762,8	316,038
763,3	311,638
763,7	316,438
764,1	315,552
764,6	308,781
765	308,838
765,4	307,695
765,9	309,752
766,3	310,295
766,7	303,238
767,2	302,838
767,6	308,81
768	307,352
768,5	303,181
768,9	299,667
769,3	297,038
769,8	297,867
770,2	296,81
770,6	294,438
771,1	296,81
771,5	296,495
771,9	294,695
772,4	293,667
772,8	292,781
773,2	292,238
773,7	286,267
774,1	281,267
774,5	279,095
775	275,495
775,4	273,324
775,8	268,752
776,3	266,724
776,7	264,752
777,1	261,41
777,6	263,638
778	266,552
778,4	265,21
778,9	267,524
779,3	264,124
779,7	264,61
780,2	263,524
780,6	261,524
781	252,695
781,5	244,438
781,9	240,181
782,3	238,552
782,8	233,552
783,2	229,781
783,6	227,924
784,1	227,267
784,5	232,124
784,9	227,067
785,4	228,495
785,8	229,095
786,2	230,381
786,7	226,181
787,1	225,267
787,5	222,781
788	222,952
788,4	222,667
788,8	222,724
789,3	219,152
789,7	219,238
790,1	220,41
790,6	219,61
791	215,524
791,4	213,81
791,9	207,524
792,3	201,438
792,7	204,267
793,2	198,552
793,6	196,181
794	197,238
794,5	189,01
794,9	190,124
795,3	196,638
795,8	191,638
796,2	194,924
796,6	195,552
797,1	196,467
797,5	195,095
797,9	191,61
798,4	186,267
798,8	183,981
799,2	181,095
799,7	182,924
800,1	178,667
800,5	180,152
801	184,038
801,4	183,467
801,8	182,238
802,2	181,438
802,7	175,695
803,1	176,038
803,5	173,41
804	170,21
804,4	171,381
804,8	171,21
805,3	174,952
805,7	173,467
806,1	174,324
806,6	178,552
807	173,381
807,4	167,81
807,9	160,438
808,3	158,81
808,7	157,267
809,2	154,152
809,6	153,181
810	154,038
810,4	156,381
810,9	159,41
811,3	155,695
811,7	157,724
812,2	162,01
812,6	156,695
813	157,752
813,5	156,638
813,9	156,781
814,3	156,495
814,8	151,781
815,2	146,981
815,6	145,581
816,1	145,267
816,5	145,067
816,9	143,21
817,3	142,21
817,8	149,781
818,2	146,124
818,6	145,124
819,1	141,152
819,5	135,924
819,9	142,324
820,4	135,695
820,8	126,181
821,2	124,781
821,7	126,381
822,1	127,61
822,5	132,61
822,9	126,867
823,4	129,581
823,8	131,067
824,2	134,724
824,7	127,981
825,1	122,295
825,5	117,295
826	112,267
826,4	110,124
826,8	105,895
827,3	107,781
827,7	106,895
828,1	112,324
828,5	113,267
829	106,267
829,4	109,695
829,8	107,638
830,3	101,952
830,7	103,724
831,1	103,895
831,6	101,895
832	111,038
832,4	106,667
832,8	109,781
833,3	107,21
833,7	105,581
834,1	101,667
834,6	100,41
835	96,467
835,4	98,61
835,8	94,724
836,3	93,552
836,7	97,81
837,1	93,01
837,6	93,01
838	92,238
838,4	91,067
838,9	93,81
839,3	94,467
839,7	91,267
840,1	90,438
840,6	92,352
841	93,552
841,4	91,295
841,9	88,181
842,3	85,467
842,7	82,924
843,1	86,495
843,6	82,524
844	82,095
844,4	84,667
844,9	87,181
845,3	90,838
845,7	96,124
846,2	92,381
846,6	88,524
847	88,238
847,4	87,781
847,9	87,752
848,3	86,238
848,7	80,381
849,2	80,867
849,6	81,438
850	83,152
850,4	78,495
850,9	76,981
851,3	76,752
851,7	81,21
852,2	84,038
852,6	88,267
853	83,752
853,4	80,581
853,9	78,981
854,3	77,924
854,7	75,695
855,2	73,267
855,6	73,381
856	70,781
856,4	71,924
856,9	70,867
857,3	73,867
857,7	75,181
858,2	80,895
858,6	76,524
859	79,581
859,4	77,21
859,9	74,838
860,3	64,838
860,7	57,838
861,1	50,41
861,6	47,124
862	47,952
862,4	49,981
862,9	54,324
863,3	59,41
863,7	62,21
864,1	66,524
864,6	66,838
865	62,438
865,4	64,267
865,9	64,867
866,3	62,067
866,7	59,181
867,1	54,752
867,6	57,381
868	56,638
868,4	53,438
868,8	50,695
869,3	52,01
869,7	55,238
870,1	55,181
870,6	52,495
871	-23,048
871,4	-18,848
871,8	-21,962
872,3	-19,59
872,7	-22,419
873,1	-23,59
873,5	-19,305
874	56,267
874,4	56,524
874,8	57,838
875,3	56,41
875,7	56,638
876,1	56,581
876,5	55,01
877	54,41
877,4	46,152
877,8	50,638
878,2	52,838
878,7	54,81
879,1	54,238
879,5	50,181
879,9	55,438
880,4	59,724
880,8	54,724
881,2	52,467
881,7	48,752
882,1	47,81
882,5	49,724
882,9	42,752
883,4	40,924
883,8	41,895
884,2	42,067
884,6	41,781
885,1	41,781
885,5	41,724
885,9	44,124
886,3	41,238
886,8	41,952
887,2	38,095
887,6	40,581
888	38,295
888,5	37,495
888,9	37,924
889,3	39,467
889,8	37,381
890,2	38,267
890,6	31,895
891	33,638
891,5	33,781
891,9	32,238
892,3	31,552
892,7	33,581
893,2	32,752
893,6	35,238
894	36,124
894,4	33,752
894,9	32,552
895,3	32,181
895,7	31,41
896,1	29,095
896,6	32,952
897	33,695
897,4	38,038
897,8	41,867
898,3	46,095
898,7	41,495
899,1	41,638
899,5	37,838
900	33,381
900,4	32,41
900,8	30,295
901,2	26,124
901,7	27,752
902,1	28,267
902,5	32,067
902,9	34,181
903,4	32,924
903,8	31,295
904,2	30,41
904,6	31,524
905,1	31,895
905,5	26,667
905,9	30,981
906,3	31,181
906,8	30,981
907,2	34,924
907,6	38,724
908	45,381
908,5	43,581
908,9	36,467
909,3	32,895
909,7	33,381
910,2	30,952
910,6	30,781
911	21,552
911,4	27,638
911,9	27,01
912,3	32,352
912,7	36,695
913,1	41,238
913,6	35,924
914	37,095
914,4	34,295
914,8	35,495
915,3	27,524
915,7	24,638
916,1	18,867
916,5	20,038
916,9	21,524
917,4	18,924
917,8	21,552
918,2	24,295
918,6	20,667
919,1	22,495
919,5	22,752
919,9	23,638
920,3	27,838
920,8	27,01
921,2	27,181
921,6	27,01
922	26,438
922,5	23,895
922,9	20,552
923,3	15,61
923,7	17,181
924,2	13,381
924,6	13,981
925	11,41
925,4	12,01
925,8	16,61
926,3	19,352
926,7	14,495
927,1	23,295
927,5	27,867
928	25,41
928,4	22,581
928,8	19,952
929,2	18,038
929,7	17,552
930,1	13,524
930,5	7,981
930,9	15,095
931,3	20,21
931,8	20,295
932,2	23,01
932,6	21,067
933	17,495
933,5	23,095
933,9	20,924
934,3	20,81
934,7	17,724
935,2	14,381
935,6	20,638
936	22,095
936,4	18,438
936,8	23,038
937,3	22,067
937,7	24,152
938,1	30,438
938,5	27,01
939	27,724
939,4	28,495
939,8	20,838
940,2	19,438
940,6	20,181
941,1	12,952
941,5	18,295
941,9	17,638
942,3	16,695
942,8	19,152
943,2	17,838
943,6	15,781
944	19,152
944,4	16,467
944,9	15,095
945,3	15,495
945,7	9,895
946,1	11,352
946,6	14,695
947	14,238
947,4	14,81
947,8	18,724
948,2	12,61
948,7	18,781
949,1	15,495
949,5	18,324
949,9	17,295
950,3	15,324
950,8	13,838
951,2	18,01
951,6	14,952
952	17,152
952,5	10,981
952,9	11,295
953,3	11,952
953,7	10,01
954,1	14,638
954,6	17,552
955	21,438
955,4	22,867
955,8	25,752
956,2	27,81
956,7	31,638
957,1	26,581
957,5	28,924
957,9	25,381
958,3	27,752
958,8	28,81
959,2	28,038
959,6	30,21
960	29,324
960,5	27,238
960,9	30,352
961,3	23,524
961,7	21,524
962,1	17,467
962,6	15,267
963	16,324
963,4	12,667
963,8	9,41
964,2	12,81
964,7	10,952
965,1	15,838
965,5	11,238
965,9	9,838
966,3	12,438
966,8	10,438
967,2	12,295
967,6	11,952
968	7,21
968,4	6,81
968,9	9,724
969,3	13,438
969,7	14,124
970,1	16,552
970,5	14,41
971	19,552
971,4	24,381
971,8	25,324
972,2	23,352
972,6	22,067
973,1	21,124
973,5	28,295
973,9	27,924
974,3	27,467
974,7	29,267
975,2	29,895
975,6	33,61
976	31,81
976,4	25,067
976,8	24,838
977,3	21,61
977,7	15,781
978,1	12,181
978,5	9,61
978,9	9,41
979,4	10,381
979,8	8,295
980,2	9,638
980,6	8,752
981	10,752
981,5	7,838
981,9	5,21
982,3	8,038
982,7	10,838
983,1	6,838
983,6	5,724
984	5,81
984,4	12,124
984,8	13,21
985,2	11,781
985,6	5,981
986,1	13,038
986,5	18,867
986,9	14,895
987,3	16,438
987,7	17,124
988,2	12,152
988,6	15,81
989	10,952
989,4	9,724
989,8	12,21
990,3	8,21
990,7	3,895
991,1	7,81
991,5	8,181
991,9	10,238
992,3	13,295
992,8	16,41
993,2	17,495
993,6	23,724
994	29,038
994,4	29,152
994,9	31,695
995,3	24,552
995,7	21,667
996,1	23,095
996,5	22,095
996,9	12,038
997,4	14,324
997,8	9,038
998,2	12,81
998,6	5,295
999	0,895
999,5	-1,362
999,9	4,495
1000,3	-3,648
1000,7	-2,476
1001,1	-3,933
1001,5	2,067
1002	5,838
1002,4	11,61
1002,8	8,181
1003,2	14,895
1003,6	17,638
1004	19,152
1004,5	19,81
1004,9	17,724
1005,3	8,524
1005,7	13,038
1006,1	7,695
1006,6	4,067
1007	5,152
1007,4	3,181
1007,8	5,724
1008,2	7,124
1008,6	3,952
1009,1	6,552
1009,5	10,895
1009,9	10,152
1010,3	11,81
1010,7	10,267
1011,1	9,067
1011,6	8,952
1012	10,552
1012,4	6,895
1012,8	4,838
1013,2	12,438
1013,6	12,61
1014,1	15,981
1014,5	17,038
1014,9	12,952
1015,3	10,038
1015,7	12,524
1016,1	4,295
1016,6	2,638
1017	6,324
1017,4	9,352
1017,8	12,095
1018,2	18,438
1018,6	10,352
1019,1	10,667
1019,5	13,838
1019,9	6,381
1020,3	5,438
1020,7	8,495
1021,1	5,81
1021,6	12,41
1022	16,924
1022,4	17,552
1022,8	23,667
1023,2	22,638
1023,6	20,324
1024,1	27,581
1024,5	27,895
1024,9	17,695
1025,3	15,924
1025,7	13,924
1026,1	19,21
1026,6	20,01
1027	13,581
1027,4	16,067
1027,8	25,41
1028,2	22,21
1028,6	28,981
1029	22,924
1029,5	24,581
1029,9	22,895
1030,3	18,238
1030,7	17,01
1031,1	19,324
1031,5	8,81
1032	9,152
1032,4	6,724
1032,8	6,524
1033,2	10,124
1033,6	5,838
1034	4,067
1034,4	6,124
1034,9	9,095
1035,3	7,01
1035,7	11,952
1036,1	8,095
1036,5	5,01
1036,9	8,438
1037,4	12,324
1037,8	6,895
1038,2	8,952
1038,6	10,467
1039	16,238
1039,4	24,152
1039,8	17,61
1040,3	19,01
1040,7	21,152
1041,1	24,438
1041,5	23,638
1041,9	17,638
1042,3	17,61
1042,7	23,181
1043,2	22,552
1043,6	20,267
1044	16,181
1044,4	11,838
1044,8	14,81
1045,2	14,038
1045,6	15,552
1046,1	13,638
1046,5	14,81
1046,9	14,038
1047,3	14,181
1047,7	11,152
1048,1	8,724
1048,5	8,238
1049	11,581
1049,4	15,41
1049,8	18,924
1050,2	20,952
1050,6	28,724
1051	31,124
1051,4	30,295
1051,9	26,61
1052,3	30,238
1052,7	27,038
1053,1	26,352
1053,5	26,067
1053,9	24,781
1054,3	23,238
1054,8	28,438
1055,2	21,867
1055,6	22,981
1056	21,867
1056,4	15,152
1056,8	19,352
1057,2	17,295
1057,6	10,038
1058,1	9,21
1058,5	6,067
1058,9	8,381
1059,3	11,867
1059,7	6,381
1060,1	6,924
1060,5	10,752
1061	15,01
1061,4	15,181
1061,8	18,067
1062,2	17,038
1062,6	18,895
1063	21,495
1063,4	20,695
1063,8	14,752
1064,3	13,124
1064,7	9,81
1065,1	11,838
1065,5	8,952
1065,9	6,752
1066,3	5,61
1066,7	7,295
1067,1	8,124
1067,6	12,01
1068	4,895
1068,4	7,838
1068,8	9,61
1069,2	7,552
1069,6	7,438
1070	12,724
1070,4	9,41
1070,9	9,781
1071,3	7,895
1071,7	5,01
1072,1	5,238
1072,5	3,61
1072,9	1,01
1073,3	-0,533
1073,7	3,695
1074,2	5,838
1074,6	6,295
1075	7,01
1075,4	9,695
1075,8	12,124
1076,2	12,01
1076,6	14,667
1077	15,867
1077,5	20,552
1077,9	19,61
1078,3	18,695
1078,7	18,981
1079,1	18,038
1079,5	16,352
1079,9	12,667
1080,3	11,61
1080,7	13,695
1081,2	16,81
1081,6	13,581
1082	13,238
1082,4	17,552
1082,8	20,895
1083,2	20,524
1083,6	22,238
1084	19,181
1084,5	24,724
1084,9	21,952
1085,3	14,038
1085,7	11,181
1086,1	14,181
1086,5	12,267
1086,9	17,152
1087,3	13,038
1087,7	16,295
1088,2	17,295
1088,6	18,067
1089	14,21
1089,4	13,667
1089,8	16,552
1090,2	13,724
1090,6	13,552
1091	15,867
1091,4	20,41
1091,9	24,152
1092,3	25,381
1092,7	18,01
1093,1	22,838
1093,5	25,067
1093,9	24,838
1094,3	24,495
1094,7	18,838
1095,1	21,952
1095,5	24,352
1096	17,238
1096,4	16,524
1096,8	15,838
1097,2	11,324
1097,6	17,552
1098	14,552
1098,4	15,01
1098,8	21,21
1099,2	23,438
1099,6	21,724
1100,1	20,61
1100,5	17,581
1100,9	16,438
1101,3	18,324
1101,7	16,352
1102,1	11,038
1102,5	14,752
1102,9	18,61
1103,3	19,381
1103,7	21,295
1104,2	15,667
1104,6	16,524
1105	15,41
1105,4	10,524
1105,8	6,438
1106,2	2,295
1106,6	-0,848
1107	-0,905
1107,4	-3,967
1107,8	-2,333
1108,3	-0,683
