Data from Subt2_046.txt Node
Date: Sat Aug 26 16:26:34 MSK 2023
User: vat
Spectrometer: MAYP114033
Trigger mode: 0
Integration Time (sec): 1,000000E0
Scans to average: 5
Electric dark correction enabled: true
Nonlinearity correction enabled: false
Boxcar width: 3
XAxis mode: Wavelengths
Number of Pixels in Spectrum: 2068
>>>>>Begin Spectral Data<<<<<
199,4	-1,617
199,9	-2,907
200,4	-1,633
200,8	-2,81
201,3	-1,067
201,8	1,219
202,2	4,276
202,7	6,59
203,2	7,419
203,6	7,619
204,1	6,848
204,6	9,733
205	6,648
205,5	2,019
206	0,076
206,4	-1,21
206,9	-5,01
207,4	-0,61
207,8	-6,41
208,3	-5,324
208,8	-3,324
209,2	-4,924
209,7	-1,724
210,2	4,676
210,6	3,676
211,1	3,105
211,5	4,048
212	0,448
212,5	-0,667
212,9	-3,981
213,4	-8,752
213,9	-8,095
214,3	-4,238
214,8	-5,552
215,3	-4,61
215,7	-5,038
216,2	-1,095
216,7	-1,067
217,1	-4,895
217,6	-4,381
218,1	-5,038
218,5	3,133
219	14,762
219,5	12,505
219,9	12,562
220,4	14,562
220,9	12,105
221,3	12,276
221,8	3,105
222,3	-8,81
222,7	-9,267
223,2	-7,067
223,6	-8,581
224,1	-6,867
224,6	-8,752
225	-6,01
225,5	2,133
226	-0,21
226,4	0,79
226,9	0,905
227,4	2,476
227,8	9,505
228,3	12,562
228,8	8,905
229,2	13,962
229,7	10,762
230,2	17,876
230,6	15,133
231,1	13,819
231,5	13,905
232	16,562
232,5	15,019
232,9	15,819
233,4	11,676
233,9	10,933
234,3	6,933
234,8	7,048
235,3	1,162
235,7	3,933
236,2	3,99
236,7	4,276
237,1	6,419
237,6	7,79
238,1	5,162
238,5	8,362
239	6,848
239,4	13,019
239,9	11,076
240,4	8,648
240,8	11,333
241,3	8,248
241,8	5,39
242,2	2,419
242,7	1,276
243,2	4,105
243,6	7,076
244,1	3,962
244,6	5,248
245	8,99
245,5	10,505
245,9	5,905
246,4	2,133
246,9	0,676
247,3	0,933
247,8	0,848
248,3	0,648
248,7	7,162
249,2	3,933
249,7	4,476
250,1	3,59
250,6	4,962
251	9,59
251,5	5,648
252	-0,01
252,4	4,876
252,9	5,848
253,4	8,133
253,8	6,505
254,3	3,648
254,8	5,248
255,2	7,305
255,7	11,505
256,1	8,79
256,6	7,39
257,1	8,819
257,5	9,905
258	11,19
258,5	10,362
258,9	4,905
259,4	9,705
259,9	9,733
260,3	5,305
260,8	9,676
261,2	10,219
261,7	11,248
262,2	11,99
262,6	12,59
263,1	9,676
263,6	16,619
264	10,419
264,5	11,276
264,9	5,962
265,4	4,505
265,9	3,733
266,3	9,676
266,8	3,79
267,3	3,848
267,7	4,362
268,2	5,733
268,7	1,59
269,1	-2,438
269,6	0,762
270	9,762
270,5	11,59
271	7,876
271,4	5,133
271,9	14,562
272,4	15,648
272,8	4,676
273,3	-2,295
273,7	-2,638
274,2	1,59
274,7	5,448
275,1	-4,61
275,6	-2,324
276,1	3,562
276,5	9,419
277	10,876
277,4	10,476
277,9	7,333
278,4	11,333
278,8	13,619
279,3	12,076
279,8	10,933
280,2	7,505
280,7	0,819
281,1	6,848
281,6	7,19
282,1	7,333
282,5	14,79
283	9,248
283,4	8,248
283,9	13,219
284,4	11,533
284,8	15,962
285,3	11,133
285,8	2,533
286,2	2,19
286,7	3,876
287,1	3,076
287,6	4,733
288,1	3,733
288,5	5,733
289	11,848
289,5	11,533
289,9	11,333
290,4	10,248
290,8	13,305
291,3	9,305
291,8	5,962
292,2	2,276
292,7	4,448
293,1	6,705
293,6	5,648
294,1	-0,838
294,5	0,505
295	1,248
295,5	3,562
295,9	6,648
296,4	6,848
296,8	7,648
297,3	10,59
297,8	11,933
298,2	12,048
298,7	5,59
299,1	3,705
299,6	2,819
300,1	2,79
300,5	3,59
301	4,705
301,5	7,562
301,9	10,99
302,4	9,705
302,8	10,305
303,3	12,505
303,8	10,276
304,2	6,762
304,7	4,99
305,1	5,99
305,6	3,762
306,1	3,276
306,5	1,79
307	-1,095
307,4	-3,181
307,9	-0,067
308,4	-0,495
308,8	6,019
309,3	3,733
309,8	9,533
310,2	8,933
310,7	17,505
311,1	11,733
311,6	7,762
312,1	8,39
312,5	9,276
313	6,19
313,4	8,019
313,9	10,733
314,4	14,39
314,8	20,762
315,3	16,705
315,7	19,819
316,2	17,105
316,7	20,305
317,1	15,819
317,6	15,905
318	15,419
318,5	17,676
319	16,419
319,4	15,419
319,9	11,419
320,3	10,019
320,8	7,762
321,3	0,505
321,7	-3,095
322,2	-3,552
322,6	-1,324
323,1	2,19
323,6	1,79
324	0,019
324,5	5,305
324,9	6,39
325,4	8,705
325,9	14,705
326,3	15,362
326,8	15,676
327,2	16,933
327,7	18,905
328,2	16,848
328,6	21,219
329,1	11,048
329,5	8,762
330	6,533
330,5	10,162
330,9	9,905
331,4	9,076
331,8	4,505
332,3	14,333
332,8	11,705
333,2	11,248
333,7	9,59
334,1	9,076
334,6	13,219
335,1	12,448
335,5	7,533
336	8,476
336,4	9,133
336,9	12,505
337,4	11,59
337,8	10,562
338,3	10,448
338,7	11,133
339,2	15,419
339,7	16,848
340,1	18,105
340,6	15,305
341	21,305
341,5	20,619
342	18,733
342,4	13,333
342,9	8,305
343,3	3,733
343,8	7,362
344,2	4,705
344,7	6,705
345,2	3,505
345,6	10,59
346,1	17,533
346,5	18,762
347	15,819
347,5	9,476
347,9	9,419
348,4	15,048
348,8	12,476
349,3	9,19
349,8	9,905
350,2	15,676
350,7	22,762
351,1	20,648
351,6	23,676
352	33,962
352,5	39,048
353	48,333
353,4	55,105
353,9	64,333
354,3	83,733
354,8	98,705
355,3	109,505
355,7	129,762
356,2	150,648
356,6	179,048
357,1	210,876
357,5	243,39
358	289,476
358,5	342,762
358,9	408,505
359,4	476,505
359,8	548,305
360,3	637,59
360,8	735,648
361,2	834,848
361,7	948,648
362,1	1072,99
362,6	1213,848
363	1367,248
363,5	1527,762
364	1691,533
364,4	1866,448
364,9	2037,333
365,3	2208,59
365,8	2372,448
366,3	2530,705
366,7	2669,162
367,2	2803,362
367,6	2913,19
368,1	2994,819
368,5	3049,219
369	3076,219
369,5	3085,219
369,9	3060,533
370,4	3007,362
370,8	2939,962
371,3	2861,619
371,7	2761,59
372,2	2653,562
372,7	2519,019
373,1	2389,505
373,6	2250,448
374	2102,59
374,5	1960,905
374,9	1822,419
375,4	1684,505
375,9	1560,019
376,3	1439,048
376,8	1328,505
377,2	1232,333
377,7	1131,848
378,2	1035,648
378,6	950,448
379,1	871,333
379,5	801,219
380	737,333
380,4	668,562
380,9	612,476
381,4	568,133
381,8	526,362
382,3	480,276
382,7	438,019
383,2	400,19
383,6	374,733
384,1	348,705
384,6	320,133
385	296,733
385,5	279,59
385,9	262,362
386,4	244,019
386,8	228,19
387,3	207,876
387,7	194,876
388,2	181,048
388,7	169,505
389,1	156,876
389,6	148,219
390	134,533
390,5	126,133
390,9	122,762
391,4	120,876
391,9	109,276
392,3	102,876
392,8	93,876
393,2	83,19
393,7	87,648
394,1	82,448
394,6	69,448
395,1	70,562
395,5	70,133
396	70,476
396,4	70,333
396,9	64,59
397,3	57,876
397,8	58,905
398,2	55,133
398,7	48,133
399,2	43,362
399,6	47,476
400,1	40,019
400,5	44,99
401	47,305
401,4	49,533
401,9	49,762
402,4	57,333
402,8	55,133
403,3	60,99
403,7	56,733
404,2	49,505
404,6	47,419
405,1	48,762
405,5	41,419
406	41,705
406,5	39,248
406,9	38,219
407,4	44,133
407,8	42,933
408,3	45,362
408,7	50,19
409,2	50,848
409,6	52,305
410,1	60,162
410,6	62,505
411	67,848
411,5	67,419
411,9	68,162
412,4	71,819
412,8	72,533
413,3	71,048
413,7	69,019
414,2	72,79
414,7	79,705
415,1	81,019
415,6	85,276
416	88,933
416,5	89,79
416,9	93,962
417,4	94,648
417,8	98,162
418,3	105,876
418,8	107,733
419,2	111,819
419,7	114,762
420,1	114,133
420,6	115,99
421	113,99
421,5	111,733
421,9	112,162
422,4	112,819
422,8	116,762
423,3	122,933
423,8	126,448
424,2	131,105
424,7	130,733
425,1	130,19
425,6	135,019
426	134,905
426,5	131,333
426,9	130,133
427,4	130,705
427,9	130,305
428,3	132,705
428,8	132,562
429,2	131,076
429,7	134,133
430,1	135,419
430,6	134,105
431	136,362
431,5	139,705
431,9	141,333
432,4	146,733
432,8	147,99
433,3	150,276
433,8	160,99
434,2	164,505
434,7	166,448
435,1	171,448
435,6	181,219
436	192,619
436,5	204,99
436,9	206,876
437,4	217,59
437,8	223,219
438,3	230,79
438,8	231,705
439,2	236,419
439,7	236,962
440,1	244,619
440,6	254,876
441	266,448
441,5	274,133
441,9	285,133
442,4	303,848
442,8	317,162
443,3	326,076
443,7	332,476
444,2	344,448
444,7	357,419
445,1	371,59
445,6	374,648
446	388,505
446,5	405,648
446,9	423,362
447,4	436,39
447,8	451,533
448,3	467,562
448,7	487,219
449,2	505,533
449,6	522,048
450,1	541,333
450,6	563,076
451	577,762
451,5	591,59
451,9	610,105
452,4	629,819
452,8	650,133
453,3	665,99
453,7	682,99
454,2	703,162
454,6	730,419
455,1	750,305
455,5	775,848
456	800,876
456,4	828,905
456,9	849,79
457,3	879,362
457,8	903,419
458,3	932,848
458,7	957,59
459,2	981,048
459,6	1005,019
460,1	1038,819
460,5	1069,676
461	1095,076
461,4	1121,048
461,9	1143,305
462,3	1171,648
462,8	1199,933
463,2	1226,562
463,7	1247,619
464,1	1276,99
464,6	1301,733
465	1330,276
465,5	1365,419
466	1393,819
466,4	1420,79
466,9	1452,648
467,3	1477,59
467,8	1515,019
468,2	1543,705
468,7	1567,762
469,1	1594,248
469,6	1625,848
470	1654,562
470,5	1686,333
470,9	1710,59
471,4	1739,819
471,8	1764,619
472,3	1794,505
472,7	1820,19
473,2	1838,962
473,6	1857,505
474,1	1874,533
474,5	1897,19
475	1919,476
475,4	1939,162
475,9	1966,562
476,4	1999,162
476,8	2028,648
477,3	2055,59
477,7	2083,79
478,2	2106,762
478,6	2131,905
479,1	2151,019
479,5	2173,648
480	2190,79
480,4	2208,676
480,9	2227,619
481,3	2244,648
481,8	2262,476
482,2	2274,79
482,7	2283,762
483,1	2302,99
483,6	2312,705
484	2321,105
484,5	2334,79
484,9	2342,419
485,4	2352,676
485,8	2357,333
486,3	2364,076
486,7	2376,276
487,2	2383,333
487,6	2386,848
488,1	2395,133
488,5	2397,362
489	2399,276
489,4	2395,076
489,9	2402,619
490,4	2401,59
490,8	2400,39
491,3	2396,99
491,7	2390,819
492,2	2396,762
492,6	2399,105
493,1	2387,419
493,5	2380,99
494	2377,933
494,4	2369,962
494,9	2365,962
495,3	2359,79
495,8	2355,048
496,2	2350,848
496,7	2342,419
497,1	2333,048
497,6	2326,562
498	2318,333
498,5	2304,219
498,9	2292,705
499,4	2286,848
499,8	2271,305
500,3	2260,419
500,7	2246,59
501,2	2235,076
501,6	2221,476
502,1	2207,448
502,5	2187,848
503	2186,219
503,4	2169,79
503,9	2156,59
504,3	2145,248
504,8	2134,419
505,2	2112,733
505,7	2096,962
506,1	2079,876
506,6	2066,619
507	2049,533
507,5	2032,019
507,9	2017,619
508,4	2013,476
508,8	1996,99
509,3	1979,533
509,7	1964,819
510,2	1944,848
510,6	1926,305
511,1	1899,505
511,5	1877,99
512	1865,99
512,4	1848,962
512,9	1823,419
513,3	1813,248
513,8	1794,59
514,2	1786,619
514,7	1767,819
515,1	1750,648
515,6	1723,819
516	1711,219
516,5	1694,305
516,9	1670,39
517,4	1650,133
517,8	1628,419
518,3	1600,048
518,7	1582,819
519,2	1561,362
519,6	1539,39
520,1	1529,619
520,5	1509,562
521	1495,562
521,4	1483,733
521,9	1470,705
522,3	1458,048
522,8	1440,619
523,2	1421,59
523,7	1407,933
524,1	1393,162
524,6	1375,076
525	1362,362
525,5	1343,619
525,9	1326,476
526,4	1307,59
526,8	1288,048
527,3	1271,676
527,7	1258,333
528,2	1237,133
528,6	1223,562
529,1	1208,39
529,5	1198,933
530	1182,962
530,4	1165,276
530,9	1150,219
531,3	1139,59
531,8	1127,619
532,2	1113,648
532,6	1100,276
533,1	1088,105
533,5	1077,905
534	1061,419
534,4	1051,248
534,9	1038,505
535,3	1032,305
535,8	1013,79
536,2	998,99
536,7	982,305
537,1	970,562
537,6	958,962
538	947,505
538,5	930,819
538,9	926,619
539,4	920,848
539,8	912,305
540,3	903,676
540,7	888,048
541,2	872,133
541,6	863,533
542,1	851,99
542,5	834,305
543	824,448
543,4	820,876
543,9	809,048
544,3	799,448
544,8	786,648
545,2	778,162
545,7	777,876
546,1	774,476
546,5	760,133
547	753,648
547,4	745,933
547,9	741,476
548,3	736,019
548,8	725,962
549,2	713,39
549,7	710,762
550,1	709,048
550,6	706,476
551	702,99
551,5	691,819
551,9	684,362
552,4	678,305
552,8	665,848
553,3	659,276
553,7	649,133
554,2	636,876
554,6	627,79
555,1	623,248
555,5	617,848
555,9	613,819
556,4	605,905
556,8	601,962
557,3	599,019
557,7	595,305
558,2	586,448
558,6	581,648
559,1	573,048
559,5	567,733
560	563,705
560,4	560,676
560,9	558,19
561,3	558,962
561,8	557,476
562,2	551,476
562,7	549,79
563,1	543,733
563,6	536,905
564	537,39
564,4	531,905
564,9	520,676
565,3	522,79
565,8	515,476
566,2	511,99
566,7	503,619
567,1	497,762
567,6	494,048
568	497,648
568,5	490,305
568,9	482,99
569,4	482,305
569,8	482,905
570,3	478,219
570,7	467,819
571,1	458,048
571,6	460,048
572	461,733
572,5	454,362
572,9	456,762
573,4	455,305
573,8	456,162
574,3	454,476
574,7	449,248
575,2	441,933
575,6	440,362
576,1	430,648
576,5	421,533
576,9	423,733
577,4	421,305
577,8	415,448
578,3	412,962
578,7	411,762
579,2	413,048
579,6	413,962
580,1	408,048
580,5	403,305
581	402,59
581,4	405,79
581,9	403,019
582,3	392,419
582,7	388,59
583,2	383,905
583,6	382,105
584,1	377,762
584,5	371,59
585	368,962
585,4	370,048
585,9	371,39
586,3	370,419
586,8	366,476
587,2	361,905
587,6	355,362
588,1	353,562
588,5	351,848
589	345,876
589,4	342,419
589,9	345,419
590,3	347,39
590,8	348,019
591,2	347,99
591,7	346,59
592,1	342,276
592,5	346,19
593	338,733
593,4	336,019
593,9	328,076
594,3	318,933
594,8	315,19
595,2	317,362
595,7	312,619
596,1	312,648
596,6	314,676
597	318,562
597,4	318,419
597,9	317,905
598,3	314,305
598,8	309,848
599,2	305,619
599,7	298,962
600,1	295,79
600,6	296,248
601	293,448
601,4	292,162
601,9	287,79
602,3	291,848
602,8	291,048
603,2	293,733
603,7	291,419
604,1	295,505
604,6	287,733
605	287,448
605,4	284,248
605,9	280,733
606,3	277,99
606,8	272,248
607,2	268,105
607,7	268,333
608,1	269,39
608,6	272,562
609	274,562
609,4	274,333
609,9	275,362
610,3	272,533
610,8	275,048
611,2	275,276
611,7	265,162
612,1	257,962
612,6	254,333
613	257,648
613,4	256,962
613,9	253,648
614,3	251,048
614,8	248,905
615,2	251,19
615,7	250,533
616,1	246,648
616,6	247,419
617	246,162
617,4	245,162
617,9	246,048
618,3	247,505
618,8	241,59
619,2	239,905
619,7	237,305
620,1	236,276
620,5	235,619
621	235,162
621,4	233,162
621,9	234,619
622,3	235,848
622,8	228,505
623,2	226,305
623,6	220,19
624,1	220,848
624,5	220,648
625	215,048
625,4	211,076
625,9	213,048
626,3	213,048
626,8	212,905
627,2	214,362
627,6	207,99
628,1	213,99
628,5	213,19
629	214,619
629,4	209,248
629,9	207,619
630,3	205,019
630,7	211,19
631,2	206,619
631,6	208,705
632,1	208,362
632,5	212,162
633	206,276
633,4	200,79
633,8	193,39
634,3	189,762
634,7	188,162
635,2	184,448
635,6	183,162
636,1	190,905
636,5	191,962
636,9	193,219
637,4	193,705
637,8	187,133
638,3	186,105
638,7	186,648
639,2	184,476
639,6	181,105
640	177,676
640,5	180,933
640,9	185,276
641,4	185,048
641,8	181,248
642,2	182,59
642,7	181,39
643,1	187,076
643,6	182,362
644	183,676
644,5	176,733
644,9	179,476
645,3	176,105
645,8	184,905
646,2	183,962
646,7	185,848
647,1	183,19
647,6	187,333
648	181,848
648,4	183,162
648,9	174,819
649,3	169,876
649,8	169,905
650,2	164,162
650,6	163,848
651,1	168,076
651,5	163,848
652	159,933
652,4	158,419
652,9	159,848
653,3	157,219
653,7	156,276
654,2	153,619
654,6	154,876
655,1	153,162
655,5	152,648
655,9	145,476
656,4	151,048
656,8	148,619
657,3	144,505
657,7	138,562
658,2	144,99
658,6	140,819
659	141,933
659,5	139,333
659,9	140,99
660,4	141,19
660,8	145,59
661,2	140,705
661,7	143,19
662,1	142,219
662,6	137,448
663	138,876
663,4	139,733
663,9	134,362
664,3	134,476
664,8	134,962
665,2	134,762
665,6	135,562
666,1	131,219
666,5	128,533
667	123,733
667,4	122,048
667,9	120,648
668,3	117,476
668,7	120,648
669,2	121,676
669,6	122,562
670,1	130,333
670,5	127,333
670,9	131,562
671,4	135,219
671,8	132,476
672,3	132,305
672,7	132,819
673,1	129,505
673,6	129,648
674	122,133
674,5	124,362
674,9	120,819
675,3	114,705
675,8	113,705
676,2	117,876
676,7	120,305
677,1	119,505
677,5	116,562
678	120,448
678,4	123,362
678,9	121,59
679,3	115,019
679,7	112,39
680,2	112,419
680,6	107,076
681,1	104,39
681,5	104,876
681,9	105,876
682,4	109,39
682,8	108,276
683,3	107,162
683,7	107,648
684,1	105,105
684,6	103,648
685	99,733
685,5	92,99
685,9	93,705
686,3	96,99
686,8	97,048
687,2	101,733
687,7	101,676
688,1	104,705
688,5	105,962
689	105,448
689,4	106,19
689,9	107,448
690,3	106,933
690,7	103,933
691,2	103,219
691,6	103,705
692	102,79
692,5	96,705
692,9	94,362
693,4	91,819
693,8	94,505
694,2	86,733
694,7	88,99
695,1	86,105
695,6	84,133
696	83,105
696,4	78,733
696,9	77,476
697,3	75,762
697,8	71,362
698,2	71,505
698,6	73,162
699,1	69,162
699,5	68,333
699,9	64,762
700,4	67,676
700,8	69,59
701,3	71,419
701,7	68,59
702,1	73,448
702,6	69,733
703	68,505
703,5	71,048
703,9	72,133
704,3	69,19
704,8	72,733
705,2	67,533
705,6	67,533
706,1	76,219
706,5	77,876
707	72,876
707,4	77,19
707,8	78,248
708,3	78,705
708,7	86,162
709,2	78,762
709,6	77,39
710	77,59
710,5	77,79
710,9	76,162
711,3	75,905
711,8	72,048
712,2	72,59
712,7	73,648
713,1	72,019
713,5	66,876
714	65,248
714,4	67,305
714,8	71,762
715,3	72,048
715,7	65,533
716,2	66,476
716,6	69,762
717	67,676
717,5	67,819
717,9	61,448
718,3	57,39
718,8	58,79
719,2	60,619
719,7	59,619
720,1	60,819
720,5	58,448
721	60,219
721,4	63,619
721,8	67,048
722,3	61,819
722,7	60,762
723,2	61,505
723,6	60,19
724	58,505
724,5	56,476
724,9	50,933
725,3	52,333
725,8	49,419
726,2	46,305
726,7	48,39
727,1	47,276
727,5	45,848
728	47,905
728,4	48,59
728,8	50,362
729,3	50,162
729,7	53,562
730,1	51,362
730,6	50,276
731	51,248
731,5	50,362
731,9	52,333
732,3	53,333
732,8	50,248
733,2	52,305
733,6	54,962
734,1	53,19
734,5	52,019
734,9	48,248
735,4	50,905
735,8	51,619
736,3	51,276
736,7	50,876
737,1	53,476
737,6	53,248
738	52,333
738,4	50,533
738,9	49,533
739,3	49,619
739,7	47,876
740,2	46,848
740,6	49,048
741,1	50,076
741,5	47,905
741,9	43,705
742,4	43,019
742,8	49,105
743,2	46,333
743,7	45,99
744,1	44,905
744,5	44,733
745	45,048
745,4	46,219
745,8	38,305
746,3	42,79
746,7	42,905
747,2	46,562
747,6	46,505
748	48,39
748,5	46,219
748,9	45,905
749,3	44,019
749,8	39,419
750,2	32,305
750,6	33,933
751,1	35,419
751,5	33,19
751,9	37,162
752,4	35,39
752,8	36,305
753,3	36,248
753,7	36,39
754,1	32,676
754,6	36,219
755	34,619
755,4	35,448
755,9	37,105
756,3	36,505
756,7	31,362
757,2	33,476
757,6	33,076
758	32,419
758,5	31,362
758,9	28,533
759,3	31,476
759,8	38,733
760,2	39,276
760,6	35,79
761,1	33,648
761,5	35,933
761,9	39,962
762,4	41,048
762,8	38,933
763,3	34,019
763,7	34,562
764,1	36,39
764,6	33,619
765	32,619
765,4	31,762
765,9	25,905
766,3	22,962
766,7	23,648
767,2	28,876
767,6	28,019
768	30,048
768,5	29,105
768,9	29,333
769,3	35,048
769,8	38,048
770,2	32,505
770,6	31,248
771,1	30,076
771,5	30,962
771,9	30,362
772,4	36,79
772,8	35,505
773,2	34,448
773,7	37,905
774,1	38,276
774,5	40,79
775	42,419
775,4	35,419
775,8	34,905
776,3	32,105
776,7	33,762
777,1	33,705
777,6	28,79
778	30,648
778,4	32,219
778,9	29,476
779,3	31,248
779,7	26,59
780,2	22,933
780,6	26,219
781	27,648
781,5	27,905
781,9	32,219
782,3	32,676
782,8	32,248
783,2	31,933
783,6	28,533
784,1	27,076
784,5	23,848
784,9	22,248
785,4	24,105
785,8	23,819
786,2	25,333
786,7	25,533
787,1	29,648
787,5	29,419
788	27,333
788,4	27,048
788,8	25,276
789,3	26,133
789,7	28,876
790,1	22,076
790,6	24,79
791	31,448
791,4	26,733
791,9	27,99
792,3	24,962
792,7	26,99
793,2	25,562
793,6	23,819
794	19,048
794,5	21,762
794,9	24,076
795,3	24,019
795,8	15,505
796,2	21,219
796,6	17,019
797,1	15,419
797,5	15,219
797,9	14,505
798,4	14,848
798,8	16,162
799,2	14,676
799,7	21,79
800,1	21,505
800,5	24,19
801	22,648
801,4	24,019
801,8	26,79
802,2	21,362
802,7	19,762
803,1	18,162
803,5	17,79
804	16,362
804,4	15,39
804,8	17,619
805,3	17,362
805,7	14,59
806,1	20,105
806,6	19,533
807	21,933
807,4	20,733
807,9	18,476
808,3	20,419
808,7	19,79
809,2	15,105
809,6	15,876
810	14,219
810,4	19,648
810,9	22,39
811,3	21,819
811,7	21,162
812,2	26,648
812,6	25,362
813	26,39
813,5	23,476
813,9	20,333
814,3	20,676
814,8	26,362
815,2	22,448
815,6	19,79
816,1	19,19
816,5	15,105
816,9	14,733
817,3	13,59
817,8	12,733
818,2	9,733
818,6	14,562
819,1	13,333
819,5	18,676
819,9	18,019
820,4	20,905
820,8	14,676
821,2	18,162
821,7	17,019
822,1	18,676
822,5	16,79
822,9	21,733
823,4	21,848
823,8	26,019
824,2	24,076
824,7	22,79
825,1	22,762
825,5	27,276
826	23,505
826,4	26,019
826,8	27,39
827,3	30,448
827,7	30,99
828,1	31,505
828,5	27,962
829	23,562
829,4	21,619
829,8	15,505
830,3	11,762
830,7	7,533
831,1	2,448
831,6	-2,038
832	-0,267
832,4	0,219
832,8	3,105
833,3	2,648
833,7	8,019
834,1	13,248
834,6	12,133
835	17,848
835,4	17,676
835,8	19,848
836,3	22,99
836,7	17,733
837,1	18,305
837,6	20,533
838	15,019
838,4	11,905
838,9	12,876
839,3	12,276
839,7	13,819
840,1	9,819
840,6	12,705
841	12,19
841,4	11,676
841,9	7,905
842,3	9,505
842,7	6,648
843,1	12,019
843,6	10,19
844	11,905
844,4	14,133
844,9	16,448
845,3	13,162
845,7	17,162
846,2	15,133
846,6	14,162
847	14,448
847,4	12,105
847,9	10,933
848,3	13,762
848,7	16,933
849,2	13,276
849,6	12,448
850	12,562
850,4	16,305
850,9	15,19
851,3	7,79
851,7	6,648
852,2	10,562
852,6	12,19
853	10,248
853,4	6,562
853,9	5,448
854,3	11,933
854,7	5,676
855,2	2,019
855,6	-2,381
856	-3,095
856,4	-3,867
856,9	-1,781
857,3	-4,038
857,7	4,19
858,2	2,676
858,6	5,19
859	2,19
859,4	4,219
859,9	3,676
860,3	0,99
860,7	-2,381
861,1	0,933
861,6	2,419
862	6,533
862,4	5,79
862,9	6,705
863,3	9,419
863,7	3,076
864,1	1,762
864,6	-0,41
865	-0,952
865,4	-2,61
865,9	-8,781
866,3	-7,867
866,7	-0,724
867,1	4,705
867,6	8,419
868	12,648
868,4	16,733
868,8	25,476
869,3	24,305
869,7	20,705
870,1	19,019
870,6	16,905
871	62,505
871,4	59,962
871,8	57,448
872,3	57,19
872,7	57,105
873,1	54,562
873,5	56,619
874	11,933
874,4	13,19
874,8	12,905
875,3	15,533
875,7	17,048
876,1	17,59
876,5	18,619
877	16,448
877,4	16,076
877,8	15,19
878,2	11,59
878,7	14,705
879,1	14,99
879,5	15,762
879,9	16,39
880,4	15,762
880,8	17,362
881,2	19,933
881,7	17,762
882,1	19,933
882,5	18,162
882,9	14,819
883,4	14,962
883,8	14,133
884,2	14,248
884,6	14,276
885,1	15,933
885,5	19,162
885,9	20,162
886,3	18,562
886,8	14,533
887,2	13,048
887,6	6,99
888	4,619
888,5	1,476
888,9	5,648
889,3	4,19
889,8	7,162
890,2	7,619
890,6	10,962
891	9,648
891,5	11,362
891,9	9,419
892,3	12,133
892,7	14,762
893,2	13,848
893,6	11,562
894	12,19
894,4	12,133
894,9	8,79
895,3	9,59
895,7	7,562
896,1	8,076
896,6	9,619
897	8,59
897,4	-0,352
897,8	1,99
898,3	6,933
898,7	5,419
899,1	4,619
899,5	2,848
900	-0,695
900,4	2,905
900,8	2,505
901,2	-1,124
901,7	-2,095
902,1	2,562
902,5	2,762
902,9	7,676
903,4	12,733
903,8	9,048
904,2	13,219
904,6	13,333
905,1	10,905
905,5	12,419
905,9	11,676
906,3	8,762
906,8	12,505
907,2	6,333
907,6	11,59
908	7,133
908,5	5,79
908,9	3,105
909,3	-3,181
909,7	-6,124
910,2	-4,838
910,6	-5,381
911	-1,095
911,4	-0,724
911,9	2,419
912,3	9,048
912,7	13,333
913,1	6,762
913,6	6,448
914	5,762
914,4	7,59
914,8	5,248
915,3	6,019
915,7	1,733
916,1	5,619
916,5	4,876
916,9	4,19
917,4	4,819
917,8	3,905
918,2	0,419
918,6	3,333
919,1	5,876
919,5	7,076
919,9	6,876
920,3	8,362
920,8	11,905
921,2	15,362
921,6	12,419
922	10,59
922,5	10,648
922,9	9,876
923,3	11,562
923,7	8,476
924,2	5,448
924,6	5,79
925	4,19
925,4	0,876
925,8	3,39
926,3	5,79
926,7	4,99
927,1	7,933
927,5	9,562
928	11,933
928,4	8,648
928,8	14,105
929,2	11,305
929,7	7,819
930,1	5,133
930,5	1,333
930,9	3,105
931,3	12,019
931,8	1,79
932,2	-2,752
932,6	3,819
933	0,105
933,5	1,562
933,9	-0,838
934,3	-5,467
934,7	0,019
935,2	3,619
935,6	1,648
936	5,619
936,4	12,505
936,8	9,705
937,3	10,59
937,7	8,79
938,1	6,505
938,5	5,676
939	7,305
939,4	0,676
939,8	2,819
940,2	-0,695
940,6	-1,095
941,1	2,019
941,5	5,476
941,9	3,648
942,3	4,533
942,8	9,648
943,2	8,105
943,6	8,219
944	7,333
944,4	3,076
944,9	2,676
945,3	6,59
945,7	5,019
946,1	8,076
946,6	7,076
947	6,019
947,4	3,219
947,8	4,705
948,2	1,505
948,7	2,99
949,1	-0,781
949,5	2,39
949,9	4,162
950,3	10,333
950,8	6,962
951,2	9,562
951,6	9,419
952	12,648
952,5	9,876
952,9	6,39
953,3	3,876
953,7	12,19
954,1	8,848
954,6	4,019
955	5,019
955,4	3,819
955,8	12,133
956,2	9,59
956,7	3,162
957,1	5,733
957,5	5,419
957,9	2,362
958,3	3,99
958,8	-3,01
959,2	-2,067
959,6	1,79
960	1,219
960,5	0,019
960,9	1,105
961,3	1,305
961,7	-0,152
962,1	4,962
962,6	2,676
963	0,819
963,4	4,305
963,8	7,448
964,2	6,59
964,7	6,848
965,1	6,362
965,5	7,562
965,9	7,59
966,3	2,962
966,8	2,105
967,2	2,162
967,6	3,105
968	2,019
968,4	2,819
968,9	7,99
969,3	9,333
969,7	4,276
970,1	6,39
970,5	10,562
971	8,962
971,4	12,933
971,8	13,39
972,2	16,076
972,6	21,19
973,1	22,476
973,5	18,762
973,9	17,819
974,3	7,876
974,7	3,19
975,2	-1,495
975,6	-3,838
976	-4,238
976,4	-5,495
976,8	-0,781
977,3	5,619
977,7	3,648
978,1	5,162
978,5	8,333
978,9	5,048
979,4	5,476
979,8	2,619
980,2	-3,724
980,6	-3,781
981	2,19
981,5	-0,352
981,9	-0,524
982,3	-0,181
982,7	-0,895
983,1	2,876
983,6	4,448
984	4,019
984,4	8,076
984,8	9,276
985,2	9,962
985,6	6,876
986,1	7,248
986,5	3,733
986,9	-0,01
987,3	-4,067
987,7	-2,21
988,2	0,962
988,6	3,648
989	2,019
989,4	5,276
989,8	4,533
990,3	5,733
990,7	5,505
991,1	-3,467
991,5	-5,381
991,9	-1,552
992,3	-3,124
992,8	2,248
993,2	1,076
993,6	-0,152
994	2,048
994,4	3,648
994,9	2,762
995,3	3,076
995,7	-0,838
996,1	-4,81
996,5	-6,295
996,9	-6,467
997,4	-7,552
997,8	-9,752
998,2	-5,581
998,6	-2,867
999	0,276
999,5	2,705
999,9	8,79
1000,3	13,448
1000,7	11,219
1001,1	9,048
1001,5	1,762
1002	3,962
1002,4	4,762
1002,8	4,305
1003,2	1,876
1003,6	9,619
1004	8,362
1004,5	8,448
1004,9	7,048
1005,3	-0,638
1005,7	-3,981
1006,1	-7,667
1006,6	-11,81
1007	-11,295
1007,4	-8,61
1007,8	-11,438
1008,2	-9,724
1008,6	-9,524
1009,1	-7,695
1009,5	-2,752
1009,9	3,305
1010,3	6,962
1010,7	14,248
1011,1	19,733
1011,6	18,076
1012	21,79
1012,4	18,933
1012,8	10,248
1013,2	6,276
1013,6	2,533
1014,1	1,162
1014,5	1,962
1014,9	2,048
1015,3	-3,238
1015,7	-1,952
1016,1	-1,61
1016,6	3,448
1017	1,819
1017,4	3,305
1017,8	-3,01
1018,2	-2,867
1018,6	1,076
1019,1	0,362
1019,5	0,419
1019,9	5,248
1020,3	3,962
1020,7	5,905
1021,1	11,048
1021,6	5,248
1022	5,562
1022,4	5,448
1022,8	1,562
1023,2	4,39
1023,6	4,19
1024,1	3,048
1024,5	6,962
1024,9	11,676
1025,3	6,619
1025,7	7,219
1026,1	6,619
1026,6	10,219
1027	2,819
1027,4	0,562
1027,8	0,162
1028,2	-3,324
1028,6	-2,581
1029	-7,752
1029,5	-7,21
1029,9	-2,61
1030,3	4,333
1030,7	-1,295
1031,1	1,762
1031,5	-0,581
1032	4,962
1032,4	2,076
1032,8	2,133
1033,2	-3,01
1033,6	3,419
1034	2,533
1034,4	7,933
1034,9	3,133
1035,3	10,019
1035,7	9,705
1036,1	10,705
1036,5	4,533
1036,9	4,79
1037,4	2,876
1037,8	7,705
1038,2	-1,867
1038,6	-1,067
1039	0,59
1039,4	2,305
1039,8	-0,838
1040,3	-4,381
1040,7	-12,181
1041,1	-9,495
1041,5	-8,495
1041,9	-12,552
1042,3	-11,41
1042,7	-4,895
1043,2	-3,267
1043,6	3,733
1044	3,562
1044,4	2,162
1044,8	2,162
1045,2	3,619
1045,6	6,933
1046,1	10,019
1046,5	8,19
1046,9	10,448
1047,3	14,905
1047,7	12,476
1048,1	6,876
1048,5	2,619
1049	4,219
1049,4	5,305
1049,8	2,762
1050,2	0,219
1050,6	6,19
1051	12,933
1051,4	11,562
1051,9	12,619
1052,3	13,476
1052,7	12,39
1053,1	11,048
1053,5	11,79
1053,9	9,248
1054,3	9,305
1054,8	9,562
1055,2	9,59
1055,6	13,476
1056	12,733
1056,4	10,99
1056,8	14,533
1057,2	17,048
1057,6	7,762
1058,1	8,305
1058,5	4,162
1058,9	10,848
1059,3	12,962
1059,7	4,533
1060,1	0,105
1060,5	2,819
1061	-0,667
1061,4	6,162
1061,8	-4,524
1062,2	-6,952
1062,6	-1,61
1063	1,676
1063,4	4,505
1063,8	7,19
1064,3	3,619
1064,7	8,19
1065,1	9,676
1065,5	10,476
1065,9	7,248
1066,3	3,448
1066,7	1,819
1067,1	-2,495
1067,6	2,733
1068	-1,838
1068,4	-3,41
1068,8	-4,895
1069,2	-4,295
1069,6	-1,41
1070	3,448
1070,4	3,362
1070,9	2,733
1071,3	5,848
1071,7	9,848
1072,1	12,505
1072,5	12,105
1072,9	14,276
1073,3	9,219
1073,7	9,362
1074,2	6,848
1074,6	4,419
1075	-0,41
1075,4	0,648
1075,8	2,076
1076,2	2,476
1076,6	6,876
1077	5,419
1077,5	5,848
1077,9	10,733
1078,3	5,533
1078,7	1,905
1079,1	3,648
1079,5	-1,61
1079,9	3,448
1080,3	5,105
1080,7	3,762
1081,2	4,39
1081,6	5,962
1082	7,19
1082,4	11,533
1082,8	7,819
1083,2	5,705
1083,6	7,676
1084	8,533
1084,5	5,905
1084,9	1,133
1085,3	-1,067
1085,7	-1,352
1086,1	-2,867
1086,5	-1,438
1086,9	1,848
1087,3	2,476
1087,7	6,876
1088,2	3,562
1088,6	3,705
1089	3,819
1089,4	-2,467
1089,8	-3,867
1090,2	-1,524
1090,6	-2,095
1091	5,676
1091,4	9,19
1091,9	15,276
1092,3	17,19
1092,7	14,019
1093,1	9,676
1093,5	5,533
1093,9	4,333
1094,3	3,676
1094,7	-2,41
1095,1	-4,181
1095,5	-1,124
1096	-4,524
1096,4	-2,352
1096,8	-6,124
1097,2	-5,695
1097,6	-6,267
1098	-2,752
1098,4	-2,724
1098,8	2,276
1099,2	1,59
1099,6	2,533
1100,1	0,876
1100,5	6,648
1100,9	4,305
1101,3	3,048
1101,7	4,819
1102,1	5,676
1102,5	6,448
1102,9	4,333
1103,3	0,419
1103,7	1,448
1104,2	4,448
1104,6	2,79
1105	2,848
1105,4	2,419
1105,8	3,333
1106,2	4,562
1106,6	3,648
1107	0,476
1107,4	-0,2
1107,8	-0,867
1108,3	-0,067
