Data from Subt2_133.txt Node
Date: Sat Aug 26 18:26:48 MSK 2023
User: vat
Spectrometer: MAYP114033
Trigger mode: 0
Integration Time (sec): 1,000000E0
Scans to average: 5
Electric dark correction enabled: true
Nonlinearity correction enabled: false
Boxcar width: 3
XAxis mode: Wavelengths
Number of Pixels in Spectrum: 2068
>>>>>Begin Spectral Data<<<<<
199,4	-0,533
199,9	-3,153
200,4	-3,4
200,8	-2,833
201,3	-4,49
201,8	-2,348
202,2	-8,033
202,7	-3,919
203,2	-1,89
203,6	-1,862
204,1	-6,205
204,6	-1,833
205	-3,833
205,5	3,195
206	-1,748
206,4	0,081
206,9	-1,833
207,4	6,538
207,8	2,081
208,3	0,338
208,8	-1,919
209,2	1,967
209,7	-2,548
210,2	2,367
210,6	-0,49
211,1	1,024
211,5	-2,176
212	-1,776
212,5	-5,462
212,9	-5,319
213,4	-4,919
213,9	-5,605
214,3	-4,919
214,8	2,338
215,3	0,481
215,7	4,481
216,2	11,024
216,7	6,967
217,1	8,881
217,6	10,51
218,1	7,538
218,5	9,024
219	0,424
219,5	-3,805
219,9	-5,833
220,4	-4,519
220,9	-3,548
221,3	-4,205
221,8	-3,748
222,3	1,738
222,7	2,424
223,2	3,167
223,6	1,481
224,1	-2,119
224,6	-2,033
225	-4,262
225,5	-4,605
226	-5,205
226,4	-2,976
226,9	-4,433
227,4	-5,49
227,8	-10,005
228,3	-10,948
228,8	-11,69
229,2	-8,462
229,7	-6,976
230,2	-7,69
230,6	-3,405
231,1	3,881
231,5	9,31
232	11,395
232,5	7,767
232,9	9,538
233,4	9,452
233,9	5,538
234,3	3,881
234,8	2,252
235,3	-1,633
235,7	1,024
236,2	-2,09
236,7	1,624
237,1	6,995
237,6	4,795
238,1	4,481
238,5	6,138
239	7,967
239,4	13,081
239,9	6,424
240,4	4,224
240,8	6,767
241,3	5,652
241,8	8,024
242,2	5,795
242,7	0,624
243,2	-0,433
243,6	-6,605
244,1	-3,833
244,6	-4,376
245	-6,033
245,5	-4,233
245,9	-8,976
246,4	-4,405
246,9	-0,29
247,3	-3,033
247,8	-0,262
248,3	2,195
248,7	-3,262
249,2	1,31
249,7	-1,948
250,1	-1,09
250,6	0,31
251	1,252
251,5	0,71
252	0,338
252,4	5,31
252,9	6,91
253,4	4,452
253,8	2,538
254,3	-0,519
254,8	-1,262
255,2	-3,176
255,7	-9,719
256,1	-10,49
256,6	-7,462
257,1	-5,833
257,5	-7,89
258	-10,319
258,5	-8,005
258,9	-7,89
259,4	-9,605
259,9	-10,148
260,3	-14,548
260,8	-14,405
261,2	-12,033
261,7	-10,919
262,2	-10,49
262,6	-8,09
263,1	-6,576
263,6	-1,605
264	2,795
264,5	3,91
264,9	1,738
265,4	2,081
265,9	3,224
266,3	2,024
266,8	4,224
267,3	4,967
267,7	1,51
268,2	4,452
268,7	7,652
269,1	4,595
269,6	3,367
270	4,567
270,5	0,452
271	0,081
271,4	1,91
271,9	-0,462
272,4	6,624
272,8	5,395
273,3	-3,405
273,7	-2,662
274,2	-2,519
274,7	-4,89
275,1	-3,89
275,6	-7,119
276,1	-9,09
276,5	0,481
277	-0,005
277,4	3,252
277,9	4,51
278,4	2,367
278,8	3,852
279,3	8,167
279,8	3,081
280,2	4,995
280,7	1,824
281,1	-5,519
281,6	-5,062
282,1	-9,176
282,5	-8,662
283	-7,948
283,4	-9,49
283,9	-8,29
284,4	-0,062
284,8	-0,033
285,3	1,11
285,8	2,281
286,2	0,367
286,7	-0,405
287,1	-1,376
287,6	-1,376
288,1	-6,376
288,5	-4,205
289	-8,548
289,5	-5,69
289,9	-5,662
290,4	-3,033
290,8	-4,69
291,3	2,481
291,8	3,881
292,2	3,052
292,7	3,252
293,1	2,481
293,6	2,024
294,1	-0,205
294,5	-2,776
295	-3,719
295,5	-2,576
295,9	-5,776
296,4	-5,062
296,8	-3,748
297,3	-3,09
297,8	-3,776
298,2	-8,376
298,7	-4,69
299,1	-2,062
299,6	-0,776
300,1	-0,805
300,5	4,624
301	6,281
301,5	15,995
301,9	13,567
302,4	7,138
302,8	3,967
303,3	1,024
303,8	-7,948
304,2	-11,405
304,7	-18,319
305,1	-22,548
305,6	-16,176
306,1	-8,148
306,5	-8,29
307	3,652
307,4	11,595
307,9	11,652
308,4	12,91
308,8	8,938
309,3	3,281
309,8	6,824
310,2	3,71
310,7	-4,09
311,1	-3,662
311,6	1,424
312,1	6,452
312,5	7,652
313	10,252
313,4	3,91
313,9	8,052
314,4	6,824
314,8	3,567
315,3	4,767
315,7	1,424
316,2	-2,805
316,7	-1,176
317,1	-0,119
317,6	-1,433
318	5,167
318,5	-1,233
319	2,452
319,4	4,51
319,9	11,167
320,3	8,481
320,8	10,452
321,3	6,738
321,7	11,767
322,2	11,167
322,6	11,224
323,1	4,681
323,6	5,424
324	5,11
324,5	0,995
324,9	2,424
325,4	0,538
325,9	-2,148
326,3	2,51
326,8	3,938
327,2	-1,69
327,7	3,824
328,2	-0,719
328,6	3,71
329,1	1,795
329,5	-1,148
330	-4,148
330,5	1,11
330,9	-1,233
331,4	-2,776
331,8	-5,29
332,3	-0,69
332,8	3,995
333,2	8,795
333,7	11,424
334,1	12,395
334,6	13,138
335,1	12,338
335,5	11,967
336	6,024
336,4	6,624
336,9	13,767
337,4	18,424
337,8	20,281
338,3	20,367
338,7	21,367
339,2	22,052
339,7	21,195
340,1	12,852
340,6	6,767
341	6,967
341,5	5,224
342	1,652
342,4	1,052
342,9	-5,319
343,3	-4,833
343,8	-4,148
344,2	-6,776
344,7	0,567
345,2	-1,49
345,6	0,081
346,1	9,452
346,5	5,624
347	3,281
347,5	4,795
347,9	1,71
348,4	3,081
348,8	4,31
349,3	0,195
349,8	7,195
350,2	14,91
350,7	14,367
351,1	16,11
351,6	20,395
352	24,138
352,5	27,624
353	34,395
353,4	37,31
353,9	50,138
354,3	58,51
354,8	71,338
355,3	90,624
355,7	112,195
356,2	133,195
356,6	157,71
357,1	185,738
357,5	222,938
358	262,881
358,5	299,024
358,9	347,881
359,4	398,967
359,8	460,424
360,3	533,71
360,8	605,967
361,2	690,395
361,7	785,881
362,1	889,395
362,6	1006,252
363	1129,852
363,5	1255,967
364	1398,138
364,4	1537,395
364,9	1684,767
365,3	1825,024
365,8	1956,652
366,3	2081,795
366,7	2196,081
367,2	2296,652
367,6	2383,824
368,1	2447,424
368,5	2496,11
369	2516,452
369,5	2520,71
369,9	2502,338
370,4	2460,881
370,8	2400,51
371,3	2326,938
371,7	2237,824
372,2	2144,167
372,7	2044,795
373,1	1937,624
373,6	1824,767
374	1714,167
374,5	1602,652
374,9	1490,281
375,4	1387,167
375,9	1277,081
376,3	1176,452
376,8	1083,195
377,2	998,167
377,7	910,424
378,2	832,681
378,6	758,167
379,1	695,452
379,5	640,938
380	589,71
380,4	537,252
380,9	496,367
381,4	452,081
381,8	418,767
382,3	389,052
382,7	358,481
383,2	336,052
383,6	314,081
384,1	293,452
384,6	279,252
385	258,452
385,5	238,052
385,9	222,081
386,4	199,681
386,8	187,167
387,3	170,938
387,7	161,652
388,2	153,481
388,7	142,081
389,1	131,024
389,6	126,624
390	116,195
390,5	113,967
390,9	108,052
391,4	100,881
391,9	95,938
392,3	90,367
392,8	80,424
393,2	73,595
393,7	66,795
394,1	58,652
394,6	51,852
395,1	55,024
395,5	50,624
396	51,624
396,4	50,595
396,9	46,338
397,3	46,852
397,8	51,024
398,2	43,824
398,7	42,91
399,2	44,481
399,6	46,51
400,1	48,652
400,5	46,824
401	41,738
401,4	37,081
401,9	39,538
402,4	30,395
402,8	26,481
403,3	30,024
403,7	30,681
404,2	35,795
404,6	40,567
405,1	40,138
405,5	47,681
406	48,738
406,5	43,224
406,9	45,367
407,4	44,538
407,8	50,767
408,3	56,367
408,7	54,367
409,2	63,281
409,6	70,138
410,1	70,652
410,6	77,481
411	78,281
411,5	78,595
411,9	85,995
412,4	90,281
412,8	96,51
413,3	109,252
413,7	113,881
414,2	120,824
414,7	132,138
415,1	146,967
415,6	153,824
416	163,995
416,5	169,824
416,9	178,367
417,4	188,567
417,8	199,652
418,3	206,652
418,8	221,424
419,2	233,567
419,7	245,824
420,1	260,424
420,6	274,938
421	284,738
421,5	304,252
421,9	315,11
422,4	330,481
422,8	350,024
423,3	369,281
423,8	383,281
424,2	402,824
424,7	421,224
425,1	443,424
425,6	465,367
426	482,138
426,5	503,11
426,9	537,338
427,4	559,252
427,9	577,652
428,3	603,938
428,8	632,195
429,2	663,052
429,7	698,195
430,1	727,852
430,6	770,824
431	811,11
431,5	854,424
431,9	893,51
432,4	938,71
432,8	984,824
433,3	1034,367
433,8	1082,395
434,2	1143,167
434,7	1199,338
435,1	1261,938
435,6	1324,767
436	1388,624
436,5	1458,767
436,9	1529,624
437,4	1596,995
437,8	1670,51
438,3	1746,481
438,8	1831,795
439,2	1913,852
439,7	1998,11
440,1	2090,224
440,6	2188,395
441	2281,967
441,5	2381,224
441,9	2480,11
442,4	2588,281
442,8	2700,652
443,3	2818,71
443,7	2932,481
444,2	3057,595
444,7	3183,167
445,1	3319,452
445,6	3453,081
446	3587,738
446,5	3711,138
446,9	3848,024
447,4	3991,767
447,8	4150,738
448,3	4297,167
448,7	4451,367
449,2	4611,452
449,6	4781,395
450,1	4951,424
450,6	5126,367
451	5293,138
451,5	5468,11
451,9	5652,51
452,4	5836,595
452,8	6025,824
453,3	6229,167
453,7	6419,567
454,2	6619,538
454,6	6820,938
455,1	7022,824
455,5	7215,91
456	7423,138
456,4	7614,052
456,9	7829,252
457,3	8040,824
457,8	8251,767
458,3	8476,595
458,7	8707,31
459,2	8934,681
459,6	9165,024
460,1	9388,224
460,5	9609,681
461	9840,91
461,4	10052,652
461,9	10274,767
462,3	10498,11
462,8	10723,624
463,2	10948,452
463,7	11177,11
464,1	11414,767
464,6	11651,881
465	11887,081
465,5	12117,681
466	12352,167
466,4	12577,481
466,9	12809,824
467,3	13032,824
467,8	13252,481
468,2	13480,252
468,7	13699,938
469,1	13930,31
469,6	14160,024
470	14374,11
470,5	14578,681
470,9	14795,967
471,4	14991,367
471,8	15201,71
472,3	15393,367
472,7	15585,938
473,2	15779,395
473,6	15968,51
474,1	16152,767
474,5	16338,595
475	16507,452
475,4	16680,624
475,9	16851,595
476,4	17023,138
476,8	17198,795
477,3	17356,452
477,7	17518,481
478,2	17667,795
478,6	17813,795
479,1	17948,081
479,5	18076,767
480	18191,31
480,4	18309,081
480,9	18419,224
481,3	18530,081
481,8	18645,081
482,2	18741,967
482,7	18831,567
483,1	18921,681
483,6	19011,081
484	19088,767
484,5	19166,338
484,9	19220,624
485,4	19288,767
485,8	19347,081
486,3	19399,795
486,7	19455,195
487,2	19485,395
487,6	19508,481
488,1	19532,424
488,5	19549,881
489	19557,481
489,4	19562,824
489,9	19541,395
490,4	19546,967
490,8	19530,395
491,3	19525,31
491,7	19501,652
492,2	19475,767
492,6	19447,824
493,1	19414,138
493,5	19355,11
494	19324,538
494,4	19262,595
494,9	19206,367
495,3	19150,224
495,8	19086,91
496,2	19035,281
496,7	18979,367
497,1	18913,567
497,6	18844,995
498	18777,195
498,5	18706,71
498,9	18609,995
499,4	18511,51
499,8	18427,052
500,3	18327,938
500,7	18234,795
501,2	18128,652
501,6	18022,595
502,1	17928,424
502,5	17839,224
503	17735,595
503,4	17632,824
503,9	17514,881
504,3	17416,852
504,8	17305,595
505,2	17202,024
505,7	17075,11
506,1	16963,881
506,6	16838,224
507	16717,481
507,5	16585,652
507,9	16465,167
508,4	16345,167
508,8	16222,452
509,3	16084,224
509,7	15952,938
510,2	15825,681
510,6	15697,367
511,1	15557,395
511,5	15411,338
512	15269,852
512,4	15137,538
512,9	14999,11
513,3	14852,452
513,8	14710,338
514,2	14569,138
514,7	14429,481
515,1	14292,595
515,6	14152,738
516	14016,738
516,5	13877,167
516,9	13733,538
517,4	13592,538
517,8	13461,852
518,3	13319,224
518,7	13170,31
519,2	13033,738
519,6	12904,31
520,1	12769,052
520,5	12632,31
521	12477,224
521,4	12340,967
521,9	12207,195
522,3	12073,824
522,8	11939,224
523,2	11802,624
523,7	11685,281
524,1	11563,967
524,6	11429,081
525	11306,938
525,5	11177,338
525,9	11050,938
526,4	10932,11
526,8	10791,538
527,3	10675,595
527,7	10563,195
528,2	10441,881
528,6	10318,71
529,1	10197,452
529,5	10079,681
530	9966,995
530,4	9849,281
530,9	9743,51
531,3	9631,738
531,8	9517,252
532,2	9417,367
532,6	9314,881
533,1	9204,995
533,5	9094,938
534	8984,367
534,4	8882,452
534,9	8781,595
535,3	8674,624
535,8	8566,738
536,2	8479,738
536,7	8387,138
537,1	8285,081
537,6	8181,795
538	8099,652
538,5	8014,91
538,9	7919,767
539,4	7824,024
539,8	7737,452
540,3	7657,71
540,7	7575,252
541,2	7482,91
541,6	7393,681
542,1	7320,681
542,5	7248,452
543	7166,052
543,4	7086,567
543,9	7011,852
544,3	6943,452
544,8	6864,224
545,2	6787,738
545,7	6712,167
546,1	6644,052
546,5	6574,738
547	6500,995
547,4	6423,224
547,9	6353,567
548,3	6287,052
548,8	6218,995
549,2	6144,767
549,7	6078,195
550,1	6020,824
550,6	5959,624
551	5901,767
551,5	5839,538
551,9	5777,852
552,4	5723,538
552,8	5666,31
553,3	5601,795
553,7	5538,681
554,2	5483,652
554,6	5430,11
555,1	5377,281
555,5	5324,11
555,9	5268,052
556,4	5217,452
556,8	5167,681
557,3	5112,881
557,7	5060,224
558,2	5016,424
558,6	4970,567
559,1	4921,567
559,5	4873,224
560	4835,338
560,4	4798,538
560,9	4755,767
561,3	4703,51
561,8	4662,938
562,2	4623,652
562,7	4587,51
563,1	4547,367
563,6	4494,51
564	4449,852
564,4	4406,681
564,9	4353,11
565,3	4310,738
565,8	4271,624
566,2	4233,738
566,7	4202,252
567,1	4173,71
567,6	4141,567
568	4112,938
568,5	4075,824
568,9	4033,824
569,4	3996,281
569,8	3960,681
570,3	3922,481
570,7	3876,595
571,1	3845,081
571,6	3819,195
572	3789,938
572,5	3754,51
572,9	3719,31
573,4	3685,681
573,8	3669,51
574,3	3636,367
574,7	3594,51
575,2	3564,881
575,6	3537,167
576,1	3514,881
576,5	3487,795
576,9	3445,51
577,4	3418,967
577,8	3390,338
578,3	3359,252
578,7	3327,881
579,2	3302,71
579,6	3265,538
580,1	3238,595
580,5	3210,71
581	3188,71
581,4	3161,395
581,9	3134,31
582,3	3101,538
582,7	3082,367
583,2	3059,881
583,6	3032,624
584,1	3012,167
584,5	2991,938
585	2968,452
585,4	2940,624
585,9	2912,195
586,3	2894,395
586,8	2876,11
587,2	2847,167
587,6	2830,138
588,1	2814,652
588,5	2799,767
589	2784,052
589,4	2762,452
589,9	2735,595
590,3	2712,31
590,8	2685,424
591,2	2664,252
591,7	2641,138
592,1	2622,852
592,5	2614,167
593	2592,367
593,4	2578,081
593,9	2554,081
594,3	2534,167
594,8	2515,652
595,2	2500,995
595,7	2472,681
596,1	2459,624
596,6	2438,424
597	2428,71
597,4	2414,395
597,9	2402,595
598,3	2387,024
598,8	2368,224
599,2	2352,195
599,7	2338,252
600,1	2315,31
600,6	2295,338
601	2277,624
601,4	2262,938
601,9	2253,138
602,3	2235,91
602,8	2224,481
603,2	2215,281
603,7	2202,252
604,1	2188,938
604,6	2169,167
605	2149,138
605,4	2136,452
605,9	2119,881
606,3	2098,481
606,8	2077,881
607,2	2060,852
607,7	2041,252
608,1	2034,252
608,6	2020,11
609	2008,252
609,4	2005,938
609,9	1995,91
610,3	1986,024
610,8	1974,91
611,2	1954,052
611,7	1940,938
612,1	1925,824
612,6	1914,481
613	1904,71
613,4	1884,31
613,9	1874,252
614,3	1866,538
614,8	1853,452
615,2	1842,938
615,7	1828,024
616,1	1815,11
616,6	1802,938
617	1788,595
617,4	1777,595
617,9	1766,824
618,3	1758,081
618,8	1745,395
619,2	1733,624
619,7	1730,224
620,1	1717,852
620,5	1710,224
621	1693,795
621,4	1679,652
621,9	1666,967
622,3	1654,71
622,8	1636,881
623,2	1627,052
623,6	1608,081
624,1	1600,624
624,5	1589,652
625	1579,481
625,4	1569,824
625,9	1557,338
626,3	1548,452
626,8	1537,167
627,2	1532,424
627,6	1513,252
628,1	1503,652
628,5	1495,938
629	1489,167
629,4	1475,081
629,9	1463,795
630,3	1446,138
630,7	1441,424
631,2	1427,567
631,6	1416,338
632,1	1405,881
632,5	1395,967
633	1389,11
633,4	1381,767
633,8	1369,11
634,3	1359,852
634,7	1344,052
635,2	1331,852
635,6	1324,11
636,1	1313,91
636,5	1299,338
636,9	1294,852
637,4	1282,081
637,8	1269,538
638,3	1262,967
638,7	1253,624
639,2	1238,71
639,6	1234,51
640	1222,31
640,5	1218,967
640,9	1215,11
641,4	1207,424
641,8	1198,681
642,2	1193,281
642,7	1188,824
643,1	1188,824
643,6	1176,281
644	1170,11
644,5	1165,281
644,9	1157,91
645,3	1155,51
645,8	1143,395
646,2	1135,967
646,7	1131,538
647,1	1123,738
647,6	1112,481
648	1104,024
648,4	1090,367
648,9	1087,938
649,3	1074,824
649,8	1069,71
650,2	1060,195
650,6	1056,767
651,1	1051,31
651,5	1051,195
652	1037,481
652,4	1026,652
652,9	1018,052
653,3	1015,081
653,7	1005,338
654,2	1003,538
654,6	991,967
655,1	988,252
655,5	990,338
655,9	980,91
656,4	973,11
656,8	960,195
657,3	944,31
657,7	941,852
658,2	935,71
658,6	923,652
659	917,881
659,5	907,51
659,9	906,51
660,4	904,167
660,8	892,995
661,2	885,881
661,7	885,652
662,1	882,91
662,6	881,424
663	877,767
663,4	874,567
663,9	873,967
664,3	865,681
664,8	851,281
665,2	839,367
665,6	833,681
666,1	826,567
666,5	819,31
667	810,681
667,4	807,252
667,9	806,424
668,3	802,367
668,7	791,738
669,2	786,424
669,6	778,081
670,1	772,395
670,5	762,138
670,9	755,51
671,4	748,595
671,8	749,681
672,3	748,938
672,7	743,71
673,1	735,938
673,6	733,395
674	727,71
674,5	726,51
674,9	712,31
675,3	698,11
675,8	693,624
676,2	687,71
676,7	683,795
677,1	681,995
677,5	674,195
678	672,795
678,4	672,995
678,9	669,681
679,3	669,252
679,7	664,938
680,2	653,452
680,6	648,538
681,1	649,967
681,5	645,252
681,9	641,71
682,4	633,595
682,8	629,538
683,3	625,081
683,7	623,138
684,1	617,395
684,6	609,624
685	602,224
685,5	598,11
685,9	587,681
686,3	584,052
686,8	579,824
687,2	574,967
687,7	568,91
688,1	563,995
688,5	562,51
689	565,681
689,4	564,252
689,9	557,595
690,3	546,081
690,7	546,881
691,2	545,195
691,6	540,224
692	531,767
692,5	527,795
692,9	528,167
693,4	530,681
693,8	524,51
694,2	515,31
694,7	507,424
695,1	506,824
695,6	506,138
696	503,195
696,4	496,824
696,9	493,424
697,3	494,595
697,8	492,51
698,2	485,91
698,6	480,052
699,1	474,967
699,5	471,681
699,9	467,881
700,4	462,481
700,8	463,052
701,3	465,252
701,7	457,595
702,1	452,681
702,6	449,71
703	448,195
703,5	445,767
703,9	440,852
704,3	436,71
704,8	435,052
705,2	431,11
705,6	425,367
706,1	421,767
706,5	418,224
707	416,624
707,4	413,395
707,8	408,795
708,3	407,424
708,7	407,138
709,2	401,395
709,6	395,738
710	394,881
710,5	386,881
710,9	386,252
711,3	384,452
711,8	381,51
712,2	386,452
712,7	385,567
713,1	384,367
713,5	383,481
714	381,052
714,4	375,395
714,8	371,91
715,3	362,967
715,7	359,624
716,2	352,424
716,6	353,652
717	350,31
717,5	345,967
717,9	350,795
718,3	346,052
718,8	345,567
719,2	339,91
719,7	334,395
720,1	334,081
720,5	337,767
721	327,31
721,4	328,567
721,8	327,481
722,3	325,51
722,7	327,624
723,2	318,567
723,6	304,395
724	299,71
724,5	296,024
724,9	290,795
725,3	288,281
725,8	278,795
726,2	283,252
726,7	285,395
727,1	281,938
727,5	279,967
728	278,738
728,4	279,624
728,8	279,538
729,3	272,938
729,7	271,824
730,1	274,224
730,6	270,481
731	265,91
731,5	262,395
731,9	258,852
732,3	260,51
732,8	265,71
733,2	265,224
733,6	264,281
734,1	268,881
734,5	270,395
734,9	271,995
735,4	272,881
735,8	259,795
736,3	261,681
736,7	260,71
737,1	255,31
737,6	249,167
738	245,538
738,4	237,081
738,9	241,995
739,3	238,281
739,7	236,881
740,2	232,681
740,6	232,624
741,1	235,567
741,5	233,11
741,9	232,881
742,4	232,367
742,8	231,452
743,2	235,738
743,7	232,281
744,1	225,824
744,5	228,481
745	228,652
745,4	224,052
745,8	221,881
746,3	217,11
746,7	220,224
747,2	218,224
747,6	222,052
748	221,938
748,5	224,795
748,9	218,424
749,3	218,567
749,8	216,31
750,2	216,281
750,6	207,481
751,1	205,338
751,5	200,395
751,9	207,252
752,4	206,652
752,8	204,738
753,3	201,424
753,7	204,967
754,1	204,452
754,6	202,824
755	198,081
755,4	192,281
755,9	186,338
756,3	186,51
756,7	183,995
757,2	179,681
757,6	175,567
758	174,51
758,5	176,738
758,9	178,481
759,3	181,11
759,8	179,024
760,2	177,824
760,6	178,795
761,1	176,738
761,5	174,052
761,9	172,367
762,4	161,91
762,8	156,938
763,3	151,31
763,7	150,652
764,1	146,595
764,6	146,995
765	151,367
765,4	159,91
765,9	163,281
766,3	169,824
766,7	167,681
767,2	172,567
767,6	172,738
768	165,91
768,5	162,11
768,9	162,081
769,3	156,538
769,8	154,767
770,2	155,795
770,6	152,795
771,1	156,824
771,5	157,681
771,9	156,91
772,4	159,167
772,8	157,31
773,2	153,338
773,7	155,852
774,1	152,052
774,5	142,081
775	139,681
775,4	137,681
775,8	139,167
776,3	136,567
776,7	131,31
777,1	133,31
777,6	138,452
778	143,31
778,4	139,881
778,9	142,852
779,3	141,995
779,7	143,31
780,2	138,31
780,6	138,852
781	130,167
781,5	127,424
781,9	124,367
782,3	121,224
782,8	117,281
783,2	115,738
783,6	114,424
784,1	117,224
784,5	117,995
784,9	111,367
785,4	118,852
785,8	122,652
786,2	126,967
786,7	125,91
787,1	120,71
787,5	120,424
788	127,91
788,4	124,367
788,8	120,11
789,3	114,595
789,7	113,938
790,1	116,481
790,6	117,824
791	109,395
791,4	109,881
791,9	110,91
792,3	112,595
792,7	115,538
793,2	111,367
793,6	108,395
794	113,367
794,5	110,367
794,9	107,281
795,3	105,252
795,8	101,081
796,2	100,738
796,6	105,452
797,1	103,595
797,5	99,167
797,9	97,338
798,4	97,91
798,8	91,967
799,2	89,367
799,7	86,195
800,1	85,338
800,5	87,052
801	87,967
801,4	85,567
801,8	86,395
802,2	90,338
802,7	84,767
803,1	81,595
803,5	79,738
804	79,081
804,4	81,138
804,8	84,338
805,3	84,31
805,7	86,395
806,1	86,967
806,6	86,681
807	86,452
807,4	80,795
807,9	74,024
808,3	71,481
808,7	74,081
809,2	76,767
809,6	79,967
810	80,91
810,4	82,967
810,9	86,71
811,3	88,995
811,7	82,424
812,2	87,195
812,6	80,681
813	81,395
813,5	81,395
813,9	83,481
814,3	80,024
814,8	80,367
815,2	67,652
815,6	68,881
816,1	71,452
816,5	67,538
816,9	67,795
817,3	69,338
817,8	74,252
818,2	80,367
818,6	77,024
819,1	67,652
819,5	72,024
819,9	72,167
820,4	69,195
820,8	65,31
821,2	59,167
821,7	63,938
822,1	69,481
822,5	69,995
822,9	64,11
823,4	63,195
823,8	65,967
824,2	71,881
824,7	68,538
825,1	60,567
825,5	55,367
826	56,995
826,4	56,11
826,8	53,652
827,3	51,31
827,7	49,452
828,1	55,624
828,5	58,167
829	56,195
829,4	59,081
829,8	53,567
830,3	54,567
830,7	52,367
831,1	51,195
831,6	48,224
832	46,481
832,4	43,624
832,8	46,481
833,3	43,138
833,7	43,452
834,1	43,167
834,6	44,367
835	48,424
835,4	50,224
835,8	44,624
836,3	42,481
836,7	45,452
837,1	45,167
837,6	44,252
838	41,995
838,4	39,652
838,9	44,681
839,3	44,652
839,7	44,452
840,1	40,452
840,6	41,167
841	41,51
841,4	43,31
841,9	44,252
842,3	45,481
842,7	44,767
843,1	44,824
843,6	43,995
844	42,938
844,4	43,081
844,9	44,795
845,3	41,881
845,7	40,51
846,2	42,681
846,6	39,11
847	43,367
847,4	43,224
847,9	43,224
848,3	44,452
848,7	48,252
849,2	47,338
849,6	47,767
850	44,11
850,4	44,195
850,9	42,538
851,3	45,281
851,7	43,767
852,2	42,024
852,6	45,938
853	46,367
853,4	44,71
853,9	38,31
854,3	37,167
854,7	36,024
855,2	34,681
855,6	31,624
856	29,967
856,4	28,167
856,9	29,824
857,3	30,681
857,7	33,424
858,2	40,91
858,6	39,481
859	40,852
859,4	43,338
859,9	43,71
860,3	39,567
860,7	36,767
861,1	31,967
861,6	33,395
862	33,338
862,4	29,31
862,9	29,881
863,3	31,252
863,7	31,481
864,1	32,281
864,6	31,767
865	32,395
865,4	33,452
865,9	35,51
866,3	30,881
866,7	25,652
867,1	21,681
867,6	19,595
868	16,681
868,4	15,367
868,8	12,881
869,3	14,995
869,7	21,51
870,1	23,938
870,6	26,224
871	-52,405
871,4	-47,89
871,8	-51,719
872,3	-47,605
872,7	-46,662
873,1	-49,033
873,5	-50,062
874	24,024
874,4	19,681
874,8	22,338
875,3	20,11
875,7	13,795
876,1	16,424
876,5	16,967
877	19,652
877,4	15,338
877,8	16,081
878,2	16,081
878,7	16,852
879,1	15,91
879,5	16,281
879,9	19,167
880,4	23,538
880,8	25,938
881,2	24,995
881,7	25,51
882,1	25,595
882,5	23,795
882,9	20,624
883,4	18,51
883,8	18,767
884,2	18,11
884,6	15,852
885,1	16,51
885,5	13,738
885,9	11,624
886,3	15,224
886,8	12,481
887,2	9,995
887,6	9,31
888	7,195
888,5	11,224
888,9	12,195
889,3	8,71
889,8	6,11
890,2	7,31
890,6	9,824
891	8,452
891,5	7,881
891,9	10,052
892,3	11,081
892,7	12,281
893,2	13,624
893,6	13,71
894	16,852
894,4	12,681
894,9	12,91
895,3	11,681
895,7	13,081
896,1	13,538
896,6	12,281
897	10,052
897,4	17,481
897,8	17,624
898,3	20,252
898,7	18,481
899,1	17,281
899,5	17,938
900	14,595
900,4	12,052
900,8	10,767
901,2	6,452
901,7	6,281
902,1	8,424
902,5	10,31
902,9	13,71
903,4	13,938
903,8	14,481
904,2	13,681
904,6	17,338
905,1	19,652
905,5	17,967
905,9	20,338
906,3	19,71
906,8	25,424
907,2	28,71
907,6	26,31
908	25,252
908,5	20,767
908,9	14,452
909,3	16,452
909,7	11,767
910,2	11,252
910,6	15,538
911	7,71
911,4	6,024
911,9	9,281
912,3	5,224
912,7	10,052
913,1	13,995
913,6	6,681
914	12,795
914,4	14,367
914,8	15,71
915,3	14,595
915,7	8,11
916,1	4,31
916,5	6,224
916,9	3,995
917,4	6,138
917,8	4,91
918,2	0,71
918,6	-2,233
919,1	-0,148
919,5	0,452
919,9	-0,348
920,3	-0,776
920,8	-1,119
921,2	5,395
921,6	8,138
922	6,71
922,5	5,195
922,9	8,195
923,3	7,938
923,7	11,795
924,2	6,967
924,6	5,51
925	6,195
925,4	7,11
925,8	7,824
926,3	6,367
926,7	-2,233
927,1	4,424
927,5	8,595
928	5,71
928,4	2,224
928,8	-1,176
929,2	0,367
929,7	5,795
930,1	3,995
930,5	0,081
930,9	2,538
931,3	6,624
931,8	8,338
932,2	10,452
932,6	7,31
933	-0,005
933,5	1,024
933,9	-0,148
934,3	0,738
934,7	-4,29
935,2	-4,319
935,6	-4,948
936	-0,748
936,4	-0,633
936,8	-0,748
937,3	-6,548
937,7	0,824
938,1	-0,576
938,5	-3,948
939	-0,89
939,4	-0,605
939,8	-0,148
940,2	2,681
940,6	-0,976
941,1	-3,033
941,5	1,367
941,9	-3,89
942,3	-5,119
942,8	-2,348
943,2	-2,405
943,6	-5,319
944	-2,776
944,4	-2,148
944,9	-2,062
945,3	-3,062
945,7	-12,348
946,1	-13,433
946,6	-14,719
947	-16,69
947,4	-12,976
947,8	-7,376
948,2	-7,49
948,7	0,567
949,1	1,595
949,5	9,024
949,9	9,852
950,3	7,138
950,8	3,31
951,2	4,51
951,6	0,91
952	2,91
952,5	-3,69
952,9	-0,233
953,3	-3,176
953,7	-4,062
954,1	-3,576
954,6	-1,948
955	0,138
955,4	2,967
955,8	2,995
956,2	3,738
956,7	7,795
957,1	4,31
957,5	9,367
957,9	9,452
958,3	10,595
958,8	9,995
959,2	15,138
959,6	14,967
960	16,967
960,5	15,195
960,9	15,852
961,3	14,395
961,7	11,024
962,1	8,424
962,6	9,967
963	10,224
963,4	4,224
963,8	0,11
964,2	1,281
964,7	2,424
965,1	4,452
965,5	4,138
965,9	5,167
966,3	9,452
966,8	7,824
967,2	8,195
967,6	8,71
968	1,767
968,4	-0,776
968,9	-0,605
969,3	0,938
969,7	-0,462
970,1	-3,119
970,5	-6,576
971	-0,748
971,4	-1,776
971,8	-0,976
972,2	-2,033
972,6	0,91
973,1	2,767
973,5	5,138
973,9	6,252
974,3	3,824
974,7	6,367
975,2	5,51
975,6	4,538
976	4,595
976,4	1,595
976,8	-0,033
977,3	-0,033
977,7	-7,948
978,1	-9,919
978,5	-11,319
978,9	-12,29
979,4	-9,548
979,8	-12,805
980,2	-7,348
980,6	-5,919
981	-5,148
981,5	-3,233
981,9	-0,262
982,3	-0,89
982,7	2,31
983,1	-3,89
983,6	-3,29
984	-3,405
984,4	-4,805
984,8	-7,69
985,2	-6,576
985,6	-10,948
986,1	-9,233
986,5	-5,748
986,9	-6,205
987,3	-3,176
987,7	-3,433
988,2	-4,148
988,6	-0,176
989	-1,319
989,4	-3,148
989,8	-2,262
990,3	-3,49
990,7	-2,776
991,1	-1,719
991,5	-0,719
991,9	3,024
992,3	4,252
992,8	7,052
993,2	8,195
993,6	11,538
994	13,395
994,4	14,367
994,9	14,567
995,3	15,31
995,7	9,081
996,1	5,367
996,5	3,424
996,9	0,138
997,4	-1,433
997,8	-6,119
998,2	-10,719
998,6	-12,576
999	-10,862
999,5	-12,576
999,9	-12,176
1000,3	-11,205
1000,7	-7,376
1001,1	-5,69
1001,5	-0,748
1002	2,452
1002,4	3,881
1002,8	3,567
1003,2	3,91
1003,6	3,767
1004	4,595
1004,5	0,395
1004,9	-3,462
1005,3	-10,148
1005,7	-8,49
1006,1	-15,119
1006,6	-15,833
1007	-17,548
1007,4	-16,805
1007,8	-17,805
1008,2	-16,69
1008,6	-14,633
1009,1	-11,89
1009,5	-9,662
1009,9	-4,119
1010,3	-0,062
1010,7	2,224
1011,1	5,567
1011,6	6,91
1012	12,481
1012,4	12,795
1012,8	8,31
1013,2	12,824
1013,6	16,167
1014,1	18,452
1014,5	11,481
1014,9	7,081
1015,3	4,481
1015,7	8,138
1016,1	5,424
1016,6	-0,033
1017	-1,205
1017,4	2,652
1017,8	3,91
1018,2	6,681
1018,6	3,081
1019,1	2,11
1019,5	3,31
1019,9	-0,776
1020,3	-0,519
1020,7	-0,748
1021,1	-2,89
1021,6	-4,148
1022	-3,69
1022,4	-1,89
1022,8	3,51
1023,2	1,424
1023,6	1,081
1024,1	6,967
1024,5	11,91
1024,9	10,567
1025,3	8,51
1025,7	6,424
1026,1	5,681
1026,6	8,367
1027	1,624
1027,4	2,795
1027,8	1,224
1028,2	-2,062
1028,6	0,424
1029	2,652
1029,5	2,195
1029,9	2,795
1030,3	-1,148
1030,7	0,51
1031,1	8,881
1031,5	3,995
1032	5,338
1032,4	6,824
1032,8	7,681
1033,2	5,252
1033,6	3,795
1034	-2,833
1034,4	-3,405
1034,9	-2,948
1035,3	-10,576
1035,7	-9,033
1036,1	-9,776
1036,5	-12,976
1036,9	-9,148
1037,4	-3,176
1037,8	-9,748
1038,2	-5,519
1038,6	-5,833
1039	3,738
1039,4	14,252
1039,8	5,738
1040,3	3,91
1040,7	6,681
1041,1	8,252
1041,5	8,167
1041,9	-3,09
1042,3	-9,662
1042,7	-1,205
1043,2	-0,319
1043,6	-2,119
1044	-2,948
1044,4	-1,862
1044,8	7,11
1045,2	5,681
1045,6	3,538
1046,1	-0,29
1046,5	2,824
1046,9	0,71
1047,3	-3,519
1047,7	-11,662
1048,1	-14,776
1048,5	-12,748
1049	-7,49
1049,4	-5,319
1049,8	-6,09
1050,2	-6,09
1050,6	1,51
1051	5,281
1051,4	4,967
1051,9	1,081
1052,3	6,767
1052,7	9,538
1053,1	10,224
1053,5	5,967
1053,9	4,081
1054,3	0,024
1054,8	7,281
1055,2	2,338
1055,6	3,395
1056	2,538
1056,4	4,681
1056,8	8,652
1057,2	9,595
1057,6	3,595
1058,1	-1,319
1058,5	-5,205
1058,9	0,767
1059,3	-1,605
1059,7	-2,462
1060,1	-0,576
1060,5	-0,205
1061	4,167
1061,4	6,538
1061,8	3,767
1062,2	5,881
1062,6	4,51
1063	8,452
1063,4	8,91
1063,8	3,995
1064,3	-1,376
1064,7	-2,29
1065,1	-5,576
1065,5	-8,205
1065,9	-12,662
1066,3	-16,69
1066,7	-15,319
1067,1	-11,548
1067,6	-8,662
1068	-6,948
1068,4	-3,89
1068,8	-0,348
1069,2	2,938
1069,6	5,138
1070	8,052
1070,4	2,881
1070,9	0,51
1071,3	-0,262
1071,7	-5,033
1072,1	-4,748
1072,5	-6,49
1072,9	-9,433
1073,3	-9,262
1073,7	-9,776
1074,2	-9,976
1074,6	-5,405
1075	-5,233
1075,4	-4,49
1075,8	-3,633
1076,2	-2,119
1076,6	6,367
1077	5,024
1077,5	4,224
1077,9	2,052
1078,3	-0,805
1078,7	-0,462
1079,1	-2,062
1079,5	-4,633
1079,9	1,652
1080,3	2,252
1080,7	4,052
1081,2	11,252
1081,6	7,11
1082	6,31
1082,4	10,652
1082,8	5,995
1083,2	5,081
1083,6	4,252
1084	-3,205
1084,5	1,395
1084,9	1,967
1085,3	-7,29
1085,7	-8,662
1086,1	-11,519
1086,5	-9,233
1086,9	-3,805
1087,3	-7,548
1087,7	-5,662
1088,2	-1,119
1088,6	-0,976
1089	3,281
1089,4	2,738
1089,8	5,681
1090,2	9,995
1090,6	8,081
1091	7,31
1091,4	12,424
1091,9	10,652
1092,3	8,31
1092,7	-0,976
1093,1	1,052
1093,5	3,024
1093,9	1,51
1094,3	3,824
1094,7	2,195
1095,1	5,338
1095,5	8,481
1096	2,681
1096,4	2,91
1096,8	2,338
1097,2	-4,233
1097,6	1,167
1098	0,738
1098,4	3,91
1098,8	4,567
1099,2	10,624
1099,6	8,795
1100,1	8,938
1100,5	2,652
1100,9	4,567
1101,3	4,91
1101,7	8,995
1102,1	4,052
1102,5	6,252
1102,9	8,738
1103,3	12,281
1103,7	7,795
1104,2	4,51
1104,6	2,71
1105	-0,719
1105,4	-1,776
1105,8	-3,576
1106,2	-5,005
1106,6	-4,09
1107	-2,89
1107,4	-4,1
1107,8	-1,673
1108,3	-0,333
