Data from Subt2_144.txt Node
Date: Sat Aug 26 18:29:28 MSK 2023
User: vat
Spectrometer: MAYP114033
Trigger mode: 0
Integration Time (sec): 1,000000E0
Scans to average: 5
Electric dark correction enabled: true
Nonlinearity correction enabled: false
Boxcar width: 3
XAxis mode: Wavelengths
Number of Pixels in Spectrum: 2068
>>>>>Begin Spectral Data<<<<<
199,4	-0,517
199,9	0,753
200,4	-0,933
200,8	-0,967
201,3	-3,738
201,8	1,348
202,2	-0,71
202,7	0,319
203,2	-1,024
203,6	-1,424
204,1	-3,995
204,6	-1,824
205	-6,395
205,5	-2,138
206	-3,338
206,4	-1,995
206,9	0,319
207,4	1,833
207,8	2,748
208,3	1,919
208,8	-2,538
209,2	0,833
209,7	-1,51
210,2	-2,852
210,6	-1,195
211,1	-3,224
211,5	-9,681
212	-7,652
212,5	-12,681
212,9	-13,51
213,4	-12,167
213,9	-14,738
214,3	-11,51
214,8	-1,71
215,3	-1,252
215,7	-0,281
216,2	3,405
216,7	5,176
217,1	6,233
217,6	5,69
218,1	2,662
218,5	-1,11
219	-6,824
219,5	-7,595
219,9	-11,767
220,4	-6,824
220,9	-8,767
221,3	-5,31
221,8	-4,738
222,3	1,262
222,7	3,462
223,2	4,776
223,6	-2,224
224,1	-7,938
224,6	-6,538
225	-7,081
225,5	-8,195
226	-12,881
226,4	-10,195
226,9	-6,281
227,4	4,89
227,8	-1,852
228,3	-2,11
228,8	2,976
229,2	7,09
229,7	5,805
230,2	6,662
230,6	7,062
231,1	11,633
231,5	17,805
232	17,576
232,5	14,319
232,9	12,548
233,4	9,576
233,9	6,176
234,3	1,348
234,8	-0,138
235,3	-6,652
235,7	-3,167
236,2	-1,224
236,7	0,376
237,1	1,005
237,6	2,29
238,1	-0,795
238,5	-1,538
239	-2,91
239,4	-2,081
239,9	-2,452
240,4	-1,395
240,8	3,405
241,3	4,433
241,8	6,776
242,2	4,49
242,7	3,148
243,2	6,005
243,6	0,948
244,1	2,462
244,6	5,776
245	6,376
245,5	9,405
245,9	8,176
246,4	4,519
246,9	5,548
247,3	2,376
247,8	0,519
248,3	3,605
248,7	7,148
249,2	8,148
249,7	9,719
250,1	12,976
250,6	8,776
251	7,576
251,5	7,148
252	-0,11
252,4	3,862
252,9	0,519
253,4	-3,281
253,8	-4,967
254,3	-2,881
254,8	-4,052
255,2	-6,395
255,7	-13,91
256,1	-11,538
256,6	-13,767
257,1	-10,481
257,5	-12,195
258	-11,024
258,5	-4,567
258,9	-1,624
259,4	-2,024
259,9	3,205
260,3	-0,081
260,8	-7,767
261,2	-8,967
261,7	-13,081
262,2	-15,967
262,6	-17,91
263,1	-16,91
263,6	-10,052
264	2,233
264,5	7,033
264,9	7,862
265,4	12,319
265,9	11,948
266,3	12,49
266,8	11,119
267,3	7,576
267,7	0,49
268,2	1,49
268,7	-2,51
269,1	2,89
269,6	-1,91
270	0,433
270,5	-2,681
271	0,805
271,4	3,119
271,9	-0,538
272,4	2,09
272,8	5,719
273,3	1,033
273,7	9,319
274,2	10,748
274,7	6,919
275,1	13,262
275,6	8,462
276,1	4,719
276,5	7,205
277	3,519
277,4	-2,31
277,9	0,148
278,4	1,033
278,8	0,776
279,3	3,176
279,8	3,29
280,2	1,148
280,7	6,748
281,1	4,633
281,6	3,462
282,1	6,89
282,5	7,748
283	5,662
283,4	3,29
283,9	4,633
284,4	10,09
284,8	9,605
285,3	4,69
285,8	5,633
286,2	5,69
286,7	3,976
287,1	-2,195
287,6	-6,081
288,1	-7,024
288,5	-6,995
289	-10,652
289,5	-8,938
289,9	-5,31
290,4	-0,138
290,8	-0,481
291,3	0,976
291,8	5,719
292,2	5,605
292,7	6,748
293,1	4,89
293,6	4,09
294,1	4,519
294,5	5,605
295	0,833
295,5	1,376
295,9	-4,11
296,4	-2,452
296,8	-1,71
297,3	-1,138
297,8	-7,081
298,2	-9,452
298,7	-7,452
299,1	-3,31
299,6	-7,252
300,1	-9,338
300,5	-7,681
301	2,262
301,5	9,033
301,9	7,519
302,4	4,862
302,8	3,376
303,3	4,89
303,8	-2,567
304,2	-9,224
304,7	-10,852
305,1	-14,481
305,6	-13,481
306,1	-3,367
306,5	-1,938
307	4,69
307,4	8,919
307,9	7,548
308,4	10,062
308,8	4,348
309,3	3,348
309,8	-4,024
310,2	-0,052
310,7	-5,738
311,1	-6,052
311,6	-2,624
312,1	7,433
312,5	7,69
313	12,062
313,4	8,119
313,9	10,748
314,4	10,148
314,8	4,348
315,3	0,033
315,7	-6,538
316,2	-10,052
316,7	-14,767
317,1	-12,31
317,6	-9,71
318	-2,281
318,5	-3,024
319	-1,995
319,4	2,862
319,9	11,005
320,3	12,576
320,8	10,49
321,3	7,69
321,7	12,233
322,2	16,119
322,6	17,548
323,1	10,119
323,6	5,69
324	2,605
324,5	2,005
324,9	0,205
325,4	-4,881
325,9	-4,424
326,3	-2,852
326,8	-1,081
327,2	0,833
327,7	1,833
328,2	1,833
328,6	9,033
329,1	-1,681
329,5	-1,681
330	-5,052
330,5	-1,938
330,9	-2,138
331,4	-3,881
331,8	-11,91
332,3	-5,367
332,8	-5,138
333,2	-2,824
333,7	-1,652
334,1	-0,652
334,6	-2,595
335,1	-1,31
335,5	0,519
336	2,348
336,4	6,576
336,9	10,976
337,4	9,719
337,8	10,176
338,3	12,319
338,7	12,719
339,2	11,69
339,7	12,919
340,1	7,233
340,6	7,748
341	6,662
341,5	4,233
342	1,005
342,4	-0,252
342,9	-5,938
343,3	-8,538
343,8	-9,224
344,2	-7,481
344,7	-1,738
345,2	-2,081
345,6	-1,51
346,1	0,833
346,5	-2,338
347	-4,681
347,5	-2,338
347,9	-1,367
348,4	-0,881
348,8	-1,281
349,3	-0,824
349,8	6,176
350,2	10,148
350,7	6,89
351,1	5,319
351,6	9,776
352	14,033
352,5	17,919
353	23,119
353,4	24,148
353,9	34,148
354,3	42,462
354,8	51,748
355,3	65,49
355,7	78,976
356,2	94,033
356,6	112,605
357,1	131,005
357,5	151,319
358	179,89
358,5	202,205
358,9	232,805
359,4	271,29
359,8	315,119
360,3	367,519
360,8	416,319
361,2	471,29
361,7	542,205
362,1	616,833
362,6	693,005
363	776,576
363,5	861,119
364	961,205
364,4	1055,29
364,9	1148,948
365,3	1239,805
365,8	1329,633
366,3	1409,462
366,7	1485,062
367,2	1551,262
367,6	1607,433
368,1	1653,833
368,5	1676,262
369	1686,376
369,5	1691,119
369,9	1682,748
370,4	1660,862
370,8	1622,462
371,3	1569,29
371,7	1521,976
372,2	1459,605
372,7	1391,662
373,1	1314,576
373,6	1233,262
374	1159,919
374,5	1085,49
374,9	1009,233
375,4	936,176
375,9	864,405
376,3	797,29
376,8	733,976
377,2	676,319
377,7	621,119
378,2	566,833
378,6	521,29
379,1	477,233
379,5	439,548
380	405,948
380,4	369,976
380,9	337,433
381,4	307,862
381,8	287,29
382,3	268,262
382,7	245,748
383,2	228,605
383,6	207,119
384,1	194,719
384,6	188,005
385	171,405
385,5	160,033
385,9	150,205
386,4	137,69
386,8	132,776
387,3	120,319
387,7	107,976
388,2	99,633
388,7	90,748
389,1	82,148
389,6	79,119
390	75,833
390,5	76,119
390,9	72,319
391,4	67,405
391,9	61,519
392,3	63,062
392,8	54,919
393,2	47,89
393,7	43,233
394,1	38,176
394,6	37,948
395,1	38,576
395,5	31,319
396	31,49
396,4	31,205
396,9	30,462
397,3	36,233
397,8	35,548
398,2	35,405
398,7	39,948
399,2	40,29
399,6	41,49
400,1	42,005
400,5	35,319
401	35,319
401,4	32,005
401,9	34,805
402,4	36,376
402,8	33,862
403,3	39,862
403,7	39,576
404,2	41,348
404,6	48,776
405,1	43,662
405,5	42,433
406	44,033
406,5	38,005
406,9	46,005
407,4	49,719
407,8	50,519
408,3	55,09
408,7	56,176
409,2	65,29
409,6	73,433
410,1	74,462
410,6	80,89
411	80,033
411,5	83,062
411,9	91,862
412,4	93,862
412,8	97,89
413,3	107,148
413,7	109,376
414,2	119,233
414,7	133,148
415,1	143,005
415,6	153,119
416	159,433
416,5	163,262
416,9	172,576
417,4	182,719
417,8	190,233
418,3	199,405
418,8	208,49
419,2	218,433
419,7	230,319
420,1	236,69
420,6	248,405
421	255,719
421,5	264,033
421,9	272,919
422,4	284,262
422,8	297,662
423,3	311,119
423,8	321,09
424,2	333,062
424,7	344,89
425,1	362,29
425,6	380,833
426	394,262
426,5	416,176
426,9	437,548
427,4	454,062
427,9	472,348
428,3	496,69
428,8	520,576
429,2	542,49
429,7	559,89
430,1	582,176
430,6	615,433
431	648,262
431,5	672,776
431,9	694,205
432,4	727,976
432,8	766,89
433,3	801,062
433,8	838,576
434,2	874,605
434,7	916,148
435,1	961,948
435,6	1006,262
436	1050,176
436,5	1098,205
436,9	1143,119
437,4	1197,376
437,8	1251,662
438,3	1308,148
438,8	1368,433
439,2	1432,605
439,7	1501,776
440,1	1570,348
440,6	1641,148
441	1708,519
441,5	1785,862
441,9	1865,719
442,4	1937,29
442,8	2012,776
443,3	2097,805
443,7	2182,176
444,2	2275,233
444,7	2362,976
445,1	2456,919
445,6	2558,862
446	2661,548
446,5	2756,776
446,9	2857,433
447,4	2965,433
447,8	3076,805
448,3	3182,805
448,7	3295,348
449,2	3418,719
449,6	3545,89
450,1	3668,005
450,6	3792,433
451	3913,033
451,5	4041,433
451,9	4176,49
452,4	4302,89
452,8	4428,348
453,3	4571,662
453,7	4711,405
454,2	4859,376
454,6	5008,633
455,1	5150,319
455,5	5298,605
456	5449,29
456,4	5598,348
456,9	5756,433
457,3	5910,348
457,8	6062,633
458,3	6228,09
458,7	6383,033
459,2	6556,919
459,6	6724,89
460,1	6882,29
460,5	7052,805
461	7226,405
461,4	7387,233
461,9	7563,633
462,3	7734,719
462,8	7907,062
463,2	8080,69
463,7	8242,319
464,1	8417,919
464,6	8587,576
465	8758,29
465,5	8917,062
466	9075,062
466,4	9224,548
466,9	9396,262
467,3	9552,833
467,8	9722,062
468,2	9881,576
468,7	10042,805
469,1	10209,205
469,6	10379,833
470	10537,662
470,5	10689,776
470,9	10833,833
471,4	10984,348
471,8	11132,148
472,3	11281,862
472,7	11437,833
473,2	11573,89
473,6	11708,862
474,1	11850,09
474,5	11985,662
475	12118,919
475,4	12251,176
475,9	12380,29
476,4	12506,805
476,8	12642,148
477,3	12761,519
477,7	12877,976
478,2	12991,776
478,6	13092,976
479,1	13180,833
479,5	13280,49
480	13361,719
480,4	13455,09
480,9	13536,29
481,3	13621,919
481,8	13695,405
482,2	13764,719
482,7	13835,319
483,1	13901,69
483,6	13955,433
484	14006,348
484,5	14052,805
484,9	14092,348
485,4	14144,376
485,8	14183,062
486,3	14218,805
486,7	14257,862
487,2	14292,976
487,6	14318,176
488,1	14334,748
488,5	14345,633
489	14357,548
489,4	14363,205
489,9	14345,576
490,4	14339,633
490,8	14333,633
491,3	14326,719
491,7	14310,976
492,2	14296,662
492,6	14274,519
493,1	14261,776
493,5	14221,919
494	14174,919
494,4	14141,348
494,9	14094,948
495,3	14047,69
495,8	13995,005
496,2	13947,948
496,7	13904,49
497,1	13854,576
497,6	13795,405
498	13750,433
498,5	13694,462
498,9	13637,948
499,4	13570,69
499,8	13511,948
500,3	13465,462
500,7	13403,89
501,2	13314,233
501,6	13239,433
502,1	13166,405
502,5	13098,633
503	13021,748
503,4	12931,033
503,9	12847,919
504,3	12785,119
504,8	12701,833
505,2	12622,548
505,7	12537,433
506,1	12455,662
506,6	12363,319
507	12279,576
507,5	12186,976
507,9	12086,519
508,4	11984,89
508,8	11885,462
509,3	11783,576
509,7	11690,89
510,2	11591,519
510,6	11489,462
511,1	11399,062
511,5	11299,348
512	11195,176
512,4	11086,433
512,9	10985,662
513,3	10889,89
513,8	10784,09
514,2	10675,576
514,7	10575,776
515,1	10475,576
515,6	10367,776
516	10252,319
516,5	10144,576
516,9	10048,89
517,4	9948,548
517,8	9850,748
518,3	9744,148
518,7	9647,805
519,2	9549,919
519,6	9434,719
520,1	9332,119
520,5	9228,833
521	9118,976
521,4	9024,09
521,9	8926,09
522,3	8821,948
522,8	8719,719
523,2	8622,633
523,7	8518,148
524,1	8421,633
524,6	8325,233
525	8232,69
525,5	8143,69
525,9	8066,576
526,4	7966,976
526,8	7881,033
527,3	7797,89
527,7	7709,89
528,2	7614,776
528,6	7525,519
529,1	7439,89
529,5	7357,376
530	7272,548
530,4	7185,062
530,9	7097,09
531,3	7018,348
531,8	6942,89
532,2	6856,605
532,6	6773,262
533,1	6696,748
533,5	6623,748
534	6547,605
534,4	6474,576
534,9	6404,205
535,3	6332,548
535,8	6265,205
536,2	6194,89
536,7	6120,062
537,1	6049,176
537,6	5979,748
538	5918,576
538,5	5847,005
538,9	5777,348
539,4	5713,519
539,8	5651,433
540,3	5595,519
540,7	5531,262
541,2	5459,405
541,6	5403,776
542,1	5341,548
542,5	5281,948
543	5223,405
543,4	5162,69
543,9	5106,319
544,3	5048,633
544,8	4986,005
545,2	4937,033
545,7	4882,205
546,1	4831,119
546,5	4775,69
547	4727,405
547,4	4675,862
547,9	4626,919
548,3	4572,49
548,8	4524,976
549,2	4469,662
549,7	4422,319
550,1	4370,605
550,6	4326,776
551	4283,519
551,5	4243,462
551,9	4194,319
552,4	4154,805
552,8	4115,976
553,3	4067,89
553,7	4021,662
554,2	3984,233
554,6	3943,976
555,1	3907,148
555,5	3867,805
555,9	3827,576
556,4	3791,605
556,8	3754,662
557,3	3723,262
557,7	3687,89
558,2	3647,662
558,6	3620,09
559,1	3582,09
559,5	3552,005
560	3527,119
560,4	3485,205
560,9	3449,405
561,3	3417,69
561,8	3379,176
562,2	3354,748
562,7	3327,119
563,1	3293,662
563,6	3262,49
564	3235,662
564,4	3210,29
564,9	3181,29
565,3	3146,205
565,8	3120,462
566,2	3090,262
566,7	3064,948
567,1	3039,662
567,6	3011,748
568	2981,919
568,5	2959,49
568,9	2926,633
569,4	2901,862
569,8	2876,605
570,3	2849,262
570,7	2821,605
571,1	2802,205
571,6	2778,776
572	2760,49
572,5	2735,176
572,9	2715,119
573,4	2687,348
573,8	2672,69
574,3	2646,433
574,7	2620,948
575,2	2593,348
575,6	2574,49
576,1	2548,262
576,5	2530,976
576,9	2503,233
577,4	2483,776
577,8	2465,919
578,3	2449,376
578,7	2420,919
579,2	2405,519
579,6	2385,548
580,1	2363,89
580,5	2340,976
581	2322,748
581,4	2299,262
581,9	2281,948
582,3	2261,29
582,7	2241,348
583,2	2222,662
583,6	2207,005
584,1	2186,033
584,5	2172,919
585	2162,633
585,4	2138,348
585,9	2121,748
586,3	2112,319
586,8	2098,605
587,2	2078,176
587,6	2062,433
588,1	2044,205
588,5	2034,49
589	2020,348
589,4	2001,49
589,9	1985,748
590,3	1975,605
590,8	1956,976
591,2	1947,748
591,7	1935,89
592,1	1923,576
592,5	1914,148
593	1896,719
593,4	1884,576
593,9	1871,633
594,3	1847,462
594,8	1829,69
595,2	1812,433
595,7	1797,948
596,1	1788,948
596,6	1775,805
597	1767,376
597,4	1761,262
597,9	1748,29
598,3	1740,233
598,8	1726,49
599,2	1711,09
599,7	1697,033
600,1	1682,948
600,6	1670,748
601	1669,176
601,4	1661,519
601,9	1649,433
602,3	1637,776
602,8	1626,462
603,2	1611,948
603,7	1601,833
604,1	1585,605
604,6	1572,69
605	1559,805
605,4	1548,748
605,9	1538,69
606,3	1530,348
606,8	1520,976
607,2	1505,005
607,7	1489,548
608,1	1487,176
608,6	1484,405
609	1479,262
609,4	1472,633
609,9	1460,319
610,3	1455,748
610,8	1448,319
611,2	1434,605
611,7	1424,005
612,1	1414,205
612,6	1405,862
613	1399,748
613,4	1388,176
613,9	1377,148
614,3	1365,89
614,8	1355,205
615,2	1341,748
615,7	1329,09
616,1	1319,09
616,6	1305,633
617	1296,233
617,4	1287,976
617,9	1282,748
618,3	1275,433
618,8	1270,776
619,2	1261,062
619,7	1259,119
620,1	1255,09
620,5	1250,776
621	1236,605
621,4	1229,433
621,9	1219,376
622,3	1215,69
622,8	1205,233
623,2	1192,033
623,6	1183,605
624,1	1179,262
624,5	1166,976
625	1162,005
625,4	1152,862
625,9	1148,262
626,3	1145,319
626,8	1133,205
627,2	1127,833
627,6	1116,919
628,1	1100,919
628,5	1091,376
629	1081,376
629,4	1068,233
629,9	1059,319
630,3	1044,405
630,7	1037,748
631,2	1035,576
631,6	1028,519
632,1	1021,605
632,5	1017,548
633	1011,176
633,4	1003,89
633,8	998,119
634,3	995,205
634,7	990,033
635,2	978,405
635,6	971,09
636,1	964,633
636,5	961,033
636,9	955,148
637,4	946,49
637,8	930,49
638,3	924,805
638,7	920,148
639,2	912,119
639,6	909,662
640	907,09
640,5	900,119
640,9	902,176
641,4	902,633
641,8	896,348
642,2	893,862
642,7	887,29
643,1	883,462
643,6	876,833
644	868,319
644,5	858,576
644,9	853,548
645,3	847,748
645,8	834,548
646,2	832,119
646,7	827,519
647,1	818,976
647,6	817,49
648	811,633
648,4	802,976
648,9	800,69
649,3	788,119
649,8	782,005
650,2	781,205
650,6	774,433
651,1	769,062
651,5	771,405
652	767,09
652,4	760,69
652,9	755,205
653,3	751,319
653,7	744,376
654,2	739,805
654,6	726,148
655,1	724,89
655,5	726,176
655,9	722,433
656,4	716,062
656,8	714,69
657,3	709,919
657,7	713,09
658,2	708,005
658,6	698,462
659	693,548
659,5	687,376
659,9	682,348
660,4	680,776
660,8	670,262
661,2	663,519
661,7	664,833
662,1	661,805
662,6	659,405
663	653,633
663,4	644,233
663,9	641,29
664,3	633,033
664,8	623,862
665,2	614,576
665,6	608,005
666,1	600,09
666,5	598,433
667	596,148
667,4	592,948
667,9	587,833
668,3	586,719
668,7	582,348
669,2	586,319
669,6	579,033
670,1	574,176
670,5	571,605
670,9	566,862
671,4	563,462
671,8	560,348
672,3	557,833
672,7	555,033
673,1	550,119
673,6	545,233
674	547,033
674,5	538,548
674,9	533,633
675,3	520,576
675,8	520,033
676,2	516,719
676,7	509,29
677,1	503,662
677,5	500,633
678	497,633
678,4	500,662
678,9	493,376
679,3	490,662
679,7	491,205
680,2	481,576
680,6	477,148
681,1	476,748
681,5	471,862
681,9	469,662
682,4	465,433
682,8	463,262
683,3	463,233
683,7	463,376
684,1	459,519
684,6	454,605
685	449,519
685,5	446,776
685,9	442,748
686,3	436,662
686,8	431,776
687,2	430,376
687,7	427,948
688,1	421,919
688,5	417,548
689	417,348
689,4	416,605
689,9	411,348
690,3	403,576
690,7	400,376
691,2	402,205
691,6	400,862
692	396,405
692,5	395,49
692,9	396,548
693,4	394,405
693,8	393,719
694,2	388,233
694,7	384,605
695,1	382,519
695,6	380,69
696	377,405
696,4	375,005
696,9	366,662
697,3	365,376
697,8	364,062
698,2	357,519
698,6	358,633
699,1	357,605
699,5	355,776
699,9	356,062
700,4	353,748
700,8	350,662
701,3	350,548
701,7	341,662
702,1	336,89
702,6	336,433
703	335,89
703,5	332,633
703,9	329,29
704,3	326,548
704,8	325,976
705,2	325,062
705,6	320,605
706,1	313,348
706,5	309,89
707	309,148
707,4	307,205
707,8	306,405
708,3	304,262
708,7	302,062
709,2	302,176
709,6	299,89
710	299,205
710,5	295,948
710,9	290,348
711,3	287,433
711,8	289,976
712,2	292,776
712,7	290,348
713,1	285,176
713,5	288,433
714	291,348
714,4	283,09
714,8	277,205
715,3	271,662
715,7	272,976
716,2	269,805
716,6	264,033
717	257,29
717,5	261,548
717,9	267,319
718,3	265,576
718,8	262,833
719,2	264,576
719,7	264,605
720,1	264,662
720,5	265,605
721	254,405
721,4	253,262
721,8	254,89
722,3	249,719
722,7	248,919
723,2	241,862
723,6	234,376
724	233,605
724,5	227,776
724,9	219,69
725,3	220,262
725,8	215,376
726,2	217,262
726,7	214,49
727,1	212,69
727,5	213,148
728	211,062
728,4	210,233
728,8	206,776
729,3	205,833
729,7	207,976
730,1	206,833
730,6	205,833
731	205,576
731,5	201,233
731,9	203,805
732,3	204,319
732,8	205,319
733,2	202,376
733,6	201,233
734,1	200,405
734,5	199,405
734,9	199,09
735,4	199,148
735,8	191,776
736,3	194,205
736,7	192,405
737,1	192,062
737,6	191,833
738	189,548
738,4	185,062
738,9	187,776
739,3	185,805
739,7	182,976
740,2	179,319
740,6	183,148
741,1	184,976
741,5	178,833
741,9	176,948
742,4	174,976
742,8	174,776
743,2	178,719
743,7	170,119
744,1	161,89
744,5	166,119
745	167,062
745,4	161,548
745,8	163,09
746,3	158,319
746,7	158,748
747,2	163,433
747,6	167,805
748	168,148
748,5	172,233
748,9	167,376
749,3	164,29
749,8	162,948
750,2	158,662
750,6	151,033
751,1	148,176
751,5	147,062
751,9	151,69
752,4	158,148
752,8	159,09
753,3	155,662
753,7	157,919
754,1	156,605
754,6	152,119
755	142,662
755,4	135,233
755,9	129,662
756,3	131,805
756,7	127,09
757,2	126,462
757,6	130,09
758	135,033
758,5	136,49
758,9	142,69
759,3	144,49
759,8	143,176
760,2	140,148
760,6	134,919
761,1	134,976
761,5	135,862
761,9	130,69
762,4	126,405
762,8	127,919
763,3	127,062
763,7	131,405
764,1	126,948
764,6	124,262
765	129,519
765,4	132,262
765,9	134,376
766,3	132,348
766,7	125,29
767,2	123,976
767,6	128,005
768	121,319
768,5	115,376
768,9	114,348
769,3	115,805
769,8	120,948
770,2	125,462
770,6	117,433
771,1	119,09
771,5	121,176
771,9	118,462
772,4	120,005
772,8	116,89
773,2	114,319
773,7	118,662
774,1	117,29
774,5	112,405
775	109,348
775,4	111,69
775,8	108,319
776,3	105,576
776,7	100,462
777,1	99,519
777,6	101,119
778	103,633
778,4	97,433
778,9	99,319
779,3	103,433
779,7	110,605
780,2	107,89
780,6	107,662
781	104,748
781,5	101,89
781,9	99,833
782,3	97,805
782,8	94,176
783,2	93,948
783,6	95,519
784,1	94,862
784,5	95,405
784,9	94,462
785,4	95,919
785,8	95,233
786,2	98,262
786,7	95,548
787,1	91,348
787,5	92,776
788	90,233
788,4	83,919
788,8	82,633
789,3	80,376
789,7	81,748
790,1	83,005
790,6	83,005
791	83,005
791,4	85,262
791,9	77,662
792,3	72,948
792,7	74,319
793,2	74,29
793,6	73,719
794	79,262
794,5	76,662
794,9	83,262
795,3	85,176
795,8	78,748
796,2	80,576
796,6	81,348
797,1	77,119
797,5	73,633
797,9	73,09
798,4	72,376
798,8	71,633
799,2	70,233
799,7	69,833
800,1	72,09
800,5	70,719
801	71,69
801,4	72,376
801,8	72,262
802,2	71,605
802,7	67,262
803,1	65,833
803,5	67,519
804	66,148
804,4	69,576
804,8	70,348
805,3	68,805
805,7	70,748
806,1	69,405
806,6	76,633
807	77,633
807,4	74,633
807,9	73,319
808,3	72,462
808,7	71,462
809,2	73,205
809,6	70,776
810	63,09
810,4	62,376
810,9	64,805
811,3	68,633
811,7	71,633
812,2	73,976
812,6	69,09
813	76,205
813,5	75,462
813,9	73,862
814,3	71,205
814,8	64,89
815,2	57,005
815,6	56,09
816,1	49,776
816,5	48,69
816,9	46,748
817,3	45,576
817,8	51,862
818,2	55,719
818,6	51,176
819,1	52,205
819,5	52,605
819,9	52,319
820,4	51,919
820,8	43,89
821,2	39,348
821,7	46,033
822,1	49,833
822,5	52,805
822,9	54,262
823,4	55,062
823,8	61,576
824,2	63,833
824,7	57,09
825,1	47,062
825,5	40,976
826	40,405
826,4	37,605
826,8	34,605
827,3	35,69
827,7	37,805
828,1	43,062
828,5	43,662
829	38,89
829,4	38,576
829,8	32,376
830,3	28,548
830,7	29,005
831,1	31,805
831,6	32,548
832	35,805
832,4	34,862
832,8	39,805
833,3	40,576
833,7	38,405
834,1	34,319
834,6	30,376
835	33,519
835,4	35,262
835,8	31,062
836,3	31,805
836,7	33,833
837,1	35,548
837,6	40,719
838	39,548
838,4	40,633
838,9	45,519
839,3	45,176
839,7	46,919
840,1	41,148
840,6	38,119
841	35,605
841,4	35,49
841,9	34,576
842,3	31,748
842,7	29,719
843,1	31,89
843,6	35,576
844	33,29
844,4	37,205
844,9	36,09
845,3	37,662
845,7	38,462
846,2	38,776
846,6	34,948
847	41,548
847,4	37,605
847,9	39,09
848,3	32,576
848,7	28,49
849,2	29,262
849,6	23,605
850	20,948
850,4	22,376
850,9	24,348
851,3	32,176
851,7	38,376
852,2	37,719
852,6	44,176
853	44,205
853,4	37,119
853,9	30,748
854,3	28,405
854,7	24,29
855,2	25,348
855,6	22,29
856	17,148
856,4	17,319
856,9	15,176
857,3	18,319
857,7	18,348
858,2	22,976
858,6	24,862
859	33,233
859,4	32,405
859,9	36,29
860,3	28,69
860,7	26,49
861,1	21,49
861,6	18,776
862	14,548
862,4	13,605
862,9	11,548
863,3	15,405
863,7	17,776
864,1	17,776
864,6	18,29
865	12,49
865,4	16,49
865,9	22,376
866,3	17,148
866,7	15,319
867,1	9,862
867,6	12,119
868	12,776
868,4	14,148
868,8	10,548
869,3	15,776
869,7	19,833
870,1	20,805
870,6	16,462
871	-57,224
871,4	-55,852
871,8	-58,138
872,3	-54,652
872,7	-53,767
873,1	-51,91
873,5	-49,881
874	26,062
874,4	28,833
874,8	26,119
875,3	22,69
875,7	19,033
876,1	24,633
876,5	24,405
877	24,719
877,4	15,29
877,8	20,49
878,2	20,633
878,7	21,119
879,1	16,719
879,5	16,176
879,9	18,519
880,4	24,662
880,8	22,519
881,2	21,176
881,7	19,348
882,1	21,405
882,5	19,062
882,9	17,062
883,4	13,233
883,8	15,119
884,2	15,948
884,6	16,89
885,1	14,005
885,5	18,805
885,9	18,205
886,3	22,605
886,8	20,548
887,2	20,005
887,6	19,09
888	21,633
888,5	18,776
888,9	16,262
889,3	9,433
889,8	10,805
890,2	8,605
890,6	7,805
891	6,805
891,5	6,833
891,9	7,033
892,3	11,376
892,7	14,033
893,2	17,405
893,6	18,89
894	18,348
894,4	15,605
894,9	15,576
895,3	17,033
895,7	13,633
896,1	11,69
896,6	11,062
897	15,09
897,4	25,519
897,8	29,148
898,3	30,005
898,7	29,548
899,1	29,148
899,5	28,633
900	17,262
900,4	9,062
900,8	6,405
901,2	-1,624
901,7	-1,71
902,1	-1,738
902,5	1,119
902,9	5,519
903,4	8,49
903,8	8,776
904,2	12,005
904,6	13,233
905,1	13,119
905,5	11,005
905,9	14,29
906,3	15,148
906,8	17,49
907,2	16,576
907,6	14,776
908	18,89
908,5	16,319
908,9	13,09
909,3	8,69
909,7	6,119
910,2	8,205
910,6	9,262
911	0,09
911,4	2,605
911,9	1,376
912,3	3,948
912,7	5,89
913,1	5,462
913,6	2,519
914	5,748
914,4	1,605
914,8	1,776
915,3	-0,967
915,7	-0,852
916,1	-2,71
916,5	-1,224
916,9	2,319
917,4	5,062
917,8	6,376
918,2	4,033
918,6	-1,481
919,1	1,49
919,5	4,09
919,9	3,09
920,3	4,69
920,8	4,148
921,2	8,805
921,6	11,805
922	8,719
922,5	3,462
922,9	5,405
923,3	1,976
923,7	1,205
924,2	-3,081
924,6	-2,71
925	0,776
925,4	3,233
925,8	1,776
926,3	4,89
926,7	6,919
927,1	9,633
927,5	11,919
928	6,319
928,4	7,376
928,8	8,319
929,2	6,89
929,7	8,605
930,1	9,719
930,5	5,576
930,9	13,862
931,3	17,748
931,8	16,262
932,2	16,462
932,6	14,09
933	7,005
933,5	9,805
933,9	6,205
934,3	5,462
934,7	3,205
935,2	4,776
935,6	6,176
936	7,833
936,4	8,776
936,8	9,89
937,3	2,576
937,7	5,776
938,1	8,462
938,5	4,805
939	9,319
939,4	8,319
939,8	8,862
940,2	8,976
940,6	10,805
941,1	7,262
941,5	12,205
941,9	10,005
942,3	6,805
942,8	2,348
943,2	4,319
943,6	-1,052
944	0,948
944,4	-3,452
944,9	-7,081
945,3	-4,481
945,7	-5,624
946,1	-4,252
946,6	-2,852
947	-6,195
947,4	0,805
947,8	4,09
948,2	1,662
948,7	4,433
949,1	3,576
949,5	3,976
949,9	2,205
950,3	-0,624
950,8	-0,395
951,2	-0,11
951,6	-2,824
952	-0,252
952,5	-4,795
952,9	-4,681
953,3	-7,681
953,7	-7,11
954,1	-3,081
954,6	1,548
955	0,948
955,4	2,405
955,8	6,719
956,2	7,119
956,7	8,205
957,1	4,119
957,5	3,319
957,9	2,805
958,3	3,519
958,8	2,319
959,2	5,09
959,6	7,948
960	7,348
960,5	7,862
960,9	9,462
961,3	8,433
961,7	4,976
962,1	1,29
962,6	-3,424
963	-3,938
963,4	-8,852
963,8	-11,938
964,2	-9,195
964,7	-5,824
965,1	-5,538
965,5	-4,252
965,9	-3,681
966,3	1,119
966,8	-0,624
967,2	-0,967
967,6	-0,51
968	-3,567
968,4	-0,452
968,9	-0,824
969,3	-1,395
969,7	-1,452
970,1	-1,31
970,5	-2,595
971	1,548
971,4	-1,852
971,8	-1,852
972,2	-2,852
972,6	-2,767
973,1	-4,281
973,5	-3,452
973,9	-1,624
974,3	-2,681
974,7	-0,11
975,2	-0,624
975,6	-1,281
976	3,748
976,4	0,233
976,8	-1,367
977,3	-5,281
977,7	-6,252
978,1	-6,538
978,5	-3,938
978,9	-8,081
979,4	-6,395
979,8	-9,081
980,2	-3,738
980,6	-8,195
981	-5,024
981,5	-6,481
981,9	-5,195
982,3	-4,938
982,7	-1,681
983,1	-3,281
983,6	-0,824
984	-1,881
984,4	-1,167
984,8	-2,081
985,2	-1,681
985,6	-4,938
986,1	-4,252
986,5	1,119
986,9	-3,71
987,3	-1,31
987,7	-1,652
988,2	-0,567
988,6	3,69
989	2,433
989,4	-1,795
989,8	0,89
990,3	-1,31
990,7	0,29
991,1	-1,738
991,5	1,576
991,9	5,49
992,3	9,262
992,8	6,319
993,2	8,262
993,6	7,262
994	11,148
994,4	7,49
994,9	7,805
995,3	2,033
995,7	3,862
996,1	1,433
996,5	2,548
996,9	-1,91
997,4	-0,11
997,8	-2,281
998,2	-0,881
998,6	-4,567
999	-6,395
999,5	-9,281
999,9	-7,138
1000,3	-9,338
1000,7	-8,195
1001,1	-6,195
1001,5	-2,424
1002	3,633
1002,4	6,148
1002,8	2,29
1003,2	4,29
1003,6	6,433
1004	9,433
1004,5	9,376
1004,9	8,919
1005,3	5,09
1005,7	7,548
1006,1	3,576
1006,6	-2,31
1007	-5,338
1007,4	-4,567
1007,8	-8,795
1008,2	-9,252
1008,6	-6,167
1009,1	-4,738
1009,5	0,376
1009,9	4,005
1010,3	4,69
1010,7	5,976
1011,1	10,662
1011,6	10,005
1012	13,405
1012,4	8,062
1012,8	7,062
1013,2	11,462
1013,6	10,662
1014,1	9,919
1014,5	9,262
1014,9	7,976
1015,3	8,748
1015,7	6,148
1016,1	2,262
1016,6	1,262
1017	0,433
1017,4	-0,138
1017,8	-5,367
1018,2	-3,367
1018,6	-9,91
1019,1	-9,167
1019,5	-3,367
1019,9	-7,567
1020,3	-3,681
1020,7	-0,738
1021,1	-1,338
1021,6	3,376
1022	5,29
1022,4	1,69
1022,8	6,462
1023,2	3,062
1023,6	4,89
1024,1	10,176
1024,5	13,805
1024,9	8,49
1025,3	9,119
1025,7	9,319
1026,1	8,805
1026,6	8,548
1027	7,033
1027,4	8,233
1027,8	6,205
1028,2	4,062
1028,6	6,033
1029	4,976
1029,5	5,262
1029,9	-1,024
1030,3	-5,281
1030,7	-1,795
1031,1	0,919
1031,5	-6,167
1032	-6,195
1032,4	-7,624
1032,8	-3,652
1033,2	-0,995
1033,6	-1,281
1034	-4,995
1034,4	-0,938
1034,9	1,748
1035,3	-0,281
1035,7	1,405
1036,1	-2,91
1036,5	-6,338
1036,9	-4,367
1037,4	-1,11
1037,8	-6,424
1038,2	-7,11
1038,6	-8,767
1039	-2,852
1039,4	2,119
1039,8	-3,51
1040,3	-6,081
1040,7	-3,252
1041,1	3,49
1041,5	2,748
1041,9	-0,195
1042,3	1,176
1042,7	8,519
1043,2	6,376
1043,6	4,89
1044	1,976
1044,4	4,29
1044,8	6,748
1045,2	2,805
1045,6	1,862
1046,1	4,148
1046,5	5,976
1046,9	3,462
1047,3	-4,138
1047,7	-6,795
1048,1	-6,11
1048,5	-7,195
1049	-4,024
1049,4	0,462
1049,8	2,119
1050,2	12,262
1050,6	18,062
1051	17,662
1051,4	19,348
1051,9	12,719
1052,3	17,005
1052,7	11,69
1053,1	4,976
1053,5	4,919
1053,9	7,633
1054,3	5,205
1054,8	12,033
1055,2	5,49
1055,6	13,662
1056	14,462
1056,4	3,748
1056,8	0,062
1057,2	2,119
1057,6	-4,081
1058,1	-7,538
1058,5	-13,91
1058,9	-8,852
1059,3	-2,652
1059,7	0,548
1060,1	0,033
1060,5	3,262
1061	7,862
1061,4	9,49
1061,8	10,205
1062,2	6,633
1062,6	5,233
1063	7,319
1063,4	5,376
1063,8	2,033
1064,3	0,005
1064,7	-1,938
1065,1	3,49
1065,5	3,462
1065,9	-3,424
1066,3	-5,224
1066,7	-7,71
1067,1	-6,681
1067,6	-6,195
1068	-11,424
1068,4	-7,681
1068,8	-1,167
1069,2	4,405
1069,6	5,376
1070	9,148
1070,4	3,519
1070,9	4,433
1071,3	0,176
1071,7	-3,11
1072,1	-5,367
1072,5	-5,481
1072,9	-10,195
1073,3	-5,624
1073,7	-4,452
1074,2	-2,081
1074,6	1,148
1075	-1,052
1075,4	1,29
1075,8	5,062
1076,2	4,548
1076,6	4,348
1077	3,148
1077,5	4,29
1077,9	4,062
1078,3	2,148
1078,7	0,148
1079,1	-1,024
1079,5	-3,852
1079,9	-2,652
1080,3	-4,367
1080,7	-3,281
1081,2	0,719
1081,6	5,033
1082	5,862
1082,4	15,976
1082,8	13,605
1083,2	11,776
1083,6	13,862
1084	8,119
1084,5	1,405
1084,9	-3,338
1085,3	-12,624
1085,7	-10,538
1086,1	-10,31
1086,5	-9,481
1086,9	-4,51
1087,3	-0,91
1087,7	1,919
1088,2	4,262
1088,6	2,862
1089	3,948
1089,4	4,805
1089,8	1,433
1090,2	-0,938
1090,6	-1,538
1091	1,748
1091,4	1,49
1091,9	-0,681
1092,3	-3,224
1092,7	-2,167
1093,1	0,262
1093,5	-0,767
1093,9	-3,738
1094,3	-1,224
1094,7	-1,31
1095,1	-0,167
1095,5	-0,281
1096	-3,167
1096,4	-0,081
1096,8	-2,424
1097,2	-3,052
1097,6	0,176
1098	-1,052
1098,4	0,862
1098,8	3,662
1099,2	8,262
1099,6	12,405
1100,1	9,948
1100,5	5,948
1100,9	4,062
1101,3	5,233
1101,7	5,148
1102,1	-0,024
1102,5	1,005
1102,9	2,319
1103,3	5,662
1103,7	9,405
1104,2	5,633
1104,6	3,805
1105	0,948
1105,4	-0,138
1105,8	-0,424
1106,2	-1,738
1106,6	-3,452
1107	-1,795
1107,4	-0,3
1107,8	3,513
1108,3	0,233
