Data from Subt2_079.txt Node
Date: Sat Aug 26 16:38:59 MSK 2023
User: vat
Spectrometer: MAYP114033
Trigger mode: 0
Integration Time (sec): 1,000000E0
Scans to average: 5
Electric dark correction enabled: true
Nonlinearity correction enabled: false
Boxcar width: 3
XAxis mode: Wavelengths
Number of Pixels in Spectrum: 2068
>>>>>Begin Spectral Data<<<<<
199,4	-0,85
199,9	2,68
200,4	0,7
200,8	1,343
201,3	2,086
201,8	2,114
202,2	4,257
202,7	7,114
203,2	2,657
203,6	6,486
204,1	7,143
204,6	10,314
205	12,4
205,5	11,171
206	10,086
206,4	14,543
206,9	12,829
207,4	14,886
207,8	11,2
208,3	11,429
208,8	11,2
209,2	11,229
209,7	10,229
210,2	13,971
210,6	10,857
211,1	9,886
211,5	6,057
212	3,171
212,5	-0,171
212,9	-0,629
213,4	-1,771
213,9	0,057
214,3	2,943
214,8	9,257
215,3	12,029
215,7	11,286
216,2	12,8
216,7	8,457
217,1	5,8
217,6	4,143
218,1	1,429
218,5	5,086
219	13,514
219,5	12,086
219,9	13,714
220,4	12,457
220,9	14,486
221,3	13,4
221,8	7,371
222,3	1,971
222,7	0,057
223,2	1,371
223,6	2,8
224,1	1,086
224,6	3,743
225	6,4
225,5	9,571
226	10,629
226,4	10,429
226,9	10,114
227,4	12,114
227,8	14,943
228,3	13,486
228,8	8,6
229,2	8,429
229,7	5,257
230,2	12,686
230,6	10,457
231,1	3,629
231,5	5,971
232	14,886
232,5	18,429
232,9	22,057
233,4	18,571
233,9	19,657
234,3	22,057
234,8	23,857
235,3	19,114
235,7	20,714
236,2	18
236,7	15,857
237,1	17,743
237,6	14,2
238,1	13,657
238,5	9,543
239	5,714
239,4	8,514
239,9	5,029
240,4	1,286
240,8	3,4
241,3	1,2
241,8	1,4
242,2	0,229
242,7	-0,886
243,2	1
243,6	2,4
244,1	2,943
244,6	3,571
245	6,571
245,5	7,743
245,9	7,229
246,4	8,571
246,9	6,029
247,3	4,686
247,8	4,343
248,3	5,829
248,7	11,171
249,2	6,514
249,7	6,029
250,1	9,257
250,6	8,971
251	7,229
251,5	0,6
252	-3,657
252,4	-0,029
252,9	1,257
253,4	3,057
253,8	3,086
254,3	6,6
254,8	11,543
255,2	11,286
255,7	14,629
256,1	12,857
256,6	10,943
257,1	16,029
257,5	17,086
258	15,6
258,5	12,629
258,9	13,314
259,4	16,629
259,9	18,743
260,3	14,286
260,8	10,2
261,2	12,114
261,7	15,486
262,2	12,029
262,6	8,8
263,1	5,4
263,6	9,6
264	11,343
264,5	10,257
264,9	10,914
265,4	14,057
265,9	14,114
266,3	16,743
266,8	17,086
267,3	18,743
267,7	20,886
268,2	17,943
268,7	11,8
269,1	10,286
269,6	11,143
270	10,457
270,5	12,343
271	12,2
271,4	5,914
271,9	14,029
272,4	14,486
272,8	12,571
273,3	9,429
273,7	4,343
274,2	2,171
274,7	12,029
275,1	5,971
275,6	7,486
276,1	4,257
276,5	7,771
277	9,8
277,4	11,457
277,9	9,629
278,4	13,514
278,8	18,657
279,3	20,657
279,8	18,629
280,2	18,057
280,7	13,2
281,1	12,486
281,6	6,2
282,1	3,6
282,5	7,571
283	5,114
283,4	2,6
283,9	3,971
284,4	6,314
284,8	10,686
285,3	9,457
285,8	3,686
286,2	3,171
286,7	-0,714
287,1	-1,8
287,6	-1,114
288,1	-0,057
288,5	2,486
289	5,2
289,5	8,371
289,9	17,4
290,4	20,343
290,8	25,657
291,3	21
291,8	19,943
292,2	20,314
292,7	18,8
293,1	17,943
293,6	17,8
294,1	7,686
294,5	14,086
295	11,257
295,5	12,314
295,9	15,714
296,4	18,743
296,8	15,257
297,3	19,857
297,8	20,114
298,2	20,4
298,7	19,371
299,1	17,743
299,6	12,057
300,1	16
300,5	16,343
301	11,857
301,5	13,143
301,9	13,2
302,4	11,686
302,8	13,171
303,3	13,057
303,8	9,257
304,2	10,343
304,7	9,143
305,1	7,286
305,6	5
306,1	4,086
306,5	2,6
307	2,514
307,4	2,886
307,9	3,6
308,4	4,829
308,8	11,143
309,3	11
309,8	18,543
310,2	17,514
310,7	22,829
311,1	18,343
311,6	18,886
312,1	15,914
312,5	17,6
313	11,571
313,4	15,286
313,9	15,943
314,4	18,457
314,8	22,829
315,3	22,429
315,7	20,914
316,2	16,6
316,7	13,343
317,1	7,514
317,6	8,429
318	5,943
318,5	6,657
319	8,286
319,4	12,4
319,9	13,971
320,3	18,143
320,8	17,743
321,3	15,429
321,7	14,086
322,2	13,571
322,6	11
323,1	9,657
323,6	6,743
324	7,543
324,5	3,486
324,9	7,257
325,4	6,4
325,9	12,057
326,3	16,914
326,8	16,771
327,2	17,857
327,7	23,743
328,2	18,943
328,6	19,629
329,1	18,486
329,5	18,4
330	18,371
330,5	16,657
330,9	15,857
331,4	11,743
331,8	13,886
332,3	14,029
332,8	9,229
333,2	8,657
333,7	12,029
334,1	13,629
334,6	18,714
335,1	16,629
335,5	15,943
336	13
336,4	14,114
336,9	17,4
337,4	17,257
337,8	18,429
338,3	18,771
338,7	17,543
339,2	23,429
339,7	22,886
340,1	19,629
340,6	17,543
341	17,514
341,5	18,171
342	18,2
342,4	15,943
342,9	13,914
343,3	13,714
343,8	13,229
344,2	17,857
344,7	15,543
345,2	16,686
345,6	19,543
346,1	18,314
346,5	20,114
347	23,457
347,5	18,657
347,9	20,429
348,4	20,371
348,8	17,629
349,3	21,257
349,8	24,314
350,2	22
350,7	28,714
351,1	31,8
351,6	36,257
352	49,257
352,5	60,714
353	72
353,4	87,4
353,9	102,886
354,3	125,514
354,8	147,143
355,3	173,143
355,7	203,257
356,2	234,857
356,6	276,486
357,1	320,543
357,5	372,743
358	441,743
358,5	511,886
358,9	595,2
359,4	693,229
359,8	800,343
360,3	921,229
360,8	1058,314
361,2	1207,057
361,7	1372,857
362,1	1556,743
362,6	1757,886
363	1972,543
363,5	2205,943
364	2438,143
364,4	2680,943
364,9	2925,057
365,3	3163,971
365,8	3390,771
366,3	3601,429
366,7	3791,914
367,2	3963
367,6	4104,657
368,1	4206,886
368,5	4275,229
369	4309,629
369,5	4316,229
369,9	4271,514
370,4	4198,171
370,8	4102,629
371,3	3983,6
371,7	3843,371
372,2	3682,229
372,7	3499,686
373,1	3322,886
373,6	3139,514
374	2941,371
374,5	2747,657
374,9	2553,886
375,4	2371,486
375,9	2200,171
376,3	2031,114
376,8	1871,8
377,2	1722,571
377,7	1583,857
378,2	1453,629
378,6	1326,429
379,1	1212,771
379,5	1113,114
380	1024,743
380,4	942,057
380,9	864,286
381,4	800,229
381,8	741,6
382,3	682,886
382,7	627,171
383,2	576,286
383,6	530,971
384,1	493,457
384,6	452,143
385	416,8
385,5	390,514
385,9	366,543
386,4	345,2
386,8	327,286
387,3	306,171
387,7	290,371
388,2	271,914
388,7	251,286
389,1	233,571
389,6	210,514
390	192,657
390,5	175,971
390,9	166,171
391,4	160,2
391,9	151,486
392,3	142,514
392,8	134,057
393,2	123,343
393,7	122,829
394,1	112,229
394,6	102,343
395,1	100,743
395,5	98,314
396	99
396,4	95,114
396,9	90,943
397,3	86,829
397,8	81,057
398,2	75,8
398,7	65,857
399,2	60,257
399,6	61,657
400,1	50,914
400,5	49,743
401	50,629
401,4	48,486
401,9	51,943
402,4	50,343
402,8	45,343
403,3	49,4
403,7	45,914
404,2	46,229
404,6	45,943
405,1	43,4
405,5	40,229
406	42,114
406,5	40,829
406,9	41,714
407,4	39,714
407,8	42,143
408,3	41,6
408,7	48,914
409,2	48,543
409,6	51,514
410,1	56,914
410,6	60,914
411	57,857
411,5	59,429
411,9	54,743
412,4	53,971
412,8	55,971
413,3	53,714
413,7	54,4
414,2	55,886
414,7	61,429
415,1	63,486
415,6	70,829
416	71,543
416,5	77,229
416,9	82,743
417,4	85,914
417,8	88,286
418,3	96,371
418,8	93,743
419,2	99,029
419,7	101,571
420,1	96,971
420,6	99,886
421	99,429
421,5	97,314
421,9	98,371
422,4	96,886
422,8	95,743
423,3	100,371
423,8	104,229
424,2	106,257
424,7	105,743
425,1	108,743
425,6	110,029
426	109,571
426,5	107,371
426,9	105,629
427,4	106,086
427,9	106
428,3	106,143
428,8	111,057
429,2	110,114
429,7	110,6
430,1	112,543
430,6	113,657
431	115,543
431,5	117,429
431,9	113,8
432,4	119,2
432,8	127,114
433,3	125,686
433,8	129,057
434,2	131,2
434,7	133,657
435,1	139,114
435,6	145,314
436	148,314
436,5	158,914
436,9	164,543
437,4	178,314
437,8	182,457
438,3	194,029
438,8	195,943
439,2	198,943
439,7	204,314
440,1	211,029
440,6	220,771
441	236,314
441,5	241,657
441,9	256,2
442,4	273,2
442,8	285,686
443,3	298,286
443,7	301,6
444,2	311,629
444,7	324,971
445,1	334,371
445,6	340,029
446	353,371
446,5	368,343
446,9	384,943
447,4	402,371
447,8	419,629
448,3	443,371
448,7	464,714
449,2	481,857
449,6	496,257
450,1	519,371
450,6	538,143
451	549,971
451,5	560,343
451,9	579,971
452,4	599,343
452,8	620,629
453,3	633,086
453,7	652,086
454,2	680,086
454,6	708,629
455,1	731,714
455,5	757,286
456	783,029
456,4	817,4
456,9	845,429
457,3	874,514
457,8	896,8
458,3	928,914
458,7	959,143
459,2	991,143
459,6	1022,8
460,1	1049,314
460,5	1079,429
461	1111,257
461,4	1142,657
461,9	1176,029
462,3	1209,943
462,8	1243,314
463,2	1285,829
463,7	1317,743
464,1	1359,543
464,6	1392,771
465	1425,429
465,5	1460,8
466	1493,714
466,4	1525,914
466,9	1567,029
467,3	1598,486
467,8	1638,029
468,2	1674,086
468,7	1711,829
469,1	1748,086
469,6	1785,543
470	1821,2
470,5	1860,2
470,9	1900,714
471,4	1945,171
471,8	1984,086
472,3	2019,971
472,7	2058,657
473,2	2090,029
473,6	2129,457
474,1	2163,114
474,5	2198,429
475	2241,314
475,4	2284,943
475,9	2332,657
476,4	2374,429
476,8	2414,629
477,3	2452,457
477,7	2491,086
478,2	2521,771
478,6	2559,971
479,1	2590,286
479,5	2631,143
480	2665,371
480,4	2698,657
480,9	2733,171
481,3	2765,057
481,8	2798,371
482,2	2826,114
482,7	2853,657
483,1	2888,543
483,6	2924,286
484	2948,686
484,5	2985,057
484,9	3009,571
485,4	3043,286
485,8	3075,943
486,3	3104,229
486,7	3129,314
487,2	3158,943
487,6	3183,686
488,1	3215,286
488,5	3238,714
489	3256,457
489,4	3272,029
489,9	3300,657
490,4	3326,6
490,8	3341,971
491,3	3364
491,7	3376,686
492,2	3405
492,6	3425,686
493,1	3435,714
493,5	3450,229
494	3468,657
494,4	3476,514
494,9	3497,457
495,3	3506,486
495,8	3524,829
496,2	3541,4
496,7	3547,514
497,1	3561,229
497,6	3581,314
498	3591,057
498,5	3609,514
498,9	3618,114
499,4	3628,429
499,8	3645,914
500,3	3662,629
500,7	3668,686
501,2	3683,543
501,6	3690,6
502,1	3706,657
502,5	3715,629
503	3725,4
503,4	3731,114
503,9	3743,857
504,3	3752,943
504,8	3756,571
505,2	3756,429
505,7	3776,343
506,1	3791,543
506,6	3794,629
507	3801,886
507,5	3808,371
507,9	3822,743
508,4	3833,571
508,8	3831,057
509,3	3834,914
509,7	3841,571
510,2	3847,429
510,6	3849,943
511,1	3864,114
511,5	3869,086
512	3876,114
512,4	3872,886
512,9	3877,571
513,3	3882,429
513,8	3886,886
514,2	3884,314
514,7	3890,371
515,1	3890,971
515,6	3898,429
516	3905,143
516,5	3906,8
516,9	3913,457
517,4	3919
517,8	3925,371
518,3	3930,886
518,7	3935,314
519,2	3939,857
519,6	3946,486
520,1	3947,486
520,5	3952,286
521	3954,914
521,4	3958,857
521,9	3970,457
522,3	3979,743
522,8	3985,686
523,2	3995,314
523,7	3998,314
524,1	4006,829
524,6	4017,514
525	4024,286
525,5	4035,143
525,9	4040,343
526,4	4043,743
526,8	4045,114
527,3	4048,971
527,7	4056,771
528,2	4057
528,6	4057,314
529,1	4060,086
529,5	4071,257
530	4084,2
530,4	4089,686
530,9	4089,514
531,3	4095,343
531,8	4105,514
532,2	4114,829
532,6	4118,486
533,1	4113,657
533,5	4123,057
534	4131,343
534,4	4142,714
534,9	4152,343
535,3	4162,286
535,8	4169,657
536,2	4185,314
536,7	4185,029
537,1	4194,457
537,6	4204,743
538	4211,6
538,5	4219,714
538,9	4229,743
539,4	4236,2
539,8	4249,629
540,3	4258,343
540,7	4264,6
541,2	4268,2
541,6	4276,943
542,1	4289,686
542,5	4298,2
543	4307,314
543,4	4323,971
543,9	4325,057
544,3	4338,171
544,8	4344,343
545,2	4347,857
545,7	4358,971
546,1	4363,971
546,5	4363,857
547	4380,829
547,4	4387,457
547,9	4393,314
548,3	4400,4
548,8	4406,8
549,2	4422,8
549,7	4435,314
550,1	4443,857
550,6	4453,6
551	4467,343
551,5	4470,429
551,9	4481,857
552,4	4488,8
552,8	4495,8
553,3	4501,543
553,7	4502,771
554,2	4511,971
554,6	4526,686
555,1	4530,686
555,5	4535,143
555,9	4533,314
556,4	4540,257
556,8	4550,914
557,3	4553,086
557,7	4554,771
558,2	4563,057
558,6	4572,714
559,1	4582,029
559,5	4583
560	4590,486
560,4	4595,4
560,9	4603,4
561,3	4612,286
561,8	4618
562,2	4626
562,7	4640,771
563,1	4646,943
563,6	4656,629
564	4665,829
564,4	4667,086
564,9	4663,8
565,3	4669,714
565,8	4667,771
566,2	4669,714
566,7	4673,971
567,1	4681,343
567,6	4687,943
568	4694,743
568,5	4698,629
568,9	4700,857
569,4	4697,229
569,8	4692
570,3	4690,857
570,7	4682,543
571,1	4684,343
571,6	4680,829
572	4683,914
572,5	4686,143
572,9	4689,857
573,4	4686,343
573,8	4695,6
574,3	4693,943
574,7	4699,886
575,2	4696,286
575,6	4692,086
576,1	4684,057
576,5	4678,457
576,9	4675,6
577,4	4674,943
577,8	4672,2
578,3	4669
578,7	4669,743
579,2	4677,4
579,6	4678,6
580,1	4673,4
580,5	4669,571
581	4656,514
581,4	4653,4
581,9	4648,086
582,3	4632,714
582,7	4626,943
583,2	4613,886
583,6	4607,143
584,1	4598,371
584,5	4591,629
585	4585,914
585,4	4580,086
585,9	4578,457
586,3	4578,971
586,8	4568,114
587,2	4565,029
587,6	4555,086
588,1	4553,829
588,5	4551,629
589	4542,914
589,4	4532,686
589,9	4529,086
590,3	4523,743
590,8	4516,114
591,2	4502,029
591,7	4494,771
592,1	4481,743
592,5	4475,286
593	4463,4
593,4	4459,2
593,9	4452,657
594,3	4439,057
594,8	4428,343
595,2	4426,6
595,7	4419,486
596,1	4413,514
596,6	4401,286
597	4396,314
597,4	4389,029
597,9	4381,543
598,3	4366,229
598,8	4353,029
599,2	4346,829
599,7	4346,686
600,1	4337,886
600,6	4329,943
601	4323,514
601,4	4319,829
601,9	4315,286
602,3	4308,686
602,8	4294
603,2	4285,314
603,7	4284,971
604,1	4278,543
604,6	4258,457
605	4246,543
605,4	4232
605,9	4214,457
606,3	4202,943
606,8	4180,343
607,2	4162,4
607,7	4160,114
608,1	4143,229
608,6	4136,257
609	4129,257
609,4	4112,629
609,9	4102,457
610,3	4087,343
610,8	4077,057
611,2	4067,429
611,7	4050,314
612,1	4037,514
612,6	4028,686
613	4014,171
613,4	4002,771
613,9	3982,171
614,3	3967,914
614,8	3955,829
615,2	3933,943
615,7	3916,629
616,1	3907,886
616,6	3893,4
617	3878,429
617,4	3864,886
617,9	3847,886
618,3	3837,914
618,8	3821,543
619,2	3803,429
619,7	3787,886
620,1	3768,114
620,5	3755,2
621	3734,571
621,4	3716,943
621,9	3704,114
622,3	3691,514
622,8	3669,6
623,2	3654,886
623,6	3636,371
624,1	3629,714
624,5	3615,943
625	3593,286
625,4	3575,371
625,9	3559,743
626,3	3552,057
626,8	3539,314
627,2	3519,571
627,6	3499,8
628,1	3487,686
628,5	3469,829
629	3464,343
629,4	3442,171
629,9	3421,457
630,3	3402,314
630,7	3386,943
631,2	3366,8
631,6	3353,086
632,1	3322,6
632,5	3308,114
633	3286,371
633,4	3269,543
633,8	3245,457
634,3	3229,057
634,7	3211,029
635,2	3201,514
635,6	3184,829
636,1	3173,229
636,5	3154,229
636,9	3149,057
637,4	3135,114
637,8	3108,4
638,3	3082,629
638,7	3058,286
639,2	3037,114
639,6	3026,886
640	3005,114
640,5	2990,686
640,9	2988,171
641,4	2980,429
641,8	2971,629
642,2	2966,2
642,7	2952,943
643,1	2945,886
643,6	2926,971
644	2911,8
644,5	2901,943
644,9	2885,114
645,3	2862,771
645,8	2843,714
646,2	2822,714
646,7	2809,629
647,1	2796,571
647,6	2781,286
648	2762,914
648,4	2751,029
648,9	2735,714
649,3	2723,971
649,8	2715,029
650,2	2697,771
650,6	2684
651,1	2679,771
651,5	2667,771
652	2653,686
652,4	2635,771
652,9	2619,971
653,3	2610,057
653,7	2592,714
654,2	2575,886
654,6	2559,457
655,1	2544,114
655,5	2532
655,9	2519,514
656,4	2499,457
656,8	2479,571
657,3	2460,914
657,7	2441,114
658,2	2428,371
658,6	2409,971
659	2389,2
659,5	2371,086
659,9	2358,429
660,4	2351,086
660,8	2345,686
661,2	2328,257
661,7	2318,829
662,1	2304,714
662,6	2291,886
663	2278,629
663,4	2260,029
663,9	2239,971
664,3	2231,429
664,8	2216,486
665,2	2201,229
665,6	2190,229
666,1	2177,829
666,5	2161,514
667	2149,057
667,4	2131,971
667,9	2120,486
668,3	2109,457
668,7	2092,829
669,2	2077,2
669,6	2066,343
670,1	2050,771
670,5	2037
670,9	2026,371
671,4	2015,543
671,8	2004,686
672,3	1998,4
672,7	1982,4
673,1	1972,857
673,6	1958,971
674	1942,914
674,5	1929,257
674,9	1919,486
675,3	1903,629
675,8	1889,286
676,2	1878,6
676,7	1869,029
677,1	1853,543
677,5	1837,343
678	1826,8
678,4	1814,029
678,9	1806,971
679,3	1791,629
679,7	1780,714
680,2	1773,257
680,6	1759,314
681,1	1742,543
681,5	1732,686
681,9	1719,314
682,4	1711,429
682,8	1694,486
683,3	1678,343
683,7	1667,771
684,1	1657,514
684,6	1644,743
685	1640,086
685,5	1625,114
685,9	1620,429
686,3	1608,143
686,8	1602,343
687,2	1594,943
687,7	1584,143
688,1	1568,571
688,5	1557,971
689	1549,571
689,4	1545,371
689,9	1534,971
690,3	1523,571
690,7	1514,343
691,2	1506,143
691,6	1494
692	1477,714
692,5	1463,371
692,9	1450,286
693,4	1438,143
693,8	1431,057
694,2	1416,2
694,7	1411
695,1	1403,371
695,6	1396,486
696	1390,829
696,4	1382,143
696,9	1372,8
697,3	1365,514
697,8	1355,486
698,2	1347,571
698,6	1338,743
699,1	1329,4
699,5	1318,6
699,9	1307,057
700,4	1295,686
700,8	1288,829
701,3	1277,857
701,7	1266,429
702,1	1257,571
702,6	1252,914
703	1239,371
703,5	1236,514
703,9	1227,314
704,3	1218,514
704,8	1217,343
705,2	1207,714
705,6	1195,629
706,1	1197,429
706,5	1188,286
707	1180,914
707,4	1176,286
707,8	1166,314
708,3	1158,829
708,7	1151,771
709,2	1138,743
709,6	1138,4
710	1127,629
710,5	1117,086
710,9	1106,971
711,3	1101,143
711,8	1093,229
712,2	1088
712,7	1071,971
713,1	1064,686
713,5	1056,857
714	1055,143
714,4	1045,657
714,8	1041,229
715,3	1034,029
715,7	1026,771
716,2	1021,714
716,6	1018,371
717	1005,086
717,5	999,914
717,9	989,143
718,3	976,286
718,8	966,286
719,2	959,086
719,7	948,571
720,1	938,743
720,5	928,257
721	920,657
721,4	916,343
721,8	912,514
722,3	898,714
722,7	893,257
723,2	887,914
723,6	883,057
724	879,257
724,5	873,971
724,9	865,486
725,3	860,429
725,8	853,143
726,2	839,714
726,7	834,257
727,1	823
727,5	821,171
728	817,857
728,4	816,143
728,8	812,829
729,3	816,143
729,7	809,371
730,1	806,343
730,6	795,829
731	789,029
731,5	788,914
731,9	786,886
732,3	780,857
732,8	776,2
733,2	772,8
733,6	767,114
734,1	761,029
734,5	745,8
734,9	737,486
735,4	734,371
735,8	732,229
736,3	731,086
736,7	730,943
737,1	728,314
737,6	725,971
738	721,086
738,4	716,486
738,9	714,886
739,3	702,114
739,7	694,429
740,2	690,943
740,6	691
741,1	684,343
741,5	679,343
741,9	668,257
742,4	666,943
742,8	665,571
743,2	663,371
743,7	659,914
744,1	653,743
744,5	654,371
745	646,4
745,4	643,314
745,8	639,086
746,3	635,914
746,7	628,429
747,2	628,229
747,6	616,886
748	618,143
748,5	612,943
748,9	607,029
749,3	604,8
749,8	598,657
750,2	591,029
750,6	588,657
751,1	586,914
751,5	581,743
751,9	576,257
752,4	565,829
752,8	562,857
753,3	561,686
753,7	555,257
754,1	547,429
754,6	544,686
755	539,971
755,4	536,314
755,9	533,971
756,3	526,714
756,7	528,429
757,2	530,743
757,6	529,714
758	522,343
758,5	518,029
758,9	513,8
759,3	515,514
759,8	512,943
760,2	511,429
760,6	504,371
761,1	504,286
761,5	503,057
761,9	500,743
762,4	493,629
762,8	485,886
763,3	472,771
763,7	469,486
764,1	463,943
764,6	459,686
765	455,714
765,4	454,143
765,9	446,886
766,3	446,343
766,7	445,257
767,2	446
767,6	443,429
768	439,457
768,5	434,714
768,9	434,829
769,3	433,114
769,8	429,171
770,2	427,4
770,6	424,571
771,1	425,429
771,5	423,571
771,9	422
772,4	424,371
772,8	421,914
773,2	419,114
773,7	416,114
774,1	414,6
774,5	410,971
775	404,857
775,4	397,057
775,8	393,914
776,3	386,8
776,7	385,486
777,1	381,171
777,6	379,057
778	378,429
778,4	376,886
778,9	377,286
779,3	380,686
779,7	378,514
780,2	373,686
780,6	371,657
781	365,314
781,5	364,286
781,9	358,6
782,3	354,629
782,8	346,514
783,2	343,486
783,6	338,029
784,1	341,686
784,5	332,771
784,9	329,114
785,4	324,971
785,8	321,514
786,2	319,714
786,7	322,829
787,1	320,286
787,5	319,457
788	318,6
788,4	316,229
788,8	313,829
789,3	313,143
789,7	303,229
790,1	300,629
790,6	300,543
791	296,257
791,4	295
791,9	295,914
792,3	292
792,7	297,543
793,2	292,571
793,6	290,257
794	290,029
794,5	287,371
794,9	291,714
795,3	292,057
795,8	287
796,2	285,6
796,6	282,257
797,1	276,886
797,5	270,914
797,9	264,629
798,4	257,629
798,8	255,371
799,2	255,2
799,7	256,714
800,1	259,514
800,5	258,943
801	256,371
801,4	252,8
801,8	255,286
802,2	250,086
802,7	244,857
803,1	240,457
803,5	244,686
804	243,971
804,4	246,086
804,8	241,6
805,3	239,457
805,7	237,686
806,1	236
806,6	231,829
807	229,229
807,4	224,857
807,9	219,771
808,3	219,514
808,7	220,943
809,2	219,171
809,6	218,086
810	217,686
810,4	219,514
810,9	215,914
811,3	216,171
811,7	211,486
812,2	212,6
812,6	210,714
813	207,286
813,5	202,114
813,9	204,371
814,3	198,257
814,8	199,114
815,2	195,229
815,6	189,114
816,1	188,457
816,5	191,6
816,9	191,171
817,3	192,371
817,8	191,6
818,2	189,743
818,6	190,914
819,1	188,143
819,5	189,314
819,9	187,571
820,4	185,314
820,8	175,029
821,2	177,743
821,7	177,429
822,1	175
822,5	170,171
822,9	169,371
823,4	169,343
823,8	178,371
824,2	176,914
824,7	177,4
825,1	177
825,5	176,486
826	175,571
826,4	177,457
826,8	172,657
827,3	170,314
827,7	171,343
828,1	170,857
828,5	167,971
829	161,486
829,4	161,686
829,8	156,543
830,3	154,943
830,7	148,229
831,1	144,943
831,6	141,6
832	138,029
832,4	130,914
832,8	135,2
833,3	128,086
833,7	127,143
834,1	127,514
834,6	122,086
835	126,343
835,4	129,743
835,8	122,286
836,3	122,286
836,7	117,4
837,1	116,229
837,6	120,8
838	118,171
838,4	113,857
838,9	121,429
839,3	128,343
839,7	132,257
840,1	130,514
840,6	131,229
841	129,829
841,4	127,086
841,9	119,971
842,3	114,2
842,7	108,657
843,1	110,714
843,6	110,629
844	109,857
844,4	113,343
844,9	114,114
845,3	110,657
845,7	114,971
846,2	111,543
846,6	108,457
847	108,743
847,4	104,229
847,9	102,086
848,3	105,743
848,7	103,029
849,2	100,857
849,6	100,229
850	97,114
850,4	99,629
850,9	99,914
851,3	95,143
851,7	96,6
852,2	92,829
852,6	90,686
853	90,971
853,4	88,914
853,9	85
854,3	84,4
854,7	79,171
855,2	82,057
855,6	82,229
856	83,829
856,4	85,2
856,9	85,743
857,3	82,114
857,7	86,4
858,2	86,486
858,6	86,371
859	84,6
859,4	81,2
859,9	79,029
860,3	81,371
860,7	78,8
861,1	78,171
861,6	78,343
862	77,343
862,4	77,457
862,9	81,886
863,3	84,771
863,7	80,514
864,1	79,429
864,6	75,257
865	73,886
865,4	71,486
865,9	70,257
866,3	71,943
866,7	74,143
867,1	78,057
867,6	79,229
868	82,771
868,4	81,4
868,8	82,057
869,3	82,629
869,7	79,514
870,1	78,771
870,6	76,571
871	144,029
871,4	141,343
871,8	138,314
872,3	131,657
872,7	134,6
873,1	133,4
873,5	136,486
874	68,229
874,4	68,8
874,8	70,914
875,3	69,6
875,7	67,4
876,1	64,486
876,5	66,857
877	64,257
877,4	67,2
877,8	68,629
878,2	69,286
878,7	72,114
879,1	73,886
879,5	70,057
879,9	69,714
880,4	66,971
880,8	60,229
881,2	61,771
881,7	62,543
882,1	61,457
882,5	59,543
882,9	57,229
883,4	60,543
883,8	62,829
884,2	58,743
884,6	56,657
885,1	60,229
885,5	61,914
885,9	66,229
886,3	67,886
886,8	63,543
887,2	62,771
887,6	60,114
888	52,086
888,5	54,371
888,9	53,571
889,3	44,429
889,8	48,486
890,2	49,457
890,6	49,486
891	51,829
891,5	49,629
891,9	49,971
892,3	53,829
892,7	51,371
893,2	51,971
893,6	53,057
894	52,229
894,4	48,743
894,9	46,514
895,3	44,686
895,7	43,314
896,1	44,714
896,6	43,229
897	43,8
897,4	38,971
897,8	34,286
898,3	40,6
898,7	37,771
899,1	34,629
899,5	30,829
900	29,4
900,4	34,457
900,8	37,514
901,2	34,2
901,7	37,2
902,1	38,771
902,5	42
902,9	43,086
903,4	50,171
903,8	45,571
904,2	47,171
904,6	46,086
905,1	49,2
905,5	46,314
905,9	43,971
906,3	34,457
906,8	38,8
907,2	32,6
907,6	37,914
908	33,886
908,5	35,171
908,9	37,6
909,3	36,657
909,7	34,543
910,2	37,429
910,6	34,514
911	33,943
911,4	35,943
911,9	33,857
912,3	36,457
912,7	36,714
913,1	28,143
913,6	29,514
914	32,429
914,4	29,714
914,8	34,229
915,3	31,2
915,7	28,029
916,1	33,943
916,5	30,8
916,9	29,2
917,4	31,114
917,8	24,714
918,2	26,343
918,6	27,4
919,1	29,029
919,5	30,143
919,9	31,514
920,3	31,257
920,8	33,514
921,2	37,6
921,6	39,686
922	35,629
922,5	33,571
922,9	28,314
923,3	30,229
923,7	26,857
924,2	19,8
924,6	19,171
925	22,371
925,4	22,286
925,8	23,771
926,3	24,686
926,7	23,971
927,1	32,4
927,5	31,886
928	27,2
928,4	27,486
928,8	30,657
929,2	26,257
929,7	27,657
930,1	23,6
930,5	20,686
930,9	27,171
931,3	28,686
931,8	29,543
932,2	26,771
932,6	29,057
933	24,8
933,5	27,771
933,9	24,543
934,3	22,657
934,7	19,886
935,2	24,429
935,6	24,229
936	26,886
936,4	24,457
936,8	23,543
937,3	24,8
937,7	24,886
938,1	21,629
938,5	21,229
939	24,543
939,4	27,286
939,8	27,714
940,2	23,829
940,6	21,429
941,1	22,2
941,5	21,857
941,9	21,314
942,3	17,914
942,8	21,371
943,2	20,629
943,6	22,6
944	21,4
944,4	17,114
944,9	13,886
945,3	17,629
945,7	17
946,1	17,971
946,6	16,829
947	18,371
947,4	19,057
947,8	19,229
948,2	14,514
948,7	14,029
949,1	11,829
949,5	10,971
949,9	14,057
950,3	14,486
950,8	11,857
951,2	15,343
951,6	17,257
952	17,657
952,5	19,571
952,9	17,514
953,3	14,8
953,7	19,6
954,1	17,743
954,6	18,857
955	19,829
955,4	18,543
955,8	18,086
956,2	20
956,7	19,171
957,1	20,057
957,5	13,029
957,9	13,486
958,3	18
958,8	16,543
959,2	19,314
959,6	16,514
960	14,914
960,5	15,771
960,9	14,686
961,3	11,486
961,7	10,2
962,1	7,857
962,6	7,8
963	8,029
963,4	7,4
963,8	10,6
964,2	7,829
964,7	8,257
965,1	9,571
965,5	10,714
965,9	13,057
966,3	14,257
966,8	13,343
967,2	17,171
967,6	15,657
968	15,171
968,4	17,2
968,9	18,457
969,3	15,886
969,7	11,857
970,1	8,514
970,5	15,286
971	14,457
971,4	12,743
971,8	14,829
972,2	17,743
972,6	20,971
973,1	20,914
973,5	18,514
973,9	19,4
974,3	16,143
974,7	9,543
975,2	11,171
975,6	7,571
976	9,486
976,4	7,6
976,8	6,257
977,3	7,971
977,7	9,457
978,1	2,257
978,5	7,143
978,9	7,943
979,4	5,343
979,8	7,743
980,2	3,114
980,6	2,514
981	7,257
981,5	7,829
981,9	3,486
982,3	1,429
982,7	0,714
983,1	6,8
983,6	8,857
984	10,857
984,4	8,829
984,8	8,543
985,2	11,971
985,6	10,057
986,1	5,771
986,5	-0,571
986,9	-0,829
987,3	-3,514
987,7	-1,6
988,2	3,029
988,6	3,429
989	8,771
989,4	15,657
989,8	12,657
990,3	16,714
990,7	16,143
991,1	9,743
991,5	13,914
991,9	14,8
992,3	15,114
992,8	19,686
993,2	21,543
993,6	21,629
994	21,2
994,4	18,086
994,9	18,4
995,3	18,543
995,7	13,314
996,1	10,429
996,5	11,714
996,9	15,543
997,4	17,657
997,8	14,029
998,2	14,6
998,6	20,686
999	20,943
999,5	20,686
999,9	19,743
1000,3	15,6
1000,7	15,857
1001,1	11,114
1001,5	4,114
1002	4,029
1002,4	4,343
1002,8	7,6
1003,2	10,314
1003,6	12,057
1004	13,657
1004,5	13,343
1004,9	7,886
1005,3	4,143
1005,7	-1,8
1006,1	-5,486
1006,6	-9,229
1007	-8,257
1007,4	-4,571
1007,8	-1,657
1008,2	-0,914
1008,6	-0,743
1009,1	0,629
1009,5	10,886
1009,9	14,743
1010,3	19,229
1010,7	26,114
1011,1	33,457
1011,6	32,143
1012	33,8
1012,4	28,8
1012,8	20,686
1013,2	16,343
1013,6	12,771
1014,1	9,257
1014,5	11,314
1014,9	12,514
1015,3	10,743
1015,7	14,6
1016,1	14,6
1016,6	13,057
1017	14,4
1017,4	13,257
1017,8	13,286
1018,2	10,486
1018,6	16,514
1019,1	13,057
1019,5	18,743
1019,9	20,171
1020,3	23,343
1020,7	20,6
1021,1	21,114
1021,6	12,029
1022	13,771
1022,4	17,171
1022,8	13,286
1023,2	12,943
1023,6	11,743
1024,1	14,771
1024,5	18,229
1024,9	23,457
1025,3	18,714
1025,7	17,086
1026,1	20
1026,6	24,771
1027	21,171
1027,4	21,6
1027,8	17,2
1028,2	14,714
1028,6	18,343
1029	11,343
1029,5	9,971
1029,9	12,2
1030,3	17,914
1030,7	16,2
1031,1	11,143
1031,5	3,514
1032	9,229
1032,4	5,029
1032,8	5,486
1033,2	-2,486
1033,6	-0,257
1034	4,2
1034,4	13,2
1034,9	9,086
1035,3	16,229
1035,7	19,857
1036,1	23,686
1036,5	21,6
1036,9	18,6
1037,4	18,829
1037,8	18,029
1038,2	10,086
1038,6	2,429
1039	2,486
1039,4	1,343
1039,8	0,8
1040,3	-3,4
1040,7	-7,514
1041,1	-0,029
1041,5	0,829
1041,9	-1,829
1042,3	-1
1042,7	0,286
1043,2	-1,2
1043,6	8,371
1044	2,657
1044,4	2,171
1044,8	-0,086
1045,2	5,714
1045,6	8,029
1046,1	14,2
1046,5	19,086
1046,9	25,229
1047,3	28,743
1047,7	32,714
1048,1	29,686
1048,5	30,114
1049	26,4
1049,4	13,6
1049,8	9,657
1050,2	11,771
1050,6	9,829
1051	9,171
1051,4	7,8
1051,9	12,943
1052,3	13,886
1052,7	12,857
1053,1	10
1053,5	10,914
1053,9	8,057
1054,3	4,114
1054,8	5,257
1055,2	11,486
1055,6	13,229
1056	12,457
1056,4	14,8
1056,8	17,286
1057,2	26,086
1057,6	21,629
1058,1	19,143
1058,5	18,543
1058,9	18,057
1059,3	15,771
1059,7	13,257
1060,1	6,829
1060,5	2,286
1061	1,571
1061,4	5,171
1061,8	4,543
1062,2	2,629
1062,6	3,914
1063	6,657
1063,4	12
1063,8	13,8
1064,3	11,429
1064,7	11,6
1065,1	12,2
1065,5	15,486
1065,9	16,914
1066,3	10,771
1066,7	9,886
1067,1	7,029
1067,6	11,029
1068	10,686
1068,4	9,314
1068,8	6,343
1069,2	9
1069,6	10
1070	11,6
1070,4	9,429
1070,9	7,743
1071,3	10,057
1071,7	10,457
1072,1	12,629
1072,5	12,743
1072,9	12,743
1073,3	13,429
1073,7	13,971
1074,2	14,857
1074,6	12,114
1075	10,086
1075,4	9,143
1075,8	9,857
1076,2	10,257
1076,6	9,2
1077	3,6
1077,5	11,2
1077,9	11
1078,3	11,857
1078,7	9,771
1079,1	10,829
1079,5	13,343
1079,9	16,829
1080,3	14
1080,7	15,686
1081,2	15,029
1081,6	17,857
1082	15,143
1082,4	12,086
1082,8	10
1083,2	4,143
1083,6	4,971
1084	3,2
1084,5	-3,114
1084,9	-5,314
1085,3	-0,086
1085,7	-1,771
1086,1	-1,971
1086,5	3,457
1086,9	6,286
1087,3	12,229
1087,7	20,057
1088,2	17,229
1088,6	18,4
1089	19,857
1089,4	11,714
1089,8	12,743
1090,2	14,571
1090,6	9,486
1091	12,571
1091,4	13,657
1091,9	16,971
1092,3	18,086
1092,7	14,714
1093,1	12,914
1093,5	8,571
1093,9	6,457
1094,3	5,371
1094,7	5,286
1095,1	2,514
1095,5	4
1096	-3,943
1096,4	1,029
1096,8	-3,486
1097,2	-3,857
1097,6	-6,686
1098	-1,543
1098,4	-3,629
1098,8	2,457
1099,2	2,371
1099,6	7,543
1100,1	12,886
1100,5	16,229
1100,9	14,143
1101,3	15,8
1101,7	19,029
1102,1	16,657
1102,5	14,771
1102,9	6,314
1103,3	5,229
1103,7	4,714
1104,2	8,286
1104,6	6,314
1105	5,886
1105,4	5,6
1105,8	9,714
1106,2	8,629
1106,6	6,514
1107	1,171
1107,4	-1,3
1107,8	-0,76
1108,3	0,15
