Data from Subt2_192.txt Node
Date: Sat Aug 26 18:42:53 MSK 2023
User: vat
Spectrometer: MAYP114033
Trigger mode: 0
Integration Time (sec): 1,000000E0
Scans to average: 5
Electric dark correction enabled: true
Nonlinearity correction enabled: false
Boxcar width: 3
XAxis mode: Wavelengths
Number of Pixels in Spectrum: 2068
>>>>>Begin Spectral Data<<<<<
199,4	-0,267
199,9	2,673
200,4	0,1
200,8	1,49
201,3	-1,567
201,8	0,462
202,2	-0,081
202,7	6,405
203,2	3,062
203,6	3,433
204,1	-2,881
204,6	0,948
205	1,462
205,5	0,633
206	-5,31
206,4	-2,624
206,9	-2,881
207,4	2,49
207,8	2,348
208,3	-2,11
208,8	-2,252
209,2	-0,567
209,7	1,662
210,2	3,919
210,6	5,719
211,1	5,605
211,5	2,662
212	4,833
212,5	2,462
212,9	-2,71
213,4	0,033
213,9	-2,51
214,3	-1,395
214,8	5,348
215,3	3,205
215,7	8,29
216,2	8,519
216,7	6,233
217,1	4,462
217,6	4,805
218,1	6,89
218,5	4,548
219	-3,024
219,5	-0,795
219,9	-4,881
220,4	3,319
220,9	1,576
221,3	-4,795
221,8	-0,11
222,3	4,262
222,7	6,148
223,2	10,662
223,6	5,176
224,1	4,805
224,6	5,376
225	4,148
225,5	-1,652
226	-4,681
226,4	-4,567
226,9	-3,024
227,4	-1,767
227,8	-5,167
228,3	-4,395
228,8	0,376
229,2	0,89
229,7	-0,052
230,2	-0,824
230,6	-2,452
231,1	4,833
231,5	3,948
232	1,948
232,5	2,548
232,9	4,662
233,4	2,748
233,9	3,976
234,3	2,748
234,8	3,233
235,3	1,148
235,7	2,719
236,2	0,005
236,7	1,833
237,1	2,919
237,6	0,462
238,1	-2,11
238,5	-2,195
239	-3,052
239,4	2,262
239,9	2,49
240,4	3,748
240,8	8,405
241,3	9,09
241,8	11,862
242,2	8,49
242,7	1,262
243,2	0,633
243,6	-4,824
244,1	-1,995
244,6	0,233
245	-1,195
245,5	1,633
245,9	-0,395
246,4	0,148
246,9	2,319
247,3	-2,51
247,8	-1,052
248,3	5,919
248,7	5,062
249,2	11,033
249,7	11,148
250,1	10,09
250,6	10,29
251	6,748
251,5	1,862
252	0,548
252,4	0,319
252,9	-3,967
253,4	-4,538
253,8	-5,281
254,3	-0,052
254,8	-2,395
255,2	-1,338
255,7	-3,367
256,1	1,405
256,6	3,519
257,1	2,148
257,5	-1,338
258	1,205
258,5	2,233
258,9	2,09
259,4	0,462
259,9	-0,624
260,3	-1,224
260,8	-5,51
261,2	-5,624
261,7	-3,538
262,2	-6,11
262,6	-9,624
263,1	-5,852
263,6	2,033
264	4,062
264,5	6,605
264,9	1,576
265,4	8,605
265,9	9,148
266,3	11,748
266,8	8,148
267,3	9,405
267,7	6,348
268,2	9,148
268,7	8,09
269,1	9,033
269,6	1,176
270	2,719
270,5	2,119
271	0,662
271,4	2,376
271,9	-4,138
272,4	1,519
272,8	3,176
273,3	-1,967
273,7	1,148
274,2	2,09
274,7	-3,452
275,1	-0,424
275,6	-4,51
276,1	-8,538
276,5	-6,481
277	-6,081
277,4	-5,281
277,9	-1,938
278,4	-0,538
278,8	1,976
279,3	6,976
279,8	5,776
280,2	3,833
280,7	7,548
281,1	5,576
281,6	5,805
282,1	4,205
282,5	4,776
283	4,633
283,4	4,176
283,9	3,662
284,4	9,005
284,8	7,005
285,3	5,548
285,8	4,49
286,2	5,405
286,7	1,233
287,1	1,09
287,6	-2,452
288,1	-4,024
288,5	-1,138
289	0,49
289,5	1,49
289,9	5,719
290,4	4,748
290,8	5,148
291,3	6,862
291,8	12,662
292,2	12,176
292,7	16,033
293,1	15,09
293,6	13,148
294,1	12,09
294,5	11,433
295	4,376
295,5	3,29
295,9	2,29
296,4	1,776
296,8	1,576
297,3	2,405
297,8	2,233
298,2	-2,367
298,7	-1,281
299,1	-2,052
299,6	-0,567
300,1	0,319
300,5	4,833
301	6,805
301,5	15,833
301,9	14,576
302,4	10,662
302,8	11,262
303,3	10,776
303,8	4,433
304,2	4,69
304,7	-0,367
305,1	-1,681
305,6	1,033
306,1	4,433
306,5	3,405
307	7,976
307,4	9,319
307,9	10,805
308,4	12,776
308,8	4,233
309,3	-0,681
309,8	-0,195
310,2	-1,367
310,7	-5,681
311,1	-2,938
311,6	-1,824
312,1	6,033
312,5	11,348
313	16,119
313,4	14,89
313,9	16,205
314,4	12,005
314,8	7,376
315,3	4,948
315,7	-1,738
316,2	-6,881
316,7	-8,652
317,1	-5,71
317,6	-4,338
318	1,405
318,5	3,49
319	3,948
319,4	6,862
319,9	13,862
320,3	10,805
320,8	9,605
321,3	10,976
321,7	9,919
322,2	13,548
322,6	16,519
323,1	10,976
323,6	14,576
324	13,89
324,5	8,748
324,9	9,719
325,4	9,662
325,9	5,433
326,3	6,833
326,8	4,833
327,2	3,49
327,7	2,548
328,2	2,433
328,6	0,262
329,1	-3,881
329,5	-6,452
330	-9,395
330,5	-4,281
330,9	1,89
331,4	0,719
331,8	0,005
332,3	8,148
332,8	7,376
333,2	9,948
333,7	4,719
334,1	2,09
334,6	0,69
335,1	-0,052
335,5	-2,195
336	-2,195
336,4	1,119
336,9	7,462
337,4	10,833
337,8	8,976
338,3	7,29
338,7	7,205
339,2	9,605
339,7	6,233
340,1	1,633
340,6	-1,452
341	-2,281
341,5	1,548
342	-2,167
342,4	-4,538
342,9	-4,052
343,3	-4,224
343,8	-6,338
344,2	-2,481
344,7	1,862
345,2	2,462
345,6	5,148
346,1	8,176
346,5	7,376
347	6,948
347,5	9,519
347,9	8,748
348,4	12,262
348,8	13,519
349,3	12,462
349,8	14,005
350,2	20,433
350,7	17,976
351,1	18,69
351,6	19,376
352	19,805
352,5	21,548
353	33,833
353,4	39,262
353,9	52,662
354,3	63,719
354,8	77,433
355,3	103,005
355,7	127,262
356,2	147,776
356,6	174,69
357,1	207,376
357,5	245,233
358	291,119
358,5	331,576
358,9	386,748
359,4	442,405
359,8	506,748
360,3	584,719
360,8	669,119
361,2	759,89
361,7	864,519
362,1	978,376
362,6	1105,49
363	1243,233
363,5	1380,376
364	1532,262
364,4	1689,348
364,9	1851,748
365,3	2004,89
365,8	2152,29
366,3	2288,576
366,7	2419,433
367,2	2531,633
367,6	2619,633
368,1	2684,633
368,5	2730,605
369	2758,548
369,5	2761,919
369,9	2745,148
370,4	2696,633
370,8	2643,348
371,3	2569,09
371,7	2485,776
372,2	2379,433
372,7	2275,605
373,1	2153,433
373,6	2033,89
374	1908,09
374,5	1777,09
374,9	1651,148
375,4	1535,29
375,9	1413,062
376,3	1300,776
376,8	1193,09
377,2	1096,833
377,7	1012,376
378,2	921,09
378,6	840,09
379,1	770,576
379,5	712,348
380	659,548
380,4	601,319
380,9	549,662
381,4	507,376
381,8	471,948
382,3	442,033
382,7	406,633
383,2	374,462
383,6	346,262
384,1	327,548
384,6	307,605
385	285,862
385,5	259,548
385,9	235,776
386,4	221,348
386,8	207,148
387,3	187,919
387,7	174,09
388,2	161,805
388,7	150,405
389,1	143,748
389,6	131,633
390	122,005
390,5	117,519
390,9	109,833
391,4	101,405
391,9	96,148
392,3	89,348
392,8	84,719
393,2	74,948
393,7	67,633
394,1	62,776
394,6	60,205
395,1	57,319
395,5	52,633
396	50,633
396,4	55,548
396,9	52,176
397,3	59,033
397,8	57,462
398,2	55,319
398,7	59,005
399,2	59,919
399,6	56,69
400,1	55,09
400,5	46,005
401	43,633
401,4	38,519
401,9	36,776
402,4	37,148
402,8	34,376
403,3	37,005
403,7	34,833
404,2	38,205
404,6	41,805
405,1	42,405
405,5	41,319
406	46,633
406,5	41,519
406,9	49,148
407,4	52,49
407,8	61,233
408,3	62,262
408,7	59,662
409,2	62,748
409,6	72,69
410,1	73,548
410,6	77,119
411	77,062
411,5	83,176
411,9	91,376
412,4	95,119
412,8	100,319
413,3	104,748
413,7	110,262
414,2	114,176
414,7	122,776
415,1	134,805
415,6	143,662
416	151,776
416,5	160,433
416,9	168,376
417,4	181,805
417,8	193,948
418,3	203,919
418,8	217,462
419,2	228,348
419,7	236,948
420,1	247,319
420,6	251,176
421	257,462
421,5	268,376
421,9	279,748
422,4	295,576
422,8	309,119
423,3	321,176
423,8	334,605
424,2	349,09
424,7	363,033
425,1	376,519
425,6	388,148
426	403,519
426,5	423,719
426,9	451,519
427,4	472,29
427,9	490,805
428,3	519,262
428,8	541,205
429,2	568,948
429,7	595,919
430,1	619,29
430,6	647,862
431	680,033
431,5	705,633
431,9	735,948
432,4	773,976
432,8	808,862
433,3	847,662
433,8	884,119
434,2	925,862
434,7	973,462
435,1	1020,605
435,6	1064,033
436	1107,805
436,5	1159,29
436,9	1212,605
437,4	1262,89
437,8	1314,148
438,3	1370,948
438,8	1426,833
439,2	1492,605
439,7	1556,605
440,1	1627,033
440,6	1698,576
441	1767,148
441,5	1848,29
441,9	1927,376
442,4	2005,09
442,8	2091,519
443,3	2180,548
443,7	2268,005
444,2	2363,348
444,7	2452,119
445,1	2547,776
445,6	2647,462
446	2748,405
446,5	2840,833
446,9	2941,833
447,4	3044,405
447,8	3153,405
448,3	3274,89
448,7	3390,09
449,2	3503,548
449,6	3627,119
450,1	3753,862
450,6	3885,062
451	4006,348
451,5	4132,119
451,9	4265,233
452,4	4409,319
452,8	4549,719
453,3	4690,376
453,7	4833,49
454,2	4987,89
454,6	5143,662
455,1	5294,862
455,5	5434,462
456	5584,919
456,4	5734,148
456,9	5888,519
457,3	6045,719
457,8	6196,262
458,3	6355,976
458,7	6517,805
459,2	6680,976
459,6	6852,89
460,1	7015,805
460,5	7180,948
461	7349,633
461,4	7516,662
461,9	7686,09
462,3	7863,433
462,8	8032,29
463,2	8200,776
463,7	8379,662
464,1	8553,233
464,6	8726,519
465	8903,376
465,5	9066,348
466	9240,919
466,4	9417,605
466,9	9582,948
467,3	9752,376
467,8	9931,148
468,2	10106,176
468,7	10282,548
469,1	10455,233
469,6	10625,119
470	10789,69
470,5	10953,548
470,9	11109,976
471,4	11262,976
471,8	11410,348
472,3	11563,719
472,7	11717,776
473,2	11868,833
473,6	12002,833
474,1	12157,062
474,5	12295,262
475	12439,805
475,4	12579,29
475,9	12706,833
476,4	12837,148
476,8	12976,576
477,3	13085,576
477,7	13225,719
478,2	13338,176
478,6	13438,719
479,1	13539,805
479,5	13632,405
480	13726,805
480,4	13822,805
480,9	13891,576
481,3	13978,376
481,8	14067,719
482,2	14146,033
482,7	14225,319
483,1	14298,49
483,6	14362,748
484	14428,805
484,5	14479,69
484,9	14527,862
485,4	14578,633
485,8	14622,576
486,3	14657,005
486,7	14681,49
487,2	14702,519
487,6	14735,233
488,1	14742,662
488,5	14745,262
489	14756,119
489,4	14767,319
489,9	14767,09
490,4	14759,948
490,8	14740,833
491,3	14731,348
491,7	14719,348
492,2	14692,033
492,6	14653,519
493,1	14616,376
493,5	14570,719
494	14534,776
494,4	14494,319
494,9	14448,862
495,3	14397,776
495,8	14349,319
496,2	14310,862
496,7	14265,262
497,1	14212,348
497,6	14159,576
498	14096,233
498,5	14039,033
498,9	13970,119
499,4	13902,49
499,8	13838,519
500,3	13762,576
500,7	13675,462
501,2	13598,405
501,6	13506,433
502,1	13429,405
502,5	13345,776
503	13257,319
503,4	13167,748
503,9	13089,405
504,3	13000,348
504,8	12920,49
505,2	12831,29
505,7	12728,462
506,1	12644,748
506,6	12553,49
507	12448,262
507,5	12360,033
507,9	12264,919
508,4	12165,49
508,8	12071,519
509,3	11953,805
509,7	11849,519
510,2	11742,89
510,6	11635,862
511,1	11529,662
511,5	11416,148
512	11304,576
512,4	11208,262
512,9	11098,462
513,3	10995,348
513,8	10880,69
514,2	10767,49
514,7	10659,719
515,1	10554,833
515,6	10440,719
516	10327,348
516,5	10218,348
516,9	10117,719
517,4	10020,062
517,8	9916,176
518,3	9808,576
518,7	9701,89
519,2	9605,433
519,6	9510,319
520,1	9396,319
520,5	9287,348
521	9185,662
521,4	9085,176
521,9	8990,919
522,3	8884,633
522,8	8771,748
523,2	8677,948
523,7	8581,176
524,1	8480,805
524,6	8383,833
525	8290,005
525,5	8206,605
525,9	8125,29
526,4	8032,776
526,8	7951,062
527,3	7865,633
527,7	7785,748
528,2	7689,976
528,6	7595,69
529,1	7503,548
529,5	7417,69
530	7319,09
530,4	7241,605
530,9	7151,205
531,3	7076,976
531,8	6998,776
532,2	6916,719
532,6	6840,462
533,1	6765,719
533,5	6685,605
534	6615,833
534,4	6540,405
534,9	6466,748
535,3	6392,519
535,8	6318,433
536,2	6251,89
536,7	6182,976
537,1	6113,748
537,6	6046,233
538	5987,148
538,5	5933,69
538,9	5865,119
539,4	5797,719
539,8	5726,69
540,3	5663,748
540,7	5599,29
541,2	5533,748
541,6	5471,719
542,1	5421,176
542,5	5358,548
543	5309,948
543,4	5247,49
543,9	5192,348
544,3	5136,29
544,8	5075,748
545,2	5021,005
545,7	4980,605
546,1	4927,633
546,5	4883,976
547	4836,348
547,4	4792,805
547,9	4744,69
548,3	4700,862
548,8	4649,862
549,2	4609,176
549,7	4565,948
550,1	4522,119
550,6	4469,033
551	4428,405
551,5	4386,376
551,9	4344,833
552,4	4304,033
552,8	4260,49
553,3	4223,405
553,7	4187,033
554,2	4150,948
554,6	4113,662
555,1	4078,633
555,5	4035,89
555,9	4003,233
556,4	3961,605
556,8	3932,405
557,3	3900,233
557,7	3867,748
558,2	3826,519
558,6	3796,319
559,1	3762,719
559,5	3737,205
560	3706,062
560,4	3670,548
560,9	3638,29
561,3	3610,633
561,8	3578,69
562,2	3550,062
562,7	3518,005
563,1	3490,405
563,6	3462,119
564	3439,148
564,4	3418,662
564,9	3392,233
565,3	3362,89
565,8	3335,776
566,2	3310,005
566,7	3287,976
567,1	3264,548
567,6	3235,119
568	3212,576
568,5	3184,605
568,9	3162,319
569,4	3130,176
569,8	3109,433
570,3	3079,405
570,7	3053,176
571,1	3031,319
571,6	3013,948
572	2995,119
572,5	2976,919
572,9	2951,49
573,4	2929,633
573,8	2912,205
574,3	2888,919
574,7	2865,405
575,2	2838,548
575,6	2819,09
576,1	2800,976
576,5	2785,176
576,9	2767,605
577,4	2746,033
577,8	2729,748
578,3	2719,176
578,7	2694,748
579,2	2680,176
579,6	2653,805
580,1	2629,262
580,5	2611,09
581	2596,948
581,4	2573,462
581,9	2560,576
582,3	2541,319
582,7	2524,062
583,2	2507,662
583,6	2489,948
584,1	2466,805
584,5	2446,205
585	2429,519
585,4	2407,033
585,9	2393,433
586,3	2385,433
586,8	2373,405
587,2	2360,976
587,6	2352,319
588,1	2338,605
588,5	2322,89
589	2310,205
589,4	2285,576
589,9	2271,576
590,3	2256,119
590,8	2234,519
591,2	2218,948
591,7	2208,405
592,1	2190,548
592,5	2186,719
593	2171,805
593,4	2155,148
593,9	2143,89
594,3	2127,719
594,8	2114,176
595,2	2104,233
595,7	2092,633
596,1	2079,605
596,6	2070,176
597	2058,89
597,4	2055,548
597,9	2042,576
598,3	2038,062
598,8	2020,005
599,2	2010,09
599,7	1999,033
600,1	1988,976
600,6	1970,033
601	1963,09
601,4	1951,205
601,9	1950,09
602,3	1941,29
602,8	1931,462
603,2	1918,148
603,7	1909,433
604,1	1899,948
604,6	1882,405
605	1861,719
605,4	1852,605
605,9	1837,348
606,3	1827,548
606,8	1817,976
607,2	1799,662
607,7	1788,976
608,1	1783,662
608,6	1767,89
609	1766,719
609,4	1761,005
609,9	1749,49
610,3	1743,033
610,8	1730,405
611,2	1713,948
611,7	1705,862
612,1	1682,29
612,6	1670,833
613	1668,805
613,4	1660,433
613,9	1654,119
614,3	1647,119
614,8	1637,976
615,2	1634,405
615,7	1625,805
616,1	1614,948
616,6	1601,205
617	1593,462
617,4	1584,833
617,9	1579,976
618,3	1573,862
618,8	1565,748
619,2	1551,662
619,7	1547,776
620,1	1539,548
620,5	1536,348
621	1517,833
621,4	1506,719
621,9	1493,776
622,3	1487,033
622,8	1477,405
623,2	1465,09
623,6	1446,976
624,1	1441,376
624,5	1431,776
625	1431,433
625,4	1418,89
625,9	1406,69
626,3	1398,205
626,8	1390,319
627,2	1383,976
627,6	1372,262
628,1	1351,833
628,5	1346,519
629	1338,148
629,4	1332,976
629,9	1319,462
630,3	1303,89
630,7	1297,176
631,2	1294,062
631,6	1284,633
632,1	1277,862
632,5	1265,033
633	1264,49
633,4	1259,062
633,8	1248,805
634,3	1236,29
634,7	1228,605
635,2	1217,205
635,6	1211,29
636,1	1197,062
636,5	1184,719
636,9	1177,405
637,4	1172,433
637,8	1163,862
638,3	1152,805
638,7	1143,976
639,2	1137,805
639,6	1135,519
640	1128,462
640,5	1119,748
640,9	1110,148
641,4	1110,462
641,8	1100,576
642,2	1097,548
642,7	1088,462
643,1	1088,862
643,6	1080,776
644	1076,748
644,5	1072,719
644,9	1069,69
645,3	1059,119
645,8	1051,462
646,2	1044,176
646,7	1042,548
647,1	1031,005
647,6	1021,176
648	1017,919
648,4	1013,376
648,9	1011,319
649,3	1000,919
649,8	993,005
650,2	990,833
650,6	985,319
651,1	976,348
651,5	971,576
652	963,319
652,4	956,433
652,9	950,205
653,3	943,462
653,7	933,919
654,2	929,148
654,6	925,233
655,1	924,29
655,5	925,148
655,9	917,776
656,4	913,405
656,8	905,176
657,3	898,605
657,7	889,662
658,2	880,176
658,6	868,262
659	863,519
659,5	851,69
659,9	846,948
660,4	844,776
660,8	838,462
661,2	828,062
661,7	824,776
662,1	820,005
662,6	816,49
663	815,519
663,4	807,519
663,9	803,062
664,3	802,605
664,8	793,033
665,2	786,605
665,6	782,633
666,1	775,976
666,5	772,89
667	766,948
667,4	761,69
667,9	758,262
668,3	752,262
668,7	742,176
669,2	740,119
669,6	728,862
670,1	725,633
670,5	718,09
670,9	713,148
671,4	708,605
671,8	705,976
672,3	702,29
672,7	701,005
673,1	693,519
673,6	688,89
674	683,405
674,5	679,376
674,9	674,005
675,3	664,319
675,8	660,605
676,2	656,348
676,7	653,49
677,1	648,776
677,5	635,89
678	639,119
678,4	637,519
678,9	630,719
679,3	623,09
679,7	618,29
680,2	609,662
680,6	611,033
681,1	601,862
681,5	594,719
681,9	592,662
682,4	594,719
682,8	591,49
683,3	595,319
683,7	591,719
684,1	589,776
684,6	584,233
685	575,576
685,5	566,976
685,9	560,348
686,3	549,976
686,8	547,405
687,2	543,919
687,7	537,662
688,1	528,662
688,5	527,919
689	525,662
689,4	521,49
689,9	516,862
690,3	510,576
690,7	511,233
691,2	517,462
691,6	512,605
692	508,719
692,5	508,148
692,9	504,29
693,4	499,233
693,8	493,833
694,2	485,462
694,7	483,176
695,1	479,948
695,6	478,376
696	473,948
696,4	471,033
696,9	466,49
697,3	463,262
697,8	459,748
698,2	450,233
698,6	448,319
699,1	446,433
699,5	447,776
699,9	443,348
700,4	436,548
700,8	438,662
701,3	436,919
701,7	432,576
702,1	427,948
702,6	421,033
703	427,033
703,5	424,319
703,9	411,662
704,3	412,862
704,8	407,176
705,2	405,576
705,6	403,09
706,1	394,69
706,5	398,49
707	400,205
707,4	400,805
707,8	396,776
708,3	391,805
708,7	390,348
709,2	386,033
709,6	379,262
710	378,605
710,5	372,633
710,9	373,548
711,3	370,233
711,8	367,348
712,2	363,89
712,7	360,119
713,1	355,433
713,5	359,062
714	356,519
714,4	356,576
714,8	352,719
715,3	353,033
715,7	353,319
716,2	346,548
716,6	339,49
717	333,69
717,5	329,576
717,9	331,033
718,3	326,462
718,8	322,176
719,2	322,576
719,7	319,233
720,1	318,605
720,5	319,833
721	312,205
721,4	311,776
721,8	314,405
722,3	306,062
722,7	306,462
723,2	298,348
723,6	287,09
724	284,376
724,5	279,948
724,9	273,348
725,3	276,233
725,8	269,005
726,2	275,262
726,7	276,719
727,1	275,548
727,5	276,433
728	272,976
728,4	273,576
728,8	270,633
729,3	264,576
729,7	263,719
730,1	265,09
730,6	263,662
731	262,319
731,5	259,119
731,9	256,233
732,3	255,748
732,8	258,29
733,2	254,033
733,6	247,205
734,1	248,119
734,5	246,233
734,9	252,176
735,4	251,605
735,8	244,119
736,3	244,548
736,7	244,748
737,1	243,405
737,6	242,148
738	234,005
738,4	232,49
738,9	235,976
739,3	232,548
739,7	234,89
740,2	231,348
740,6	232,176
741,1	234,29
741,5	229,262
741,9	226,49
742,4	229,005
742,8	226,005
743,2	225,576
743,7	215,976
744,1	211,805
744,5	213,748
745	215,376
745,4	207,605
745,8	208,89
746,3	204,376
746,7	206,919
747,2	208,176
747,6	206,119
748	205,233
748,5	210,805
748,9	205,205
749,3	206,576
749,8	208,662
750,2	206,976
750,6	203,833
751,1	203,233
751,5	198,748
751,9	197,805
752,4	199,519
752,8	197,776
753,3	196,49
753,7	197,919
754,1	187,862
754,6	185,262
755	184,262
755,4	181,548
755,9	179,748
756,3	178,69
756,7	177,405
757,2	180,062
757,6	179,605
758	176,176
758,5	176,176
758,9	171,119
759,3	171,49
759,8	170,49
760,2	171,262
760,6	169,348
761,1	167,433
761,5	164,919
761,9	163,062
762,4	158,405
762,8	155,948
763,3	151,205
763,7	151,919
764,1	153,633
764,6	158,033
765	160,919
765,4	161,833
765,9	161,433
766,3	163,433
766,7	158,376
767,2	155,919
767,6	150,462
768	150,576
768,5	151,005
768,9	147,519
769,3	150,605
769,8	152,433
770,2	155,89
770,6	156,119
771,1	157,462
771,5	157,405
771,9	160,176
772,4	158,548
772,8	157,633
773,2	158,348
773,7	153,833
774,1	152,205
774,5	142,69
775	144,005
775,4	139,69
775,8	136,89
776,3	134,205
776,7	135,662
777,1	130,748
777,6	136,69
778	135,319
778,4	132,119
778,9	133,462
779,3	131,805
779,7	131,976
780,2	135,062
780,6	135,148
781	130,148
781,5	132,205
781,9	132,833
782,3	128,405
782,8	127,576
783,2	122,948
783,6	122,662
784,1	123,633
784,5	119,005
784,9	114,548
785,4	117,805
785,8	116,119
786,2	116,548
786,7	116,29
787,1	113,49
787,5	114,833
788	113,805
788,4	110,119
788,8	107,548
789,3	105,233
789,7	100,433
790,1	100,119
790,6	104,462
791	107,062
791,4	108,462
791,9	105,776
792,3	104,319
792,7	108,148
793,2	106,262
793,6	103,662
794	102,805
794,5	102,176
794,9	104,548
795,3	106,748
795,8	102,576
796,2	102,605
796,6	100,719
797,1	98,748
797,5	93,262
797,9	91,948
798,4	86,548
798,8	87,519
799,2	91,205
799,7	92,548
800,1	89,833
800,5	92,89
801	95,976
801,4	96,662
801,8	93,919
802,2	89,633
802,7	87,519
803,1	88,119
803,5	85,548
804	81,176
804,4	83,89
804,8	83,09
805,3	87,233
805,7	86,005
806,1	85,948
806,6	91,033
807	89,205
807,4	88,205
807,9	86,576
808,3	81,49
808,7	79,29
809,2	81,262
809,6	80,233
810	78,49
810,4	77,69
810,9	80,662
811,3	82,233
811,7	84,405
812,2	86,519
812,6	83,29
813	87,319
813,5	85,462
813,9	84,805
814,3	82,605
814,8	81,919
815,2	75,862
815,6	76,49
816,1	74,662
816,5	74,548
816,9	72,719
817,3	70,833
817,8	71,433
818,2	77,176
818,6	73,976
819,1	71,519
819,5	69,262
819,9	69,862
820,4	71,833
820,8	67,605
821,2	56,348
821,7	60,462
822,1	63,005
822,5	69,976
822,9	67,176
823,4	62,948
823,8	66,233
824,2	74,205
824,7	67,29
825,1	64,29
825,5	57,862
826	54,119
826,4	58,576
826,8	53,29
827,3	49,976
827,7	50,005
828,1	50,348
828,5	50,662
829	49,69
829,4	47,576
829,8	49,005
830,3	50,062
830,7	52,033
831,1	51,462
831,6	54,776
832	58,262
832,4	52,776
832,8	53,662
833,3	52,833
833,7	54,519
834,1	54,033
834,6	48,605
835	48,033
835,4	53,519
835,8	49,405
836,3	45,69
836,7	41,262
837,1	42,662
837,6	46,49
838	47,09
838,4	48,348
838,9	51,719
839,3	51,833
839,7	57,719
840,1	50,005
840,6	48,433
841	49,462
841,4	46,948
841,9	49,862
842,3	52,176
842,7	45,405
843,1	49,062
843,6	48,89
844	48,119
844,4	52,919
844,9	50,49
845,3	46,919
845,7	49,405
846,2	49,776
846,6	48,176
847	52,005
847,4	47,548
847,9	45,462
848,3	49,605
848,7	49,319
849,2	50,662
849,6	48,719
850	49,405
850,4	48,662
850,9	47,633
851,3	44,005
851,7	43,919
852,2	43,948
852,6	49,49
853	45,462
853,4	45,319
853,9	42,919
854,3	45,862
854,7	42,805
855,2	40,548
855,6	37,719
856	32,005
856,4	29,033
856,9	29,062
857,3	27,49
857,7	31,233
858,2	34,833
858,6	30,519
859	33,09
859,4	39,148
859,9	39,09
860,3	34,976
860,7	33,748
861,1	31,89
861,6	31,462
862	33,119
862,4	27,233
862,9	29,005
863,3	31,633
863,7	29,862
864,1	30,89
864,6	32,948
865	29,576
865,4	31,49
865,9	33,833
866,3	26,948
866,7	25,69
867,1	20,833
867,6	17,976
868	16,519
868,4	12,69
868,8	12,862
869,3	19,919
869,7	27,062
870,1	25,29
870,6	28,548
871	12,119
871,4	18,919
871,8	18,233
872,3	18,262
872,7	15,976
873,1	15,976
873,5	17,348
874	36,519
874,4	29,633
874,8	24,205
875,3	24,205
875,7	17,89
876,1	19,862
876,5	17,805
877	15,376
877,4	13,748
877,8	17,033
878,2	21,09
878,7	21,805
879,1	26,29
879,5	25,976
879,9	28,862
880,4	34,29
880,8	36,462
881,2	34,948
881,7	33,633
882,1	30,605
882,5	27,833
882,9	26,605
883,4	23,176
883,8	23,633
884,2	16,433
884,6	15,69
885,1	14,605
885,5	17,662
885,9	16,833
886,3	19,976
886,8	15,519
887,2	13,405
887,6	16,033
888	13,462
888,5	13,062
888,9	12,69
889,3	7,633
889,8	7,633
890,2	12,605
890,6	14,262
891	15,462
891,5	13,005
891,9	13,519
892,3	12,862
892,7	15,29
893,2	15,633
893,6	12,89
894	18,976
894,4	17,576
894,9	17,033
895,3	22,148
895,7	21,49
896,1	18,405
896,6	19,433
897	14,49
897,4	20,605
897,8	22,719
898,3	18,748
898,7	18,119
899,1	20,376
899,5	20,748
900	15,833
900,4	11,405
900,8	8,119
901,2	5,319
901,7	1,348
902,1	3,262
902,5	7,262
902,9	9,176
903,4	10,576
903,8	12,176
904,2	13,662
904,6	18,376
905,1	16,319
905,5	8,519
905,9	12,748
906,3	12,09
906,8	14,719
907,2	18,662
907,6	15,462
908	19,119
908,5	21,976
908,9	17,719
909,3	16,976
909,7	15,662
910,2	13,119
910,6	15,862
911	11,348
911,4	11,233
911,9	12,519
912,3	13,433
912,7	14,262
913,1	15,148
913,6	11,576
914	14,519
914,4	15,262
914,8	16,49
915,3	15,119
915,7	10,662
916,1	9,205
916,5	11,976
916,9	8,233
917,4	6,776
917,8	7,748
918,2	4,405
918,6	-0,881
919,1	3,719
919,5	1,976
919,9	2,462
920,3	1,576
920,8	-0,31
921,2	2,29
921,6	10,319
922	7,976
922,5	6,805
922,9	8,062
923,3	6,548
923,7	7,948
924,2	6,833
924,6	6,69
925	5,919
925,4	6,862
925,8	11,062
926,3	13,548
926,7	10,119
927,1	10,09
927,5	9,205
928	12,348
928,4	11,262
928,8	8,262
929,2	6,176
929,7	8,262
930,1	10,462
930,5	6,09
930,9	3,433
931,3	2,405
931,8	-0,395
932,2	0,176
932,6	-1,538
933	-6,738
933,5	-6,91
933,9	-6,995
934,3	-0,852
934,7	-3,167
935,2	-4,167
935,6	-4,767
936	-1,024
936,4	3,205
936,8	3,176
937,3	-2,738
937,7	3,376
938,1	9,462
938,5	9,262
939	10,319
939,4	8,976
939,8	7,833
940,2	9,805
940,6	7,776
941,1	0,976
941,5	6,776
941,9	2,69
942,3	5,69
942,8	6,919
943,2	8,662
943,6	6,576
944	8,376
944,4	8,262
944,9	7,005
945,3	5,719
945,7	2,69
946,1	-4,824
946,6	-5,567
947	-4,995
947,4	-5,052
947,8	-1,795
948,2	-4,052
948,7	-2,995
949,1	1,262
949,5	8,69
949,9	9,662
950,3	9,462
950,8	9,805
951,2	10,548
951,6	8,119
952	11,776
952,5	5,405
952,9	2,119
953,3	-1,91
953,7	-3,31
954,1	-1,281
954,6	3,633
955	4,49
955,4	0,919
955,8	8,176
956,2	7,833
956,7	11,005
957,1	6,576
957,5	8,176
957,9	7,948
958,3	9,662
958,8	5,748
959,2	9,119
959,6	8,776
960	7,633
960,5	9,89
960,9	7,29
961,3	9,833
961,7	8,433
962,1	3,776
962,6	4,948
963	10,948
963,4	0,948
963,8	2,033
964,2	2,205
964,7	5,89
965,1	7,205
965,5	1,605
965,9	-1,138
966,3	5,319
966,8	2,005
967,2	1,348
967,6	1,09
968	-2,224
968,4	4,948
968,9	2,719
969,3	6,119
969,7	9,548
970,1	13,662
970,5	9,748
971	19,719
971,4	17,433
971,8	20,119
972,2	16,062
972,6	12,805
973,1	8,233
973,5	9,776
973,9	7,033
974,3	6,319
974,7	9,09
975,2	6,233
975,6	5,576
976	8,69
976,4	7,748
976,8	5,033
977,3	3,69
977,7	-1,11
978,1	0,605
978,5	-2,024
978,9	-8,024
979,4	-9,938
979,8	-11,938
980,2	-8,938
980,6	-7,767
981	-7,91
981,5	-7,224
981,9	-4,167
982,3	-2,995
982,7	1,033
983,1	-4,224
983,6	-2,481
984	-2,024
984,4	1,576
984,8	2,348
985,2	-1,367
985,6	-5,31
986,1	-4,71
986,5	-7,281
986,9	-12,51
987,3	-9,824
987,7	-9,252
988,2	-9,11
988,6	-4,081
989	-3,481
989,4	-6,91
989,8	-1,138
990,3	-2,624
990,7	-3,795
991,1	3,433
991,5	1,948
991,9	4,205
992,3	9,862
992,8	7,948
993,2	6,433
993,6	6,148
994	2,976
994,4	1,205
994,9	0,376
995,3	-3,224
995,7	-3,881
996,1	-6,081
996,5	-6,481
996,9	-7,367
997,4	-3,224
997,8	-7,081
998,2	-6,824
998,6	-11,852
999	-11,281
999,5	-9,824
999,9	-8,681
1000,3	-12,881
1000,7	-7,91
1001,1	-7,167
1001,5	0,205
1002	5,005
1002,4	7,776
1002,8	7,262
1003,2	8,719
1003,6	12,776
1004	14,776
1004,5	12,89
1004,9	16,69
1005,3	11,919
1005,7	15,805
1006,1	14,005
1006,6	7,576
1007	7,89
1007,4	6,176
1007,8	1,919
1008,2	-0,567
1008,6	-3,681
1009,1	-6,624
1009,5	-3,767
1009,9	-2,167
1010,3	-0,281
1010,7	-5,71
1011,1	-5,481
1011,6	-10,938
1012	-6,424
1012,4	-7,424
1012,8	-9,624
1013,2	-6,567
1013,6	-4,624
1014,1	1,29
1014,5	4,605
1014,9	6,033
1015,3	8,376
1015,7	7,49
1016,1	3,776
1016,6	3,205
1017	2,262
1017,4	4,376
1017,8	3,919
1018,2	6,805
1018,6	3,633
1019,1	4,119
1019,5	4,833
1019,9	-0,91
1020,3	-1,252
1020,7	-2,795
1021,1	-7,652
1021,6	-6,281
1022	-1,995
1022,4	1,405
1022,8	7,805
1023,2	12,548
1023,6	13,748
1024,1	19,005
1024,5	20,976
1024,9	17,69
1025,3	16,519
1025,7	12,233
1026,1	10,548
1026,6	8,548
1027	1,262
1027,4	3,005
1027,8	1,205
1028,2	-0,452
1028,6	4,805
1029	2,176
1029,5	5,005
1029,9	4,176
1030,3	-2,081
1030,7	-0,424
1031,1	-0,367
1031,5	-4,452
1032	-3,452
1032,4	-8,024
1032,8	-2,252
1033,2	4,462
1033,6	4,262
1034	9,205
1034,4	4,89
1034,9	6,776
1035,3	6,948
1035,7	7,205
1036,1	5,519
1036,5	1,605
1036,9	1,062
1037,4	9,805
1037,8	2,69
1038,2	5,548
1038,6	-0,31
1039	0,576
1039,4	7,748
1039,8	1,148
1040,3	-3,71
1040,7	-0,081
1041,1	-3,538
1041,5	3,405
1041,9	1,776
1042,3	-1,624
1042,7	5,176
1043,2	1,605
1043,6	-3,281
1044	-1,11
1044,4	-5,51
1044,8	-3,224
1045,2	-1,567
1045,6	-4,424
1046,1	0,405
1046,5	5,833
1046,9	2,69
1047,3	4,348
1047,7	3,062
1048,1	-3,967
1048,5	-6,71
1049	-5,252
1049,4	-1,31
1049,8	3,69
1050,2	4,776
1050,6	6,576
1051	14,148
1051,4	11,633
1051,9	12,719
1052,3	16,862
1052,7	15,233
1053,1	9,662
1053,5	8,862
1053,9	3,862
1054,3	8,833
1054,8	10,576
1055,2	2,948
1055,6	3,662
1056	8,519
1056,4	4,805
1056,8	7,176
1057,2	3,548
1057,6	-2,11
1058,1	-2,767
1058,5	-8,395
1058,9	-9,195
1059,3	-6,452
1059,7	-7,395
1060,1	-5,024
1060,5	-4,852
1061	-3,167
1061,4	1,976
1061,8	4,719
1062,2	6,605
1062,6	8,348
1063	11,233
1063,4	14,862
1063,8	10,776
1064,3	7,09
1064,7	1,433
1065,1	-1,195
1065,5	-5,052
1065,9	-6,167
1066,3	-11,452
1066,7	-11,367
1067,1	-11,138
1067,6	-4,052
1068	-6,11
1068,4	-0,081
1068,8	0,748
1069,2	5,833
1069,6	4,09
1070	10,519
1070,4	4,376
1070,9	4,005
1071,3	-1,31
1071,7	-2,652
1072,1	-3,652
1072,5	0,119
1072,9	-3,081
1073,3	0,69
1073,7	-0,081
1074,2	2,805
1074,6	2,976
1075	1,005
1075,4	1,005
1075,8	3,433
1076,2	2,948
1076,6	3,548
1077	2,748
1077,5	1,405
1077,9	2,519
1078,3	1,405
1078,7	-2,824
1079,1	-4,681
1079,5	-3,195
1079,9	-3,824
1080,3	-4,367
1080,7	-4,881
1081,2	2,405
1081,6	4,09
1082	4,748
1082,4	9,319
1082,8	13,262
1083,2	14,062
1083,6	12,605
1084	6,376
1084,5	3,49
1084,9	-0,938
1085,3	-6,938
1085,7	-12,595
1086,1	-12,338
1086,5	-10,652
1086,9	-9,395
1087,3	-8,91
1087,7	-6,252
1088,2	-3,252
1088,6	-0,31
1089	1,69
1089,4	3,862
1089,8	5,576
1090,2	6,919
1090,6	10,805
1091	13,09
1091,4	14,948
1091,9	11,262
1092,3	11,005
1092,7	2,633
1093,1	6,119
1093,5	-0,938
1093,9	-1,881
1094,3	3,833
1094,7	3,519
1095,1	4,89
1095,5	11,119
1096	7,662
1096,4	9,548
1096,8	7,976
1097,2	2,862
1097,6	11,462
1098	10,09
1098,4	11,262
1098,8	13,49
1099,2	18,262
1099,6	18,062
1100,1	15,69
1100,5	9,805
1100,9	7,062
1101,3	7,233
1101,7	3,69
1102,1	3,519
1102,5	5,519
1102,9	4,805
1103,3	7,662
1103,7	10,033
1104,2	7,919
1104,6	12,09
1105	8,176
1105,4	7,89
1105,8	7,805
1106,2	3,776
1106,6	1,862
1107	2,348
1107,4	0,1
1107,8	1,673
1108,3	-0,467
