Data from Subt2_319.txt Node
Date: Sat Aug 26 19:16:58 MSK 2023
User: vat
Spectrometer: MAYP114033
Trigger mode: 0
Integration Time (sec): 1,000000E0
Scans to average: 5
Electric dark correction enabled: true
Nonlinearity correction enabled: false
Boxcar width: 3
XAxis mode: Wavelengths
Number of Pixels in Spectrum: 2068
>>>>>Begin Spectral Data<<<<<
199,4	-0,05
199,9	2,34
200,4	5,433
200,8	6,614
201,3	6,643
201,8	9,671
202,2	7,9
202,7	12,843
203,2	10,671
203,6	7,614
204,1	7,043
204,6	8,043
205	8,7
205,5	10,814
206	10,1
206,4	11,386
206,9	12,786
207,4	14,614
207,8	14,786
208,3	11,471
208,8	13,157
209,2	13,929
209,7	14,071
210,2	14,843
210,6	14,614
211,1	18,529
211,5	17,757
212	17,471
212,5	12,957
212,9	12,1
213,4	10,014
213,9	5,1
214,3	4,814
214,8	6,414
215,3	5,071
215,7	9,5
216,2	13,214
216,7	14,7
217,1	16,586
217,6	16,271
218,1	14,443
218,5	13,529
219	5,7
219,5	5,043
219,9	2,071
220,4	8,043
220,9	4,614
221,3	7,5
221,8	11,729
222,3	14,614
222,7	11,1
223,2	15,9
223,6	11,414
224,1	11,843
224,6	12,386
225	7,9
225,5	8,957
226	10,5
226,4	11,071
226,9	12,1
227,4	14,9
227,8	12,957
228,3	13,271
228,8	14,214
229,2	17,3
229,7	14,529
230,2	13,7
230,6	12,9
231,1	18,1
231,5	21,7
232	22,357
232,5	18,843
232,9	19,586
233,4	19,529
233,9	17,671
234,3	13,871
234,8	11,814
235,3	8,529
235,7	12,214
236,2	12,043
236,7	11,443
237,1	13,443
237,6	10,843
238,1	7,643
238,5	3,986
239	3,5
239,4	6,786
239,9	4,329
240,4	2,843
240,8	6,7
241,3	5,043
241,8	11,014
242,2	5,957
242,7	4,7
243,2	7,529
243,6	3,157
244,1	3,729
244,6	6,986
245	7,386
245,5	13,671
245,9	8,157
246,4	7,5
246,9	12,157
247,3	13,843
247,8	18,986
248,3	18,186
248,7	18,014
249,2	22,957
249,7	25,043
250,1	24,814
250,6	19,043
251	19,071
251,5	22,271
252	17,871
252,4	15,843
252,9	10,5
253,4	6,9
253,8	7,529
254,3	6,357
254,8	4,9
255,2	2,443
255,7	2,186
256,1	8,7
256,6	12,329
257,1	16,043
257,5	11,186
258	7,986
258,5	11,071
258,9	8,5
259,4	4,129
259,9	4,871
260,3	-0,014
260,8	1,386
261,2	1,414
261,7	1,7
262,2	-1,386
262,6	-0,529
263,1	-0,129
263,6	5,1
264	7,329
264,5	13,1
264,9	14,443
265,4	20,843
265,9	19,614
266,3	21,614
266,8	20,129
267,3	18,7
267,7	12,443
268,2	11,329
268,7	11,329
269,1	13,243
269,6	9,786
270	14,243
270,5	10,329
271	14,129
271,4	16,214
271,9	13,443
272,4	16,814
272,8	15,557
273,3	6,529
273,7	9,814
274,2	7,729
274,7	4,071
275,1	4,957
275,6	2,929
276,1	2,157
276,5	10,386
277	12,071
277,4	12,414
277,9	16,871
278,4	19,443
278,8	17,9
279,3	22,3
279,8	18,414
280,2	17,7
280,7	19,386
281,1	13,671
281,6	15,157
282,1	19,986
282,5	19,443
283	17,3
283,4	16,3
283,9	18,471
284,4	23,443
284,8	21,557
285,3	13,729
285,8	14,957
286,2	13,3
286,7	11,414
287,1	4,014
287,6	0,7
288,1	-2,586
288,5	5,271
289	1,814
289,5	6,843
289,9	7,214
290,4	13,986
290,8	13,357
291,3	14,929
291,8	12,7
292,2	13,414
292,7	14,5
293,1	14,557
293,6	12,643
294,1	14,271
294,5	11,814
295	14,186
295,5	14,414
295,9	11,929
296,4	8,9
296,8	4,729
297,3	2,643
297,8	2,786
298,2	-2,957
298,7	0,529
299,1	0,329
299,6	3,386
300,1	9,614
300,5	13,214
301	21,729
301,5	26,757
301,9	22,957
302,4	21,243
302,8	22,671
303,3	18,186
303,8	15,614
304,2	7,871
304,7	1,071
305,1	-4,414
305,6	-2,757
306,1	3,1
306,5	4,871
307	6,929
307,4	9,414
307,9	11,929
308,4	15,443
308,8	10,871
309,3	3,214
309,8	2,7
310,2	3,929
310,7	0,129
311,1	1,471
311,6	1,871
312,1	6,071
312,5	12,014
313	13,786
313,4	9,557
313,9	14,014
314,4	12,557
314,8	11,557
315,3	7,643
315,7	1,614
316,2	0,214
316,7	-0,614
317,1	4,014
317,6	4,271
318	11,043
318,5	13,643
319	17,014
319,4	18,814
319,9	28,586
320,3	19,271
320,8	19,5
321,3	16,7
321,7	19,3
322,2	17,5
322,6	19,043
323,1	11,329
323,6	15,871
324	17,9
324,5	13,443
324,9	11,271
325,4	12,586
325,9	12,271
326,3	14,157
326,8	16,9
327,2	9,186
327,7	12,586
328,2	14,471
328,6	14,814
329,1	7,986
329,5	6,786
330	5,1
330,5	13,129
330,9	16,043
331,4	15,643
331,8	12,214
332,3	21,786
332,8	24,557
333,2	23,843
333,7	24,043
334,1	22,157
334,6	18,414
335,1	14,957
335,5	7,129
336	6,071
336,4	7,843
336,9	10,329
337,4	9,9
337,8	10,271
338,3	16,871
338,7	23,186
339,2	21,186
339,7	21,243
340,1	13,729
340,6	15,329
341	14,814
341,5	15,729
342	13,9
342,4	12,929
342,9	10,586
343,3	13,986
343,8	8,643
344,2	11,243
344,7	17,043
345,2	12,7
345,6	14,443
346,1	16,9
346,5	12,986
347	13,129
347,5	13,214
347,9	9,529
348,4	12,643
348,8	9,671
349,3	9,529
349,8	17,986
350,2	26,129
350,7	26,043
351,1	23,471
351,6	30,043
352	37,929
352,5	42,557
353	47,386
353,4	49,729
353,9	61,729
354,3	73,557
354,8	79,529
355,3	98,471
355,7	114,643
356,2	135,014
356,6	156,329
357,1	183,614
357,5	216,986
358	257,3
358,5	293,871
358,9	341,271
359,4	388,186
359,8	446,671
360,3	513,7
360,8	580,386
361,2	657,643
361,7	745,271
362,1	845,214
362,6	953,043
363	1067,414
363,5	1184,186
364	1318,957
364,4	1450,357
364,9	1582,614
365,3	1705,1
365,8	1828,586
366,3	1940,271
366,7	2040,814
367,2	2123,443
367,6	2191,071
368,1	2245,843
368,5	2282,557
369	2299,986
369,5	2307,529
369,9	2296,386
370,4	2265,214
370,8	2216,586
371,3	2149,357
371,7	2073,3
372,2	1980,757
372,7	1881,986
373,1	1780,443
373,6	1677,443
374	1575,729
374,5	1474,986
374,9	1374,786
375,4	1281,271
375,9	1188,729
376,3	1095,557
376,8	1007,243
377,2	927,557
377,7	852,7
378,2	781,814
378,6	717,871
379,1	658,986
379,5	608,271
380	561,786
380,4	513,071
380,9	471,814
381,4	435,071
381,8	402,871
382,3	375,386
382,7	349,671
383,2	324,643
383,6	308,1
384,1	289,957
384,6	272,929
385	256,671
385,5	235,214
385,9	216,414
386,4	200,586
386,8	186,471
387,3	168,586
387,7	161,386
388,2	151,7
388,7	146,929
389,1	142,186
389,6	136,1
390	128,671
390,5	127,014
390,9	119,129
391,4	110,786
391,9	99,129
392,3	89,329
392,8	83,014
393,2	75,671
393,7	67,843
394,1	63,043
394,6	61,071
395,1	61,729
395,5	59,557
396	62,557
396,4	61,871
396,9	60,243
397,3	58,786
397,8	58,786
398,2	59,9
398,7	61,414
399,2	59,9
399,6	59,757
400,1	60,157
400,5	53,5
401	50,9
401,4	46,1
401,9	47,414
402,4	45,614
402,8	43,1
403,3	45,414
403,7	45,986
404,2	44,643
404,6	49,443
405,1	45,471
405,5	41,443
406	43,357
406,5	37,929
406,9	42,986
407,4	42,586
407,8	40,871
408,3	45,357
408,7	44,729
409,2	48,157
409,6	55,671
410,1	56,757
410,6	64,186
411	65,1
411,5	64,243
411,9	66,557
412,4	62,329
412,8	61,271
413,3	60,157
413,7	58,014
414,2	58,329
414,7	58,1
415,1	64,643
415,6	73,7
416	74,814
416,5	79,414
416,9	79,129
417,4	82,471
417,8	91,129
418,3	96,414
418,8	96,557
419,2	97,386
419,7	97,214
420,1	103,557
420,6	105,243
421	100,3
421,5	96,586
421,9	96,329
422,4	101,871
422,8	102,357
423,3	96,814
423,8	95,5
424,2	94,443
424,7	96,043
425,1	96,414
425,6	92,157
426	91,643
426,5	94,814
426,9	100,243
427,4	101,414
427,9	95,843
428,3	95,929
428,8	96,129
429,2	97,186
429,7	96,529
430,1	91,014
430,6	89,443
431	88,129
431,5	86,643
431,9	85,1
432,4	84,529
432,8	83,986
433,3	82,529
433,8	82,671
434,2	86,643
434,7	89,1
435,1	91,414
435,6	90,643
436	92,186
436,5	99,5
436,9	100,843
437,4	104,757
437,8	106,386
438,3	106,443
438,8	110,729
439,2	113,414
439,7	113,843
440,1	119,386
440,6	124,843
441	119,243
441,5	126,5
441,9	131,357
442,4	132,871
442,8	137,157
443,3	144,643
443,7	148,071
444,2	163,557
444,7	171,214
445,1	180,643
445,6	188,986
446	196,957
446,5	198,386
446,9	197,557
447,4	202,243
447,8	207,5
448,3	213,014
448,7	222,786
449,2	228,9
449,6	240,071
450,1	252,071
450,6	264,643
451	273,043
451,5	280,729
451,9	292,386
452,4	303,214
452,8	310,471
453,3	328,157
453,7	332,5
454,2	342,871
454,6	356,471
455,1	360,957
455,5	370,129
456	384,643
456,4	387,586
456,9	404,129
457,3	414,871
457,8	421,071
458,3	442,3
458,7	457,814
459,2	469,3
459,6	485,014
460,1	500,414
460,5	514,129
461	533,3
461,4	541,871
461,9	552,586
462,3	568,586
462,8	586,414
463,2	600,5
463,7	619,586
464,1	633,243
464,6	654,157
465	677,7
465,5	697,729
466	717,957
466,4	731,614
466,9	755,271
467,3	774,814
467,8	790,443
468,2	805,443
468,7	821,471
469,1	839,071
469,6	860,614
470	874,186
470,5	893,243
470,9	908,586
471,4	922,786
471,8	942,014
472,3	962,357
472,7	976,9
473,2	991,243
473,6	1006,671
474,1	1031,586
474,5	1055,957
475	1074,214
475,4	1084,157
475,9	1105,443
476,4	1126,129
476,8	1146,786
477,3	1165,1
477,7	1179,557
478,2	1201,214
478,6	1221,3
479,1	1241,471
479,5	1258,414
480	1274,757
480,4	1288,729
480,9	1306,643
481,3	1318,9
481,8	1334,957
482,2	1348,043
482,7	1365,014
483,1	1384,329
483,6	1394,043
484	1405,357
484,5	1420,929
484,9	1432,014
485,4	1445,471
485,8	1454,729
486,3	1463,3
486,7	1481,3
487,2	1500,7
487,6	1509,843
488,1	1523,014
488,5	1530,586
489	1544,129
489,4	1556,443
489,9	1564,9
490,4	1565,814
490,8	1575,529
491,3	1583,957
491,7	1587,9
492,2	1594,014
492,6	1596,871
493,1	1596,986
493,5	1603,414
494	1605,043
494,4	1610,7
494,9	1619,9
495,3	1625,557
495,8	1630,157
496,2	1641,329
496,7	1640,957
497,1	1650,414
497,6	1651,586
498	1656,843
498,5	1657,357
498,9	1661,329
499,4	1660,357
499,8	1675,386
500,3	1676,129
500,7	1679,643
501,2	1678,3
501,6	1680,9
502,1	1679,014
502,5	1684,786
503	1680,329
503,4	1682,471
503,9	1682,586
504,3	1685,043
504,8	1687,271
505,2	1690,243
505,7	1682,557
506,1	1686,186
506,6	1677,871
507	1679,071
507,5	1678,014
507,9	1674,9
508,4	1674,843
508,8	1681,3
509,3	1676,757
509,7	1679,814
510,2	1680,871
510,6	1679,386
511,1	1679,243
511,5	1676,643
512	1669,986
512,4	1669,529
512,9	1668,443
513,3	1665,586
513,8	1665,014
514,2	1669,329
514,7	1662,843
515,1	1659,243
515,6	1654,757
516	1650,757
516,5	1650,871
516,9	1651,414
517,4	1649,414
517,8	1661,1
518,3	1666,957
518,7	1674,1
519,2	1675,557
519,6	1674,671
520,1	1673,843
520,5	1671,1
521	1665,843
521,4	1667,214
521,9	1667,586
522,3	1669,471
522,8	1667,043
523,2	1670,243
523,7	1670,157
524,1	1670,214
524,6	1665,729
525	1661,871
525,5	1662,843
525,9	1670,871
526,4	1670,814
526,8	1669,357
527,3	1672,843
527,7	1680,129
528,2	1679,386
528,6	1676,071
529,1	1674,3
529,5	1675,271
530	1678,9
530,4	1679,1
530,9	1681,243
531,3	1688,214
531,8	1698,643
532,2	1699,071
532,6	1699,386
533,1	1699,243
533,5	1702,043
534	1702,957
534,4	1705,843
534,9	1702,5
535,3	1703,043
535,8	1706,757
536,2	1711,7
536,7	1712,157
537,1	1708,557
537,6	1703,271
538	1708,957
538,5	1715,043
538,9	1715,043
539,4	1721,786
539,8	1721,529
540,3	1730,186
540,7	1732,271
541,2	1733,357
541,6	1736,929
542,1	1744,929
542,5	1740,986
543	1746,814
543,4	1749,357
543,9	1755,271
544,3	1761,529
544,8	1758,214
545,2	1755,929
545,7	1757,843
546,1	1764,271
546,5	1769,643
547	1772,471
547,4	1773,157
547,9	1776,9
548,3	1784,786
548,8	1793,557
549,2	1787,014
549,7	1786,586
550,1	1792,7
550,6	1792,5
551	1799,386
551,5	1795,557
551,9	1792,014
552,4	1805,443
552,8	1802,1
553,3	1798,014
553,7	1799,557
554,2	1803,757
554,6	1811,529
555,1	1818,357
555,5	1816,529
555,9	1822,757
556,4	1826,5
556,8	1829,814
557,3	1828,071
557,7	1827,5
558,2	1828,729
558,6	1832,671
559,1	1837,786
559,5	1842,271
560	1843,329
560,4	1843,9
560,9	1845,1
561,3	1849,557
561,8	1850,729
562,2	1849,7
562,7	1850,243
563,1	1852,843
563,6	1855,786
564	1863,129
564,4	1860,729
564,9	1865,157
565,3	1866,586
565,8	1866,586
566,2	1871,929
566,7	1877,186
567,1	1875,1
567,6	1876,757
568	1872,186
568,5	1871,071
568,9	1874,043
569,4	1875,471
569,8	1877,757
570,3	1877,271
570,7	1874,986
571,1	1880,214
571,6	1888,814
572	1889,671
572,5	1887,814
572,9	1881,9
573,4	1884,557
573,8	1894,614
574,3	1888,071
574,7	1884,471
575,2	1886,414
575,6	1883,157
576,1	1887,414
576,5	1888,414
576,9	1880,014
577,4	1882,186
577,8	1880,243
578,3	1877,814
578,7	1882,071
579,2	1880,414
579,6	1876,3
580,1	1874,157
580,5	1873,3
581	1871,214
581,4	1872,186
581,9	1865,1
582,3	1857,586
582,7	1856,643
583,2	1855,843
583,6	1850,414
584,1	1853,443
584,5	1849,157
585	1850,586
585,4	1846,157
585,9	1836,357
586,3	1839,1
586,8	1843,671
587,2	1834,157
587,6	1838,071
588,1	1839,729
588,5	1843,643
589	1847,814
589,4	1837,786
589,9	1831,443
590,3	1830,471
590,8	1820,129
591,2	1813,729
591,7	1812,929
592,1	1813,529
592,5	1817,386
593	1808,271
593,4	1803,357
593,9	1799,586
594,3	1795,5
594,8	1787,786
595,2	1780,957
595,7	1774,014
596,1	1775,957
596,6	1774,757
597	1774,271
597,4	1773,557
597,9	1772,729
598,3	1769,957
598,8	1769,386
599,2	1769,1
599,7	1767,271
600,1	1762,557
600,6	1755,386
601	1753,186
601,4	1755,986
601,9	1751,586
602,3	1744,071
602,8	1737,186
603,2	1733,386
603,7	1732,329
604,1	1725,443
604,6	1714,243
605	1702,957
605,4	1700,129
605,9	1697,529
606,3	1688,5
606,8	1678,386
607,2	1670,843
607,7	1664,643
608,1	1666,7
608,6	1666,214
609	1666,386
609,4	1666,729
609,9	1663,471
610,3	1662,7
610,8	1659,243
611,2	1656,271
611,7	1644,329
612,1	1635,814
612,6	1630,071
613	1629,471
613,4	1627,529
613,9	1618,529
614,3	1609,243
614,8	1610,043
615,2	1600,7
615,7	1597,843
616,1	1593,3
616,6	1577,843
617	1576,014
617,4	1571,986
617,9	1567,071
618,3	1562,386
618,8	1555,014
619,2	1541,986
619,7	1540,271
620,1	1534,071
620,5	1533,757
621	1516,614
621,4	1514,557
621,9	1508,814
622,3	1509,357
622,8	1499,814
623,2	1491,471
623,6	1485,9
624,1	1486,557
624,5	1476,586
625	1472,386
625,4	1462,929
625,9	1466,557
626,3	1461,729
626,8	1447,014
627,2	1444,471
627,6	1440,9
628,1	1428,471
628,5	1425,757
629	1410,386
629,4	1403,529
629,9	1397,129
630,3	1383,5
630,7	1374,586
631,2	1374,157
631,6	1365,586
632,1	1363,586
632,5	1356,843
633	1352,243
633,4	1344,7
633,8	1337,443
634,3	1328,757
634,7	1320,386
635,2	1308,186
635,6	1300,186
636,1	1296,529
636,5	1290,443
636,9	1278,729
637,4	1268,7
637,8	1258,843
638,3	1254,5
638,7	1249,414
639,2	1236,786
639,6	1236,014
640	1234,043
640,5	1227,729
640,9	1223,871
641,4	1220,243
641,8	1217,471
642,2	1217,986
642,7	1217,443
643,1	1218,586
643,6	1212,871
644	1212,186
644,5	1210,986
644,9	1203,471
645,3	1196,014
645,8	1180,014
646,2	1174,557
646,7	1175,414
647,1	1165,9
647,6	1157,043
648	1149,214
648,4	1138,214
648,9	1138,414
649,3	1126,986
649,8	1120,043
650,2	1115,586
650,6	1108,586
651,1	1104,014
651,5	1106,957
652	1102,043
652,4	1089,557
652,9	1085,157
653,3	1078,614
653,7	1071,957
654,2	1069,729
654,6	1058,129
655,1	1050,5
655,5	1058,671
655,9	1049,071
656,4	1042,386
656,8	1037,471
657,3	1030,529
657,7	1031,757
658,2	1026,957
658,6	1017,786
659	1011,186
659,5	1003,1
659,9	1001,157
660,4	995,586
660,8	981,5
661,2	974,929
661,7	968,871
662,1	962,814
662,6	958,243
663	948,671
663,4	942,786
663,9	938,071
664,3	932,586
664,8	923,386
665,2	916,471
665,6	910,357
666,1	907,986
666,5	901,729
667	894,529
667,4	888,986
667,9	882,357
668,3	878,729
668,7	874,757
669,2	869,157
669,6	865,9
670,1	865,7
670,5	856,071
670,9	852,614
671,4	846,214
671,8	845,357
672,3	841,443
672,7	835,729
673,1	827,471
673,6	826,786
674	821,814
674,5	820,9
674,9	807,643
675,3	797,586
675,8	793,014
676,2	788,986
676,7	779,329
677,1	775,3
677,5	765,5
678	767,5
678,4	768,729
678,9	763,386
679,3	757,129
679,7	755,414
680,2	748,014
680,6	742,186
681,1	735,471
681,5	729,614
681,9	723,157
682,4	723,671
682,8	722,643
683,3	721,814
683,7	720,271
684,1	716,329
684,6	708,843
685	706,471
685,5	694,014
685,9	684,3
686,3	675,386
686,8	673,157
687,2	671,871
687,7	664,957
688,1	659,157
688,5	659,814
689	659,529
689,4	656,7
689,9	652,643
690,3	645,529
690,7	644,243
691,2	644,443
691,6	640,5
692	636,243
692,5	636,529
692,9	630,529
693,4	626,214
693,8	622,586
694,2	615,386
694,7	610,014
695,1	606,814
695,6	599,9
696	595,443
696,4	589,929
696,9	583,271
697,3	578,271
697,8	572,814
698,2	566,071
698,6	562,729
699,1	562,271
699,5	561,243
699,9	557,9
700,4	552,957
700,8	551,957
701,3	552,843
701,7	546,1
702,1	538,243
702,6	537,043
703	538,414
703,5	535,643
703,9	533,557
704,3	532,643
704,8	533,186
705,2	532,043
705,6	524,614
706,1	518,7
706,5	517,1
707	515,643
707,4	506,7
707,8	502,243
708,3	506,786
708,7	506,014
709,2	501,5
709,6	497,757
710	497,529
710,5	493,071
710,9	491,7
711,3	481,871
711,8	478,271
712,2	477,329
712,7	471,786
713,1	464,414
713,5	464,529
714	461,5
714,4	452,1
714,8	453,9
715,3	446,9
715,7	443,9
716,2	438,9
716,6	435,529
717	428,443
717,5	428,329
717,9	424,929
718,3	424,5
718,8	422,471
719,2	417,957
719,7	416,671
720,1	421,586
720,5	426,157
721	418,871
721,4	416,529
721,8	419,357
722,3	416,814
722,7	417,043
723,2	408,443
723,6	393,729
724	387,814
724,5	383,186
724,9	375,786
725,3	375,186
725,8	368,5
726,2	367,471
726,7	371,214
727,1	370,414
727,5	369,957
728	364,414
728,4	365,814
728,8	362,557
729,3	358,157
729,7	357,3
730,1	357,814
730,6	358,843
731	360,014
731,5	353,643
731,9	350,414
732,3	346,814
732,8	345,586
733,2	341,786
733,6	335,843
734,1	336,5
734,5	332,871
734,9	332,186
735,4	332,357
735,8	324,9
736,3	324,729
736,7	320,357
737,1	313,643
737,6	313,986
738	312,271
738,4	309,557
738,9	313,586
739,3	310,729
739,7	315,014
740,2	312,814
740,6	316,414
741,1	316,786
741,5	311,871
741,9	308,471
742,4	310,1
742,8	304,529
743,2	308,157
743,7	299,757
744,1	291,929
744,5	293,957
745	290,443
745,4	283,157
745,8	277,671
746,3	275,5
746,7	270,957
747,2	273,614
747,6	275,529
748	275,329
748,5	280,814
748,9	282,243
749,3	277,9
749,8	283,357
750,2	283,243
750,6	276,157
751,1	278,586
751,5	271,729
751,9	275,671
752,4	280,157
752,8	275,957
753,3	272,071
753,7	274,586
754,1	266,271
754,6	264,129
755	258,214
755,4	247,329
755,9	243,243
756,3	240,871
756,7	238,071
757,2	241,557
757,6	241,043
758	243,243
758,5	245,614
758,9	250,643
759,3	252,329
759,8	250,643
760,2	249,643
760,6	247,414
761,1	240,786
761,5	244,729
761,9	235,614
762,4	228,271
762,8	230,557
763,3	224,5
763,7	226,814
764,1	225,329
764,6	220,071
765	224,871
765,4	225,386
765,9	221,243
766,3	227,5
766,7	222,3
767,2	226,443
767,6	226,9
768	225,5
768,5	225,014
768,9	224,929
769,3	217,786
769,8	217,986
770,2	211,986
770,6	207,329
771,1	208,043
771,5	207,614
771,9	205,814
772,4	205,186
772,8	202,357
773,2	206,5
773,7	207,729
774,1	203,729
774,5	198,557
775	198,9
775,4	199,357
775,8	198,986
776,3	192,843
776,7	187,443
777,1	185,271
777,6	191,671
778	191,957
778,4	188,871
778,9	188,129
779,3	185,729
779,7	188,9
780,2	189,186
780,6	184,014
781	180,129
781,5	181,557
781,9	182,614
782,3	180,414
782,8	175,9
783,2	171,757
783,6	174,157
784,1	171,186
784,5	164,386
784,9	159,043
785,4	166,129
785,8	169,5
786,2	172,471
786,7	168,443
787,1	166,814
787,5	169,586
788	171,214
788,4	166,414
788,8	161,3
789,3	159,129
789,7	161,3
790,1	161,071
790,6	161,814
791	157,671
791,4	159,3
791,9	157,529
792,3	148,271
792,7	148,729
793,2	147,386
793,6	143,186
794	145,814
794,5	138,671
794,9	140,129
795,3	146,414
795,8	137,843
796,2	139,929
796,6	141,643
797,1	141,271
797,5	140,843
797,9	137,014
798,4	132,843
798,8	133,157
799,2	130,443
799,7	131,271
800,1	128,871
800,5	131,957
801	138,214
801,4	139,214
801,8	136,043
802,2	139,071
802,7	131,929
803,1	130,843
803,5	125,071
804	118,5
804,4	118,7
804,8	119,043
805,3	117,157
805,7	121,929
806,1	116,129
806,6	118,729
807	121,357
807,4	120,586
807,9	118,9
808,3	117,5
808,7	115,757
809,2	120,757
809,6	124,414
810	122,357
810,4	118,929
810,9	120,757
811,3	120,3
811,7	115,9
812,2	118,071
812,6	112,729
813	111,129
813,5	111,414
813,9	108,243
814,3	106,157
814,8	103,786
815,2	99,9
815,6	97,957
816,1	99,186
816,5	97,929
816,9	101,043
817,3	100,7
817,8	106,443
818,2	108,386
818,6	106,5
819,1	101,1
819,5	101,186
819,9	99,671
820,4	98,443
820,8	95,186
821,2	87,529
821,7	90,3
822,1	98,357
822,5	103,586
822,9	103,5
823,4	99,814
823,8	102,7
824,2	104,814
824,7	101,329
825,1	92,7
825,5	83,5
826	78,671
826,4	80,757
826,8	76,271
827,3	78,186
827,7	78,557
828,1	82,1
828,5	85,014
829	85,986
829,4	82,1
829,8	76,614
830,3	77,986
830,7	72,214
831,1	74,814
831,6	74,786
832	72,557
832,4	73,1
832,8	80,3
833,3	76,157
833,7	77,5
834,1	69,386
834,6	65,071
835	68,986
835,4	70,414
835,8	61,871
836,3	60,786
836,7	66,586
837,1	67,5
837,6	69,3
838	66,529
838,4	66,529
838,9	71,7
839,3	69,386
839,7	68,586
840,1	67,843
840,6	66,5
841	64,529
841,4	63,186
841,9	59,129
842,3	60,071
842,7	59,729
843,1	61,843
843,6	62,7
844	66,9
844,4	69,129
844,9	72,9
845,3	71,471
845,7	69,7
846,2	66,157
846,6	65,071
847	63,9
847,4	62,9
847,9	63,986
848,3	64,5
848,7	61,757
849,2	61,643
849,6	58,043
850	59,843
850,4	58,214
850,9	55,329
851,3	57,643
851,7	61,414
852,2	59,443
852,6	67,586
853	66,786
853,4	65,671
853,9	63,957
854,3	62,186
854,7	60,471
855,2	62,043
855,6	57,871
856	54,671
856,4	52,786
856,9	51,471
857,3	51,586
857,7	50,471
858,2	56,757
858,6	55,9
859	56,7
859,4	55,471
859,9	56,957
860,3	55,386
860,7	54,814
861,1	51,843
861,6	50,929
862	49,043
862,4	49,614
862,9	49,843
863,3	48,071
863,7	47,443
864,1	43,729
864,6	45,014
865	44,3
865,4	43,471
865,9	46,786
866,3	44,557
866,7	43,871
867,1	36,529
867,6	36,186
868	35,186
868,4	33,529
868,8	31,271
869,3	30,871
869,7	39,614
870,1	44,5
870,6	42,671
871	49,3
871,4	56,357
871,8	52,071
872,3	54,729
872,7	48,243
873,1	47,7
873,5	46,786
874	39,357
874,4	37,471
874,8	36,671
875,3	40,157
875,7	34,929
876,1	40,9
876,5	42,043
877	45,329
877,4	40,043
877,8	45,757
878,2	47,443
878,7	54,814
879,1	51,986
879,5	54,5
879,9	54,614
880,4	57,471
880,8	54,214
881,2	50,386
881,7	41,786
882,1	41,329
882,5	36,471
882,9	37,529
883,4	35,871
883,8	37,471
884,2	38,471
884,6	37,243
885,1	37,071
885,5	40,843
885,9	38,814
886,3	41,5
886,8	36,043
887,2	34,414
887,6	42,3
888	42,986
888,5	39,814
888,9	35,414
889,3	31,271
889,8	33,471
890,2	31,443
890,6	23,443
891	22,986
891,5	24,786
891,9	27,1
892,3	30,614
892,7	31,071
893,2	31,729
893,6	36,957
894	37,5
894,4	35,329
894,9	34,671
895,3	35,071
895,7	38,043
896,1	39,757
896,6	40,671
897	39,414
897,4	44,414
897,8	46,1
898,3	43,729
898,7	40,186
899,1	37,329
899,5	35,329
900	28,129
900,4	22,043
900,8	19,614
901,2	18,043
901,7	14,7
902,1	13,986
902,5	15,271
902,9	19,786
903,4	20,957
903,8	22,843
904,2	20,729
904,6	23,7
905,1	24,3
905,5	21,671
905,9	25,557
906,3	26,986
906,8	27,529
907,2	34,557
907,6	33,643
908	35,214
908,5	36,614
908,9	29,957
909,3	28,757
909,7	25,929
910,2	23,414
910,6	26,271
911	23,814
911,4	22,557
911,9	24,5
912,3	24,186
912,7	28,957
913,1	28,957
913,6	25,014
914	25,071
914,4	22,1
914,8	23,443
915,3	18,5
915,7	14,414
916,1	10,071
916,5	9,671
916,9	10,3
917,4	12,443
917,8	12,9
918,2	15,471
918,6	13,443
919,1	12,929
919,5	14,614
919,9	14,929
920,3	15,843
920,8	11,214
921,2	9,186
921,6	10,614
922	13,043
922,5	16,471
922,9	19,1
923,3	17,814
923,7	17,329
924,2	19,986
924,6	20,957
925	22,271
925,4	20,043
925,8	17,3
926,3	15,814
926,7	18,871
927,1	19,814
927,5	19,643
928	17,386
928,4	15,814
928,8	19,329
929,2	22,7
929,7	25,329
930,1	24,9
930,5	20,9
930,9	27,529
931,3	28,557
931,8	29,014
932,2	25,671
932,6	23,3
933	17,957
933,5	24,557
933,9	18,986
934,3	20,986
934,7	16,3
935,2	18,271
935,6	19,014
936	24,414
936,4	23,729
936,8	25,471
937,3	21,729
937,7	24,186
938,1	29,243
938,5	22,186
939	19,814
939,4	18,071
939,8	16,471
940,2	18,071
940,6	16,9
941,1	10,5
941,5	17,9
941,9	17,014
942,3	19,557
942,8	20,843
943,2	23,786
943,6	21,529
944	22,157
944,4	21,214
944,9	18,871
945,3	16,243
945,7	7,014
946,1	-0,186
946,6	-1,157
947	-2,643
947,4	3,386
947,8	5,557
948,2	3,986
948,7	9,986
949,1	10,529
949,5	16,243
949,9	20,529
950,3	14,014
950,8	17,5
951,2	17,414
951,6	15,786
952	21,957
952,5	14,243
952,9	14,271
953,3	12,529
953,7	10,014
954,1	14,9
954,6	18,271
955	16,357
955,4	19,329
955,8	19,557
956,2	23,814
956,7	25,329
957,1	20,843
957,5	24,071
957,9	24,014
958,3	25,557
958,8	23,586
959,2	25,786
959,6	27,014
960	26,014
960,5	27,071
960,9	25,129
961,3	22,071
961,7	19,729
962,1	15,014
962,6	15,614
963	17,3
963,4	9,986
963,8	10,329
964,2	12,843
964,7	14,9
965,1	16,529
965,5	16,271
965,9	15,357
966,3	21,243
966,8	22,014
967,2	23,471
967,6	23,357
968	20,186
968,4	20,443
968,9	21,586
969,3	21,757
969,7	19,3
970,1	16,529
970,5	16,443
971	19,071
971,4	18,243
971,8	19,471
972,2	19,757
972,6	17,729
973,1	18,443
973,5	16,929
973,9	19,786
974,3	15,9
974,7	15,443
975,2	13,186
975,6	15,243
976	15,357
976,4	14,186
976,8	12,671
977,3	14,443
977,7	9,729
978,1	9,729
978,5	7,7
978,9	5,671
979,4	8,986
979,8	7,329
980,2	6,986
980,6	5,986
981	4,586
981,5	7,614
981,9	8,157
982,3	6,729
982,7	8,071
983,1	8,014
983,6	13,157
984	14,243
984,4	14,443
984,8	15,986
985,2	16,7
985,6	14,014
986,1	15,271
986,5	14,357
986,9	11,843
987,3	12,9
987,7	15,243
988,2	15,843
988,6	19,271
989	14,557
989,4	12,443
989,8	13,214
990,3	10,129
990,7	6,014
991,1	3,529
991,5	3,386
991,9	9,643
992,3	10,214
992,8	13,9
993,2	16,729
993,6	20,186
994	26,671
994,4	26,186
994,9	26,471
995,3	26,1
995,7	22,729
996,1	22,214
996,5	22,986
996,9	15,043
997,4	16,614
997,8	11,557
998,2	12,786
998,6	7,443
999	6,843
999,5	-0,843
999,9	1,986
1000,3	0,957
1000,7	4,729
1001,1	3,986
1001,5	9,671
1002	13,186
1002,4	16,443
1002,8	14,414
1003,2	16,071
1003,6	17,186
1004	18,929
1004,5	16,414
1004,9	17,386
1005,3	18,729
1005,7	20,3
1006,1	15,329
1006,6	13,129
1007	15,1
1007,4	16,1
1007,8	8,786
1008,2	6,5
1008,6	8,643
1009,1	10,3
1009,5	10,929
1009,9	11,271
1010,3	11,843
1010,7	18,071
1011,1	21,414
1011,6	21,757
1012	26,1
1012,4	23,757
1012,8	23,614
1013,2	28,529
1013,6	28,9
1014,1	27,214
1014,5	27,386
1014,9	20,214
1015,3	22,586
1015,7	18,329
1016,1	10,957
1016,6	7,814
1017	7,814
1017,4	5,986
1017,8	6,443
1018,2	8,214
1018,6	3,5
1019,1	5,814
1019,5	2,357
1019,9	-2,157
1020,3	-2,129
1020,7	2,386
1021,1	-1,814
1021,6	2,757
1022	5,129
1022,4	7,643
1022,8	12,186
1023,2	10,729
1023,6	7,586
1024,1	14,157
1024,5	15,329
1024,9	8,671
1025,3	11,7
1025,7	11,414
1026,1	14,729
1026,6	15,214
1027	12,614
1027,4	13,157
1027,8	17,729
1028,2	11,671
1028,6	13,586
1029	13,329
1029,5	13,9
1029,9	11,471
1030,3	9,3
1030,7	13,129
1031,1	19,843
1031,5	16,814
1032	15,214
1032,4	14,986
1032,8	15,471
1033,2	21,557
1033,6	16,814
1034	14,3
1034,4	13,729
1034,9	14,414
1035,3	13,071
1035,7	17,986
1036,1	12,186
1036,5	9,871
1036,9	11,271
1037,4	13,3
1037,8	7,957
1038,2	7,1
1038,6	0,843
1039	4,471
1039,4	11,614
1039,8	6,357
1040,3	11,9
1040,7	17,129
1041,1	18,814
1041,5	17,986
1041,9	18,671
1042,3	15,786
1042,7	21,729
1043,2	18,157
1043,6	17,357
1044	17,271
1044,4	24,557
1044,8	24,5
1045,2	25,957
1045,6	24,986
1046,1	21,529
1046,5	20,471
1046,9	19,871
1047,3	13,329
1047,7	9,871
1048,1	11,329
1048,5	10,414
1049	13,5
1049,4	18,986
1049,8	19,129
1050,2	19,5
1050,6	23,929
1051	22,043
1051,4	19,071
1051,9	17,129
1052,3	16,129
1052,7	16,271
1053,1	17,586
1053,5	15,329
1053,9	12,157
1054,3	10,386
1054,8	17,643
1055,2	15,929
1055,6	18,671
1056	16,3
1056,4	15,271
1056,8	18,957
1057,2	21,471
1057,6	14,5
1058,1	14,871
1058,5	7,129
1058,9	12,929
1059,3	10,586
1059,7	7,9
1060,1	10,271
1060,5	12,443
1061	12,7
1061,4	19,243
1061,8	17,871
1062,2	20,5
1062,6	24,557
1063	22,357
1063,4	18,871
1063,8	14,957
1064,3	11,414
1064,7	11,357
1065,1	12,157
1065,5	4,014
1065,9	9,929
1066,3	9,414
1066,7	9,529
1067,1	8,957
1067,6	9,814
1068	3,414
1068,4	8,843
1068,8	4,471
1069,2	10,1
1069,6	12,557
1070	16,529
1070,4	13,871
1070,9	16,786
1071,3	13,871
1071,7	12,386
1072,1	10,3
1072,5	5,671
1072,9	4,871
1073,3	3,586
1073,7	8,271
1074,2	12,186
1074,6	14,329
1075	12,986
1075,4	17,271
1075,8	19,043
1076,2	20,043
1076,6	18,871
1077	14,643
1077,5	16,957
1077,9	14,586
1078,3	10,157
1078,7	7,786
1079,1	8,357
1079,5	7,814
1079,9	9,957
1080,3	5,957
1080,7	7,671
1081,2	14,3
1081,6	14,214
1082	9,471
1082,4	11,1
1082,8	11,014
1083,2	14,671
1083,6	15,957
1084	11,957
1084,5	15,129
1084,9	14,814
1085,3	11,471
1085,7	10,414
1086,1	9,671
1086,5	12,243
1086,9	14,071
1087,3	8,329
1087,7	9,471
1088,2	9,043
1088,6	11,186
1089	9,471
1089,4	9,414
1089,8	8,871
1090,2	11,586
1090,6	15,957
1091	16,386
1091,4	19,243
1091,9	17,614
1092,3	17,243
1092,7	13,357
1093,1	13,843
1093,5	11,643
1093,9	11,843
1094,3	13,729
1094,7	15,386
1095,1	13,386
1095,5	14,786
1096	10,586
1096,4	14,243
1096,8	17,471
1097,2	13,214
1097,6	20,3
1098	18,357
1098,4	21,1
1098,8	21,986
1099,2	26,414
1099,6	19,729
1100,1	19,014
1100,5	8,671
1100,9	11,157
1101,3	12,186
1101,7	12,614
1102,1	8,329
1102,5	16,729
1102,9	17,386
1103,3	20,929
1103,7	18,614
1104,2	16,357
1104,6	19,557
1105	15,614
1105,4	10,186
1105,8	6,929
1106,2	5,043
1106,6	4,329
1107	3,214
1107,4	0,767
1107,8	0,58
1108,3	-0,5
