Data from Subt2_191.txt Node
Date: Sat Aug 26 18:42:48 MSK 2023
User: vat
Spectrometer: MAYP114033
Trigger mode: 0
Integration Time (sec): 1,000000E0
Scans to average: 5
Electric dark correction enabled: true
Nonlinearity correction enabled: false
Boxcar width: 3
XAxis mode: Wavelengths
Number of Pixels in Spectrum: 2068
>>>>>Begin Spectral Data<<<<<
199,4	-1,317
199,9	-0,407
200,4	-0,967
200,8	1,633
201,3	1,176
201,8	4,919
202,2	5,319
202,7	9,633
203,2	7,233
203,6	8,919
204,1	4,776
204,6	4,29
205	4,576
205,5	3,062
206	0,862
206,4	2,805
206,9	2,605
207,4	5,176
207,8	4,462
208,3	3,462
208,8	2,205
209,2	3,348
209,7	5,405
210,2	4,633
210,6	3,29
211,1	5,09
211,5	-0,967
212	2,205
212,5	-4,052
212,9	-9,081
213,4	-7,224
213,9	-9,224
214,3	-9,424
214,8	-4,138
215,3	-9,252
215,7	-2,51
216,2	1,576
216,7	0,919
217,1	-2,367
217,6	-1,538
218,1	-1,852
218,5	-1,11
219	-8,538
219,5	-8,967
219,9	-10,281
220,4	4,148
220,9	7,062
221,3	7,119
221,8	12,376
222,3	17,919
222,7	18,948
223,2	17,69
223,6	5,919
224,1	2,462
224,6	3,233
225	-1,024
225,5	-3,224
226	-6,538
226,4	-4,71
226,9	-0,024
227,4	-3,567
227,8	-9,652
228,3	-7,481
228,8	-4,538
229,2	0,433
229,7	1,519
230,2	-1,167
230,6	5,405
231,1	12,89
231,5	13,69
232	12,205
232,5	9,605
232,9	9,29
233,4	11,405
233,9	3,548
234,3	-1,138
234,8	1,348
235,3	-1,481
235,7	-0,624
236,2	-2,51
236,7	0,862
237,1	10,319
237,6	12,005
238,1	9,49
238,5	7,29
239	7,376
239,4	13,005
239,9	8,605
240,4	5,033
240,8	5,948
241,3	2,405
241,8	4,805
242,2	4,148
242,7	-2,681
243,2	1,376
243,6	-0,624
244,1	0,519
244,6	8,319
245	9,033
245,5	7,862
245,9	6,49
246,4	4,519
246,9	7,148
247,3	5,719
247,8	1,205
248,3	5,176
248,7	6,49
249,2	7,719
249,7	4,29
250,1	5,605
250,6	2,376
251	3,376
251,5	2,176
252	1,976
252,4	6,319
252,9	5,433
253,4	2,748
253,8	1,233
254,3	3,433
254,8	-0,252
255,2	-4,395
255,7	-6,51
256,1	-3,995
256,6	-4,738
257,1	0,576
257,5	-7,51
258	-7,395
258,5	-3,738
258,9	-3,91
259,4	-4,852
259,9	-4,738
260,3	-9,481
260,8	-5,881
261,2	-4,481
261,7	-1,281
262,2	-4,395
262,6	-7,081
263,1	-7,138
263,6	0,29
264	3,176
264,5	1,519
264,9	0,748
265,4	6,519
265,9	9,433
266,3	14,062
266,8	15,605
267,3	13,033
267,7	14,005
268,2	10,919
268,7	5,948
269,1	4,776
269,6	0,89
270	-3,424
270,5	-4,938
271	-1,967
271,4	-3,51
271,9	-3,71
272,4	0,748
272,8	0,776
273,3	0,005
273,7	3,69
274,2	2,319
274,7	5,49
275,1	8,376
275,6	11,348
276,1	12,433
276,5	14,062
277	11,405
277,4	11,833
277,9	14,262
278,4	12,005
278,8	9,319
279,3	8,662
279,8	7,462
280,2	10,148
280,7	15,005
281,1	8,005
281,6	7,548
282,1	5,005
282,5	4,205
283	4,262
283,4	2,09
283,9	-0,824
284,4	9,148
284,8	9,833
285,3	8,633
285,8	9,033
286,2	7,062
286,7	6,005
287,1	4,462
287,6	-0,367
288,1	-1,91
288,5	0,433
289	0,919
289,5	1,119
289,9	1,633
290,4	4,69
290,8	2,519
291,3	3,005
291,8	2,576
292,2	-3,681
292,7	-0,424
293,1	0,548
293,6	-1,881
294,1	-0,024
294,5	2,462
295	1,776
295,5	7,748
295,9	4,519
296,4	2,69
296,8	-0,195
297,3	0,462
297,8	-4,71
298,2	-5,452
298,7	-2,51
299,1	-0,424
299,6	-1,395
300,1	3,919
300,5	2,319
301	9,976
301,5	15,062
301,9	12,062
302,4	10,919
302,8	16,719
303,3	15,348
303,8	9,519
304,2	8,576
304,7	1,748
305,1	-3,024
305,6	-1,681
306,1	-1,538
306,5	-2,424
307	7,633
307,4	8,69
307,9	11,633
308,4	14,49
308,8	11,09
309,3	10,348
309,8	9,205
310,2	6,862
310,7	3,633
311,1	4,062
311,6	7,348
312,1	10,319
312,5	11,09
313	13,89
313,4	13,919
313,9	13,89
314,4	12,376
314,8	9,148
315,3	6,576
315,7	1,033
316,2	-2,281
316,7	-4,138
317,1	4,319
317,6	7,748
318	12,376
318,5	13,576
319	15,805
319,4	15,833
319,9	16,776
320,3	10,633
320,8	5,776
321,3	4,69
321,7	9,005
322,2	7,548
322,6	7,005
323,1	4,976
323,6	4,433
324	4,233
324,5	1,148
324,9	0,033
325,4	2,233
325,9	7,433
326,3	12,576
326,8	16,062
327,2	9,29
327,7	9,062
328,2	7,719
328,6	8,119
329,1	1,548
329,5	-0,167
330	-4,824
330,5	7,919
330,9	11,719
331,4	9,748
331,8	7,89
332,3	8,89
332,8	3,005
333,2	2,89
333,7	-0,224
334,1	-4,024
334,6	-4,338
335,1	-6,681
335,5	-5,881
336	-2,481
336,4	-0,11
336,9	4,919
337,4	10,233
337,8	10,919
338,3	14,233
338,7	17,348
339,2	15,89
339,7	18,319
340,1	12,005
340,6	7,89
341	5,176
341,5	6,005
342	-0,481
342,4	-0,081
342,9	-5,852
343,3	-3,252
343,8	-2,881
344,2	0,89
344,7	3,29
345,2	3,519
345,6	4,205
346,1	6,49
346,5	2,462
347	-0,767
347,5	-2,91
347,9	-2,595
348,4	2,176
348,8	4,69
349,3	6,319
349,8	6,605
350,2	13,719
350,7	16,433
351,1	16,862
351,6	20,833
352	22,833
352,5	28,433
353	38,348
353,4	43,833
353,9	52,205
354,3	60,119
354,8	71,262
355,3	89,233
355,7	105,576
356,2	128,176
356,6	155,748
357,1	183,662
357,5	223,433
358	261,805
358,5	302,69
358,9	355,29
359,4	410,148
359,8	466,262
360,3	540,49
360,8	612,89
361,2	702,576
361,7	804,89
362,1	910,948
362,6	1027,776
363	1156,633
363,5	1286,49
364	1431,148
364,4	1572,29
364,9	1706,89
365,3	1841,119
365,8	1967,462
366,3	2091,033
366,7	2202,033
367,2	2296,89
367,6	2372,919
368,1	2441,919
368,5	2485,719
369	2512,89
369,5	2522,233
369,9	2507,633
370,4	2467,033
370,8	2418,29
371,3	2343,176
371,7	2258,405
372,2	2166,033
372,7	2061,519
373,1	1948,319
373,6	1839,262
374	1726,148
374,5	1611,319
374,9	1501,376
375,4	1388,776
375,9	1280,576
376,3	1184,405
376,8	1088,833
377,2	999,69
377,7	916,662
378,2	841,519
378,6	772,633
379,1	707,319
379,5	650,376
380	599,348
380,4	545,462
380,9	503,348
381,4	463,348
381,8	428,89
382,3	396,262
382,7	364,519
383,2	335,49
383,6	313,433
384,1	292,548
384,6	274,405
385	254,548
385,5	237,919
385,9	220,69
386,4	203,29
386,8	190,462
387,3	178,005
387,7	162,776
388,2	154,462
388,7	141,805
389,1	134,862
389,6	129,976
390	119,948
390,5	114,233
390,9	111,376
391,4	99,719
391,9	96,748
392,3	93,148
392,8	84,405
393,2	75,405
393,7	64,233
394,1	56,748
394,6	53,262
395,1	50,976
395,5	45,633
396	45,49
396,4	47,405
396,9	50,005
397,3	51,862
397,8	55,748
398,2	54,376
398,7	53,262
399,2	55,176
399,6	58,605
400,1	56,233
400,5	46,433
401	44,29
401,4	40,719
401,9	40,376
402,4	39,29
402,8	33,662
403,3	39,319
403,7	43,033
404,2	47,148
404,6	48,976
405,1	50,719
405,5	46,919
406	51,376
406,5	46,348
406,9	52,262
407,4	50,176
407,8	52,233
408,3	56,69
408,7	59,776
409,2	66,148
409,6	71,176
410,1	73,405
410,6	79,576
411	86,919
411,5	85,376
411,9	95,776
412,4	95,176
412,8	98,776
413,3	104,976
413,7	108,776
414,2	110,062
414,7	123,69
415,1	137,348
415,6	145,662
416	157,919
416,5	169,29
416,9	178,233
417,4	188,005
417,8	199,348
418,3	203,919
418,8	216,49
419,2	226,919
419,7	235,776
420,1	241,948
420,6	257,319
421	263,976
421,5	276,062
421,9	290,69
422,4	306,519
422,8	314,633
423,3	329,49
423,8	338,805
424,2	347,919
424,7	359,033
425,1	373,005
425,6	387,09
426	408,376
426,5	430,976
426,9	457,662
427,4	482,605
427,9	496,748
428,3	517,919
428,8	540,576
429,2	562,29
429,7	588,519
430,1	605,033
430,6	632,176
431	668,462
431,5	698,205
431,9	726,462
432,4	759,433
432,8	795,348
433,3	837,09
433,8	877,805
434,2	920,633
434,7	965,49
435,1	1012,29
435,6	1060,262
436	1109,148
436,5	1162,633
436,9	1217,09
437,4	1268,662
437,8	1325,119
438,3	1386,376
438,8	1446,005
439,2	1504,833
439,7	1570,005
440,1	1636,148
440,6	1712,919
441	1782,948
441,5	1853,605
441,9	1936,69
442,4	2014,119
442,8	2094,176
443,3	2178,919
443,7	2262,862
444,2	2356,49
444,7	2452,605
445,1	2546,862
445,6	2649,262
446	2756,833
446,5	2856,148
446,9	2956,462
447,4	3062,776
447,8	3170,89
448,3	3282,862
448,7	3398,89
449,2	3504,748
449,6	3628,776
450,1	3756,005
450,6	3884,719
451	4015,919
451,5	4147,376
451,9	4280,919
452,4	4426,633
452,8	4566,29
453,3	4706,805
453,7	4844,805
454,2	4991,148
454,6	5138,69
455,1	5293,405
455,5	5435,49
456	5590,89
456,4	5745,748
456,9	5905,433
457,3	6055,09
457,8	6203,49
458,3	6360,805
458,7	6530,89
459,2	6690,119
459,6	6856,576
460,1	7032,033
460,5	7203,833
461	7382,548
461,4	7548,405
461,9	7716,405
462,3	7892,262
462,8	8063,633
463,2	8220,033
463,7	8391,633
464,1	8565,519
464,6	8741,005
465	8907,09
465,5	9078,519
466	9245,833
466,4	9419,29
466,9	9598,548
467,3	9769,748
467,8	9940,29
468,2	10121,89
468,7	10292,005
469,1	10466,319
469,6	10634,148
470	10801,805
470,5	10964,748
470,9	11120,462
471,4	11263,033
471,8	11420,805
472,3	11569,233
472,7	11723,69
473,2	11860,776
473,6	12004,49
474,1	12154,548
474,5	12308,633
475	12446,29
475,4	12594,005
475,9	12733,605
476,4	12871,005
476,8	12994,633
477,3	13119,119
477,7	13232,548
478,2	13344,319
478,6	13449,376
479,1	13546,119
479,5	13630,09
480	13722,262
480,4	13817,176
480,9	13913,548
481,3	13989,976
481,8	14070,176
482,2	14146,319
482,7	14231,49
483,1	14298,119
483,6	14355,976
484	14406,433
484,5	14474,405
484,9	14526,233
485,4	14573,205
485,8	14614,576
486,3	14664,405
486,7	14696,348
487,2	14724,948
487,6	14736,576
488,1	14751,148
488,5	14761,176
489	14770,29
489,4	14778,09
489,9	14770,29
490,4	14766,348
490,8	14766,948
491,3	14761,49
491,7	14740,69
492,2	14724,862
492,6	14697,605
493,1	14667,405
493,5	14626,119
494	14579,262
494,4	14523,119
494,9	14479,462
495,3	14431,033
495,8	14379,262
496,2	14336,633
496,7	14275,662
497,1	14228,719
497,6	14179,976
498	14132,519
498,5	14061,49
498,9	13982,776
499,4	13914,29
499,8	13855,548
500,3	13783,09
500,7	13703,776
501,2	13622,005
501,6	13543,748
502,1	13475,976
502,5	13399,833
503	13320,376
503,4	13223,49
503,9	13142,348
504,3	13049,376
504,8	12956,776
505,2	12870,748
505,7	12772,605
506,1	12679,119
506,6	12584,576
507	12474,233
507,5	12371,776
507,9	12279,89
508,4	12169,005
508,8	12060,89
509,3	11956,862
509,7	11859,462
510,2	11758,433
510,6	11656,948
511,1	11542,662
511,5	11440,719
512	11335,233
512,4	11225,262
512,9	11111,576
513,3	11003,833
513,8	10895,262
514,2	10797,69
514,7	10679,776
515,1	10577,405
515,6	10476,233
516	10368,005
516,5	10260,976
516,9	10152,005
517,4	10044,348
517,8	9951,348
518,3	9834,148
518,7	9725,376
519,2	9620,662
519,6	9517,805
520,1	9414,519
520,5	9304,29
521	9182,662
521,4	9086,176
521,9	8978,948
522,3	8879,89
522,8	8780,433
523,2	8679,976
523,7	8582,89
524,1	8499,033
524,6	8404,519
525	8308,062
525,5	8213,862
525,9	8123,748
526,4	8036,205
526,8	7945,719
527,3	7856,576
527,7	7763,148
528,2	7682,119
528,6	7594,605
529,1	7501,176
529,5	7415,719
530	7329,662
530,4	7245,319
530,9	7164,833
531,3	7089,148
531,8	7005,69
532,2	6931,862
532,6	6853,176
533,1	6776,09
533,5	6696,976
534	6623,548
534,4	6539,176
534,9	6475,233
535,3	6404,433
535,8	6336,948
536,2	6267,433
536,7	6198,233
537,1	6127,948
537,6	6062,833
538	5991,319
538,5	5926,148
538,9	5854,033
539,4	5791,69
539,8	5727,605
540,3	5670,148
540,7	5607,69
541,2	5548,462
541,6	5484,433
542,1	5434,262
542,5	5376,948
543	5324,205
543,4	5266,233
543,9	5211,805
544,3	5160,576
544,8	5106,89
545,2	5051,919
545,7	5001,605
546,1	4953,062
546,5	4906,748
547	4859,205
547,4	4807,433
547,9	4758,748
548,3	4709,205
548,8	4666,233
549,2	4620,548
549,7	4569,205
550,1	4528,062
550,6	4486,833
551	4445,662
551,5	4400,548
551,9	4355,605
552,4	4314,548
552,8	4275,262
553,3	4227,033
553,7	4192,462
554,2	4161,376
554,6	4127,805
555,1	4093,319
555,5	4050,89
555,9	4023,148
556,4	3991,262
556,8	3944,748
557,3	3905,09
557,7	3874,233
558,2	3840,519
558,6	3815,662
559,1	3773,576
559,5	3746,433
560	3721,605
560,4	3689,176
560,9	3655,89
561,3	3618,405
561,8	3585,605
562,2	3562,662
562,7	3535,176
563,1	3504,176
563,6	3472,09
564	3440,405
564,4	3416,948
564,9	3389,09
565,3	3359,605
565,8	3332,119
566,2	3304,605
566,7	3281,576
567,1	3260,148
567,6	3233,576
568	3207,262
568,5	3181,176
568,9	3148,005
569,4	3129,233
569,8	3104,033
570,3	3082,948
570,7	3059,176
571,1	3041,548
571,6	3025,662
572	3016,205
572,5	2986,805
572,9	2968,176
573,4	2946,576
573,8	2935,233
574,3	2906,976
574,7	2878,405
575,2	2850,69
575,6	2832,89
576,1	2815,662
576,5	2797,376
576,9	2763,49
577,4	2742,09
577,8	2721,719
578,3	2698,376
578,7	2680,148
579,2	2655,29
579,6	2633,033
580,1	2618,176
580,5	2601,033
581	2588,005
581,4	2577,005
581,9	2557,776
582,3	2545,348
582,7	2531,548
583,2	2515,605
583,6	2499,233
584,1	2482,433
584,5	2459,119
585	2444,89
585,4	2418,405
585,9	2396,348
586,3	2385,89
586,8	2376,433
587,2	2357,719
587,6	2347,319
588,1	2336,233
588,5	2325,548
589	2309,348
589,4	2289,805
589,9	2265,29
590,3	2250,576
590,8	2231,262
591,2	2217,576
591,7	2208,462
592,1	2195,119
592,5	2183,89
593	2174,405
593,4	2161,119
593,9	2152,405
594,3	2131,976
594,8	2117,719
595,2	2106,062
595,7	2095,776
596,1	2082,319
596,6	2071,919
597	2060,69
597,4	2053,919
597,9	2044,205
598,3	2037,49
598,8	2019,062
599,2	2006,719
599,7	1999,833
600,1	1985,405
600,6	1973,919
601	1962,748
601,4	1956,148
601,9	1953,005
602,3	1944,662
602,8	1929,49
603,2	1920,319
603,7	1905,89
604,1	1895,119
604,6	1879,29
605	1860,176
605,4	1849,233
605,9	1836,005
606,3	1823,69
606,8	1811,233
607,2	1795,69
607,7	1781,148
608,1	1775,49
608,6	1769,805
609	1765,348
609,4	1759,005
609,9	1753,205
610,3	1749,862
610,8	1742,433
611,2	1729,405
611,7	1714,805
612,1	1702,548
612,6	1690,662
613	1681,005
613,4	1668,119
613,9	1655,662
614,3	1643,062
614,8	1638,862
615,2	1625,948
615,7	1615,748
616,1	1605,919
616,6	1593,662
617	1585,948
617,4	1579,462
617,9	1567,148
618,3	1560,719
618,8	1552,719
619,2	1541,176
619,7	1538,09
620,1	1530,09
620,5	1526,919
621	1516,462
621,4	1508,233
621,9	1493,09
622,3	1484,462
622,8	1469,548
623,2	1459,662
623,6	1445,433
624,1	1441,176
624,5	1431,233
625	1428,719
625,4	1421,176
625,9	1413,119
626,3	1407,119
626,8	1392,862
627,2	1379,49
627,6	1365,376
628,1	1352,005
628,5	1345,605
629	1330,462
629,4	1316,776
629,9	1313,805
630,3	1305,548
630,7	1297,776
631,2	1294,748
631,6	1280,776
632,1	1280,49
632,5	1270,29
633	1262,805
633,4	1250,405
633,8	1248,719
634,3	1236,69
634,7	1230,948
635,2	1217,948
635,6	1213,948
636,1	1205,29
636,5	1198,748
636,9	1182,49
637,4	1176,662
637,8	1167,519
638,3	1159,633
638,7	1151,262
639,2	1143,948
639,6	1141,519
640	1135,376
640,5	1130,605
640,9	1121,119
641,4	1118,148
641,8	1112,433
642,2	1104,376
642,7	1100,462
643,1	1099,433
643,6	1092,49
644	1090,748
644,5	1083,348
644,9	1075,605
645,3	1074,833
645,8	1062,462
646,2	1059,176
646,7	1048,148
647,1	1037,348
647,6	1032,148
648	1029,433
648,4	1012,948
648,9	1007,319
649,3	992,748
649,8	991,462
650,2	988,405
650,6	979,833
651,1	970,205
651,5	972,09
652	966,519
652,4	963,49
652,9	955,033
653,3	951,005
653,7	946,462
654,2	943,319
654,6	931,89
655,1	928,09
655,5	925,148
655,9	920,148
656,4	916,119
656,8	911,205
657,3	902,376
657,7	902,548
658,2	890,462
658,6	880,576
659	872,919
659,5	863,948
659,9	855,29
660,4	847,69
660,8	834,69
661,2	831,09
661,7	825,233
662,1	819,262
662,6	811,605
663	807,748
663,4	803,319
663,9	803,862
664,3	797,176
664,8	789,776
665,2	779,719
665,6	774,805
666,1	770,148
666,5	769,662
667	762,09
667,4	754,005
667,9	750,09
668,3	747,633
668,7	741,748
669,2	737,776
669,6	727,748
670,1	722,348
670,5	720,719
670,9	719,148
671,4	713,805
671,8	712,662
672,3	711,69
672,7	704,948
673,1	698,719
673,6	693,605
674	688,119
674,5	682,148
674,9	673,205
675,3	663,919
675,8	661,262
676,2	656,405
676,7	652,005
677,1	644,805
677,5	640,548
678	638,776
678,4	633,919
678,9	628,09
679,3	625,719
679,7	621,576
680,2	614,033
680,6	610,376
681,1	609,776
681,5	606,405
681,9	606,833
682,4	601,69
682,8	595,719
683,3	597,519
683,7	595,976
684,1	586,062
684,6	581,119
685	574,433
685,5	569,576
685,9	562,348
686,3	554,376
686,8	551,262
687,2	548,433
687,7	543,462
688,1	534,205
688,5	529,948
689	527,262
689,4	518,976
689,9	514,205
690,3	508,176
690,7	507,605
691,2	509,719
691,6	508,719
692	508,176
692,5	512,405
692,9	508,548
693,4	505,062
693,8	497,29
694,2	495,262
694,7	490,49
695,1	487,405
695,6	481,405
696	481,576
696,4	479,376
696,9	474,548
697,3	467,405
697,8	463,748
698,2	461,205
698,6	461,348
699,1	455,662
699,5	454,805
699,9	450,833
700,4	442,005
700,8	443,062
701,3	439,576
701,7	434,033
702,1	429,433
702,6	423,605
703	424,576
703,5	425,576
703,9	418,262
704,3	414,576
704,8	410,805
705,2	406,033
705,6	401,776
706,1	400,69
706,5	395,69
707	394,748
707,4	394,376
707,8	389,576
708,3	390,148
708,7	384,862
709,2	379,605
709,6	379,89
710	377,605
710,5	372,89
710,9	368,348
711,3	364,776
711,8	368,09
712,2	366,405
712,7	365,176
713,1	360,605
713,5	358,405
714	360,976
714,4	355,062
714,8	353,462
715,3	346,919
715,7	344,519
716,2	341,548
716,6	339,719
717	333,576
717,5	329,862
717,9	329,348
718,3	325,576
718,8	325,719
719,2	319,948
719,7	314,033
720,1	314,033
720,5	319,49
721	313,576
721,4	313,633
721,8	308,405
722,3	307,976
722,7	311,633
723,2	303,719
723,6	293,033
724	289,119
724,5	288,605
724,9	285,719
725,3	283,205
725,8	277,205
726,2	277,69
726,7	279,433
727,1	275,033
727,5	274,633
728	270,948
728,4	269,576
728,8	267,376
729,3	263,005
729,7	256,605
730,1	259,49
730,6	253,348
731	250,205
731,5	247,176
731,9	246,548
732,3	250,719
732,8	255,862
733,2	252,462
733,6	256,148
734,1	254,148
734,5	252,405
734,9	256,062
735,4	255,919
735,8	244,033
736,3	246,719
736,7	241,319
737,1	241,262
737,6	243,948
738	236,919
738,4	233,262
738,9	240,776
739,3	234,262
739,7	234,719
740,2	232,233
740,6	232,233
741,1	233,748
741,5	230,976
741,9	228,576
742,4	230,319
742,8	227,89
743,2	230,119
743,7	219,548
744,1	209,405
744,5	207,805
745	204,948
745,4	197,49
745,8	197,233
746,3	191,548
746,7	193,919
747,2	198,776
747,6	200,919
748	207,433
748,5	213,862
748,9	206,09
749,3	207,805
749,8	209,376
750,2	208,89
750,6	203,319
751,1	198,519
751,5	192,148
751,9	196,205
752,4	197,548
752,8	196,633
753,3	195,576
753,7	198,49
754,1	194,862
754,6	195,233
755	189,69
755,4	185,69
755,9	184,576
756,3	177,576
756,7	176,633
757,2	173,062
757,6	170,833
758	170,205
758,5	168,833
758,9	164,262
759,3	168,748
759,8	166,148
760,2	163,519
760,6	164,262
761,1	163,633
761,5	163,662
761,9	163,233
762,4	158,748
762,8	157,805
763,3	158,976
763,7	158,919
764,1	161,005
764,6	161,719
765	164,348
765,4	164,405
765,9	161,519
766,3	162,605
766,7	158,29
767,2	155,919
767,6	157,776
768	152,89
768,5	150,005
768,9	150,033
769,3	148,662
769,8	144,548
770,2	146,69
770,6	141,062
771,1	142,662
771,5	145,862
771,9	150,605
772,4	147,319
772,8	153,033
773,2	153,719
773,7	154,176
774,1	154,948
774,5	148,262
775	141,519
775,4	145,376
775,8	137,462
776,3	135,119
776,7	134,262
777,1	129,862
777,6	133,376
778	134,89
778,4	130,29
778,9	134,062
779,3	131,462
779,7	133,605
780,2	136,548
780,6	138,805
781	134,376
781,5	133,433
781,9	133,49
782,3	130,148
782,8	124,633
783,2	119,69
783,6	115,176
784,1	112,719
784,5	109,719
784,9	107,233
785,4	110,776
785,8	111,576
786,2	111,005
786,7	107,376
787,1	109,176
787,5	113,29
788	113,433
788,4	113,776
788,8	112,262
789,3	115,776
789,7	118,719
790,1	116,119
790,6	115,148
791	113,976
791,4	112,49
791,9	114,405
792,3	105,433
792,7	107,205
793,2	104,49
793,6	102,09
794	99,376
794,5	97,862
794,9	97,433
795,3	101,833
795,8	101,519
796,2	105,376
796,6	104,062
797,1	105,748
797,5	100,433
797,9	95,719
798,4	93,89
798,8	87,833
799,2	88,576
799,7	91,776
800,1	86,976
800,5	88,348
801	91,205
801,4	89,719
801,8	89,605
802,2	88,633
802,7	83,262
803,1	86,148
803,5	86,433
804	81,062
804,4	81,262
804,8	83,805
805,3	85,09
805,7	88,262
806,1	86,348
806,6	86,633
807	85,29
807,4	80,319
807,9	77,119
808,3	75,319
808,7	71,233
809,2	78,005
809,6	77,919
810	80,833
810,4	88,576
810,9	87,69
811,3	89,09
811,7	94,29
812,2	92,319
812,6	87,062
813	88,233
813,5	85,033
813,9	86,462
814,3	79,948
814,8	74,319
815,2	68,176
815,6	67,605
816,1	67,833
816,5	65,405
816,9	64,319
817,3	66,062
817,8	72,262
818,2	72,49
818,6	74,833
819,1	71,405
819,5	71,49
819,9	70,748
820,4	71,262
820,8	64,462
821,2	64,805
821,7	66,89
822,1	68,148
822,5	73,205
822,9	76,005
823,4	74,09
823,8	77,748
824,2	75,662
824,7	70,148
825,1	65,433
825,5	62,005
826	57,519
826,4	53,29
826,8	51,148
827,3	54,833
827,7	53,519
828,1	56,09
828,5	53,005
829	50,833
829,4	54,176
829,8	46,29
830,3	42,919
830,7	44,862
831,1	43,605
831,6	46,576
832	45,29
832,4	44,49
832,8	48,862
833,3	51,69
833,7	48,548
834,1	46,09
834,6	39,919
835	43,462
835,4	43,633
835,8	40,462
836,3	37,119
836,7	41,119
837,1	43,033
837,6	47,576
838	43,862
838,4	45,576
838,9	48,233
839,3	43,576
839,7	42,919
840,1	35,662
840,6	32,89
841	36,462
841,4	32,776
841,9	32,919
842,3	37,805
842,7	38,148
843,1	44,862
843,6	47,948
844	47,433
844,4	52,233
844,9	53,748
845,3	52,348
845,7	50,319
846,2	46,89
846,6	41,548
847	40,205
847,4	36,948
847,9	34,776
848,3	34,633
848,7	37,29
849,2	38,376
849,6	35,633
850	37,633
850,4	36,433
850,9	38,119
851,3	37,748
851,7	37,948
852,2	40,433
852,6	47,576
853	45,748
853,4	46,348
853,9	42,69
854,3	45,776
854,7	43,748
855,2	38,233
855,6	31,719
856	28,005
856,4	23,119
856,9	24,862
857,3	23,033
857,7	26,633
858,2	33,262
858,6	36,89
859	40,205
859,4	45,205
859,9	43,633
860,3	40,062
860,7	36,89
861,1	37,148
861,6	35,119
862	34,433
862,4	31,633
862,9	34,919
863,3	36,748
863,7	38,89
864,1	37,205
864,6	38,29
865	36,919
865,4	39,29
865,9	35,319
866,3	29,862
866,7	24,69
867,1	19,576
867,6	20,233
868	19,376
868,4	17,433
868,8	17,29
869,3	20,633
869,7	26,233
870,1	28,805
870,6	25,519
871	8,976
871,4	14,29
871,8	12,776
872,3	16,005
872,7	12,748
873,1	9,433
873,5	8,633
874	23,09
874,4	16,09
874,8	12,948
875,3	10,119
875,7	2,69
876,1	8,033
876,5	9,205
877	9,033
877,4	11,033
877,8	17,748
878,2	22,176
878,7	29,919
879,1	25,29
879,5	27,719
879,9	31,062
880,4	32,748
880,8	34,09
881,2	30,662
881,7	27,405
882,1	31,948
882,5	27,376
882,9	25,919
883,4	25,262
883,8	21,462
884,2	21,176
884,6	19,633
885,1	14,89
885,5	18,662
885,9	18,948
886,3	18,833
886,8	19,348
887,2	15,49
887,6	14,862
888	17,605
888,5	14,948
888,9	13,09
889,3	7,862
889,8	6,119
890,2	5,462
890,6	6,433
891	3,462
891,5	5,062
891,9	11,319
892,3	14,205
892,7	15,262
893,2	21,09
893,6	22,176
894	26,633
894,4	24,976
894,9	18,548
895,3	19,662
895,7	21,348
896,1	18,89
896,6	18,776
897	18,662
897,4	23,948
897,8	24,233
898,3	23,548
898,7	21,862
899,1	22,605
899,5	22,119
900	15,49
900,4	13,633
900,8	16,976
901,2	12,348
901,7	9,719
902,1	7,976
902,5	10,548
902,9	13,062
903,4	12,033
903,8	9,548
904,2	13,262
904,6	15,319
905,1	16,833
905,5	15,833
905,9	16,205
906,3	19,262
906,8	18,433
907,2	20,29
907,6	23,462
908	22,062
908,5	17,405
908,9	17,519
909,3	15,233
909,7	15,405
910,2	10,148
910,6	8,405
911	4,919
911,4	9,005
911,9	6,405
912,3	0,576
912,7	4,148
913,1	10,519
913,6	7,033
914	11,205
914,4	9,433
914,8	15,005
915,3	16,548
915,7	15,433
916,1	12,09
916,5	15,519
916,9	13,833
917,4	13,633
917,8	10,719
918,2	9,776
918,6	6,119
919,1	8,976
919,5	9,319
919,9	7,833
920,3	7,462
920,8	5,776
921,2	8,262
921,6	7,462
922	5,205
922,5	2,519
922,9	5,576
923,3	4,862
923,7	4,119
924,2	-0,938
924,6	3,319
925	1,605
925,4	0,29
925,8	2,09
926,3	1,348
926,7	0,005
927,1	3,062
927,5	0,89
928	-2,224
928,4	-1,795
928,8	-2,167
929,2	-1,652
929,7	2,233
930,1	3,919
930,5	2,348
930,9	11,09
931,3	13,805
931,8	9,548
932,2	9,062
932,6	2,462
933	-1,024
933,5	0,233
933,9	-1,995
934,3	-4,081
934,7	-1,281
935,2	0,605
935,6	5,948
936	9,576
936,4	9,405
936,8	10,005
937,3	8,662
937,7	10,005
938,1	11,919
938,5	9,062
939	7,976
939,4	7,833
939,8	4,576
940,2	3,005
940,6	4,176
941,1	1,662
941,5	10,376
941,9	11,233
942,3	12,948
942,8	11,89
943,2	12,176
943,6	6,548
944	7,233
944,4	5,405
944,9	-1,51
945,3	-3,795
945,7	-5,51
946,1	-5,195
946,6	-6,681
947	-5,51
947,4	-6,681
947,8	-1,395
948,2	-4,538
948,7	-0,252
949,1	-1,081
949,5	5,376
949,9	3,148
950,3	1,462
950,8	1,89
951,2	6,176
951,6	0,433
952	4,376
952,5	-1,995
952,9	1,29
953,3	1,062
953,7	1,548
954,1	4,205
954,6	6,776
955	10,033
955,4	10,205
955,8	12,862
956,2	13,262
956,7	14,976
957,1	9,719
957,5	12,348
957,9	10,376
958,3	16,49
958,8	13,919
959,2	12,176
959,6	13,319
960	14,576
960,5	15,205
960,9	16,576
961,3	11,262
961,7	6,662
962,1	5,29
962,6	5,09
963	4,376
963,4	0,205
963,8	-1,652
964,2	-0,481
964,7	2,662
965,1	7,976
965,5	5,748
965,9	6,062
966,3	9,205
966,8	10,176
967,2	8,519
967,6	7,205
968	0,748
968,4	1,205
968,9	1,862
969,3	7,205
969,7	0,148
970,1	5,29
970,5	3,119
971	4,119
971,4	0,633
971,8	0,748
972,2	-3,252
972,6	0,033
973,1	-7,11
973,5	-3,052
973,9	0,233
974,3	0,062
974,7	6,319
975,2	4,719
975,6	1,462
976	7,776
976,4	5,062
976,8	0,319
977,3	2,805
977,7	-3,367
978,1	-2,767
978,5	0,576
978,9	-3,91
979,4	-4,395
979,8	-1,338
980,2	-0,852
980,6	-5,395
981	-2,481
981,5	-2,424
981,9	-0,624
982,3	-0,081
982,7	-0,138
983,1	-2,052
983,6	4,805
984	1,148
984,4	1,548
984,8	-1,31
985,2	-3,224
985,6	-2,71
986,1	1,005
986,5	-2,338
986,9	-5,967
987,3	-1,938
987,7	4,205
988,2	5,319
988,6	4,833
989	0,205
989,4	2,09
989,8	6,462
990,3	0,948
990,7	-4,281
991,1	-6,281
991,5	-4,367
991,9	1,262
992,3	2,376
992,8	3,89
993,2	6,633
993,6	10,062
994	15,548
994,4	17,776
994,9	15,005
995,3	12,748
995,7	4,662
996,1	2,948
996,5	6,062
996,9	0,462
997,4	0,262
997,8	-5,11
998,2	-5,138
998,6	-6,738
999	-6,738
999,5	-12,595
999,9	-7,224
1000,3	-11,11
1000,7	-6,024
1001,1	-7,167
1001,5	-1,681
1002	1,748
1002,4	2,062
1002,8	0,948
1003,2	4,833
1003,6	6,662
1004	8,062
1004,5	4,89
1004,9	3,69
1005,3	0,49
1005,7	0,29
1006,1	-4,51
1006,6	-6,338
1007	-5,395
1007,4	-2,967
1007,8	-1,281
1008,2	-1,624
1008,6	0,376
1009,1	2,605
1009,5	3,462
1009,9	4,919
1010,3	6,033
1010,7	2,862
1011,1	6,348
1011,6	5,405
1012	3,776
1012,4	4,319
1012,8	-0,224
1013,2	5,376
1013,6	8,29
1014,1	8,376
1014,5	8,319
1014,9	8,662
1015,3	6,033
1015,7	8,633
1016,1	1,119
1016,6	-2,11
1017	-2,995
1017,4	-2,024
1017,8	-4,11
1018,2	-0,167
1018,6	-4,51
1019,1	-3,081
1019,5	-2,795
1019,9	-6,395
1020,3	-10,338
1020,7	-6,081
1021,1	-6,767
1021,6	-3,738
1022	-3,424
1022,4	0,376
1022,8	4,462
1023,2	7,89
1023,6	5,89
1024,1	8,405
1024,5	9,09
1024,9	7,662
1025,3	0,633
1025,7	2,062
1026,1	4,062
1026,6	6,405
1027	5,748
1027,4	11,519
1027,8	12,548
1028,2	13,033
1028,6	16,29
1029	12,262
1029,5	12,376
1029,9	7,262
1030,3	-0,11
1030,7	2,005
1031,1	8,405
1031,5	3,148
1032	3,948
1032,4	4,262
1032,8	6,976
1033,2	12,176
1033,6	10,69
1034	7,262
1034,4	10,862
1034,9	10,319
1035,3	3,69
1035,7	3,605
1036,1	-2,852
1036,5	-6,71
1036,9	-4,71
1037,4	-3,481
1037,8	-8,052
1038,2	-2,852
1038,6	-7,31
1039	-3,852
1039,4	1,348
1039,8	-3,652
1040,3	-3,967
1040,7	-0,51
1041,1	2,09
1041,5	3,205
1041,9	2,719
1042,3	2,862
1042,7	9,576
1043,2	4,862
1043,6	4,462
1044	2,462
1044,4	2,776
1044,8	3,605
1045,2	3,005
1045,6	-4,824
1046,1	-5,595
1046,5	-2,167
1046,9	-2,338
1047,3	-1,195
1047,7	-2,052
1048,1	-7,31
1048,5	-1,424
1049	3,919
1049,4	4,176
1049,8	4,605
1050,2	6,462
1050,6	9,462
1051	17,005
1051,4	16,148
1051,9	15,205
1052,3	16,805
1052,7	18,519
1053,1	16,862
1053,5	17,89
1053,9	14,062
1054,3	14,405
1054,8	16,348
1055,2	12,462
1055,6	11,148
1056	11,148
1056,4	6,062
1056,8	9,662
1057,2	5,919
1057,6	1,576
1058,1	-0,652
1058,5	-6,167
1058,9	-2,052
1059,3	4,233
1059,7	2,176
1060,1	7,033
1060,5	8,433
1061	10,376
1061,4	9,862
1061,8	8,633
1062,2	5,89
1062,6	7,662
1063	9,233
1063,4	8,548
1063,8	9,462
1064,3	10,405
1064,7	5,605
1065,1	8,005
1065,5	2,176
1065,9	-1,91
1066,3	-4,224
1066,7	-3,595
1067,1	-6,795
1067,6	-2,652
1068	-13,052
1068,4	-7,852
1068,8	-2,738
1069,2	-0,167
1069,6	-2,052
1070	3,662
1070,4	1,205
1070,9	4,748
1071,3	3,776
1071,7	-0,967
1072,1	1,748
1072,5	-1,11
1072,9	-0,71
1073,3	2,49
1073,7	0,005
1074,2	1,462
1074,6	3,376
1075	-3,738
1075,4	-4,452
1075,8	-3,167
1076,2	-0,224
1076,6	3,833
1077	1,633
1077,5	1,062
1077,9	6,576
1078,3	8,119
1078,7	4,776
1079,1	0,205
1079,5	-0,338
1079,9	0,662
1080,3	-1,224
1080,7	0,233
1081,2	6,205
1081,6	5,605
1082	1,576
1082,4	4,69
1082,8	9,262
1083,2	9,119
1083,6	6,776
1084	2,033
1084,5	4,89
1084,9	7,062
1085,3	3,233
1085,7	2,862
1086,1	2,633
1086,5	5,662
1086,9	11,348
1087,3	10,833
1087,7	13,205
1088,2	16,262
1088,6	11,119
1089	10,176
1089,4	6,205
1089,8	3,976
1090,2	-0,052
1090,6	-0,481
1091	2,376
1091,4	2,662
1091,9	1,948
1092,3	0,833
1092,7	-2,567
1093,1	2,776
1093,5	1,405
1093,9	-2,252
1094,3	-0,11
1094,7	3,405
1095,1	6,062
1095,5	6,09
1096	3,433
1096,4	5,262
1096,8	4,433
1097,2	1,948
1097,6	3,69
1098	3,89
1098,4	7,319
1098,8	9,519
1099,2	12,862
1099,6	12,405
1100,1	12,376
1100,5	8,062
1100,9	9,005
1101,3	8,119
1101,7	3,919
1102,1	-1,281
1102,5	-0,252
1102,9	3,976
1103,3	5,09
1103,7	6,719
1104,2	5,605
1104,6	8,748
1105	5,662
1105,4	5,519
1105,8	1,033
1106,2	0,919
1106,6	-2,824
1107	-2,681
1107,4	-3,4
1107,8	0,793
1108,3	-0,017
