Data from Subt2_125.txt Node
Date: Sat Aug 26 18:24:23 MSK 2023
User: vat
Spectrometer: MAYP114033
Trigger mode: 0
Integration Time (sec): 1,000000E0
Scans to average: 5
Electric dark correction enabled: true
Nonlinearity correction enabled: false
Boxcar width: 3
XAxis mode: Wavelengths
Number of Pixels in Spectrum: 2068
>>>>>Begin Spectral Data<<<<<
199,4	-0,183
199,9	1,907
200,4	1,433
200,8	2,781
201,3	-0,162
201,8	3,438
202,2	1,724
202,7	7,324
203,2	3,467
203,6	2,81
204,1	-2,105
204,6	0,695
205	-3,219
205,5	-1,962
206	-9,248
206,4	-4,905
206,9	-4,19
207,4	0,352
207,8	0,867
208,3	-0,162
208,8	0,981
209,2	3,438
209,7	2,238
210,2	3,181
210,6	3,61
211,1	4,895
211,5	3,152
212	-0,248
212,5	-0,819
212,9	-3,648
213,4	-3,476
213,9	-5,019
214,3	-5,448
214,8	-1,905
215,3	-1,448
215,7	0,781
216,2	2,724
216,7	3,038
217,1	1,838
217,6	2,381
218,1	1,752
218,5	-0,048
219	-6,133
219,5	-4,848
219,9	-7,048
220,4	0,067
220,9	0,552
221,3	-2,448
221,8	0,438
222,3	3,924
222,7	5,667
223,2	3,638
223,6	-0,419
224,1	-6,362
224,6	0,581
225	-0,933
225,5	-0,476
226	-3,39
226,4	-0,019
226,9	-0,79
227,4	5,21
227,8	0,838
228,3	0,867
228,8	3,181
229,2	5,41
229,7	7,067
230,2	8,81
230,6	11,238
231,1	16,724
231,5	20,152
232	19,695
232,5	18,067
232,9	17,467
233,4	13,667
233,9	6,838
234,3	3,781
234,8	3,41
235,3	0,21
235,7	0,324
236,2	-4,019
236,7	-1,733
237,1	-0,648
237,6	-3,848
238,1	-5,133
238,5	-6,105
239	-9,048
239,4	-0,562
239,9	-3,99
240,4	-2,019
240,8	1,867
241,3	0,381
241,8	-1,705
242,2	1,01
242,7	-8,333
243,2	-5,905
243,6	-4,533
244,1	-5,505
244,6	-3,476
245	1,01
245,5	2,095
245,9	3,867
246,4	3,295
246,9	-0,076
247,3	1,124
247,8	5,267
248,3	5,324
248,7	3,067
249,2	7,667
249,7	6,295
250,1	8,295
250,6	1,724
251	2,01
251,5	-0,476
252	0,638
252,4	-1,819
252,9	-3,419
253,4	-7,362
253,8	-5,933
254,3	-10,533
254,8	-9,533
255,2	-13,133
255,7	-12,305
256,1	-7,248
256,6	-3,219
257,1	-0,162
257,5	-2,476
258	-1,905
258,5	-3,248
258,9	-4,39
259,4	-6,362
259,9	-7,162
260,3	-10,619
260,8	-8,505
261,2	-11,248
261,7	-3,848
262,2	-7,676
262,6	-8,305
263,1	-2,362
263,6	1,667
264	1,638
264,5	6,152
264,9	3,895
265,4	9,61
265,9	10,152
266,3	7,867
266,8	9,352
267,3	7,638
267,7	7,638
268,2	8,581
268,7	10,352
269,1	10,21
269,6	8,01
270	9,495
270,5	11,067
271	7,752
271,4	5,524
271,9	-2,019
272,4	2,01
272,8	2,41
273,3	-0,39
273,7	0,181
274,2	3,267
274,7	2,295
275,1	5,124
275,6	3,095
276,1	-2,019
276,5	-4,562
277	-5,733
277,4	-6,562
277,9	-1,905
278,4	-1,648
278,8	0,267
279,3	5,381
279,8	7,124
280,2	9,838
280,7	9,952
281,1	4,581
281,6	7,752
282,1	0,952
282,5	-1,048
283	0,038
283,4	-5,448
283,9	0,038
284,4	7,81
284,8	2,495
285,3	2,752
285,8	1,352
286,2	-0,819
286,7	2,324
287,1	-5,333
287,6	-6,219
288,1	-10,248
288,5	-6,419
289	-2,962
289,5	-1,133
289,9	-1,848
290,4	3,295
290,8	-0,848
291,3	6,038
291,8	8,352
292,2	5,581
292,7	6,124
293,1	4,467
293,6	5,524
294,1	2,724
294,5	0,638
295	-5,305
295,5	-5,933
295,9	-4,19
296,4	-5,276
296,8	-9,676
297,3	-5,333
297,8	-6,39
298,2	-4,419
298,7	-1,819
299,1	-1,905
299,6	2,381
300,1	5,895
300,5	5,095
301	11,581
301,5	14,095
301,9	11,838
302,4	7,124
302,8	4,181
303,3	-2,848
303,8	-11,276
304,2	-14,105
304,7	-16,305
305,1	-19,162
305,6	-16,476
306,1	-9,99
306,5	-6,39
307	5,952
307,4	6,667
307,9	6,924
308,4	8,667
308,8	5,724
309,3	2,695
309,8	1,552
310,2	0,095
310,7	-3,733
311,1	-4,19
311,6	-1,848
312,1	1,495
312,5	1,781
313	2,924
313,4	-0,705
313,9	0,667
314,4	0,181
314,8	-3,305
315,3	-7,333
315,7	-11,39
316,2	-14,762
316,7	-12,848
317,1	-8,419
317,6	-5,219
318	2,038
318,5	1,838
319	4,667
319,4	9,552
319,9	12,038
320,3	10,867
320,8	10,981
321,3	10,524
321,7	11,467
322,2	10,21
322,6	8,924
323,1	6,924
323,6	4,181
324	1,638
324,5	-1,876
324,9	4,324
325,4	1,981
325,9	6,238
326,3	5,21
326,8	4,867
327,2	2,61
327,7	2,095
328,2	-3,648
328,6	2,181
329,1	-7,905
329,5	-7,019
330	-7,105
330,5	-3,505
330,9	0,267
331,4	1,981
331,8	0,01
332,3	9,095
332,8	12,238
333,2	14,295
333,7	15,124
334,1	12,838
334,6	9,552
335,1	6,181
335,5	3,524
336	-4,105
336,4	-2,819
336,9	4,781
337,4	4,21
337,8	6,067
338,3	12,01
338,7	11,924
339,2	10,524
339,7	10,01
340,1	-2,19
340,6	-0,562
341	-0,962
341,5	-7,219
342	-10,419
342,4	-7,105
342,9	-12,39
343,3	-7,305
343,8	-9,076
344,2	-7,733
344,7	-1,19
345,2	2,524
345,6	2,752
346,1	10,895
346,5	3,81
347	3,324
347,5	2,695
347,9	2,838
348,4	1,41
348,8	2,667
349,3	2,267
349,8	9,267
350,2	15,438
350,7	13,038
351,1	10,01
351,6	14,152
352	17,01
352,5	17,124
353	21,095
353,4	19,295
353,9	31,581
354,3	43,381
354,8	47,095
355,3	61,152
355,7	71,238
356,2	83,01
356,6	100,552
357,1	115,21
357,5	131,438
358	157,81
358,5	173,467
358,9	202,324
359,4	232,867
359,8	262,238
360,3	305,095
360,8	346,038
361,2	392,295
361,7	447,324
362,1	508,981
362,6	575,124
363	647,667
363,5	714,21
364	796,552
364,4	875,524
364,9	954,724
365,3	1031,895
365,8	1100,724
366,3	1168,81
366,7	1230,152
367,2	1282,524
367,6	1324,667
368,1	1363,01
368,5	1385,752
369	1403,838
369,5	1406,295
369,9	1400,038
370,4	1376,667
370,8	1347,038
371,3	1302,238
371,7	1251,324
372,2	1193,438
372,7	1136,352
373,1	1073,895
373,6	1009,495
374	946,381
374,5	889,21
374,9	827,438
375,4	769,467
375,9	711,095
376,3	657,581
376,8	605,838
377,2	560,438
377,7	510,324
378,2	467,41
378,6	427,438
379,1	391,152
379,5	361,095
380	337,124
380,4	308,61
380,9	285,438
381,4	259,552
381,8	244,152
382,3	230,924
382,7	213,238
383,2	196,695
383,6	179,495
384,1	167,067
384,6	165,867
385	151,095
385,5	136,61
385,9	123,381
386,4	113,067
386,8	109,581
387,3	102,524
387,7	93,124
388,2	91,952
388,7	86,638
389,1	83,01
389,6	81,067
390	77,295
390,5	76,124
390,9	75,724
391,4	68,381
391,9	67,01
392,3	69,038
392,8	61,924
393,2	55,438
393,7	52,495
394,1	44,724
394,6	42,981
395,1	40,295
395,5	33,324
396	34,695
396,4	36,752
396,9	33,238
397,3	36,895
397,8	40,638
398,2	38,81
398,7	40,352
399,2	40,667
399,6	36,724
400,1	37,61
400,5	32,667
401	27,067
401,4	24,581
401,9	27,667
402,4	30,981
402,8	33,495
403,3	37,667
403,7	38,21
404,2	43,581
404,6	45,838
405,1	46,238
405,5	41,981
406	44,381
406,5	40,181
406,9	45,238
407,4	48,41
407,8	53,552
408,3	58,352
408,7	62,124
409,2	66,295
409,6	76,952
410,1	78,152
410,6	84,895
411	93,381
411,5	97,21
411,9	103,695
412,4	114,952
412,8	118,495
413,3	130,295
413,7	131,581
414,2	138,324
414,7	152,21
415,1	168,238
415,6	177,981
416	191,238
416,5	200,667
416,9	212,152
417,4	228,524
417,8	243,467
418,3	254,21
418,8	267,952
419,2	281,438
419,7	295,124
420,1	317,438
420,6	330,552
421	343,324
421,5	366,381
421,9	385,038
422,4	405,924
422,8	429,752
423,3	445,952
423,8	466,152
424,2	490,181
424,7	512,524
425,1	535,61
425,6	562,381
426	591,724
426,5	626,667
426,9	668,21
427,4	699,038
427,9	728,21
428,3	767,81
428,8	808,181
429,2	850,21
429,7	896,01
430,1	936,438
430,6	986,124
431	1041,981
431,5	1093,552
431,9	1146,352
432,4	1203,095
432,8	1260,295
433,3	1323,381
433,8	1388,695
434,2	1461,267
434,7	1539,867
435,1	1618,095
435,6	1699,61
436	1785,552
436,5	1877,895
436,9	1968,095
437,4	2057,324
437,8	2150,124
438,3	2253,61
438,8	2352,038
439,2	2462,667
439,7	2572,095
440,1	2695,552
440,6	2819,238
441	2942,81
441,5	3074,524
441,9	3216,495
442,4	3346,552
442,8	3487,438
443,3	3631,238
443,7	3790,581
444,2	3952,924
444,7	4117,124
445,1	4287,895
445,6	4468,838
446	4645,638
446,5	4821,524
446,9	4992,238
447,4	5176,981
447,8	5366,152
448,3	5555,295
448,7	5754,467
449,2	5964,552
449,6	6180,21
450,1	6396,181
450,6	6622,238
451	6845,895
451,5	7072,667
451,9	7311,61
452,4	7557,438
452,8	7798,238
453,3	8056,038
453,7	8301,524
454,2	8563,952
454,6	8825,61
455,1	9084,524
455,5	9337,781
456	9603,038
456,4	9862,381
456,9	10138,467
457,3	10403,895
457,8	10690,01
458,3	10963,724
458,7	11250,152
459,2	11547,352
459,6	11842,124
460,1	12131,495
460,5	12420,781
461	12714,41
461,4	13012,152
461,9	13310,41
462,3	13596,095
462,8	13883,952
463,2	14176,352
463,7	14477,81
464,1	14766,724
464,6	15068,438
465	15353,867
465,5	15653,21
466	15963,952
466,4	16246,867
466,9	16527,838
467,3	16818,838
467,8	17107,152
468,2	17391,924
468,7	17670,724
469,1	17937,752
469,6	18222,752
470	18501,181
470,5	18774,667
470,9	19025,181
471,4	19291,324
471,8	19549,01
472,3	19803,067
472,7	20049,924
473,2	20294,752
473,6	20521,438
474,1	20765,752
474,5	21000,552
475	21233,181
475,4	21454,381
475,9	21679,381
476,4	21890,095
476,8	22107,21
477,3	22309,524
477,7	22512,238
478,2	22700,41
478,6	22893,438
479,1	23063,181
479,5	23246,695
480	23409,467
480,4	23568,324
480,9	23706,038
481,3	23838,667
481,8	23964,038
482,2	24094,352
482,7	24206,838
483,1	24333,181
483,6	24433,152
484	24535,324
484,5	24630,095
484,9	24707,524
485,4	24780,21
485,8	24833,067
486,3	24882,038
486,7	24938,752
487,2	24981,638
487,6	25023,181
488,1	25051,067
488,5	25084,324
489	25113,81
489,4	25112,667
489,9	25105,552
490,4	25098,638
490,8	25079,952
491,3	25069,581
491,7	25028,781
492,2	24985,61
492,6	24936,638
493,1	24874,781
493,5	24791,524
494	24732,981
494,4	24665,038
494,9	24601,067
495,3	24528,952
495,8	24465,21
496,2	24409,867
496,7	24337,21
497,1	24247,924
497,6	24160,267
498	24066,524
498,5	23976,352
498,9	23870,781
499,4	23747,552
499,8	23645,467
500,3	23529,524
500,7	23406,895
501,2	23285,838
501,6	23146,067
502,1	23015,438
502,5	22894,152
503	22776,152
503,4	22650,01
503,9	22504,01
504,3	22356,667
504,8	22223,067
505,2	22085,295
505,7	21931,752
506,1	21771,781
506,6	21601,038
507	21443,21
507,5	21288,952
507,9	21126,981
508,4	20953,324
508,8	20781,038
509,3	20609,667
509,7	20451,924
510,2	20295,41
510,6	20111,667
511,1	19942,01
511,5	19769,781
512	19608,924
512,4	19438,752
512,9	19253,81
513,3	19070,495
513,8	18902,21
514,2	18718,438
514,7	18543,067
515,1	18351,895
515,6	18163,438
516	17980,838
516,5	17795,924
516,9	17611,581
517,4	17441,352
517,8	17266,581
518,3	17091,095
518,7	16909,038
519,2	16740,752
519,6	16565,581
520,1	16402,381
520,5	16211,752
521	16026,467
521,4	15852,895
521,9	15695,952
522,3	15513,381
522,8	15346,552
523,2	15175,038
523,7	15019,638
524,1	14855,124
524,6	14694,467
525	14535,181
525,5	14377,21
525,9	14222,467
526,4	14054,952
526,8	13893,952
527,3	13740,267
527,7	13584,81
528,2	13423,924
528,6	13276,581
529,1	13120,038
529,5	12976,61
530	12829,638
530,4	12679,381
530,9	12530,181
531,3	12383,981
531,8	12241,01
532,2	12106,895
532,6	11961,981
533,1	11825,467
533,5	11695,867
534	11560,638
534,4	11423,324
534,9	11289,352
535,3	11157,295
535,8	11029,438
536,2	10908,238
536,7	10788,324
537,1	10673,895
537,6	10560,038
538	10441,495
538,5	10323,61
538,9	10206,095
539,4	10094,667
539,8	9970,924
540,3	9858,724
540,7	9748,381
541,2	9642,752
541,6	9532,01
542,1	9432,981
542,5	9326,41
543	9223,095
543,4	9115,124
543,9	9016,867
544,3	8915,467
544,8	8815,324
545,2	8716,924
545,7	8614,152
546,1	8525,124
546,5	8438,095
547	8345,495
547,4	8259,895
547,9	8170,981
548,3	8085,295
548,8	8000,152
549,2	7909,838
549,7	7828,952
550,1	7740,695
550,6	7658,152
551	7579,838
551,5	7501,61
551,9	7424,952
552,4	7359,524
552,8	7279,467
553,3	7200,838
553,7	7127,838
554,2	7058,381
554,6	6988,781
555,1	6916,324
555,5	6836,867
555,9	6768,581
556,4	6705,61
556,8	6638,352
557,3	6572,324
557,7	6505,838
558,2	6446,695
558,6	6389,781
559,1	6325,61
559,5	6260,895
560	6202,01
560,4	6144,438
560,9	6086,895
561,3	6029,381
561,8	5976,152
562,2	5924,038
562,7	5877,552
563,1	5825,01
563,6	5774,981
564	5714,381
564,4	5662,238
564,9	5603,21
565,3	5546,295
565,8	5491,581
566,2	5438,581
566,7	5390,581
567,1	5345,981
567,6	5293,924
568	5247,381
568,5	5203,124
568,9	5158,438
569,4	5113,467
569,8	5059,581
570,3	5013,438
570,7	4968,038
571,1	4926,01
571,6	4886,152
572	4844,638
572,5	4801,267
572,9	4760,038
573,4	4723,838
573,8	4686,152
574,3	4644,952
574,7	4602,667
575,2	4558,867
575,6	4525,467
576,1	4493,152
576,5	4455,952
576,9	4410,838
577,4	4373,781
577,8	4332,495
578,3	4297,067
578,7	4255,867
579,2	4222,21
579,6	4180,038
580,1	4145,81
580,5	4114,838
581	4085,238
581,4	4051,352
581,9	4010,095
582,3	3962,781
582,7	3929,152
583,2	3902,438
583,6	3866,495
584,1	3830,467
584,5	3790,61
585	3770,352
585,4	3737,152
585,9	3705,21
586,3	3676,067
586,8	3648,467
587,2	3623,324
587,6	3610,752
588,1	3575,924
588,5	3557,924
589	3535,467
589,4	3498,095
589,9	3466,61
590,3	3441,695
590,8	3404,21
591,2	3384,638
591,7	3359,695
592,1	3336,924
592,5	3319,41
593	3294,638
593,4	3269,638
593,9	3252,695
594,3	3224,067
594,8	3200,781
595,2	3181,181
595,7	3156,267
596,1	3137,181
596,6	3111,267
597	3090,952
597,4	3070,01
597,9	3044,667
598,3	3023,01
598,8	3005,067
599,2	2985,01
599,7	2968,924
600,1	2939,095
600,6	2919,352
601	2901,352
601,4	2884,181
601,9	2865,267
602,3	2845,381
602,8	2823,324
603,2	2806,124
603,7	2787,524
604,1	2771,695
604,6	2742,867
605	2726,267
605,4	2707,895
605,9	2683,752
606,3	2664,724
606,8	2644,095
607,2	2617,581
607,7	2601,381
608,1	2576,924
608,6	2561,924
609	2554,81
609,4	2537,267
609,9	2521,524
610,3	2509,495
610,8	2494,495
611,2	2479,324
611,7	2455,41
612,1	2426,895
612,6	2413,752
613	2398,038
613,4	2378,581
613,9	2360,638
614,3	2347,581
614,8	2331,838
615,2	2324,667
615,7	2312,61
616,1	2292,724
616,6	2274,724
617	2257,41
617,4	2237,895
617,9	2233,695
618,3	2217,867
618,8	2200,867
619,2	2188,381
619,7	2184,038
620,1	2165,067
620,5	2153,381
621	2131,524
621,4	2120,238
621,9	2101,667
622,3	2084,61
622,8	2061,695
623,2	2047,495
623,6	2030,467
624,1	2013,695
624,5	1996,352
625	1987,524
625,4	1978,01
625,9	1967,41
626,3	1954,124
626,8	1939,724
627,2	1925,295
627,6	1904,238
628,1	1885,181
628,5	1873,038
629	1857,495
629,4	1845,638
629,9	1835,552
630,3	1819,067
630,7	1806,352
631,2	1795,581
631,6	1783,752
632,1	1767,752
632,5	1754,438
633	1735,61
633,4	1730,352
633,8	1722,924
634,3	1705,61
634,7	1689,095
635,2	1677,267
635,6	1664,752
636,1	1654,352
636,5	1635,81
636,9	1617,638
637,4	1611,152
637,8	1595,81
638,3	1583,638
638,7	1570,038
639,2	1559,41
639,6	1552,238
640	1543,952
640,5	1527,61
640,9	1521,924
641,4	1513,352
641,8	1510,324
642,2	1502,724
642,7	1493,495
643,1	1493,41
643,6	1484,524
644	1469,667
644,5	1461,038
644,9	1447,581
645,3	1434,695
645,8	1419,838
646,2	1402,21
646,7	1392,61
647,1	1389,324
647,6	1384,381
648	1378,552
648,4	1369,867
648,9	1366,01
649,3	1353,438
649,8	1349,238
650,2	1337,124
650,6	1324,124
651,1	1308,981
651,5	1302,01
652	1288,695
652,4	1281,924
652,9	1271,981
653,3	1261,895
653,7	1252,01
654,2	1247,21
654,6	1237,81
655,1	1229,152
655,5	1226,981
655,9	1215,867
656,4	1210,695
656,8	1202,324
657,3	1194,752
657,7	1189,41
658,2	1183,81
658,6	1170,781
659	1163,752
659,5	1152,067
659,9	1144,695
660,4	1133,295
660,8	1118,61
661,2	1109,61
661,7	1102,524
662,1	1095,152
662,6	1090,867
663	1080,695
663,4	1072,781
663,9	1067,924
664,3	1058,095
664,8	1047,095
665,2	1035,981
665,6	1021,438
666,1	1011,552
666,5	1006,038
667	995,667
667,4	989,152
667,9	983,41
668,3	979,981
668,7	974,038
669,2	977,638
669,6	968,01
670,1	966,438
670,5	962,838
670,9	955,01
671,4	944,867
671,8	940,981
672,3	933,467
672,7	934,552
673,1	921,352
673,6	911,238
674	910,552
674,5	902,695
674,9	893,495
675,3	877,667
675,8	867,295
676,2	863,781
676,7	856,552
677,1	844,238
677,5	839,581
678	839,067
678,4	839,01
678,9	831,467
679,3	824,981
679,7	816,981
680,2	807,152
680,6	801,41
681,1	793,838
681,5	789,724
681,9	787,01
682,4	781,181
682,8	783,667
683,3	786,724
683,7	786,924
684,1	782,524
684,6	776,295
685	766,924
685,5	763,324
685,9	749,81
686,3	740,667
686,8	729,038
687,2	725,152
687,7	717,152
688,1	708,124
688,5	703,867
689	702,895
689,4	695,352
689,9	689,838
690,3	680,238
690,7	674,61
691,2	671,067
691,6	667,295
692	657,81
692,5	658,695
692,9	653,095
693,4	645,581
693,8	640,152
694,2	635,724
694,7	624,438
695,1	621,724
695,6	612,781
696	612,867
696,4	613,838
696,9	605,581
697,3	603,067
697,8	600,495
698,2	591,781
698,6	593,352
699,1	589,524
699,5	586,238
699,9	585,324
700,4	577,695
700,8	578,181
701,3	578,81
701,7	568,238
702,1	562,524
702,6	554,61
703	555,238
703,5	557,267
703,9	547,581
704,3	544,61
704,8	542,695
705,2	544,038
705,6	541,21
706,1	531,867
706,5	524,095
707	525,924
707,4	527,524
707,8	520,924
708,3	513,781
708,7	506,095
709,2	503,895
709,6	495,581
710	494,667
710,5	486,267
710,9	487,095
711,3	481,038
711,8	481,752
712,2	478,038
712,7	479,924
713,1	474,638
713,5	471,61
714	466,124
714,4	460,067
714,8	455,552
715,3	451,552
715,7	451,267
716,2	444,867
716,6	439,838
717	432,524
717,5	429,067
717,9	427,81
718,3	421,867
718,8	419,181
719,2	412,324
719,7	410,524
720,1	412,924
720,5	416,838
721	411,552
721,4	412,981
721,8	407,981
722,3	406,01
722,7	406,524
723,2	398,495
723,6	388,381
724	384,095
724,5	378,895
724,9	372,21
725,3	369,838
725,8	363,038
726,2	362,467
726,7	363,867
727,1	363,295
727,5	359,324
728	354,781
728,4	353,781
728,8	351,581
729,3	348,667
729,7	340,867
730,1	335,81
730,6	337,667
731	336,124
731,5	332,295
731,9	327,952
732,3	325,352
732,8	326,581
733,2	325,21
733,6	319,295
734,1	318,924
734,5	317,495
734,9	315,924
735,4	317,038
735,8	310,895
736,3	315,181
736,7	315,752
737,1	313,695
737,6	311,41
738	309,667
738,4	304,524
738,9	308,781
739,3	305,095
739,7	302,41
740,2	298,952
740,6	298,695
741,1	300,381
741,5	292,181
741,9	287,924
742,4	284,838
742,8	283,781
743,2	282,267
743,7	274,238
744,1	266,181
744,5	271,381
745	269,81
745,4	265,095
745,8	261,41
746,3	260,638
746,7	261,467
747,2	265,295
747,6	268,438
748	270,581
748,5	271,781
748,9	266,152
749,3	265,038
749,8	265,552
750,2	264,152
750,6	253,352
751,1	253,238
751,5	249,095
751,9	253,581
752,4	254,667
752,8	253,352
753,3	249,124
753,7	253,867
754,1	246,324
754,6	244,667
755	236,467
755,4	232,295
755,9	230,81
756,3	232,495
756,7	228,324
757,2	224,095
757,6	221,038
758	222,267
758,5	222,41
758,9	215,924
759,3	216,067
759,8	217,01
760,2	216,981
760,6	216,324
761,1	214,467
761,5	210,181
761,9	211,295
762,4	203,095
762,8	199,238
763,3	198,61
763,7	193,552
764,1	198,552
764,6	196,667
765	197,724
765,4	199,352
765,9	199,61
766,3	205,752
766,7	206,495
767,2	200,895
767,6	204,81
768	203,095
768,5	199,695
768,9	198,067
769,3	189,781
769,8	187,095
770,2	189,267
770,6	184,924
771,1	186,038
771,5	188,495
771,9	188,838
772,4	186,952
772,8	189,524
773,2	184,781
773,7	184,124
774,1	179,695
774,5	173,152
775	168,667
775,4	169,352
775,8	163,752
776,3	164,324
776,7	164,41
777,1	164,638
777,6	165,581
778	174,267
778,4	170,752
778,9	177,895
779,3	175,467
779,7	174,381
780,2	174,524
780,6	172,61
781	161,638
781,5	158,352
781,9	150,21
782,3	148,667
782,8	147,238
783,2	143,01
783,6	145,124
784,1	141,952
784,5	141,895
784,9	144,61
785,4	146,181
785,8	144,095
786,2	146,267
786,7	148,067
787,1	149,495
787,5	150,495
788	147,667
788,4	146,152
788,8	144,152
789,3	140,81
789,7	140,781
790,1	141,981
790,6	142,124
791	138,781
791,4	139,752
791,9	137,095
792,3	133,067
792,7	129,295
793,2	124,095
793,6	128,495
794	129,381
794,5	123,781
794,9	126,438
795,3	130,124
795,8	123,552
796,2	125,638
796,6	120,981
797,1	123,781
797,5	121,752
797,9	118,467
798,4	113,695
798,8	118,952
799,2	118,124
799,7	120,924
800,1	118,81
800,5	123,981
801	125,467
801,4	123,667
801,8	118,295
802,2	117,81
802,7	109,695
803,1	106,038
803,5	100,838
804	96,038
804,4	101,667
804,8	103,352
805,3	104,067
805,7	104,495
806,1	104,867
806,6	109,038
807	114,781
807,4	111,724
807,9	109,324
808,3	105,695
808,7	103,638
809,2	107,524
809,6	106,238
810	100,352
810,4	98,981
810,9	99,267
811,3	100,981
811,7	104,924
812,2	102,81
812,6	95,324
813	100,41
813,5	97,895
813,9	96,21
814,3	94,724
814,8	89,752
815,2	86,324
815,6	90,352
816,1	89,581
816,5	90,438
816,9	90,467
817,3	89,781
817,8	98,181
818,2	98,924
818,6	95,324
819,1	88,152
819,5	86,752
819,9	87,724
820,4	87,895
820,8	79,724
821,2	77,267
821,7	81,152
822,1	86,181
822,5	89,124
822,9	87,095
823,4	83,552
823,8	87,352
824,2	90,067
824,7	85,295
825,1	81,981
825,5	77,467
826	75,752
826,4	76,181
826,8	69,21
827,3	69,924
827,7	70,124
828,1	66,095
828,5	66,524
829	64,152
829,4	63,838
829,8	62,01
830,3	57,838
830,7	54,267
831,1	58,352
831,6	59,724
832	59,352
832,4	58,638
832,8	63,038
833,3	62,381
833,7	59,352
834,1	57,238
834,6	53,21
835	57,895
835,4	60,724
835,8	56,667
836,3	54,667
836,7	61,295
837,1	59,495
837,6	65,038
838	60,667
838,4	60,095
838,9	61,952
839,3	60,124
839,7	58,267
840,1	55,667
840,6	47,552
841	49,238
841,4	47,295
841,9	46,324
842,3	49,895
842,7	48,895
843,1	52,238
843,6	57,552
844	56,81
844,4	56,438
844,9	55,752
845,3	54,095
845,7	53,21
846,2	50,81
846,6	47,61
847	48,324
847,4	50,467
847,9	50,238
848,3	48,581
848,7	50,41
849,2	48,952
849,6	47,352
850	49,295
850,4	43,381
850,9	42,781
851,3	46,581
851,7	47,638
852,2	45,838
852,6	52,238
853	51,067
853,4	50,152
853,9	50,01
854,3	47,81
854,7	46,41
855,2	49,638
855,6	43,21
856	36,352
856,4	38,638
856,9	35,038
857,3	36,381
857,7	36,038
858,2	39,781
858,6	39,867
859	42,124
859,4	41,952
859,9	43,895
860,3	39,524
860,7	38,467
861,1	33,352
861,6	34,495
862	35,124
862,4	31,267
862,9	29,095
863,3	31,752
863,7	31,867
864,1	34,724
864,6	32,552
865	32,924
865,4	34,867
865,9	36,438
866,3	31,295
866,7	26,638
867,1	21,038
867,6	20,352
868	16,067
868,4	17,495
868,8	22,924
869,3	25,324
869,7	29,41
870,1	30,61
870,6	29,238
871	-47,59
871,4	-43,905
871,8	-49,876
872,3	-48,79
872,7	-48,59
873,1	-46,876
873,5	-45,933
874	30,295
874,4	24,381
874,8	23,981
875,3	24,638
875,7	21,81
876,1	22,41
876,5	23,095
877	22,295
877,4	19,21
877,8	23,095
878,2	22,552
878,7	21,667
879,1	20,124
879,5	23,838
879,9	28,638
880,4	31,61
880,8	27,724
881,2	27,924
881,7	29,61
882,1	30,61
882,5	26,667
882,9	22,381
883,4	19,495
883,8	23,038
884,2	22,038
884,6	18,495
885,1	18,238
885,5	19,952
885,9	20,867
886,3	24,41
886,8	18,524
887,2	14,438
887,6	15,41
888	14,067
888,5	9,381
888,9	9,095
889,3	4,21
889,8	5,781
890,2	6,981
890,6	6,81
891	8,21
891,5	11,981
891,9	12,981
892,3	15,152
892,7	19,181
893,2	22,152
893,6	24,981
894	24,01
894,4	20,01
894,9	19,838
895,3	20,638
895,7	18,381
896,1	15,21
896,6	12,724
897	13,81
897,4	22,81
897,8	23,838
898,3	25,981
898,7	23,467
899,1	22,438
899,5	22,581
900	15,124
900,4	7,438
900,8	1,61
901,2	-0,476
901,7	0,295
902,1	3,952
902,5	8,324
902,9	10,952
903,4	13,667
903,8	19,81
904,2	18,667
904,6	17,267
905,1	14,667
905,5	12,838
905,9	21,295
906,3	20,438
906,8	22,495
907,2	25,324
907,6	25,867
908	30,038
908,5	27,867
908,9	20,124
909,3	21,495
909,7	18,952
910,2	18,21
910,6	22,895
911	14,695
911,4	18,067
911,9	18,324
912,3	14,581
912,7	16,752
913,1	20,095
913,6	15,581
914	22,524
914,4	16,41
914,8	17,238
915,3	15,838
915,7	10,467
916,1	3,467
916,5	6,924
916,9	0,552
917,4	2,638
917,8	0,838
918,2	2,124
918,6	-0,39
919,1	2,267
919,5	3,181
919,9	10,467
920,3	10,152
920,8	13,724
921,2	14,638
921,6	20,381
922	19,924
922,5	15,095
922,9	11,152
923,3	12,01
923,7	8,467
924,2	9,01
924,6	8,552
925	10,152
925,4	9,095
925,8	8,067
926,3	7,581
926,7	9,152
927,1	8,295
927,5	9,095
928	5,524
928,4	3,552
928,8	5,238
929,2	2,295
929,7	1,038
930,1	4,295
930,5	0,067
930,9	1,581
931,3	6,124
931,8	5,152
932,2	7,067
932,6	7,695
933	-3,476
933,5	-0,762
933,9	1,095
934,3	2,21
934,7	-1,105
935,2	-2,533
935,6	-1,333
936	4,41
936,4	9,752
936,8	10,552
937,3	7,695
937,7	12,324
938,1	14,867
938,5	13,41
939	11,152
939,4	5,752
939,8	4,067
940,2	5,781
940,6	7,581
941,1	10,124
941,5	12,924
941,9	12,952
942,3	14,867
942,8	12,924
943,2	15,152
943,6	10,638
944	11,638
944,4	8,01
944,9	7,438
945,3	2,295
945,7	0,924
946,1	-2,162
946,6	-4,876
947	-11,076
947,4	-7,876
947,8	-2,848
948,2	-3,505
948,7	-3,162
949,1	-5,705
949,5	0,095
949,9	1,61
950,3	1,295
950,8	1,124
951,2	0,238
951,6	0,667
952	6,381
952,5	1,952
952,9	3,752
953,3	3,81
953,7	2,61
954,1	9,01
954,6	13,552
955	13,895
955,4	13,524
955,8	15,524
956,2	12,867
956,7	13,524
957,1	11,952
957,5	11,124
957,9	6,667
958,3	6,152
958,8	3,752
959,2	6,124
959,6	7,181
960	4,181
960,5	3,181
960,9	4,067
961,3	5,038
961,7	5,181
962,1	4,724
962,6	6,581
963	8,952
963,4	4,638
963,8	5,324
964,2	9,038
964,7	12,095
965,1	13,638
965,5	10,495
965,9	8,238
966,3	12,01
966,8	11,21
967,2	12,41
967,6	5,781
968	-0,848
968,4	-2,048
968,9	2,695
969,3	4,181
969,7	-1,048
970,1	-4,876
970,5	-2,133
971	4,867
971,4	5,61
971,8	3,781
972,2	1,81
972,6	3,867
973,1	7,181
973,5	6,067
973,9	5,181
974,3	1,324
974,7	3,924
975,2	3,152
975,6	3,781
976	3,21
976,4	1,352
976,8	-3,19
977,3	-0,79
977,7	-8,733
978,1	-8,933
978,5	-9,848
978,9	-15,305
979,4	-16,79
979,8	-15,962
980,2	-16,19
980,6	-12,705
981	-7,162
981,5	-4,733
981,9	0,438
982,3	5,695
982,7	6,838
983,1	8,095
983,6	4,352
984	0,124
984,4	-0,276
984,8	-3,419
985,2	-5,99
985,6	-8,39
986,1	-3,048
986,5	3,095
986,9	-6,648
987,3	-1,962
987,7	-3,39
988,2	-5,876
988,6	-2,876
989	-7,505
989,4	-10,362
989,8	-4,276
990,3	-11,19
990,7	-9,819
991,1	-5,905
991,5	-3,076
991,9	-1,419
992,3	3,095
992,8	6,781
993,2	7,638
993,6	8,667
994	8,41
994,4	5,181
994,9	2,61
995,3	0,21
995,7	-1,79
996,1	3,152
996,5	2,838
996,9	-1,162
997,4	0,838
997,8	-5,133
998,2	-7,305
998,6	-7,362
999	-11,733
999,5	-11,562
999,9	-10,648
1000,3	-11,819
1000,7	-2,648
1001,1	-1,876
1001,5	-0,705
1002	2,924
1002,4	6,067
1002,8	7,724
1003,2	9,695
1003,6	10,752
1004	10,467
1004,5	6,924
1004,9	3,895
1005,3	-0,59
1005,7	-0,362
1006,1	-6,305
1006,6	-11,848
1007	-12,076
1007,4	-10,933
1007,8	-10,619
1008,2	-12,076
1008,6	-6,676
1009,1	-7,59
1009,5	-4,876
1009,9	-2,505
1010,3	-0,533
1010,7	1,524
1011,1	4,152
1011,6	-1,962
1012	3,981
1012,4	2,352
1012,8	0,581
1013,2	5,295
1013,6	3,81
1014,1	6,267
1014,5	10,867
1014,9	9,724
1015,3	9,41
1015,7	10,267
1016,1	2,867
1016,6	5,552
1017	5,552
1017,4	1,867
1017,8	-3,162
1018,2	-0,762
1018,6	-4,505
1019,1	-3,305
1019,5	-8,362
1019,9	-15,076
1020,3	-11,19
1020,7	-4,933
1021,1	-7,762
1021,6	-4,505
1022	2,61
1022,4	2,238
1022,8	7,495
1023,2	2,524
1023,6	2,81
1024,1	6,295
1024,5	5,981
1024,9	-0,219
1025,3	3,267
1025,7	3,467
1026,1	7,324
1026,6	6,581
1027	1,838
1027,4	6,352
1027,8	4,867
1028,2	4,638
1028,6	7,01
1029	7,61
1029,5	8,152
1029,9	8,952
1030,3	1,152
1030,7	7,381
1031,1	9,724
1031,5	1,152
1032	-2,248
1032,4	-3,505
1032,8	2,038
1033,2	2,724
1033,6	-0,733
1034	-5,276
1034,4	3,952
1034,9	4,467
1035,3	2,438
1035,7	-3,19
1036,1	-3,676
1036,5	-2,333
1036,9	-0,562
1037,4	-6,305
1037,8	-11,162
1038,2	-14,476
1038,6	-12,505
1039	-8,076
1039,4	-7,105
1039,8	-12,705
1040,3	-6,048
1040,7	-2,362
1041,1	1,495
1041,5	0,752
1041,9	-5,39
1042,3	-5,333
1042,7	1,181
1043,2	-4,876
1043,6	-4,39
1044	-7,133
1044,4	-5,133
1044,8	0,152
1045,2	-4,819
1045,6	-5,619
1046,1	-4,705
1046,5	-9,105
1046,9	-8,962
1047,3	-11,076
1047,7	-14,762
1048,1	-14,076
1048,5	-12,99
1049	-12,476
1049,4	-3,705
1049,8	1,095
1050,2	4,638
1050,6	12,724
1051	12,352
1051,4	8,038
1051,9	9,61
1052,3	12,124
1052,7	8,838
1053,1	3,21
1053,5	2,524
1053,9	3,352
1054,3	4,038
1054,8	10,667
1055,2	5,21
1055,6	9,067
1056	8,495
1056,4	5,124
1056,8	5,067
1057,2	5,152
1057,6	-0,562
1058,1	-2,39
1058,5	-5,933
1058,9	3,238
1059,3	3,238
1059,7	0,467
1060,1	2,581
1060,5	2,781
1061	7,124
1061,4	7,61
1061,8	4,267
1062,2	4,295
1062,6	7,067
1063	6,752
1063,4	4,124
1063,8	-1,505
1064,3	-3,848
1064,7	-5,505
1065,1	-4,019
1065,5	-4,562
1065,9	-6,219
1066,3	-9,305
1066,7	-6,305
1067,1	-2,962
1067,6	-4,048
1068	-8,962
1068,4	-4,19
1068,8	-0,533
1069,2	0,838
1069,6	2,352
1070	4,724
1070,4	4,152
1070,9	3,352
1071,3	-0,276
1071,7	-3,39
1072,1	-1,705
1072,5	-8,79
1072,9	-8,99
1073,3	-6,848
1073,7	-6,219
1074,2	-1,248
1074,6	-1,762
1075	-1,905
1075,4	3,667
1075,8	1,381
1076,2	-0,019
1076,6	3,067
1077	-3,276
1077,5	2,124
1077,9	-1,533
1078,3	-3,305
1078,7	-1,219
1079,1	-4,59
1079,5	-4,962
1079,9	-5,133
1080,3	-7,933
1080,7	-4,819
1081,2	-1,648
1081,6	-3,733
1082	0,21
1082,4	1,381
1082,8	4,352
1083,2	6,381
1083,6	6,952
1084	0,495
1084,5	-1,419
1084,9	-4,19
1085,3	-8,276
1085,7	-7,876
1086,1	-7,819
1086,5	-9,048
1086,9	-0,933
1087,3	0,667
1087,7	0,952
1088,2	1,038
1088,6	-0,248
1089	-2,99
1089,4	-0,533
1089,8	-4,248
1090,2	-7,705
1090,6	-8,019
1091	-2,962
1091,4	-0,505
1091,9	-1,533
1092,3	-1,39
1092,7	-1,933
1093,1	4,181
1093,5	6,552
1093,9	5,952
1094,3	7,695
1094,7	8,41
1095,1	5,352
1095,5	7,295
1096	5,952
1096,4	7,924
1096,8	5,267
1097,2	1,61
1097,6	5,324
1098	9,581
1098,4	12,295
1098,8	11,724
1099,2	15,581
1099,6	14,581
1100,1	14,095
1100,5	7,067
1100,9	5,952
1101,3	4,438
1101,7	3,267
1102,1	-1,562
1102,5	1,895
1102,9	2,552
1103,3	11,095
1103,7	13,438
1104,2	9,981
1104,6	8,695
1105	9,01
1105,4	8,124
1105,8	7,01
1106,2	1,81
1106,6	-1,448
1107	-0,276
1107,4	1,733
1107,8	0,907
1108,3	-0,483
