Data from Subt2_173.txt Node
Date: Sat Aug 26 18:38:03 MSK 2023
User: vat
Spectrometer: MAYP114033
Trigger mode: 0
Integration Time (sec): 1,000000E0
Scans to average: 5
Electric dark correction enabled: true
Nonlinearity correction enabled: false
Boxcar width: 3
XAxis mode: Wavelengths
Number of Pixels in Spectrum: 2068
>>>>>Begin Spectral Data<<<<<
199,4	-0,05
199,9	-2,82
200,4	-2,533
200,8	-0,814
201,3	-2,043
201,8	1,871
202,2	2,043
202,7	8,014
203,2	9,271
203,6	8,929
204,1	5,186
204,6	9,643
205	4,929
205,5	1,9
206	-2,643
206,4	-2,357
206,9	-3,414
207,4	0,9
207,8	-0,129
208,3	1,186
208,8	7,5
209,2	10,329
209,7	12,014
210,2	13,071
210,6	10,5
211,1	11,414
211,5	6,071
212	1,014
212,5	-1,757
212,9	-3,986
213,4	-1,643
213,9	-0,471
214,3	-0,9
214,8	5,757
215,3	5,5
215,7	6,014
216,2	8,757
216,7	7,157
217,1	7,329
217,6	6,443
218,1	5,671
218,5	8,7
219	1,329
219,5	4,129
219,9	0,271
220,4	7,071
220,9	7,186
221,3	4,957
221,8	4,786
222,3	12,529
222,7	10,586
223,2	14,271
223,6	7,186
224,1	2,243
224,6	5,729
225	2,1
225,5	-0,414
226	-5,386
226,4	-3,7
226,9	-3,7
227,4	-0,3
227,8	-7,843
228,3	-7,443
228,8	-8,071
229,2	-5,929
229,7	-7,443
230,2	-9,043
230,6	-9,957
231,1	-0,243
231,5	6,329
232	3,986
232,5	3,614
232,9	6,329
233,4	8,814
233,9	9,929
234,3	5,786
234,8	0,871
235,3	1,814
235,7	4,214
236,2	1,471
236,7	1,786
237,1	5,186
237,6	6,243
238,1	6,614
238,5	6,329
239	4,214
239,4	10,471
239,9	9,929
240,4	7,5
240,8	8,243
241,3	7,443
241,8	10,529
242,2	13,643
242,7	4,5
243,2	6,729
243,6	5,471
244,1	3,643
244,6	6,671
245	7,414
245,5	2,957
245,9	3,186
246,4	1,643
246,9	4,243
247,3	5,129
247,8	5,471
248,3	5,9
248,7	11,414
249,2	16,471
249,7	16,157
250,1	15,471
250,6	14,129
251	10,843
251,5	11,386
252	7,471
252,4	6,357
252,9	4,614
253,4	0,443
253,8	-0,271
254,3	1,186
254,8	-4,7
255,2	-7,7
255,7	-8,729
256,1	-7,357
256,6	-3,386
257,1	-2,529
257,5	-2,957
258	-1,671
258,5	2,471
258,9	2,357
259,4	0,043
259,9	-0,614
260,3	-4,443
260,8	-8,529
261,2	-6,129
261,7	-2,614
262,2	-8,986
262,6	-5,986
263,1	-5,471
263,6	0,214
264	5,814
264,5	5,443
264,9	-0,043
265,4	4,7
265,9	1,1
266,3	2,557
266,8	5,929
267,3	3,1
267,7	0,414
268,2	1,957
268,7	5,329
269,1	10,214
269,6	7,871
270	5,271
270,5	2,929
271	5,814
271,4	6,043
271,9	1,557
272,4	1,129
272,8	3,614
273,3	0,443
273,7	4,643
274,2	2,757
274,7	0,7
275,1	8,271
275,6	6,7
276,1	1,071
276,5	2,1
277	-0,557
277,4	0,243
277,9	3,186
278,4	0,243
278,8	5,5
279,3	6,957
279,8	9,957
280,2	14,471
280,7	17,529
281,1	10,671
281,6	4,929
282,1	1,643
282,5	2,129
283	-1,557
283,4	-5,5
283,9	-7,243
284,4	2,957
284,8	7,071
285,3	5,871
285,8	7,157
286,2	7,129
286,7	8,5
287,1	9,729
287,6	5,357
288,1	1,843
288,5	2,471
289	2,129
289,5	4,3
289,9	2,043
290,4	4,157
290,8	2,671
291,3	5,586
291,8	6,643
292,2	8,614
292,7	10,157
293,1	11,586
293,6	14,871
294,1	17,786
294,5	16,329
295	13,186
295,5	8,7
295,9	5,586
296,4	4,729
296,8	-0,871
297,3	-0,814
297,8	-2,214
298,2	-4,243
298,7	1,957
299,1	2,043
299,6	3,471
300,1	3,129
300,5	3,986
301	7,386
301,5	10,871
301,9	8,929
302,4	8,7
302,8	10,5
303,3	12,3
303,8	7,643
304,2	7,843
304,7	10,129
305,1	1,757
305,6	3,043
306,1	7,9
306,5	7,014
307	10,443
307,4	14,329
307,9	10,786
308,4	14,186
308,8	9,014
309,3	0,729
309,8	-0,386
310,2	-1,5
310,7	-7,929
311,1	-8,957
311,6	-3,3
312,1	2,3
312,5	8,271
313	11,043
313,4	11,329
313,9	12,957
314,4	11,786
314,8	6,129
315,3	7,7
315,7	-1,414
316,2	-6,586
316,7	-6,986
317,1	-2,757
317,6	0,386
318	3,929
318,5	0,414
319	6,5
319,4	12,043
319,9	15,957
320,3	12,186
320,8	10,386
321,3	13,843
321,7	17,471
322,2	12,986
322,6	9,014
323,1	5,671
323,6	3,386
324	2,471
324,5	-1,271
324,9	-2,9
325,4	-0,386
325,9	3,071
326,3	5,614
326,8	9,729
327,2	5,043
327,7	6,5
328,2	4,214
328,6	3,786
329,1	0,186
329,5	-2,129
330	-5,271
330,5	2,386
330,9	5,271
331,4	3,1
331,8	4,7
332,3	10,243
332,8	11,729
333,2	13,329
333,7	12,3
334,1	11,443
334,6	14,871
335,1	9,614
335,5	5,814
336	3,3
336,4	3,271
336,9	5,957
337,4	5,071
337,8	5,757
338,3	10,3
338,7	11,529
339,2	10,157
339,7	11,614
340,1	9,186
340,6	6,5
341	2,7
341,5	1,643
342	0,271
342,4	-0,614
342,9	-8,214
343,3	-6,7
343,8	-3,357
344,2	1,471
344,7	7,671
345,2	3,1
345,6	5,529
346,1	12,243
346,5	7,5
347	2,271
347,5	-1,414
347,9	-0,843
348,4	0,014
348,8	0,929
349,3	2,157
349,8	5,214
350,2	11,214
350,7	12,557
351,1	8,871
351,6	18,871
352	21,9
352,5	27,271
353	35,729
353,4	38,7
353,9	50,757
354,3	61,986
354,8	72,386
355,3	93,843
355,7	111,786
356,2	135,557
356,6	162,471
357,1	192,071
357,5	226,271
358	267,443
358,5	302,3
358,9	353,129
359,4	406,5
359,8	473,386
360,3	544,757
360,8	624,671
361,2	710,929
361,7	812,986
362,1	924,271
362,6	1040,014
363	1162,986
363,5	1300,243
364	1444,129
364,4	1586,957
364,9	1735,214
365,3	1873,214
365,8	2011,129
366,3	2132,243
366,7	2240,614
367,2	2335,929
367,6	2417,814
368,1	2477,014
368,5	2517,014
369	2537,929
369,5	2547,157
369,9	2524,871
370,4	2486,043
370,8	2423,129
371,3	2349,9
371,7	2268,443
372,2	2170,014
372,7	2066,329
373,1	1963,9
373,6	1847,129
374	1741,271
374,5	1630,729
374,9	1515,671
375,4	1410,614
375,9	1302,871
376,3	1199,557
376,8	1104,186
377,2	1013,329
377,7	924,214
378,2	848,814
378,6	774,643
379,1	708,471
379,5	649,557
380	603,557
380,4	553,529
380,9	507,843
381,4	462,957
381,8	427,129
382,3	393,729
382,7	367,986
383,2	340,9
383,6	315,529
384,1	296,3
384,6	281,129
385	265,3
385,5	251,157
385,9	231,157
386,4	211,986
386,8	199,871
387,3	185,643
387,7	172,043
388,2	160,786
388,7	151,271
389,1	140,871
389,6	131,186
390	124,643
390,5	119,071
390,9	115,414
391,4	105,471
391,9	95,586
392,3	92,843
392,8	86,186
393,2	78,414
393,7	75,3
394,1	65,614
394,6	62,929
395,1	61,9
395,5	56,243
396	57,557
396,4	55,271
396,9	51,471
397,3	54,443
397,8	51,643
398,2	51,443
398,7	53,443
399,2	50,271
399,6	51,586
400,1	50,929
400,5	46,214
401	49,3
401,4	43,014
401,9	43,414
402,4	46,271
402,8	40,557
403,3	44,814
403,7	46,157
404,2	45,814
404,6	50,414
405,1	46,614
405,5	46,071
406	52,471
406,5	49,014
406,9	53,129
407,4	53,243
407,8	54,443
408,3	60,129
408,7	58,614
409,2	61,871
409,6	70,414
410,1	72,671
410,6	84,386
411	91,729
411,5	97,157
411,9	105,586
412,4	111,471
412,8	115,3
413,3	120,1
413,7	121,214
414,2	128,729
414,7	136,957
415,1	149,1
415,6	159,5
416	168,414
416,5	177,3
416,9	184,414
417,4	193,757
417,8	207,5
418,3	218,843
418,8	229,757
419,2	243,9
419,7	259,7
420,1	277,186
420,6	287,214
421	298,757
421,5	308,757
421,9	322,529
422,4	335,843
422,8	344,471
423,3	356,071
423,8	372,386
424,2	387,557
424,7	406,329
425,1	426,014
425,6	444,357
426	468,5
426,5	492,357
426,9	517,614
427,4	537,443
427,9	561,814
428,3	590,786
428,8	620,957
429,2	652,186
429,7	677,471
430,1	709,186
430,6	744,329
431	783,529
431,5	819,271
431,9	857,614
432,4	898,1
432,8	950,243
433,3	998,214
433,8	1044,9
434,2	1088,7
434,7	1136,529
435,1	1186,443
435,6	1238,557
436	1290,471
436,5	1350,1
436,9	1407,014
437,4	1471,786
437,8	1541,129
438,3	1612,814
438,8	1690,557
439,2	1770,643
439,7	1846,614
440,1	1937,186
440,6	2028,5
441	2112,529
441,5	2205,014
441,9	2302,614
442,4	2393,843
442,8	2499,157
443,3	2604,1
443,7	2706,7
444,2	2822,5
444,7	2932,729
445,1	3042,586
445,6	3163,643
446	3285,471
446,5	3406,9
446,9	3530,786
447,4	3656,071
447,8	3790,586
448,3	3935,243
448,7	4077,814
449,2	4220,357
449,6	4371,729
450,1	4517,129
450,6	4673,7
451	4831,329
451,5	4986,729
451,9	5148,7
452,4	5310,814
452,8	5471,729
453,3	5655,071
453,7	5832,957
454,2	6015,214
454,6	6194,157
455,1	6372,7
455,5	6553,586
456	6740,186
456,4	6931,414
456,9	7124,071
457,3	7321,843
457,8	7515,471
458,3	7724,786
458,7	7943,471
459,2	8159,243
459,6	8365,3
460,1	8583,986
460,5	8784,414
461	9005,614
461,4	9208,471
461,9	9408,986
462,3	9616,329
462,8	9836,614
463,2	10041,386
463,7	10259,471
464,1	10474,786
464,6	10692,214
465	10906,5
465,5	11124,614
466	11331,214
466,4	11536,9
466,9	11752,871
467,3	11954,357
467,8	12172,843
468,2	12387,471
468,7	12599,386
469,1	12807,471
469,6	13019,357
470	13220,186
470,5	13428,757
470,9	13637,129
471,4	13821,586
471,8	14008,786
472,3	14216,529
472,7	14402,929
473,2	14590,243
473,6	14762,557
474,1	14936,5
474,5	15119,014
475	15299,414
475,4	15468,386
475,9	15642,957
476,4	15803,043
476,8	15976,671
477,3	16120,043
477,7	16288,357
478,2	16422,757
478,6	16554,243
479,1	16681,814
479,5	16830,471
480	16959,014
480,4	17088,843
480,9	17201,129
481,3	17318,357
481,8	17426,1
482,2	17518,271
482,7	17597,757
483,1	17687,757
483,6	17772,157
484	17843,243
484,5	17927,471
484,9	17979,986
485,4	18053,757
485,8	18104,7
486,3	18142,7
486,7	18172,386
487,2	18202,157
487,6	18229,7
488,1	18253,043
488,5	18268,157
489	18292,443
489,4	18305,386
489,9	18310,671
490,4	18312,471
490,8	18294,9
491,3	18300,014
491,7	18285,386
492,2	18260,729
492,6	18231,557
493,1	18190,157
493,5	18146,5
494	18105,214
494,4	18042,271
494,9	17984,557
495,3	17928,871
495,8	17865,1
496,2	17825,471
496,7	17751,129
497,1	17688,214
497,6	17626,414
498	17554,814
498,5	17481,186
498,9	17404,214
499,4	17320,786
499,8	17249,843
500,3	17169,871
500,7	17080,557
501,2	16987,9
501,6	16885,729
502,1	16789,814
502,5	16691,986
503	16592,386
503,4	16470,786
503,9	16358,5
504,3	16258,414
504,8	16151,786
505,2	16041,014
505,7	15917,5
506,1	15806,9
506,6	15697,014
507	15574,071
507,5	15448,643
507,9	15324,243
508,4	15200,386
508,8	15075,786
509,3	14951,729
509,7	14829,757
510,2	14711,357
510,6	14577,7
511,1	14454,986
511,5	14325,329
512	14197,243
512,4	14062,814
512,9	13932,471
513,3	13805,186
513,8	13677,786
514,2	13539,814
514,7	13403,643
515,1	13273,7
515,6	13136,614
516	12998,386
516,5	12860,129
516,9	12735,414
517,4	12595,729
517,8	12476,986
518,3	12343,9
518,7	12211,414
519,2	12078,957
519,6	11939,729
520,1	11807,757
520,5	11688,529
521	11549,843
521,4	11423,243
521,9	11301,129
522,3	11177,643
522,8	11062,614
523,2	10937,1
523,7	10821,786
524,1	10701,729
524,6	10583,729
525	10463,871
525,5	10343,186
525,9	10231,329
526,4	10111,243
526,8	9992,414
527,3	9886,243
527,7	9779,729
528,2	9674,1
528,6	9569,157
529,1	9468,7
529,5	9376,9
530	9266,586
530,4	9163,414
530,9	9056,729
531,3	8956,957
531,8	8857,157
532,2	8755,243
532,6	8649,7
533,1	8565,129
533,5	8471,357
534	8373,729
534,4	8282,5
534,9	8198,443
535,3	8108,071
535,8	8020,443
536,2	7927,157
536,7	7835,671
537,1	7757,9
537,6	7676,586
538	7591,5
538,5	7506,557
538,9	7413,871
539,4	7337,586
539,8	7261,3
540,3	7181,271
540,7	7095,5
541,2	7015,071
541,6	6945,586
542,1	6886,5
542,5	6816,157
543	6746,214
543,4	6675,786
543,9	6611,329
544,3	6549,586
544,8	6481,671
545,2	6419,643
545,7	6348,643
546,1	6285,357
546,5	6223,5
547	6162,7
547,4	6102,614
547,9	6037,414
548,3	5970,9
548,8	5915,3
549,2	5859,386
549,7	5802,5
550,1	5750,214
550,6	5696,529
551	5646,529
551,5	5597,214
551,9	5541,329
552,4	5492,957
552,8	5446,1
553,3	5397,043
553,7	5339,929
554,2	5296,986
554,6	5252,329
555,1	5216,614
555,5	5163,671
555,9	5123,129
556,4	5073,529
556,8	5037,671
557,3	4991,414
557,7	4942,043
558,2	4897,357
558,6	4865,671
559,1	4815,671
559,5	4778,729
560	4738,986
560,4	4693,5
560,9	4666,9
561,3	4626,357
561,8	4580,671
562,2	4545,557
562,7	4510,014
563,1	4473,414
563,6	4434,843
564	4391,443
564,4	4358,071
564,9	4334,071
565,3	4303,814
565,8	4269,814
566,2	4239,757
566,7	4222,957
567,1	4192,614
567,6	4156,643
568	4116,671
568,5	4083,157
568,9	4052,329
569,4	4022,014
569,8	3985,614
570,3	3956,843
570,7	3930,471
571,1	3904,786
571,6	3877,786
572	3856,671
572,5	3823,671
572,9	3792,614
573,4	3766,243
573,8	3747,443
574,3	3715,843
574,7	3688,929
575,2	3657,471
575,6	3633,929
576,1	3614,357
576,5	3593,414
576,9	3557,271
577,4	3533,5
577,8	3506,014
578,3	3485,843
578,7	3456,443
579,2	3434,643
579,6	3402,243
580,1	3382,329
580,5	3364,929
581	3344,414
581,4	3313,557
581,9	3293,414
582,3	3266,157
582,7	3249,129
583,2	3227,814
583,6	3208,957
584,1	3191,129
584,5	3171,186
585	3154,071
585,4	3128,329
585,9	3100,157
586,3	3081,929
586,8	3055,386
587,2	3028,443
587,6	3011,843
588,1	2991,157
588,5	2977,386
589	2965,7
589,4	2942,329
589,9	2927,729
590,3	2915,814
590,8	2896,471
591,2	2880,014
591,7	2862,043
592,1	2844,986
592,5	2830,814
593	2810,986
593,4	2789,814
593,9	2773,557
594,3	2754,586
594,8	2733,9
595,2	2716,814
595,7	2703,529
596,1	2686,786
596,6	2671,271
597	2654,3
597,4	2640,529
597,9	2637,071
598,3	2626,014
598,8	2609,271
599,2	2600,357
599,7	2592,986
600,1	2582,443
600,6	2569,729
601	2546,386
601,4	2536,357
601,9	2523,329
602,3	2502,929
602,8	2487,014
603,2	2471,243
603,7	2455,871
604,1	2446,443
604,6	2426,529
605	2408,814
605,4	2398,386
605,9	2382,9
606,3	2363,471
606,8	2346,3
607,2	2327,671
607,7	2309,014
608,1	2297,814
608,6	2280,471
609	2270,843
609,4	2263,243
609,9	2252,071
610,3	2242,443
610,8	2233,643
611,2	2217,329
611,7	2204,814
612,1	2185,957
612,6	2179,757
613	2172,929
613,4	2158,5
613,9	2144,329
614,3	2132,529
614,8	2122,129
615,2	2115,414
615,7	2095,471
616,1	2083,186
616,6	2068,1
617	2056,471
617,4	2045,529
617,9	2035,614
618,3	2018,671
618,8	2014,471
619,2	1996,9
619,7	1983,129
620,1	1968,243
620,5	1960,7
621	1949,271
621,4	1939,843
621,9	1920,157
622,3	1912,843
622,8	1904,414
623,2	1893,214
623,6	1881,071
624,1	1870,814
624,5	1859,271
625	1852,186
625,4	1841,671
625,9	1832,071
626,3	1823,614
626,8	1806,386
627,2	1790,357
627,6	1770,671
628,1	1758,243
628,5	1747,186
629	1733,529
629,4	1721,643
629,9	1713,929
630,3	1704,529
630,7	1694,729
631,2	1680,7
631,6	1663,757
632,1	1656,586
632,5	1642,329
633	1628,529
633,4	1617,271
633,8	1610,129
634,3	1600,357
634,7	1593,529
635,2	1579,014
635,6	1573,471
636,1	1568,1
636,5	1552,529
636,9	1541,1
637,4	1531,614
637,8	1517,157
638,3	1506,786
638,7	1493,871
639,2	1477,386
639,6	1469,643
640	1464,243
640,5	1455,329
640,9	1443,786
641,4	1435,814
641,8	1433,157
642,2	1428,7
642,7	1422,3
643,1	1416,386
643,6	1405,843
644	1399,1
644,5	1396,5
644,9	1384,357
645,3	1376,3
645,8	1364,729
646,2	1358,557
646,7	1347,929
647,1	1339,986
647,6	1327,471
648	1321,471
648,4	1308,157
648,9	1303,529
649,3	1283,643
649,8	1282,386
650,2	1278,557
650,6	1274,814
651,1	1262,557
651,5	1261,357
652	1255,043
652,4	1248,471
652,9	1236,643
653,3	1223,271
653,7	1209,414
654,2	1200,214
654,6	1188,557
655,1	1179,729
655,5	1177,129
655,9	1172,643
656,4	1170,757
656,8	1161,157
657,3	1158,357
657,7	1155,1
658,2	1146,9
658,6	1137,214
659	1128,843
659,5	1118,9
659,9	1113,329
660,4	1104,986
660,8	1092,014
661,2	1083,157
661,7	1078,386
662,1	1069,9
662,6	1066,557
663	1060,557
663,4	1050,157
663,9	1045,157
664,3	1037,843
664,8	1029,271
665,2	1019,443
665,6	1010,271
666,1	1006,3
666,5	1003,329
667	994,3
667,4	988,471
667,9	981,471
668,3	975,671
668,7	965,929
669,2	959,557
669,6	951,586
670,1	944,814
670,5	930,386
670,9	920,643
671,4	919,729
671,8	913,5
672,3	912,386
672,7	900,157
673,1	893,586
673,6	892,1
674	892,243
674,5	878,157
674,9	867,557
675,3	855,243
675,8	851,757
676,2	844,643
676,7	838,1
677,1	828,271
677,5	824,129
678	820,443
678,4	817,043
678,9	812,1
679,3	807,757
679,7	804,271
680,2	796,1
680,6	789,643
681,1	785,271
681,5	779,643
681,9	775,957
682,4	772,586
682,8	766,957
683,3	768,5
683,7	764,5
684,1	759,7
684,6	748,214
685	739,814
685,5	733,871
685,9	727,443
686,3	716,9
686,8	713,186
687,2	708,7
687,7	699,957
688,1	689,386
688,5	684,671
689	683,357
689,4	679,443
689,9	672,557
690,3	664,214
690,7	664,957
691,2	668,957
691,6	663,757
692	656,414
692,5	653,929
692,9	650,871
693,4	646,9
693,8	643,129
694,2	634,9
694,7	631,529
695,1	629,9
695,6	623,157
696	618,3
696,4	616,329
696,9	606,871
697,3	601,3
697,8	593,414
698,2	584,271
698,6	580,157
699,1	574,357
699,5	567,329
699,9	565,757
700,4	561,5
700,8	556,843
701,3	557,129
701,7	552,529
702,1	548,586
702,6	545,186
703	544,329
703,5	540,471
703,9	540,414
704,3	535,9
704,8	531,014
705,2	527,871
705,6	523,614
706,1	515,129
706,5	510,671
707	508,643
707,4	503,186
707,8	502,271
708,3	496,129
708,7	494,957
709,2	494,643
709,6	492,214
710	488,986
710,5	483,157
710,9	478,786
711,3	477,357
711,8	474,443
712,2	472,043
712,7	467,786
713,1	465,843
713,5	465,814
714	461,329
714,4	454,843
714,8	451,386
715,3	443,9
715,7	445,043
716,2	433,186
716,6	433,471
717	426,814
717,5	422,357
717,9	422,986
718,3	419,443
718,8	412,471
719,2	411,071
719,7	403,043
720,1	407,3
720,5	414,643
721	407,9
721,4	407,071
721,8	406,814
722,3	404,329
722,7	406,157
723,2	394,414
723,6	380,129
724	374,1
724,5	367,5
724,9	362,1
725,3	355,129
725,8	346,471
726,2	345,443
726,7	346,329
727,1	342,414
727,5	340,586
728	339,214
728,4	340,243
728,8	339,471
729,3	338,443
729,7	334,871
730,1	339,757
730,6	340,043
731	331,671
731,5	330,243
731,9	328,786
732,3	325,786
732,8	327,129
733,2	322,214
733,6	319,929
734,1	324,671
734,5	323,843
734,9	323,5
735,4	325,014
735,8	319,786
736,3	321,071
736,7	316,1
737,1	314,7
737,6	309,157
738	305,986
738,4	299,671
738,9	298,414
739,3	293,3
739,7	296,471
740,2	293,043
740,6	295,471
741,1	293,557
741,5	292,186
741,9	291,729
742,4	287,986
742,8	284,414
743,2	282,9
743,7	276,557
744,1	270,014
744,5	267,214
745	263,614
745,4	261,871
745,8	258,1
746,3	257,786
746,7	259,186
747,2	259,157
747,6	263,386
748	266,5
748,5	264,757
748,9	259,586
749,3	253,1
749,8	252,586
750,2	249,414
750,6	242,186
751,1	241,5
751,5	243,386
751,9	250,757
752,4	249,871
752,8	246,929
753,3	246,557
753,7	250,529
754,1	243,186
754,6	235,814
755	230,986
755,4	231,014
755,9	227,414
756,3	224,929
756,7	222,214
757,2	226,843
757,6	228,471
758	227,529
758,5	222,5
758,9	225,471
759,3	227,271
759,8	222,071
760,2	215,243
760,6	212,871
761,1	210,7
761,5	212,3
761,9	207,671
762,4	203,1
762,8	203,614
763,3	203,814
763,7	201,157
764,1	199,329
764,6	202,043
765	200,929
765,4	202,986
765,9	201,3
766,3	201,329
766,7	200,186
767,2	199,271
767,6	197,071
768	193,5
768,5	193,043
768,9	192,671
769,3	191,957
769,8	189,443
770,2	190,414
770,6	187,643
771,1	191,157
771,5	189,671
771,9	190,7
772,4	186,814
772,8	188,186
773,2	184,1
773,7	182,414
774,1	181,557
774,5	172,129
775	172,643
775,4	173,043
775,8	170,871
776,3	171,5
776,7	173,7
777,1	170,243
777,6	178,243
778	177,5
778,4	172,786
778,9	174,671
779,3	173,814
779,7	168,671
780,2	169,014
780,6	164,986
781	157,957
781,5	156,071
781,9	152,814
782,3	148,786
782,8	148,843
783,2	145,586
783,6	147,929
784,1	148,129
784,5	147,757
784,9	148,7
785,4	150,243
785,8	152,5
786,2	154,3
786,7	149,414
787,1	148,043
787,5	149,129
788	145,614
788,4	142,357
788,8	137,414
789,3	133,471
789,7	134,186
790,1	132,071
790,6	131,7
791	123,871
791,4	126,643
791,9	122,186
792,3	118,957
792,7	119,129
793,2	115,043
793,6	115,929
794	126,157
794,5	119,986
794,9	126,043
795,3	128,186
795,8	124,7
796,2	128,357
796,6	129,7
797,1	125,471
797,5	127,043
797,9	123,871
798,4	120,9
798,8	121,671
799,2	121,386
799,7	117,471
800,1	116,643
800,5	119,271
801	118,129
801,4	118,814
801,8	117,671
802,2	118,329
802,7	114,157
803,1	113,671
803,5	111,871
804	110,157
804,4	109,586
804,8	109,386
805,3	106,329
805,7	106,529
806,1	102,357
806,6	100,129
807	102,186
807,4	98,557
807,9	94,3
808,3	95,1
808,7	97,9
809,2	103,071
809,6	104,9
810	101,386
810,4	103,557
810,9	105,471
811,3	105,729
811,7	105,014
812,2	103,814
812,6	98,7
813	99,414
813,5	101,214
813,9	100,329
814,3	98,043
814,8	94,157
815,2	87,9
815,6	87,243
816,1	88,757
816,5	86,014
816,9	84,014
817,3	85,043
817,8	89,3
818,2	95,014
818,6	90,786
819,1	86,329
819,5	87,071
819,9	90,386
820,4	87,071
820,8	79,986
821,2	75,843
821,7	79,329
822,1	85,3
822,5	84,414
822,9	82,043
823,4	79,671
823,8	82,386
824,2	84,757
824,7	82,557
825,1	71,271
825,5	66,614
826	59,043
826,4	62,871
826,8	59,5
827,3	58,843
827,7	58,557
828,1	63,814
828,5	66,1
829	67,357
829,4	64,7
829,8	64,957
830,3	58,614
830,7	57,586
831,1	58,814
831,6	57,414
832	62,3
832,4	60,7
832,8	61,757
833,3	63,929
833,7	62,443
834,1	63,014
834,6	62,729
835	62,843
835,4	67,243
835,8	63,957
836,3	60,9
836,7	63,1
837,1	59,671
837,6	62,529
838	58,271
838,4	53,643
838,9	58,986
839,3	59,014
839,7	58,014
840,1	54,786
840,6	53,614
841	55,614
841,4	56,071
841,9	54,529
842,3	56,843
842,7	56,443
843,1	58,271
843,6	59,557
844	61,014
844,4	61,7
844,9	60,129
845,3	63,443
845,7	61,929
846,2	59,357
846,6	56,757
847	58,643
847,4	61,271
847,9	62,471
848,3	58,9
848,7	61,071
849,2	64,043
849,6	58,443
850	57,871
850,4	52,1
850,9	50,9
851,3	52,186
851,7	52,957
852,2	50,043
852,6	56,814
853	55,014
853,4	56,9
853,9	54,043
854,3	52,786
854,7	52,957
855,2	51,329
855,6	44,7
856	38,557
856,4	33,357
856,9	29,3
857,3	27,9
857,7	28,843
858,2	34,1
858,6	36,386
859	42,9
859,4	47,986
859,9	49,3
860,3	50,5
860,7	45,814
861,1	43,5
861,6	43,271
862	39,214
862,4	38,529
862,9	41,557
863,3	41,786
863,7	41,957
864,1	41,843
864,6	40,329
865	39,871
865,4	40,443
865,9	40,729
866,3	34,443
866,7	32,071
867,1	31,357
867,6	29,9
868	28,129
868,4	24,3
868,8	25,186
869,3	27,329
869,7	33,1
870,1	31,014
870,6	32,671
871	14,843
871,4	19,214
871,8	16,9
872,3	17,586
872,7	18,157
873,1	20,214
873,5	22,1
874	38,557
874,4	31,871
874,8	29,471
875,3	30,414
875,7	27,929
876,1	29,671
876,5	31,329
877	31,586
877,4	31,871
877,8	34,386
878,2	38,729
878,7	36,871
879,1	35,014
879,5	32,986
879,9	36,5
880,4	39,214
880,8	37,129
881,2	33,443
881,7	31,5
882,1	30,214
882,5	27,414
882,9	22,729
883,4	17,986
883,8	20,386
884,2	17,957
884,6	15,9
885,1	15,929
885,5	17,071
885,9	15,414
886,3	19,671
886,8	17,671
887,2	16,157
887,6	19,786
888	20,643
888,5	19,786
888,9	20,1
889,3	17,529
889,8	16,614
890,2	20,3
890,6	16,586
891	17,414
891,5	15,157
891,9	20,1
892,3	24,957
892,7	24,243
893,2	21,814
893,6	23,014
894	20,357
894,4	19,729
894,9	16,729
895,3	12,757
895,7	15,9
896,1	16,386
896,6	18,214
897	17,186
897,4	25,1
897,8	30,386
898,3	30,214
898,7	25,614
899,1	24,471
899,5	22,929
900	16,243
900,4	11,157
900,8	6,986
901,2	3,586
901,7	4,043
902,1	5,671
902,5	5,357
902,9	11,071
903,4	12,214
903,8	14,214
904,2	15,443
904,6	20,557
905,1	19,814
905,5	20,329
905,9	21,586
906,3	22,357
906,8	18,271
907,2	22,5
907,6	20,071
908	21,071
908,5	20,643
908,9	21,214
909,3	20,5
909,7	21,871
910,2	20,443
910,6	25,186
911	21,529
911,4	25,357
911,9	22,929
912,3	21,014
912,7	25,557
913,1	25,7
913,6	16,729
914	16,871
914,4	10,129
914,8	9,643
915,3	9,043
915,7	0,957
916,1	-2,843
916,5	0,7
916,9	3,786
917,4	6,414
917,8	9,357
918,2	4,186
918,6	6,3
919,1	9,529
919,5	11,329
919,9	7,586
920,3	6,157
920,8	1,5
921,2	5,5
921,6	8,643
922	6,5
922,5	1,986
922,9	6,014
923,3	5,014
923,7	5,929
924,2	6,929
924,6	6,557
925	7,986
925,4	10,271
925,8	7,9
926,3	7,614
926,7	6,414
927,1	7,614
927,5	5,443
928	3,014
928,4	0,871
928,8	1,471
929,2	4,1
929,7	9,157
930,1	9,214
930,5	8,071
930,9	10,014
931,3	10,729
931,8	10,814
932,2	11,443
932,6	7,014
933	3,871
933,5	5,357
933,9	7,129
934,3	8,614
934,7	8,043
935,2	7,7
935,6	9,729
936	11,957
936,4	13,3
936,8	15,043
937,3	14,529
937,7	15,386
938,1	15,786
938,5	12,157
939	10,871
939,4	9,014
939,8	8,1
940,2	7,614
940,6	9,957
941,1	8,986
941,5	18,786
941,9	14,986
942,3	15,157
942,8	14,557
943,2	12,643
943,6	8,357
944	9,986
944,4	3,214
944,9	5,271
945,3	3,957
945,7	1,557
946,1	1,1
946,6	-1,443
947	-2,757
947,4	2,014
947,8	3,1
948,2	1,1
948,7	2,157
949,1	3,214
949,5	7,843
949,9	9,957
950,3	6,243
950,8	7,529
951,2	7,186
951,6	6,9
952	10,471
952,5	5,214
952,9	1,814
953,3	1,643
953,7	0,5
954,1	6,929
954,6	5,357
955	3,271
955,4	4,929
955,8	11,414
956,2	8,329
956,7	7,7
957,1	1,986
957,5	4,9
957,9	3,671
958,3	5,586
958,8	3,129
959,2	6,814
959,6	11,129
960	12,214
960,5	12,071
960,9	17,357
961,3	15,329
961,7	11,329
962,1	8,357
962,6	7,129
963	3,586
963,4	-0,357
963,8	-4,643
964,2	-0,643
964,7	-1,014
965,1	0,814
965,5	-2,671
965,9	-0,1
966,3	2,386
966,8	0,043
967,2	1,1
967,6	0,271
968	-1,186
968,4	1,271
968,9	6,529
969,3	11,071
969,7	14,157
970,1	8,757
970,5	11,186
971	13,529
971,4	12,186
971,8	10,5
972,2	3,529
972,6	-1,386
973,1	-3,329
973,5	-1,9
973,9	-1,157
974,3	-0,414
974,7	-2,071
975,2	0,471
975,6	4,129
976	7,043
976,4	4,557
976,8	4,414
977,3	1,757
977,7	4,014
978,1	3,586
978,5	2,043
978,9	-0,129
979,4	-4,243
979,8	-6,014
980,2	-3,071
980,6	-10,471
981	-7,786
981,5	-6,071
981,9	-4,614
982,3	2,157
982,7	1,1
983,1	-1,786
983,6	2,9
984	2,043
984,4	0,186
984,8	3,1
985,2	0,757
985,6	-2,529
986,1	1,1
986,5	4,414
986,9	1,3
987,3	5,643
987,7	5,757
988,2	2,443
988,6	5,443
989	5,643
989,4	4,614
989,8	4,157
990,3	2,443
990,7	2,3
991,1	6,957
991,5	12,986
991,9	9,7
992,3	8,471
992,8	13,357
993,2	11,529
993,6	10,471
994	9,243
994,4	7,357
994,9	8,929
995,3	11,871
995,7	7,014
996,1	9,986
996,5	8,7
996,9	4,357
997,4	3,471
997,8	0,586
998,2	-4,729
998,6	-8,729
999	-12,129
999,5	-9,557
999,9	-6,871
1000,3	-9,871
1000,7	-6,843
1001,1	-4,414
1001,5	2,1
1002	7,186
1002,4	9,414
1002,8	10,1
1003,2	13,414
1003,6	17,014
1004	16,614
1004,5	12,5
1004,9	14,271
1005,3	7,671
1005,7	6,471
1006,1	1,957
1006,6	-1,671
1007	2,043
1007,4	2,014
1007,8	-3,729
1008,2	-3,5
1008,6	-0,214
1009,1	4,043
1009,5	3,929
1009,9	-0,5
1010,3	3,271
1010,7	3,443
1011,1	6,529
1011,6	7,386
1012	11,043
1012,4	11,186
1012,8	9,557
1013,2	15,071
1013,6	14,643
1014,1	14,214
1014,5	12,557
1014,9	9,471
1015,3	8,214
1015,7	13,7
1016,1	7,357
1016,6	9,043
1017	5,5
1017,4	5,443
1017,8	3,729
1018,2	8,157
1018,6	0,529
1019,1	1,3
1019,5	-5,443
1019,9	-10,129
1020,3	-7,843
1020,7	-6,214
1021,1	-10,214
1021,6	-7,729
1022	-3,814
1022,4	1,9
1022,8	11,1
1023,2	7,043
1023,6	7,5
1024,1	11,986
1024,5	13,414
1024,9	7,043
1025,3	6,357
1025,7	3,7
1026,1	6,386
1026,6	0,071
1027	-3,614
1027,4	-4,214
1027,8	-3,329
1028,2	-5,214
1028,6	-0,157
1029	-3,843
1029,5	4,729
1029,9	3,729
1030,3	2,529
1030,7	3,786
1031,1	8,729
1031,5	5,214
1032	7,414
1032,4	3,786
1032,8	7,157
1033,2	12,271
1033,6	10,443
1034	9,786
1034,4	4,643
1034,9	5,843
1035,3	2,529
1035,7	0,043
1036,1	-6,814
1036,5	-7,1
1036,9	-6,814
1037,4	2,071
1037,8	-0,9
1038,2	1,7
1038,6	1,129
1039	7,757
1039,4	13,843
1039,8	9,586
1040,3	7,043
1040,7	9,957
1041,1	14,243
1041,5	16,929
1041,9	13,557
1042,3	10,671
1042,7	16,643
1043,2	14,243
1043,6	9,214
1044	5,443
1044,4	3,586
1044,8	8,614
1045,2	6,3
1045,6	1,9
1046,1	3,3
1046,5	4,614
1046,9	1,929
1047,3	2,471
1047,7	-1,871
1048,1	0,1
1048,5	3,757
1049	4,271
1049,4	9,214
1049,8	13,357
1050,2	14,871
1050,6	20,329
1051	20,471
1051,4	13,929
1051,9	12,557
1052,3	15,986
1052,7	14,3
1053,1	9,129
1053,5	5,7
1053,9	1,214
1054,3	6,329
1054,8	9,9
1055,2	4,129
1055,6	7,186
1056	8,671
1056,4	2,871
1056,8	8,186
1057,2	6,871
1057,6	5,329
1058,1	2,957
1058,5	-3,957
1058,9	1,986
1059,3	6,871
1059,7	5,814
1060,1	7,386
1060,5	6,729
1061	11,671
1061,4	14,986
1061,8	12,414
1062,2	10,243
1062,6	10,214
1063	8,7
1063,4	5,586
1063,8	2,786
1064,3	-1,471
1064,7	-5,329
1065,1	-5,214
1065,5	-10,386
1065,9	-12,414
1066,3	-13,871
1066,7	-15,757
1067,1	-16,957
1067,6	-12,014
1068	-13,129
1068,4	-5,9
1068,8	-0,157
1069,2	6,786
1069,6	4,986
1070	12,871
1070,4	9,814
1070,9	7,929
1071,3	6,357
1071,7	-0,614
1072,1	-5,5
1072,5	-3,214
1072,9	-7,471
1073,3	-2,757
1073,7	0,586
1074,2	-1,3
1074,6	0,871
1075	-0,957
1075,4	-0,871
1075,8	1,957
1076,2	-3,329
1076,6	-4,871
1077	-6,243
1077,5	-2,557
1077,9	0,186
1078,3	-0,071
1078,7	-2,643
1079,1	0,329
1079,5	4,243
1079,9	8,786
1080,3	3,643
1080,7	5,643
1081,2	10,614
1081,6	11,071
1082	7,9
1082,4	9,414
1082,8	6,271
1083,2	8,243
1083,6	5,9
1084	2,957
1084,5	2,843
1084,9	0,643
1085,3	-5,357
1085,7	-3,329
1086,1	-5,157
1086,5	-5,3
1086,9	-1,443
1087,3	1,414
1087,7	2,814
1088,2	5,1
1088,6	1,271
1089	5,157
1089,4	4,957
1089,8	3,614
1090,2	1,557
1090,6	0,157
1091	1,871
1091,4	7,671
1091,9	3,357
1092,3	2,871
1092,7	-3,414
1093,1	-0,929
1093,5	-0,814
1093,9	-4,3
1094,3	-3,929
1094,7	-1,643
1095,1	1,9
1095,5	7,843
1096	-0,271
1096,4	2,5
1096,8	6,386
1097,2	1,7
1097,6	2,814
1098	1,5
1098,4	1,586
1098,8	6,786
1099,2	11,786
1099,6	9,443
1100,1	10,3
1100,5	7,329
1100,9	7,671
1101,3	7,329
1101,7	6,729
1102,1	1,929
1102,5	2,129
1102,9	2,9
1103,3	6,729
1103,7	8,386
1104,2	5,757
1104,6	7,586
1105	4,443
1105,4	5,043
1105,8	3,643
1106,2	1,1
1106,6	-1,614
1107	-1,529
1107,4	-3,367
1107,8	0,02
1108,3	-0,85
