Data from Subt2_246.txt Node
Date: Sat Aug 26 18:58:18 MSK 2023
User: vat
Spectrometer: MAYP114033
Trigger mode: 0
Integration Time (sec): 1,000000E0
Scans to average: 5
Electric dark correction enabled: true
Nonlinearity correction enabled: false
Boxcar width: 3
XAxis mode: Wavelengths
Number of Pixels in Spectrum: 2068
>>>>>Begin Spectral Data<<<<<
199,4	-0,05
199,9	3,5
200,4	-0,167
200,8	1,357
201,3	1,214
201,8	2,1
202,2	-0,071
202,7	4,557
203,2	2,414
203,6	3,5
204,1	-0,929
204,6	-1,1
205	0,929
205,5	2,471
206	-1,1
206,4	-0,414
206,9	2,729
207,4	8,814
207,8	7,271
208,3	2,757
208,8	3,186
209,2	5,557
209,7	4,043
210,2	4,157
210,6	2,214
211,1	5,643
211,5	3,843
212	4,271
212,5	1,614
212,9	2,5
213,4	2,843
213,9	-1,3
214,3	0,271
214,8	7,671
215,3	8,471
215,7	12,757
216,2	15,843
216,7	13,786
217,1	15,243
217,6	16,586
218,1	13,214
218,5	10,043
219	1,614
219,5	3,757
219,9	2,929
220,4	10,9
220,9	7,614
221,3	7,471
221,8	9,529
222,3	13,214
222,7	11,329
223,2	12,7
223,6	8,157
224,1	4,9
224,6	5,7
225	3,414
225,5	6,357
226	3,671
226,4	5,529
226,9	1,9
227,4	2,871
227,8	1,243
228,3	2,5
228,8	1,043
229,2	4,471
229,7	1,843
230,2	6,214
230,6	11,614
231,1	12,243
231,5	11,9
232	12,843
232,5	7,471
232,9	11,1
233,4	10,157
233,9	6,671
234,3	6,986
234,8	10,357
235,3	7,071
235,7	9,129
236,2	8,557
236,7	10,214
237,1	12,5
237,6	14,471
238,1	13,071
238,5	12,729
239	14,129
239,4	15,129
239,9	11,271
240,4	11,929
240,8	12,071
241,3	9,529
241,8	10,957
242,2	9,9
242,7	7,071
243,2	10,386
243,6	6,7
244,1	8,214
244,6	8,786
245	11,7
245,5	15,157
245,9	15,814
246,4	15,3
246,9	17,643
247,3	14,014
247,8	20,386
248,3	18,043
248,7	13,7
249,2	14,214
249,7	10,9
250,1	10,929
250,6	13,871
251	10,871
251,5	11,1
252	13,014
252,4	15,5
252,9	17,843
253,4	11,5
253,8	8,414
254,3	7,9
254,8	9,414
255,2	6,557
255,7	1,614
256,1	2,586
256,6	8,929
257,1	12,1
257,5	6,671
258	2,386
258,5	2,586
258,9	4,043
259,4	0,443
259,9	3,529
260,3	1,643
260,8	2,243
261,2	5,1
261,7	9,243
262,2	6,157
262,6	5,471
263,1	3,243
263,6	5,786
264	14,214
264,5	16,957
264,9	13,243
265,4	17,843
265,9	20,786
266,3	23,071
266,8	25,671
267,3	23,243
267,7	17,243
268,2	15,986
268,7	16,9
269,1	16,014
269,6	8,014
270	5,529
270,5	-1,3
271	1,271
271,4	4,871
271,9	-3,586
272,4	3,414
272,8	9,157
273,3	5,986
273,7	11,414
274,2	10,729
274,7	9,157
275,1	14,586
275,6	11,014
276,1	10,1
276,5	11,443
277	8,329
277,4	10,929
277,9	13,357
278,4	14,9
278,8	16,386
279,3	16,757
279,8	16,814
280,2	20,871
280,7	20,186
281,1	14,471
281,6	13,357
282,1	10,871
282,5	8,757
283	9,814
283,4	5,957
283,9	7,414
284,4	12,986
284,8	15,071
285,3	11,729
285,8	12,271
286,2	9,357
286,7	9,529
287,1	5,529
287,6	2,7
288,1	-1,643
288,5	3,957
289	1,929
289,5	3,014
289,9	2,929
290,4	3,786
290,8	2,757
291,3	1,729
291,8	-1,871
292,2	-3,386
292,7	0,1
293,1	1,843
293,6	6,986
294,1	13,557
294,5	16,014
295	18,014
295,5	19,814
295,9	13,786
296,4	10,843
296,8	4,043
297,3	-2,1
297,8	-10,329
298,2	-12,814
298,7	-13,729
299,1	-10,9
299,6	-8,729
300,1	-5,157
300,5	-2,5
301	9,614
301,5	13,9
301,9	17,9
302,4	16,129
302,8	16,814
303,3	15,329
303,8	11,214
304,2	6,529
304,7	1,471
305,1	-4,186
305,6	-1,586
306,1	6,414
306,5	9,043
307	14,5
307,4	17,3
307,9	18,786
308,4	24,757
308,8	18,386
309,3	9,529
309,8	9,1
310,2	7,414
310,7	6,186
311,1	4,557
311,6	2,014
312,1	10,071
312,5	14,043
313	12,071
313,4	11,414
313,9	12,814
314,4	13,957
314,8	10,186
315,3	4,786
315,7	0,214
316,2	0,471
316,7	-2,614
317,1	-0,043
317,6	1,071
318	11,986
318,5	12,614
319	13,843
319,4	13,043
319,9	18,157
320,3	16,243
320,8	14,871
321,3	13,586
321,7	17,014
322,2	17,157
322,6	17,7
323,1	18,129
323,6	17,586
324	13,643
324,5	9,443
324,9	9,586
325,4	8,871
325,9	10,071
326,3	7,986
326,8	12,1
327,2	11,643
327,7	11,243
328,2	11,957
328,6	14,129
329,1	8,9
329,5	9,557
330	3,186
330,5	9,329
330,9	10,1
331,4	7,329
331,8	5,957
332,3	13,443
332,8	12,1
333,2	11,243
333,7	10,814
334,1	9,729
334,6	8,557
335,1	6,786
335,5	3,1
336	2,071
336,4	3,214
336,9	10,071
337,4	12,957
337,8	12,129
338,3	14,643
338,7	17,014
339,2	18,214
339,7	20,586
340,1	13,1
340,6	10,357
341	13,129
341,5	10,443
342	7,929
342,4	5,5
342,9	2,386
343,3	1,729
343,8	0,157
344,2	-1,271
344,7	5,357
345,2	3,557
345,6	6,843
346,1	9,214
346,5	3,614
347	1,643
347,5	0,729
347,9	0,357
348,4	2,157
348,8	0,214
349,3	3,843
349,8	8,557
350,2	15,814
350,7	16,271
351,1	12,871
351,6	20,871
352	25,186
352,5	26,186
353	32,986
353,4	36,843
353,9	47,614
354,3	57,871
354,8	59,986
355,3	73,1
355,7	85,043
356,2	103,186
356,6	123,7
357,1	139,214
357,5	162,7
358	192,671
358,5	220,129
358,9	255,871
359,4	291,643
359,8	328,7
360,3	382,814
360,8	433,957
361,2	495,9
361,7	563,414
362,1	636,9
362,6	721,129
363	807,843
363,5	896,157
364	995,586
364,4	1090,271
364,9	1193,129
365,3	1290,929
365,8	1378,843
366,3	1462,9
366,7	1540,386
367,2	1613,586
367,6	1666,157
368,1	1708,7
368,5	1737,443
369	1750,557
369,5	1756,529
369,9	1740,529
370,4	1709,414
370,8	1674,9
371,3	1623,814
371,7	1560,386
372,2	1497,557
372,7	1424,1
373,1	1353,586
373,6	1267,757
374	1193,871
374,5	1110,957
374,9	1038,186
375,4	965,129
375,9	893,529
376,3	821,214
376,8	758,586
377,2	695,243
377,7	637,643
378,2	577,843
378,6	525,586
379,1	477,614
379,5	441,043
380	407,643
380,4	372,157
380,9	341,529
381,4	314,929
381,8	291,929
382,3	276,614
382,7	255,157
383,2	235,671
383,6	218,529
384,1	206,043
384,6	193,986
385	180,157
385,5	163,786
385,9	148,586
386,4	142,357
386,8	133,586
387,3	122,329
387,7	118,757
388,2	111,329
388,7	103,643
389,1	102,214
389,6	95,843
390	88,557
390,5	86,614
390,9	79,357
391,4	75,443
391,9	71,957
392,3	67,329
392,8	59,471
393,2	51,471
393,7	45,129
394,1	43,643
394,6	41,414
395,1	43,586
395,5	38,7
396	40,643
396,4	44,586
396,9	46,329
397,3	47,9
397,8	48,386
398,2	47,214
398,7	50,786
399,2	53,471
399,6	55,243
400,1	52,786
400,5	48,957
401	47,071
401,4	41,129
401,9	41,986
402,4	39,3
402,8	35,986
403,3	41,9
403,7	40,329
404,2	43,814
404,6	48,757
405,1	45,157
405,5	40,757
406	38,386
406,5	30,614
406,9	35,357
407,4	25,957
407,8	21,814
408,3	26,186
408,7	27,357
409,2	33,329
409,6	37,357
410,1	34,386
410,6	43,9
411	45,471
411,5	44,814
411,9	48,843
412,4	47,929
412,8	53,043
413,3	57,443
413,7	54,871
414,2	59,443
414,7	63,986
415,1	68,671
415,6	73,386
416	74,7
416,5	74,786
416,9	80,1
417,4	82,043
417,8	87,814
418,3	88,5
418,8	91,929
419,2	92,129
419,7	93,986
420,1	93,671
420,6	94,586
421	86,757
421,5	88,843
421,9	90,186
422,4	92,443
422,8	95,014
423,3	95,671
423,8	94,386
424,2	95,5
424,7	96,129
425,1	97,014
425,6	101,586
426	101,957
426,5	102,7
426,9	104,9
427,4	103,271
427,9	96,843
428,3	98,271
428,8	94,357
429,2	90,043
429,7	90,443
430,1	90,3
430,6	93,814
431	96,443
431,5	93,243
431,9	90,329
432,4	96,529
432,8	100,786
433,3	106,071
433,8	105,757
434,2	112,386
434,7	116,129
435,1	121,014
435,6	121,957
436	123,757
436,5	127,929
436,9	133,871
437,4	132,071
437,8	137,5
438,3	144,871
438,8	147,329
439,2	152,214
439,7	155,157
440,1	164,871
440,6	177,414
441	177,957
441,5	184,129
441,9	194,586
442,4	199,243
442,8	206,243
443,3	213,786
443,7	220,729
444,2	236,643
444,7	242,071
445,1	251,786
445,6	265,243
446	276,7
446,5	283,386
446,9	287,3
447,4	296,129
447,8	311,843
448,3	330,757
448,7	343,129
449,2	361,014
449,6	380,729
450,1	398,9
450,6	416,729
451	430,243
451,5	436,129
451,9	451,986
452,4	466,529
452,8	474,471
453,3	495,5
453,7	508,414
454,2	529,3
454,6	552,871
455,1	575,071
455,5	585,814
456	610,671
456,4	625,329
456,9	646,586
457,3	665,929
457,8	678,1
458,3	694,729
458,7	720,1
459,2	740,014
459,6	765,843
460,1	790,814
460,5	807,786
461	840,243
461,4	861,786
461,9	883,786
462,3	912,129
462,8	939,186
463,2	961,129
463,7	993,014
464,1	1023,186
464,6	1051,586
465	1082,614
465,5	1106,014
466	1132,586
466,4	1161,529
466,9	1194,443
467,3	1218,729
467,8	1255,871
468,2	1284,643
468,7	1314,586
469,1	1346,7
469,6	1374,129
470	1393,3
470,5	1421,929
470,9	1439,843
471,4	1467,071
471,8	1497,757
472,3	1523,586
472,7	1556,243
473,2	1585,186
473,6	1607,671
474,1	1643,129
474,5	1677,7
475	1705,529
475,4	1735,271
475,9	1770,757
476,4	1802,957
476,8	1842,786
477,3	1869,957
477,7	1902,129
478,2	1939,1
478,6	1960,843
479,1	1978,443
479,5	2008,414
480	2028,986
480,4	2055,814
480,9	2074,671
481,3	2090,614
481,8	2121,3
482,2	2144,529
482,7	2165,271
483,1	2193,157
483,6	2216,443
484	2240,443
484,5	2268,7
484,9	2293,9
485,4	2320,043
485,8	2344,357
486,3	2357,071
486,7	2377,871
487,2	2400,157
487,6	2419,329
488,1	2435,014
488,5	2449,671
489	2471,471
489,4	2495,957
489,9	2506,986
490,4	2518,271
490,8	2533,157
491,3	2554,443
491,7	2566,671
492,2	2580,7
492,6	2592,186
493,1	2609,614
493,5	2618,7
494	2629,7
494,4	2635,443
494,9	2651,014
495,3	2665,186
495,8	2677,043
496,2	2689,443
496,7	2702,557
497,1	2714,129
497,6	2732,986
498	2750,843
498,5	2758,071
498,9	2768,443
499,4	2782,357
499,8	2802,929
500,3	2811,271
500,7	2810,957
501,2	2812,5
501,6	2814,414
502,1	2826,614
502,5	2832,871
503	2834,929
503,4	2843,729
503,9	2851,5
504,3	2862,3
504,8	2874,014
505,2	2877,871
505,7	2880,871
506,1	2887,786
506,6	2891,186
507	2898,557
507,5	2902,443
507,9	2908,957
508,4	2909,871
508,8	2919,014
509,3	2915,643
509,7	2927,414
510,2	2932,129
510,6	2932,9
511,1	2935,3
511,5	2943,986
512	2945,871
512,4	2958,471
512,9	2960,557
513,3	2970,957
513,8	2976,986
514,2	2982,843
514,7	2983,7
515,1	2987,929
515,6	2988,786
516	2986,986
516,5	2990,643
516,9	2994,071
517,4	2997,043
517,8	3007,671
518,3	3014,814
518,7	3025,3
519,2	3030,129
519,6	3029,157
520,1	3039,929
520,5	3043,5
521	3046,186
521,4	3049,929
521,9	3054,843
522,3	3062,329
522,8	3066,214
523,2	3073,986
523,7	3085,786
524,1	3089,986
524,6	3095,9
525	3098,9
525,5	3103,786
525,9	3110,614
526,4	3113,614
526,8	3115,329
527,3	3129,986
527,7	3135,043
528,2	3149,986
528,6	3158,271
529,1	3170,871
529,5	3182,243
530	3188,557
530,4	3188,443
530,9	3198,786
531,3	3197,186
531,8	3208,386
532,2	3214,3
532,6	3216,271
533,1	3228,986
533,5	3240,329
534	3245,3
534,4	3251,671
534,9	3261,529
535,3	3268,014
535,8	3278,386
536,2	3278,1
536,7	3285,157
537,1	3291,529
537,6	3301,671
538	3310,843
538,5	3320,671
538,9	3319,043
539,4	3335,129
539,8	3337,471
540,3	3355,414
540,7	3361,871
541,2	3364,357
541,6	3375,014
542,1	3392,129
542,5	3399,614
543	3410,414
543,4	3407,271
543,9	3421,043
544,3	3435,643
544,8	3436,957
545,2	3443,843
545,7	3453,1
546,1	3465,271
546,5	3475,929
547	3483,7
547,4	3488,043
547,9	3495,957
548,3	3503,3
548,8	3514,157
549,2	3516,729
549,7	3525,529
550,1	3539,243
550,6	3544,557
551	3556,9
551,5	3565,671
551,9	3561,1
552,4	3564,671
552,8	3573,471
553,3	3571,614
553,7	3577,614
554,2	3585,1
554,6	3591,557
555,1	3604,214
555,5	3616,757
555,9	3617,129
556,4	3620,271
556,8	3621,1
557,3	3628,929
557,7	3641,814
558,2	3649,7
558,6	3660,929
559,1	3672,557
559,5	3684,614
560	3697,729
560,4	3700,9
560,9	3699,386
561,3	3699,786
561,8	3695,471
562,2	3703,386
562,7	3705,957
563,1	3711,357
563,6	3709,7
564	3713,529
564,4	3720,386
564,9	3729,671
565,3	3729,786
565,8	3732,871
566,2	3739,1
566,7	3744,414
567,1	3750,986
567,6	3750,586
568	3755,871
568,5	3761,9
568,9	3760,329
569,4	3758,043
569,8	3761,871
570,3	3760,157
570,7	3765,643
571,1	3765,7
571,6	3767,871
572	3778,186
572,5	3781,957
572,9	3782,786
573,4	3787,871
573,8	3789,071
574,3	3785,671
574,7	3784,186
575,2	3774,5
575,6	3770,471
576,1	3771,957
576,5	3768,786
576,9	3766,757
577,4	3764,129
577,8	3757,729
578,3	3760,157
578,7	3754,814
579,2	3747,957
579,6	3743,357
580,1	3734,786
580,5	3732,9
581	3732,557
581,4	3730,671
581,9	3732,214
582,3	3730,3
582,7	3728,443
583,2	3724,929
583,6	3721,7
584,1	3720,871
584,5	3712,929
585	3706,214
585,4	3694,414
585,9	3687,043
586,3	3686,757
586,8	3680,5
587,2	3672,9
587,6	3666,529
588,1	3666,129
588,5	3664,586
589	3665,529
589,4	3652,643
589,9	3646,986
590,3	3633,986
590,8	3626,786
591,2	3616,557
591,7	3621,157
592,1	3608,014
592,5	3611,386
593	3608,529
593,4	3606,986
593,9	3598,986
594,3	3590,243
594,8	3571,529
595,2	3565,586
595,7	3554,671
596,1	3545,043
596,6	3547,614
597	3548,186
597,4	3547,129
597,9	3546,214
598,3	3545,386
598,8	3541,471
599,2	3532,471
599,7	3518,471
600,1	3514,957
600,6	3502,471
601	3494,271
601,4	3483,243
601,9	3480,557
602,3	3475,271
602,8	3466,757
603,2	3456,986
603,7	3448,986
604,1	3441,814
604,6	3430,5
605	3412,386
605,4	3411,671
605,9	3404,386
606,3	3383,9
606,8	3375,9
607,2	3365,414
607,7	3359,586
608,1	3351,471
608,6	3335,186
609	3327,271
609,4	3323,043
609,9	3312,443
610,3	3305,814
610,8	3290,957
611,2	3282,529
611,7	3269,129
612,1	3249,986
612,6	3242,071
613	3237,643
613,4	3220,843
613,9	3205,271
614,3	3192,014
614,8	3182,186
615,2	3169,271
615,7	3158,471
616,1	3144,1
616,6	3130,271
617	3121,671
617,4	3112,071
617,9	3103,157
618,3	3095,529
618,8	3084,414
619,2	3071,471
619,7	3061,443
620,1	3047,271
620,5	3036,271
621	3017,814
621,4	3008,386
621,9	2990,243
622,3	2972,671
622,8	2958,157
623,2	2950,729
623,6	2929,757
624,1	2919,871
624,5	2904,471
625	2903,243
625,4	2890,529
625,9	2882,243
626,3	2865,814
626,8	2860,9
627,2	2843,443
627,6	2827,757
628,1	2799,671
628,5	2788,643
629	2771,986
629,4	2759,471
629,9	2742,129
630,3	2727,129
630,7	2711,643
631,2	2701,957
631,6	2690,1
632,1	2676,529
632,5	2663,243
633	2647,3
633,4	2634,586
633,8	2625,243
634,3	2613,157
634,7	2596,071
635,2	2582,786
635,6	2568,243
636,1	2556,1
636,5	2541,814
636,9	2523,757
637,4	2505,271
637,8	2486,471
638,3	2472,529
638,7	2466,414
639,2	2454,157
639,6	2448,243
640	2436,614
640,5	2427,414
640,9	2421,814
641,4	2415,243
641,8	2400,471
642,2	2388,3
642,7	2378,443
643,1	2369,186
643,6	2357,671
644	2344,357
644,5	2328,043
644,9	2311,586
645,3	2297,643
645,8	2274,729
646,2	2262,729
646,7	2249,214
647,1	2238,614
647,6	2224,471
648	2216,214
648,4	2206,043
648,9	2204,614
649,3	2187,071
649,8	2177,814
650,2	2168,871
650,6	2160,014
651,1	2145,071
651,5	2138,586
652	2122,214
652,4	2113,814
652,9	2106,757
653,3	2089,443
653,7	2079,643
654,2	2068,614
654,6	2050,129
655,1	2042,329
655,5	2038,3
655,9	2021,014
656,4	2015,9
656,8	2001,357
657,3	1993,071
657,7	1985,329
658,2	1972,043
658,6	1952,357
659	1944,043
659,5	1928,871
659,9	1917,357
660,4	1900,471
660,8	1885,871
661,2	1875,271
661,7	1866,3
662,1	1853,071
662,6	1838,529
663	1825,871
663,4	1816,186
663,9	1804,357
664,3	1787,643
664,8	1776,871
665,2	1764,329
665,6	1754,9
666,1	1746,386
666,5	1737,5
667	1730,129
667,4	1717,814
667,9	1707,157
668,3	1694,386
668,7	1683,329
669,2	1672,757
669,6	1662,729
670,1	1647,129
670,5	1635,786
670,9	1622,1
671,4	1614,957
671,8	1607,014
672,3	1600,614
672,7	1590,471
673,1	1579,414
673,6	1574,386
674	1567,586
674,5	1561,186
674,9	1545,243
675,3	1527,957
675,8	1517,186
676,2	1511,043
676,7	1497,729
677,1	1485,986
677,5	1468,786
678	1462,043
678,4	1457,157
678,9	1447,329
679,3	1438,443
679,7	1437,843
680,2	1425,3
680,6	1413,071
681,1	1402,814
681,5	1393,186
681,9	1381,871
682,4	1374,957
682,8	1363,7
683,3	1359,614
683,7	1358,357
684,1	1347,5
684,6	1333,386
685	1324,5
685,5	1308,643
685,9	1293,957
686,3	1282,529
686,8	1269,329
687,2	1264,157
687,7	1259,929
688,1	1246,671
688,5	1239,871
689	1230,529
689,4	1218,757
689,9	1208,014
690,3	1196,929
690,7	1189,671
691,2	1187,843
691,6	1186,357
692	1179,414
692,5	1176,9
692,9	1173,043
693,4	1169,843
693,8	1161,1
694,2	1152,671
694,7	1140,814
695,1	1132,729
695,6	1126,414
696	1120,957
696,4	1110,9
696,9	1101,271
697,3	1092,7
697,8	1087,3
698,2	1079,757
698,6	1072,586
699,1	1064,186
699,5	1059,129
699,9	1046,957
700,4	1037,529
700,8	1028,043
701,3	1023,757
701,7	1012,271
702,1	1005,5
702,6	991,643
703	993,386
703,5	987,414
703,9	982,443
704,3	976,471
704,8	971,786
705,2	964,557
705,6	959,986
706,1	950,357
706,5	942,929
707	939,757
707,4	933,557
707,8	927,243
708,3	920,7
708,7	916,643
709,2	914,271
709,6	906,671
710	896,557
710,5	887,1
710,9	881,443
711,3	875,614
711,8	872,557
712,2	862,586
712,7	856,071
713,1	850,586
713,5	848,357
714	844,329
714,4	834,043
714,8	829,757
715,3	822,643
715,7	822,957
716,2	818,9
716,6	811,3
717	797,1
717,5	795,5
717,9	787,3
718,3	780,329
718,8	772,129
719,2	763,186
719,7	757,757
720,1	761,043
720,5	754,271
721	744,329
721,4	739,557
721,8	742,729
722,3	733,1
722,7	730,643
723,2	719,014
723,6	708,757
724	703,814
724,5	697,814
724,9	684,014
725,3	680,986
725,8	672,643
726,2	669,329
726,7	669,3
727,1	663,5
727,5	660,386
728	651,5
728,4	646,843
728,8	643,186
729,3	636,643
729,7	628,671
730,1	624,757
730,6	621,986
731	620,043
731,5	614,271
731,9	609,3
732,3	608,357
732,8	607,443
733,2	605,614
733,6	597,5
734,1	594,186
734,5	592,214
734,9	589,443
735,4	586,986
735,8	578,586
736,3	579,9
736,7	576,471
737,1	572,471
737,6	569,386
738	561,214
738,4	554,957
738,9	557,3
739,3	545,986
739,7	543,1
740,2	541,9
740,6	543,929
741,1	550,243
741,5	540,729
741,9	537,529
742,4	539,729
742,8	536,9
743,2	535,357
743,7	521,214
744,1	508,729
744,5	508,586
745	500,786
745,4	493,843
745,8	489,186
746,3	481,814
746,7	486,9
747,2	486,957
747,6	489,671
748	492,243
748,5	492,557
748,9	491,5
749,3	493,043
749,8	487,3
750,2	487,157
750,6	476,214
751,1	470,7
751,5	464,557
751,9	462,186
752,4	458,043
752,8	453,671
753,3	448,871
753,7	451,986
754,1	446,3
754,6	441,614
755	435,643
755,4	429,643
755,9	426,9
756,3	421,414
756,7	417,7
757,2	420,186
757,6	419,3
758	415,329
758,5	414,271
758,9	413,614
759,3	411,414
759,8	408,643
760,2	399,471
760,6	397,071
761,1	396,157
761,5	392,586
761,9	388,7
762,4	386,071
762,8	382,014
763,3	381,929
763,7	382,243
764,1	379,9
764,6	380,157
765	380,014
765,4	378,414
765,9	378,957
766,3	380,414
766,7	376,243
767,2	375,014
767,6	372,643
768	366,843
768,5	365,414
768,9	359,929
769,3	353,9
769,8	348,957
770,2	345,957
770,6	340,929
771,1	341,071
771,5	338,929
771,9	337,871
772,4	336,386
772,8	334,729
773,2	335,157
773,7	330,986
774,1	330,157
774,5	321,986
775	318,414
775,4	314,043
775,8	309,386
776,3	305,014
776,7	306,9
777,1	304,929
777,6	304,671
778	306,243
778,4	303,271
778,9	304,5
779,3	302,529
779,7	300,071
780,2	297,3
780,6	297,814
781	294,043
781,5	292,1
781,9	289,214
782,3	283,843
782,8	281,586
783,2	281,557
783,6	282,643
784,1	283,014
784,5	283,414
784,9	282,586
785,4	287,243
785,8	285,9
786,2	280,529
786,7	273,1
787,1	266,814
787,5	265,043
788	264,929
788,4	260,043
788,8	257,414
789,3	256,7
789,7	259,5
790,1	256,957
790,6	254,929
791	247,557
791,4	247,186
791,9	242,129
792,3	233,7
792,7	229,786
793,2	229,014
793,6	227,329
794	228,5
794,5	224,7
794,9	224,757
795,3	231,357
795,8	224,529
796,2	224,271
796,6	223,014
797,1	219,243
797,5	216,1
797,9	213,243
798,4	207,129
798,8	208,243
799,2	206,471
799,7	206,129
800,1	206,243
800,5	207,471
801	209,271
801,4	206,929
801,8	204,586
802,2	204,3
802,7	202,329
803,1	200,243
803,5	198,357
804	193,129
804,4	194,986
804,8	195,557
805,3	191,586
805,7	187,614
806,1	187,243
806,6	186,671
807	190,214
807,4	185,329
807,9	182,9
808,3	181,757
808,7	179,471
809,2	177,929
809,6	177,214
810	172,014
810,4	175,271
810,9	175,471
811,3	177,7
811,7	178,214
812,2	181,643
812,6	176,643
813	181,3
813,5	173,643
813,9	171,586
814,3	166,357
814,8	166,271
815,2	158,071
815,6	154,5
816,1	149,757
816,5	149,843
816,9	149,557
817,3	150,814
817,8	156,357
818,2	159,586
818,6	160,957
819,1	158,5
819,5	157,271
819,9	158,614
820,4	153,071
820,8	144,671
821,2	140,214
821,7	139,7
822,1	140,414
822,5	145,586
822,9	139,814
823,4	144,271
823,8	145,329
824,2	146,1
824,7	142,357
825,1	136,043
825,5	133,786
826	131,671
826,4	129,471
826,8	125,043
827,3	124,957
827,7	124,529
828,1	126,557
828,5	122,071
829	122,843
829,4	122,529
829,8	118,386
830,3	114,986
830,7	114,529
831,1	115,529
831,6	114,814
832	111,271
832,4	111,929
832,8	115,843
833,3	114,871
833,7	116,071
834,1	111,1
834,6	113,357
835	119,929
835,4	118,557
835,8	114,671
836,3	114,129
836,7	115,014
837,1	116,014
837,6	115,157
838	109,786
838,4	104,1
838,9	105,614
839,3	104,871
839,7	101,729
840,1	97,5
840,6	94,757
841	93,986
841,4	95,357
841,9	94,9
842,3	92,671
842,7	94,214
843,1	96,414
843,6	99,614
844	99,471
844,4	101,871
844,9	100,129
845,3	100,471
845,7	97,9
846,2	96,129
846,6	87,471
847	88,643
847,4	85,986
847,9	85,386
848,3	88,186
848,7	89,071
849,2	88,014
849,6	88,014
850	88,671
850,4	87,271
850,9	91,671
851,3	87,786
851,7	87,843
852,2	89,243
852,6	91,786
853	91,071
853,4	90,414
853,9	82,443
854,3	85,786
854,7	81,043
855,2	81,386
855,6	79,929
856	74,443
856,4	67,157
856,9	68,071
857,3	66,3
857,7	71,157
858,2	69,814
858,6	70,014
859	69,014
859,4	79,071
859,9	76,9
860,3	72,014
860,7	71,414
861,1	73,386
861,6	70,3
862	71,471
862,4	65,157
862,9	67,129
863,3	68,129
863,7	63,271
864,1	64,471
864,6	65,729
865	63,414
865,4	65,271
865,9	67,929
866,3	62,957
866,7	61,357
867,1	55,5
867,6	55,214
868	57,9
868,4	55,986
868,8	54,929
869,3	61,186
869,7	67,014
870,1	62,729
870,6	61,5
871	-14,929
871,4	-9,157
871,8	-11,671
872,3	-13,7
872,7	-13,586
873,1	-10,3
873,5	-9,1
874	64,1
874,4	59,757
874,8	54,471
875,3	56,443
875,7	53,386
876,1	57,443
876,5	54,5
877	55,214
877,4	53,214
877,8	57,671
878,2	57,186
878,7	57,157
879,1	54,757
879,5	59,7
879,9	58,786
880,4	57,329
880,8	55,243
881,2	52,071
881,7	50,471
882,1	48,5
882,5	43,671
882,9	44,986
883,4	42,471
883,8	46,5
884,2	49,529
884,6	44,843
885,1	49,671
885,5	51,3
885,9	47,986
886,3	52,386
886,8	50,843
887,2	45,471
887,6	48,471
888	43,7
888,5	43,5
888,9	42,614
889,3	37,386
889,8	36,186
890,2	35,414
890,6	32,471
891	34,443
891,5	31,1
891,9	32,929
892,3	40,329
892,7	40,9
893,2	42,843
893,6	42,786
894	41,9
894,4	41,271
894,9	40,3
895,3	35,929
895,7	34,7
896,1	34,586
896,6	37,414
897	40,214
897,4	45,843
897,8	51,757
898,3	55,043
898,7	53,786
899,1	55,529
899,5	49,986
900	39,643
900,4	38,5
900,8	31,214
901,2	23,786
901,7	23,786
902,1	24,757
902,5	28,414
902,9	32,671
903,4	30,843
903,8	32,414
904,2	32,1
904,6	29,043
905,1	23,786
905,5	25,186
905,9	25,9
906,3	24,986
906,8	24,757
907,2	29,271
907,6	30,957
908	34,9
908,5	33,071
908,9	30,929
909,3	29,186
909,7	28,414
910,2	28,1
910,6	31,7
911	26,471
911,4	29,043
911,9	28,5
912,3	28,214
912,7	31,871
913,1	30,1
913,6	21,443
914	26,071
914,4	21,529
914,8	21,7
915,3	18,443
915,7	15,843
916,1	15,071
916,5	22,014
916,9	19,214
917,4	22,643
917,8	24,814
918,2	25,014
918,6	25,614
919,1	27,014
919,5	28,471
919,9	28,586
920,3	23,014
920,8	19,471
921,2	23,329
921,6	20,871
922	21,1
922,5	19,557
922,9	18,843
923,3	18,729
923,7	20,329
924,2	15,529
924,6	17,871
925	18,329
925,4	14,957
925,8	12,014
926,3	11,414
926,7	9,614
927,1	14,1
927,5	13,3
928	9,757
928,4	10,586
928,8	15,243
929,2	19,386
929,7	22,586
930,1	21,614
930,5	17,957
930,9	21,129
931,3	21,3
931,8	20,814
932,2	17,843
932,6	17,643
933	13,643
933,5	15,729
933,9	16,129
934,3	20,386
934,7	19,243
935,2	20,129
935,6	19,386
936	21,814
936,4	23,557
936,8	21,614
937,3	12,929
937,7	11,986
938,1	16,129
938,5	12,643
939	14,129
939,4	15,129
939,8	13,329
940,2	15,843
940,6	16,386
941,1	14,271
941,5	20,043
941,9	15,7
942,3	13,214
942,8	15,386
943,2	19,071
943,6	16,929
944	19,614
944,4	17,414
944,9	17,986
945,3	18,586
945,7	16,414
946,1	10,271
946,6	8,929
947	2,757
947,4	5,9
947,8	8,071
948,2	5,9
948,7	4,186
949,1	3,329
949,5	11,814
949,9	14,614
950,3	12,929
950,8	11,786
951,2	13,929
951,6	14,843
952	24,186
952,5	16,471
952,9	15,557
953,3	13,129
953,7	11,9
954,1	12,586
954,6	13,186
955	11,471
955,4	12,443
955,8	16,014
956,2	18,157
956,7	23,386
957,1	19,357
957,5	21,129
957,9	19,7
958,3	19,5
958,8	19,5
959,2	17,186
959,6	16,214
960	19,186
960,5	20,671
960,9	20,043
961,3	19,843
961,7	16,1
962,1	16,186
962,6	18,014
963	16,671
963,4	10,157
963,8	8,729
964,2	11,186
964,7	11,729
965,1	13,214
965,5	12,729
965,9	13,186
966,3	19,614
966,8	19,929
967,2	20,1
967,6	17,586
968	12,529
968,4	10,671
968,9	12,329
969,3	14,271
969,7	11,7
970,1	12,329
970,5	14,129
971	19,871
971,4	19,614
971,8	21,3
972,2	17,043
972,6	19,957
973,1	18,529
973,5	17,214
973,9	18,1
974,3	16,3
974,7	13,614
975,2	16,929
975,6	14,186
976	16,814
976,4	17,329
976,8	14,043
977,3	15,471
977,7	15,671
978,1	14,7
978,5	15,614
978,9	11,471
979,4	10,957
979,8	9,614
980,2	11,386
980,6	9,157
981	9,214
981,5	8,757
981,9	10,9
982,3	12,871
982,7	11,929
983,1	10,586
983,6	13,7
984	9,357
984,4	11,071
984,8	12,757
985,2	10,386
985,6	7,214
986,1	8,271
986,5	8,5
986,9	7,529
987,3	11,3
987,7	9,3
988,2	9,586
988,6	16,329
989	14,757
989,4	15,357
989,8	17,843
990,3	15,443
990,7	17,129
991,1	16,7
991,5	20,586
991,9	23,529
992,3	22,157
992,8	25,986
993,2	26,643
993,6	23,871
994	27,986
994,4	23,414
994,9	21,1
995,3	15,643
995,7	13,929
996,1	10,357
996,5	11,957
996,9	6,786
997,4	11,243
997,8	7,757
998,2	10,986
998,6	6,9
999	9,3
999,5	7,614
999,9	8,9
1000,3	1,757
1000,7	1,843
1001,1	0,014
1001,5	4,557
1002	9,329
1002,4	11,5
1002,8	13,014
1003,2	17,414
1003,6	22,157
1004	25,071
1004,5	19,957
1004,9	15,7
1005,3	11,214
1005,7	12,1
1006,1	8,557
1006,6	7,214
1007	7,871
1007,4	7,871
1007,8	6,157
1008,2	3,757
1008,6	3,814
1009,1	3,671
1009,5	1,9
1009,9	1,186
1010,3	3,386
1010,7	5,014
1011,1	9,329
1011,6	12,557
1012	16,729
1012,4	17,671
1012,8	16,986
1013,2	24,414
1013,6	23,186
1014,1	23,443
1014,5	19,814
1014,9	17,957
1015,3	17,129
1015,7	16,9
1016,1	10,386
1016,6	11,243
1017	12,986
1017,4	12,043
1017,8	11,071
1018,2	11,814
1018,6	14,243
1019,1	15,071
1019,5	15,871
1019,9	10,671
1020,3	15,386
1020,7	15,757
1021,1	12,157
1021,6	8,471
1022	10,7
1022,4	7,929
1022,8	10,957
1023,2	7,929
1023,6	9,9
1024,1	18,671
1024,5	21,814
1024,9	17,529
1025,3	21,614
1025,7	22,071
1026,1	23,214
1026,6	20,357
1027	14,9
1027,4	15,757
1027,8	16,9
1028,2	11,243
1028,6	14,271
1029	10,443
1029,5	13,214
1029,9	13,671
1030,3	10,757
1030,7	12,586
1031,1	16,271
1031,5	13,757
1032	11,786
1032,4	8,157
1032,8	7,186
1033,2	7,443
1033,6	5,386
1034	2,7
1034,4	1,557
1034,9	7,557
1035,3	6,5
1035,7	12,014
1036,1	9,214
1036,5	6,186
1036,9	6,557
1037,4	13,1
1037,8	7,871
1038,2	11,014
1038,6	5,557
1039	11,5
1039,4	18,557
1039,8	18,129
1040,3	16,5
1040,7	17,271
1041,1	18,5
1041,5	21,186
1041,9	15,671
1042,3	10,643
1042,7	16,529
1043,2	13,129
1043,6	12,529
1044	10,186
1044,4	10,729
1044,8	13,329
1045,2	12,871
1045,6	10,357
1046,1	8,757
1046,5	7,871
1046,9	5,671
1047,3	2,871
1047,7	3,986
1048,1	5,9
1048,5	2,9
1049	8,214
1049,4	14,186
1049,8	17,729
1050,2	19,929
1050,6	21,586
1051	21,843
1051,4	24,786
1051,9	20,471
1052,3	23,529
1052,7	21,643
1053,1	18,729
1053,5	18,814
1053,9	18,014
1054,3	15,729
1054,8	21,271
1055,2	18,3
1055,6	20,243
1056	19,3
1056,4	16,986
1056,8	19,814
1057,2	22,129
1057,6	13,871
1058,1	10,671
1058,5	10,671
1058,9	18,443
1059,3	17,386
1059,7	13,843
1060,1	11,186
1060,5	15,843
1061	15,986
1061,4	17,557
1061,8	14,671
1062,2	14,557
1062,6	20,043
1063	21,986
1063,4	22,157
1063,8	24,614
1064,3	18,1
1064,7	12,843
1065,1	13,643
1065,5	6,843
1065,9	5,1
1066,3	-2,214
1066,7	-4,5
1067,1	-2,671
1067,6	-0,586
1068	-0,243
1068,4	0,157
1068,8	6,157
1069,2	14,386
1069,6	14,3
1070	18,329
1070,4	17,729
1070,9	14,157
1071,3	15,986
1071,7	12,186
1072,1	12,786
1072,5	9,071
1072,9	1,271
1073,3	5,786
1073,7	8,929
1074,2	9,643
1074,6	9,329
1075	4,957
1075,4	10,529
1075,8	16,786
1076,2	15,614
1076,6	18,414
1077	16,386
1077,5	19,243
1077,9	16,414
1078,3	12,5
1078,7	12,414
1079,1	8,843
1079,5	7,129
1079,9	11,1
1080,3	9,5
1080,7	11,014
1081,2	20,5
1081,6	18,414
1082	15,757
1082,4	16,814
1082,8	12,757
1083,2	11,5
1083,6	14,871
1084	5,814
1084,5	8,757
1084,9	9,614
1085,3	2,443
1085,7	6,157
1086,1	7,614
1086,5	6,3
1086,9	7,129
1087,3	7,129
1087,7	8,757
1088,2	10,271
1088,6	6,3
1089	3,129
1089,4	-1,043
1089,8	-0,129
1090,2	-6,3
1090,6	-7,729
1091	-1,271
1091,4	-3,729
1091,9	-0,414
1092,3	3,471
1092,7	3,843
1093,1	12,214
1093,5	16,443
1093,9	14,871
1094,3	25,071
1094,7	20,214
1095,1	23,386
1095,5	25,043
1096	20,071
1096,4	18,357
1096,8	15,1
1097,2	12,729
1097,6	19,5
1098	17,843
1098,4	17,871
1098,8	19,386
1099,2	24,7
1099,6	24,643
1100,1	20,186
1100,5	12,871
1100,9	9,786
1101,3	10,814
1101,7	10,871
1102,1	5,414
1102,5	9,729
1102,9	10,586
1103,3	15,957
1103,7	17,529
1104,2	13,529
1104,6	13,529
1105	10,271
1105,4	8,1
1105,8	6,1
1106,2	2,271
1106,6	1,357
1107	1,357
1107,4	-0,433
1107,8	2,74
1108,3	-0,3
