Data from Subt2_151.txt Node
Date: Sat Aug 26 18:31:53 MSK 2023
User: vat
Spectrometer: MAYP114033
Trigger mode: 0
Integration Time (sec): 1,000000E0
Scans to average: 5
Electric dark correction enabled: true
Nonlinearity correction enabled: false
Boxcar width: 3
XAxis mode: Wavelengths
Number of Pixels in Spectrum: 2068
>>>>>Begin Spectral Data<<<<<
199,4	0,2
199,9	2,02
200,4	-0,667
200,8	2,757
201,3	-0,443
201,8	1,071
202,2	-1,729
202,7	1,357
203,2	0,214
203,6	1,786
204,1	-2,957
204,6	0,157
205	-2,7
205,5	1,871
206	1,786
206,4	1,357
206,9	1,614
207,4	2,243
207,8	4,129
208,3	4,414
208,8	2,357
209,2	3,443
209,7	7,729
210,2	7,814
210,6	6,843
211,1	3,214
211,5	-0,729
212	-2,014
212,5	-5,271
212,9	-13,729
213,4	-12,329
213,9	-13,471
214,3	-10,186
214,8	-4,271
215,3	-5,814
215,7	-2,929
216,2	5,814
216,7	5,814
217,1	9,014
217,6	10,043
218,1	8,186
218,5	9,986
219	0,586
219,5	-3,929
219,9	-9,414
220,4	-3,414
220,9	-9,043
221,3	-9,157
221,8	-10,043
222,3	-2,957
222,7	-1,357
223,2	2,871
223,6	-4,014
224,1	-1,843
224,6	1,729
225	2,329
225,5	0,043
226	0,243
226,4	-0,814
226,9	-0,043
227,4	1,157
227,8	-5,186
228,3	-5,1
228,8	-4,1
229,2	-5,786
229,7	-5,071
230,2	-4,5
230,6	-1,871
231,1	5,586
231,5	7,586
232	5,986
232,5	5,1
232,9	5,186
233,4	5,757
233,9	4,243
234,3	-0,671
234,8	-1,614
235,3	0,214
235,7	2,586
236,2	-0,071
236,7	1,271
237,1	-0,729
237,6	-2,243
238,1	-4,529
238,5	-9,843
239	-11,957
239,4	-5,014
239,9	-10,957
240,4	-9,357
240,8	-3,386
241,3	-4,871
241,8	-1,471
242,2	-2,957
242,7	-8,871
243,2	-2,386
243,6	-2,643
244,1	-0,929
244,6	5,157
245	1,586
245,5	1,014
245,9	0,529
246,4	0,671
246,9	2,757
247,3	-1,729
247,8	-3,5
248,3	2,271
248,7	5,386
249,2	8,729
249,7	5,729
250,1	3,671
250,6	3,871
251	5,529
251,5	5,557
252	6,586
252,4	4,471
252,9	2,414
253,4	-0,243
253,8	-3,014
254,3	-0,014
254,8	-2,357
255,2	-6,357
255,7	-7,729
256,1	-6,643
256,6	-3,986
257,1	-0,729
257,5	-8,3
258	-9,729
258,5	-4,386
258,9	-1,843
259,4	-1,329
259,9	-1,957
260,3	-6,357
260,8	-6,529
261,2	-4,871
261,7	-4,986
262,2	-8,157
262,6	-11,043
263,1	-7,471
263,6	-4,386
264	1,071
264,5	4,586
264,9	1,814
265,4	6,643
265,9	10,357
266,3	6,843
266,8	8,186
267,3	1,729
267,7	0,414
268,2	0,871
268,7	0,586
269,1	0,414
269,6	-1,443
270	2,014
270,5	-1,214
271	-1,786
271,4	-3,843
271,9	-10,271
272,4	-5,557
272,8	-4,529
273,3	-12,214
273,7	-5,3
274,2	-4,329
274,7	-0,757
275,1	4,814
275,6	2,414
276,1	1,786
276,5	8,414
277	6,1
277,4	5,186
277,9	3,1
278,4	3,129
278,8	-1,757
279,3	-0,643
279,8	-0,271
280,2	-1,329
280,7	0,7
281,1	2,043
281,6	-1,843
282,1	-1,786
282,5	-2,529
283	-4,643
283,4	-2,357
283,9	-7,071
284,4	-5,957
284,8	-2,757
285,3	0,471
285,8	2,471
286,2	-0,1
286,7	-0,786
287,1	1,443
287,6	-0,3
288,1	-3,7
288,5	-1,871
289	-3,757
289,5	0,643
289,9	0,529
290,4	1,557
290,8	-1,1
291,3	3,614
291,8	-0,843
292,2	1,214
292,7	1,986
293,1	2,357
293,6	3,129
294,1	7,071
294,5	5,386
295	9,529
295,5	8,186
295,9	2,443
296,4	1,186
296,8	-0,929
297,3	-4,471
297,8	-8,529
298,2	-14,443
298,7	-11,186
299,1	-8,529
299,6	-8,843
300,1	-6,014
300,5	-1,9
301	4,243
301,5	10,243
301,9	11,414
302,4	8,014
302,8	9,214
303,3	9,671
303,8	2,443
304,2	-4,043
304,7	-7,414
305,1	-13,071
305,6	-7,757
306,1	-3,186
306,5	-3,757
307	6,3
307,4	16,214
307,9	18,129
308,4	15,243
308,8	6,3
309,3	3,386
309,8	1,386
310,2	-3,071
310,7	-9,671
311,1	-11,3
311,6	-5,986
312,1	0,814
312,5	1,671
313	5,186
313,4	1,757
313,9	4,9
314,4	4,957
314,8	2,129
315,3	0,9
315,7	-3,671
316,2	-7,1
316,7	-5,443
317,1	-4,3
317,6	-0,214
318	4,986
318,5	5,757
319	9,957
319,4	8,9
319,9	10,014
320,3	5,529
320,8	2,3
321,3	0,814
321,7	4,814
322,2	0,843
322,6	5,271
323,1	3,1
323,6	3,5
324	-0,414
324,5	-2,9
324,9	-4,586
325,4	-6,329
325,9	-7,443
326,3	-6,9
326,8	-0,471
327,2	-4,471
327,7	-5,557
328,2	-9,186
328,6	-5,157
329,1	-9,986
329,5	-9,129
330	-17,357
330,5	-5,1
330,9	-0,357
331,4	1,557
331,8	-1,1
332,3	3,243
332,8	4,929
333,2	8,186
333,7	4,843
334,1	5,043
334,6	5,443
335,1	4,814
335,5	1,386
336	-0,786
336,4	0,243
336,9	2,786
337,4	3,414
337,8	0,729
338,3	5,3
338,7	9,586
339,2	12,671
339,7	15,386
340,1	10,071
340,6	6,871
341	6,329
341,5	6,786
342	5,843
342,4	-0,729
342,9	-9,3
343,3	-6,929
343,8	-7,557
344,2	-3,186
344,7	2,7
345,2	-0,014
345,6	2,157
346,1	6,357
346,5	-0,014
347	1,729
347,5	-4,014
347,9	-5,7
348,4	-6,814
348,8	-5,329
349,3	-1,843
349,8	3,729
350,2	9,757
350,7	8,814
351,1	3,814
351,6	10,586
352	12,586
352,5	13,7
353	19,929
353,4	18,271
353,9	28,3
354,3	35,986
354,8	41,1
355,3	55,614
355,7	66,643
356,2	78,929
356,6	96,5
357,1	114,786
357,5	136,671
358	159,957
358,5	182,643
358,9	212,386
359,4	245,443
359,8	277,843
360,3	321,357
360,8	362,5
361,2	415,386
361,7	474,214
362,1	539,3
362,6	606,329
363	680,814
363,5	757,5
364	846,843
364,4	931,871
364,9	1015,043
365,3	1094,129
365,8	1171,957
366,3	1241,871
366,7	1307,357
367,2	1360,157
367,6	1404,414
368,1	1441,214
368,5	1467,843
369	1478,7
369,5	1488,129
369,9	1477,843
370,4	1454,786
370,8	1421,614
371,3	1378,214
371,7	1327,957
372,2	1273,929
372,7	1211,586
373,1	1146,414
373,6	1079,786
374	1014,157
374,5	947,071
374,9	879,329
375,4	819,1
375,9	753,986
376,3	692,214
376,8	636,043
377,2	588,757
377,7	537,214
378,2	493,329
378,6	447,871
379,1	412,014
379,5	380,9
380	355,1
380,4	320,243
380,9	297,957
381,4	271,471
381,8	250,986
382,3	236,557
382,7	219,671
383,2	204,614
383,6	193,929
384,1	180,357
384,6	172,557
385	162,1
385,5	143,729
385,9	133,1
386,4	120,871
386,8	110,814
387,3	101,357
387,7	93,214
388,2	90,043
388,7	86,357
389,1	82,843
389,6	73,271
390	67,071
390,5	68,386
390,9	66,529
391,4	58,386
391,9	54,757
392,3	51,729
392,8	48,871
393,2	43,871
393,7	34,671
394,1	27,614
394,6	28,7
395,1	28,586
395,5	24,786
396	28,157
396,4	31,586
396,9	32,957
397,3	37,443
397,8	33,5
398,2	32,357
398,7	33,014
399,2	32,586
399,6	33,729
400,1	32,529
400,5	24,157
401	26,471
401,4	19,871
401,9	18,786
402,4	19,614
402,8	14,929
403,3	17,414
403,7	18,014
404,2	17,614
404,6	20,957
405,1	21,014
405,5	20,471
406	23,386
406,5	21,414
406,9	30,643
407,4	31,986
407,8	36,986
408,3	38,671
408,7	39,357
409,2	40,986
409,6	46,586
410,1	41,786
410,6	47,557
411	48,014
411,5	52,729
411,9	58,814
412,4	61,329
412,8	61,243
413,3	67,471
413,7	67,243
414,2	69,986
414,7	73,186
415,1	82,414
415,6	87,471
416	100,3
416,5	104,243
416,9	111,643
417,4	120,1
417,8	129,186
418,3	129,9
418,8	137,671
419,2	136,3
419,7	147,871
420,1	152,871
420,6	156,786
421	158,329
421,5	163,529
421,9	170,757
422,4	178,929
422,8	180,843
423,3	184,329
423,8	191,214
424,2	196,043
424,7	203,614
425,1	206,443
425,6	216,271
426	225,129
426,5	235,7
426,9	247,557
427,4	262,5
427,9	270,471
428,3	284,557
428,8	292,414
429,2	300,329
429,7	312,986
430,1	322,986
430,6	335,557
431	352,186
431,5	367,129
431,9	379,986
432,4	399,243
432,8	415,586
433,3	436,7
433,8	456,129
434,2	477,129
434,7	495,671
435,1	520,786
435,6	548,843
436	575,757
436,5	600,414
436,9	624,3
437,4	646,729
437,8	676,557
438,3	708,157
438,8	734,614
439,2	767,786
439,7	806,3
440,1	848,471
440,6	891,414
441	929,9
441,5	967,957
441,9	1015,329
442,4	1054,557
442,8	1093,614
443,3	1136,757
443,7	1184,443
444,2	1237,243
444,7	1286,986
445,1	1338,529
445,6	1393,929
446	1447,843
446,5	1497,243
446,9	1544,071
447,4	1596,129
447,8	1658,186
448,3	1714,1
448,7	1772,671
449,2	1835,614
449,6	1908,014
450,1	1981,071
450,6	2055,214
451	2127,957
451,5	2201,1
451,9	2282,729
452,4	2366,586
452,8	2437,614
453,3	2514,043
453,7	2587,071
454,2	2665,614
454,6	2748,243
455,1	2819,671
455,5	2893,929
456	2978,586
456,4	3061,043
456,9	3153,129
457,3	3233,243
457,8	3310,529
458,3	3402,071
458,7	3489,814
459,2	3582,329
459,6	3670,843
460,1	3763,271
460,5	3856,557
461	3962,386
461,4	4050,214
461,9	4146,414
462,3	4242,043
462,8	4340,329
463,2	4422,357
463,7	4522,043
464,1	4611,014
464,6	4714,071
465	4808,9
465,5	4896,014
466	4993,757
466,4	5090,5
466,9	5183,129
467,3	5274,843
467,8	5364,9
468,2	5458,986
468,7	5562,729
469,1	5657,643
469,6	5758,9
470	5849,071
470,5	5942,7
470,9	6032,986
471,4	6118,386
471,8	6201,043
472,3	6285,043
472,7	6357,471
473,2	6441,129
473,6	6515,443
474,1	6597,357
474,5	6672,871
475	6749,043
475,4	6824,586
475,9	6905,843
476,4	6980,843
476,8	7053,586
477,3	7111,843
477,7	7184,1
478,2	7242,871
478,6	7301,471
479,1	7356,243
479,5	7411,814
480	7473,871
480,4	7537,014
480,9	7580,671
481,3	7628,386
481,8	7673,643
482,2	7712,471
482,7	7754,357
483,1	7787,329
483,6	7820,357
484	7854,386
484,5	7889,443
484,9	7918,243
485,4	7944,843
485,8	7960,871
486,3	7987,471
486,7	8001,071
487,2	8022,243
487,6	8040,529
488,1	8053,471
488,5	8069,329
489	8091,7
489,4	8093,986
489,9	8099,186
490,4	8102,586
490,8	8097,929
491,3	8093,7
491,7	8083,586
492,2	8062,071
492,6	8049,3
493,1	8037,929
493,5	8005,529
494	7980,043
494,4	7961,757
494,9	7945,586
495,3	7925,814
495,8	7899,157
496,2	7871,214
496,7	7851,186
497,1	7828,843
497,6	7803,3
498	7775,386
498,5	7745,357
498,9	7705,014
499,4	7674,043
499,8	7636,271
500,3	7601,071
500,7	7559,386
501,2	7511,5
501,6	7463,814
502,1	7424,471
502,5	7373,386
503	7342,957
503,4	7301,5
503,9	7246,357
504,3	7202,271
504,8	7156,957
505,2	7111,957
505,7	7062,1
506,1	7006,243
506,6	6944,671
507	6894,357
507,5	6841,443
507,9	6786,843
508,4	6732,186
508,8	6686,557
509,3	6631,814
509,7	6580,814
510,2	6527,557
510,6	6470,729
511,1	6418,157
511,5	6364,843
512	6302,929
512,4	6246,814
512,9	6183,643
513,3	6127,614
513,8	6071,643
514,2	6011,843
514,7	5947,3
515,1	5888,043
515,6	5818,529
516	5759,871
516,5	5702,871
516,9	5640,929
517,4	5582,214
517,8	5530,986
518,3	5474,671
518,7	5422,757
519,2	5372,386
519,6	5309,529
520,1	5254,586
520,5	5195,614
521	5133,1
521,4	5072,843
521,9	5015,643
522,3	4953,186
522,8	4900,986
523,2	4843,586
523,7	4795,929
524,1	4740,557
524,6	4689,186
525	4636,357
525,5	4585,386
525,9	4530,643
526,4	4475,786
526,8	4412,529
527,3	4363,071
527,7	4316,729
528,2	4271,929
528,6	4216,186
529,1	4167,129
529,5	4120,043
530	4077,014
530,4	4034,7
530,9	3985,014
531,3	3934,414
531,8	3891,871
532,2	3845,214
532,6	3805,871
533,1	3761,843
533,5	3720,5
534	3670,643
534,4	3627,671
534,9	3590,414
535,3	3549,329
535,8	3503,129
536,2	3458,443
536,7	3414,129
537,1	3383,986
537,6	3343,986
538	3303,986
538,5	3270,757
538,9	3235,871
539,4	3205,243
539,8	3159,557
540,3	3120,614
540,7	3086,043
541,2	3046,814
541,6	3007,071
542,1	2972,414
542,5	2936,729
543	2913,643
543,4	2884,414
543,9	2850,843
544,3	2823,529
544,8	2793,729
545,2	2762,614
545,7	2734,986
546,1	2702,357
546,5	2668,471
547	2639,129
547,4	2613,014
547,9	2584,871
548,3	2561,414
548,8	2530,786
549,2	2503,414
549,7	2481,071
550,1	2458,414
550,6	2432,9
551	2406,786
551,5	2380,071
551,9	2353,5
552,4	2333,414
552,8	2308,843
553,3	2286,757
553,7	2262,243
554,2	2239,214
554,6	2216,843
555,1	2200,986
555,5	2180,729
555,9	2163,414
556,4	2134,871
556,8	2114,329
557,3	2095,814
557,7	2077,814
558,2	2055,043
558,6	2035,871
559,1	2008,729
559,5	1993,329
560	1974,186
560,4	1955,186
560,9	1934,643
561,3	1916,757
561,8	1895,786
562,2	1885,357
562,7	1874,529
563,1	1857,386
563,6	1839,757
564	1825,3
564,4	1807,386
564,9	1792,157
565,3	1772,729
565,8	1752,129
566,2	1738,5
566,7	1728,586
567,1	1712,786
567,6	1700,814
568	1683,471
568,5	1666,443
568,9	1650,957
569,4	1634,5
569,8	1618,729
570,3	1598,586
570,7	1582,1
571,1	1571,7
571,6	1564,729
572	1555,586
572,5	1542,043
572,9	1526,5
573,4	1519,9
573,8	1509,929
574,3	1494,871
574,7	1478,729
575,2	1466,414
575,6	1456,186
576,1	1446,614
576,5	1439,643
576,9	1425,386
577,4	1412,386
577,8	1399,814
578,3	1385,814
578,7	1374,357
579,2	1366,129
579,6	1347,129
580,1	1334,129
580,5	1330,157
581	1324,871
581,4	1314,5
581,9	1301,786
582,3	1286,671
582,7	1284,5
583,2	1279,986
583,6	1270,043
584,1	1257,271
584,5	1246,586
585	1239,957
585,4	1224,614
585,9	1210,843
586,3	1200,471
586,8	1189,186
587,2	1181,729
587,6	1178,357
588,1	1171,443
588,5	1172,186
589	1164,157
589,4	1155,729
589,9	1145,214
590,3	1138,014
590,8	1125,843
591,2	1122,3
591,7	1115,414
592,1	1104,843
592,5	1097,357
593	1093,671
593,4	1083,557
593,9	1076,7
594,3	1064,729
594,8	1052,671
595,2	1044,5
595,7	1038,157
596,1	1023,871
596,6	1019,043
597	1015,7
597,4	1009,643
597,9	1004,214
598,3	1006,214
598,8	1000,129
599,2	996,243
599,7	989,614
600,1	977,9
600,6	971,871
601	966,329
601,4	960,786
601,9	957,471
602,3	954,357
602,8	948,671
603,2	945,557
603,7	935,071
604,1	932,529
604,6	921,043
605	905,529
605,4	904,557
605,9	894,3
606,3	886,014
606,8	879,786
607,2	867,157
607,7	860,7
608,1	862,729
608,6	852,671
609	853,786
609,4	852,729
609,9	849,614
610,3	848,529
610,8	843,243
611,2	836,271
611,7	829,529
612,1	818,9
612,6	815,814
613	809,3
613,4	803,1
613,9	797,157
614,3	787,014
614,8	783,729
615,2	779,1
615,7	772,729
616,1	769,786
616,6	760,729
617	752,929
617,4	753,1
617,9	750,157
618,3	745,843
618,8	741,214
619,2	737,671
619,7	740,557
620,1	741,671
620,5	744,329
621	734,557
621,4	730,043
621,9	723,129
622,3	716,157
622,8	705,243
623,2	701,1
623,6	688,586
624,1	685,043
624,5	683,014
625	682,614
625,4	677,843
625,9	676,329
626,3	668,929
626,8	660,929
627,2	661,843
627,6	653,157
628,1	643,214
628,5	643,586
629	640,929
629,4	635,071
629,9	634,471
630,3	623,1
630,7	614,871
631,2	612,671
631,6	606,386
632,1	602,5
632,5	597,614
633	594,7
633,4	588,529
633,8	590,1
634,3	587,043
634,7	580,871
635,2	572,186
635,6	571,586
636,1	567,157
636,5	566,043
636,9	559,386
637,4	554,529
637,8	545,986
638,3	542,386
638,7	535,757
639,2	529,186
639,6	531,186
640	528,529
640,5	525,7
640,9	526,843
641,4	525,3
641,8	527,214
642,2	524,729
642,7	523,843
643,1	520,729
643,6	514,586
644	514,043
644,5	512,243
644,9	509,671
645,3	510,214
645,8	503,329
646,2	506,957
646,7	504,471
647,1	496,443
647,6	493,757
648	489,986
648,4	483,757
648,9	481,214
649,3	474,557
649,8	471,586
650,2	471,386
650,6	472,614
651,1	462,414
651,5	464,557
652	458,5
652,4	452,271
652,9	448,786
653,3	449,957
653,7	440,129
654,2	441,329
654,6	433,9
655,1	433,157
655,5	434,929
655,9	435,186
656,4	426,729
656,8	429,071
657,3	429,129
657,7	428,9
658,2	429,243
658,6	420,9
659	420,214
659,5	420,414
659,9	417,7
660,4	415,557
660,8	411,986
661,2	405,614
661,7	407,214
662,1	403,3
662,6	401,386
663	396,1
663,4	389,329
663,9	388,414
664,3	383,071
664,8	377,043
665,2	366,9
665,6	358,671
666,1	362,1
666,5	361,7
667	355,7
667,4	354,529
667,9	352,471
668,3	354,1
668,7	351,986
669,2	347,243
669,6	342,5
670,1	343,443
670,5	341,9
670,9	339,929
671,4	339,443
671,8	343,9
672,3	342,043
672,7	343,5
673,1	342,243
673,6	339,843
674	339,929
674,5	337,129
674,9	327,414
675,3	321,357
675,8	317,5
676,2	308,9
676,7	303,614
677,1	301,243
677,5	294,557
678	295,586
678,4	294,043
678,9	293,757
679,3	293,271
679,7	293,5
680,2	285,7
680,6	286,043
681,1	283,071
681,5	279,243
681,9	278,443
682,4	277,386
682,8	276,786
683,3	281,757
683,7	282,957
684,1	279,529
684,6	278,014
685	270,329
685,5	266,843
685,9	259,414
686,3	249,671
686,8	250,443
687,2	251,386
687,7	250,9
688,1	246,871
688,5	246,786
689	251,9
689,4	256,614
689,9	253,471
690,3	250,357
690,7	253,529
691,2	261,014
691,6	257,557
692	253,814
692,5	254,186
692,9	251,957
693,4	248,386
693,8	244,557
694,2	237,9
694,7	238,7
695,1	235,557
695,6	235,843
696	233,329
696,4	234,014
696,9	225,386
697,3	222,729
697,8	216,671
698,2	216,643
698,6	212,471
699,1	209,814
699,5	211,129
699,9	212,957
700,4	209,129
700,8	209,643
701,3	210,271
701,7	203,9
702,1	205,157
702,6	202,414
703	201,957
703,5	204,043
703,9	200,9
704,3	197,786
704,8	199,071
705,2	195,386
705,6	193,014
706,1	190,614
706,5	189,814
707	194,386
707,4	190,386
707,8	186,957
708,3	188,357
708,7	188,929
709,2	188,271
709,6	186,329
710	184,557
710,5	182,786
710,9	181,643
711,3	176,614
711,8	173,214
712,2	171,729
712,7	167,329
713,1	166,1
713,5	172,357
714	174,1
714,4	173,557
714,8	174,271
715,3	172,129
715,7	175,614
716,2	171,243
716,6	167,786
717	163,643
717,5	162,1
717,9	163,957
718,3	161,186
718,8	158,329
719,2	159,014
719,7	156,071
720,1	157,9
720,5	161,329
721	157,043
721,4	161,386
721,8	165,329
722,3	161,243
722,7	162,729
723,2	159,3
723,6	146,529
724	144,014
724,5	140,357
724,9	133,643
725,3	132,7
725,8	128,329
726,2	128,271
726,7	131,614
727,1	129,586
727,5	129,5
728	127,014
728,4	129,129
728,8	128,157
729,3	127,214
729,7	127,129
730,1	127,557
730,6	130,329
731	130,529
731,5	128,557
731,9	129,243
732,3	130,5
732,8	132,471
733,2	132,329
733,6	125,529
734,1	124,357
734,5	123,557
734,9	123,071
735,4	121,186
735,8	115,957
736,3	117,071
736,7	115,814
737,1	119,3
737,6	121,014
738	114,757
738,4	113,357
738,9	115,214
739,3	114,643
739,7	115,271
740,2	114,557
740,6	115,757
741,1	120,529
741,5	112,386
741,9	114,557
742,4	117,986
742,8	119,7
743,2	117,871
743,7	112,157
744,1	107,586
744,5	110,471
745	104,929
745,4	97,7
745,8	98,357
746,3	96,386
746,7	96,957
747,2	102,386
747,6	108,243
748	113,643
748,5	117,071
748,9	108,843
749,3	109,1
749,8	107,671
750,2	105,671
750,6	103,557
751,1	101,7
751,5	95,729
751,9	102,043
752,4	102,129
752,8	103,671
753,3	99,329
753,7	100,814
754,1	96,757
754,6	97,386
755	91,871
755,4	91,014
755,9	90,157
756,3	88,157
756,7	82,243
757,2	82,529
757,6	83,271
758	83,3
758,5	77,329
758,9	76,586
759,3	81,357
759,8	81,443
760,2	81,1
760,6	77,443
761,1	79,243
761,5	79,786
761,9	76,271
762,4	72,443
762,8	71,7
763,3	70,843
763,7	71,986
764,1	73,843
764,6	74,957
765	79,671
765,4	79,357
765,9	80,586
766,3	83,5
766,7	84,014
767,2	76,9
767,6	82,157
768	77,014
768,5	75,129
768,9	76,529
769,3	73,329
769,8	72,414
770,2	79,1
770,6	73,5
771,1	77,5
771,5	78,271
771,9	76,243
772,4	77,014
772,8	75,5
773,2	70,443
773,7	68,071
774,1	66,671
774,5	66,071
775	62,5
775,4	63,043
775,8	62,186
776,3	63,357
776,7	63,786
777,1	60,414
777,6	59,671
778	67,957
778,4	64,271
778,9	69,586
779,3	69,329
779,7	69,014
780,2	72,243
780,6	71,9
781	64,586
781,5	62,3
781,9	60,329
782,3	56,614
782,8	56,586
783,2	53,129
783,6	54,7
784,1	55,3
784,5	55,271
784,9	49,643
785,4	57,157
785,8	56,871
786,2	56,671
786,7	56,3
787,1	53,071
787,5	55,757
788	53,7
788,4	47,614
788,8	47,186
789,3	48,471
789,7	50,614
790,1	50,986
790,6	53,871
791	54,586
791,4	56,186
791,9	55,243
792,3	50,986
792,7	52,386
793,2	49,557
793,6	46,186
794	52,529
794,5	48,586
794,9	54,329
795,3	57,243
795,8	50,529
796,2	59,386
796,6	57,643
797,1	56,386
797,5	54,357
797,9	49,557
798,4	49,414
798,8	52,586
799,2	45,729
799,7	45,3
800,1	41,614
800,5	42,729
801	45,157
801,4	42,671
801,8	37,357
802,2	39,7
802,7	40,814
803,1	41,043
803,5	43,071
804	37,757
804,4	36,643
804,8	40,671
805,3	40,271
805,7	40,843
806,1	38,043
806,6	38,957
807	43,357
807,4	45,957
807,9	43,1
808,3	42,157
808,7	44,186
809,2	49,757
809,6	49,671
810	45,414
810,4	45,3
810,9	45,357
811,3	50,157
811,7	46,929
812,2	48,557
812,6	46,386
813	51,014
813,5	52,757
813,9	52,3
814,3	46,443
814,8	43,871
815,2	37,843
815,6	36,386
816,1	34,271
816,5	32,043
816,9	33,3
817,3	37,414
817,8	46,329
818,2	46,186
818,6	41,271
819,1	38,1
819,5	37,386
819,9	38,786
820,4	35,3
820,8	30,529
821,2	27,214
821,7	35,814
822,1	40,1
822,5	44,271
822,9	41,471
823,4	39,643
823,8	40,671
824,2	42,843
824,7	37,729
825,1	33,357
825,5	24,5
826	18,271
826,4	19,757
826,8	12,443
827,3	16,129
827,7	15,529
828,1	18,443
828,5	21,357
829	22,986
829,4	20,986
829,8	18,329
830,3	13,1
830,7	12,357
831,1	12,729
831,6	11,214
832	17,243
832,4	18,071
832,8	24,357
833,3	26,329
833,7	27,129
834,1	23,929
834,6	24,414
835	20,329
835,4	18,071
835,8	12,214
836,3	12,7
836,7	12,357
837,1	12,186
837,6	15,129
838	18,043
838,4	19,129
838,9	24,643
839,3	21,7
839,7	25,271
840,1	21,557
840,6	17,557
841	16,786
841,4	19,7
841,9	18,557
842,3	20,071
842,7	17,386
843,1	23,043
843,6	25,9
844	21,3
844,4	22,386
844,9	25,557
845,3	29,3
845,7	30,871
846,2	25,586
846,6	24,9
847	31,643
847,4	29,786
847,9	30,786
848,3	27,871
848,7	27,786
849,2	32,5
849,6	25,957
850	24,386
850,4	19,871
850,9	15,643
851,3	14,986
851,7	18,014
852,2	15,7
852,6	23,729
853	25,329
853,4	26,5
853,9	25,529
854,3	26,643
854,7	26,271
855,2	26,586
855,6	22,586
856	19,586
856,4	18,414
856,9	19,957
857,3	22,271
857,7	16,9
858,2	20,929
858,6	19,929
859	19,071
859,4	23,471
859,9	19,186
860,3	12,757
860,7	16,1
861,1	14,043
861,6	15,586
862	17,843
862,4	18,414
862,9	22,557
863,3	27,014
863,7	24,271
864,1	21,957
864,6	19,986
865	14,729
865,4	12,243
865,9	11,157
866,3	2,643
866,7	4,014
867,1	0,9
867,6	2,243
868	1,414
868,4	-0,643
868,8	2,186
869,3	3,329
869,7	5,271
870,1	6,071
870,6	6,586
871	-9,243
871,4	-2,729
871,8	-7,471
872,3	3,757
872,7	0,214
873,1	2,986
873,5	3,443
874	20,471
874,4	19,357
874,8	18,357
875,3	12,386
875,7	12,014
876,1	12,614
876,5	10,9
877	12,529
877,4	7,586
877,8	11,243
878,2	13,786
878,7	15,014
879,1	13,5
879,5	18,557
879,9	20,929
880,4	19,757
880,8	16,643
881,2	16,043
881,7	15,3
882,1	16,843
882,5	9,071
882,9	6,814
883,4	7,614
883,8	13,614
884,2	11,014
884,6	7,9
885,1	7,1
885,5	9,614
885,9	9,129
886,3	11,157
886,8	4,843
887,2	3,329
887,6	5,014
888	1,386
888,5	0,557
888,9	-0,271
889,3	-5,3
889,8	-3,614
890,2	-0,643
890,6	-5,014
891	-3,757
891,5	-2,1
891,9	-0,3
892,3	4,329
892,7	1,3
893,2	-0,329
893,6	7,786
894	12,986
894,4	9,843
894,9	7,9
895,3	9,071
895,7	13,814
896,1	14,214
896,6	10,443
897	6,329
897,4	14,529
897,8	17,471
898,3	15,586
898,7	10,157
899,1	7,671
899,5	5,271
900	1,357
900,4	-1,386
900,8	-4,614
901,2	-8,214
901,7	-5,5
902,1	-2,786
902,5	2,9
902,9	5,214
903,4	2,757
903,8	4,243
904,2	5,357
904,6	5,471
905,1	1,386
905,5	-0,643
905,9	1,129
906,3	2,5
906,8	3,071
907,2	4,586
907,6	9,129
908	14,757
908,5	11,671
908,9	9,871
909,3	11,729
909,7	6,386
910,2	6,014
910,6	1,043
911	-3,529
911,4	2,786
911,9	1,729
912,3	-1,871
912,7	7,243
913,1	11,3
913,6	8,7
914	10,1
914,4	3,471
914,8	5,5
915,3	4,957
915,7	2,671
916,1	0,843
916,5	4,986
916,9	5,557
917,4	5,357
917,8	3,471
918,2	1,557
918,6	-6,471
919,1	-6,071
919,5	-5,5
919,9	-3,986
920,3	-6,329
920,8	-5,043
921,2	-4,129
921,6	0,729
922	2,671
922,5	1,1
922,9	-0,071
923,3	5,957
923,7	6,329
924,2	6,614
924,6	7,443
925	1,414
925,4	-1,1
925,8	-1,471
926,3	-2,271
926,7	-3,529
927,1	-3,557
927,5	-3,614
928	-5,014
928,4	-3,386
928,8	-2,1
929,2	-2,1
929,7	1,386
930,1	2,871
930,5	7,557
930,9	13,729
931,3	13,271
931,8	12,957
932,2	12,186
932,6	8,3
933	1,557
933,5	-3,329
933,9	-3,271
934,3	1,271
934,7	-0,586
935,2	1,729
935,6	4,757
936	11,414
936,4	13,929
936,8	13,329
937,3	7,843
937,7	8,729
938,1	11,586
938,5	6,729
939	5,3
939,4	2,957
939,8	3,786
940,2	4,243
940,6	6,7
941,1	2,871
941,5	8,614
941,9	6,157
942,3	4,471
942,8	2,443
943,2	9,386
943,6	2,386
944	0,157
944,4	-0,043
944,9	4,3
945,3	7,757
945,7	1,329
946,1	-7,043
946,6	-3,814
947	-1,9
947,4	-1,471
947,8	-0,529
948,2	-3,757
948,7	4,757
949,1	4,357
949,5	10,529
949,9	8,014
950,3	4,529
950,8	1,986
951,2	4,014
951,6	-3,414
952	3,643
952,5	-4,586
952,9	-5,3
953,3	-4,243
953,7	-3,529
954,1	-3,757
954,6	1,957
955	-1,586
955,4	-1,129
955,8	6,529
956,2	8,129
956,7	7,643
957,1	1,729
957,5	2,186
957,9	2,414
958,3	4,157
958,8	1,271
959,2	-0,214
959,6	4,186
960	9,043
960,5	7,1
960,9	9,014
961,3	10,357
961,7	8,786
962,1	5,7
962,6	3,271
963	3,5
963,4	3,329
963,8	0,871
964,2	-2,329
964,7	-3,386
965,1	1,071
965,5	1,1
965,9	1,814
966,3	3,843
966,8	1,5
967,2	3,243
967,6	4,5
968	0,814
968,4	-1,329
968,9	-4,986
969,3	-4,3
969,7	-4,9
970,1	-2,814
970,5	-4,357
971	-1,414
971,4	-0,557
971,8	3,671
972,2	1,729
972,6	3,471
973,1	0,586
973,5	2,757
973,9	2,9
974,3	1,929
974,7	4,1
975,2	4,929
975,6	3,729
976	8,186
976,4	3,643
976,8	5,5
977,3	4,471
977,7	-1,043
978,1	-3,729
978,5	-4,157
978,9	-11,386
979,4	-7,014
979,8	-10,129
980,2	-8,243
980,6	-10,986
981	-6,529
981,5	-3,014
981,9	-1,014
982,3	-3,014
982,7	-0,214
983,1	-5,957
983,6	-3,3
984	-4,757
984,4	-2,357
984,8	0,129
985,2	0,814
985,6	-1,9
986,1	5,557
986,5	5,329
986,9	2,071
987,3	3,871
987,7	3,871
988,2	-1,871
988,6	-5,357
989	-6,529
989,4	-7,014
989,8	-6,871
990,3	-13,757
990,7	-14,214
991,1	-6,443
991,5	-0,386
991,9	-0,757
992,3	2,986
992,8	5,129
993,2	4,129
993,6	4,471
994	3,957
994,4	4,471
994,9	3,529
995,3	2,786
995,7	-2,214
996,1	3,1
996,5	3,9
996,9	-2,929
997,4	-3,329
997,8	-5,586
998,2	-7,414
998,6	-6,9
999	-7,186
999,5	-10,9
999,9	-6,243
1000,3	-8,786
1000,7	-5,3
1001,1	-4,357
1001,5	-0,986
1002	-1,9
1002,4	1,7
1002,8	0,529
1003,2	2,043
1003,6	3,586
1004	6,7
1004,5	7,214
1004,9	9,329
1005,3	5,986
1005,7	10,071
1006,1	10,1
1006,6	6,643
1007	4,1
1007,4	2,757
1007,8	1,929
1008,2	-2,586
1008,6	-3,386
1009,1	-7,643
1009,5	-5,843
1009,9	-4,643
1010,3	-6,1
1010,7	-9,414
1011,1	-1,329
1011,6	-3,5
1012	-2,129
1012,4	-4,643
1012,8	-4,071
1013,2	1,243
1013,6	1,043
1014,1	1,014
1014,5	1,557
1014,9	2,529
1015,3	3,843
1015,7	6,671
1016,1	4,871
1016,6	8,271
1017	8,329
1017,4	8,843
1017,8	11,614
1018,2	16,043
1018,6	9,071
1019,1	7,929
1019,5	5,1
1019,9	-0,786
1020,3	-2,214
1020,7	-1,643
1021,1	-10,557
1021,6	-10,9
1022	-8,043
1022,4	-12,271
1022,8	-8,271
1023,2	-6,671
1023,6	-7,3
1024,1	5,471
1024,5	9,7
1024,9	5,7
1025,3	9,757
1025,7	9,871
1026,1	12,071
1026,6	9,243
1027	2,614
1027,4	1,614
1027,8	4,1
1028,2	2,043
1028,6	7,557
1029	6,757
1029,5	9,786
1029,9	5,5
1030,3	2,329
1030,7	-0,9
1031,1	3,843
1031,5	-4,814
1032	-8,271
1032,4	-11,043
1032,8	-8,1
1033,2	-3,471
1033,6	-2,957
1034	-5,471
1034,4	-3,357
1034,9	-2,843
1035,3	-1,414
1035,7	2,186
1036,1	-4,329
1036,5	-3,986
1036,9	-1,614
1037,4	2,357
1037,8	-0,843
1038,2	-2,786
1038,6	-4,186
1039	3,014
1039,4	6,157
1039,8	1,757
1040,3	5,443
1040,7	5,843
1041,1	7,1
1041,5	6,557
1041,9	3,329
1042,3	0,729
1042,7	0,814
1043,2	-4,186
1043,6	0,557
1044	0,529
1044,4	-1,843
1044,8	-1,529
1045,2	-1,329
1045,6	2,014
1046,1	2,729
1046,5	-0,357
1046,9	-1,271
1047,3	1,814
1047,7	2,3
1048,1	2,671
1048,5	3,9
1049	5,986
1049,4	13,357
1049,8	14,471
1050,2	12,014
1050,6	11,757
1051	11,9
1051,4	6,557
1051,9	-3,586
1052,3	-0,157
1052,7	0,814
1053,1	0,9
1053,5	3,671
1053,9	6,1
1054,3	8,186
1054,8	21,186
1055,2	14,071
1055,6	17,614
1056	14,214
1056,4	9,271
1056,8	4,871
1057,2	8,271
1057,6	0,814
1058,1	-1,471
1058,5	-9,129
1058,9	-7,957
1059,3	-2,529
1059,7	-1,757
1060,1	0,757
1060,5	4,9
1061	8,586
1061,4	7,014
1061,8	8,614
1062,2	3,729
1062,6	-0,357
1063	-3,871
1063,4	-8,3
1063,8	-9,557
1064,3	-7,3
1064,7	-4,814
1065,1	-6,529
1065,5	0,157
1065,9	-3,586
1066,3	-4,7
1066,7	-9,643
1067,1	-10,957
1067,6	-8,7
1068	-10,271
1068,4	-10,471
1068,8	-7,1
1069,2	-5,271
1069,6	-5,814
1070	-0,9
1070,4	-5,329
1070,9	-2,386
1071,3	-6,129
1071,7	-8,871
1072,1	-7,814
1072,5	-5,3
1072,9	-12,186
1073,3	-11,157
1073,7	-11,3
1074,2	-8,871
1074,6	-6,843
1075	-10,157
1075,4	-9,7
1075,8	1,986
1076,2	3,014
1076,6	5,129
1077	2,871
1077,5	3,1
1077,9	5,471
1078,3	4,271
1078,7	-0,414
1079,1	-4,3
1079,5	-2,671
1079,9	-0,157
1080,3	-1,329
1080,7	-1,157
1081,2	6,671
1081,6	5,1
1082	6,357
1082,4	7,329
1082,8	8,443
1083,2	12,386
1083,6	9,186
1084	1,071
1084,5	4,471
1084,9	2,386
1085,3	-3,557
1085,7	-0,386
1086,1	-4,814
1086,5	-0,643
1086,9	5,157
1087,3	1,186
1087,7	2,214
1088,2	2,414
1088,6	-3,243
1089	-1,843
1089,4	-2,757
1089,8	-4,7
1090,2	-5,129
1090,6	-3,986
1091	1,729
1091,4	2,9
1091,9	2,329
1092,3	2,043
1092,7	0,557
1093,1	2,471
1093,5	3,757
1093,9	-0,357
1094,3	3,243
1094,7	1,043
1095,1	1,271
1095,5	0,871
1096	-5,871
1096,4	-6,5
1096,8	-7,729
1097,2	-8,729
1097,6	-2,871
1098	-2,271
1098,4	3,014
1098,8	8,929
1099,2	12,471
1099,6	12,843
1100,1	7,786
1100,5	6,129
1100,9	4,757
1101,3	2,329
1101,7	0,843
1102,1	-2,557
1102,5	1,986
1102,9	5,586
1103,3	7,871
1103,7	11,5
1104,2	6,986
1104,6	10,5
1105	7,929
1105,4	7,5
1105,8	5,786
1106,2	1,586
1106,6	-1,329
1107	0,614
1107,4	-2
1107,8	1,58
1108,3	-1,05
