Data from Subt2_293.txt Node
Date: Sat Aug 26 19:10:53 MSK 2023
User: vat
Spectrometer: MAYP114033
Trigger mode: 0
Integration Time (sec): 1,000000E0
Scans to average: 5
Electric dark correction enabled: true
Nonlinearity correction enabled: false
Boxcar width: 3
XAxis mode: Wavelengths
Number of Pixels in Spectrum: 2068
>>>>>Begin Spectral Data<<<<<
199,4	0,383
199,9	1,573
200,4	1,733
200,8	-0,867
201,3	-2,038
201,8	1,676
202,2	-2,81
202,7	-0,067
203,2	1,933
203,6	-0,238
204,1	1,362
204,6	1,305
205	0,962
205,5	4,876
206	5,448
206,4	3,133
206,9	3,648
207,4	5,733
207,8	5,219
208,3	4,048
208,8	5,019
209,2	2,648
209,7	4,419
210,2	8,562
210,6	11,476
211,1	13,19
211,5	8,705
212	8,562
212,5	9,99
212,9	7,562
213,4	3,99
213,9	3,162
214,3	5,276
214,8	10,733
215,3	11,648
215,7	12,305
216,2	16,819
216,7	19,048
217,1	15,705
217,6	18,533
218,1	14,562
218,5	10,562
219	3,762
219,5	1,676
219,9	-0,238
220,4	6,362
220,9	3,362
221,3	4,705
221,8	11,848
222,3	17,819
222,7	17,79
223,2	18,048
223,6	14,333
224,1	14,99
224,6	18,048
225	11,162
225,5	10,39
226	8,733
226,4	11,362
226,9	10,476
227,4	9,648
227,8	4,048
228,3	6,448
228,8	4,133
229,2	4,333
229,7	-2,61
230,2	-2,438
230,6	0,705
231,1	9,333
231,5	10,076
232	11,762
232,5	11,419
232,9	21,19
233,4	21,019
233,9	13,733
234,3	7,876
234,8	4,448
235,3	3,59
235,7	3,933
236,2	2,762
236,7	2,219
237,1	6,905
237,6	3,076
238,1	8,162
238,5	4,562
239	9,333
239,4	9,048
239,9	9,105
240,4	7,533
240,8	14,419
241,3	12,105
241,8	15,39
242,2	12,476
242,7	5,276
243,2	6,59
243,6	4,762
244,1	6,933
244,6	8,619
245	9,448
245,5	9,99
245,9	11,933
246,4	9,933
246,9	14,476
247,3	10,79
247,8	13,933
248,3	16,876
248,7	18,019
249,2	24,276
249,7	21,848
250,1	19,733
250,6	15,533
251	13,648
251,5	12,048
252	13,276
252,4	11,933
252,9	10,619
253,4	8,619
253,8	9,705
254,3	7,676
254,8	5,79
255,2	2,19
255,7	-1,981
256,1	0,562
256,6	7,762
257,1	10,533
257,5	9,476
258	7,876
258,5	5,333
258,9	8,705
259,4	8,333
259,9	2,533
260,3	-0,981
260,8	-4,81
261,2	0,305
261,7	4,933
262,2	-0,21
262,6	0,048
263,1	4,219
263,6	9,305
264	18,362
264,5	18,219
264,9	15,19
265,4	19,076
265,9	15,933
266,3	18,362
266,8	16,219
267,3	10,533
267,7	6,79
268,2	6,333
268,7	6,219
269,1	8,19
269,6	2,533
270	5,276
270,5	5,305
271	7,562
271,4	7,848
271,9	7,19
272,4	13,076
272,8	12,105
273,3	6,562
273,7	9,048
274,2	9,019
274,7	9,362
275,1	11,076
275,6	5,79
276,1	4,533
276,5	8,876
277	5,219
277,4	0,99
277,9	2,019
278,4	1,076
278,8	4,305
279,3	8,905
279,8	8,876
280,2	14,305
280,7	22,248
281,1	19,648
281,6	16,762
282,1	21,076
282,5	18,533
283	18,819
283,4	13,476
283,9	10,19
284,4	15,648
284,8	19,99
285,3	12,19
285,8	12,705
286,2	10,305
286,7	9,019
287,1	7,648
287,6	3,648
288,1	1,705
288,5	7,819
289	7,99
289,5	10,962
289,9	11,476
290,4	12,248
290,8	11,019
291,3	9,705
291,8	9,876
292,2	8,59
292,7	9,705
293,1	12,705
293,6	14,705
294,1	19,619
294,5	20,305
295	18,362
295,5	19,733
295,9	16,533
296,4	14,762
296,8	12,59
297,3	10,333
297,8	6,962
298,2	2,876
298,7	2,905
299,1	4,705
299,6	3,648
300,1	6,762
300,5	5,505
301	12,819
301,5	18,476
301,9	17,705
302,4	15,248
302,8	18,59
303,3	17,019
303,8	11,819
304,2	9,848
304,7	8,676
305,1	6,79
305,6	10,819
306,1	16,076
306,5	16,933
307	27,248
307,4	23,79
307,9	24,99
308,4	24,619
308,8	19,048
309,3	13,79
309,8	13,362
310,2	11,79
310,7	12,648
311,1	10,819
311,6	14,019
312,1	20,476
312,5	20,705
313	19,848
313,4	16,819
313,9	18,79
314,4	18,419
314,8	16,505
315,3	12,933
315,7	8,562
316,2	5,562
316,7	4,648
317,1	7,419
317,6	5,476
318	9,105
318,5	8,133
319	10,219
319,4	12,276
319,9	13,962
320,3	11,448
320,8	9,162
321,3	11,162
321,7	12,962
322,2	17,648
322,6	21,505
323,1	18,562
323,6	18,476
324	18,962
324,5	11,476
324,9	10,733
325,4	6,362
325,9	6,505
326,3	12,562
326,8	14,933
327,2	14,076
327,7	18,276
328,2	17,848
328,6	22,276
329,1	14,248
329,5	12,105
330	9,533
330,5	13,648
330,9	11,648
331,4	12,076
331,8	8,676
332,3	14,933
332,8	15,705
333,2	13,362
333,7	14,162
334,1	17,648
334,6	16,448
335,1	9,419
335,5	8,19
336	3,105
336,4	3,276
336,9	6,505
337,4	3,648
337,8	4,333
338,3	12,619
338,7	12,162
339,2	12,962
339,7	18,39
340,1	10,076
340,6	12,276
341	10,59
341,5	10,933
342	10,705
342,4	9,819
342,9	5,048
343,3	9,333
343,8	4,648
344,2	6,962
344,7	8,448
345,2	8,619
345,6	9,562
346,1	12,648
346,5	9,762
347	7,248
347,5	8,676
347,9	9,276
348,4	12,105
348,8	14,419
349,3	15,619
349,8	16,762
350,2	25,962
350,7	21,133
351,1	19,962
351,6	17,648
352	19,676
352,5	20,905
353	32,476
353,4	36,019
353,9	54,076
354,3	65,79
354,8	80,39
355,3	102,905
355,7	121,99
356,2	140,105
356,6	167,562
357,1	190,39
357,5	223,048
358	259,962
358,5	291,848
358,9	337,133
359,4	386,076
359,8	439,105
360,3	499,648
360,8	566,248
361,2	643,848
361,7	735,105
362,1	830,762
362,6	933,505
363	1041,162
363,5	1161,476
364	1288,59
364,4	1413,476
364,9	1540,305
365,3	1663,219
365,8	1779,448
366,3	1886,933
366,7	1987,648
367,2	2075,762
367,6	2147,162
368,1	2197,876
368,5	2229,19
369	2250,876
369,5	2260,448
369,9	2242,876
370,4	2208,105
370,8	2157,505
371,3	2092,676
371,7	2021,105
372,2	1930,762
372,7	1838,362
373,1	1743,619
373,6	1636,305
374	1538,533
374,5	1439,533
374,9	1346,648
375,4	1258,162
375,9	1161,762
376,3	1070,076
376,8	989,59
377,2	910,905
377,7	837,133
378,2	766,876
378,6	702,505
379,1	649,219
379,5	600,933
380	554,648
380,4	508,419
380,9	466,276
381,4	425,933
381,8	398,505
382,3	369,39
382,7	340,248
383,2	319,419
383,6	299,448
384,1	284,876
384,6	269,562
385	248,019
385,5	229,505
385,9	213,39
386,4	196,076
386,8	184,676
387,3	171,133
387,7	161,705
388,2	149,39
388,7	142,076
389,1	135,448
389,6	130,762
390	120,648
390,5	113,933
390,9	107,019
391,4	104,419
391,9	98,933
392,3	93,419
392,8	82,448
393,2	74,562
393,7	73,076
394,1	67,048
394,6	63,219
395,1	62,819
395,5	56,048
396	57,962
396,4	57,533
396,9	54,962
397,3	59,705
397,8	63,219
398,2	58,79
398,7	59,048
399,2	58,419
399,6	59,448
400,1	54,076
400,5	45,705
401	38,162
401,4	34,019
401,9	38,99
402,4	37,848
402,8	35,048
403,3	38,848
403,7	40,362
404,2	42,105
404,6	45,962
405,1	41,819
405,5	40,162
406	40,276
406,5	36,848
406,9	36,305
407,4	36,476
407,8	37,362
408,3	38,848
408,7	35,162
409,2	40,19
409,6	45,99
410,1	48,019
410,6	50,019
411	49,333
411,5	49,019
411,9	58,676
412,4	61,619
412,8	61,219
413,3	65,505
413,7	68,762
414,2	70,333
414,7	76,39
415,1	79,505
415,6	79,705
416	81,105
416,5	83,533
416,9	83,105
417,4	88,648
417,8	92,333
418,3	93,276
418,8	97,305
419,2	101,876
419,7	102,676
420,1	106,905
420,6	101,619
421	99,933
421,5	101,676
421,9	103,448
422,4	104,076
422,8	105,048
423,3	107,762
423,8	113,248
424,2	109,162
424,7	106,648
425,1	104,362
425,6	106,848
426	108,39
426,5	106,848
426,9	108,59
427,4	109,733
427,9	103,933
428,3	106,105
428,8	102,305
429,2	98,905
429,7	96,105
430,1	93,248
430,6	94,648
431	103,219
431,5	106,733
431,9	103,99
432,4	108,59
432,8	111,533
433,3	115,933
433,8	115,105
434,2	115,99
434,7	116,448
435,1	121,762
435,6	122,705
436	124,39
436,5	128,505
436,9	133,019
437,4	134,333
437,8	136,619
438,3	142,79
438,8	147,933
439,2	154,733
439,7	160,848
440,1	173,019
440,6	183,448
441	186,333
441,5	195,133
441,9	202,705
442,4	205,019
442,8	210,076
443,3	215,19
443,7	217,105
444,2	231,048
444,7	233,619
445,1	243,676
445,6	255,162
446	265,562
446,5	268,219
446,9	278,733
447,4	286,362
447,8	298,619
448,3	307,676
448,7	319,448
449,2	331,876
449,6	353,762
450,1	369,448
450,6	387,562
451	403,419
451,5	418,39
451,9	438,133
452,4	454,619
452,8	469,848
453,3	488,648
453,7	498,79
454,2	516,562
454,6	535,762
455,1	552,59
455,5	569,59
456	585,276
456,4	600,362
456,9	617,476
457,3	636,533
457,8	647,905
458,3	665,505
458,7	684,333
459,2	704,79
459,6	725,819
460,1	752,276
460,5	770,905
461	802,648
461,4	824,333
461,9	851,533
462,3	881,076
462,8	910,79
463,2	933,162
463,7	962,933
464,1	990,848
464,6	1022,876
465	1047,962
465,5	1072,133
466	1098,048
466,4	1126,39
466,9	1156,705
467,3	1181,419
467,8	1207,762
468,2	1237,133
468,7	1265,333
469,1	1299,59
469,6	1330,505
470	1358,762
470,5	1388,162
470,9	1417,905
471,4	1442,19
471,8	1473,219
472,3	1499,619
472,7	1531,562
473,2	1552,133
473,6	1585,162
474,1	1614,762
474,5	1650,105
475	1677,333
475,4	1705,133
475,9	1733,048
476,4	1768,419
476,8	1797,333
477,3	1827,476
477,7	1856,505
478,2	1882,705
478,6	1906,133
479,1	1933,076
479,5	1961,133
480	1985,533
480,4	2012,676
480,9	2036,048
481,3	2059,305
481,8	2089,876
482,2	2111,333
482,7	2135,933
483,1	2152,848
483,6	2171,648
484	2193,562
484,5	2221,933
484,9	2239,648
485,4	2258,876
485,8	2274,933
486,3	2298,648
486,7	2317,876
487,2	2337,019
487,6	2354,133
488,1	2366,362
488,5	2381,19
489	2401,476
489,4	2422,562
489,9	2435,162
490,4	2447,076
490,8	2460,39
491,3	2482,076
491,7	2497,276
492,2	2511,448
492,6	2516,762
493,1	2529,105
493,5	2539,705
494	2547,248
494,4	2552,79
494,9	2560,248
495,3	2565,762
495,8	2573,562
496,2	2581,562
496,7	2581,133
497,1	2591,705
497,6	2597,99
498	2606,676
498,5	2615,933
498,9	2615,962
499,4	2616,448
499,8	2630,705
500,3	2630,762
500,7	2631,219
501,2	2629,876
501,6	2625,19
502,1	2629,99
502,5	2633,905
503	2636,79
503,4	2633,39
503,9	2635,276
504,3	2645,19
504,8	2648,562
505,2	2653,933
505,7	2654,048
506,1	2654,619
506,6	2658,048
507	2660,419
507,5	2657,79
507,9	2656,076
508,4	2652,105
508,8	2654,648
509,3	2646,876
509,7	2646,876
510,2	2645,533
510,6	2636,305
511,1	2633,076
511,5	2633,676
512	2634,419
512,4	2639,648
512,9	2637,99
513,3	2638,762
513,8	2641,219
514,2	2643,79
514,7	2642,133
515,1	2635,162
515,6	2634,79
516	2630,19
516,5	2625,562
516,9	2622,333
517,4	2621,962
517,8	2620,19
518,3	2621,619
518,7	2614,219
519,2	2616,962
519,6	2615,276
520,1	2621,048
520,5	2619,305
521	2610,59
521,4	2611,562
521,9	2613,362
522,3	2609,39
522,8	2603,448
523,2	2600,362
523,7	2595,619
524,1	2601,562
524,6	2592,619
525	2592,476
525,5	2592,362
525,9	2598,848
526,4	2595,619
526,8	2595,248
527,3	2597,619
527,7	2604,133
528,2	2601,133
528,6	2601,048
529,1	2599,419
529,5	2606,79
530	2609,162
530,4	2606,19
530,9	2609,39
531,3	2613,19
531,8	2614,962
532,2	2621,533
532,6	2614,648
533,1	2614,39
533,5	2616,79
534	2612,59
534,4	2609,305
534,9	2614,905
535,3	2611,705
535,8	2613,505
536,2	2617,79
536,7	2622,562
537,1	2628,705
537,6	2633,619
538	2637,819
538,5	2639,362
538,9	2637,905
539,4	2645,019
539,8	2645,933
540,3	2644,705
540,7	2648,076
541,2	2645,419
541,6	2651,305
542,1	2664,933
542,5	2662,248
543	2659,448
543,4	2660,39
543,9	2661,99
544,3	2664,419
544,8	2661,248
545,2	2654,619
545,7	2656,305
546,1	2665,305
546,5	2669,876
547	2674,505
547,4	2681,076
547,9	2685,99
548,3	2700,99
548,8	2706,39
549,2	2702,905
549,7	2707,362
550,1	2713,19
550,6	2716,619
551	2721,048
551,5	2717,733
551,9	2718,819
552,4	2727,676
552,8	2733,105
553,3	2729,762
553,7	2724,819
554,2	2728,219
554,6	2733,99
555,1	2736,276
555,5	2738,39
555,9	2744,676
556,4	2746,105
556,8	2753,79
557,3	2755,705
557,7	2752,848
558,2	2755,562
558,6	2758,59
559,1	2757,619
559,5	2760,619
560	2763,962
560,4	2769,019
560,9	2772,248
561,3	2773,876
561,8	2770,933
562,2	2774,505
562,7	2780,048
563,1	2778,733
563,6	2775,248
564	2775,933
564,4	2783,905
564,9	2789,419
565,3	2786,019
565,8	2787,733
566,2	2791,933
566,7	2796,819
567,1	2803,19
567,6	2802,362
568	2802,333
568,5	2807,019
568,9	2807,39
569,4	2810,19
569,8	2813,019
570,3	2810,876
570,7	2803,79
571,1	2805,162
571,6	2801,933
572	2808,105
572,5	2800,705
572,9	2791,876
573,4	2788,79
573,8	2796,962
574,3	2794,876
574,7	2790,99
575,2	2782,848
575,6	2783,248
576,1	2793,79
576,5	2801,219
576,9	2793,905
577,4	2791,076
577,8	2789,648
578,3	2784,448
578,7	2783,276
579,2	2771,99
579,6	2762,676
580,1	2759,876
580,5	2757,276
581	2757,019
581,4	2756,105
581,9	2754,733
582,3	2754,333
582,7	2753,562
583,2	2750,876
583,6	2750,19
584,1	2745,162
584,5	2742,362
585	2740,333
585,4	2728,819
585,9	2722,876
586,3	2719,619
586,8	2720,448
587,2	2716,762
587,6	2713,819
588,1	2709,362
588,5	2711,333
589	2707,162
589,4	2700,79
589,9	2691,162
590,3	2681,876
590,8	2673,762
591,2	2677,676
591,7	2678,648
592,1	2674,362
592,5	2676,476
593	2671,305
593,4	2672,848
593,9	2672,676
594,3	2657,276
594,8	2652,876
595,2	2648,476
595,7	2641,448
596,1	2632,79
596,6	2627,848
597	2623,419
597,4	2625,876
597,9	2619,505
598,3	2617,419
598,8	2609,533
599,2	2610,448
599,7	2611,933
600,1	2600,676
600,6	2585,276
601	2582,733
601,4	2580,333
601,9	2584,162
602,3	2576,305
602,8	2572,876
603,2	2573,419
603,7	2574,048
604,1	2567,076
604,6	2553,362
605	2539,562
605,4	2535,048
605,9	2519,419
606,3	2508,848
606,8	2496,019
607,2	2482,79
607,7	2478,019
608,1	2470,933
608,6	2469,79
609	2472,99
609,4	2468,19
609,9	2465,39
610,3	2462,305
610,8	2457,105
611,2	2450,076
611,7	2435,248
612,1	2416,676
612,6	2414,733
613	2408,305
613,4	2399,048
613,9	2386,448
614,3	2377,848
614,8	2375,619
615,2	2365,105
615,7	2354,99
616,1	2344,39
616,6	2336,219
617	2330,562
617,4	2325,305
617,9	2317,619
618,3	2315,362
618,8	2307,419
619,2	2300,076
619,7	2290,676
620,1	2281,848
620,5	2270,219
621	2255,333
621,4	2249,248
621,9	2236,162
622,3	2230,19
622,8	2219,848
623,2	2208,848
623,6	2202,19
624,1	2194,248
624,5	2184,076
625	2174,562
625,4	2166,962
625,9	2163,248
626,3	2153,59
626,8	2142,733
627,2	2137,419
627,6	2123,39
628,1	2114,076
628,5	2103,99
629	2084,933
629,4	2077,362
629,9	2066,79
630,3	2052,076
630,7	2037,905
631,2	2032,505
631,6	2022,448
632,1	2018,562
632,5	2008,39
633	2004,333
633,4	2000,648
633,8	1999,476
634,3	1989,39
634,7	1978,276
635,2	1967,59
635,6	1958,99
636,1	1941,733
636,5	1921,105
636,9	1909,333
637,4	1893,419
637,8	1883,505
638,3	1875,248
638,7	1864,133
639,2	1861,248
639,6	1862,19
640	1856,162
640,5	1848,133
640,9	1836,79
641,4	1831,276
641,8	1824,105
642,2	1816,048
642,7	1806,648
643,1	1803,048
643,6	1798,962
644	1796,533
644,5	1789,419
644,9	1780,648
645,3	1767,533
645,8	1757,276
646,2	1744,448
646,7	1733,333
647,1	1722,99
647,6	1710,562
648	1705,39
648,4	1694,419
648,9	1686,59
649,3	1673,476
649,8	1669,962
650,2	1661,876
650,6	1653,762
651,1	1644,933
651,5	1646,019
652	1640,019
652,4	1628,162
652,9	1625,19
653,3	1611,362
653,7	1602,019
654,2	1589,505
654,6	1572,876
655,1	1562,59
655,5	1564,19
655,9	1545,676
656,4	1540,933
656,8	1537,019
657,3	1533,962
657,7	1529,362
658,2	1515,276
658,6	1500,39
659	1495,476
659,5	1484,79
659,9	1472,619
660,4	1461,333
660,8	1455,333
661,2	1454,99
661,7	1447,733
662,1	1439,505
662,6	1434,133
663	1429,59
663,4	1418,733
663,9	1407,419
664,3	1398,533
664,8	1391,848
665,2	1379,79
665,6	1368,733
666,1	1358,819
666,5	1355,619
667	1349,876
667,4	1337,105
667,9	1332,162
668,3	1325,648
668,7	1317,39
669,2	1313,276
669,6	1305,733
670,1	1297,476
670,5	1288,219
670,9	1274,705
671,4	1271,39
671,8	1266,848
672,3	1258,39
672,7	1252,19
673,1	1239,305
673,6	1235,733
674	1234,362
674,5	1229,533
674,9	1216,59
675,3	1204,876
675,8	1194,99
676,2	1189,476
676,7	1179,905
677,1	1169,762
677,5	1153,762
678	1150,819
678,4	1146,276
678,9	1139,99
679,3	1138,476
679,7	1133,99
680,2	1124,533
680,6	1117,448
681,1	1109,99
681,5	1104,305
681,9	1097,733
682,4	1087,19
682,8	1081,133
683,3	1077,762
683,7	1079,762
684,1	1071,79
684,6	1060,933
685	1048,79
685,5	1042,162
685,9	1031,962
686,3	1024,933
686,8	1012,076
687,2	1008,99
687,7	1005,305
688,1	1001,99
688,5	993,705
689	992,448
689,4	981,39
689,9	975,39
690,3	966,448
690,7	958,648
691,2	957,276
691,6	952,962
692	945,762
692,5	947,048
692,9	942,105
693,4	936,419
693,8	931,79
694,2	920,619
694,7	916,819
695,1	911,105
695,6	904,905
696	900,562
696,4	897,419
696,9	886,676
697,3	882,905
697,8	876,476
698,2	870,105
698,6	865,219
699,1	857,248
699,5	852,99
699,9	848,619
700,4	841,448
700,8	836,59
701,3	830,133
701,7	821,19
702,1	811,505
702,6	803,533
703	803,905
703,5	801,19
703,9	796,619
704,3	796,019
704,8	792,019
705,2	791,79
705,6	789,762
706,1	784,219
706,5	779,848
707	771,048
707,4	765,248
707,8	751,59
708,3	748,076
708,7	741,19
709,2	735,505
709,6	729,076
710	733,219
710,5	725,79
710,9	728,248
711,3	722,962
711,8	725,19
712,2	721,648
712,7	713,676
713,1	705,79
713,5	702,276
714	699,162
714,4	693,333
714,8	683,99
715,3	675,248
715,7	678,762
716,2	669,505
716,6	667,762
717	661,562
717,5	657,19
717,9	652,362
718,3	645,59
718,8	635,048
719,2	631,533
719,7	625,419
720,1	622,933
720,5	623,733
721	616,105
721,4	617,162
721,8	617,105
722,3	613,333
722,7	613,305
723,2	607,219
723,6	594,276
724	592,676
724,5	585,619
724,9	578,819
725,3	576,762
725,8	566,819
726,2	564,762
726,7	567,819
727,1	561,219
727,5	558,705
728	553,048
728,4	547,79
728,8	544,276
729,3	540,59
729,7	532,162
730,1	531,476
730,6	532,419
731	533,476
731,5	527,848
731,9	524,476
732,3	521,705
732,8	521,819
733,2	518,962
733,6	513,305
734,1	506,39
734,5	505,476
734,9	506,048
735,4	500,419
735,8	491,448
736,3	490,276
736,7	487,276
737,1	486,105
737,6	484,219
738	478,19
738,4	475,648
738,9	477,248
739,3	475,162
739,7	475,505
740,2	470,076
740,6	472,19
741,1	473,305
741,5	470,676
741,9	471,962
742,4	469,848
742,8	464,99
743,2	466,562
743,7	456,276
744,1	445,476
744,5	443,476
745	438,905
745,4	431,79
745,8	428,305
746,3	426,076
746,7	426,105
747,2	428,333
747,6	431,533
748	432,762
748,5	432,99
748,9	428,248
749,3	423,59
749,8	422,876
750,2	422,762
750,6	413,276
751,1	411,962
751,5	405,905
751,9	407,848
752,4	407,733
752,8	404,305
753,3	401,19
753,7	403,676
754,1	392,79
754,6	389,562
755	382,19
755,4	373,448
755,9	368,705
756,3	360,905
756,7	356,705
757,2	361,019
757,6	360,59
758	361,39
758,5	361,076
758,9	361,733
759,3	362,933
759,8	360,219
760,2	357,962
760,6	356,79
761,1	350,048
761,5	348,705
761,9	343,276
762,4	336,448
762,8	333,305
763,3	324,19
763,7	325,562
764,1	328,705
764,6	329,105
765	330,048
765,4	331,762
765,9	332,133
766,3	335,219
766,7	325,133
767,2	322,648
767,6	321,048
768	313,933
768,5	311,819
768,9	309,133
769,3	303,39
769,8	304,762
770,2	304,105
770,6	300,162
771,1	307,933
771,5	306,076
771,9	306,676
772,4	305,59
772,8	302,99
773,2	301,019
773,7	298,733
774,1	296,162
774,5	290,762
775	285,39
775,4	286,705
775,8	283,819
776,3	279,419
776,7	277,848
777,1	271,133
777,6	273,933
778	275,219
778,4	271,305
778,9	272,133
779,3	273,648
779,7	271,505
780,2	266,476
780,6	263,619
781	260,276
781,5	257,133
781,9	259,076
782,3	254,762
782,8	258,876
783,2	259,99
783,6	264,105
784,1	261,79
784,5	258,476
784,9	251,333
785,4	250,705
785,8	248,448
786,2	251,248
786,7	245,448
787,1	242,19
787,5	245,219
788	248,105
788,4	247,619
788,8	240,019
789,3	234,305
789,7	234,962
790,1	235,933
790,6	235,133
791	227,162
791,4	224,733
791,9	222,39
792,3	217,648
792,7	217,848
793,2	210,962
793,6	207,219
794	213,533
794,5	209,048
794,9	213,79
795,3	215,133
795,8	209,19
796,2	211,876
796,6	213,276
797,1	206,905
797,5	206,305
797,9	200,79
798,4	199,219
798,8	197,676
799,2	193,305
799,7	190,705
800,1	190,362
800,5	190,448
801	193,476
801,4	188,962
801,8	186,933
802,2	187,619
802,7	182,248
803,1	180,762
803,5	179,276
804	174,933
804,4	177,419
804,8	177,876
805,3	176,876
805,7	178,39
806,1	177,448
806,6	178,819
807	175,333
807,4	170,79
807,9	164,733
808,3	166,762
808,7	167,819
809,2	168,39
809,6	166,933
810	165,705
810,4	167,019
810,9	168,905
811,3	166,962
811,7	164,276
812,2	164,076
812,6	160,533
813	162,448
813,5	164,79
813,9	165,162
814,3	163,876
814,8	162,476
815,2	159,305
815,6	153,79
816,1	156,019
816,5	155,762
816,9	153,476
817,3	149,162
817,8	152,962
818,2	151,276
818,6	153,105
819,1	143,79
819,5	136,762
819,9	138,333
820,4	137,248
820,8	130,39
821,2	128,733
821,7	132,076
822,1	140,476
822,5	146,333
822,9	146,648
823,4	148,276
823,8	146,305
824,2	144,219
824,7	140,619
825,1	129,562
825,5	122,105
826	113,162
826,4	109,533
826,8	105,733
827,3	107,19
827,7	103,533
828,1	108,876
828,5	114,705
829	114,876
829,4	116,076
829,8	117,876
830,3	117,019
830,7	117,19
831,1	115,533
831,6	109,219
832	115,105
832,4	112,248
832,8	115,048
833,3	111,419
833,7	107,876
834,1	102,705
834,6	100,905
835	97,105
835,4	93,933
835,8	87,419
836,3	85,162
836,7	85,848
837,1	88,105
837,6	92,59
838	89,505
838,4	90,219
838,9	90,305
839,3	88,533
839,7	88,705
840,1	80,905
840,6	76,19
841	78,562
841,4	81,133
841,9	83,79
842,3	87,162
842,7	89,676
843,1	95,362
843,6	96,619
844	96,733
844,4	95,133
844,9	96,248
845,3	93,876
845,7	90,619
846,2	90,248
846,6	88,876
847	87,733
847,4	90,39
847,9	88,219
848,3	87,619
848,7	83,219
849,2	85,99
849,6	78,333
850	82,219
850,4	76,248
850,9	73,333
851,3	77,476
851,7	79,762
852,2	75,933
852,6	80,276
853	76,39
853,4	76,79
853,9	75,733
854,3	73,448
854,7	75,419
855,2	73,276
855,6	74,619
856	70,848
856,4	68,848
856,9	70,705
857,3	68,99
857,7	70,019
858,2	77,59
858,6	75,419
859	74,705
859,4	76,79
859,9	76,59
860,3	74,162
860,7	74,048
861,1	71,476
861,6	69,762
862	68,39
862,4	66,59
862,9	66,505
863,3	68,505
863,7	66,962
864,1	65,133
864,6	67,076
865	70,733
865,4	75,076
865,9	71,276
866,3	71,305
866,7	68,876
867,1	65,133
867,6	61,819
868	58,905
868,4	57,933
868,8	61,162
869,3	59,276
869,7	61,619
870,1	59,048
870,6	60,59
871	11,219
871,4	12,99
871,8	8,076
872,3	8,733
872,7	7,19
873,1	5,762
873,5	7,219
874	55,39
874,4	52,105
874,8	54,076
875,3	54,79
875,7	49,962
876,1	55,333
876,5	51,276
877	48,448
877,4	43,162
877,8	40,933
878,2	44,076
878,7	47,105
879,1	47,133
879,5	55,448
879,9	61,219
880,4	62,99
880,8	65,762
881,2	60,19
881,7	59,133
882,1	55,962
882,5	49,676
882,9	46,762
883,4	45,162
883,8	48,219
884,2	48,619
884,6	40,848
885,1	41,333
885,5	42,305
885,9	41,533
886,3	44,333
886,8	37,648
887,2	37,048
887,6	42,476
888	41,505
888,5	40,619
888,9	39,39
889,3	35,533
889,8	35,676
890,2	35,533
890,6	35,562
891	34,79
891,5	33,19
891,9	35,248
892,3	39,276
892,7	40,19
893,2	41,133
893,6	44,676
894	48,048
894,4	46,133
894,9	46,933
895,3	47,076
895,7	50,59
896,1	48,59
896,6	46,848
897	44,99
897,4	50,619
897,8	44,819
898,3	47,333
898,7	43,162
899,1	42,705
899,5	44,162
900	36,962
900,4	33,505
900,8	33,819
901,2	28,419
901,7	29,705
902,1	30,848
902,5	31,39
902,9	36,362
903,4	38,133
903,8	39,19
904,2	35,533
904,6	36,962
905,1	38,048
905,5	35,733
905,9	38,39
906,3	38,733
906,8	43,533
907,2	46,562
907,6	44,305
908	44,533
908,5	41,419
908,9	37,162
909,3	34,048
909,7	27,619
910,2	24,619
910,6	27,905
911	22,905
911,4	23,733
911,9	23,105
912,3	21,105
912,7	27,905
913,1	30,019
913,6	23,305
914	27,305
914,4	22,79
914,8	23,962
915,3	23,133
915,7	18,39
916,1	14,619
916,5	17,105
916,9	19,076
917,4	20,819
917,8	24,162
918,2	23,476
918,6	20,162
919,1	24,905
919,5	23,648
919,9	18,962
920,3	21,419
920,8	14,762
921,2	15,79
921,6	17,705
922	18,248
922,5	17,933
922,9	16,933
923,3	13,276
923,7	20,333
924,2	16,305
924,6	17,333
925	15,476
925,4	17,305
925,8	20,99
926,3	23,019
926,7	14,962
927,1	20,219
927,5	22,505
928	19,362
928,4	16,733
928,8	16,019
929,2	19,562
929,7	24,505
930,1	23,99
930,5	18,79
930,9	22,733
931,3	25,848
931,8	23,619
932,2	20,848
932,6	18,476
933	11,59
933,5	11,505
933,9	13,762
934,3	12,905
934,7	9,39
935,2	9,933
935,6	13,162
936	17,905
936,4	22,39
936,8	22,505
937,3	20,505
937,7	25,648
938,1	28,99
938,5	23,019
939	25,105
939,4	24,733
939,8	22,219
940,2	24,419
940,6	19,533
941,1	15,848
941,5	20,362
941,9	18,019
942,3	17,562
942,8	15,79
943,2	13,105
943,6	12,819
944	12,419
944,4	14,19
944,9	11,448
945,3	11,076
945,7	6,076
946,1	7,19
946,6	4,305
947	5,162
947,4	7,39
947,8	9,762
948,2	5,705
948,7	11,79
949,1	11,962
949,5	19,848
949,9	21,933
950,3	16,79
950,8	20,19
951,2	22,362
951,6	19,162
952	21,676
952,5	19,39
952,9	17,105
953,3	18,162
953,7	17,705
954,1	19,048
954,6	22,505
955	20,076
955,4	16,448
955,8	17,59
956,2	17,733
956,7	15,905
957,1	12,819
957,5	15,105
957,9	18,848
958,3	21,933
958,8	22,476
959,2	23,648
959,6	24,219
960	23,676
960,5	24,19
960,9	20,219
961,3	19,848
961,7	16,848
962,1	15,076
962,6	17,762
963	20,305
963,4	13,333
963,8	14,448
964,2	17,019
964,7	17,476
965,1	22,962
965,5	20,59
965,9	19,076
966,3	23,533
966,8	22,276
967,2	22,19
967,6	20,476
968	11,676
968,4	11,048
968,9	13,676
969,3	16,476
969,7	12,676
970,1	15,705
970,5	17,733
971	24,276
971,4	26,705
971,8	28,333
972,2	25,705
972,6	31,133
973,1	26,848
973,5	27,762
973,9	22,448
974,3	22,105
974,7	22,619
975,2	24,219
975,6	20,705
976	21,705
976,4	19,648
976,8	20,048
977,3	15,848
977,7	12,819
978,1	15,333
978,5	14,019
978,9	10,562
979,4	10,533
979,8	9,905
980,2	9,048
980,6	5,248
981	1,305
981,5	2,619
981,9	4,619
982,3	2,562
982,7	3,19
983,1	5,676
983,6	8,59
984	6,39
984,4	6,676
984,8	8,219
985,2	9,476
985,6	11,819
986,1	11,876
986,5	10,819
986,9	5,848
987,3	11,733
987,7	5,905
988,2	8,162
988,6	6,248
989	5,676
989,4	6,133
989,8	12,619
990,3	7,962
990,7	11,019
991,1	9,905
991,5	10,619
991,9	13,076
992,3	18,105
992,8	18,39
993,2	16,876
993,6	15,39
994	15,79
994,4	17,162
994,9	14,105
995,3	5,733
995,7	4,476
996,1	6,562
996,5	9,733
996,9	7,933
997,4	3,019
997,8	1,733
998,2	4,705
998,6	-0,01
999	-3,181
999,5	-4,524
999,9	-3,352
1000,3	-1,067
1000,7	4,705
1001,1	4,248
1001,5	7,562
1002	13,105
1002,4	17,819
1002,8	16,219
1003,2	18,962
1003,6	18,59
1004	25,248
1004,5	22,905
1004,9	21,79
1005,3	12,333
1005,7	13,448
1006,1	10,133
1006,6	6,762
1007	4,048
1007,4	2,19
1007,8	0,876
1008,2	5,876
1008,6	10,876
1009,1	9,905
1009,5	9,933
1009,9	10,562
1010,3	15,848
1010,7	17,219
1011,1	13,933
1011,6	7,39
1012	14,562
1012,4	11,048
1012,8	4,762
1013,2	8,19
1013,6	9,133
1014,1	12,276
1014,5	13,505
1014,9	8,876
1015,3	9,476
1015,7	13,019
1016,1	6,39
1016,6	3,276
1017	7,876
1017,4	8,505
1017,8	10,819
1018,2	14,419
1018,6	11,248
1019,1	13,876
1019,5	16,019
1019,9	10,648
1020,3	13,219
1020,7	14,333
1021,1	11,848
1021,6	14,79
1022	15,99
1022,4	10,076
1022,8	13,933
1023,2	13,276
1023,6	9,333
1024,1	18,248
1024,5	16,048
1024,9	15,133
1025,3	17,505
1025,7	12,048
1026,1	12,476
1026,6	13,962
1027	4,762
1027,4	5,733
1027,8	4,705
1028,2	4,648
1028,6	15,59
1029	13,276
1029,5	11,533
1029,9	14,562
1030,3	14,362
1030,7	17,333
1031,1	21,219
1031,5	12,305
1032	14,076
1032,4	15,962
1032,8	19,362
1033,2	25,276
1033,6	19,733
1034	17,79
1034,4	16,762
1034,9	16,333
1035,3	12,476
1035,7	9,619
1036,1	4,162
1036,5	2,048
1036,9	0,648
1037,4	8,419
1037,8	4,448
1038,2	4,99
1038,6	3,105
1039	3,848
1039,4	15,133
1039,8	12,362
1040,3	9,362
1040,7	13,848
1041,1	15,505
1041,5	17,562
1041,9	20,133
1042,3	16,019
1042,7	18,762
1043,2	12,648
1043,6	9,762
1044	10,505
1044,4	10,848
1044,8	11,562
1045,2	8,019
1045,6	11,848
1046,1	14,048
1046,5	13,048
1046,9	11,39
1047,3	9,676
1047,7	2,905
1048,1	0,162
1048,5	-1,695
1049	-0,695
1049,4	5,676
1049,8	8,99
1050,2	11,448
1050,6	19,79
1051	24,105
1051,4	22,676
1051,9	24,59
1052,3	29,448
1052,7	32,162
1053,1	25,819
1053,5	21,305
1053,9	18,59
1054,3	23,133
1054,8	26,133
1055,2	19,39
1055,6	15,848
1056	21,79
1056,4	23,39
1056,8	28,276
1057,2	20,076
1057,6	12,333
1058,1	7,133
1058,5	3,79
1058,9	1,562
1059,3	-1,61
1059,7	-2,695
1060,1	0,305
1060,5	4,019
1061	13,476
1061,4	12,133
1061,8	15,076
1062,2	15,676
1062,6	15,362
1063	19,076
1063,4	18,333
1063,8	10,99
1064,3	12,105
1064,7	10,819
1065,1	7,905
1065,5	1,79
1065,9	-1,552
1066,3	-2,524
1066,7	-1,067
1067,1	-1,552
1067,6	-3,924
1068	-5,581
1068,4	4,105
1068,8	3,762
1069,2	4,305
1069,6	4,762
1070	8,505
1070,4	10,905
1070,9	15,99
1071,3	11,019
1071,7	9,562
1072,1	10,933
1072,5	8,762
1072,9	7,505
1073,3	7,133
1073,7	4,048
1074,2	6,762
1074,6	13,533
1075	14,333
1075,4	17,448
1075,8	19,819
1076,2	20,133
1076,6	25,876
1077	24,676
1077,5	21,619
1077,9	16,876
1078,3	16,962
1078,7	12,905
1079,1	15,19
1079,5	12,248
1079,9	10,448
1080,3	10,248
1080,7	10,648
1081,2	17,419
1081,6	14,133
1082	10,676
1082,4	13,333
1082,8	14,448
1083,2	12,333
1083,6	14,819
1084	5,505
1084,5	12,076
1084,9	9,848
1085,3	4,276
1085,7	7,305
1086,1	8,476
1086,5	10,733
1086,9	14,562
1087,3	13,619
1087,7	14,819
1088,2	13,676
1088,6	7,848
1089	9,99
1089,4	6,733
1089,8	3,79
1090,2	3,305
1090,6	2,248
1091	9,876
1091,4	17,276
1091,9	15,276
1092,3	15,733
1092,7	16,362
1093,1	16,048
1093,5	20,162
1093,9	12,762
1094,3	12,876
1094,7	12,705
1095,1	17,333
1095,5	17,248
1096	15,99
1096,4	16,219
1096,8	19,333
1097,2	15,448
1097,6	16,762
1098	12,962
1098,4	15,648
1098,8	18,419
1099,2	23,219
1099,6	25,505
1100,1	22,476
1100,5	20,219
1100,9	21,076
1101,3	20,076
1101,7	17,39
1102,1	10,476
1102,5	8,733
1102,9	10,59
1103,3	12,59
1103,7	12,476
1104,2	9,048
1104,6	9,905
1105	9,933
1105,4	10,562
1105,8	8,905
1106,2	6,448
1106,6	3,076
1107	3,248
1107,4	2,833
1107,8	1,653
1108,3	-0,917
