Data from Subt2_104.txt Node
Date: Sat Aug 26 18:18:53 MSK 2023
User: vat
Spectrometer: MAYP114033
Trigger mode: 0
Integration Time (sec): 1,000000E0
Scans to average: 5
Electric dark correction enabled: true
Nonlinearity correction enabled: false
Boxcar width: 3
XAxis mode: Wavelengths
Number of Pixels in Spectrum: 2068
>>>>>Begin Spectral Data<<<<<
199,4	0,2
199,9	2,42
200,4	-2,4
200,8	-2,043
201,3	-4,471
201,8	-4,271
202,2	-5,329
202,7	-2,929
203,2	-5,386
203,6	-2,7
204,1	-2,043
204,6	-1,757
205	0,529
205,5	3,5
206	0,986
206,4	3,129
206,9	3,986
207,4	5,871
207,8	7,243
208,3	4,9
208,8	0,586
209,2	3,357
209,7	3,786
210,2	5,443
210,6	7,986
211,1	8,329
211,5	6,414
212	11,329
212,5	7,529
212,9	3,529
213,4	4,329
213,9	0,386
214,3	0,529
214,8	4,5
215,3	-2,271
215,7	-0,1
216,2	3,929
216,7	4,414
217,1	1,129
217,6	4,329
218,1	2,186
218,5	2,071
219	-0,329
219,5	1,386
219,9	-3,871
220,4	0,414
220,9	-2,186
221,3	-4,043
221,8	-2,129
222,3	0,157
222,7	-1,643
223,2	2,386
223,6	0,329
224,1	-1,014
224,6	3,843
225	3,529
225,5	2,957
226	2,786
226,4	1,671
226,9	1,157
227,4	2,814
227,8	-3,557
228,3	-0,843
228,8	1,414
229,2	0,729
229,7	-0,3
230,2	3,386
230,6	5,843
231,1	12,1
231,5	11,357
232	11,614
232,5	9,471
232,9	13,986
233,4	13,329
233,9	9,386
234,3	8,386
234,8	10,157
235,3	6,3
235,7	10,529
236,2	8,214
236,7	6,843
237,1	8,186
237,6	5,843
238,1	4,414
238,5	1,043
239	-1,557
239,4	-0,414
239,9	-3,214
240,4	-2,186
240,8	1,871
241,3	-0,129
241,8	1,243
242,2	2,986
242,7	1,357
243,2	2,014
243,6	2,186
244,1	-0,671
244,6	3,729
245	8,5
245,5	7,071
245,9	5,5
246,4	7,5
246,9	4,786
247,3	6,071
247,8	3,3
248,3	4,614
248,7	4,9
249,2	8,043
249,7	9,529
250,1	13,214
250,6	10,5
251	15,186
251,5	14,7
252	15,357
252,4	12,5
252,9	7,386
253,4	2,386
253,8	2,129
254,3	0,9
254,8	-1,871
255,2	-4,786
255,7	-7,129
256,1	-4,814
256,6	-1,671
257,1	3,814
257,5	-3,443
258	-5,214
258,5	-4,586
258,9	-1,814
259,4	-2,586
259,9	-4,1
260,3	-7,414
260,8	-6,043
261,2	-4,586
261,7	1,3
262,2	-2,957
262,6	-6,586
263,1	-4,1
263,6	-6,043
264	-2,3
264,5	2,471
264,9	-2,643
265,4	3,586
265,9	8,614
266,3	5,814
266,8	8,643
267,3	7,157
267,7	1,586
268,2	1,671
268,7	1,3
269,1	0,186
269,6	0,129
270	4,9
270,5	5,729
271	8,929
271,4	10,643
271,9	4,9
272,4	9,5
272,8	14,471
273,3	3,471
273,7	0,329
274,2	-0,814
274,7	-3,614
275,1	3,129
275,6	-0,614
276,1	-4,586
276,5	2,614
277	6,643
277,4	8,271
277,9	10,214
278,4	9,7
278,8	12,471
279,3	14,071
279,8	13,586
280,2	16,014
280,7	13,329
281,1	10,929
281,6	7,929
282,1	7,214
282,5	4,929
283	1,7
283,4	-4,329
283,9	-2,786
284,4	4,014
284,8	8,071
285,3	5,871
285,8	9,757
286,2	8,9
286,7	8,271
287,1	4,643
287,6	1,3
288,1	-2,386
288,5	1,186
289	0,043
289,5	4,786
289,9	3,586
290,4	7,157
290,8	10,671
291,3	10,586
291,8	10,586
292,2	4,729
292,7	5,271
293,1	8,386
293,6	9,5
294,1	5,786
294,5	5,014
295	2,186
295,5	5,3
295,9	3,043
296,4	2,071
296,8	-2,957
297,3	-5,586
297,8	-8,614
298,2	-12,157
298,7	-8,557
299,1	-7,643
299,6	-8,214
300,1	-1,243
300,5	1,214
301	5,043
301,5	13,5
301,9	12,3
302,4	10,243
302,8	14,557
303,3	11,186
303,8	5,1
304,2	3,357
304,7	-2,329
305,1	-10,443
305,6	-7,929
306,1	-4,329
306,5	-3,3
307	3,386
307,4	7,214
307,9	3,957
308,4	10,243
308,8	1,414
309,3	-3,186
309,8	-6,043
310,2	-7,1
310,7	-11,357
311,1	-6,271
311,6	-4,729
312,1	2,757
312,5	5,7
313	9,5
313,4	5,5
313,9	11,157
314,4	12,129
314,8	8,757
315,3	7,1
315,7	1,871
316,2	-0,443
316,7	1,386
317,1	0,443
317,6	-1,157
318	6,471
318,5	7,557
319	8,329
319,4	9,386
319,9	14,814
320,3	13,186
320,8	13,443
321,3	10,443
321,7	10,243
322,2	7,357
322,6	8,329
323,1	6,186
323,6	7,671
324	5,443
324,5	3,586
324,9	4,7
325,4	6,957
325,9	4,729
326,3	4,386
326,8	1,671
327,2	0,871
327,7	-0,929
328,2	-0,557
328,6	5,214
329,1	1,843
329,5	0,071
330	2,386
330,5	5,614
330,9	7,386
331,4	2,071
331,8	-1,471
332,3	4,329
332,8	5,1
333,2	2,271
333,7	1,1
334,1	1,414
334,6	2,9
335,1	0,729
335,5	1,5
336	-1,671
336,4	0,843
336,9	8,271
337,4	11,843
337,8	12,443
338,3	14,557
338,7	15,129
339,2	13,643
339,7	14,3
340,1	3,643
340,6	-1,357
341	-4,986
341,5	-5,214
342	-8,271
342,4	-9,014
342,9	-10,3
343,3	-4,014
343,8	-4,471
344,2	-2,443
344,7	1,586
345,2	-0,529
345,6	3,7
346,1	6,129
346,5	1,5
347	6,071
347,5	8,871
347,9	7,443
348,4	7,186
348,8	10,814
349,3	10,786
349,8	16,243
350,2	17,871
350,7	15,7
351,1	15,271
351,6	18,9
352	15,586
352,5	12,757
353	17,614
353,4	16,529
353,9	22,986
354,3	30,1
354,8	35,9
355,3	49,529
355,7	65,129
356,2	73,214
356,6	89,271
357,1	109,214
357,5	128,586
358	153,357
358,5	173,957
358,9	202,957
359,4	233,786
359,8	264,529
360,3	303,871
360,8	340,443
361,2	382,871
361,7	433,757
362,1	489,214
362,6	554,329
363	619,9
363,5	688,357
364	769,643
364,4	847,414
364,9	926,014
365,3	999,614
365,8	1065,957
366,3	1133,357
366,7	1193,643
367,2	1242,729
367,6	1285,671
368,1	1325,5
368,5	1351,814
369	1361,586
369,5	1366,329
369,9	1355,586
370,4	1332,471
370,8	1298,757
371,3	1252,7
371,7	1203,529
372,2	1156,3
372,7	1101,529
373,1	1038,271
373,6	978,014
374	920,986
374,5	860,871
374,9	802,5
375,4	747,386
375,9	692,243
376,3	642,957
376,8	592,271
377,2	544,729
377,7	499,157
378,2	454,5
378,6	413,757
379,1	375,5
379,5	348,043
380	323,614
380,4	296,871
380,9	270,1
381,4	249,614
381,8	230,786
382,3	214,243
382,7	196,643
383,2	181,7
383,6	172,1
384,1	165,043
384,6	153,9
385	142,443
385,5	130,014
385,9	115,529
386,4	106,814
386,8	99,386
387,3	88,9
387,7	85,157
388,2	81,043
388,7	79,443
389,1	80,329
389,6	77,729
390	68,386
390,5	67,871
390,9	63,671
391,4	61,043
391,9	53,929
392,3	51,643
392,8	41,471
393,2	41,614
393,7	40,471
394,1	33,957
394,6	29,871
395,1	35,129
395,5	29,357
396	35,614
396,4	35,443
396,9	34,443
397,3	44,186
397,8	44,586
398,2	40,7
398,7	42,1
399,2	41,9
399,6	43,9
400,1	46,986
400,5	36,814
401	37,1
401,4	32,3
401,9	35,729
402,4	37,129
402,8	31,729
403,3	34,243
403,7	38,186
404,2	43,757
404,6	50,129
405,1	50,9
405,5	48,014
406	54,986
406,5	52,071
406,9	54,7
407,4	53,5
407,8	59,7
408,3	65,643
408,7	67,9
409,2	74,871
409,6	83,3
410,1	90,357
410,6	97,414
411	99,443
411,5	104,186
411,9	117,5
412,4	121,5
412,8	125,843
413,3	134,186
413,7	139,9
414,2	155,329
414,7	169,957
415,1	180,929
415,6	195,414
416	205,271
416,5	217,814
416,9	233,414
417,4	244,214
417,8	258,7
418,3	274,3
418,8	288,7
419,2	306,843
419,7	323,614
420,1	343,071
420,6	365,186
421	385,9
421,5	404,529
421,9	432,443
422,4	462,043
422,8	486,957
423,3	507,843
423,8	531,386
424,2	553,729
424,7	586,271
425,1	613,557
425,6	647,214
426	683,814
426,5	723,129
426,9	762,414
427,4	797,014
427,9	832,957
428,3	874,414
428,8	916,357
429,2	958,3
429,7	1008,557
430,1	1057,729
430,6	1114,271
431	1173,214
431,5	1232,243
431,9	1288,186
432,4	1359,043
432,8	1426,129
433,3	1501,186
433,8	1580,357
434,2	1666,329
434,7	1754,271
435,1	1845,786
435,6	1936,186
436	2030,3
436,5	2132,586
436,9	2230,671
437,4	2330,071
437,8	2437,271
438,3	2554,7
438,8	2671,329
439,2	2801,786
439,7	2929,957
440,1	3070,357
440,6	3220,586
441	3355,814
441,5	3505,5
441,9	3661,643
442,4	3811,471
442,8	3975,957
443,3	4149,5
443,7	4316,329
444,2	4507,443
444,7	4692,929
445,1	4886,814
445,6	5093,586
446	5290,186
446,5	5494,414
446,9	5698,529
447,4	5906,443
447,8	6124,786
448,3	6350,786
448,7	6576,414
449,2	6812,7
449,6	7047,071
450,1	7295,014
450,6	7556,957
451	7810,186
451,5	8072,414
451,9	8346,157
452,4	8622,157
452,8	8903,1
453,3	9193,129
453,7	9477,671
454,2	9774,986
454,6	10069,529
455,1	10363,014
455,5	10659,243
456	10967,157
456,4	11265,271
456,9	11573,357
457,3	11884,043
457,8	12194,757
458,3	12516,9
458,7	12843,014
459,2	13173,271
459,6	13503,529
460,1	13836,129
460,5	14158,757
461	14507,986
461,4	14833,5
461,9	15158,671
462,3	15484,271
462,8	15827,1
463,2	16155,414
463,7	16501,129
464,1	16826,871
464,6	17163,814
465	17502,729
465,5	17839,671
466	18163,357
466,4	18488,5
466,9	18820,9
467,3	19137,843
467,8	19462,9
468,2	19787,014
468,7	20102,443
469,1	20429,3
469,6	20756,471
470	21063,014
470,5	21366,9
470,9	21662,671
471,4	21958,814
471,8	22250,329
472,3	22540,386
472,7	22828,043
473,2	23096,871
473,6	23363,357
474,1	23632,814
474,5	23898,243
475	24160,986
475,4	24403,986
475,9	24644,043
476,4	24892,414
476,8	25156,014
477,3	25384,243
477,7	25614,071
478,2	25819,614
478,6	26030,014
479,1	26221,843
479,5	26405,329
480	26565,5
480,4	26749,5
480,9	26897,643
481,3	27046,3
481,8	27207,243
482,2	27341,957
482,7	27470,814
483,1	27600,871
483,6	27697,986
484	27807,014
484,5	27921,3
484,9	27980,043
485,4	28071,671
485,8	28140,186
486,3	28217,471
486,7	28267,729
487,2	28314,929
487,6	28344,414
488,1	28380,586
488,5	28384,529
489	28406,643
489,4	28403,157
489,9	28402,014
490,4	28384,843
490,8	28378,329
491,3	28352,986
491,7	28327,929
492,2	28277,643
492,6	28221,786
493,1	28169,7
493,5	28116,071
494	28038,271
494,4	27969,329
494,9	27885,9
495,3	27814,871
495,8	27713,1
496,2	27632,586
496,7	27520,014
497,1	27424,729
497,6	27320,843
498	27220,071
498,5	27111,214
498,9	26987,5
499,4	26858,586
499,8	26744,414
500,3	26618,671
500,7	26485,414
501,2	26336,5
501,6	26189,729
502,1	26062,329
502,5	25913,329
503	25757,729
503,4	25598,986
503,9	25444,557
504,3	25292,814
504,8	25116,929
505,2	24944,757
505,7	24783,043
506,1	24620,043
506,6	24431,643
507	24235,929
507,5	24052,9
507,9	23882,814
508,4	23702,643
508,8	23507,7
509,3	23308,386
509,7	23121,071
510,2	22942,414
510,6	22741,986
511,1	22557,586
511,5	22355,9
512	22171,9
512,4	21983,243
512,9	21782,871
513,3	21575,586
513,8	21387,443
514,2	21165,614
514,7	20966,843
515,1	20752,557
515,6	20545,871
516	20343,357
516,5	20151,1
516,9	19934,643
517,4	19741,557
517,8	19543,643
518,3	19344,929
518,7	19143,157
519,2	18955,586
519,6	18741,129
520,1	18565,557
520,5	18364,957
521	18172,414
521,4	17980,586
521,9	17787,986
522,3	17582,614
522,8	17388,443
523,2	17189,157
523,7	17000,843
524,1	16795,643
524,6	16597,9
525	16416,386
525,5	16231,929
525,9	16065,671
526,4	15876,014
526,8	15694,929
527,3	15532,986
527,7	15371,043
528,2	15195,729
528,6	15026,614
529,1	14859,7
529,5	14704,557
530	14537,557
530,4	14358,814
530,9	14184,586
531,3	14012,814
531,8	13855,7
532,2	13690,929
532,6	13522,7
533,1	13366,014
533,5	13220,214
534	13072,557
534,4	12929,186
534,9	12781,1
535,3	12633,186
535,8	12491,529
536,2	12352,843
536,7	12213,443
537,1	12071,757
537,6	11936,329
538	11800,529
538,5	11667,7
538,9	11540,3
539,4	11411,329
539,8	11274,1
540,3	11146,671
540,7	11024,643
541,2	10891,843
541,6	10760,557
542,1	10641,871
542,5	10526,986
543	10411,9
543,4	10294,471
543,9	10179,929
544,3	10076,643
544,8	9970,786
545,2	9849,043
545,7	9727,7
546,1	9628,014
546,5	9528,014
547	9428,014
547,4	9321,786
547,9	9223,671
548,3	9126,357
548,8	9033,614
549,2	8932,1
549,7	8834,871
550,1	8727,986
550,6	8630,014
551	8537,014
551,5	8444,7
551,9	8366,443
552,4	8279,014
552,8	8197,243
553,3	8123,071
553,7	8045,814
554,2	7964,214
554,6	7890,643
555,1	7807,357
555,5	7734,871
555,9	7658,5
556,4	7579,3
556,8	7499,614
557,3	7427,671
557,7	7352,957
558,2	7273,5
558,6	7206,814
559,1	7132,757
559,5	7058,357
560	7000,786
560,4	6935,071
560,9	6873,986
561,3	6812,529
561,8	6736,186
562,2	6678,586
562,7	6616,557
563,1	6555,271
563,6	6495,557
564	6430,786
564,4	6368,157
564,9	6308,329
565,3	6244,271
565,8	6187,757
566,2	6129,586
566,7	6071,243
567,1	6019,671
567,6	5960,386
568	5912,157
568,5	5856,214
568,9	5797,7
569,4	5743,957
569,8	5687,786
570,3	5627,643
570,7	5580,529
571,1	5535,271
571,6	5487,929
572	5450,843
572,5	5402,329
572,9	5353,614
573,4	5310,929
573,8	5273,014
574,3	5221,414
574,7	5173,3
575,2	5122,471
575,6	5077,729
576,1	5035,443
576,5	4993,443
576,9	4945,214
577,4	4900,814
577,8	4855,1
578,3	4814,814
578,7	4772,814
579,2	4735,271
579,6	4690,186
580,1	4644,471
580,5	4611,043
581	4577,529
581,4	4540,557
581,9	4496,386
582,3	4454,129
582,7	4419,9
583,2	4387,671
583,6	4348,671
584,1	4314,529
584,5	4270,814
585	4233,243
585,4	4193,186
585,9	4154,729
586,3	4121,957
586,8	4090,071
587,2	4050,843
587,6	4027,929
588,1	4004,186
588,5	3981,643
589	3950,757
589,4	3912,186
589,9	3875,414
590,3	3852,586
590,8	3813,729
591,2	3780,329
591,7	3752,3
592,1	3725,014
592,5	3709,243
593	3679,014
593,4	3648,643
593,9	3624,157
594,3	3603,643
594,8	3571,729
595,2	3548,5
595,7	3516,386
596,1	3496,3
596,6	3466,643
597	3448,357
597,4	3421,071
597,9	3403,9
598,3	3385,414
598,8	3359,243
599,2	3338,9
599,7	3318,729
600,1	3292,043
600,6	3262,586
601	3235,414
601,4	3213,3
601,9	3196,529
602,3	3171,1
602,8	3150,043
603,2	3124,5
603,7	3102,843
604,1	3080,243
604,6	3051,9
605	3023,614
605,4	3004,186
605,9	2985,071
606,3	2958,843
606,8	2942,729
607,2	2921,814
607,7	2900,271
608,1	2886,014
608,6	2868,186
609	2846,271
609,4	2835,9
609,9	2818,843
610,3	2802,471
610,8	2780,1
611,2	2752,843
611,7	2729,043
612,1	2709,443
612,6	2690,843
613	2669,157
613,4	2648,843
613,9	2632,1
614,3	2614,643
614,8	2599,443
615,2	2576,957
615,7	2559,5
616,1	2540,243
616,6	2516,214
617	2499,414
617,4	2484,757
617,9	2470,3
618,3	2459,186
618,8	2440,757
619,2	2419,014
619,7	2407,643
620,1	2392,557
620,5	2375,014
621	2354,871
621,4	2339,557
621,9	2324,5
622,3	2311,414
622,8	2289,843
623,2	2270,757
623,6	2255,786
624,1	2239,386
624,5	2219,957
625	2206,043
625,4	2193,243
625,9	2178,9
626,3	2163,1
626,8	2146,5
627,2	2130,157
627,6	2109,357
628,1	2089,643
628,5	2076,757
629	2057,814
629,4	2044,671
629,9	2029,357
630,3	2008,757
630,7	1994,1
631,2	1981,157
631,6	1961,814
632,1	1953,014
632,5	1940,129
633	1924,986
633,4	1912,129
633,8	1897,214
634,3	1880,7
634,7	1866,329
635,2	1847,929
635,6	1835,957
636,1	1821,214
636,5	1808,3
636,9	1799,786
637,4	1787,443
637,8	1774,671
638,3	1765,214
638,7	1748,414
639,2	1730,243
639,6	1722,671
640	1709,014
640,5	1698,329
640,9	1686,643
641,4	1677,586
641,8	1665,586
642,2	1662,9
642,7	1651,7
643,1	1646,271
643,6	1633,014
644	1623,414
644,5	1615,1
644,9	1606,157
645,3	1595,129
645,8	1578,071
646,2	1562,014
646,7	1552,757
647,1	1539,643
647,6	1526,757
648	1517,443
648,4	1506,271
648,9	1500,586
649,3	1494,3
649,8	1487,471
650,2	1479,186
650,6	1470,957
651,1	1458,386
651,5	1452,386
652	1443,843
652,4	1433,5
652,9	1425,1
653,3	1416,529
653,7	1399,929
654,2	1391,071
654,6	1374,786
655,1	1368,786
655,5	1360,757
655,9	1347,557
656,4	1338,786
656,8	1334,357
657,3	1325,3
657,7	1321,129
658,2	1305,729
658,6	1292,843
659	1281,386
659,5	1269,3
659,9	1258,043
660,4	1249,7
660,8	1240,786
661,2	1227,3
661,7	1221,471
662,1	1214,786
662,6	1207,243
663	1198,443
663,4	1185,271
663,9	1174,243
664,3	1170,957
664,8	1151,786
665,2	1138,214
665,6	1129,929
666,1	1124,643
666,5	1126,357
667	1116,243
667,4	1111,586
667,9	1110,843
668,3	1104,414
668,7	1096,157
669,2	1084,529
669,6	1070,414
670,1	1065,557
670,5	1053,843
670,9	1043,386
671,4	1033,786
671,8	1024,1
672,3	1022,129
672,7	1016,071
673,1	1006,329
673,6	996,157
674	998,557
674,5	995,186
674,9	986,386
675,3	974,5
675,8	966,814
676,2	960,129
676,7	952,929
677,1	938,414
677,5	929,129
678	927,014
678,4	923,729
678,9	919,957
679,3	911,643
679,7	908,643
680,2	899,1
680,6	892,9
681,1	882,5
681,5	872,586
681,9	864,443
682,4	860,643
682,8	856,243
683,3	852,814
683,7	847,986
684,1	843,3
684,6	839,329
685	829,557
685,5	824,929
685,9	812,843
686,3	804,871
686,8	802,5
687,2	796,786
687,7	790,1
688,1	782,357
688,5	772,9
689	772,271
689,4	769,443
689,9	760,9
690,3	751,529
690,7	749,5
691,2	750,129
691,6	745,557
692	738,186
692,5	734,929
692,9	727,7
693,4	725,043
693,8	717,729
694,2	707,614
694,7	705,5
695,1	693,557
695,6	688,786
696	686,157
696,4	679,757
696,9	671,243
697,3	664,671
697,8	655,414
698,2	654,186
698,6	648,986
699,1	645,1
699,5	646,643
699,9	641,443
700,4	638,357
700,8	638,586
701,3	638,071
701,7	634,014
702,1	626,357
702,6	619,214
703	614,414
703,5	608,671
703,9	602,014
704,3	600,443
704,8	592,271
705,2	589,586
705,6	583,214
706,1	577,843
706,5	576,843
707	575,7
707,4	570,757
707,8	564,5
708,3	565,186
708,7	559,129
709,2	560,329
709,6	550,814
710	545,9
710,5	531,843
710,9	527,129
711,3	515,243
711,8	515,186
712,2	512,243
712,7	510,214
713,1	503,529
713,5	509,986
714	513,243
714,4	512,071
714,8	508,214
715,3	499,5
715,7	499,443
716,2	494,529
716,6	490,014
717	480,671
717,5	474,814
717,9	473,271
718,3	471,986
718,8	468,7
719,2	467,157
719,7	459,529
720,1	458,529
720,5	455,7
721	448,414
721,4	443,129
721,8	442,957
722,3	435,757
722,7	437,471
723,2	428,5
723,6	421,5
724	419,414
724,5	419,5
724,9	411,271
725,3	411,5
725,8	406,386
726,2	409,671
726,7	412,3
727,1	407,386
727,5	400,1
728	397,614
728,4	392,9
728,8	386,414
729,3	381,729
729,7	372,3
730,1	370,329
730,6	372,414
731	367,243
731,5	366,386
731,9	362,786
732,3	363,357
732,8	367,3
733,2	367,271
733,6	358,529
734,1	359,5
734,5	357,043
734,9	358,414
735,4	355,871
735,8	348,729
736,3	348,243
736,7	348,9
737,1	349,329
737,6	344,814
738	340,843
738,4	337,871
738,9	336,1
739,3	328,986
739,7	326,386
740,2	321,929
740,6	325,329
741,1	326,643
741,5	318,786
741,9	321,1
742,4	324,671
742,8	324,357
743,2	322,871
743,7	315,843
744,1	310,643
744,5	309,157
745	304,929
745,4	295,3
745,8	292,357
746,3	288,1
746,7	280,414
747,2	281,414
747,6	282,7
748	286,671
748,5	294,443
748,9	289,843
749,3	287,443
749,8	295,3
750,2	296,1
750,6	291,871
751,1	287,786
751,5	277,843
751,9	282,014
752,4	284,271
752,8	281,157
753,3	277,471
753,7	283,9
754,1	277,043
754,6	275,329
755	272,729
755,4	269,329
755,9	266,643
756,3	263,071
756,7	254,414
757,2	253,986
757,6	256,5
758	254,7
758,5	250,7
758,9	250,214
759,3	249,843
759,8	249,786
760,2	249,329
760,6	241,729
761,1	236,9
761,5	232,329
761,9	228,757
762,4	226,557
762,8	226,243
763,3	224,786
763,7	228,014
764,1	228,443
764,6	231,929
765	231,586
765,4	230,214
765,9	227,7
766,3	227,1
766,7	223,386
767,2	221,3
767,6	218,1
768	217,9
768,5	215,243
768,9	216,386
769,3	213,014
769,8	214,071
770,2	216,871
770,6	217,586
771,1	219,043
771,5	217,357
771,9	214,386
772,4	213,986
772,8	206,471
773,2	202,071
773,7	200,957
774,1	196,243
774,5	190,9
775	191,214
775,4	191,014
775,8	193,814
776,3	195,671
776,7	192,586
777,1	191,014
777,6	195,786
778	194,214
778,4	191,014
778,9	193,214
779,3	187,843
779,7	190,614
780,2	189,871
780,6	184,5
781	182,043
781,5	182,643
781,9	180,071
782,3	176,814
782,8	173,357
783,2	168,986
783,6	174,3
784,1	173,557
784,5	170,071
784,9	168,9
785,4	170,5
785,8	168,871
786,2	170,671
786,7	166,5
787,1	167,529
787,5	166,329
788	164,271
788,4	165,1
788,8	165,014
789,3	162,786
789,7	160,186
790,1	153,443
790,6	156,357
791	155,1
791,4	154,214
791,9	151,529
792,3	148,186
792,7	152,243
793,2	149,071
793,6	145,7
794	142,557
794,5	134,929
794,9	134,557
795,3	137,929
795,8	134,214
796,2	139,871
796,6	138,7
797,1	139,071
797,5	139,729
797,9	137,157
798,4	130,243
798,8	126,557
799,2	120,9
799,7	123,986
800,1	121,586
800,5	124,014
801	125,9
801,4	127,986
801,8	128,986
802,2	129,529
802,7	122,443
803,1	123,414
803,5	121,586
804	119,414
804,4	120,3
804,8	121,986
805,3	124,957
805,7	129,843
806,1	128,586
806,6	129,871
807	126,786
807,4	123,957
807,9	115,986
808,3	112,957
808,7	110,871
809,2	114,529
809,6	113,843
810	114,157
810,4	114,671
810,9	118,871
811,3	121,671
811,7	118,957
812,2	117,843
812,6	112,729
813	116,014
813,5	120,471
813,9	116,329
814,3	111,471
814,8	112,786
815,2	109,786
815,6	108,929
816,1	104,443
816,5	100,586
816,9	103,5
817,3	103,186
817,8	107,814
818,2	105,9
818,6	106,129
819,1	102,471
819,5	99,386
819,9	98,1
820,4	96,757
820,8	86,986
821,2	84,414
821,7	84,757
822,1	91,586
822,5	96,014
822,9	93,271
823,4	90,986
823,8	94,043
824,2	94,986
824,7	93,843
825,1	85,186
825,5	76,071
826	70,643
826,4	71,129
826,8	64,329
827,3	66,071
827,7	61,471
828,1	66,643
828,5	69,1
829	69,671
829,4	69,814
829,8	67,643
830,3	66,7
830,7	65,586
831,1	66,843
831,6	64,614
832	67,443
832,4	68,129
832,8	79,843
833,3	76,843
833,7	79,214
834,1	74,1
834,6	74,643
835	78,7
835,4	76,786
835,8	65,7
836,3	65,357
836,7	67,157
837,1	67,671
837,6	69,729
838	66,643
838,4	64,129
838,9	68,1
839,3	66,186
839,7	65,357
840,1	58,757
840,6	54,729
841	54,614
841,4	54,186
841,9	53,471
842,3	51,929
842,7	50,386
843,1	54,871
843,6	58,157
844	58,186
844,4	62,243
844,9	61,529
845,3	65,529
845,7	64,643
846,2	63,357
846,6	60,1
847	57,671
847,4	58,871
847,9	61,414
848,3	58,129
848,7	57,414
849,2	59,443
849,6	55,529
850	65,471
850,4	59,986
850,9	58,614
851,3	57,243
851,7	58,843
852,2	56,471
852,6	65,5
853	54,186
853,4	53,757
853,9	48,271
854,3	49,671
854,7	47,7
855,2	45,986
855,6	40,214
856	40,586
856,4	35,129
856,9	35,329
857,3	37,9
857,7	39,643
858,2	46,071
858,6	46,357
859	47,271
859,4	48,729
859,9	48,586
860,3	44,729
860,7	45,443
861,1	41,414
861,6	38,786
862	38,9
862,4	40,586
862,9	40,471
863,3	39,386
863,7	36,957
864,1	38,929
864,6	38,614
865	33,9
865,4	39,357
865,9	45,586
866,3	41,671
866,7	44,329
867,1	38,214
867,6	40,1
868	42,1
868,4	37,386
868,8	35,957
869,3	44,157
869,7	45,557
870,1	43,814
870,6	40,671
871	-12,7
871,4	-8,557
871,8	-16,1
872,3	-20,586
872,7	-26,329
873,1	-23,671
873,5	-20,443
874	29,957
874,4	29,129
874,8	29,557
875,3	30,643
875,7	27,671
876,1	29,3
876,5	28,214
877	30,557
877,4	24,329
877,8	26,643
878,2	25,586
878,7	29,529
879,1	28,414
879,5	32,157
879,9	34,014
880,4	38,671
880,8	38,129
881,2	39,214
881,7	37,386
882,1	35,357
882,5	29,557
882,9	28,7
883,4	27,243
883,8	26,043
884,2	22,157
884,6	21,5
885,1	23,986
885,5	23,843
885,9	19,929
886,3	18,729
886,8	17,986
887,2	21,357
887,6	23,9
888	19,129
888,5	15,557
888,9	17,186
889,3	12,5
889,8	16,586
890,2	13,043
890,6	9,9
891	13,757
891,5	18,043
891,9	18,557
892,3	21,586
892,7	20,243
893,2	24,186
893,6	22,243
894	23,014
894,4	19,014
894,9	17,757
895,3	20,043
895,7	17,129
896,1	14,071
896,6	15,957
897	15,9
897,4	22,671
897,8	30,443
898,3	26,614
898,7	26,614
899,1	27,071
899,5	26,271
900	20,071
900,4	17,386
900,8	12,043
901,2	12,786
901,7	13,1
902,1	17,843
902,5	21,586
902,9	21,671
903,4	21,014
903,8	19,614
904,2	21,757
904,6	24,786
905,1	20,357
905,5	18,129
905,9	22,7
906,3	24,843
906,8	26,1
907,2	25,414
907,6	24,557
908	25,443
908,5	23,586
908,9	18,814
909,3	16,729
909,7	14,586
910,2	15,129
910,6	15,871
911	14,043
911,4	16,786
911,9	16,786
912,3	12,7
912,7	17,157
913,1	19,986
913,6	15,243
914	13,043
914,4	6,357
914,8	9,814
915,3	10,529
915,7	4,557
916,1	-0,157
916,5	-1,243
916,9	0,5
917,4	3,5
917,8	2,129
918,2	1,129
918,6	-4,214
919,1	-1,386
919,5	3,871
919,9	6,643
920,3	5,671
920,8	7,214
921,2	11,129
921,6	18,586
922	16,043
922,5	13,329
922,9	10,671
923,3	9,214
923,7	9,214
924,2	4,443
924,6	1,7
925	1,729
925,4	2,243
925,8	0,814
926,3	3,129
926,7	0,329
927,1	1,7
927,5	4,957
928	3,386
928,4	2,214
928,8	4,586
929,2	2,071
929,7	5,643
930,1	10,3
930,5	8,243
930,9	9,214
931,3	9,414
931,8	12,014
932,2	14,986
932,6	13,557
933	3,957
933,5	4,9
933,9	5,671
934,3	9,9
934,7	1,929
935,2	4,043
935,6	2,986
936	9,386
936,4	9,129
936,8	7,843
937,3	2,529
937,7	10,214
938,1	10,271
938,5	8,271
939	10,557
939,4	9,986
939,8	14,843
940,2	13,557
940,6	12,986
941,1	12,843
941,5	20,014
941,9	14,929
942,3	14,386
942,8	10,414
943,2	11,671
943,6	9,129
944	9,643
944,4	6,614
944,9	5,1
945,3	4,3
945,7	4,1
946,1	4,414
946,6	4,643
947	2,043
947,4	4,757
947,8	10,271
948,2	7,614
948,7	8,557
949,1	9,043
949,5	11,357
949,9	14,586
950,3	12,614
950,8	9,529
951,2	12,014
951,6	8,871
952	9,414
952,5	3,929
952,9	4,243
953,3	1,243
953,7	4,329
954,1	8,014
954,6	10,7
955	9,786
955,4	11,7
955,8	11,871
956,2	13,471
956,7	10,643
957,1	5,271
957,5	5,671
957,9	7,9
958,3	3,986
958,8	1,414
959,2	4,786
959,6	5,357
960	7,443
960,5	6,871
960,9	7,129
961,3	8,986
961,7	4,443
962,1	0,9
962,6	2,871
963	-0,557
963,4	-2,871
963,8	-4,157
964,2	-0,7
964,7	5,643
965,1	7,1
965,5	4,471
965,9	6,957
966,3	6,414
966,8	7,871
967,2	5,814
967,6	1,414
968	-4,9
968,4	-5,043
968,9	-2,814
969,3	1,843
969,7	-2,471
970,1	1,5
970,5	1,643
971	5,757
971,4	9,014
971,8	11,1
972,2	7,014
972,6	8,643
973,1	4,214
973,5	7,471
973,9	10,643
974,3	7,986
974,7	5,7
975,2	10,471
975,6	10,3
976	11,071
976,4	9,471
976,8	5,814
977,3	4,471
977,7	2,957
978,1	1,3
978,5	-2,157
978,9	-0,843
979,4	-4,414
979,8	-1,986
980,2	1,7
980,6	0,643
981	-1,614
981,5	0,814
981,9	1,643
982,3	5,1
982,7	2,729
983,1	1,757
983,6	1,243
984	3,129
984,4	3,357
984,8	1,7
985,2	1,9
985,6	-2,786
986,1	-6,071
986,5	-1,271
986,9	-9,386
987,3	-7,843
987,7	-8,443
988,2	-8,671
988,6	-6,614
989	-7,9
989,4	-11,1
989,8	-0,814
990,3	-0,843
990,7	-1,7
991,1	-2,557
991,5	3,271
991,9	5,814
992,3	6,186
992,8	4,157
993,2	1,671
993,6	5,186
994	7,671
994,4	1,529
994,9	1,557
995,3	2,7
995,7	-1,043
996,1	0,186
996,5	-1,271
996,9	-4,471
997,4	2,357
997,8	1,243
998,2	0,071
998,6	-0,586
999	-1,7
999,5	-1,243
999,9	-4,129
1000,3	-9,471
1000,7	-6,014
1001,1	-5,757
1001,5	-1,986
1002	1,957
1002,4	0,157
1002,8	2,443
1003,2	7,7
1003,6	9,843
1004	8,871
1004,5	4,014
1004,9	6,843
1005,3	1,357
1005,7	5,529
1006,1	3,043
1006,6	-0,357
1007	3,757
1007,4	7,129
1007,8	0,157
1008,2	1,7
1008,6	0,271
1009,1	-6,271
1009,5	-8,186
1009,9	-10,271
1010,3	-11,3
1010,7	-10,357
1011,1	-6,357
1011,6	-6,871
1012	4,014
1012,4	3,443
1012,8	0,043
1013,2	3,214
1013,6	0,071
1014,1	2,414
1014,5	1,957
1014,9	-2,957
1015,3	-1,129
1015,7	-1,271
1016,1	-3,9
1016,6	2,043
1017	1,814
1017,4	2,186
1017,8	4,871
1018,2	3,614
1018,6	-0,043
1019,1	0,014
1019,5	-3,643
1019,9	-8,586
1020,3	-7,243
1020,7	-7,929
1021,1	-6,671
1021,6	-4,957
1022	0,814
1022,4	2,529
1022,8	7,071
1023,2	6,3
1023,6	2,043
1024,1	5,157
1024,5	11,271
1024,9	4,3
1025,3	6,814
1025,7	5,186
1026,1	4,871
1026,6	8,157
1027	7,014
1027,4	5,443
1027,8	3,186
1028,2	-1,871
1028,6	0,329
1029	-1,443
1029,5	-0,957
1029,9	-4,957
1030,3	-6,957
1030,7	0,014
1031,1	3,214
1031,5	-0,186
1032	-3,471
1032,4	-3,614
1032,8	-0,614
1033,2	0,129
1033,6	-4,1
1034	-2,186
1034,4	-5,671
1034,9	1,614
1035,3	-5,786
1035,7	-5,329
1036,1	-5,214
1036,5	-3,814
1036,9	-2,043
1037,4	4,7
1037,8	-2,3
1038,2	4,614
1038,6	5,071
1039	6,729
1039,4	13,157
1039,8	5,129
1040,3	4,586
1040,7	6,3
1041,1	9,043
1041,5	7,414
1041,9	3,157
1042,3	-4,586
1042,7	1,071
1043,2	0,9
1043,6	2,414
1044	-3,557
1044,4	-3,7
1044,8	-0,214
1045,2	-0,814
1045,6	-0,014
1046,1	-1,243
1046,5	-1,586
1046,9	-0,614
1047,3	0,871
1047,7	0,357
1048,1	0,357
1048,5	-5,986
1049	-1,7
1049,4	3,471
1049,8	5,271
1050,2	5,671
1050,6	6,929
1051	13,671
1051,4	15,957
1051,9	12,557
1052,3	13,386
1052,7	13,386
1053,1	9,871
1053,5	10,1
1053,9	6,557
1054,3	9,129
1054,8	11,957
1055,2	10,9
1055,6	11,1
1056	14,157
1056,4	11,386
1056,8	10,071
1057,2	9,757
1057,6	3,386
1058,1	-0,643
1058,5	-2,329
1058,9	-4,071
1059,3	4,586
1059,7	2,5
1060,1	5,671
1060,5	8,471
1061	15,3
1061,4	13,986
1061,8	14,7
1062,2	9,7
1062,6	13,471
1063	9,329
1063,4	8,3
1063,8	1,986
1064,3	-0,386
1064,7	0,529
1065,1	-0,529
1065,5	-0,7
1065,9	-2,871
1066,3	-5,386
1066,7	-6,271
1067,1	-3,329
1067,6	-2,271
1068	-7,1
1068,4	-8,443
1068,8	-2,9
1069,2	-0,243
1069,6	-0,014
1070	1,929
1070,4	-3,357
1070,9	-2,3
1071,3	-3,3
1071,7	-9,014
1072,1	-7,043
1072,5	-5,957
1072,9	-9,014
1073,3	-3,786
1073,7	-2,814
1074,2	0,614
1074,6	3,643
1075	0,986
1075,4	-1,386
1075,8	4,5
1076,2	2,471
1076,6	4,414
1077	1,186
1077,5	3,271
1077,9	3,443
1078,3	4,186
1078,7	-1,757
1079,1	-3,1
1079,5	-1,957
1079,9	1,786
1080,3	1,329
1080,7	3,929
1081,2	7,443
1081,6	8,9
1082	11,671
1082,4	12,129
1082,8	7,929
1083,2	6,157
1083,6	7,186
1084	6,586
1084,5	12,729
1084,9	9,929
1085,3	5,614
1085,7	9,814
1086,1	11,7
1086,5	7,243
1086,9	6,9
1087,3	3,386
1087,7	2,214
1088,2	4,671
1088,6	0,186
1089	0,043
1089,4	0,986
1089,8	0,329
1090,2	-2,871
1090,6	-2,271
1091	-1,643
1091,4	2,043
1091,9	-0,386
1092,3	-0,557
1092,7	-1,414
1093,1	2,5
1093,5	4,729
1093,9	3,157
1094,3	3,843
1094,7	2,529
1095,1	0,471
1095,5	-0,214
1096	-5,557
1096,4	-3,186
1096,8	-4,014
1097,2	-5,471
1097,6	-0,329
1098	4,471
1098,4	6,043
1098,8	10,129
1099,2	15,586
1099,6	16,214
1100,1	13,271
1100,5	8,3
1100,9	7,871
1101,3	6,214
1101,7	5,1
1102,1	-0,357
1102,5	0,329
1102,9	4,014
1103,3	9,043
1103,7	9,329
1104,2	10,529
1104,6	12,014
1105	9,357
1105,4	11,014
1105,8	8,1
1106,2	4,643
1106,6	3,157
1107	2,5
1107,4	0,667
1107,8	1,7
1108,3	-0,6
