Data from Subt2_313.txt Node
Date: Sat Aug 26 19:15:43 MSK 2023
User: vat
Spectrometer: MAYP114033
Trigger mode: 0
Integration Time (sec): 1,000000E0
Scans to average: 5
Electric dark correction enabled: true
Nonlinearity correction enabled: false
Boxcar width: 3
XAxis mode: Wavelengths
Number of Pixels in Spectrum: 2068
>>>>>Begin Spectral Data<<<<<
199,4	0,283
199,9	2,453
200,4	2
200,8	3,333
201,3	2,876
201,8	2,448
202,2	-0,238
202,7	3,133
203,2	1,505
203,6	1,276
204,1	-2,324
204,6	-2,981
205	-0,124
205,5	2,848
206	-0,124
206,4	2,79
206,9	6,019
207,4	10,105
207,8	11,133
208,3	12,133
208,8	12,162
209,2	17,39
209,7	18,276
210,2	19,19
210,6	20,133
211,1	23,105
211,5	19,248
212	20,019
212,5	14,476
212,9	11,905
213,4	7,19
213,9	5,19
214,3	4,848
214,8	7,876
215,3	9,019
215,7	11,219
216,2	14,105
216,7	19,162
217,1	23,476
217,6	24,619
218,1	24,219
218,5	22,133
219	19,676
219,5	20,105
219,9	18,876
220,4	19,448
220,9	16,505
221,3	18,733
221,8	18,248
222,3	20,448
222,7	19,019
223,2	19,448
223,6	12,876
224,1	11,419
224,6	11,505
225	7,848
225,5	5,876
226	6,333
226,4	7,505
226,9	11,905
227,4	14,79
227,8	7,619
228,3	9,819
228,8	9,99
229,2	10,219
229,7	6,362
230,2	2,39
230,6	5,533
231,1	13,905
231,5	19,676
232	22,19
232,5	20,19
232,9	20,133
233,4	24,019
233,9	18,219
234,3	14,562
234,8	13,648
235,3	7,476
235,7	9,533
236,2	12,39
236,7	9,676
237,1	15,762
237,6	11,876
238,1	10,848
238,5	10,276
239	11,448
239,4	11,248
239,9	11,505
240,4	7,448
240,8	12,162
241,3	9,105
241,8	15,562
242,2	11,305
242,7	7,476
243,2	8,076
243,6	5,819
244,1	8,99
244,6	11,048
245	10,133
245,5	10,076
245,9	10,162
246,4	10,676
246,9	15,133
247,3	12,676
247,8	13,733
248,3	13,562
248,7	11,333
249,2	14,619
249,7	10,162
250,1	13,505
250,6	9,333
251	9,419
251,5	10,39
252	13,876
252,4	15,562
252,9	17,562
253,4	12,619
253,8	17,105
254,3	19,476
254,8	23,019
255,2	23,733
255,7	20,39
256,1	22,905
256,6	23,905
257,1	23,905
257,5	19,448
258	9,705
258,5	8,505
258,9	8,619
259,4	6,562
259,9	5,905
260,3	0,648
260,8	1,733
261,2	6,476
261,7	9,219
262,2	6,39
262,6	9,876
263,1	11,533
263,6	14,99
264	19,248
264,5	25,305
264,9	21,733
265,4	24,819
265,9	21,248
266,3	21,505
266,8	22,162
267,3	16,59
267,7	10,305
268,2	13,762
268,7	13,505
269,1	16,933
269,6	13,762
270	17,533
270,5	17,848
271	18,048
271,4	18,962
271,9	15,019
272,4	12,819
272,8	14,248
273,3	7,019
273,7	11,905
274,2	16,076
274,7	10,048
275,1	17,19
275,6	20,933
276,1	19,905
276,5	24,276
277	24,448
277,4	22,333
277,9	27,419
278,4	23,39
278,8	20,248
279,3	21,362
279,8	21,476
280,2	19,876
280,7	23,676
281,1	20,419
281,6	19,133
282,1	22,476
282,5	21,705
283	18,105
283,4	16,448
283,9	15,848
284,4	21,076
284,8	22,933
285,3	18,048
285,8	19,276
286,2	18,333
286,7	18,733
287,1	12,305
287,6	8,619
288,1	6,39
288,5	11,276
289	9,648
289,5	11,476
289,9	10,333
290,4	13,533
290,8	13,219
291,3	14,562
291,8	8,876
292,2	9,219
292,7	14,105
293,1	13,505
293,6	16,819
294,1	19,305
294,5	20,019
295	23,905
295,5	21,276
295,9	20,276
296,4	17,219
296,8	13,533
297,3	8,333
297,8	5,248
298,2	3,219
298,7	6,562
299,1	4,59
299,6	5,876
300,1	4,762
300,5	8,219
301	13,533
301,5	20,448
301,9	20,133
302,4	15,505
302,8	15,648
303,3	13,533
303,8	9,076
304,2	5,533
304,7	-2,381
305,1	-6,067
305,6	-4,067
306,1	3,905
306,5	4,876
307	9,762
307,4	12,762
307,9	13,419
308,4	13,59
308,8	11,905
309,3	3,333
309,8	1,79
310,2	3,248
310,7	-4,695
311,1	-1,924
311,6	0,505
312,1	5,733
312,5	9,505
313	15,562
313,4	12,219
313,9	22,933
314,4	18,533
314,8	14,133
315,3	11,076
315,7	4,476
316,2	-1,781
316,7	-3,124
317,1	-2,952
317,6	2,133
318	12,562
318,5	12,648
319	18,562
319,4	24,676
319,9	30,105
320,3	27,533
320,8	24,505
321,3	20,505
321,7	19,305
322,2	15,819
322,6	18,419
323,1	16,248
323,6	14,248
324	14,905
324,5	12,876
324,9	13,533
325,4	17,533
325,9	17,362
326,3	19,39
326,8	23,876
327,2	19,762
327,7	20,648
328,2	20,105
328,6	21,219
329,1	12,99
329,5	12,562
330	8,076
330,5	12,848
330,9	14,39
331,4	15,676
331,8	13,362
332,3	18,419
332,8	19,876
333,2	20,076
333,7	18,962
334,1	18,848
334,6	21,505
335,1	15,905
335,5	17,448
336	10,048
336,4	11,762
336,9	18,562
337,4	21,705
337,8	20,133
338,3	26,019
338,7	25,076
339,2	25,133
339,7	27,219
340,1	17,962
340,6	16,362
341	12,933
341,5	13,505
342	11,248
342,4	13,733
342,9	14,162
343,3	16,19
343,8	9,048
344,2	12,219
344,7	12,648
345,2	13,533
345,6	15,79
346,1	13,105
346,5	11,619
347	14,505
347,5	15,59
347,9	16,962
348,4	14,876
348,8	14,019
349,3	12,276
349,8	15,762
350,2	24,362
350,7	21,905
351,1	21,619
351,6	29,162
352	34,962
352,5	44,19
353	50,762
353,4	53,59
353,9	66,705
354,3	76,333
354,8	82,019
355,3	94,048
355,7	108,448
356,2	127,619
356,6	146,333
357,1	169,99
357,5	202,333
358	240,733
358,5	279,076
358,9	325,39
359,4	376,333
359,8	435,105
360,3	502,019
360,8	564,39
361,2	645,448
361,7	735,705
362,1	830,133
362,6	933,248
363	1041,819
363,5	1155,448
364	1292,219
364,4	1418,362
364,9	1546,762
365,3	1673,39
365,8	1791,676
366,3	1903,59
366,7	2001,933
367,2	2088,276
367,6	2157,848
368,1	2211,79
368,5	2243,79
369	2265,248
369,5	2271,076
369,9	2257,59
370,4	2217,248
370,8	2171,048
371,3	2106,219
371,7	2030,962
372,2	1942,305
372,7	1847,762
373,1	1750,476
373,6	1651,79
374	1546,99
374,5	1444,476
374,9	1348,619
375,4	1250,162
375,9	1156,99
376,3	1071,876
376,8	986,219
377,2	904,219
377,7	832,648
378,2	759,676
378,6	700,39
379,1	644,505
379,5	594,562
380	549,848
380,4	508,39
380,9	467,476
381,4	436,019
381,8	402,076
382,3	371,362
382,7	342,819
383,2	319,99
383,6	300,99
384,1	279,219
384,6	263,333
385	247,162
385,5	231,333
385,9	212,305
386,4	195,476
386,8	184,019
387,3	173,419
387,7	161,019
388,2	155,305
388,7	146,305
389,1	141,819
389,6	134,905
390	126,362
390,5	122,819
390,9	114,362
391,4	105,019
391,9	99,905
392,3	91,962
392,8	85,848
393,2	78,448
393,7	72,876
394,1	68,133
394,6	64,505
395,1	58,105
395,5	56,019
396	53,905
396,4	55,99
396,9	52,505
397,3	53,162
397,8	54,019
398,2	56,819
398,7	56,076
399,2	57,562
399,6	56,333
400,1	57,79
400,5	52,99
401	53,248
401,4	48,248
401,9	48,476
402,4	47,19
402,8	42,648
403,3	42,076
403,7	41,99
404,2	40,99
404,6	46,905
405,1	47,362
405,5	46,648
406	49,333
406,5	48,562
406,9	53,762
407,4	49,905
407,8	49,333
408,3	49,733
408,7	52,419
409,2	55,362
409,6	53,419
410,1	53,79
410,6	62,819
411	61,79
411,5	57,962
411,9	59,019
412,4	59,876
412,8	65,448
413,3	67,248
413,7	60,733
414,2	61,305
414,7	73,162
415,1	78,105
415,6	82,276
416	83,59
416,5	83,562
416,9	90,048
417,4	94,476
417,8	95,105
418,3	92,705
418,8	89,705
419,2	91,59
419,7	93,733
420,1	93,876
420,6	99,676
421	94,705
421,5	97,848
421,9	99,076
422,4	98,133
422,8	100,533
423,3	101,59
423,8	97,105
424,2	94,505
424,7	94,819
425,1	98,705
425,6	100,705
426	99,762
426,5	102,219
426,9	106,619
427,4	109,162
427,9	100,533
428,3	103,162
428,8	101,733
429,2	97,276
429,7	94,276
430,1	87,476
430,6	90,705
431	96,305
431,5	96,276
431,9	94,876
432,4	98,99
432,8	101,019
433,3	103,362
433,8	101,219
434,2	108,076
434,7	106,076
435,1	111,676
435,6	112,676
436	113,676
436,5	120,419
436,9	123,248
437,4	120,962
437,8	123,219
438,3	125,962
438,8	130,648
439,2	133,876
439,7	137,962
440,1	144,333
440,6	147,619
441	147,248
441,5	152,733
441,9	162,79
442,4	165,562
442,8	169,676
443,3	178,019
443,7	186,733
444,2	202,19
444,7	208,648
445,1	212,99
445,6	225,219
446	231,933
446,5	231,133
446,9	233,848
447,4	237,905
447,8	246,333
448,3	255,248
448,7	263,305
449,2	275,619
449,6	294,533
450,1	307,505
450,6	325,619
451	338,762
451,5	351,848
451,9	367,648
452,4	383,105
452,8	391,648
453,3	413,219
453,7	421,448
454,2	435,762
454,6	446,705
455,1	457,533
455,5	466,505
456	487,019
456,4	496,476
456,9	514,362
457,3	527,79
457,8	541,562
458,3	558,476
458,7	575,819
459,2	588,562
459,6	604,362
460,1	621,562
460,5	639,99
461	667,533
461,4	690,876
461,9	710,562
462,3	731,59
462,8	754,219
463,2	772,648
463,7	794,676
464,1	812,676
464,6	835,448
465	859,048
465,5	884,362
466	909,276
466,4	933,305
466,9	962,248
467,3	989,333
467,8	1010,933
468,2	1032,533
468,7	1051,59
469,1	1077,476
469,6	1101,676
470	1121,79
470,5	1142,676
470,9	1164,333
471,4	1185,476
471,8	1215,819
472,3	1243,362
472,7	1267,019
473,2	1284,476
473,6	1308,162
474,1	1337,276
474,5	1368,533
475	1387,733
475,4	1407,99
475,9	1432,39
476,4	1467,648
476,8	1495,676
477,3	1515,619
477,7	1540,048
478,2	1567,305
478,6	1584,79
479,1	1604,362
479,5	1620,905
480	1639,619
480,4	1665,162
480,9	1685,133
481,3	1703,19
481,8	1726,276
482,2	1740,219
482,7	1759,533
483,1	1776,219
483,6	1789,476
484	1805,219
484,5	1824,79
484,9	1837,39
485,4	1861,448
485,8	1875,305
486,3	1890,219
486,7	1901,819
487,2	1914,762
487,6	1927,848
488,1	1942,048
488,5	1950,105
489	1964,333
489,4	1977,79
489,9	1989,619
490,4	2000,219
490,8	2007,162
491,3	2022,19
491,7	2030,276
492,2	2045,39
492,6	2055,105
493,1	2068,619
493,5	2075,99
494	2077,676
494,4	2079,105
494,9	2090,848
495,3	2091,019
495,8	2096,59
496,2	2101,905
496,7	2100,79
497,1	2112,162
497,6	2122,619
498	2129,333
498,5	2134,762
498,9	2135,962
499,4	2139,733
499,8	2157,733
500,3	2165,333
500,7	2167,476
501,2	2166,848
501,6	2161,733
502,1	2167,533
502,5	2170,533
503	2164,705
503,4	2161,505
503,9	2157,848
504,3	2155,162
504,8	2162,533
505,2	2158,476
505,7	2156,648
506,1	2161,476
506,6	2156,39
507	2154,133
507,5	2158,248
507,9	2158,419
508,4	2161,162
508,8	2160,048
509,3	2151,305
509,7	2156,476
510,2	2163,105
510,6	2159,676
511,1	2156,105
511,5	2151,048
512	2148,019
512,4	2150,248
512,9	2147,333
513,3	2148,933
513,8	2147,619
514,2	2148,448
514,7	2148,276
515,1	2144,648
515,6	2139,933
516	2134,819
516,5	2133,276
516,9	2137,39
517,4	2133,99
517,8	2137,819
518,3	2136,362
518,7	2139,79
519,2	2139,933
519,6	2129,905
520,1	2126,619
520,5	2125,648
521	2117,562
521,4	2119,19
521,9	2120,448
522,3	2124,876
522,8	2125,533
523,2	2122,762
523,7	2122,819
524,1	2125,99
524,6	2125,219
525	2122,448
525,5	2120,819
525,9	2121,762
526,4	2117,076
526,8	2119,79
527,3	2123,076
527,7	2127,533
528,2	2129,905
528,6	2125,162
529,1	2130,648
529,5	2139,333
530	2138,219
530,4	2137,276
530,9	2139,99
531,3	2139,019
531,8	2150,476
532,2	2154,333
532,6	2158,562
533,1	2162,333
533,5	2164,59
534	2162,333
534,4	2170,19
534,9	2166,848
535,3	2162,848
535,8	2157,019
536,2	2158,648
536,7	2159,533
537,1	2158,962
537,6	2155,962
538	2158,905
538,5	2163,79
538,9	2165,476
539,4	2166,733
539,8	2170,562
540,3	2175,733
540,7	2172,333
541,2	2173,419
541,6	2175,105
542,1	2182,505
542,5	2185,362
543	2181,362
543,4	2180,705
543,9	2190,905
544,3	2199,876
544,8	2199,533
545,2	2200,705
545,7	2201,762
546,1	2209,276
546,5	2218,933
547	2220,248
547,4	2216,905
547,9	2218,476
548,3	2224,819
548,8	2232,762
549,2	2230,619
549,7	2232,533
550,1	2233,676
550,6	2241,59
551	2249,219
551,5	2249,705
551,9	2243,962
552,4	2252,333
552,8	2250,362
553,3	2254,39
553,7	2251,333
554,2	2251,79
554,6	2257,276
555,1	2268,105
555,5	2271,705
555,9	2279,705
556,4	2277,819
556,8	2282,962
557,3	2284,962
557,7	2288,99
558,2	2291,133
558,6	2294,733
559,1	2289,79
559,5	2294,99
560	2293,648
560,4	2297,562
560,9	2292,848
561,3	2291,59
561,8	2288,648
562,2	2296,819
562,7	2301,59
563,1	2307,762
563,6	2305,876
564	2309,305
564,4	2308,476
564,9	2315,048
565,3	2313,019
565,8	2310,99
566,2	2308,305
566,7	2317,448
567,1	2318,19
567,6	2321,333
568	2322,876
568,5	2327,39
568,9	2331,505
569,4	2334,362
569,8	2333,762
570,3	2336,905
570,7	2335,162
571,1	2330,39
571,6	2329,305
572	2332,619
572,5	2335,819
572,9	2329,619
573,4	2324,448
573,8	2331,848
574,3	2331,505
574,7	2333,333
575,2	2321,648
575,6	2318,048
576,1	2316,076
576,5	2321,905
576,9	2311,905
577,4	2315,305
577,8	2305,819
578,3	2312,448
578,7	2309,876
579,2	2311,648
579,6	2307,19
580,1	2303,648
580,5	2301,733
581	2308,162
581,4	2299,39
581,9	2299,59
582,3	2295,133
582,7	2297,619
583,2	2297,419
583,6	2293,562
584,1	2288,133
584,5	2284,99
585	2280,99
585,4	2275,019
585,9	2266,962
586,3	2266,476
586,8	2263,19
587,2	2256,99
587,6	2257,448
588,1	2258,333
588,5	2260,562
589	2258,905
589,4	2251,819
589,9	2245,819
590,3	2243,59
590,8	2241,505
591,2	2236,419
591,7	2233,448
592,1	2224,99
592,5	2223,762
593	2221,448
593,4	2216,048
593,9	2209,19
594,3	2204,133
594,8	2196,419
595,2	2193,59
595,7	2190,905
596,1	2182,876
596,6	2182,362
597	2183,105
597,4	2179,99
597,9	2175,333
598,3	2178,533
598,8	2172,59
599,2	2173,333
599,7	2169,819
600,1	2165,019
600,6	2162,333
601	2164,933
601,4	2163,362
601,9	2163,019
602,3	2157,19
602,8	2150,248
603,2	2142,162
603,7	2134,99
604,1	2127,619
604,6	2118,362
605	2108,762
605,4	2104,819
605,9	2098,448
606,3	2090,533
606,8	2081,79
607,2	2073,333
607,7	2060,476
608,1	2054,876
608,6	2048,648
609	2049,705
609,4	2048,676
609,9	2045,476
610,3	2037,99
610,8	2036,019
611,2	2029,362
611,7	2020,848
612,1	2009,79
612,6	2001,019
613	1991,533
613,4	1986,39
613,9	1975,305
614,3	1968,305
614,8	1962,362
615,2	1950,648
615,7	1947,648
616,1	1942,962
616,6	1937,419
617	1935,162
617,4	1934,476
617,9	1925,933
618,3	1925,962
618,8	1922,248
619,2	1913,533
619,7	1908,962
620,1	1901,533
620,5	1889,533
621	1879,048
621,4	1864,019
621,9	1849,162
622,3	1841,419
622,8	1832,733
623,2	1821,79
623,6	1813,105
624,1	1811,848
624,5	1808,39
625	1803,419
625,4	1798,219
625,9	1791,933
626,3	1785,79
626,8	1781,219
627,2	1773,219
627,6	1760,733
628,1	1747,448
628,5	1742,162
629	1730,648
629,4	1727,876
629,9	1719,276
630,3	1706,019
630,7	1699,219
631,2	1699,219
631,6	1689,219
632,1	1680,362
632,5	1668,848
633	1660,819
633,4	1657,419
633,8	1653,676
634,3	1643,733
634,7	1634,448
635,2	1626,448
635,6	1619,419
636,1	1610,59
636,5	1598,99
636,9	1586,19
637,4	1577,276
637,8	1565,048
638,3	1553,219
638,7	1541,105
639,2	1532,133
639,6	1525,448
640	1519,733
640,5	1510,733
640,9	1508,219
641,4	1508,162
641,8	1503,905
642,2	1498,59
642,7	1497,305
643,1	1495,99
643,6	1490,533
644	1488,562
644,5	1480,819
644,9	1475,162
645,3	1470,048
645,8	1458,076
646,2	1449,905
646,7	1443,79
647,1	1426,505
647,6	1418,105
648	1409,476
648,4	1396,962
648,9	1391,962
649,3	1379,59
649,8	1376,705
650,2	1377,19
650,6	1370,733
651,1	1362,305
651,5	1365,19
652	1357,105
652,4	1352,362
652,9	1338,048
653,3	1329,019
653,7	1321,019
654,2	1314,676
654,6	1299,105
655,1	1294,39
655,5	1291,448
655,9	1283,248
656,4	1275,048
656,8	1267,419
657,3	1266,59
657,7	1264,876
658,2	1256,419
658,6	1244,819
659	1241,59
659,5	1231,933
659,9	1228,962
660,4	1217,619
660,8	1207,933
661,2	1203,962
661,7	1201,448
662,1	1193,648
662,6	1188,676
663	1180,562
663,4	1171,419
663,9	1166,362
664,3	1159,705
664,8	1146,419
665,2	1139,39
665,6	1133,819
666,1	1128,448
666,5	1119,962
667	1107,562
667,4	1098,305
667,9	1091,819
668,3	1083,59
668,7	1077,048
669,2	1072,362
669,6	1068,533
670,1	1063,476
670,5	1052,762
670,9	1051,19
671,4	1044,39
671,8	1036,876
672,3	1029,076
672,7	1025,162
673,1	1017,733
673,6	1014,219
674	1008,733
674,5	1005,505
674,9	997,019
675,3	986,105
675,8	978,333
676,2	972,59
676,7	964,676
677,1	955,476
677,5	946,048
678	942,79
678,4	944,99
678,9	937,848
679,3	932,248
679,7	927,733
680,2	921,105
680,6	915,619
681,1	910,533
681,5	899,676
681,9	896,962
682,4	896,105
682,8	896,905
683,3	897,562
683,7	899,162
684,1	893,762
684,6	885,133
685	878,533
685,5	866,962
685,9	853,619
686,3	836,876
686,8	828,505
687,2	823,476
687,7	819,876
688,1	808,676
688,5	805,248
689	802,619
689,4	800,59
689,9	794,533
690,3	785,905
690,7	786,076
691,2	790,219
691,6	789,562
692	785,133
692,5	785,076
692,9	778,333
693,4	775,476
693,8	768,933
694,2	758,276
694,7	752,076
695,1	746,705
695,6	745,019
696	744,99
696,4	739,876
696,9	728,705
697,3	722,562
697,8	717,048
698,2	711,505
698,6	706,505
699,1	698,162
699,5	695,819
699,9	689,848
700,4	684,848
700,8	679,39
701,3	676,819
701,7	665,59
702,1	657,876
702,6	650,79
703	652,562
703,5	651,333
703,9	646,676
704,3	645,705
704,8	647,59
705,2	649,762
705,6	648,019
706,1	641,476
706,5	638,933
707	633,505
707,4	628,99
707,8	621,076
708,3	616,076
708,7	615,305
709,2	613,305
709,6	609,676
710	614,219
710,5	610,19
710,9	614,19
711,3	611,419
711,8	606,505
712,2	604,19
712,7	599,905
713,1	592,105
713,5	587,133
714	580,39
714,4	573,533
714,8	563,333
715,3	556,133
715,7	554,562
716,2	551,276
716,6	549,533
717	538,048
717,5	535,876
717,9	538,39
718,3	534,533
718,8	526,505
719,2	518,019
719,7	515,048
720,1	518,476
720,5	517,99
721	513,305
721,4	511,99
721,8	512,99
722,3	510,648
722,7	508,619
723,2	499,562
723,6	488,962
724	482,705
724,5	475,076
724,9	468,59
725,3	467,533
725,8	458,762
726,2	458,819
726,7	457,219
727,1	458,619
727,5	458,562
728	456,59
728,4	451,305
728,8	446,505
729,3	437,819
729,7	434,533
730,1	424,676
730,6	423,333
731	417,448
731,5	416,276
731,9	414,476
732,3	419,676
732,8	420,19
733,2	419,562
733,6	415,333
734,1	415,162
734,5	414,533
734,9	416,362
735,4	413,905
735,8	405,99
736,3	407,105
736,7	407,333
737,1	403,705
737,6	401,333
738	399,419
738,4	395,305
738,9	397,99
739,3	395,219
739,7	397,362
740,2	394,419
740,6	393,848
741,1	390,533
741,5	384,448
741,9	380,562
742,4	382,276
742,8	374,819
743,2	376,419
743,7	367,333
744,1	361,79
744,5	364,419
745	358,933
745,4	351,419
745,8	351,248
746,3	343,619
746,7	346,333
747,2	344,676
747,6	344,448
748	348,848
748,5	354,248
748,9	348,219
749,3	345,676
749,8	343,562
750,2	343,933
750,6	338,648
751,1	337,076
751,5	330,076
751,9	331,59
752,4	333,533
752,8	331,19
753,3	328,79
753,7	330,819
754,1	324,305
754,6	317,705
755	311,876
755,4	310,248
755,9	310,162
756,3	307,276
756,7	299,962
757,2	304,733
757,6	305,619
758	305,648
758,5	304,305
758,9	301,133
759,3	299,248
759,8	299,448
760,2	293,819
760,6	290,962
761,1	285,59
761,5	282,419
761,9	277,448
762,4	276,905
762,8	270,562
763,3	267,99
763,7	269,505
764,1	272,219
764,6	273,59
765	277,219
765,4	275,248
765,9	279,848
766,3	282,105
766,7	280,019
767,2	276,676
767,6	274,648
768	268,962
768,5	266,133
768,9	263,305
769,3	255,448
769,8	251,362
770,2	254,476
770,6	251,848
771,1	253,848
771,5	252,562
771,9	251,39
772,4	255,762
772,8	254,762
773,2	249,962
773,7	246,048
774,1	242,762
774,5	233,219
775	230,505
775,4	224,619
775,8	223,933
776,3	224,762
776,7	223,99
777,1	226,448
777,6	235,448
778	232,79
778,4	232,533
778,9	230,79
779,3	224,448
779,7	226,048
780,2	221,79
780,6	214,133
781	212,733
781,5	211,333
781,9	213,476
782,3	212,333
782,8	209,59
783,2	208,019
783,6	211,533
784,1	210,419
784,5	207,105
784,9	201,819
785,4	206,705
785,8	207,276
786,2	207,99
786,7	207,133
787,1	207,362
787,5	208,733
788	209,076
788,4	202,562
788,8	198,876
789,3	191,19
789,7	189,419
790,1	187,962
790,6	186,59
791	183,305
791,4	185,048
791,9	182,648
792,3	182,076
792,7	185,448
793,2	181,848
793,6	181,048
794	182,305
794,5	179,905
794,9	181,448
795,3	181,448
795,8	175,733
796,2	177,476
796,6	176,476
797,1	172,876
797,5	170,419
797,9	166,705
798,4	164,419
798,8	163,219
799,2	160,876
799,7	162,248
800,1	160,99
800,5	160,619
801	162,962
801,4	163,99
801,8	162,448
802,2	160,105
802,7	152,933
803,1	154,476
803,5	153,448
804	147,133
804,4	147,848
804,8	146,962
805,3	147,19
805,7	150,048
806,1	145,648
806,6	147,819
807	151,733
807,4	149,619
807,9	143,848
808,3	143,705
808,7	140,19
809,2	141,905
809,6	140,59
810	137,505
810,4	135,733
810,9	139,533
811,3	138,933
811,7	140,762
812,2	146,933
812,6	140,933
813	144,762
813,5	145,762
813,9	142,019
814,3	139,762
814,8	136,676
815,2	126,676
815,6	127,848
816,1	124,362
816,5	122,276
816,9	123,79
817,3	121,619
817,8	128,133
818,2	131,076
818,6	129,448
819,1	126,819
819,5	123,848
819,9	124,019
820,4	127,362
820,8	122,333
821,2	113,676
821,7	112,819
822,1	114,276
822,5	123,533
822,9	119,99
823,4	117,505
823,8	117,705
824,2	126,019
824,7	126,133
825,1	119,019
825,5	107,876
826	108,105
826,4	104,162
826,8	99,219
827,3	96,99
827,7	95,733
828,1	99,076
828,5	98,705
829	91,733
829,4	89,248
829,8	88,733
830,3	87,076
830,7	83,848
831,1	85,533
831,6	86,19
832	91,619
832,4	92,762
832,8	91,876
833,3	90,848
833,7	86,99
834,1	85,99
834,6	83,733
835	82,962
835,4	84,905
835,8	82,762
836,3	78,39
836,7	83,219
837,1	78,676
837,6	83,933
838	82,19
838,4	77,933
838,9	78,619
839,3	79,219
839,7	79,448
840,1	77,333
840,6	71,305
841	74,705
841,4	76,419
841,9	76,562
842,3	78,705
842,7	79,733
843,1	83,19
843,6	88,333
844	84,162
844,4	88,733
844,9	90,333
845,3	87,105
845,7	83,248
846,2	79,305
846,6	73,305
847	72,99
847,4	72,248
847,9	69,962
848,3	67,819
848,7	67,39
849,2	70,762
849,6	69,819
850	74,333
850,4	71,276
850,9	69,962
851,3	73,133
851,7	72,648
852,2	66,676
852,6	69,019
853	64,562
853,4	60,79
853,9	57,648
854,3	58,99
854,7	61,476
855,2	65,59
855,6	64,39
856	62,105
856,4	62,59
856,9	61,476
857,3	59,619
857,7	62,362
858,2	63,076
858,6	61,562
859	63,219
859,4	62,39
859,9	64,476
860,3	62,505
860,7	58,562
861,1	59,362
861,6	59,333
862	58,219
862,4	58,733
862,9	60,219
863,3	62,419
863,7	60,419
864,1	56,476
864,6	58,362
865	55,39
865,4	56,248
865,9	55,933
866,3	45,162
866,7	40,962
867,1	39,248
867,6	35,99
868	39,219
868,4	38,562
868,8	38,933
869,3	46,848
869,7	53,619
870,1	53,648
870,6	55,562
871	41,619
871,4	46,048
871,8	43,476
872,3	45,076
872,7	42,048
873,1	41,305
873,5	35,39
874	44,019
874,4	40,476
874,8	38,39
875,3	38,219
875,7	36,762
876,1	37,876
876,5	43,448
877	45,019
877,4	40,905
877,8	48,99
878,2	52,276
878,7	54,933
879,1	56,048
879,5	56,162
879,9	59,648
880,4	60,362
880,8	55,076
881,2	50,676
881,7	47,99
882,1	46,419
882,5	41,79
882,9	39,933
883,4	38,305
883,8	38,105
884,2	38,076
884,6	37,048
885,1	37,905
885,5	41,248
885,9	41,276
886,3	45,105
886,8	43,876
887,2	38,505
887,6	35,619
888	35,962
888,5	34,219
888,9	28,848
889,3	22,105
889,8	22,048
890,2	26,933
890,6	29,562
891	30,876
891,5	31,619
891,9	37,505
892,3	44,133
892,7	45,676
893,2	41,619
893,6	44,648
894	43,39
894,4	40,533
894,9	39,362
895,3	33,933
895,7	36,476
896,1	38,619
896,6	37,076
897	36,733
897,4	41,105
897,8	42,076
898,3	46,476
898,7	43,048
899,1	47,79
899,5	44,59
900	37,505
900,4	34,219
900,8	29,733
901,2	23,476
901,7	22,333
902,1	13,162
902,5	16,305
902,9	19,419
903,4	21,562
903,8	23,133
904,2	25,048
904,6	22,133
905,1	31,248
905,5	29,819
905,9	33,048
906,3	34,276
906,8	36,848
907,2	40,19
907,6	40,59
908	38,333
908,5	37,676
908,9	36,619
909,3	35,333
909,7	34,876
910,2	31,076
910,6	34,819
911	28,705
911,4	30,362
911,9	29,305
912,3	26,79
912,7	28,162
913,1	33,333
913,6	29,162
914	30,933
914,4	26,19
914,8	28,419
915,3	25,276
915,7	19,79
916,1	16,476
916,5	17,276
916,9	18,905
917,4	23,048
917,8	23,305
918,2	23,19
918,6	23,762
919,1	24,819
919,5	31,362
919,9	28,305
920,3	29,276
920,8	27,276
921,2	30,419
921,6	30,162
922	29,476
922,5	22,562
922,9	22,533
923,3	15,762
923,7	15,79
924,2	13,333
924,6	11,305
925	11,733
925,4	10,019
925,8	13,105
926,3	19,19
926,7	16,99
927,1	20,533
927,5	23,562
928	22,305
928,4	22,105
928,8	23,305
929,2	18,362
929,7	20,59
930,1	19,619
930,5	18,333
930,9	17,505
931,3	23,305
931,8	21,819
932,2	24,419
932,6	20,448
933	12,219
933,5	16,305
933,9	18,105
934,3	15,39
934,7	14,933
935,2	16,248
935,6	17,905
936	27,819
936,4	26,99
936,8	28,162
937,3	27,105
937,7	27,676
938,1	30,105
938,5	27,848
939	25,476
939,4	24,705
939,8	23,19
940,2	24,019
940,6	21,933
941,1	18,219
941,5	24,248
941,9	18,562
942,3	19,276
942,8	20,533
943,2	18,705
943,6	17,333
944	16,705
944,4	11,019
944,9	14,99
945,3	12,848
945,7	7,362
946,1	11,305
946,6	10,448
947	10,219
947,4	11,905
947,8	9,762
948,2	8,762
948,7	14,048
949,1	11,305
949,5	19,19
949,9	20,048
950,3	21,276
950,8	23,79
951,2	25,19
951,6	19,533
952	22,962
952,5	11,476
952,9	10,59
953,3	10,133
953,7	8,876
954,1	7,333
954,6	13,333
955	9,562
955,4	11,448
955,8	16,219
956,2	16,933
956,7	15,048
957,1	15,733
957,5	11,933
957,9	13,276
958,3	19,162
958,8	19,362
959,2	20,248
959,6	25,705
960	27,276
960,5	32,39
960,9	30,905
961,3	26,019
961,7	22,905
962,1	22,39
962,6	21,162
963	19,419
963,4	13,305
963,8	11,99
964,2	11,619
964,7	10,305
965,1	9,848
965,5	11,933
965,9	9,105
966,3	12,39
966,8	12,562
967,2	14,705
967,6	15,362
968	12,076
968,4	9,248
968,9	12,476
969,3	13,562
969,7	12,305
970,1	12,048
970,5	8,362
971	12,705
971,4	14,305
971,8	15,448
972,2	16,362
972,6	15,333
973,1	14,048
973,5	17,933
973,9	20,419
974,3	17,333
974,7	18,905
975,2	18,962
975,6	21,648
976	25,133
976,4	21,048
976,8	17,476
977,3	18,076
977,7	14,076
978,1	10,076
978,5	8,19
978,9	3,705
979,4	4,819
979,8	5,133
980,2	7,276
980,6	4,619
981	5,99
981,5	9,99
981,9	13,333
982,3	12,19
982,7	13,762
983,1	8,162
983,6	8,362
984	6,076
984,4	6,248
984,8	6,762
985,2	8,19
985,6	3,505
986,1	8,276
986,5	11,219
986,9	10,133
987,3	10,048
987,7	6,648
988,2	7,99
988,6	9,933
989	8,219
989,4	11,99
989,8	13,048
990,3	10,876
990,7	11,762
991,1	10,962
991,5	10,39
991,9	12,105
992,3	8,848
992,8	12,048
993,2	10,676
993,6	15,105
994	20,762
994,4	24,533
994,9	22,305
995,3	20,305
995,7	18,305
996,1	21,905
996,5	17,676
996,9	6,819
997,4	4,305
997,8	4,876
998,2	6,533
998,6	1,105
999	-1,267
999,5	-2,238
999,9	6,59
1000,3	6,562
1000,7	5,733
1001,1	4,048
1001,5	10,933
1002	13,276
1002,4	19,448
1002,8	17,59
1003,2	18,533
1003,6	22,133
1004	26,076
1004,5	23,676
1004,9	22,019
1005,3	17,219
1005,7	18,076
1006,1	12,705
1006,6	9,276
1007	9,505
1007,4	7,848
1007,8	7,162
1008,2	2,819
1008,6	2,905
1009,1	6,448
1009,5	6,219
1009,9	7,933
1010,3	14,305
1010,7	15,505
1011,1	18,762
1011,6	17,076
1012	20,876
1012,4	15,448
1012,8	10,562
1013,2	9,219
1013,6	10,048
1014,1	11,619
1014,5	12,762
1014,9	8,276
1015,3	15,619
1015,7	16,562
1016,1	13,905
1016,6	12,876
1017	14,419
1017,4	13,248
1017,8	14,133
1018,2	16,962
1018,6	12,962
1019,1	15,162
1019,5	19,505
1019,9	18,733
1020,3	19,305
1020,7	20,676
1021,1	17,876
1021,6	22,076
1022	25,476
1022,4	19,105
1022,8	18,276
1023,2	15,705
1023,6	14,305
1024,1	19,819
1024,5	25,019
1024,9	19,248
1025,3	22,362
1025,7	23,733
1026,1	29,219
1026,6	27,676
1027	19,39
1027,4	17,876
1027,8	18,848
1028,2	10,648
1028,6	13,076
1029	7,676
1029,5	14,819
1029,9	18,048
1030,3	14,333
1030,7	15,933
1031,1	27,705
1031,5	21,762
1032	23,933
1032,4	20,162
1032,8	21,076
1033,2	21,219
1033,6	16,048
1034	12,676
1034,4	14,876
1034,9	17,048
1035,3	12,305
1035,7	13,59
1036,1	10,162
1036,5	10,79
1036,9	10,476
1037,4	14,705
1037,8	11,905
1038,2	14,133
1038,6	12,019
1039	17,619
1039,4	22,162
1039,8	17,305
1040,3	16,133
1040,7	16,048
1041,1	17,676
1041,5	19,476
1041,9	18,676
1042,3	18,676
1042,7	21,762
1043,2	20,562
1043,6	18,19
1044	20,362
1044,4	15,248
1044,8	15,362
1045,2	12,133
1045,6	11,619
1046,1	13,819
1046,5	12,762
1046,9	7,705
1047,3	13,448
1047,7	11,476
1048,1	9,676
1048,5	10,505
1049	12,962
1049,4	22,476
1049,8	25,048
1050,2	23,676
1050,6	28,448
1051	33,39
1051,4	33,79
1051,9	24,99
1052,3	27,505
1052,7	28,133
1053,1	23,19
1053,5	24,705
1053,9	25,219
1054,3	22,905
1054,8	31,733
1055,2	24,533
1055,6	25,962
1056	29,276
1056,4	21,105
1056,8	17,219
1057,2	19,248
1057,6	10,79
1058,1	12,79
1058,5	5,648
1058,9	3,676
1059,3	7,476
1059,7	9,648
1060,1	9,933
1060,5	13,705
1061	12,362
1061,4	13,419
1061,8	20,276
1062,2	19,076
1062,6	19,905
1063	22,076
1063,4	22,79
1063,8	20,019
1064,3	21,962
1064,7	17,962
1065,1	19,305
1065,5	15,962
1065,9	16,762
1066,3	12,848
1066,7	12,305
1067,1	9,219
1067,6	8,848
1068	6,962
1068,4	11,59
1068,8	10,505
1069,2	11,419
1069,6	14,448
1070	19,076
1070,4	20,133
1070,9	16,676
1071,3	11,39
1071,7	7,476
1072,1	12,448
1072,5	7,419
1072,9	6,876
1073,3	3,39
1073,7	4,305
1074,2	6,505
1074,6	10,219
1075	7,476
1075,4	12,362
1075,8	14,39
1076,2	19,39
1076,6	19,819
1077	19,619
1077,5	23,19
1077,9	19,562
1078,3	14,533
1078,7	12,333
1079,1	8,733
1079,5	14,733
1079,9	13,676
1080,3	8,676
1080,7	8,705
1081,2	16,419
1081,6	16,79
1082	13,076
1082,4	13,562
1082,8	13,39
1083,2	14,505
1083,6	20,19
1084	11,848
1084,5	14,762
1084,9	15,448
1085,3	4,876
1085,7	7,505
1086,1	4,305
1086,5	7,505
1086,9	11,905
1087,3	6,048
1087,7	6,39
1088,2	12,533
1088,6	13,133
1089	14,848
1089,4	4,962
1089,8	5,39
1090,2	8,219
1090,6	8,305
1091	11,276
1091,4	10,133
1091,9	6,905
1092,3	11,962
1092,7	9,762
1093,1	12,248
1093,5	15,219
1093,9	13,276
1094,3	16,99
1094,7	19,276
1095,1	17,762
1095,5	19,305
1096	17,648
1096,4	19,848
1096,8	18,79
1097,2	15,962
1097,6	19,819
1098	19,133
1098,4	21,133
1098,8	19,733
1099,2	20,819
1099,6	17,933
1100,1	14,848
1100,5	9,162
1100,9	10,39
1101,3	12,19
1101,7	12,762
1102,1	8,219
1102,5	11,133
1102,9	13,276
1103,3	16,762
1103,7	19,705
1104,2	15,305
1104,6	14,733
1105	13,419
1105,4	13,162
1105,8	10,705
1106,2	8,076
1106,6	2,676
1107	1,619
1107,4	0,667
1107,8	1,933
1108,3	-0,467
