Data from Subt2_085.txt Node
Date: Sat Aug 26 16:40:29 MSK 2023
User: vat
Spectrometer: MAYP114033
Trigger mode: 0
Integration Time (sec): 1,000000E0
Scans to average: 5
Electric dark correction enabled: true
Nonlinearity correction enabled: false
Boxcar width: 3
XAxis mode: Wavelengths
Number of Pixels in Spectrum: 2068
>>>>>Begin Spectral Data<<<<<
199,4	-0,567
199,9	3,393
200,4	-0
200,8	-0,881
201,3	-1,024
201,8	-1,31
202,2	-1,795
202,7	1,433
203,2	-2,081
203,6	3,205
204,1	7,005
204,6	10,376
205	13,205
205,5	12,719
206	14,576
206,4	19,205
206,9	15,148
207,4	16,519
207,8	14,319
208,3	13,748
208,8	12,633
209,2	9,462
209,7	8,748
210,2	11,405
210,6	8,376
211,1	9,776
211,5	8,519
212	6,948
212,5	4,776
212,9	2,176
213,4	5,176
213,9	5,576
214,3	5,405
214,8	5,49
215,3	8,89
215,7	8,605
216,2	10,69
216,7	6,262
217,1	4,69
217,6	4,748
218,1	6,49
218,5	8,605
219	13,948
219,5	12,09
219,9	13,719
220,4	15,262
220,9	11,576
221,3	9,49
221,8	4,633
222,3	4,033
222,7	2,205
223,2	3,633
223,6	-0,424
224,1	0,405
224,6	1,976
225	2,376
225,5	6,576
226	6,89
226,4	8,119
226,9	12,176
227,4	18,376
227,8	21,29
228,3	27,89
228,8	20,633
229,2	23,348
229,7	18,319
230,2	18,69
230,6	13,776
231,1	13,119
231,5	15,319
232	19,805
232,5	19,548
232,9	24,033
233,4	23,748
233,9	25,205
234,3	21,09
234,8	17,376
235,3	12,976
235,7	16,262
236,2	12,262
236,7	12,462
237,1	7,948
237,6	6,319
238,1	7,319
238,5	10,005
239	8,719
239,4	10,633
239,9	12,405
240,4	15,005
240,8	18,462
241,3	13,719
241,8	13,148
242,2	10,005
242,7	11,119
243,2	10,09
243,6	11,519
244,1	7,976
244,6	10,433
245	8,605
245,5	8,348
245,9	9,862
246,4	8,148
246,9	10,148
247,3	12,576
247,8	12,89
248,3	16,348
248,7	21,919
249,2	14,976
249,7	15,605
250,1	14,433
250,6	16,319
251	18,29
251,5	12,119
252	8,69
252,4	13,719
252,9	11,462
253,4	12,776
253,8	11,605
254,3	10,948
254,8	14,719
255,2	11,062
255,7	11,233
256,1	13,633
256,6	15,033
257,1	13,576
257,5	13,833
258	14,69
258,5	17,69
258,9	19,405
259,4	24,405
259,9	22,233
260,3	20,719
260,8	21,976
261,2	25,29
261,7	25,519
262,2	21,576
262,6	15,119
263,1	11,862
263,6	15,633
264	15,605
264,5	12,633
264,9	12,433
265,4	16,519
265,9	20,205
266,3	20,033
266,8	18,033
267,3	15,862
267,7	12,605
268,2	13,376
268,7	10,376
269,1	5,176
269,6	11,033
270	14,405
270,5	12,29
271	10,919
271,4	7,948
271,9	8,433
272,4	12,033
272,8	4,29
273,3	-1,367
273,7	2,633
274,2	5,49
274,7	8,148
275,1	5,348
275,6	8,862
276,1	13,033
276,5	22,033
277	20,233
277,4	20,919
277,9	17,205
278,4	20,348
278,8	21,29
279,3	18,948
279,8	15,89
280,2	13,976
280,7	13,948
281,1	19,433
281,6	17,29
282,1	15,062
282,5	20,233
283	17,633
283,4	22,605
283,9	19,662
284,4	18,548
284,8	19,233
285,3	14,662
285,8	9,033
286,2	6,348
286,7	1,119
287,1	1,462
287,6	5,976
288,1	5,89
288,5	11,833
289	13,862
289,5	16,319
289,9	18,262
290,4	19,176
290,8	20,348
291,3	23,605
291,8	19,09
292,2	23,948
292,7	27,69
293,1	30,862
293,6	33,948
294,1	25,633
294,5	25,833
295	28,919
295,5	24,119
295,9	23,548
296,4	20,576
296,8	15,148
297,3	16,805
297,8	12,519
298,2	5,976
298,7	6,319
299,1	3,548
299,6	5,005
300,1	8,462
300,5	12,033
301	16,776
301,5	22,662
301,9	19,805
302,4	20,09
302,8	17,919
303,3	16,948
303,8	11,062
304,2	6,633
304,7	6,976
305,1	8,919
305,6	5,176
306,1	2,233
306,5	2,405
307	2,89
307,4	3,719
307,9	-0,11
308,4	-2,31
308,8	5,205
309,3	7,519
309,8	10,176
310,2	8,062
310,7	12,833
311,1	11,319
311,6	16,148
312,1	17,262
312,5	18,948
313	17,319
313,4	17,605
313,9	18,176
314,4	19,262
314,8	22,833
315,3	16,548
315,7	16,548
316,2	11,948
316,7	16,49
317,1	15,033
317,6	15,948
318	11,29
318,5	16,976
319	16,548
319,4	23,919
319,9	23,376
320,3	25,262
320,8	26,119
321,3	25,719
321,7	21,119
322,2	21,748
322,6	16,062
323,1	17,776
323,6	11,662
324	11,919
324,5	10,89
324,9	15,176
325,4	13,376
325,9	21,833
326,3	23,805
326,8	25,89
327,2	24,005
327,7	24,776
328,2	19,548
328,6	22,49
329,1	14,833
329,5	11,662
330	9,09
330,5	11,462
330,9	15,405
331,4	13,948
331,8	14,348
332,3	16,976
332,8	12,976
333,2	14,348
333,7	12,405
334,1	7,176
334,6	8,348
335,1	10,376
335,5	10,348
336	8,576
336,4	7,062
336,9	11,605
337,4	15,205
337,8	17,433
338,3	13,49
338,7	14,319
339,2	21,662
339,7	21,833
340,1	19,433
340,6	18,033
341	21,062
341,5	23,719
342	23,405
342,4	20,405
342,9	19,69
343,3	22,89
343,8	26,062
344,2	25,348
344,7	22,805
345,2	20,205
345,6	23,49
346,1	27,548
346,5	24,662
347	22,462
347,5	22,376
347,9	21,948
348,4	24,805
348,8	23,919
349,3	25,319
349,8	27,948
350,2	31,29
350,7	34,519
351,1	36,976
351,6	44,633
352	59,405
352,5	70,919
353	86,633
353,4	100,776
353,9	120,948
354,3	149,262
354,8	172,633
355,3	202,176
355,7	238,605
356,2	278,948
356,6	328,776
357,1	382,719
357,5	452,633
358	535,262
358,5	621,09
358,9	727,148
359,4	849,976
359,8	979,09
360,3	1136,805
360,8	1301,605
361,2	1491,776
361,7	1699,29
362,1	1931,833
362,6	2183,405
363	2462,405
363,5	2756,062
364	3062,09
364,4	3374,605
364,9	3698,376
365,3	4005,662
365,8	4313,605
366,3	4598,348
366,7	4852,748
367,2	5084,976
367,6	5282,576
368,1	5440,776
368,5	5554,148
369	5618,405
369,5	5640,519
369,9	5615,205
370,4	5543,119
370,8	5426,49
371,3	5267,548
371,7	5082,233
372,2	4870,405
372,7	4634,348
373,1	4390,376
373,6	4134,348
374	3871,805
374,5	3620,205
374,9	3368,033
375,4	3121,09
375,9	2892,948
376,3	2668,176
376,8	2459,605
377,2	2267,49
377,7	2075,29
378,2	1903,233
378,6	1739,176
379,1	1586,748
379,5	1452,89
380	1328,776
380,4	1213,09
380,9	1114,405
381,4	1022,148
381,8	937,462
382,3	861,462
382,7	789,348
383,2	727,29
383,6	675,633
384,1	630,29
384,6	583,605
385	549,233
385,5	515,376
385,9	481,776
386,4	449,605
386,8	421,548
387,3	387,376
387,7	366,919
388,2	341,605
388,7	311,89
389,1	290,576
389,6	268,576
390	248,176
390,5	231,433
390,9	218,719
391,4	202,062
391,9	192,319
392,3	173,89
392,8	165,176
393,2	152,09
393,7	145,748
394,1	133,69
394,6	123,005
395,1	122,262
395,5	122,519
396	116,633
396,4	111,805
396,9	105,719
397,3	96,033
397,8	90,805
398,2	81,49
398,7	73,033
399,2	65,033
399,6	63,89
400,1	53,69
400,5	55,662
401	58,748
401,4	58,576
401,9	60,69
402,4	66,148
402,8	63,89
403,3	69,776
403,7	65,748
404,2	63,005
404,6	59,919
405,1	59,262
405,5	51,119
406	46,833
406,5	42,633
406,9	41,548
407,4	42,748
407,8	43,69
408,3	40,719
408,7	48,405
409,2	49,776
409,6	53,976
410,1	59,205
410,6	55,805
411	59,89
411,5	61,49
411,9	60,376
412,4	66,233
412,8	65,548
413,3	63,119
413,7	66,176
414,2	70,433
414,7	78,405
415,1	78,776
415,6	84,09
416	88,69
416,5	92,462
416,9	93,062
417,4	88,719
417,8	86,748
418,3	93,119
418,8	86,119
419,2	88,548
419,7	92,948
420,1	96,233
420,6	97,148
421	99,862
421,5	97,433
421,9	101,805
422,4	102,148
422,8	101,548
423,3	107,062
423,8	112,005
424,2	113,748
424,7	112,833
425,1	115,548
425,6	118,462
426	117,605
426,5	112,376
426,9	112,719
427,4	112,976
427,9	112,119
428,3	113,805
428,8	113,062
429,2	113,062
429,7	114,519
430,1	117,519
430,6	115,719
431	120,319
431,5	120,976
431,9	122,719
432,4	127,605
432,8	132,062
433,3	129,462
433,8	138,376
434,2	137,319
434,7	136,519
435,1	139,205
435,6	148,376
436	152,89
436,5	163,433
436,9	167,09
437,4	182,319
437,8	188,119
438,3	195,919
438,8	194,119
439,2	202,462
439,7	206,89
440,1	214,176
440,6	221,719
441	232,833
441,5	243,519
441,9	257,662
442,4	273,89
442,8	286,205
443,3	295,348
443,7	299,805
444,2	312,548
444,7	324,233
445,1	333,948
445,6	342,862
446	354,948
446,5	370,005
446,9	389,262
447,4	406,805
447,8	421,233
448,3	444,405
448,7	460,49
449,2	475,805
449,6	492,062
450,1	516,148
450,6	535,948
451	553,748
451,5	570,719
451,9	590,319
452,4	617,09
452,8	644,719
453,3	664,29
453,7	685,719
454,2	708,09
454,6	728,319
455,1	749,776
455,5	769,748
456	793,119
456,4	815,633
456,9	842,948
457,3	876,433
457,8	906,976
458,3	940,462
458,7	974,262
459,2	1000,519
459,6	1033,919
460,1	1066,119
460,5	1098,633
461	1131,662
461,4	1163,519
461,9	1195,89
462,3	1233,09
462,8	1265,433
463,2	1298,462
463,7	1328,433
464,1	1363,433
464,6	1400,548
465	1437,09
465,5	1474,09
466	1513,262
466,4	1549,576
466,9	1588,89
467,3	1627,662
467,8	1669,062
468,2	1707,348
468,7	1746,376
469,1	1782,29
469,6	1825,09
470	1867,919
470,5	1910,205
470,9	1947,662
471,4	1990,519
471,8	2024,548
472,3	2061,748
472,7	2100,633
473,2	2133,776
473,6	2167,033
474,1	2199,205
474,5	2233,519
475	2281,49
475,4	2321,09
475,9	2363,49
476,4	2397,062
476,8	2435,062
477,3	2477,119
477,7	2514,976
478,2	2546,005
478,6	2577,805
479,1	2609,462
479,5	2658,69
480	2701,605
480,4	2735,948
480,9	2778,119
481,3	2812,09
481,8	2855,376
482,2	2887,09
482,7	2915,062
483,1	2942,89
483,6	2974,633
484	2996,005
484,5	3030,119
484,9	3059,862
485,4	3090,948
485,8	3116,033
486,3	3144,976
486,7	3171,519
487,2	3203,776
487,6	3225,462
488,1	3248,919
488,5	3274,176
489	3304,262
489,4	3327,376
489,9	3347,319
490,4	3366,919
490,8	3390,662
491,3	3413,462
491,7	3430,548
492,2	3451,576
492,6	3467,69
493,1	3487,033
493,5	3502,062
494	3519,89
494,4	3529,576
494,9	3546,29
495,3	3558,69
495,8	3577,062
496,2	3597,433
496,7	3608,405
497,1	3620,262
497,6	3633,148
498	3643,805
498,5	3654,376
498,9	3665,805
499,4	3674,376
499,8	3686,548
500,3	3694,633
500,7	3709,405
501,2	3727,005
501,6	3738,662
502,1	3750,348
502,5	3758,29
503	3772,976
503,4	3788,005
503,9	3805,633
504,3	3807,919
504,8	3814,862
505,2	3817,776
505,7	3832,376
506,1	3843,262
506,6	3852,405
507	3849,862
507,5	3856,748
507,9	3865,09
508,4	3877,033
508,8	3882,29
509,3	3879,919
509,7	3879,376
510,2	3893,433
510,6	3905,805
511,1	3914,205
511,5	3918,948
512	3921,062
512,4	3930,119
512,9	3941,005
513,3	3945,605
513,8	3946,605
514,2	3953,29
514,7	3957,49
515,1	3964,005
515,6	3971,919
516	3977,005
516,5	3981,89
516,9	3985,033
517,4	3990,49
517,8	3991,176
518,3	3992,776
518,7	3993,719
519,2	3997,205
519,6	3998,262
520,1	4004,576
520,5	4005,176
521	4011,662
521,4	4021,405
521,9	4030,148
522,3	4034,548
522,8	4043,09
523,2	4045,776
523,7	4051,919
524,1	4058,205
524,6	4054,148
525	4060,862
525,5	4067,89
525,9	4072,548
526,4	4078,976
526,8	4081,662
527,3	4091,748
527,7	4108,948
528,2	4105,376
528,6	4117,662
529,1	4118,633
529,5	4121,89
530	4133,833
530,4	4138,119
530,9	4140,633
531,3	4151,719
531,8	4154,948
532,2	4166,69
532,6	4181,519
533,1	4185,29
533,5	4194,662
534	4200,062
534,4	4211,005
534,9	4220,862
535,3	4226,262
535,8	4232,576
536,2	4238,633
536,7	4243,662
537,1	4256,662
537,6	4264,262
538	4267,49
538,5	4274,433
538,9	4279,976
539,4	4290,433
539,8	4295,519
540,3	4293,69
540,7	4300,719
541,2	4307,49
541,6	4317,319
542,1	4334,862
542,5	4338,862
543	4347,205
543,4	4366,148
543,9	4371,09
544,3	4375,119
544,8	4384,29
545,2	4382,662
545,7	4401,176
546,1	4418,205
546,5	4423,005
547	4437,433
547,4	4451,376
547,9	4465,005
548,3	4480,062
548,8	4483,405
549,2	4484,348
549,7	4493,89
550,1	4501,69
550,6	4506,005
551	4509,319
551,5	4511,719
551,9	4519,719
552,4	4525,49
552,8	4530,633
553,3	4536,919
553,7	4544,748
554,2	4555,919
554,6	4558,719
555,1	4568,319
555,5	4582,49
555,9	4596,348
556,4	4603,176
556,8	4608,462
557,3	4611,805
557,7	4623,69
558,2	4621,633
558,6	4632,176
559,1	4627,29
559,5	4633,148
560	4645,033
560,4	4647,29
560,9	4658,233
561,3	4672,89
561,8	4672,662
562,2	4680,605
562,7	4694,776
563,1	4698,919
563,6	4703,49
564	4708,776
564,4	4714,262
564,9	4716,062
565,3	4722,862
565,8	4716,29
566,2	4716,405
566,7	4721,69
567,1	4722,062
567,6	4721,89
568	4727,319
568,5	4733,033
568,9	4735,148
569,4	4736,976
569,8	4740,719
570,3	4745,519
570,7	4743,233
571,1	4742,833
571,6	4740,148
572	4744,519
572,5	4750,119
572,9	4750,548
573,4	4744,005
573,8	4746,119
574,3	4751,49
574,7	4754,862
575,2	4745,662
575,6	4749,148
576,1	4745,662
576,5	4744,319
576,9	4744,862
577,4	4742,433
577,8	4742,776
578,3	4744,462
578,7	4733,633
579,2	4732,948
579,6	4732,948
580,1	4729,062
580,5	4722,09
581	4713,319
581,4	4717,605
581,9	4714,09
582,3	4704,89
582,7	4697,462
583,2	4682,919
583,6	4671,862
584,1	4668,148
584,5	4653,748
585	4650,776
585,4	4642,205
585,9	4644,348
586,3	4636,062
586,8	4629,062
587,2	4618,148
587,6	4610,748
588,1	4603,833
588,5	4600,233
589	4581,062
589,4	4583,005
589,9	4581,033
590,3	4569,205
590,8	4564,862
591,2	4554,919
591,7	4552,662
592,1	4549,09
592,5	4536,862
593	4527,205
593,4	4525,119
593,9	4510,29
594,3	4499,062
594,8	4485,605
595,2	4476,033
595,7	4474,062
596,1	4466,805
596,6	4459,033
597	4455,205
597,4	4452,005
597,9	4439,148
598,3	4436,148
598,8	4425,519
599,2	4420,49
599,7	4409,919
600,1	4400,119
600,6	4392,519
601	4384,348
601,4	4373,348
601,9	4358,576
602,3	4345,662
602,8	4336,776
603,2	4322,548
603,7	4305,233
604,1	4301,976
604,6	4287,576
605	4275,319
605,4	4258,662
605,9	4245,176
606,3	4236,005
606,8	4223,433
607,2	4204,862
607,7	4194,576
608,1	4187,748
608,6	4178,29
609	4174,748
609,4	4165,462
609,9	4158,176
610,3	4145,348
610,8	4133,519
611,2	4115,662
611,7	4102,319
612,1	4075,662
612,6	4054,69
613	4044,176
613,4	4028,348
613,9	4014,576
614,3	4004,833
614,8	3986,662
615,2	3977,462
615,7	3972,319
616,1	3948,69
616,6	3934,148
617	3918,833
617,4	3902,776
617,9	3894,433
618,3	3878,69
618,8	3861,348
619,2	3848,776
619,7	3837,948
620,1	3816,69
620,5	3802,776
621	3782,69
621,4	3763,005
621,9	3744,605
622,3	3727,405
622,8	3704,176
623,2	3686,119
623,6	3658,176
624,1	3646,405
624,5	3636,89
625	3617,662
625,4	3604,719
625,9	3588,719
626,3	3574,062
626,8	3560,662
627,2	3541,748
627,6	3521,605
628,1	3502,776
628,5	3481,119
629	3470,862
629,4	3456,062
629,9	3444,69
630,3	3423,148
630,7	3402,833
631,2	3392,433
631,6	3380,948
632,1	3363,005
632,5	3346,976
633	3325,519
633,4	3311,319
633,8	3293,919
634,3	3276,033
634,7	3262,09
635,2	3245,948
635,6	3222,319
636,1	3212,633
636,5	3191,176
636,9	3174,319
637,4	3159,862
637,8	3136,748
638,3	3115,576
638,7	3110,005
639,2	3094,119
639,6	3080,262
640	3066,576
640,5	3052,69
640,9	3036,119
641,4	3020,233
641,8	2997,576
642,2	2979,348
642,7	2969,062
643,1	2956,919
643,6	2938,005
644	2928,233
644,5	2917,862
644,9	2905,376
645,3	2892,433
645,8	2877,49
646,2	2862,148
646,7	2845,519
647,1	2829,748
647,6	2810,69
648	2789,605
648,4	2776,919
648,9	2760,433
649,3	2745,519
649,8	2731,89
650,2	2714,348
650,6	2700,833
651,1	2695,319
651,5	2678,776
652	2667,205
652,4	2651,89
652,9	2637,805
653,3	2620,148
653,7	2609,576
654,2	2591,576
654,6	2578,719
655,1	2557,033
655,5	2543,862
655,9	2532,519
656,4	2521,205
656,8	2504,005
657,3	2486,033
657,7	2467,319
658,2	2461,605
658,6	2442,405
659	2421,805
659,5	2406,348
659,9	2392,49
660,4	2381,976
660,8	2370,862
661,2	2351,976
661,7	2341,49
662,1	2327,548
662,6	2310,405
663	2296,319
663,4	2282,176
663,9	2267,833
664,3	2252,805
664,8	2244,548
665,2	2235,119
665,6	2226,919
666,1	2214,69
666,5	2200,348
667	2186,062
667,4	2173,005
667,9	2143,148
668,3	2129,662
668,7	2116,176
669,2	2096,605
669,6	2081,719
670,1	2069,176
670,5	2049,748
670,9	2048,376
671,4	2033,89
671,8	2017,719
672,3	2013,119
672,7	2002,005
673,1	1985,176
673,6	1978,348
674	1958,233
674,5	1947,662
674,9	1937,605
675,3	1913,29
675,8	1900,262
676,2	1893,433
676,7	1877,976
677,1	1871,062
677,5	1858,519
678	1840,948
678,4	1835,519
678,9	1821,805
679,3	1804,433
679,7	1796,205
680,2	1783,719
680,6	1769,09
681,1	1754,519
681,5	1742,376
681,9	1730,29
682,4	1721,462
682,8	1708,09
683,3	1692,462
683,7	1682,776
684,1	1674,976
684,6	1665,948
685	1660,319
685,5	1645,89
685,9	1637,976
686,3	1633,405
686,8	1623,519
687,2	1613,262
687,7	1598,462
688,1	1589,119
688,5	1581,062
689	1569,405
689,4	1564,348
689,9	1555,805
690,3	1551,319
690,7	1544,662
691,2	1529,519
691,6	1518,833
692	1507,29
692,5	1490,605
692,9	1475,005
693,4	1463,49
693,8	1452,49
694,2	1435,805
694,7	1432,09
695,1	1423,776
695,6	1413,862
696	1405,376
696,4	1391,805
696,9	1382,005
697,3	1378,69
697,8	1360,719
698,2	1350,205
698,6	1343,376
699,1	1334,976
699,5	1329,748
699,9	1322,776
700,4	1312,748
700,8	1309,805
701,3	1299,176
701,7	1285,119
702,1	1275,005
702,6	1263,148
703	1249,233
703,5	1236,833
703,9	1223,776
704,3	1221,49
704,8	1214,776
705,2	1209,519
705,6	1201,433
706,1	1204,719
706,5	1205,033
707	1195,776
707,4	1187,09
707,8	1182,262
708,3	1173,033
708,7	1171,29
709,2	1154,033
709,6	1144,805
710	1139,519
710,5	1130,805
710,9	1117,862
711,3	1107,662
711,8	1092,776
712,2	1089,033
712,7	1084,69
713,1	1076,29
713,5	1065,748
714	1064,519
714,4	1058,062
714,8	1058,576
715,3	1050,005
715,7	1032,462
716,2	1022,69
716,6	1015,89
717	1006,405
717,5	1001,433
717,9	987,405
718,3	979,405
718,8	978,462
719,2	974,033
719,7	966,576
720,1	957,862
720,5	952,376
721	944,233
721,4	936,862
721,8	929,919
722,3	917,49
722,7	905,319
723,2	896,948
723,6	885,805
724	880,605
724,5	870,233
724,9	856,519
725,3	852,948
725,8	849,405
726,2	842,062
726,7	836,262
727,1	828,69
727,5	830,776
728	827,948
728,4	820,29
728,8	820,976
729,3	813,548
729,7	807,205
730,1	801,148
730,6	788,262
731	789,519
731,5	789,519
731,9	779,976
732,3	780,919
732,8	776,605
733,2	775,033
733,6	772,719
734,1	762,919
734,5	753,776
734,9	751,633
735,4	749,09
735,8	745,29
736,3	740,519
736,7	738,376
737,1	738,29
737,6	737,605
738	734,119
738,4	729,805
738,9	730,29
739,3	724,69
739,7	716,205
740,2	711,033
740,6	705,119
741,1	700,919
741,5	693,148
741,9	681,348
742,4	675,233
742,8	677,548
743,2	670,205
743,7	667,09
744,1	657,462
744,5	657,662
745	652,233
745,4	651,033
745,8	644,376
746,3	644,919
746,7	640,262
747,2	639,719
747,6	632,548
748	633,09
748,5	626,033
748,9	618,862
749,3	613,719
749,8	606,176
750,2	600,605
750,6	592,405
751,1	587,976
751,5	583,576
751,9	583,776
752,4	577,776
752,8	575,948
753,3	569,319
753,7	570,29
754,1	562,148
754,6	554,633
755	546,319
755,4	543,948
755,9	537,976
756,3	538,062
756,7	530,548
757,2	526,062
757,6	528,776
758	526,748
758,5	520,919
758,9	517,633
759,3	507,748
759,8	510,062
760,2	513,548
760,6	512,205
761,1	507,776
761,5	505,176
761,9	500,233
762,4	504,262
762,8	494,69
763,3	487,148
763,7	476,119
764,1	471,005
764,6	464,033
765	462,233
765,4	456,49
765,9	453,062
766,3	448,119
766,7	450,576
767,2	448,948
767,6	445,776
768	445,433
768,5	440,033
768,9	433,062
769,3	434,49
769,8	432,576
770,2	435,576
770,6	434,376
771,1	432,919
771,5	431,89
771,9	428,29
772,4	424,976
772,8	423,233
773,2	416,148
773,7	414,719
774,1	411,462
774,5	409,233
775	411,633
775,4	409,433
775,8	408,176
776,3	403,548
776,7	401,805
777,1	399,033
777,6	394,119
778	390,976
778,4	387,09
778,9	377,176
779,3	378,09
779,7	373,719
780,2	369,833
780,6	371,633
781	373,033
781,5	370,519
781,9	369,748
782,3	368,862
782,8	364,433
783,2	357,49
783,6	350,519
784,1	350,033
784,5	349,09
784,9	346,119
785,4	343,319
785,8	344,376
786,2	349,462
786,7	346,462
787,1	339,062
787,5	335,548
788	332,176
788,4	323,805
788,8	317,49
789,3	311,062
789,7	309,548
790,1	309,29
790,6	306,519
791	308,233
791,4	304,805
791,9	307,719
792,3	305,233
792,7	309,176
793,2	301,605
793,6	300,29
794	295,376
794,5	298,262
794,9	293,69
795,3	292,662
795,8	283,833
796,2	286,09
796,6	283,262
797,1	279,005
797,5	276,805
797,9	274,919
798,4	272,205
798,8	269,29
799,2	265,09
799,7	264,319
800,1	262,633
800,5	259,862
801	258,776
801,4	254,862
801,8	253,89
802,2	255,576
802,7	255,662
803,1	254,719
803,5	252,319
804	249,89
804,4	248,633
804,8	249,062
805,3	245,519
805,7	241,976
806,1	244,033
806,6	246,405
807	243,205
807,4	241,033
807,9	239,833
808,3	238,69
808,7	237,69
809,2	236,233
809,6	229,033
810	225,319
810,4	227,49
810,9	219,662
811,3	216,605
811,7	213,233
812,2	210,919
812,6	206,919
813	207,29
813,5	204,033
813,9	208,09
814,3	206,062
814,8	203,433
815,2	198,033
815,6	198,719
816,1	196,405
816,5	191,205
816,9	188,205
817,3	185,805
817,8	188,348
818,2	187,833
818,6	186,976
819,1	187,919
819,5	186,948
819,9	184,233
820,4	182,09
820,8	174,519
821,2	176,262
821,7	175,69
822,1	173,319
822,5	176,319
822,9	179,69
823,4	178,462
823,8	178,919
824,2	173,548
824,7	175,862
825,1	174,833
825,5	176,233
826	167,233
826,4	170,576
826,8	169,519
827,3	172,348
827,7	169,776
828,1	167,519
828,5	162,548
829	162,69
829,4	164,319
829,8	161,405
830,3	158,833
830,7	154,605
831,1	153,033
831,6	148,548
832	146,462
832,4	139,69
832,8	140,262
833,3	133,376
833,7	134,348
834,1	130,776
834,6	128,69
835	131,662
835,4	133,176
835,8	131,633
836,3	133,233
836,7	125,376
837,1	126,376
837,6	129,776
838	127,319
838,4	124,233
838,9	130,09
839,3	132,662
839,7	136,89
840,1	137,976
840,6	138,005
841	136,69
841,4	135,205
841,9	128,262
842,3	128,233
842,7	124,748
843,1	122,576
843,6	120,862
844	119,005
844,4	119,348
844,9	118,976
845,3	111,719
845,7	113,319
846,2	110,919
846,6	109,033
847	110,833
847,4	108,29
847,9	106,548
848,3	111,319
848,7	111,205
849,2	112,605
849,6	110,29
850	106,262
850,4	109,948
850,9	106,49
851,3	105,833
851,7	103,576
852,2	98,548
852,6	99,148
853	103,376
853,4	106,405
853,9	104,433
854,3	100,062
854,7	98,033
855,2	99,148
855,6	95,033
856	91,719
856,4	79,519
856,9	81,919
857,3	82,862
857,7	86,462
858,2	88,005
858,6	91,033
859	88,09
859,4	92,548
859,9	90,948
860,3	90,462
860,7	87,319
861,1	89,89
861,6	91,719
862	94,776
862,4	92,776
862,9	92,633
863,3	88,548
863,7	82,605
864,1	77,376
864,6	74,49
865	74,49
865,4	72,548
865,9	71,948
866,3	76,176
866,7	79,748
867,1	82,29
867,6	79,948
868	80,376
868,4	79,119
868,8	82,662
869,3	82,976
869,7	79,89
870,1	80,09
870,6	78,919
871	76,976
871,4	76,805
871,8	74,776
872,3	74,576
872,7	76,919
873,1	75,348
873,5	76,233
874	74,776
874,4	74,576
874,8	73,49
875,3	69,719
875,7	67,719
876,1	61,576
876,5	65,919
877	66,176
877,4	66,09
877,8	65,948
878,2	65,462
878,7	66,89
879,1	69,862
879,5	68,633
879,9	66,89
880,4	63,433
880,8	61,976
881,2	61,89
881,7	67,176
882,1	69,976
882,5	68,148
882,9	67,462
883,4	72,633
883,8	68,69
884,2	64,405
884,6	55,976
885,1	55,605
885,5	56,233
885,9	63,005
886,3	59,89
886,8	59,633
887,2	60,605
887,6	61,148
888	58,605
888,5	54,633
888,9	49,433
889,3	46,605
889,8	48,833
890,2	45,919
890,6	48,176
891	45,376
891,5	46,976
891,9	49,319
892,3	52,033
892,7	53,833
893,2	59,462
893,6	59,405
894	60,919
894,4	58,976
894,9	58,062
895,3	57,405
895,7	53,719
896,1	50,005
896,6	47,09
897	48,833
897,4	44,433
897,8	40,462
898,3	42,462
898,7	43,348
899,1	47,462
899,5	46,89
900	43,862
900,4	46,005
900,8	48,405
901,2	46,89
901,7	47,319
902,1	42,319
902,5	42,205
902,9	44,176
903,4	48,262
903,8	41,433
904,2	42,376
904,6	39,948
905,1	45,233
905,5	43,376
905,9	39,719
906,3	35,519
906,8	41,205
907,2	36,976
907,6	41,233
908	37,948
908,5	40,919
908,9	38,862
909,3	34,948
909,7	32,176
910,2	34,376
910,6	29,833
911	30,89
911,4	27,405
911,9	34,433
912,3	40,862
912,7	40,605
913,1	33,519
913,6	34,519
914	33,262
914,4	33,605
914,8	28,748
915,3	24,548
915,7	22,29
916,1	25,49
916,5	26,69
916,9	21,262
917,4	24,119
917,8	25,89
918,2	22,833
918,6	25,605
919,1	28,89
919,5	29,033
919,9	34,176
920,3	30,033
920,8	25,262
921,2	33,119
921,6	30,862
922	28,719
922,5	26,005
922,9	22,49
923,3	26,205
923,7	25,662
924,2	18,519
924,6	20,548
925	16,805
925,4	16,605
925,8	19,29
926,3	21,49
926,7	25,919
927,1	26,833
927,5	25,89
928	30,005
928,4	32,148
928,8	37,776
929,2	32,605
929,7	28,262
930,1	32,062
930,5	30,976
930,9	32,862
931,3	30,062
931,8	21,576
932,2	24,976
932,6	29,233
933	25,548
933,5	22,805
933,9	21,833
934,3	20,605
934,7	25,49
935,2	24,462
935,6	21,805
936	20,519
936,4	23,29
936,8	22,576
937,3	22,176
937,7	20,176
938,1	13,148
938,5	15,005
939	18,09
939,4	18,719
939,8	19,233
940,2	20,205
940,6	18,148
941,1	29,805
941,5	31,605
941,9	29,176
942,3	28,262
942,8	25,776
943,2	22,005
943,6	24,976
944	18,462
944,4	11,519
944,9	13,233
945,3	17,49
945,7	22,119
946,1	26,433
946,6	26,148
947	29,948
947,4	32,319
947,8	33,519
948,2	29,748
948,7	28,205
949,1	25,405
949,5	24,405
949,9	22,69
950,3	23,919
950,8	23,862
951,2	23,89
951,6	21,548
952	22,776
952,5	19,462
952,9	15,09
953,3	14,748
953,7	13,233
954,1	9,29
954,6	12,348
955	13,233
955,4	14,29
955,8	16,89
956,2	13,233
956,7	18,376
957,1	19,633
957,5	15,548
957,9	15,462
958,3	14,405
958,8	15,09
959,2	22,433
959,6	20,062
960	21,862
960,5	22,748
960,9	20,348
961,3	20,09
961,7	15,576
962,1	11,233
962,6	5,976
963	4,462
963,4	5,062
963,8	8,833
964,2	7,462
964,7	6,89
965,1	6,805
965,5	11,433
965,9	16,119
966,3	12,033
966,8	8,862
967,2	12,976
967,6	16,89
968	15,576
968,4	12,576
968,9	13,319
969,3	16,376
969,7	17,348
970,1	18,433
970,5	17,69
971	19,319
971,4	22,548
971,8	19,948
972,2	21,576
972,6	24,119
973,1	22,319
973,5	22,519
973,9	20,948
974,3	16,833
974,7	11,719
975,2	6,89
975,6	0,49
976	4,719
976,4	5,605
976,8	6,319
977,3	8,805
977,7	9,89
978,1	7,919
978,5	14,09
978,9	9,833
979,4	10,405
979,8	13,862
980,2	12,519
980,6	16,89
981	22,89
981,5	24,776
981,9	23,262
982,3	20,148
982,7	19,148
983,1	20,462
983,6	17,776
984	14,348
984,4	12,176
984,8	16,948
985,2	20,69
985,6	22,719
986,1	19,919
986,5	16,805
986,9	20,69
987,3	16,548
987,7	17,148
988,2	17,519
988,6	14,833
989	19,662
989,4	29,776
989,8	27,805
990,3	35,033
990,7	29,605
991,1	22,976
991,5	19,119
991,9	18,548
992,3	12,919
992,8	18,662
993,2	15,576
993,6	14,833
994	19,662
994,4	23,233
994,9	23,548
995,3	20,605
995,7	17,633
996,1	17,662
996,5	17,376
996,9	15,633
997,4	13,776
997,8	10,919
998,2	12,433
998,6	7,948
999	6,948
999,5	10,748
999,9	13,462
1000,3	19,519
1000,7	17,148
1001,1	17,319
1001,5	12,862
1002	7,205
1002,4	5,776
1002,8	7,49
1003,2	4,719
1003,6	11,062
1004	11,233
1004,5	16,29
1004,9	21,062
1005,3	13,833
1005,7	9,005
1006,1	6,748
1006,6	4,69
1007	4,148
1007,4	5,062
1007,8	3,605
1008,2	10,033
1008,6	10,205
1009,1	7,776
1009,5	12,776
1009,9	16,633
1010,3	18,89
1010,7	21,919
1011,1	25,405
1011,6	26,376
1012	25,633
1012,4	21,605
1012,8	14,233
1013,2	13,548
1013,6	12,605
1014,1	10,29
1014,5	12,548
1014,9	17,662
1015,3	15,49
1015,7	19,433
1016,1	19,376
1016,6	22,176
1017	20,862
1017,4	17,519
1017,8	17,605
1018,2	14,405
1018,6	18,576
1019,1	13,233
1019,5	11,776
1019,9	17,033
1020,3	18,948
1020,7	16,805
1021,1	20,633
1021,6	12,919
1022	13,148
1022,4	15,919
1022,8	9,462
1023,2	12,89
1023,6	11,205
1024,1	14,605
1024,5	13,976
1024,9	20,119
1025,3	13,49
1025,7	19,776
1026,1	18,176
1026,6	21,205
1027	15,805
1027,4	21,005
1027,8	20,119
1028,2	20,633
1028,6	16,005
1029	12,605
1029,5	10,748
1029,9	12,176
1030,3	14,348
1030,7	10,976
1031,1	11,033
1031,5	9,69
1032	7,748
1032,4	5,49
1032,8	2,862
1033,2	2,148
1033,6	6,719
1034	9,862
1034,4	14,49
1034,9	14,948
1035,3	21,576
1035,7	22,205
1036,1	24,605
1036,5	19,09
1036,9	17,405
1037,4	12,405
1037,8	13,119
1038,2	8,033
1038,6	7,519
1039	4,833
1039,4	6,548
1039,8	2,948
1040,3	3,033
1040,7	2,033
1041,1	2,576
1041,5	3,062
1041,9	-0,824
1042,3	-0,824
1042,7	3,719
1043,2	3,49
1043,6	10,233
1044	7,719
1044,4	5,719
1044,8	3,519
1045,2	7,09
1045,6	12,262
1046,1	19,119
1046,5	17,748
1046,9	22,89
1047,3	25,633
1047,7	26,662
1048,1	25,176
1048,5	20,748
1049	21,49
1049,4	19,748
1049,8	16,262
1050,2	20,348
1050,6	22,919
1051	28,29
1051,4	27,005
1051,9	27,148
1052,3	22,348
1052,7	27,719
1053,1	21,748
1053,5	25,119
1053,9	20,576
1054,3	20,148
1054,8	17,348
1055,2	20,605
1055,6	15,319
1056	15,805
1056,4	11,005
1056,8	14,919
1057,2	18,633
1057,6	16,805
1058,1	18,462
1058,5	18,948
1058,9	25,433
1059,3	29,062
1059,7	19,976
1060,1	17,405
1060,5	16,405
1061	16,662
1061,4	23,405
1061,8	14,748
1062,2	12,862
1062,6	15,176
1063	12,09
1063,4	13,29
1063,8	11,605
1064,3	3,462
1064,7	5,09
1065,1	6,005
1065,5	9,776
1065,9	12,976
1066,3	10,062
1066,7	11,605
1067,1	11,148
1067,6	14,29
1068	12,576
1068,4	13,89
1068,8	16,233
1069,2	18,719
1069,6	17,919
1070	24,776
1070,4	26,719
1070,9	26,976
1071,3	26,09
1071,7	22,576
1072,1	24,262
1072,5	26,148
1072,9	23,662
1073,3	19,405
1073,7	17,405
1074,2	15,605
1074,6	15,948
1075	15,09
1075,4	14,405
1075,8	14,233
1076,2	17,119
1076,6	19,805
1077	17,976
1077,5	20,49
1077,9	19,948
1078,3	18,462
1078,7	17,776
1079,1	19,69
1079,5	15,176
1079,9	21,005
1080,3	19,462
1080,7	23,405
1081,2	21,49
1081,6	22,033
1082	20,405
1082,4	21,29
1082,8	10,633
1083,2	3,776
1083,6	2,49
1084	4,519
1084,5	2,748
1084,9	3,49
1085,3	9,319
1085,7	8,89
1086,1	11,748
1086,5	15,433
1086,9	15,69
1087,3	16,319
1087,7	17,69
1088,2	13,805
1088,6	20,919
1089	17,605
1089,4	11,033
1089,8	14,89
1090,2	14,748
1090,6	9,576
1091	12,262
1091,4	11,376
1091,9	19,405
1092,3	19,462
1092,7	14,433
1093,1	8,033
1093,5	6,062
1093,9	9,633
1094,3	11,662
1094,7	8,176
1095,1	8,605
1095,5	7,062
1096	12,319
1096,4	19,005
1096,8	12,948
1097,2	9,69
1097,6	11,176
1098	10,976
1098,4	14,805
1098,8	17,805
1099,2	12,748
1099,6	15,119
1100,1	18,519
1100,5	23,29
1100,9	19,29
1101,3	16,062
1101,7	18,948
1102,1	22,033
1102,5	19,805
1102,9	12,433
1103,3	6,662
1103,7	9,776
1104,2	12,262
1104,6	9,919
1105	8,519
1105,4	8,09
1105,8	11,862
1106,2	11,09
1106,6	8,919
1107	6,119
1107,4	2,1
1107,8	0,433
1108,3	0,583
