Data from Subt2_016.txt Node
Date: Sat Aug 26 16:15:29 MSK 2023
User: vat
Spectrometer: MAYP114033
Trigger mode: 0
Integration Time (sec): 1,000000E0
Scans to average: 5
Electric dark correction enabled: true
Nonlinearity correction enabled: false
Boxcar width: 3
XAxis mode: Wavelengths
Number of Pixels in Spectrum: 2068
>>>>>Begin Spectral Data<<<<<
199,4	-0,75
199,9	0,98
200,4	-0,767
200,8	-2,529
201,3	-3,043
201,8	0,786
202,2	1,729
202,7	4,357
203,2	1,814
203,6	8,014
204,1	10,586
204,6	9,243
205	9,214
205,5	9,243
206	7,643
206,4	8,671
206,9	8,357
207,4	9,843
207,8	14,3
208,3	10,5
208,8	12,9
209,2	12,814
209,7	15,729
210,2	10,157
210,6	6,757
211,1	7,986
211,5	9,814
212	11,271
212,5	12,043
212,9	13,529
213,4	12,957
213,9	14,529
214,3	8,186
214,8	9,129
215,3	6,414
215,7	7,357
216,2	6,871
216,7	8,214
217,1	7,357
217,6	9,643
218,1	7,271
218,5	5,3
219	1,986
219,5	1,729
219,9	4,329
220,4	6,129
220,9	2,529
221,3	3,586
221,8	-2,157
222,3	2,1
222,7	-0,586
223,2	-2,643
223,6	-2,071
224,1	3,7
224,6	0,871
225	9,186
225,5	8,271
226	8,357
226,4	11,586
226,9	14,5
227,4	13,471
227,8	15,3
228,3	13,586
228,8	11,843
229,2	12,929
229,7	8,129
230,2	3,5
230,6	3,443
231,1	8,386
231,5	12,3
232	11,3
232,5	11,386
232,9	11,5
233,4	13,814
233,9	8,214
234,3	0,871
234,8	-1,729
235,3	2,243
235,7	-0,671
236,2	1,843
236,7	-2,214
237,1	4,329
237,6	8,186
238,1	6,557
238,5	2,814
239	11,271
239,4	12,729
239,9	11,1
240,4	12,843
240,8	9,186
241,3	9,986
241,8	11,1
242,2	6,214
242,7	9,471
243,2	13,614
243,6	13,071
244,1	17,071
244,6	12,386
245	9,9
245,5	7,529
245,9	4,129
246,4	6,957
246,9	6,814
247,3	4,9
247,8	9,129
248,3	9,3
248,7	13,157
249,2	13,786
249,7	10,471
250,1	9,443
250,6	10,7
251	9,5
251,5	9,1
252	9,529
252,4	9,757
252,9	6,729
253,4	4,614
253,8	-0,043
254,3	3,043
254,8	12,071
255,2	8,014
255,7	2,814
256,1	7,557
256,6	5,386
257,1	7,671
257,5	4,643
258	1,043
258,5	-0,3
258,9	-0,9
259,4	-7,3
259,9	-3,214
260,3	-5,557
260,8	-3,243
261,2	-5,986
261,7	-6,3
262,2	-5,071
262,6	-2,729
263,1	-2,071
263,6	1,643
264	-1,386
264,5	0,843
264,9	3,757
265,4	7,557
265,9	12,186
266,3	10,071
266,8	7,986
267,3	6,871
267,7	3,843
268,2	3,129
268,7	1,7
269,1	-1,214
269,6	-2,814
270	-2,357
270,5	-1,671
271	-0,814
271,4	-1,386
271,9	-0,814
272,4	-2,443
272,8	4,1
273,3	3,757
273,7	7,586
274,2	6,9
274,7	9,014
275,1	8,614
275,6	8,071
276,1	7,871
276,5	9,557
277	8,357
277,4	5,957
277,9	5,357
278,4	6,643
278,8	10,1
279,3	7,1
279,8	6,957
280,2	8,414
280,7	11,814
281,1	7,957
281,6	-0,186
282,1	-1,671
282,5	-6,157
283	-0,843
283,4	-8,929
283,9	-10,3
284,4	-7,729
284,8	-0,671
285,3	-2,586
285,8	0,671
286,2	-4,671
286,7	-2,871
287,1	0,414
287,6	1,757
288,1	-0,443
288,5	-0,529
289	0,129
289,5	3,843
289,9	7,443
290,4	1,614
290,8	2,3
291,3	4,729
291,8	5,843
292,2	6,529
292,7	5,5
293,1	4,9
293,6	9,471
294,1	6,3
294,5	6,586
295	9,814
295,5	5,043
295,9	-1,129
296,4	-1,129
296,8	-2,3
297,3	1,871
297,8	-2,414
298,2	-6,386
298,7	-1,786
299,1	1,357
299,6	1,929
300,1	5,329
300,5	6,729
301	7,5
301,5	11,871
301,9	17,9
302,4	14,043
302,8	15,871
303,3	13,729
303,8	4,471
304,2	9,186
304,7	8,614
305,1	0,157
305,6	7,414
306,1	3,014
306,5	2,243
307	5,671
307,4	0,7
307,9	2,414
308,4	2,9
308,8	6,329
309,3	9,5
309,8	8,329
310,2	11,471
310,7	16,643
311,1	15,214
311,6	16,129
312,1	7,557
312,5	5,529
313	1,443
313,4	-0,757
313,9	-6,243
314,4	-6,157
314,8	-1,786
315,3	1,014
315,7	5,814
316,2	10,929
316,7	10,586
317,1	14,643
317,6	16,471
318	12,271
318,5	12,671
319	10,843
319,4	6,643
319,9	6,614
320,3	9,329
320,8	5,129
321,3	4,071
321,7	3,5
322,2	-0,7
322,6	4,329
323,1	4,357
323,6	2,757
324	2,671
324,5	8,243
324,9	7,786
325,4	13,443
325,9	10,214
326,3	11,957
326,8	11,043
327,2	14,129
327,7	9,929
328,2	7,929
328,6	6,443
329,1	6,271
329,5	4,414
330	6,357
330,5	6,414
330,9	4,929
331,4	7,986
331,8	8,014
332,3	9,357
332,8	10,729
333,2	4,757
333,7	3,414
334,1	2,557
334,6	4,7
335,1	1,157
335,5	-1,243
336	-3,471
336,4	-1,043
336,9	-7,214
337,4	-4,386
337,8	-5,214
338,3	-7,614
338,7	-2,614
339,2	0,7
339,7	0,7
340,1	6,557
340,6	6,157
341	0,986
341,5	6,357
342	10,843
342,4	13,471
342,9	18,271
343,3	16,329
343,8	17,329
344,2	21,071
344,7	23,1
345,2	17,957
345,6	14,329
346,1	3,214
346,5	4,757
347	7,386
347,5	11,643
347,9	12,729
348,4	10,957
348,8	15,586
349,3	25,557
349,8	29,786
350,2	27,157
350,7	27,443
351,1	28,7
351,6	41,5
352	46,243
352,5	52,557
353	62,871
353,4	75,7
353,9	88,7
354,3	110,043
354,8	123,814
355,3	149,157
355,7	175,3
356,2	206,357
356,6	249,1
357,1	299,1
357,5	350,329
358	414,071
358,5	485,329
358,9	575,471
359,4	669,786
359,8	770,186
360,3	887,757
360,8	1015,186
361,2	1161,471
361,7	1318,5
362,1	1488,929
362,6	1677,243
363	1887,214
363,5	2105,186
364	2338,929
364,4	2573,529
364,9	2816,7
365,3	3056,5
365,8	3289,014
366,3	3497,9
366,7	3685,843
367,2	3855,3
367,6	3992,586
368,1	4089,271
368,5	4156,3
369	4189,357
369,5	4195,186
369,9	4162,014
370,4	4093,871
370,8	3998,729
371,3	3888,529
371,7	3746,614
372,2	3589,9
372,7	3417,386
373,1	3241,786
373,6	3053,614
374	2867,129
374,5	2679,386
374,9	2499,186
375,4	2323,529
375,9	2150,786
376,3	1985,729
376,8	1837,186
377,2	1695,414
377,7	1560,586
378,2	1434,986
378,6	1311,929
379,1	1203,214
379,5	1103,471
380	1006,443
380,4	923,186
380,9	843,071
381,4	768,157
381,8	703,443
382,3	652,014
382,7	603,957
383,2	564,414
383,6	523,871
384,1	490,529
384,6	453,7
385	426,443
385,5	392,1
385,9	363,814
386,4	336,1
386,8	310,614
387,3	286,1
387,7	273,843
388,2	256,014
388,7	238,043
389,1	220,757
389,6	203,871
390	186,614
390,5	171,814
390,9	154,443
391,4	144,643
391,9	138,214
392,3	128,957
392,8	120,671
393,2	114,214
393,7	107,757
394,1	103,814
394,6	96,814
395,1	88,414
395,5	84,157
396	79,5
396,4	77,471
396,9	75,329
397,3	75,129
397,8	73,986
398,2	74,243
398,7	70,071
399,2	65,614
399,6	61,586
400,1	59,271
400,5	52,557
401	47,386
401,4	44,843
401,9	44,014
402,4	48,3
402,8	47,357
403,3	47,043
403,7	50,5
404,2	55,443
404,6	57,329
405,1	56,929
405,5	57,157
406	59,043
406,5	60,271
406,9	61,986
407,4	59,786
407,8	65,129
408,3	69,471
408,7	72,357
409,2	79,3
409,6	88,7
410,1	95,957
410,6	102,471
411	106,614
411,5	115,5
411,9	122,5
412,4	131,386
412,8	132,957
413,3	137,5
413,7	141,557
414,2	146,757
414,7	155,757
415,1	159,929
415,6	164,471
416	174,329
416,5	185,5
416,9	197,729
417,4	206,7
417,8	209,329
418,3	221,3
418,8	236,557
419,2	243,843
419,7	251,414
420,1	260,586
420,6	277,871
421	294,414
421,5	305,929
421,9	312,1
422,4	326,414
422,8	342,729
423,3	360,843
423,8	374,529
424,2	390,986
424,7	414,014
425,1	433,386
425,6	455,929
426	474,129
426,5	494,614
426,9	511,9
427,4	536,9
427,9	556,043
428,3	584,871
428,8	614,786
429,2	650,643
429,7	682,414
430,1	722,386
430,6	751,471
431	784,871
431,5	820,929
431,9	862,243
432,4	897,729
432,8	938,243
433,3	971,357
433,8	1018,014
434,2	1070,529
434,7	1118,443
435,1	1168,043
435,6	1218,043
436	1275,443
436,5	1340,357
436,9	1402,986
437,4	1464,929
437,8	1532,814
438,3	1594,443
438,8	1664,129
439,2	1735,671
439,7	1805,757
440,1	1878,643
440,6	1955,357
441	2037,929
441,5	2127,1
441,9	2219,529
442,4	2314,014
442,8	2412,329
443,3	2513,014
443,7	2621,871
444,2	2723,1
444,7	2833,443
445,1	2943,757
445,6	3062,557
446	3176,671
446,5	3300,814
446,9	3420,357
447,4	3559,3
447,8	3689,243
448,3	3823,443
448,7	3956,957
449,2	4099,9
449,6	4240,729
450,1	4387,214
450,6	4524,929
451	4668,157
451,5	4829,7
451,9	4986,757
452,4	5143,586
452,8	5310,557
453,3	5480,243
453,7	5648,243
454,2	5825,129
454,6	5994,9
455,1	6172,986
455,5	6352,271
456	6528,729
456,4	6705,757
456,9	6897,586
457,3	7085,671
457,8	7277,557
458,3	7466,7
458,7	7669,043
459,2	7869,129
459,6	8066,5
460,1	8262,443
460,5	8461,214
461	8664,014
461,4	8871,729
461,9	9071,757
462,3	9270,214
462,8	9477,014
463,2	9675,157
463,7	9896,871
464,1	10098,7
464,6	10290,043
465	10491,843
465,5	10700,157
466	10909,757
466,4	11123,129
466,9	11302,786
467,3	11508,614
467,8	11728,5
468,2	11926,871
468,7	12135,671
469,1	12332,9
469,6	12536,129
470	12754,386
470,5	12947,929
470,9	13138,7
471,4	13335,586
471,8	13523,557
472,3	13713,5
472,7	13893,843
473,2	14065,614
473,6	14242,643
474,1	14405,843
474,5	14574,3
475	14739,557
475,4	14895,271
475,9	15059,557
476,4	15206,557
476,8	15351,043
477,3	15514,129
477,7	15666,471
478,2	15799,243
478,6	15944,786
479,1	16070,014
479,5	16209,471
480	16339,1
480,4	16446,614
480,9	16553,614
481,3	16668,329
481,8	16765,957
482,2	16859,957
482,7	16951,071
483,1	17033,129
483,6	17105,529
484	17169,157
484,5	17239,414
484,9	17304,557
485,4	17365,357
485,8	17413,586
486,3	17457,929
486,7	17495,471
487,2	17525,214
487,6	17547,957
488,1	17565,243
488,5	17583,843
489	17591,729
489,4	17596,043
489,9	17606,386
490,4	17625,157
490,8	17624,557
491,3	17621,243
491,7	17590,414
492,2	17569,071
492,6	17551,014
493,1	17502,071
493,5	17446,5
494	17389,271
494,4	17327,814
494,9	17283,7
495,3	17227,643
495,8	17168,1
496,2	17113,957
496,7	17055,186
497,1	17000,214
497,6	16930,729
498	16865,443
498,5	16787,7
498,9	16696,986
499,4	16616,014
499,8	16532,871
500,3	16433,043
500,7	16345,271
501,2	16251,414
501,6	16161,929
502,1	16070,614
502,5	15984,071
503	15895,986
503,4	15810,757
503,9	15710,557
504,3	15609,243
504,8	15499,614
505,2	15403,729
505,7	15298,9
506,1	15181,3
506,6	15057,129
507	14936,957
507,5	14809,671
507,9	14695,5
508,4	14574,729
508,8	14459,243
509,3	14329,186
509,7	14215,129
510,2	14103,814
510,6	13987,329
511,1	13863,214
511,5	13735,671
512	13597,786
512,4	13479,643
512,9	13348,386
513,3	13216,557
513,8	13088,986
514,2	12960,414
514,7	12830,843
515,1	12706,271
515,6	12580,157
516	12451,3
516,5	12328,443
516,9	12193,357
517,4	12062,243
517,8	11938,043
518,3	11813,614
518,7	11684,129
519,2	11553,729
519,6	11431,557
520,1	11315,957
520,5	11193,614
521	11067,814
521,4	10946,5
521,9	10824,557
522,3	10713,729
522,8	10583,757
523,2	10463,5
523,7	10344,586
524,1	10222,7
524,6	10104,414
525	9992,243
525,5	9879,329
525,9	9773,043
526,4	9667,443
526,8	9563,586
527,3	9457,443
527,7	9350,929
528,2	9244,329
528,6	9137,614
529,1	9036,414
529,5	8934,671
530	8835,214
530,4	8739,9
530,9	8642,643
531,3	8548,586
531,8	8448,3
532,2	8350,986
532,6	8248,5
533,1	8157,614
533,5	8065,9
534	7968,214
534,4	7877,929
534,9	7798,929
535,3	7716,3
535,8	7633,729
536,2	7548,814
536,7	7466,129
537,1	7385,729
537,6	7312,557
538	7229,186
538,5	7152,757
538,9	7074,186
539,4	6996,471
539,8	6919,9
540,3	6852,071
540,7	6775,871
541,2	6712,043
541,6	6641,357
542,1	6581,186
542,5	6519,014
543	6457,271
543,4	6391,3
543,9	6328,729
544,3	6260,329
544,8	6189,471
545,2	6122,357
545,7	6054,243
546,1	5994,329
546,5	5927,9
547	5869,9
547,4	5807,214
547,9	5750,443
548,3	5690,9
548,8	5636,671
549,2	5575,357
549,7	5528,929
550,1	5472,443
550,6	5426,1
551	5374,929
551,5	5322,3
551,9	5277,7
552,4	5231,414
552,8	5187,643
553,3	5138,843
553,7	5090,729
554,2	5049,957
554,6	5014,786
555,1	4960,9
555,5	4923,129
555,9	4879,014
556,4	4842,386
556,8	4799,471
557,3	4759,243
557,7	4716,3
558,2	4682,729
558,6	4643,214
559,1	4596,386
559,5	4553,243
560	4511,386
560,4	4467,729
560,9	4434,929
561,3	4397,443
561,8	4360,986
562,2	4326,957
562,7	4290,7
563,1	4260,7
563,6	4237,329
564	4205,614
564,4	4175,7
564,9	4141,986
565,3	4111,786
565,8	4084,557
566,2	4051,957
566,7	4013,957
567,1	3977,671
567,6	3949,129
568	3920,586
568,5	3893,843
568,9	3862,729
569,4	3835,157
569,8	3806,214
570,3	3776,929
570,7	3748,414
571,1	3726,843
571,6	3699,871
572	3667,7
572,5	3646,271
572,9	3626,871
573,4	3602,586
573,8	3578,843
574,3	3548,643
574,7	3530,3
575,2	3513,414
575,6	3485,471
576,1	3453,786
576,5	3426,243
576,9	3396,043
577,4	3374,871
577,8	3342,986
578,3	3320,471
578,7	3292,129
579,2	3271,5
579,6	3254,3
580,1	3231,243
580,5	3205,1
581	3183,1
581,4	3162,5
581,9	3142,7
582,3	3127,729
582,7	3106,014
583,2	3093,957
583,6	3067,386
584,1	3046,157
584,5	3025,014
585	3009,9
585,4	2984,814
585,9	2961,957
586,3	2938,786
586,8	2923,586
587,2	2903,043
587,6	2876,671
588,1	2857,243
588,5	2835,1
589	2813,443
589,4	2786,7
589,9	2774,471
590,3	2761,614
590,8	2744,957
591,2	2727,843
591,7	2710,871
592,1	2700,9
592,5	2690,929
593	2664,329
593,4	2645,214
593,9	2628,929
594,3	2609,329
594,8	2599,643
595,2	2583,786
595,7	2567,729
596,1	2556,1
596,6	2542,014
597	2527,214
597,4	2513,9
597,9	2498,614
598,3	2481,814
598,8	2464,9
599,2	2458,7
599,7	2449,214
600,1	2439,614
600,6	2428,214
601	2417,586
601,4	2409,586
601,9	2402,443
602,3	2383,671
602,8	2368,186
603,2	2359,814
603,7	2349,9
604,1	2331,271
604,6	2313,471
605	2297,586
605,4	2282,443
605,9	2272,671
606,3	2259,871
606,8	2246,786
607,2	2236,243
607,7	2226,643
608,1	2216,243
608,6	2208,529
609	2194,043
609,4	2175,129
609,9	2161,671
610,3	2152,786
610,8	2139,157
611,2	2125,271
611,7	2102,843
612,1	2092,071
612,6	2084,671
613	2068,671
613,4	2052,386
613,9	2034,586
614,3	2025,414
614,8	2023,471
615,2	2011,386
615,7	1999,9
616,1	1986,9
616,6	1973,443
617	1966,414
617,4	1951,843
617,9	1938,557
618,3	1921,071
618,8	1904,986
619,2	1892,986
619,7	1882,757
620,1	1874,243
620,5	1861,214
621	1851,1
621,4	1840,386
621,9	1835,071
622,3	1822,557
622,8	1812,643
623,2	1793,557
623,6	1787,329
624,1	1771,329
624,5	1762,014
625	1751,357
625,4	1742,586
625,9	1730,757
626,3	1721,843
626,8	1714,357
627,2	1703,7
627,6	1694,157
628,1	1679,1
628,5	1673,5
629	1665,071
629,4	1656,271
629,9	1638,814
630,3	1625,471
630,7	1613,071
631,2	1592,443
631,6	1575,929
632,1	1564,729
632,5	1555,529
633	1547,586
633,4	1546,471
633,8	1536,414
634,3	1530,129
634,7	1523,929
635,2	1508,586
635,6	1497,529
636,1	1484,157
636,5	1470,671
636,9	1461,071
637,4	1452,271
637,8	1441,586
638,3	1431,157
638,7	1420,671
639,2	1410,871
639,6	1404,614
640	1399,5
640,5	1393,5
640,9	1383,643
641,4	1378,671
641,8	1369,529
642,2	1360,614
642,7	1351,357
643,1	1341,157
643,6	1334,529
644	1326,7
644,5	1318,757
644,9	1314,671
645,3	1311,671
645,8	1303,443
646,2	1291,757
646,7	1280,5
647,1	1276,1
647,6	1270,871
648	1260,357
648,4	1249,957
648,9	1244,614
649,3	1237,586
649,8	1230,3
650,2	1224,671
650,6	1214,814
651,1	1209,986
651,5	1200,271
652	1194,929
652,4	1187,586
652,9	1182,043
653,3	1173,557
653,7	1166,1
654,2	1158,1
654,6	1152,3
655,1	1137,9
655,5	1135,271
655,9	1126,529
656,4	1120,814
656,8	1115,843
657,3	1106,186
657,7	1102,129
658,2	1098,7
658,6	1088,9
659	1083,414
659,5	1070,157
659,9	1064,157
660,4	1060,814
660,8	1053,071
661,2	1046,757
661,7	1037,643
662,1	1032,014
662,6	1024,414
663	1012,386
663,4	1002,671
663,9	990,957
664,3	982,643
664,8	978,443
665,2	969,186
665,6	966,957
666,1	963,529
666,5	954,043
667	946,614
667,4	937,614
667,9	928,1
668,3	922,929
668,7	913,7
669,2	907,129
669,6	904,614
670,1	903,071
670,5	891,329
670,9	883,214
671,4	876,271
671,8	869,557
672,3	863,243
672,7	859,043
673,1	848,443
673,6	844,443
674	837,443
674,5	832,243
674,9	827,986
675,3	819,529
675,8	809,129
676,2	807,786
676,7	807,871
677,1	804,157
677,5	796,7
678	787,529
678,4	783,214
678,9	779,929
679,3	771,329
679,7	763,471
680,2	761,5
680,6	756,843
681,1	755,9
681,5	747,529
681,9	742,9
682,4	738,814
682,8	733,386
683,3	724,557
683,7	719,586
684,1	709,043
684,6	703,957
685	700,3
685,5	697,729
685,9	693,843
686,3	691,529
686,8	690,186
687,2	688,157
687,7	683,414
688,1	677,186
688,5	670,471
689	665,5
689,4	655,843
689,9	648,271
690,3	643,1
690,7	644,614
691,2	641,329
691,6	635,071
692	630,3
692,5	632,357
692,9	626,157
693,4	621,871
693,8	611,757
694,2	600,986
694,7	596,729
695,1	589,129
695,6	584,129
696	577,814
696,4	574,271
696,9	573,929
697,3	567,929
697,8	566,271
698,2	561,386
698,6	558,671
699,1	559,814
699,5	555,871
699,9	552,729
700,4	552,471
700,8	549,671
701,3	550,471
701,7	543,757
702,1	537,529
702,6	531,929
703	521,5
703,5	519,329
703,9	514,843
704,3	509,614
704,8	505,929
705,2	500,129
705,6	497,986
706,1	496,729
706,5	492,014
707	486,243
707,4	485,1
707,8	481,271
708,3	479,357
708,7	475,9
709,2	472,443
709,6	469,786
710	468,157
710,5	460,729
710,9	458,7
711,3	454,557
711,8	449,071
712,2	446,786
712,7	444,329
713,1	438,586
713,5	434,957
714	432,3
714,4	429,529
714,8	424,214
715,3	421,3
715,7	416,443
716,2	414,014
716,6	414,557
717	405,357
717,5	397,586
717,9	398,586
718,3	393,929
718,8	391,957
719,2	383,986
719,7	380,443
720,1	384,443
720,5	384,729
721	381,443
721,4	376,7
721,8	372,529
722,3	374,986
722,7	369,043
723,2	357,529
723,6	354,129
724	348,729
724,5	347,129
724,9	344,643
725,3	340,157
725,8	339,357
726,2	343,157
726,7	344,586
727,1	345,271
727,5	345,071
728	340,3
728,4	337,329
728,8	333,157
729,3	326,757
729,7	321,929
730,1	319,957
730,6	319,157
731	322,671
731,5	326,243
731,9	322,729
732,3	325,671
732,8	324,529
733,2	322,186
733,6	320,814
734,1	319,986
734,5	310,1
734,9	311,329
735,4	301,443
735,8	298,443
736,3	294,386
736,7	288,414
737,1	281,443
737,6	282,757
738	282,843
738,4	290,471
738,9	295,614
739,3	291,043
739,7	296,557
740,2	298,443
740,6	296,443
741,1	290,729
741,5	282,1
741,9	273,157
742,4	274,471
742,8	267,729
743,2	262,214
743,7	264,729
744,1	265,414
744,5	265,557
745	267,586
745,4	262,1
745,8	261,9
746,3	259,3
746,7	257,071
747,2	252,014
747,6	254,1
748	246,986
748,5	247,043
748,9	243,986
749,3	246,186
749,8	243,843
750,2	242,243
750,6	242,643
751,1	244,5
751,5	247,871
751,9	247,614
752,4	241,871
752,8	236,443
753,3	240,5
753,7	236,329
754,1	233,957
754,6	227,7
755	225,757
755,4	223,529
755,9	222,5
756,3	219,014
756,7	213,386
757,2	211,9
757,6	211,871
758	207,157
758,5	212,529
758,9	213,414
759,3	211,3
759,8	211,043
760,2	210,871
760,6	211,071
761,1	207,471
761,5	206,9
761,9	204,871
762,4	201,071
762,8	201,3
763,3	200,329
763,7	193,043
764,1	195,3
764,6	187,414
765	189,1
765,4	187,814
765,9	186,443
766,3	186,9
766,7	193,329
767,2	194,043
767,6	197,271
768	195,129
768,5	196,243
768,9	189,5
769,3	186,986
769,8	181,7
770,2	176,471
770,6	168,414
771,1	159,471
771,5	159,1
771,9	167,986
772,4	165,129
772,8	163,843
773,2	164,443
773,7	165,614
774,1	171,414
774,5	169,643
775	165,529
775,4	160,329
775,8	164,214
776,3	166,643
776,7	166,071
777,1	162,386
777,6	158,586
778	156,614
778,4	157,986
778,9	152,871
779,3	149,986
779,7	150,529
780,2	153,3
780,6	156,757
781	153,157
781,5	156,671
781,9	156,443
782,3	157,329
782,8	160,986
783,2	159,814
783,6	160,157
784,1	154,814
784,5	152,729
784,9	151,929
785,4	143,157
785,8	141,557
786,2	141,129
786,7	134,271
787,1	140,243
787,5	138,214
788	136,071
788,4	140,386
788,8	134,386
789,3	130,071
789,7	134,614
790,1	131,586
790,6	132,243
791	130,471
791,4	126,643
791,9	127,5
792,3	126,5
792,7	125,529
793,2	126,957
793,6	124,643
794	125,443
794,5	129,843
794,9	131,414
795,3	133,957
795,8	130,271
796,2	132,929
796,6	130,843
797,1	135,986
797,5	131,186
797,9	127,5
798,4	125,157
798,8	126,214
799,2	123,157
799,7	123,386
800,1	119,929
800,5	121,729
801	119,471
801,4	117,386
801,8	115,071
802,2	109,071
802,7	108,7
803,1	105,871
803,5	103,786
804	107,157
804,4	104,843
804,8	105,186
805,3	105,671
805,7	102,329
806,1	100,814
806,6	101,471
807	101,729
807,4	102,471
807,9	101,5
808,3	98,843
808,7	96,557
809,2	97,671
809,6	93,729
810	91,071
810,4	89,3
810,9	87,7
811,3	87,986
811,7	92,757
812,2	94,471
812,6	93,186
813	89,471
813,5	90,7
813,9	90,929
814,3	90,786
814,8	91,043
815,2	88,729
815,6	91,729
816,1	91,129
816,5	89,043
816,9	82,557
817,3	85,843
817,8	86,129
818,2	83,271
818,6	79,843
819,1	84,871
819,5	85,186
819,9	87,157
820,4	86,643
820,8	84,443
821,2	83,014
821,7	85,186
822,1	81,671
822,5	80,643
822,9	85,586
823,4	81,729
823,8	81,586
824,2	80,814
824,7	79,014
825,1	77,814
825,5	77,957
826	72,814
826,4	74,071
826,8	67,1
827,3	64,843
827,7	68,357
828,1	66,957
828,5	65,643
829	65,757
829,4	66,214
829,8	68,357
830,3	69,1
830,7	59,329
831,1	56,614
831,6	57,957
832	50,786
832,4	46,414
832,8	48,757
833,3	52,157
833,7	56,157
834,1	57,986
834,6	53,929
835	58,729
835,4	65,386
835,8	63,414
836,3	59,271
836,7	59,586
837,1	56,414
837,6	58,529
838	57,986
838,4	51,7
838,9	48,957
839,3	52,957
839,7	53,3
840,1	57,1
840,6	55,814
841	55,5
841,4	55,129
841,9	55,586
842,3	52,9
842,7	56,443
843,1	55,757
843,6	58,843
844	65,214
844,4	66,986
844,9	66,357
845,3	64,843
845,7	61,814
846,2	58,214
846,6	57,9
847	52,9
847,4	49,529
847,9	52,271
848,3	49,271
848,7	47,014
849,2	51,814
849,6	47,843
850	47,014
850,4	49,214
850,9	47,557
851,3	47,443
851,7	47,471
852,2	43,043
852,6	41,843
853	41,443
853,4	40,529
853,9	41,671
854,3	44,557
854,7	39,014
855,2	39,014
855,6	38,471
856	40,214
856,4	41,557
856,9	37,7
857,3	35,414
857,7	38,186
858,2	35,643
858,6	35,243
859	32,414
859,4	31,5
859,9	30,186
860,3	31,586
860,7	37,129
861,1	39,443
861,6	39,757
862	39,643
862,4	35,043
862,9	37,329
863,3	40,129
863,7	37,186
864,1	39,329
864,6	44,586
865	44,557
865,4	46,5
865,9	48,643
866,3	44,871
866,7	42,271
867,1	41,186
867,6	30,843
868	26,757
868,4	25,757
868,8	23,957
869,3	24,7
869,7	21,7
870,1	15,471
870,6	21,014
871	-26,529
871,4	-22,786
871,8	-22,671
872,3	-29,757
872,7	-28,671
873,1	-25,014
873,5	-27,786
874	23,5
874,4	21,186
874,8	19,014
875,3	25,786
875,7	24,214
876,1	23,471
876,5	25,186
877	22,129
877,4	20,586
877,8	16,443
878,2	12,3
878,7	18,7
879,1	19,529
879,5	20,786
879,9	14,357
880,4	12,471
880,8	15,643
881,2	15,014
881,7	13,157
882,1	15,986
882,5	13,586
882,9	23,329
883,4	23,786
883,8	25,157
884,2	30,557
884,6	26,214
885,1	20,471
885,5	20,7
885,9	17,614
886,3	16,786
886,8	16,957
887,2	15,729
887,6	18,243
888	22,986
888,5	20,414
888,9	23,3
889,3	28,129
889,8	28,357
890,2	27,357
890,6	26,471
891	23,614
891,5	22,129
891,9	18,929
892,3	13,357
892,7	12,357
893,2	12,643
893,6	8,157
894	6,957
894,4	11,129
894,9	9,271
895,3	8,614
895,7	5,386
896,1	1,871
896,6	8,3
897	8,986
897,4	8,329
897,8	13,443
898,3	17,871
898,7	19,557
899,1	21,5
899,5	18,586
900	21,557
900,4	20,414
900,8	22,529
901,2	19,386
901,7	21,443
902,1	24,671
902,5	27,014
902,9	24,043
903,4	20,271
903,8	16,186
904,2	14,214
904,6	13,557
905,1	10,786
905,5	10,986
905,9	13,986
906,3	15,214
906,8	13,786
907,2	12,414
907,6	9,643
908	8,014
908,5	6,557
908,9	4,1
909,3	9,243
909,7	6,7
910,2	10,986
910,6	13,357
911	12,586
911,4	11,043
911,9	13,357
912,3	12,014
912,7	15,414
913,1	14,386
913,6	16,929
914	17,929
914,4	18,9
914,8	16,729
915,3	19,7
915,7	18,243
916,1	21,557
916,5	18,757
916,9	22,186
917,4	18,929
917,8	18,329
918,2	16,729
918,6	17,1
919,1	15,529
919,5	14,843
919,9	8,929
920,3	8,5
920,8	8,186
921,2	8,129
921,6	6,614
922	6,443
922,5	8,757
922,9	11,243
923,3	17,414
923,7	15,643
924,2	10,243
924,6	11,5
925	13,129
925,4	12,5
925,8	10,786
926,3	4,871
926,7	8,843
927,1	14,043
927,5	18,157
928	14,3
928,4	10,957
928,8	12,386
929,2	21,7
929,7	17,614
930,1	11,186
930,5	11,871
930,9	17,129
931,3	18,414
931,8	18,271
932,2	11,7
932,6	16,443
933	21,129
933,5	15,586
933,9	11,9
934,3	10,7
934,7	10,9
935,2	7,243
935,6	0,5
936	1,557
936,4	0,386
936,8	2,557
937,3	5,214
937,7	6,7
938,1	9,671
938,5	10,357
939	6,557
939,4	11,014
939,8	8,614
940,2	8,9
940,6	8,386
941,1	5,729
941,5	11,129
941,9	12,271
942,3	12,471
942,8	12,071
943,2	11,529
943,6	12,071
944	11,243
944,4	8,271
944,9	10,757
945,3	6,043
945,7	11,9
946,1	6,729
946,6	5,9
947	8,529
947,4	8,671
947,8	6,643
948,2	8,386
948,7	7,929
949,1	10,986
949,5	12,7
949,9	16,129
950,3	17,243
950,8	15,7
951,2	17,014
951,6	13,643
952	15,929
952,5	12,986
952,9	10,214
953,3	8,729
953,7	11,529
954,1	13,957
954,6	12,357
955	7,871
955,4	10,1
955,8	10,157
956,2	10,5
956,7	10,986
957,1	9,471
957,5	7,357
957,9	7,9
958,3	2,1
958,8	1,186
959,2	0,386
959,6	-1,186
960	-3,786
960,5	-4,9
960,9	-0,929
961,3	4,1
961,7	4,243
962,1	3,643
962,6	2,643
963	4,729
963,4	8,929
963,8	12,129
964,2	9,357
964,7	7,671
965,1	12,529
965,5	12,271
965,9	14,329
966,3	17,529
966,8	12,729
967,2	14,214
967,6	15,957
968	11,643
968,4	10,729
968,9	4,386
969,3	-1,471
969,7	-0,643
970,1	-0,7
970,5	5,043
971	1,5
971,4	3,186
971,8	2,586
972,2	3,7
972,6	2,757
973,1	1,986
973,5	-3,186
973,9	0,929
974,3	-0,243
974,7	3,071
975,2	5,157
975,6	5,071
976	4,357
976,4	2,357
976,8	2,214
977,3	4,1
977,7	4,129
978,1	1,671
978,5	3,529
978,9	4,586
979,4	3,7
979,8	3,157
980,2	5,814
980,6	1,043
981	0,129
981,5	-11,586
981,9	-10,186
982,3	-6,186
982,7	-10,3
983,1	-9,7
983,6	-3,586
984	-7,786
984,4	4,9
984,8	4,586
985,2	0,986
985,6	1,729
986,1	-2,957
986,5	-2,929
986,9	0,671
987,3	3,414
987,7	1,1
988,2	1,014
988,6	8,614
989	7,586
989,4	5,9
989,8	3,7
990,3	-1,157
990,7	0,357
991,1	-0,643
991,5	-0,529
991,9	0,986
992,3	2,014
992,8	3,957
993,2	2,529
993,6	3,329
994	8,643
994,4	2,871
994,9	3,443
995,3	7,3
995,7	12,3
996,1	10,929
996,5	8,843
996,9	10,014
997,4	11,129
997,8	12,843
998,2	8,414
998,6	3,186
999	-0,014
999,5	1,529
999,9	0,671
1000,3	1,614
1000,7	2,043
1001,1	3,014
1001,5	3,3
1002	5,071
1002,4	5,757
1002,8	6,386
1003,2	5,043
1003,6	4,9
1004	5,186
1004,5	10,529
1004,9	12,014
1005,3	9,471
1005,7	9,871
1006,1	12,814
1006,6	9,214
1007	11,186
1007,4	8,414
1007,8	10,386
1008,2	14,329
1008,6	11,271
1009,1	10,386
1009,5	13,7
1009,9	9,9
1010,3	6,814
1010,7	12,1
1011,1	7,757
1011,6	12,271
1012	12,1
1012,4	12,529
1012,8	13,186
1013,2	15,957
1013,6	13,329
1014,1	12,271
1014,5	6,9
1014,9	4,843
1015,3	0,414
1015,7	0,614
1016,1	1,071
1016,6	3,043
1017	6,157
1017,4	6,757
1017,8	11,586
1018,2	9,471
1018,6	10,186
1019,1	9,957
1019,5	8,214
1019,9	5,5
1020,3	4,471
1020,7	-5,7
1021,1	-2,929
1021,6	-1,1
1022	1,786
1022,4	-4,1
1022,8	-4,729
1023,2	-1,414
1023,6	1,529
1024,1	8,1
1024,5	1,243
1024,9	-1,529
1025,3	1,786
1025,7	3,586
1026,1	5,7
1026,6	6,814
1027	1,014
1027,4	-3,471
1027,8	-2,043
1028,2	1,3
1028,6	-0,071
1029	-6,043
1029,5	-8,329
1029,9	-12,957
1030,3	-4,243
1030,7	-3,557
1031,1	-5,529
1031,5	-6,271
1032	-3,329
1032,4	1,186
1032,8	5,386
1033,2	5,586
1033,6	4,643
1034	5,271
1034,4	7,529
1034,9	8,071
1035,3	7,243
1035,7	10,929
1036,1	12,643
1036,5	12,986
1036,9	12,157
1037,4	13,157
1037,8	10,243
1038,2	11,529
1038,6	7,443
1039	5,186
1039,4	3,157
1039,8	2,5
1040,3	6,5
1040,7	6,9
1041,1	4,443
1041,5	3,243
1041,9	3,7
1042,3	6,757
1042,7	8,671
1043,2	4,843
1043,6	1,157
1044	3,586
1044,4	9,329
1044,8	8,757
1045,2	3,843
1045,6	0,843
1046,1	0,529
1046,5	7,157
1046,9	9,929
1047,3	8,557
1047,7	7,757
1048,1	10,129
1048,5	11,929
1049	17,871
1049,4	17,3
1049,8	12,357
1050,2	11,071
1050,6	13,186
1051	15,271
1051,4	11,614
1051,9	3,414
1052,3	7,129
1052,7	8,529
1053,1	11,586
1053,5	8,786
1053,9	6,443
1054,3	8,043
1054,8	13,386
1055,2	9,129
1055,6	8,214
1056	3,957
1056,4	8,986
1056,8	8,329
1057,2	5,986
1057,6	-1,843
1058,1	0,271
1058,5	-0,586
1058,9	1,157
1059,3	4,071
1059,7	5,529
1060,1	12,843
1060,5	21,214
1061	19,957
1061,4	19,186
1061,8	22,414
1062,2	16,986
1062,6	15,471
1063	9,986
1063,4	9,414
1063,8	6,786
1064,3	14,186
1064,7	8,157
1065,1	9,757
1065,5	7,986
1065,9	6,443
1066,3	6,386
1066,7	7,329
1067,1	3,3
1067,6	6,129
1068	0,271
1068,4	2,786
1068,8	5,186
1069,2	2,186
1069,6	1,214
1070	4,129
1070,4	1,929
1070,9	3,7
1071,3	5,357
1071,7	11,071
1072,1	13,5
1072,5	11,671
1072,9	9,871
1073,3	11,643
1073,7	10,243
1074,2	9,7
1074,6	0,814
1075	-1,443
1075,4	2,129
1075,8	3,757
1076,2	6,414
1076,6	11,3
1077	9,671
1077,5	18,729
1077,9	19,757
1078,3	19,386
1078,7	15,414
1079,1	12,986
1079,5	12,271
1079,9	14,071
1080,3	5,271
1080,7	3,814
1081,2	1,7
1081,6	1,9
1082	-1,957
1082,4	-2,129
1082,8	-4,529
1083,2	-1,043
1083,6	-1,014
1084	0,1
1084,5	-1,014
1084,9	1,014
1085,3	-4,243
1085,7	-2,671
1086,1	-3,414
1086,5	-7,529
1086,9	-7,414
1087,3	-1,843
1087,7	-3,929
1088,2	-0,329
1088,6	0,129
1089	1,671
1089,4	5,329
1089,8	6,443
1090,2	0,843
1090,6	3,186
1091	8,214
1091,4	8,043
1091,9	9,186
1092,3	12,5
1092,7	8,443
1093,1	9,614
1093,5	7,614
1093,9	3,443
1094,3	0,586
1094,7	-1,586
1095,1	-1,871
1095,5	2,186
1096	6,929
1096,4	11,043
1096,8	13,043
1097,2	17,186
1097,6	18,243
1098	18,871
1098,4	18,986
1098,8	12,471
1099,2	7,986
1099,6	6,443
1100,1	4,9
1100,5	3,757
1100,9	-1,5
1101,3	-6,643
1101,7	-4,614
1102,1	0,386
1102,5	-2,586
1102,9	0,014
1103,3	-3,986
1103,7	-1,871
1104,2	3,186
1104,6	1,271
1105	0,529
1105,4	2,271
1105,8	-1,871
1106,2	2,243
1106,6	1,814
1107	0,786
1107,4	2,467
1107,8	0,54
1108,3	0,3
