Data from Subt2_112.txt Node
Date: Sat Aug 26 18:21:23 MSK 2023
User: vat
Spectrometer: MAYP114033
Trigger mode: 0
Integration Time (sec): 1,000000E0
Scans to average: 5
Electric dark correction enabled: true
Nonlinearity correction enabled: false
Boxcar width: 3
XAxis mode: Wavelengths
Number of Pixels in Spectrum: 2068
>>>>>Begin Spectral Data<<<<<
199,4	-0,567
199,9	1,633
200,4	1,533
200,8	1,49
201,3	-1,967
201,8	3,033
202,2	1,462
202,7	4,89
203,2	2,376
203,6	-1,024
204,1	-4,567
204,6	-2,195
205	-5,738
205,5	-4,852
206	-5,881
206,4	-7,167
206,9	-4,167
207,4	2,233
207,8	5,89
208,3	4,948
208,8	4,062
209,2	2,805
209,7	6,462
210,2	4,805
210,6	1,948
211,1	-0,281
211,5	-3,31
212	-1,995
212,5	1,576
212,9	-2,795
213,4	-2,71
213,9	-4,852
214,3	-6,195
214,8	0,348
215,3	1,376
215,7	-3,024
216,2	1,348
216,7	2,862
217,1	4,805
217,6	7,09
218,1	2,576
218,5	-1,424
219	-4,452
219,5	-6,652
219,9	-9,795
220,4	-2,481
220,9	-1,938
221,3	1,148
221,8	7,519
222,3	12,319
222,7	13,805
223,2	16,348
223,6	9,033
224,1	3,976
224,6	5,833
225	-0,338
225,5	-2,138
226	-1,938
226,4	0,69
226,9	2,09
227,4	5,748
227,8	-0,881
228,3	2,119
228,8	-1,852
229,2	-2,71
229,7	-6,052
230,2	-5,567
230,6	-1,252
231,1	6,776
231,5	6,748
232	13,176
232,5	11,833
232,9	16,319
233,4	15,748
233,9	9,89
234,3	5,605
234,8	8,776
235,3	5,262
235,7	10,205
236,2	7,919
236,7	4,719
237,1	9,319
237,6	7,919
238,1	1,176
238,5	-3,052
239	-2,767
239,4	0,29
239,9	2,062
240,4	0,033
240,8	0,119
241,3	2,633
241,8	3,919
242,2	0,462
242,7	-2,967
243,2	-4,024
243,6	-1,71
244,1	1,862
244,6	2,633
245	4,062
245,5	6,005
245,9	3,605
246,4	4,919
246,9	0,89
247,3	0,519
247,8	-0,567
248,3	1,033
248,7	0,49
249,2	3,205
249,7	2,176
250,1	3,462
250,6	1,976
251	6,433
251,5	6,576
252	4,919
252,4	6,29
252,9	5,176
253,4	0,405
253,8	-2,052
254,3	-3,624
254,8	1,205
255,2	1,405
255,7	-4,738
256,1	-2,195
256,6	1,948
257,1	1,89
257,5	-2,481
258	-6,71
258,5	-7,795
258,9	-5,395
259,4	-4,652
259,9	-2,452
260,3	-1,538
260,8	-3,424
261,2	-3,824
261,7	0,348
262,2	-1,881
262,6	-0,91
263,1	-0,852
263,6	1,09
264	8,69
264,5	8,262
264,9	4,833
265,4	10,062
265,9	5,89
266,3	6,719
266,8	5,119
267,3	1,948
267,7	-0,224
268,2	-0,424
268,7	-2,652
269,1	-1,595
269,6	-3,824
270	-1,652
270,5	-6,224
271	-2,967
271,4	-1,052
271,9	-5,652
272,4	-2,567
272,8	-3,367
273,3	-8,852
273,7	-4,852
274,2	-3,338
274,7	-5,452
275,1	-1,367
275,6	-5,624
276,1	-8,424
276,5	-3,252
277	-2,652
277,4	-2,595
277,9	-2,252
278,4	-1,738
278,8	2,233
279,3	5,519
279,8	2,176
280,2	3,633
280,7	3,405
281,1	2,548
281,6	3,605
282,1	1,776
282,5	1,69
283	1,605
283,4	-2,51
283,9	-1,424
284,4	2,348
284,8	1,033
285,3	-1,338
285,8	-2,11
286,2	-3,51
286,7	0,033
287,1	-5,652
287,6	-12,11
288,1	-17,338
288,5	-13,31
289	-11,538
289,5	-5,338
289,9	-7,567
290,4	-2,281
290,8	-1,167
291,3	3,433
291,8	6,49
292,2	4,833
292,7	2,662
293,1	2,976
293,6	3,69
294,1	6,319
294,5	6,948
295	3,576
295,5	0,433
295,9	0,405
296,4	1,49
296,8	-0,738
297,3	-2,252
297,8	-6,395
298,2	-11,281
298,7	-4,681
299,1	-8,367
299,6	-10,252
300,1	-7,51
300,5	-5,195
301	-0,224
301,5	10,376
301,9	3,319
302,4	2,576
302,8	4,262
303,3	-0,11
303,8	-4,024
304,2	-0,481
304,7	-7,795
305,1	-6,652
305,6	-0,052
306,1	4,033
306,5	6,862
307	11,548
307,4	8,833
307,9	6,948
308,4	7,348
308,8	1,519
309,3	-2,881
309,8	-4,538
310,2	-4,338
310,7	-7,281
311,1	-5,938
311,6	-2,767
312,1	3,405
312,5	6,462
313	9,633
313,4	7,862
313,9	10,348
314,4	8,833
314,8	7,662
315,3	2,719
315,7	-4,138
316,2	-8,567
316,7	-10,767
317,1	-4,938
317,6	-3,195
318	0,605
318,5	1,119
319	1,633
319,4	7,148
319,9	15,719
320,3	9,89
320,8	10,89
321,3	9,405
321,7	10,348
322,2	13,948
322,6	10,548
323,1	5,29
323,6	3,262
324	2,176
324,5	0,119
324,9	3,948
325,4	2,148
325,9	4,062
326,3	6,319
326,8	8,833
327,2	5,148
327,7	3,776
328,2	-3,881
328,6	-3,595
329,1	-7,595
329,5	-10,595
330	-14,224
330,5	-7,081
330,9	-4,052
331,4	-3,51
331,8	-2,138
332,3	-0,881
332,8	-1,052
333,2	2,462
333,7	2,29
334,1	5,205
334,6	5,576
335,1	3,605
335,5	3,462
336	3,005
336,4	4,205
336,9	8,833
337,4	4,776
337,8	6,748
338,3	8,176
338,7	12,348
339,2	11,148
339,7	14,462
340,1	7,062
340,6	6,09
341	6,176
341,5	7,29
342	2,519
342,4	1,205
342,9	-2,567
343,3	-2,167
343,8	-0,938
344,2	4,433
344,7	6,948
345,2	4,576
345,6	6,919
346,1	8,719
346,5	7,605
347	3,576
347,5	0,205
347,9	2,29
348,4	6,376
348,8	8,576
349,3	10,805
349,8	15,148
350,2	20,376
350,7	15,919
351,1	11,005
351,6	13,89
352	15,205
352,5	11,805
353	11,976
353,4	13,433
353,9	24,633
354,3	32,176
354,8	34,662
355,3	49,405
355,7	61,948
356,2	78,29
356,6	91,233
357,1	107,319
357,5	127,576
358	152,233
358,5	165,948
358,9	189,605
359,4	215,605
359,8	249,319
360,3	284,976
360,8	319,062
361,2	361,805
361,7	415,49
362,1	475,833
362,6	539,233
363	606,148
363,5	672,862
364	755,062
364,4	832,548
364,9	905,919
365,3	980,09
365,8	1045,148
366,3	1109,005
366,7	1170,862
367,2	1218,69
367,6	1258,033
368,1	1295,948
368,5	1312,662
369	1322,176
369,5	1329,176
369,9	1316,09
370,4	1293,919
370,8	1268,805
371,3	1229,805
371,7	1187,433
372,2	1142,462
372,7	1082,033
373,1	1026,09
373,6	965,576
374	905,033
374,5	841,29
374,9	787,833
375,4	728,919
375,9	675,348
376,3	622,233
376,8	573,319
377,2	527,976
377,7	482,776
378,2	438,176
378,6	401,119
379,1	368,49
379,5	341,176
380	320,862
380,4	288,376
380,9	266,633
381,4	242,69
381,8	228,719
382,3	215,205
382,7	199,262
383,2	182,662
383,6	173,148
384,1	164,176
384,6	155,148
385	142,462
385,5	130,148
385,9	117,119
386,4	105,262
386,8	98,833
387,3	88,748
387,7	83,976
388,2	78,719
388,7	70,89
389,1	70,233
389,6	65,49
390	63,205
390,5	66,148
390,9	64,719
391,4	60,433
391,9	58,062
392,3	57,976
392,8	56,433
393,2	51,948
393,7	45,319
394,1	38,462
394,6	33,862
395,1	35,376
395,5	28,662
396	28,319
396,4	30,348
396,9	29,062
397,3	33,89
397,8	37,119
398,2	37,119
398,7	39,462
399,2	40,976
399,6	39,376
400,1	43,09
400,5	38,376
401	37,548
401,4	33,062
401,9	33,233
402,4	34,519
402,8	29,719
403,3	32,948
403,7	32,662
404,2	35,976
404,6	41,862
405,1	45,748
405,5	40,49
406	45,976
406,5	41,89
406,9	47,605
407,4	48,805
407,8	50,148
408,3	54,233
408,7	60,719
409,2	68,262
409,6	75,262
410,1	83,29
410,6	89,033
411	93,776
411,5	94,576
411,9	102,776
412,4	108,633
412,8	119,462
413,3	125,462
413,7	135,005
414,2	143,005
414,7	159,948
415,1	171,662
415,6	186,833
416	193,948
416,5	205,176
416,9	214,633
417,4	232,148
417,8	249,433
418,3	265,919
418,8	279,862
419,2	296,519
419,7	315,005
420,1	337,148
420,6	352,548
421	363,719
421,5	382,405
421,9	402,319
422,4	425,376
422,8	450,09
423,3	471,148
423,8	496,29
424,2	521,605
424,7	549,319
425,1	579,89
425,6	613,49
426	642,805
426,5	677,748
426,9	719,776
427,4	753,433
427,9	786,148
428,3	826,348
428,8	864,319
429,2	906,433
429,7	949,919
430,1	990,176
430,6	1049,776
431	1109,319
431,5	1165,205
431,9	1224,519
432,4	1287,119
432,8	1357,119
433,3	1430,919
433,8	1498,605
434,2	1571,233
434,7	1646,176
435,1	1731,09
435,6	1823,09
436	1910,633
436,5	1998,405
436,9	2091,548
437,4	2191,176
437,8	2298,176
438,3	2403,948
438,8	2516,376
439,2	2635,233
439,7	2763,776
440,1	2892,776
440,6	3029,09
441	3157,49
441,5	3296,348
441,9	3435,462
442,4	3577,719
442,8	3722,633
443,3	3887,205
443,7	4045,148
444,2	4219,462
444,7	4397,005
445,1	4579,376
445,6	4767,233
446	4958,919
446,5	5154,29
446,9	5350,605
447,4	5552,576
447,8	5757,348
448,3	5969,49
448,7	6191,319
449,2	6417,405
449,6	6632,29
450,1	6863,462
450,6	7109,548
451	7341,662
451,5	7588,062
451,9	7842,319
452,4	8100,948
452,8	8358,205
453,3	8626,919
453,7	8883,005
454,2	9165,205
454,6	9442,376
455,1	9711,976
455,5	9989,948
456	10278,548
456,4	10563,005
456,9	10858,348
457,3	11147,005
457,8	11441,748
458,3	11746,148
458,7	12046,09
459,2	12349,49
459,6	12656,119
460,1	12967,233
460,5	13279,262
461	13590,948
461,4	13899,605
461,9	14203,205
462,3	14526,205
462,8	14845,976
463,2	15162,462
463,7	15484,405
464,1	15796,148
464,6	16116,576
465	16442,719
465,5	16750,776
466	17068,405
466,4	17368,062
466,9	17681,062
467,3	17983,662
467,8	18283,662
468,2	18589,148
468,7	18899,09
469,1	19193,205
469,6	19497,662
470	19792,833
470,5	20086,662
470,9	20376,833
471,4	20652,433
471,8	20916,948
472,3	21183,862
472,7	21442,776
473,2	21688,433
473,6	21946,49
474,1	22197,033
474,5	22444,433
475	22691,89
475,4	22940,605
475,9	23182,033
476,4	23409,605
476,8	23626,462
477,3	23831,805
477,7	24042,89
478,2	24239,033
478,6	24424,576
479,1	24598,005
479,5	24783,519
480	24950,89
480,4	25112,262
480,9	25268,89
481,3	25422,29
481,8	25558,548
482,2	25698,633
482,7	25816,033
483,1	25938,148
483,6	26044,833
484	26126,062
484,5	26212,605
484,9	26287,205
485,4	26360,433
485,8	26430,319
486,3	26497,319
486,7	26541,033
487,2	26603,262
487,6	26640,205
488,1	26677,605
488,5	26709,576
489	26723,833
489,4	26716,062
489,9	26723,233
490,4	26718,462
490,8	26696,462
491,3	26666,233
491,7	26629,148
492,2	26595,348
492,6	26559,262
493,1	26518,805
493,5	26446,719
494	26383,176
494,4	26333,376
494,9	26245,919
495,3	26162,948
495,8	26079,976
496,2	25993,805
496,7	25908,033
497,1	25829,376
497,6	25711,548
498	25617,176
498,5	25512,205
498,9	25405,49
499,4	25287,319
499,8	25175,69
500,3	25046,29
500,7	24926,262
501,2	24804,433
501,6	24676,205
502,1	24537,748
502,5	24396,719
503	24247,919
503,4	24117,062
503,9	23960,548
504,3	23809,919
504,8	23649,833
505,2	23503,348
505,7	23351,69
506,1	23191,376
506,6	22998,748
507	22848,776
507,5	22662,948
507,9	22499,262
508,4	22311,062
508,8	22118,319
509,3	21941,49
509,7	21778,748
510,2	21586,319
510,6	21410,948
511,1	21222,605
511,5	21038,405
512	20875,262
512,4	20694,376
512,9	20503,89
513,3	20333,262
513,8	20151,29
514,2	19960,519
514,7	19766,948
515,1	19568,233
515,6	19376,233
516	19180,005
516,5	18981,748
516,9	18792,69
517,4	18602,233
517,8	18418,119
518,3	18222,233
518,7	18025,148
519,2	17834,462
519,6	17634,862
520,1	17444,948
520,5	17253,433
521	17061,805
521,4	16881,748
521,9	16699,033
522,3	16520,576
522,8	16334,033
523,2	16149,519
523,7	15976,862
524,1	15796,319
524,6	15609,376
525	15436,605
525,5	15264,233
525,9	15114,348
526,4	14941,776
526,8	14772,548
527,3	14613,605
527,7	14466,119
528,2	14299,919
528,6	14132,662
529,1	13965,89
529,5	13814,919
530	13660,576
530,4	13506,776
530,9	13335,319
531,3	13189,062
531,8	13052,633
532,2	12901,89
532,6	12750,49
533,1	12598,433
533,5	12457,605
534	12330,233
534,4	12181,119
534,9	12035,033
535,3	11894,176
535,8	11758,233
536,2	11626,748
536,7	11487,405
537,1	11343,005
537,6	11223,433
538	11099,576
538,5	10974,519
538,9	10848,919
539,4	10721,148
539,8	10599,405
540,3	10493,148
540,7	10372,348
541,2	10253,005
541,6	10143,633
542,1	10034,148
542,5	9930,633
543	9817,576
543,4	9700,319
543,9	9589,233
544,3	9491,005
544,8	9379,233
545,2	9270,262
545,7	9172,49
546,1	9086,062
546,5	8989,976
547	8896,605
547,4	8787,176
547,9	8691,576
548,3	8606,69
548,8	8506,205
549,2	8401,205
549,7	8312,805
550,1	8223,833
550,6	8141,519
551	8059,576
551,5	7974,919
551,9	7889,49
552,4	7814,833
552,8	7730,462
553,3	7650,976
553,7	7568,919
554,2	7492,062
554,6	7414,205
555,1	7349,319
555,5	7272,633
555,9	7208,233
556,4	7139,405
556,8	7073,576
557,3	7004,005
557,7	6934,633
558,2	6864,776
558,6	6797,548
559,1	6724,205
559,5	6658,376
560	6592,376
560,4	6530,119
560,9	6462,548
561,3	6394,662
561,8	6328,433
562,2	6267,119
562,7	6203,919
563,1	6156,976
563,6	6099,119
564	6047,205
564,4	5993,233
564,9	5947,662
565,3	5893,605
565,8	5840,462
566,2	5776,405
566,7	5726,833
567,1	5678,405
567,6	5631,319
568	5579,148
568,5	5535,719
568,9	5485,433
569,4	5435,833
569,8	5384,119
570,3	5331,233
570,7	5276,176
571,1	5231,833
571,6	5181,119
572	5137,119
572,5	5094,262
572,9	5046,719
573,4	5003,405
573,8	4964,605
574,3	4914,148
574,7	4874,062
575,2	4832,119
575,6	4784,376
576,1	4743,519
576,5	4708,719
576,9	4659,376
577,4	4620,319
577,8	4574,776
578,3	4530,662
578,7	4492,062
579,2	4458,29
579,6	4413,405
580,1	4382,29
580,5	4348,748
581	4313,348
581,4	4281,062
581,9	4246,262
582,3	4208,176
582,7	4171,633
583,2	4131,319
583,6	4095,576
584,1	4067,148
584,5	4032,519
585	4001,005
585,4	3964,062
585,9	3930,605
586,3	3905,205
586,8	3869,805
587,2	3834,719
587,6	3802,633
588,1	3772,148
588,5	3743,576
589	3718,576
589,4	3690,776
589,9	3662,09
590,3	3632,348
590,8	3608,462
591,2	3588,633
591,7	3566,89
592,1	3538,005
592,5	3513,319
593	3486,548
593,4	3463,605
593,9	3438,462
594,3	3402,433
594,8	3371,062
595,2	3348,005
595,7	3318,69
596,1	3298,833
596,6	3276,062
597	3246,862
597,4	3234,805
597,9	3212,805
598,3	3196,376
598,8	3174,948
599,2	3148,062
599,7	3127,148
600,1	3107,833
600,6	3079,976
601	3060,576
601,4	3036,49
601,9	3019,748
602,3	3001,462
602,8	2974,29
603,2	2950,348
603,7	2929,405
604,1	2915,919
604,6	2890,29
605	2870,576
605,4	2853,833
605,9	2834,119
606,3	2814,89
606,8	2792,576
607,2	2767,519
607,7	2744,833
608,1	2722,205
608,6	2707,862
609	2696,833
609,4	2681,262
609,9	2667,062
610,3	2647,862
610,8	2626,119
611,2	2605,89
611,7	2578,433
612,1	2555,919
612,6	2537,719
613	2520,005
613,4	2502,862
613,9	2493,005
614,3	2475,005
614,8	2461,748
615,2	2439,29
615,7	2425,433
616,1	2408,605
616,6	2388,862
617	2373,062
617,4	2356,433
617,9	2342,776
618,3	2332,976
618,8	2315,176
619,2	2301,862
619,7	2286,776
620,1	2270,748
620,5	2259,205
621	2234,09
621,4	2215,69
621,9	2199,005
622,3	2181,148
622,8	2164,662
623,2	2150,576
623,6	2132,433
624,1	2125,005
624,5	2108,662
625	2095,262
625,4	2080,376
625,9	2067,89
626,3	2052,005
626,8	2034,119
627,2	2019,89
627,6	2004,09
628,1	1987,033
628,5	1969,862
629	1953,605
629,4	1936,319
629,9	1924,262
630,3	1905,119
630,7	1890,719
631,2	1880,233
631,6	1868,148
632,1	1853,462
632,5	1836,062
633	1824,833
633,4	1813,748
633,8	1802,49
634,3	1781,948
634,7	1764,148
635,2	1752,176
635,6	1743,09
636,1	1730,69
636,5	1713,49
636,9	1694,89
637,4	1687,176
637,8	1676,862
638,3	1664,633
638,7	1653,49
639,2	1638,633
639,6	1629,005
640	1628,833
640,5	1620,433
640,9	1608,462
641,4	1597,348
641,8	1588,633
642,2	1579,576
642,7	1576,062
643,1	1564,719
643,6	1545,09
644	1535,976
644,5	1524,462
644,9	1513,719
645,3	1500,233
645,8	1484,776
646,2	1471,576
646,7	1472,776
647,1	1460,433
647,6	1456,262
648	1451,319
648,4	1443,69
648,9	1435,005
649,3	1422,148
649,8	1405,376
650,2	1400,776
650,6	1388,119
651,1	1374,919
651,5	1366,548
652	1354,662
652,4	1343,519
652,9	1338,548
653,3	1325,976
653,7	1313,433
654,2	1302,033
654,6	1289,69
655,1	1286,405
655,5	1287,319
655,9	1273,433
656,4	1271,29
656,8	1266,262
657,3	1257,062
657,7	1253,005
658,2	1234,919
658,6	1218,376
659	1215,748
659,5	1197,719
659,9	1186,748
660,4	1183,776
660,8	1169,833
661,2	1164,833
661,7	1162,919
662,1	1150,319
662,6	1145,262
663	1138,976
663,4	1125,576
663,9	1122,176
664,3	1113,033
664,8	1096,09
665,2	1084,062
665,6	1072,148
666,1	1066,776
666,5	1057,348
667	1047,69
667,4	1037,09
667,9	1032,262
668,3	1025,49
668,7	1019,633
669,2	1011,948
669,6	1004,319
670,1	1001,348
670,5	995,633
670,9	988,69
671,4	987,462
671,8	981,519
672,3	976,833
672,7	975,433
673,1	964,005
673,6	961,405
674	957,948
674,5	945,662
674,9	935,976
675,3	924,462
675,8	915,776
676,2	908,033
676,7	895,748
677,1	885,605
677,5	880,433
678	877,605
678,4	877,09
678,9	871,348
679,3	864,233
679,7	863,176
680,2	852,433
680,6	843,262
681,1	838,89
681,5	829,748
681,9	821,433
682,4	817,462
682,8	816,976
683,3	818,862
683,7	819,976
684,1	812,776
684,6	805,119
685	799,062
685,5	794,748
685,9	779,062
686,3	772,176
686,8	764,462
687,2	760,09
687,7	750,176
688,1	741,719
688,5	735,29
689	735,348
689,4	725,319
689,9	719,148
690,3	708,948
690,7	708,09
691,2	707,062
691,6	703,319
692	696,748
692,5	695,948
692,9	693,662
693,4	691,948
693,8	685,719
694,2	678,405
694,7	672,948
695,1	666,776
695,6	662,033
696	654,233
696,4	646,205
696,9	636,719
697,3	626,405
697,8	618,976
698,2	613,462
698,6	611,576
699,1	604,29
699,5	603,976
699,9	601,69
700,4	601,348
700,8	600,119
701,3	599,148
701,7	587,49
702,1	583,776
702,6	579,319
703	579,09
703,5	575,205
703,9	567,176
704,3	563,462
704,8	562,09
705,2	558,548
705,6	554,176
706,1	545,69
706,5	544,005
707	544,576
707,4	538,662
707,8	533,148
708,3	531,748
708,7	528,005
709,2	525,262
709,6	519,433
710	518,205
710,5	511,49
710,9	512,348
711,3	507,69
711,8	505,319
712,2	502,29
712,7	498,69
713,1	491,948
713,5	491,605
714	484,262
714,4	477,49
714,8	475,633
715,3	468,776
715,7	467,376
716,2	461,69
716,6	460,862
717	455,119
717,5	452,805
717,9	446,833
718,3	443,919
718,8	438,376
719,2	438,319
719,7	434,462
720,1	437,148
720,5	438,605
721	434,148
721,4	432,919
721,8	435,576
722,3	423,89
722,7	421,29
723,2	410,719
723,6	399,233
724	396,576
724,5	392,776
724,9	383,29
725,3	383,49
725,8	377,205
726,2	375,633
726,7	377,633
727,1	376,062
727,5	376,462
728	372,29
728,4	371,119
728,8	366,605
729,3	365,176
729,7	357,29
730,1	350,948
730,6	349,49
731	351,205
731,5	350,833
731,9	351,919
732,3	353,519
732,8	356,805
733,2	355,433
733,6	351,376
734,1	348,862
734,5	341,09
734,9	340,005
735,4	337,29
735,8	330,233
736,3	330,633
736,7	327,833
737,1	325,805
737,6	326,805
738	320,833
738,4	315,719
738,9	317,662
739,3	313,119
739,7	313,433
740,2	309,576
740,6	310,862
741,1	314,833
741,5	309,09
741,9	307,005
742,4	306,433
742,8	302,719
743,2	301,948
743,7	291,119
744,1	284,719
744,5	284,833
745	282,576
745,4	283,062
745,8	278,69
746,3	276,919
746,7	279,919
747,2	277,405
747,6	281,033
748	283,548
748,5	282,976
748,9	284,205
749,3	279,69
749,8	280,548
750,2	281,662
750,6	278,205
751,1	279,033
751,5	274,662
751,9	274,148
752,4	278,662
752,8	274,062
753,3	271,948
753,7	269,405
754,1	259,233
754,6	255,433
755	246,833
755,4	239,033
755,9	236,262
756,3	229,433
756,7	228,49
757,2	232,548
757,6	231,519
758	232,348
758,5	233,233
758,9	232,748
759,3	235,462
759,8	235,862
760,2	229,69
760,6	225,176
761,1	224,89
761,5	222,805
761,9	217,776
762,4	212,233
762,8	209,49
763,3	206,462
763,7	210,319
764,1	209,719
764,6	207,148
765	213,433
765,4	214,262
765,9	211,633
766,3	214,376
766,7	209,176
767,2	205,262
767,6	208,062
768	202,69
768,5	202,976
768,9	202,948
769,3	197,519
769,8	197,548
770,2	201,062
770,6	194,948
771,1	199,29
771,5	201,148
771,9	201,405
772,4	207,548
772,8	206,576
773,2	205,69
773,7	203,862
774,1	198,433
774,5	188,376
775	185,605
775,4	180,662
775,8	175,776
776,3	173,205
776,7	174,09
777,1	175,89
777,6	179,09
778	180,148
778,4	178,976
778,9	185,719
779,3	184,405
779,7	181,776
780,2	181,576
780,6	182,376
781	174,148
781,5	169,433
781,9	165,862
782,3	162,948
782,8	162,376
783,2	160,005
783,6	156,69
784,1	154,89
784,5	154,605
784,9	152,833
785,4	152,919
785,8	158,605
786,2	153,719
786,7	153,633
787,1	155,89
787,5	156,519
788	153,205
788,4	154,148
788,8	149,948
789,3	148,233
789,7	151,805
790,1	153,69
790,6	151,976
791	149,976
791,4	149,548
791,9	143,062
792,3	141,633
792,7	136,633
793,2	132,205
793,6	135,005
794	135,89
794,5	131,49
794,9	137,948
795,3	142,833
795,8	137,89
796,2	138,633
796,6	136,005
797,1	132,348
797,5	128,29
797,9	120,833
798,4	113,633
798,8	117,49
799,2	116,376
799,7	116,976
800,1	116,348
800,5	117,09
801	120,462
801,4	121,89
801,8	119,033
802,2	117,262
802,7	113,319
803,1	117,29
803,5	114,062
804	111,805
804,4	111,719
804,8	111,148
805,3	115,433
805,7	115,376
806,1	114,605
806,6	118,205
807	112,576
807,4	110,433
807,9	109,719
808,3	103,433
808,7	103,49
809,2	101,948
809,6	104,576
810	105,005
810,4	104,062
810,9	101,662
811,3	103,948
811,7	104,49
812,2	105,119
812,6	101,462
813	109,89
813,5	112,29
813,9	113,69
814,3	110,605
814,8	105,548
815,2	101,89
815,6	101,005
816,1	94,176
816,5	93,376
816,9	91,69
817,3	94,776
817,8	101,89
818,2	104,348
818,6	102,633
819,1	102,119
819,5	96,89
819,9	98,776
820,4	96,805
820,8	87,176
821,2	81,719
821,7	83,719
822,1	83,376
822,5	90,29
822,9	89,09
823,4	89,233
823,8	93,748
824,2	94,205
824,7	88,433
825,1	82,605
825,5	73,319
826	68,719
826,4	64,748
826,8	61,805
827,3	65,205
827,7	66,09
828,1	71,005
828,5	72,633
829	70,948
829,4	67,748
829,8	61,776
830,3	57,976
830,7	57,748
831,1	56,519
831,6	55,548
832	57,09
832,4	59,148
832,8	64,633
833,3	66,005
833,7	63,376
834,1	65,205
834,6	62,976
835	68,462
835,4	68,833
835,8	63,805
836,3	62,062
836,7	62,976
837,1	61,462
837,6	64,719
838	59,433
838,4	58,919
838,9	65,605
839,3	63,833
839,7	67,976
840,1	62,548
840,6	59,633
841	61,49
841,4	61,176
841,9	60,719
842,3	62,233
842,7	57,005
843,1	61,462
843,6	65,09
844	63,09
844,4	67,833
844,9	65,119
845,3	64,89
845,7	66,89
846,2	64,633
846,6	61,176
847	61,262
847,4	56,548
847,9	55,033
848,3	50,69
848,7	48,548
849,2	50,719
849,6	47,89
850	51,405
850,4	52,348
850,9	55,719
851,3	58,262
851,7	58,69
852,2	59,262
852,6	63,69
853	61,433
853,4	59,862
853,9	54,033
854,3	54,805
854,7	59,033
855,2	52,49
855,6	50,576
856	46,148
856,4	43,776
856,9	44,69
857,3	45,09
857,7	44,976
858,2	50,319
858,6	52,519
859	55,519
859,4	56,205
859,9	54,776
860,3	48,233
860,7	44,805
861,1	44,519
861,6	38,862
862	36,319
862,4	36,033
862,9	37,833
863,3	43,748
863,7	43,805
864,1	42,262
864,6	41,233
865	44,233
865,4	46,205
865,9	46,405
866,3	40,776
866,7	37,176
867,1	32,919
867,6	34,89
868	29,948
868,4	27,576
868,8	25,948
869,3	30,69
869,7	33,233
870,1	32,862
870,6	33,548
871	13,89
871,4	14,948
871,8	11,176
872,3	10,29
872,7	11,148
873,1	14,005
873,5	15,748
874	35,176
874,4	33,09
874,8	34,033
875,3	34,49
875,7	32,433
876,1	29,519
876,5	31,519
877	32,633
877,4	30,633
877,8	36,748
878,2	36,119
878,7	34,919
879,1	40,29
879,5	39,833
879,9	40,319
880,4	43,89
880,8	40,719
881,2	35,462
881,7	33,976
882,1	30,89
882,5	25,205
882,9	24,033
883,4	20,89
883,8	22,005
884,2	25,433
884,6	24,605
885,1	24,49
885,5	27,062
885,9	27,776
886,3	31,262
886,8	27,519
887,2	23,49
887,6	24,69
888	24,033
888,5	23,919
888,9	22,719
889,3	14,919
889,8	15,633
890,2	16,09
890,6	15,205
891	12,548
891,5	9,29
891,9	9,433
892,3	11,919
892,7	12,005
893,2	17,319
893,6	17,805
894	23,919
894,4	24,062
894,9	21,462
895,3	22,176
895,7	21,862
896,1	14,833
896,6	16,09
897	15,748
897,4	20,776
897,8	22,976
898,3	23,519
898,7	21,519
899,1	24,148
899,5	21,205
900	12,233
900,4	5,376
900,8	0,748
901,2	2,519
901,7	1,548
902,1	3,89
902,5	5,462
902,9	7,519
903,4	12,519
903,8	12,548
904,2	7,633
904,6	10,062
905,1	7,348
905,5	4,662
905,9	7,719
906,3	8,062
906,8	15,233
907,2	16,176
907,6	15,433
908	17,119
908,5	17,976
908,9	13,176
909,3	9,919
909,7	5,605
910,2	5,005
910,6	9,976
911	5,548
911,4	6,833
911,9	10,376
912,3	7,005
912,7	10,09
913,1	15,176
913,6	7,633
914	9,605
914,4	5,862
914,8	5,433
915,3	4,719
915,7	3,29
916,1	-1,795
916,5	3,719
916,9	3,462
917,4	7,69
917,8	10,919
918,2	15,09
918,6	11,976
919,1	13,69
919,5	13,29
919,9	13,319
920,3	9,29
920,8	5,033
921,2	3,805
921,6	4,862
922	3,976
922,5	4,405
922,9	8,033
923,3	9,862
923,7	11,633
924,2	9,548
924,6	10,119
925	11,89
925,4	5,833
925,8	4,805
926,3	4,748
926,7	2,805
927,1	6,405
927,5	8,033
928	2,862
928,4	0,89
928,8	-1,767
929,2	-0,738
929,7	2,776
930,1	2,49
930,5	1,405
930,9	4,976
931,3	9,976
931,8	14,605
932,2	16,119
932,6	11,633
933	5,633
933,5	5,205
933,9	7,576
934,3	4,948
934,7	-1,795
935,2	-3,767
935,6	-3,652
936	1,262
936,4	3,548
936,8	7,176
937,3	6,605
937,7	11,633
938,1	14,319
938,5	12,233
939	11,176
939,4	9,719
939,8	2,662
940,2	1,49
940,6	0,49
941,1	-1,252
941,5	4,662
941,9	4,49
942,3	2,748
942,8	7,176
943,2	13,662
943,6	8,976
944	10,376
944,4	8,005
944,9	5,262
945,3	4,433
945,7	-2,281
946,1	-7,824
946,6	-7,11
947	-13,51
947,4	-11,738
947,8	-7,024
948,2	-8,024
948,7	-4,395
949,1	0,005
949,5	6,033
949,9	10,862
950,3	8,462
950,8	6,119
951,2	10,605
951,6	9,376
952	12,433
952,5	5,062
952,9	6,319
953,3	3,205
953,7	8,433
954,1	8,09
954,6	10,519
955	6,09
955,4	6,976
955,8	8,233
956,2	14,433
956,7	12,233
957,1	9,433
957,5	6,89
957,9	6,833
958,3	9,376
958,8	8,576
959,2	6,948
959,6	5,033
960	2,433
960,5	5,233
960,9	7,005
961,3	7,605
961,7	2,519
962,1	-0,71
962,6	-0,567
963	2,433
963,4	-2,338
963,8	-5,338
964,2	-1,938
964,7	2,805
965,1	7,719
965,5	8,119
965,9	3,919
966,3	8,548
966,8	9,376
967,2	7,205
967,6	5,29
968	-1,481
968,4	-4,91
968,9	0,49
969,3	-1,138
969,7	-7,538
970,1	-9,281
970,5	-8,11
971	-0,024
971,4	3,519
971,8	2,062
972,2	4,805
972,6	12,576
973,1	12,576
973,5	13,833
973,9	10,49
974,3	9,805
974,7	17,005
975,2	14,148
975,6	15,805
976	13,462
976,4	8,548
976,8	6,119
977,3	2,862
977,7	-6,538
978,1	-4,767
978,5	-9,424
978,9	-8,938
979,4	-10,71
979,8	-7,938
980,2	-1,624
980,6	-2,195
981	-3,795
981,5	-3,567
981,9	-3,652
982,3	1,576
982,7	0,062
983,1	-5,71
983,6	-3,624
984	-2,538
984,4	4,005
984,8	5,462
985,2	4,976
985,6	3,862
986,1	6,519
986,5	5,462
986,9	-0,338
987,3	-5,024
987,7	-5,081
988,2	-9,795
988,6	-9,738
989	-12,11
989,4	-11,652
989,8	-4,681
990,3	-6,852
990,7	-7,424
991,1	-5,281
991,5	-4,024
991,9	-1,11
992,3	3,833
992,8	2,348
993,2	2,376
993,6	3,548
994	10,062
994,4	14,519
994,9	15,919
995,3	11,319
995,7	10,919
996,1	13,176
996,5	9,605
996,9	1,576
997,4	1,233
997,8	-3,624
998,2	-3,738
998,6	-11,795
999	-12,338
999,5	-9,852
999,9	-3,852
1000,3	-9,452
1000,7	-8,167
1001,1	-6,224
1001,5	3,319
1002	10,262
1002,4	11,233
1002,8	9,09
1003,2	10,862
1003,6	12,662
1004	14,462
1004,5	9,062
1004,9	3,719
1005,3	-1,367
1005,7	1,033
1006,1	0,005
1006,6	-6,595
1007	-11,195
1007,4	-10,624
1007,8	-7,252
1008,2	-4,938
1008,6	-7,624
1009,1	-6,824
1009,5	-2,481
1009,9	-0,31
1010,3	3,748
1010,7	-1,624
1011,1	-1,081
1011,6	-0,452
1012	1,062
1012,4	2,376
1012,8	-0,595
1013,2	3,633
1013,6	6,09
1014,1	5,462
1014,5	6,376
1014,9	4,833
1015,3	3,319
1015,7	7,348
1016,1	1,548
1016,6	-0,681
1017	0,49
1017,4	-3,138
1017,8	-3,195
1018,2	-1,681
1018,6	-6,367
1019,1	-5,681
1019,5	-8,452
1019,9	-11,081
1020,3	-9,91
1020,7	-4,852
1021,1	-8,452
1021,6	-7,567
1022	-3,681
1022,4	-0,51
1022,8	3,576
1023,2	3,062
1023,6	-2,481
1024,1	4,462
1024,5	7,748
1024,9	3,662
1025,3	5,49
1025,7	3,633
1026,1	8,776
1026,6	10,148
1027	3,89
1027,4	7,49
1027,8	7,005
1028,2	3,062
1028,6	8,176
1029	3,748
1029,5	9,519
1029,9	10,233
1030,3	1,148
1030,7	4,662
1031,1	9,062
1031,5	3,062
1032	4,69
1032,4	-2,652
1032,8	-0,281
1033,2	3,148
1033,6	0,033
1034	-3,91
1034,4	-4,881
1034,9	-6,167
1035,3	-6,881
1035,7	-4,281
1036,1	-7,281
1036,5	-8,138
1036,9	-8,252
1037,4	-4,852
1037,8	-7,167
1038,2	-4,252
1038,6	-6,081
1039	3,376
1039,4	7,205
1039,8	4,919
1040,3	1,148
1040,7	-1,395
1041,1	-0,652
1041,5	-0,281
1041,9	-10,024
1042,3	-12,595
1042,7	-7,51
1043,2	-7,081
1043,6	-2,624
1044	-4,938
1044,4	-5,138
1044,8	1,405
1045,2	-0,938
1045,6	-1,052
1046,1	0,233
1046,5	-0,224
1046,9	-3,395
1047,3	-4,967
1047,7	-6,31
1048,1	-5,195
1048,5	-6,595
1049	-3,052
1049,4	4,205
1049,8	13,205
1050,2	15,062
1050,6	18,862
1051	21,319
1051,4	21,433
1051,9	19,719
1052,3	22,748
1052,7	20,89
1053,1	15,748
1053,5	14,748
1053,9	12,176
1054,3	12,376
1054,8	17,49
1055,2	11,376
1055,6	8,605
1056	12,89
1056,4	9,805
1056,8	11,576
1057,2	11,233
1057,6	3,348
1058,1	-0,424
1058,5	-5,481
1058,9	1,605
1059,3	2,748
1059,7	1,29
1060,1	4,576
1060,5	6,748
1061	9,233
1061,4	11,805
1061,8	6,833
1062,2	1,348
1062,6	0,319
1063	-1,138
1063,4	0,662
1063,8	-1,71
1064,3	-2,395
1064,7	-5,224
1065,1	-0,652
1065,5	-3,71
1065,9	-5,395
1066,3	-9,51
1066,7	-10,052
1067,1	-10,681
1067,6	-8,881
1068	-15,567
1068,4	-9,252
1068,8	-4,824
1069,2	-0,652
1069,6	-2,252
1070	2,633
1070,4	0,948
1070,9	3,462
1071,3	2,919
1071,7	-3,881
1072,1	-7,281
1072,5	-5,252
1072,9	-7,967
1073,3	-4,567
1073,7	-3,51
1074,2	-4,281
1074,6	0,405
1075	0,548
1075,4	1,776
1075,8	2,148
1076,2	0,948
1076,6	-0,852
1077	-2,452
1077,5	-3,595
1077,9	-1,538
1078,3	-3,567
1078,7	-6,538
1079,1	-9,11
1079,5	-5,395
1079,9	-3,881
1080,3	-3,91
1080,7	-1,852
1081,2	3,262
1081,6	6,405
1082	7,233
1082,4	10,005
1082,8	10,005
1083,2	10,148
1083,6	8,576
1084	3,919
1084,5	4,49
1084,9	1,69
1085,3	-3,91
1085,7	-2,31
1086,1	-0,71
1086,5	3,062
1086,9	6,948
1087,3	6,09
1087,7	5,862
1088,2	9,119
1088,6	6,433
1089	1,662
1089,4	-3,852
1089,8	-6,938
1090,2	-5,938
1090,6	-1,367
1091	0,433
1091,4	2,976
1091,9	4,033
1092,3	6,748
1092,7	5,805
1093,1	8,176
1093,5	4,519
1093,9	5,433
1094,3	8,376
1094,7	9,319
1095,1	10,405
1095,5	12,348
1096	4,462
1096,4	5,862
1096,8	2,148
1097,2	-0,595
1097,6	4,376
1098	1,433
1098,4	2,548
1098,8	7,148
1099,2	11,605
1099,6	12,176
1100,1	10,633
1100,5	5,633
1100,9	6,519
1101,3	4,833
1101,7	2,119
1102,1	-0,31
1102,5	0,719
1102,9	1,748
1103,3	4,862
1103,7	4,662
1104,2	4,29
1104,6	7,319
1105	5,348
1105,4	5,519
1105,8	3,748
1106,2	0,919
1106,6	0,576
1107	0,519
1107,4	0,4
1107,8	1,753
1108,3	-0,317
