Data from Subt2_243.txt Node
Date: Sat Aug 26 18:57:18 MSK 2023
User: vat
Spectrometer: MAYP114033
Trigger mode: 0
Integration Time (sec): 1,000000E0
Scans to average: 5
Electric dark correction enabled: true
Nonlinearity correction enabled: false
Boxcar width: 3
XAxis mode: Wavelengths
Number of Pixels in Spectrum: 2068
>>>>>Begin Spectral Data<<<<<
199,4	-1
199,9	1,14
200,4	-0,033
200,8	-0,786
201,3	-0,614
201,8	3,014
202,2	-0,3
202,7	2,471
203,2	-0,843
203,6	0,929
204,1	-0,443
204,6	-0,986
205	-6,186
205,5	-2,986
206	-5,3
206,4	-0,243
206,9	2,614
207,4	6,671
207,8	9,414
208,3	10,414
208,8	11,443
209,2	9,843
209,7	9,043
210,2	9,1
210,6	7,643
211,1	6,843
211,5	1,3
212	1,957
212,5	3,929
212,9	-0,129
213,4	-0,957
213,9	-0,157
214,3	0,471
214,8	8,357
215,3	7,1
215,7	11,9
216,2	18,014
216,7	14,271
217,1	11,871
217,6	9,014
218,1	7,271
218,5	7,614
219	0,357
219,5	-1,814
219,9	-5,243
220,4	5,786
220,9	6,957
221,3	6,243
221,8	7,9
222,3	10,586
222,7	12,357
223,2	18,9
223,6	8,786
224,1	5,871
224,6	12,214
225	10,214
225,5	11,329
226	6,814
226,4	5,357
226,9	5,786
227,4	9,957
227,8	0,129
228,3	-0,1
228,8	-4,186
229,2	0,471
229,7	-0,243
230,2	2,157
230,6	7,129
231,1	14,843
231,5	18,471
232	24,386
232,5	21,414
232,9	19,729
233,4	19,1
233,9	10,957
234,3	12,5
234,8	9,243
235,3	6,671
235,7	6,557
236,2	13,071
236,7	12,043
237,1	18,271
237,6	10,729
238,1	10,471
238,5	4,843
239	5,786
239,4	2,071
239,9	0,357
240,4	-5,186
240,8	2,671
241,3	-0,271
241,8	3,271
242,2	2,529
242,7	0,586
243,2	4,071
243,6	4,329
244,1	0,357
244,6	3,5
245	2,043
245,5	0,157
245,9	-2,157
246,4	-2,671
246,9	-2,614
247,3	-2,157
247,8	-3,5
248,3	-1,386
248,7	0,7
249,2	6,529
249,7	7,529
250,1	13,1
250,6	10,043
251	13,643
251,5	13,329
252	12,214
252,4	12,329
252,9	6,214
253,4	-1,386
253,8	-2,471
254,3	-4,757
254,8	-1,671
255,2	-0,071
255,7	-3,443
256,1	0,443
256,6	2,986
257,1	8,729
257,5	2,7
258	-3,329
258,5	-2,957
258,9	-3,929
259,4	-3,729
259,9	-2,214
260,3	-4,529
260,8	-0,5
261,2	5,071
261,7	6,586
262,2	5,557
262,6	2,729
263,1	6,643
263,6	9,186
264	12,586
264,5	10,7
264,9	5,671
265,4	10,614
265,9	10,757
266,3	8,7
266,8	5,529
267,3	4,871
267,7	4,1
268,2	8,529
268,7	8,614
269,1	8,5
269,6	7,729
270	11,643
270,5	9,071
271	12,757
271,4	10,729
271,9	5,757
272,4	12,214
272,8	14,5
273,3	4,9
273,7	4,271
274,2	3,443
274,7	4,243
275,1	8,614
275,6	4,929
276,1	-0,614
276,5	9,7
277	11,614
277,4	10,929
277,9	12,243
278,4	11,271
278,8	16,471
279,3	20,586
279,8	18,157
280,2	17,386
280,7	20,529
281,1	15,957
281,6	15,786
282,1	12,386
282,5	10,957
283	9,814
283,4	14,157
283,9	13,7
284,4	19,7
284,8	17,014
285,3	12,3
285,8	10,557
286,2	8,071
286,7	3,071
287,1	-2,729
287,6	-6,271
288,1	-6,414
288,5	-0,3
289	-2,9
289,5	-1,471
289,9	-3,586
290,4	-0,9
290,8	0,814
291,3	6,414
291,8	2,5
292,2	5,329
292,7	8,9
293,1	9,414
293,6	11,3
294,1	12,671
294,5	8,214
295	10,414
295,5	8,5
295,9	7,9
296,4	12,557
296,8	8,986
297,3	5,243
297,8	3,043
298,2	0,757
298,7	5,7
299,1	4,729
299,6	2,3
300,1	6,271
300,5	8,529
301	12,586
301,5	14,843
301,9	14,757
302,4	11,529
302,8	13,729
303,3	10,157
303,8	8,7
304,2	6,357
304,7	7,643
305,1	0,929
305,6	2,529
306,1	7,129
306,5	8,5
307	10,043
307,4	14,7
307,9	13,643
308,4	17,071
308,8	11,814
309,3	4,671
309,8	6,643
310,2	7,357
310,7	5,386
311,1	6,614
311,6	10,243
312,1	18,071
312,5	23,557
313	21,5
313,4	17,986
313,9	17,986
314,4	14,871
314,8	10,214
315,3	8,071
315,7	0,557
316,2	-0,729
316,7	-1,157
317,1	1,671
317,6	-0,3
318	2,643
318,5	-2,014
319	1,871
319,4	4,643
319,9	12,843
320,3	12,786
320,8	17,271
321,3	16,843
321,7	25,271
322,2	23,186
322,6	24,7
323,1	15,929
323,6	13,1
324	9,129
324,5	8,1
324,9	4,986
325,4	6,643
325,9	3,757
326,3	3,386
326,8	5,329
327,2	4,643
327,7	5,957
328,2	5,757
328,6	7,929
329,1	4,214
329,5	7,3
330	4,214
330,5	9,986
330,9	9,929
331,4	9,3
331,8	6,157
332,3	13,814
332,8	14,329
333,2	14,814
333,7	11,986
334,1	12,957
334,6	11,014
335,1	6,5
335,5	4,3
336	2,414
336,4	5,014
336,9	10,586
337,4	11,586
337,8	13,843
338,3	17,014
338,7	16,214
339,2	17,986
339,7	15,9
340,1	9,386
340,6	7,386
341	4,557
341,5	6,014
342	2,814
342,4	-0,043
342,9	-1,157
343,3	2,414
343,8	2,1
344,2	5,814
344,7	10,3
345,2	9,129
345,6	11,271
346,1	13,129
346,5	4,957
347	4,043
347,5	3,443
347,9	3,586
348,4	5,243
348,8	6,243
349,3	5,529
349,8	9,929
350,2	16,471
350,7	14,7
351,1	13,871
351,6	18,671
352	20,814
352,5	28,443
353	40,357
353,4	41,014
353,9	51,729
354,3	63,071
354,8	72,729
355,3	88,471
355,7	102,071
356,2	114,071
356,6	135,214
357,1	154,786
357,5	179,071
358	209,671
358,5	241,557
358,9	279,129
359,4	326,986
359,8	372,071
360,3	433,814
360,8	492,471
361,2	568,1
361,7	645,814
362,1	731,357
362,6	822,3
363	925,271
363,5	1028,157
364	1144,414
364,4	1250,243
364,9	1363,843
365,3	1480,814
365,8	1582,929
366,3	1679,5
366,7	1770,471
367,2	1852,271
367,6	1922,071
368,1	1976,129
368,5	1999,643
369	2018,357
369,5	2025,871
369,9	2010,386
370,4	1974,386
370,8	1927,9
371,3	1866,529
371,7	1806,757
372,2	1732,614
372,7	1648,186
373,1	1559,7
373,6	1468,471
374	1381,014
374,5	1290,471
374,9	1199,814
375,4	1112,871
375,9	1030,386
376,3	951,9
376,8	876,7
377,2	806,014
377,7	738,671
378,2	677,414
378,6	620,643
379,1	569,014
379,5	523,186
380	483,157
380,4	438,843
380,9	403,214
381,4	366,443
381,8	342,671
382,3	316,586
382,7	293,671
383,2	272,757
383,6	254,014
384,1	238,957
384,6	228,586
385	208,357
385,5	192,3
385,9	174,557
386,4	160,986
386,8	152,729
387,3	141,243
387,7	130,243
388,2	122,243
388,7	115,843
389,1	114,329
389,6	108,157
390	101,014
390,5	97,5
390,9	94,357
391,4	87,757
391,9	80,729
392,3	76,186
392,8	70,871
393,2	64,529
393,7	62,614
394,1	55,157
394,6	51,414
395,1	51,671
395,5	46,471
396	46,529
396,4	46,443
396,9	41,043
397,3	40,7
397,8	42,529
398,2	43,786
398,7	45,729
399,2	43,243
399,6	40,9
400,1	41,929
400,5	39,243
401	40,729
401,4	35,9
401,9	34,614
402,4	38,329
402,8	37,757
403,3	40,014
403,7	39,386
404,2	43,1
404,6	45,586
405,1	44,071
405,5	40,043
406	39,843
406,5	35,1
406,9	37,757
407,4	32,443
407,8	32,271
408,3	30,071
408,7	27,986
409,2	34,014
409,6	38,871
410,1	40,471
410,6	39,471
411	40,529
411,5	47,586
411,9	55,7
412,4	54,357
412,8	52,557
413,3	55,329
413,7	61,9
414,2	64,471
414,7	67,814
415,1	71,214
415,6	75,186
416	80,414
416,5	81,9
416,9	78,071
417,4	79,129
417,8	86,471
418,3	89,729
418,8	94,329
419,2	93,471
419,7	94,814
420,1	101,271
420,6	106,157
421	97,529
421,5	96,929
421,9	95,7
422,4	100,414
422,8	101,129
423,3	101,129
423,8	96,3
424,2	98,786
424,7	95,471
425,1	97,243
425,6	96,186
426	95,271
426,5	98,129
426,9	102,557
427,4	100,529
427,9	98,329
428,3	97,843
428,8	96,557
429,2	98,7
429,7	95,329
430,1	94,586
430,6	99,957
431	104,043
431,5	108,271
431,9	105,957
432,4	109,471
432,8	118,757
433,3	121,9
433,8	121,614
434,2	122,9
434,7	124,9
435,1	134,586
435,6	137,929
436	137,957
436,5	141,329
436,9	141,3
437,4	145,586
437,8	148,014
438,3	149,671
438,8	154,271
439,2	158,957
439,7	169,214
440,1	183,814
440,6	199,586
441	206,071
441,5	216,586
441,9	224,071
442,4	227,786
442,8	230,3
443,3	238,071
443,7	244,557
444,2	257,814
444,7	267,243
445,1	280,557
445,6	295,7
446	314,043
446,5	321,557
446,9	324,5
447,4	339,129
447,8	354,757
448,3	371,386
448,7	389,129
449,2	405,786
449,6	427,729
450,1	447,729
450,6	459,786
451	474,3
451,5	488,243
451,9	504,871
452,4	521,1
452,8	533,071
453,3	555,186
453,7	573,186
454,2	594,157
454,6	612,1
455,1	629,786
455,5	645,5
456	670,214
456,4	690,814
456,9	717,014
457,3	740,1
457,8	758,871
458,3	786,557
458,7	810,471
459,2	835,157
459,6	855,757
460,1	879,1
460,5	901,3
461	938,157
461,4	962,757
461,9	990,329
462,3	1018,871
462,8	1051,9
463,2	1076,186
463,7	1105,5
464,1	1130,557
464,6	1161,186
465	1195,871
465,5	1225,1
466	1256,271
466,4	1288,986
466,9	1328,071
467,3	1362,586
467,8	1395,929
468,2	1422,186
468,7	1458,471
469,1	1496,729
469,6	1534,271
470	1564,271
470,5	1593,129
470,9	1624,814
471,4	1664,1
471,8	1694,1
472,3	1728,1
472,7	1757,329
473,2	1785,957
473,6	1816,586
474,1	1846,986
474,5	1875,957
475	1908,329
475,4	1939,929
475,9	1974,3
476,4	2009,414
476,8	2047,871
477,3	2078,329
477,7	2114,071
478,2	2145,957
478,6	2166,814
479,1	2200,529
479,5	2228,071
480	2260,271
480,4	2298,871
480,9	2326,557
481,3	2351,529
481,8	2382,957
482,2	2402,671
482,7	2428,529
483,1	2448,586
483,6	2466,729
484	2493,071
484,5	2526,757
484,9	2548,814
485,4	2578,157
485,8	2606,414
486,3	2632,557
486,7	2654,643
487,2	2675,386
487,6	2689,871
488,1	2713,843
488,5	2731,014
489	2753,386
489,4	2773,329
489,9	2793,471
490,4	2813,5
490,8	2832,786
491,3	2853,529
491,7	2870,671
492,2	2884,757
492,6	2899,671
493,1	2913,071
493,5	2927,5
494	2940,043
494,4	2952,014
494,9	2967,271
495,3	2983,757
495,8	2995,386
496,2	3010,443
496,7	3017,243
497,1	3037,757
497,6	3052,471
498	3066,529
498,5	3074,1
498,9	3091,186
499,4	3100,3
499,8	3115,357
500,3	3124,614
500,7	3129,214
501,2	3136,129
501,6	3143,614
502,1	3147,329
502,5	3159,414
503	3166,043
503,4	3168,643
503,9	3176,729
504,3	3182,957
504,8	3191,757
505,2	3201,243
505,7	3206,786
506,1	3218,871
506,6	3220,814
507	3227,357
507,5	3235,1
507,9	3242,357
508,4	3247,757
508,8	3250,529
509,3	3246,5
509,7	3260,5
510,2	3268,1
510,6	3267,614
511,1	3269,1
511,5	3272,557
512	3281,186
512,4	3292,529
512,9	3297,3
513,3	3302,386
513,8	3314,329
514,2	3320,329
514,7	3325,529
515,1	3324,843
515,6	3330,271
516	3326,529
516,5	3331,757
516,9	3330,529
517,4	3341,814
517,8	3349,786
518,3	3363,357
518,7	3372,214
519,2	3383,843
519,6	3388,557
520,1	3398,329
520,5	3402,7
521	3396,986
521,4	3400,557
521,9	3399,443
522,3	3401,814
522,8	3405,043
523,2	3412,9
523,7	3415,357
524,1	3429,586
524,6	3431,471
525	3440,843
525,5	3447,329
525,9	3461,243
526,4	3465,7
526,8	3469,329
527,3	3471,271
527,7	3478,329
528,2	3487,157
528,6	3494,843
529,1	3494,443
529,5	3506,529
530	3511,986
530,4	3520,586
530,9	3531,814
531,3	3535,1
531,8	3545,586
532,2	3553,386
532,6	3553,843
533,1	3558,3
533,5	3570,1
534	3575,157
534,4	3575,957
534,9	3584,757
535,3	3584,9
535,8	3597,071
536,2	3613,729
536,7	3621,9
537,1	3631,186
537,6	3642,3
538	3648,871
538,5	3668,243
538,9	3676,757
539,4	3680,757
539,8	3686,214
540,3	3696,243
540,7	3702,471
541,2	3702,614
541,6	3705,157
542,1	3713,7
542,5	3716,557
543	3725,586
543,4	3734,3
543,9	3747,1
544,3	3766,471
544,8	3779,671
545,2	3778,7
545,7	3797,757
546,1	3810,386
546,5	3821,1
547	3828,071
547,4	3829,814
547,9	3837,614
548,3	3849,386
548,8	3857,671
549,2	3858,157
549,7	3862,014
550,1	3874,586
550,6	3886,843
551	3897,814
551,5	3912,129
551,9	3915,529
552,4	3924,843
552,8	3931,129
553,3	3933,671
553,7	3937,014
554,2	3944,271
554,6	3950,957
555,1	3960,5
555,5	3969,671
555,9	3979,014
556,4	3988,414
556,8	3997,186
557,3	4002,614
557,7	4003,1
558,2	4005,757
558,6	4012,443
559,1	4015,614
559,5	4019,157
560	4025,329
560,4	4028,529
560,9	4035,614
561,3	4043,757
561,8	4046,043
562,2	4051,9
562,7	4060,5
563,1	4065,871
563,6	4066,043
564	4074,214
564,4	4077,443
564,9	4082,757
565,3	4087,986
565,8	4095,929
566,2	4096,243
566,7	4102,243
567,1	4105,186
567,6	4109,586
568	4108,786
568,5	4108,043
568,9	4101,757
569,4	4108,9
569,8	4115,9
570,3	4116,157
570,7	4116,843
571,1	4123,014
571,6	4127,614
572	4142,329
572,5	4138,386
572,9	4134,814
573,4	4134,014
573,8	4136,9
574,3	4136,957
574,7	4136,414
575,2	4121,214
575,6	4119,329
576,1	4120,243
576,5	4122,243
576,9	4116,786
577,4	4113,614
577,8	4103,986
578,3	4106,357
578,7	4102,3
579,2	4096,986
579,6	4088,243
580,1	4086,614
580,5	4081,786
581	4086,986
581,4	4082,1
581,9	4075,986
582,3	4073,957
582,7	4070,129
583,2	4063,729
583,6	4058,243
584,1	4056,986
584,5	4048,186
585	4049,671
585,4	4032,671
585,9	4028,957
586,3	4023,986
586,8	4020,186
587,2	4008,843
587,6	4009,443
588,1	4000,186
588,5	4005,1
589	3996,443
589,4	3985,529
589,9	3976,329
590,3	3962,357
590,8	3953,557
591,2	3948,586
591,7	3945,7
592,1	3938,871
592,5	3939,814
593	3932,129
593,4	3930,357
593,9	3918,1
594,3	3915,7
594,8	3903,186
595,2	3892,643
595,7	3887,014
596,1	3885,1
596,6	3886,957
597	3883,214
597,4	3874,5
597,9	3878,7
598,3	3877,957
598,8	3870,271
599,2	3863,843
599,7	3849,271
600,1	3842,243
600,6	3835,471
601	3820,5
601,4	3819,357
601,9	3804,471
602,3	3796,871
602,8	3788,386
603,2	3781,214
603,7	3766,957
604,1	3758,243
604,6	3741,071
605	3731,157
605,4	3719,443
605,9	3708,843
606,3	3690,329
606,8	3683,243
607,2	3669,471
607,7	3658,9
608,1	3652,786
608,6	3644,414
609	3638,014
609,4	3639,443
609,9	3625,471
610,3	3616,357
610,8	3604,157
611,2	3591,386
611,7	3574,386
612,1	3559,071
612,6	3541,7
613	3529,871
613,4	3514,271
613,9	3505,586
614,3	3487,043
614,8	3483,043
615,2	3464,843
615,7	3458,871
616,1	3446,414
616,6	3434,043
617	3417,557
617,4	3410,014
617,9	3393,614
618,3	3392,157
618,8	3378,5
619,2	3367,243
619,7	3356,386
620,1	3347,471
620,5	3338,043
621	3319,643
621,4	3303,557
621,9	3283,357
622,3	3267,014
622,8	3245,614
623,2	3227,614
623,6	3206,929
624,1	3195,357
624,5	3175,643
625	3164,9
625,4	3148,814
625,9	3141,786
626,3	3123,414
626,8	3112,386
627,2	3096,443
627,6	3071,643
628,1	3042,557
628,5	3036,414
629	3014,129
629,4	3000,729
629,9	2985,871
630,3	2962,186
630,7	2954,414
631,2	2950,5
631,6	2931,586
632,1	2916,614
632,5	2901,1
633	2888,5
633,4	2877,586
633,8	2868,671
634,3	2856,471
634,7	2839,386
635,2	2829,871
635,6	2822,129
636,1	2804,586
636,5	2790,671
636,9	2769,443
637,4	2752,186
637,8	2733,129
638,3	2715,5
638,7	2696,786
639,2	2680,414
639,6	2670,671
640	2661,814
640,5	2643,871
640,9	2636,414
641,4	2622,614
641,8	2613,157
642,2	2602,071
642,7	2591,214
643,1	2578,929
643,6	2567,271
644	2553,614
644,5	2544,329
644,9	2529,243
645,3	2513,157
645,8	2492,471
646,2	2479,871
646,7	2469,843
647,1	2455,9
647,6	2444,043
648	2431,043
648,4	2415,529
648,9	2406,757
649,3	2385,671
649,8	2373,9
650,2	2365,357
650,6	2352,414
651,1	2338,471
651,5	2334,757
652	2320,586
652,4	2312,757
652,9	2303,043
653,3	2285,814
653,7	2270,814
654,2	2263,729
654,6	2241,5
655,1	2235,214
655,5	2229,843
655,9	2214,586
656,4	2202,129
656,8	2192,271
657,3	2176,043
657,7	2171,529
658,2	2155,557
658,6	2135,757
659	2120,843
659,5	2106,271
659,9	2094,386
660,4	2082,814
660,8	2065,814
661,2	2051,043
661,7	2036,586
662,1	2028,843
662,6	2018,643
663	2003,329
663,4	1989,871
663,9	1980,643
664,3	1969,871
664,8	1956,871
665,2	1933,557
665,6	1920,843
666,1	1908,471
666,5	1892,957
667	1880,9
667,4	1864,3
667,9	1858,243
668,3	1853,443
668,7	1839,5
669,2	1830,471
669,6	1818,643
670,1	1808,157
670,5	1796,957
670,9	1782,157
671,4	1771,443
671,8	1759,043
672,3	1747,986
672,7	1741,329
673,1	1720,443
673,6	1711,329
674	1706,329
674,5	1697,529
674,9	1685,071
675,3	1671,586
675,8	1659,186
676,2	1653,557
676,7	1643,386
677,1	1627,671
677,5	1612,871
678	1607,1
678,4	1597,929
678,9	1585,471
679,3	1573,443
679,7	1561,757
680,2	1542,871
680,6	1528,557
681,1	1520,243
681,5	1511,414
681,9	1502,614
682,4	1498,729
682,8	1494,7
683,3	1495,843
683,7	1493,214
684,1	1480,5
684,6	1465,929
685	1451,814
685,5	1438,671
685,9	1421,557
686,3	1406,529
686,8	1393,871
687,2	1389,614
687,7	1383,757
688,1	1378,329
688,5	1371,7
689	1364,643
689,4	1354,471
689,9	1344,271
690,3	1325,643
690,7	1317,043
691,2	1310,671
691,6	1300,957
692	1296,214
692,5	1293,957
692,9	1286,329
693,4	1278,757
693,8	1268,386
694,2	1255,5
694,7	1244,414
695,1	1235,1
695,6	1225,357
696	1217,014
696,4	1212,157
696,9	1207,186
697,3	1196,071
697,8	1187,043
698,2	1175,843
698,6	1166,929
699,1	1159,529
699,5	1152,014
699,9	1140,414
700,4	1134,3
700,8	1132,529
701,3	1128,329
701,7	1120,7
702,1	1111,071
702,6	1104,986
703	1097,843
703,5	1092,614
703,9	1081,414
704,3	1075,271
704,8	1068,957
705,2	1063,871
705,6	1052,671
706,1	1041,1
706,5	1032,3
707	1028,386
707,4	1021,9
707,8	1007,071
708,3	1000,843
708,7	998,129
709,2	993,1
709,6	982,243
710	976,586
710,5	961,986
710,9	960,414
711,3	949,157
711,8	942,271
712,2	941,157
712,7	941,529
713,1	933,357
713,5	931,357
714	927,929
714,4	922,843
714,8	915,7
715,3	904,1
715,7	896,243
716,2	887,814
716,6	881,157
717	870,757
717,5	866,186
717,9	863,157
718,3	855,7
718,8	851,586
719,2	847,843
719,7	845,271
720,1	842,243
720,5	835,129
721	821,557
721,4	814,814
721,8	810,329
722,3	797,186
722,7	787,3
723,2	774,871
723,6	766,443
724	764,243
724,5	757,443
724,9	747,471
725,3	743,043
725,8	735,671
726,2	731,243
726,7	728,186
727,1	722,243
727,5	716,7
728	708,557
728,4	706,614
728,8	701,414
729,3	699,843
729,7	693,929
730,1	689,871
730,6	688,414
731	686,9
731,5	678,443
731,9	676,757
732,3	672,357
732,8	670,414
733,2	666,214
733,6	664,414
734,1	660,929
734,5	658,443
734,9	656,1
735,4	650,129
735,8	636,9
736,3	635,586
736,7	626,414
737,1	623,357
737,6	621,529
738	615,157
738,4	613,557
738,9	620,729
739,3	613,929
739,7	612,386
740,2	608,929
740,6	610,729
741,1	607,5
741,5	596,814
741,9	593,843
742,4	593,014
742,8	589,843
743,2	587,157
743,7	574,957
744,1	568,5
744,5	570,643
745	564,014
745,4	554,414
745,8	551,1
746,3	547,014
746,7	544,071
747,2	539,5
747,6	540,414
748	537,386
748,5	537,614
748,9	531,043
749,3	524,929
749,8	524,871
750,2	526,157
750,6	516,7
751,1	514,157
751,5	508,214
751,9	510,014
752,4	506,643
752,8	503,7
753,3	497,7
753,7	499,929
754,1	496,414
754,6	494,1
755	485,843
755,4	481,014
755,9	473,843
756,3	466,786
756,7	460,9
757,2	456,5
757,6	454,729
758	453,557
758,5	453,414
758,9	450,414
759,3	451,271
759,8	445,3
760,2	439,186
760,6	435,614
761,1	432,014
761,5	426,071
761,9	424,414
762,4	420,471
762,8	417,757
763,3	417,443
763,7	413,186
764,1	409,043
764,6	405,929
765	401,643
765,4	398,957
765,9	399,329
766,3	400,186
766,7	396,471
767,2	396,7
767,6	401,443
768	399,529
768,5	397,071
768,9	391,214
769,3	383,786
769,8	380,014
770,2	378,414
770,6	367,7
771,1	372,986
771,5	371,757
771,9	371,671
772,4	374,271
772,8	373,1
773,2	369,014
773,7	370,129
774,1	358,157
774,5	349,9
775	346,586
775,4	339,929
775,8	339,843
776,3	337,1
776,7	334,586
777,1	340,271
777,6	341,014
778	341,3
778,4	340,386
778,9	339,929
779,3	337,471
779,7	335,843
780,2	328,471
780,6	329,614
781	322,9
781,5	316,7
781,9	312,071
782,3	308,757
782,8	304,643
783,2	302,557
783,6	300,014
784,1	296,5
784,5	297,186
784,9	291,9
785,4	292,786
785,8	292,929
786,2	291,414
786,7	289,643
787,1	287,7
787,5	286,071
788	283,929
788,4	279,643
788,8	274,071
789,3	268,471
789,7	267,014
790,1	269,157
790,6	267,614
791	262,043
791,4	263,186
791,9	258,786
792,3	256,129
792,7	255,614
793,2	247,729
793,6	245,643
794	252,443
794,5	245,5
794,9	253,329
795,3	254,929
795,8	251,929
796,2	256,043
796,6	253,786
797,1	245,129
797,5	243,729
797,9	235,786
798,4	231,271
798,8	226,071
799,2	219,243
799,7	221,614
800,1	222,529
800,5	222,786
801	222,329
801,4	219,1
801,8	220,614
802,2	222,5
802,7	216,557
803,1	218,386
803,5	215,243
804	211,129
804,4	211,7
804,8	206,043
805,3	206,529
805,7	206,871
806,1	204,9
806,6	206,9
807	206,243
807,4	205,443
807,9	202,214
808,3	197,871
808,7	194,071
809,2	195,071
809,6	192,043
810	189,729
810,4	188,786
810,9	191,814
811,3	189,671
811,7	190,1
812,2	187,786
812,6	183,1
813	182,7
813,5	183,414
813,9	179,471
814,3	176,5
814,8	173,7
815,2	163,386
815,6	165,529
816,1	167,129
816,5	165,414
816,9	167,814
817,3	170,329
817,8	173,671
818,2	178,443
818,6	174,157
819,1	171,529
819,5	166,529
819,9	160,843
820,4	156,471
820,8	152,814
821,2	146,043
821,7	147,843
822,1	147,929
822,5	154,814
822,9	157,157
823,4	157,243
823,8	154,5
824,2	160,129
824,7	156,471
825,1	150,443
825,5	141,871
826	132,529
826,4	132,157
826,8	130,957
827,3	130,957
827,7	130,871
828,1	130,757
828,5	129,157
829	134,043
829,4	132,357
829,8	127,3
830,3	123,614
830,7	120,9
831,1	126,043
831,6	125,386
832	123,271
832,4	120,871
832,8	120,557
833,3	118,414
833,7	117,871
834,1	110,3
834,6	108,271
835	111,471
835,4	115,3
835,8	115,3
836,3	115,557
836,7	117,214
837,1	117,329
837,6	121,1
838	119,5
838,4	114,414
838,9	115,957
839,3	114,157
839,7	110,729
840,1	106,786
840,6	102,329
841	101,614
841,4	102,414
841,9	104,986
842,3	105,643
842,7	107,529
843,1	107,986
843,6	111,071
844	106,814
844,4	108,357
844,9	102,986
845,3	99,843
845,7	98,757
846,2	95,471
846,6	89,243
847	92,3
847,4	94,7
847,9	98,014
848,3	99,786
848,7	99,129
849,2	104,786
849,6	103,3
850	103,9
850,4	97,3
850,9	95,843
851,3	94,843
851,7	93,014
852,2	88,929
852,6	95,243
853	94,643
853,4	92,214
853,9	87,614
854,3	86,329
854,7	85,414
855,2	83,071
855,6	82,129
856	81,586
856,4	81,043
856,9	82,1
857,3	86,957
857,7	87,814
858,2	95,186
858,6	90,214
859	87,014
859,4	87,129
859,9	85,5
860,3	76,586
860,7	79,443
861,1	79,9
861,6	78,729
862	75,357
862,4	73,186
862,9	73,1
863,3	76,243
863,7	69,3
864,1	61,643
864,6	62,129
865	65,157
865,4	67,929
865,9	70,5
866,3	66,757
866,7	70,271
867,1	70,871
867,6	69,786
868	66,729
868,4	66,271
868,8	62,129
869,3	65,5
869,7	67,614
870,1	64,014
870,6	61,729
871	46,271
871,4	48,186
871,8	47,243
872,3	44,586
872,7	42,843
873,1	48,471
873,5	51,986
874	64,357
874,4	66,1
874,8	64,271
875,3	63,986
875,7	60,3
876,1	60,186
876,5	59,957
877	59,557
877,4	51,214
877,8	53,329
878,2	56,443
878,7	57,643
879,1	57,757
879,5	57,186
879,9	60,586
880,4	65,071
880,8	64,129
881,2	64,614
881,7	59,871
882,1	52,586
882,5	51,414
882,9	48,557
883,4	44,5
883,8	46,214
884,2	42,986
884,6	42,814
885,1	46,986
885,5	46,5
885,9	48,043
886,3	51,214
886,8	46,957
887,2	45,271
887,6	49,443
888	51,586
888,5	48,957
888,9	48,157
889,3	42,586
889,8	40,671
890,2	40,5
890,6	34,843
891	33,357
891,5	34,443
891,9	37,329
892,3	40,529
892,7	41,329
893,2	41,614
893,6	43,614
894	45,129
894,4	41,557
894,9	39,957
895,3	40,214
895,7	45,129
896,1	45,271
896,6	46,3
897	41,757
897,4	48,614
897,8	47,557
898,3	49,386
898,7	44,7
899,1	42,814
899,5	41,671
900	35,586
900,4	33,071
900,8	29,814
901,2	24,271
901,7	24,671
902,1	26,157
902,5	28,414
902,9	33,043
903,4	36,329
903,8	39,643
904,2	41,357
904,6	42,071
905,1	38,957
905,5	36,614
905,9	39,957
906,3	38,557
906,8	39,3
907,2	40,586
907,6	40,786
908	47,271
908,5	48,271
908,9	44,243
909,3	40,443
909,7	39,929
910,2	38,843
910,6	39,443
911	33,329
911,4	30,129
911,9	31,186
912,3	33,129
912,7	35,014
913,1	34,729
913,6	31,986
914	34,129
914,4	35,786
914,8	35,243
915,3	32,5
915,7	28,7
916,1	25,157
916,5	31,214
916,9	28,329
917,4	25,814
917,8	28,414
918,2	26,329
918,6	22,043
919,1	23,957
919,5	19,786
919,9	20,243
920,3	19,443
920,8	15,757
921,2	12,986
921,6	13,957
922	14,471
922,5	13,071
922,9	15,186
923,3	16,586
923,7	16,5
924,2	18,557
924,6	19,157
925	21,3
925,4	20,957
925,8	16,271
926,3	15,214
926,7	16,386
927,1	22,871
927,5	24,757
928	18,9
928,4	22,386
928,8	28,186
929,2	27,014
929,7	23,929
930,1	22,443
930,5	21,9
930,9	30,443
931,3	28,1
931,8	23,386
932,2	26,786
932,6	28,471
933	18,443
933,5	19,357
933,9	16,129
934,3	16,271
934,7	14,329
935,2	18,5
935,6	17,443
936	24,471
936,4	21,586
936,8	20,9
937,3	19,243
937,7	23,329
938,1	24,843
938,5	23,243
939	23,871
939,4	26,329
939,8	26,529
940,2	26,757
940,6	25,729
941,1	20,071
941,5	24,5
941,9	19,243
942,3	18,843
942,8	21,1
943,2	20,271
943,6	19,9
944	23,786
944,4	22,329
944,9	25,5
945,3	22,957
945,7	16,443
946,1	16,529
946,6	14,157
947	6,529
947,4	8,957
947,8	11,014
948,2	11,414
948,7	13,157
949,1	16,471
949,5	20,871
949,9	28,443
950,3	27,329
950,8	26,129
951,2	26,729
951,6	22,9
952	25,329
952,5	22,5
952,9	19,443
953,3	16,786
953,7	15,843
954,1	20,786
954,6	28,214
955	25,786
955,4	23,014
955,8	21,329
956,2	24,729
956,7	26,529
957,1	22,614
957,5	23,7
957,9	21,471
958,3	22,929
958,8	23,1
959,2	26,243
959,6	29,071
960	26,1
960,5	28,614
960,9	29,157
961,3	26,786
961,7	27,443
962,1	20,529
962,6	17,271
963	18,7
963,4	7,957
963,8	5,471
964,2	10,957
964,7	10,614
965,1	16,643
965,5	15,7
965,9	18,357
966,3	24,843
966,8	26,586
967,2	24,871
967,6	25,243
968	18,214
968,4	13,443
968,9	13,614
969,3	10,529
969,7	8,529
970,1	10,786
970,5	5,357
971	9,1
971,4	14,671
971,8	12,1
972,2	12,443
972,6	11,843
973,1	10,1
973,5	13,357
973,9	12,443
974,3	9,186
974,7	10,957
975,2	12,757
975,6	9,3
976	9,014
976,4	6,843
976,8	3,014
977,3	6,671
977,7	3,986
978,1	2,214
978,5	3,843
978,9	1,186
979,4	0,986
979,8	-1,529
980,2	-5,5
980,6	-9,414
981	-6,414
981,5	-2,929
981,9	-0,5
982,3	3,671
982,7	10,443
983,1	9,9
983,6	13,014
984	8,586
984,4	10,471
984,8	10,043
985,2	10,071
985,6	9,271
986,1	14,843
986,5	18,614
986,9	15,671
987,3	12,786
987,7	14,357
988,2	12,9
988,6	15,214
989	12,3
989,4	9,214
989,8	13,043
990,3	11,214
990,7	11,071
991,1	11,757
991,5	9,357
991,9	12,214
992,3	11,414
992,8	16,843
993,2	17,329
993,6	14,443
994	14,443
994,4	16,071
994,9	15,786
995,3	17,814
995,7	14,043
996,1	14,129
996,5	17,7
996,9	16,586
997,4	17,729
997,8	12,157
998,2	11,014
998,6	5,271
999	6,471
999,5	4,386
999,9	4,5
1000,3	1,243
1000,7	5,586
1001,1	7,3
1001,5	13,9
1002	18,386
1002,4	19,014
1002,8	18,186
1003,2	21,729
1003,6	20,957
1004	21,986
1004,5	15,271
1004,9	16,557
1005,3	13,671
1005,7	15,357
1006,1	11,3
1006,6	12,986
1007	8,7
1007,4	14,786
1007,8	9,329
1008,2	6,043
1008,6	10,271
1009,1	10,614
1009,5	6,271
1009,9	9,9
1010,3	6,129
1010,7	10,814
1011,1	14,557
1011,6	10,357
1012	17,414
1012,4	17,357
1012,8	13,929
1013,2	17,414
1013,6	12,443
1014,1	16,871
1014,5	15,614
1014,9	7,3
1015,3	7,843
1015,7	12,843
1016,1	13,843
1016,6	12,729
1017	15,614
1017,4	14,957
1017,8	14,157
1018,2	15,814
1018,6	10,443
1019,1	6,614
1019,5	10,786
1019,9	0,214
1020,3	1,614
1020,7	5,786
1021,1	6,1
1021,6	9,9
1022	13,329
1022,4	12,471
1022,8	19,271
1023,2	22,243
1023,6	23,614
1024,1	26,3
1024,5	28,529
1024,9	27,443
1025,3	28,643
1025,7	25,871
1026,1	24,814
1026,6	24,271
1027	22,557
1027,4	22,329
1027,8	21,071
1028,2	13,014
1028,6	16,214
1029	15,586
1029,5	17,386
1029,9	13,757
1030,3	8,757
1030,7	7,1
1031,1	14,043
1031,5	8,129
1032	7,757
1032,4	6,129
1032,8	11,1
1033,2	13,957
1033,6	13,671
1034	10,671
1034,4	13,243
1034,9	11,614
1035,3	11,386
1035,7	12,014
1036,1	9,586
1036,5	7,843
1036,9	13,386
1037,4	17,786
1037,8	16,7
1038,2	11,671
1038,6	8,186
1039	13,071
1039,4	22,843
1039,8	12,071
1040,3	7,614
1040,7	6,014
1041,1	6,786
1041,5	5,643
1041,9	1,5
1042,3	-2,9
1042,7	3,9
1043,2	5,186
1043,6	7,271
1044	9,357
1044,4	10,129
1044,8	14,786
1045,2	11,357
1045,6	13,214
1046,1	15,814
1046,5	17,043
1046,9	16,671
1047,3	17,471
1047,7	11,471
1048,1	14,929
1048,5	11,386
1049	10,357
1049,4	12,129
1049,8	11,957
1050,2	12,014
1050,6	17,643
1051	16,957
1051,4	19,443
1051,9	17,071
1052,3	22,043
1052,7	22,586
1053,1	20,814
1053,5	17,786
1053,9	16,614
1054,3	11,814
1054,8	17,014
1055,2	12,1
1055,6	16,814
1056	17,786
1056,4	17,643
1056,8	20,329
1057,2	22,814
1057,6	15,9
1058,1	14,957
1058,5	8,643
1058,9	9,243
1059,3	13,386
1059,7	13,414
1060,1	19,757
1060,5	23,071
1061	24,414
1061,4	28,443
1061,8	30,243
1062,2	28,957
1062,6	26,5
1063	23,243
1063,4	19,871
1063,8	16,329
1064,3	12,986
1064,7	9,557
1065,1	5,3
1065,5	3,214
1065,9	-0,586
1066,3	-0,271
1066,7	-0,586
1067,1	-1,843
1067,6	1,7
1068	0,129
1068,4	2,157
1068,8	8,071
1069,2	11,5
1069,6	12,3
1070	14,986
1070,4	10,929
1070,9	13,586
1071,3	11,614
1071,7	3,214
1072,1	4,929
1072,5	1,586
1072,9	3,614
1073,3	5,957
1073,7	0,529
1074,2	3,814
1074,6	9,014
1075	6,1
1075,4	9,786
1075,8	11,471
1076,2	9,471
1076,6	16,043
1077	14,243
1077,5	13,357
1077,9	11,157
1078,3	9,1
1078,7	3,729
1079,1	8,3
1079,5	6,414
1079,9	7,357
1080,3	8,957
1080,7	11,557
1081,2	19,614
1081,6	19,671
1082	17,129
1082,4	21,986
1082,8	21,986
1083,2	23,7
1083,6	27,529
1084	20,329
1084,5	20,014
1084,9	19,529
1085,3	12,1
1085,7	12,129
1086,1	8,871
1086,5	5,471
1086,9	10,929
1087,3	14,014
1087,7	14,871
1088,2	17,814
1088,6	16,843
1089	19,243
1089,4	17,843
1089,8	13,529
1090,2	11,386
1090,6	9,443
1091	14,871
1091,4	17,043
1091,9	13,557
1092,3	14,871
1092,7	17,329
1093,1	19,214
1093,5	20,3
1093,9	13,586
1094,3	16,757
1094,7	18,614
1095,1	20,129
1095,5	19,7
1096	14,957
1096,4	17,129
1096,8	15,243
1097,2	10,3
1097,6	12,129
1098	13,329
1098,4	11,9
1098,8	15,586
1099,2	19,357
1099,6	19,729
1100,1	19,9
1100,5	15,043
1100,9	10,3
1101,3	9,957
1101,7	5,529
1102,1	1,614
1102,5	3,843
1102,9	7,557
1103,3	12,3
1103,7	13,529
1104,2	13,243
1104,6	17,071
1105	13,529
1105,4	15,357
1105,8	10,014
1106,2	6,043
1106,6	4,729
1107	4,1
1107,4	2,3
1107,8	3,86
1108,3	0,15
