Data from Subt2_138.txt Node
Date: Sat Aug 26 18:28:08 MSK 2023
User: vat
Spectrometer: MAYP114033
Trigger mode: 0
Integration Time (sec): 1,000000E0
Scans to average: 5
Electric dark correction enabled: true
Nonlinearity correction enabled: false
Boxcar width: 3
XAxis mode: Wavelengths
Number of Pixels in Spectrum: 2068
>>>>>Begin Spectral Data<<<<<
199,4	0,4
199,9	0,82
200,4	-5,4
200,8	-5,814
201,3	-7,386
201,8	-6,7
202,2	-9,9
202,7	-6,157
203,2	-6,814
203,6	-3,557
204,1	-2,957
204,6	-2,5
205	-0,814
205,5	3,814
206	1,643
206,4	-0,071
206,9	0,871
207,4	3,386
207,8	2,843
208,3	1,271
208,8	-1,614
209,2	-0,671
209,7	3,1
210,2	5,214
210,6	1,5
211,1	7,643
211,5	3,957
212	3,986
212,5	1,814
212,9	-3,929
213,4	-4,357
213,9	-0,357
214,3	-4,186
214,8	1,643
215,3	-0,414
215,7	2,129
216,2	5,757
216,7	6,586
217,1	3,929
217,6	6,3
218,1	2,3
218,5	3,957
219	-0,643
219,5	-1,871
219,9	-4,929
220,4	-1,386
220,9	-6,271
221,3	-7,9
221,8	-6,871
222,3	-5,271
222,7	-1,671
223,2	-4,586
223,6	-9,186
224,1	-9,643
224,6	-5,186
225	-8,271
225,5	-5,757
226	-6,529
226,4	-1,871
226,9	1,357
227,4	7,214
227,8	-0,1
228,3	4,557
228,8	2,129
229,2	2,329
229,7	1,586
230,2	3,357
230,6	4,243
231,1	15,7
231,5	17,757
232	22,329
232,5	22,986
232,9	22,1
233,4	20,5
233,9	14,1
234,3	11,643
234,8	8,843
235,3	5,614
235,7	4,614
236,2	7,671
236,7	3,614
237,1	4,557
237,6	0,243
238,1	-1,843
238,5	-5,414
239	-5,614
239,4	-4,043
239,9	-1,186
240,4	1,014
240,8	6,071
241,3	4,071
241,8	4,071
242,2	4,386
242,7	0,557
243,2	0,071
243,6	-3,843
244,1	-5,929
244,6	-5,129
245	-2,443
245,5	-3,157
245,9	-4,186
246,4	-0,929
246,9	2,5
247,3	3,043
247,8	9,729
248,3	13,3
248,7	11,957
249,2	11,5
249,7	7,814
250,1	8,729
250,6	3,643
251	-0,357
251,5	-5,843
252	-2,214
252,4	1,614
252,9	-0,7
253,4	-6,643
253,8	-5,814
254,3	-2,671
254,8	-3,443
255,2	-6,329
255,7	-7,614
256,1	-5,643
256,6	0,529
257,1	4,129
257,5	-1,214
258	-0,786
258,5	-1,757
258,9	-3,614
259,4	-6,643
259,9	-8,214
260,3	-14,043
260,8	-16,586
261,2	-15,671
261,7	-17,071
262,2	-17,471
262,6	-15,529
263,1	-15,786
263,6	-12,386
264	-7,214
264,5	-5,471
264,9	-5,443
265,4	-2,557
265,9	-3,357
266,3	-2,214
266,8	-0,329
267,3	0,443
267,7	-2,243
268,2	0,014
268,7	-2,586
269,1	-0,786
269,6	-0,529
270	2,986
270,5	-0,671
271	2,014
271,4	1,529
271,9	2,9
272,4	3,643
272,8	2,671
273,3	-5,329
273,7	-3,471
274,2	-4,786
274,7	-5,929
275,1	-6,814
275,6	-6,929
276,1	-6,357
276,5	-1,471
277	0,357
277,4	0,614
277,9	4,871
278,4	4,614
278,8	5,014
279,3	6,243
279,8	7,3
280,2	7,7
280,7	10,014
281,1	6,329
281,6	6,7
282,1	5,614
282,5	4,357
283	4,757
283,4	2,414
283,9	1,843
284,4	7,329
284,8	9,986
285,3	9,929
285,8	11,471
286,2	4,614
286,7	5,214
287,1	3,214
287,6	-2,071
288,1	-5,957
288,5	-3,014
289	-8,3
289,5	-2,271
289,9	-2,5
290,4	0,9
290,8	-0,414
291,3	-0,1
291,8	1,786
292,2	3,7
292,7	2,643
293,1	0,271
293,6	-1,871
294,1	2,243
294,5	5,757
295	3,5
295,5	5,957
295,9	6,071
296,4	9,014
296,8	7,614
297,3	6,014
297,8	2,186
298,2	2,357
298,7	3,557
299,1	6,843
299,6	6,814
300,1	8,729
300,5	9,814
301	12,729
301,5	15,7
301,9	12,929
302,4	4,986
302,8	4,1
303,3	3,329
303,8	-3,757
304,2	-8,414
304,7	-13,243
305,1	-19,614
305,6	-15,729
306,1	-10,071
306,5	-7,014
307	2,414
307,4	7,157
307,9	6,671
308,4	10,843
308,8	6,5
309,3	0,843
309,8	-1,471
310,2	-5,043
310,7	-10,5
311,1	-7,5
311,6	-6,243
312,1	-1,386
312,5	4,843
313	5,5
313,4	8,129
313,9	15,729
314,4	14,5
314,8	11,614
315,3	13,471
315,7	3,814
316,2	2,014
316,7	-3,186
317,1	-3,386
317,6	-4,7
318	0,671
318,5	-0,929
319	0,7
319,4	1,157
319,9	11,386
320,3	8,671
320,8	5,786
321,3	8,7
321,7	10,214
322,2	9,671
322,6	9,386
323,1	5,071
323,6	2,7
324	2,071
324,5	-6,071
324,9	-7,643
325,4	-4,5
325,9	-1,871
326,3	-2,871
326,8	2,014
327,2	-2,214
327,7	2,5
328,2	-0,243
328,6	3,3
329,1	-1,557
329,5	-3,986
330	-6,757
330,5	3,157
330,9	3,386
331,4	7,871
331,8	4,957
332,3	7,529
332,8	8,843
333,2	10,157
333,7	9,957
334,1	8,957
334,6	5,014
335,1	-0,843
335,5	-2,071
336	-4,271
336,4	-2,757
336,9	3,414
337,4	4,643
337,8	4,271
338,3	8,529
338,7	8,129
339,2	7,186
339,7	9,7
340,1	1,3
340,6	1,014
341	0,471
341,5	-1,329
342	-0,986
342,4	-1,614
342,9	-8,329
343,3	-6,214
343,8	-8,243
344,2	-7,843
344,7	-2,557
345,2	-2,929
345,6	1,557
346,1	4,729
346,5	-0,043
347	-1,929
347,5	2,1
347,9	2,757
348,4	3,5
348,8	3,157
349,3	2,929
349,8	8,386
350,2	17,757
350,7	13,614
351,1	11,9
351,6	13,157
352	17,5
352,5	18,414
353	26,471
353,4	25,643
353,9	36,814
354,3	45,129
354,8	55,043
355,3	63,786
355,7	79,871
356,2	90,043
356,6	107,186
357,1	126,729
357,5	148,957
358	175,157
358,5	199,643
358,9	229,843
359,4	268,129
359,8	310,357
360,3	355,586
360,8	405,871
361,2	467,357
361,7	535,586
362,1	607,786
362,6	687,243
363	768,014
363,5	852,9
364	949,386
364,4	1041,729
364,9	1138,243
365,3	1233,529
365,8	1318,9
366,3	1402,586
366,7	1477,157
367,2	1540,471
367,6	1592,757
368,1	1636,786
368,5	1659,986
369	1672,414
369,5	1678,786
369,9	1667,214
370,4	1639,214
370,8	1603,929
371,3	1550,843
371,7	1497,929
372,2	1437,1
372,7	1361,757
373,1	1295,643
373,6	1220,7
374	1147,271
374,5	1073,7
374,9	1003,814
375,4	932,729
375,9	864,157
376,3	794,443
376,8	728,729
377,2	667,214
377,7	608,071
378,2	554,129
378,6	506,843
379,1	465,214
379,5	431,071
380	400,786
380,4	368,757
380,9	344,157
381,4	314,071
381,8	289,986
382,3	269,957
382,7	245,071
383,2	229,386
383,6	210,214
384,1	196,214
384,6	184,071
385	166,814
385,5	151,243
385,9	136,986
386,4	126,414
386,8	119,1
387,3	105,443
387,7	98,414
388,2	95,471
388,7	92,5
389,1	88,329
389,6	80,586
390	78,643
390,5	75,386
390,9	72,271
391,4	67,7
391,9	62,214
392,3	63,786
392,8	60,071
393,2	50,643
393,7	47,357
394,1	40,471
394,6	38,986
395,1	41,014
395,5	35,071
396	34,043
396,4	36,186
396,9	37,986
397,3	42,729
397,8	42,529
398,2	41,271
398,7	42,3
399,2	42,3
399,6	41,757
400,1	37,671
400,5	31,7
401	31,243
401,4	25,786
401,9	25,9
402,4	26,814
402,8	23,243
403,3	31,671
403,7	32,329
404,2	32,357
404,6	35,614
405,1	35,871
405,5	33,071
406	38,757
406,5	32,9
406,9	34,529
407,4	34,586
407,8	38,414
408,3	41,671
408,7	45,643
409,2	52,443
409,6	58,357
410,1	65,271
410,6	75,529
411	77,5
411,5	83,614
411,9	91,386
412,4	93,557
412,8	102,186
413,3	106,986
413,7	107,757
414,2	113,643
414,7	121,7
415,1	132,3
415,6	140,186
416	147,1
416,5	155,129
416,9	159,3
417,4	169,243
417,8	183,3
418,3	190,357
418,8	199,157
419,2	204,243
419,7	216,929
420,1	233,1
420,6	243,129
421	246,7
421,5	260,729
421,9	273,586
422,4	292,043
422,8	303,643
423,3	317,757
423,8	334,157
424,2	346,671
424,7	358,386
425,1	374,186
425,6	390,443
426	406,214
426,5	428,729
426,9	454,986
427,4	478,014
427,9	500,186
428,3	525,443
428,8	551,014
429,2	581,529
429,7	603,729
430,1	625,814
430,6	660,157
431	691,557
431,5	725,214
431,9	752,986
432,4	789,643
432,8	831,729
433,3	873,271
433,8	912,443
434,2	961,186
434,7	1009,614
435,1	1059,414
435,6	1110,186
436	1165,157
436,5	1224,471
436,9	1283,786
437,4	1341,414
437,8	1402,1
438,3	1467,586
438,8	1530,871
439,2	1603,9
439,7	1683,129
440,1	1755,786
440,6	1841,7
441	1922,986
441,5	2009,786
441,9	2103,9
442,4	2182,786
442,8	2269,7
443,3	2368,929
443,7	2466,386
444,2	2566,071
444,7	2672,557
445,1	2778,614
445,6	2890,157
446	3005,3
446,5	3119,757
446,9	3235,843
447,4	3359,986
447,8	3484,729
448,3	3612,214
448,7	3748,986
449,2	3879,214
449,6	4015,586
450,1	4155,414
450,6	4304,843
451	4444,614
451,5	4596,957
451,9	4754,5
452,4	4907,071
452,8	5063,043
453,3	5217,071
453,7	5370,957
454,2	5546,043
454,6	5708,814
455,1	5877,271
455,5	6042,529
456	6215,357
456,4	6395,9
456,9	6579,214
457,3	6757,871
457,8	6932,243
458,3	7103,1
458,7	7284,729
459,2	7475,157
459,6	7656,186
460,1	7841,729
460,5	8026,043
461	8215,671
461,4	8403,529
461,9	8608,643
462,3	8798,414
462,8	8996,529
463,2	9186,129
463,7	9379,729
464,1	9579,643
464,6	9787,357
465	9981,5
465,5	10173,9
466	10361,3
466,4	10547,871
466,9	10742,614
467,3	10927,271
467,8	11107,814
468,2	11286,643
468,7	11471,014
469,1	11654,871
469,6	11846,3
470	12018,871
470,5	12195,043
470,9	12378,557
471,4	12554,529
471,8	12721,214
472,3	12889,786
472,7	13047,443
473,2	13222,129
473,6	13376,329
474,1	13522,414
474,5	13670,871
475	13825,471
475,4	13977,786
475,9	14134,386
476,4	14263,614
476,8	14418,357
477,3	14559,129
477,7	14696,929
478,2	14824,3
478,6	14940,814
479,1	15046,243
479,5	15172,157
480	15272,614
480,4	15374,214
480,9	15479,271
481,3	15553,443
481,8	15637,271
482,2	15717,529
482,7	15791,671
483,1	15872,1
483,6	15940,529
484	15992,614
484,5	16079,271
484,9	16138,471
485,4	16194,9
485,8	16237,986
486,3	16268,271
486,7	16299,7
487,2	16324,729
487,6	16338,614
488,1	16355,871
488,5	16365,386
489	16367,9
489,4	16376,186
489,9	16371,186
490,4	16381,043
490,8	16389,329
491,3	16376,243
491,7	16363,9
492,2	16346,7
492,6	16322,9
493,1	16295,9
493,5	16249,843
494	16186,814
494,4	16155,014
494,9	16103,5
495,3	16045,071
495,8	15993,843
496,2	15946,643
496,7	15888,471
497,1	15833,729
497,6	15774,3
498	15716,129
498,5	15668,5
498,9	15601,1
499,4	15528,786
499,8	15460,814
500,3	15398,643
500,7	15310,471
501,2	15228,729
501,6	15129,757
502,1	15040,329
502,5	14956,643
503	14861,957
503,4	14760,014
503,9	14672,071
504,3	14586,1
504,8	14503,043
505,2	14407,386
505,7	14306,3
506,1	14220,471
506,6	14120,557
507	14006,471
507,5	13893,929
507,9	13779,929
508,4	13678,529
508,8	13572,957
509,3	13450,1
509,7	13346,757
510,2	13244,614
510,6	13131,957
511,1	13023,071
511,5	12908,786
512	12787,386
512,4	12673,871
512,9	12549,1
513,3	12433,329
513,8	12309,271
514,2	12185,786
514,7	12067,157
515,1	11949,443
515,6	11833,871
516	11715,1
516,5	11601,386
516,9	11491,3
517,4	11380,871
517,8	11268,643
518,3	11152,329
518,7	11041,929
519,2	10930,014
519,6	10804,814
520,1	10689,157
520,5	10573,357
521	10450,814
521,4	10338,786
521,9	10216,729
522,3	10100,843
522,8	9986,129
523,2	9883,386
523,7	9771,243
524,1	9659,014
524,6	9547,414
525	9445,557
525,5	9339,1
525,9	9246,929
526,4	9127,586
526,8	9032,871
527,3	8934,014
527,7	8836,9
528,2	8734,329
528,6	8631,957
529,1	8526,157
529,5	8435,9
530	8325,814
530,4	8232,757
530,9	8138,929
531,3	8044,786
531,8	7950,9
532,2	7859,757
532,6	7772,271
533,1	7682,9
533,5	7590,986
534	7498,729
534,4	7414,014
534,9	7334,471
535,3	7248,014
535,8	7159,814
536,2	7082,414
536,7	7006,729
537,1	6927,157
537,6	6846,471
538	6773,3
538,5	6704,014
538,9	6626,586
539,4	6557,814
539,8	6481,214
540,3	6409,871
540,7	6338,871
541,2	6263,071
541,6	6187,129
542,1	6122,357
542,5	6052,557
543	5978,5
543,4	5906,329
543,9	5841,9
544,3	5777,586
544,8	5713,243
545,2	5646,871
545,7	5581,843
546,1	5529,271
546,5	5474,243
547	5411,786
547,4	5356,186
547,9	5296,3
548,3	5248,986
548,8	5197,814
549,2	5138,814
549,7	5086,757
550,1	5037,243
550,6	4986,529
551	4941,357
551,5	4877,557
551,9	4826,071
552,4	4773,643
552,8	4721,014
553,3	4670,557
553,7	4619,814
554,2	4576,043
554,6	4539,986
555,1	4489,043
555,5	4448,557
555,9	4406,129
556,4	4367,843
556,8	4321,214
557,3	4279,729
557,7	4234,043
558,2	4194,757
558,6	4158,814
559,1	4120,7
559,5	4075,7
560	4038,929
560,4	3997,871
560,9	3965,271
561,3	3924,1
561,8	3882,5
562,2	3846,014
562,7	3815,186
563,1	3787,5
563,6	3741,014
564	3705,614
564,4	3675,357
564,9	3643,357
565,3	3605,786
565,8	3572,757
566,2	3538,414
566,7	3516,557
567,1	3484,271
567,6	3454,871
568	3416,729
568,5	3394,357
568,9	3359,186
569,4	3329,3
569,8	3300,729
570,3	3268,586
570,7	3236,7
571,1	3215,7
571,6	3181,929
572	3162,929
572,5	3134,443
572,9	3102,414
573,4	3078,386
573,8	3053,3
574,3	3026,871
574,7	3006,586
575,2	2972,071
575,6	2946,871
576,1	2930,1
576,5	2907,1
576,9	2881,329
577,4	2853,643
577,8	2825,414
578,3	2808,929
578,7	2782,843
579,2	2759,071
579,6	2734,043
580,1	2710,071
580,5	2693,386
581	2678,129
581,4	2646,957
581,9	2626,957
582,3	2599,786
582,7	2586,157
583,2	2567,414
583,6	2545,871
584,1	2522,357
584,5	2505,7
585	2486,157
585,4	2462,929
585,9	2435,214
586,3	2417,243
586,8	2396,071
587,2	2372,157
587,6	2359,043
588,1	2344,129
588,5	2328,9
589	2312,414
589,4	2290,957
589,9	2271,271
590,3	2259,957
590,8	2242,386
591,2	2223,871
591,7	2211,671
592,1	2198,786
592,5	2190,243
593	2173,386
593,4	2159,271
593,9	2138,843
594,3	2116,957
594,8	2098,129
595,2	2079,9
595,7	2062,529
596,1	2052,271
596,6	2032,443
597	2026,386
597,4	2017,414
597,9	2003,729
598,3	1994,757
598,8	1984,671
599,2	1966,043
599,7	1952,586
600,1	1931,243
600,6	1922,043
601	1913,757
601,4	1900,129
601,9	1886,986
602,3	1874,129
602,8	1867,214
603,2	1853,3
603,7	1835,386
604,1	1820,614
604,6	1805,529
605	1787,614
605,4	1780,386
605,9	1763,271
606,3	1753,5
606,8	1744,871
607,2	1734,071
607,7	1721,814
608,1	1712,586
608,6	1702,414
609	1696,014
609,4	1683,786
609,9	1667,729
610,3	1654,671
610,8	1640,957
611,2	1629,214
611,7	1618,929
612,1	1602,3
612,6	1595,786
613	1585,671
613,4	1578,329
613,9	1566,186
614,3	1554,843
614,8	1542,757
615,2	1534,329
615,7	1527,243
616,1	1521,443
616,6	1507,443
617	1495,529
617,4	1489,786
617,9	1481,786
618,3	1472,243
618,8	1461,357
619,2	1448,671
619,7	1442,357
620,1	1434,757
620,5	1425,557
621	1414,1
621,4	1402,186
621,9	1388,529
622,3	1380,643
622,8	1364,643
623,2	1356,329
623,6	1345,814
624,1	1338,814
624,5	1326,586
625	1325,729
625,4	1316,871
625,9	1313,957
626,3	1305,129
626,8	1289,9
627,2	1283,243
627,6	1274,1
628,1	1260,843
628,5	1256,786
629	1243,129
629,4	1236,529
629,9	1228,957
630,3	1209,871
630,7	1201,471
631,2	1187,671
631,6	1175,243
632,1	1172,843
632,5	1165,643
633	1159,957
633,4	1154,129
633,8	1150,671
634,3	1144,329
634,7	1136,271
635,2	1123,157
635,6	1113,414
636,1	1106,043
636,5	1094,729
636,9	1082,557
637,4	1075,271
637,8	1062,614
638,3	1055,757
638,7	1045,329
639,2	1035,071
639,6	1036,043
640	1030,071
640,5	1022,014
640,9	1020,043
641,4	1012,9
641,8	1010,614
642,2	1004,9
642,7	998,386
643,1	995,614
643,6	987,186
644	977,986
644,5	979,043
644,9	974,414
645,3	967,471
645,8	955,071
646,2	948,614
646,7	945,5
647,1	937,643
647,6	927,786
648	921,5
648,4	915,186
648,9	914,186
649,3	907,957
649,8	901,871
650,2	899,643
650,6	892,443
651,1	884,9
651,5	883,386
652	872,757
652,4	865,814
652,9	858,957
653,3	852,729
653,7	844,929
654,2	837,5
654,6	827,243
655,1	827,643
655,5	828,7
655,9	822,129
656,4	814,729
656,8	812,557
657,3	811,757
657,7	812,1
658,2	805,586
658,6	795,186
659	793,757
659,5	787,871
659,9	777,186
660,4	769,614
660,8	762,671
661,2	752,214
661,7	746,786
662,1	737,786
662,6	731,7
663	729,9
663,4	721,5
663,9	718,757
664,3	718,014
664,8	708,843
665,2	704,214
665,6	701,671
666,1	697,757
666,5	690,186
667	680,243
667,4	673,071
667,9	671,3
668,3	665,529
668,7	658,814
669,2	653,1
669,6	654,614
670,1	652,357
670,5	649,3
670,9	645,471
671,4	641,014
671,8	638,9
672,3	642,3
672,7	639,014
673,1	630,643
673,6	622,557
674	618,614
674,5	611,157
674,9	602,986
675,3	588,014
675,8	582,186
676,2	578,957
676,7	576,529
677,1	571,043
677,5	571,614
678	570,843
678,4	572,386
678,9	569,214
679,3	568,271
679,7	566,729
680,2	561,014
680,6	554,7
681,1	547,214
681,5	543,729
681,9	537,014
682,4	533,5
682,8	529,243
683,3	528,329
683,7	526,3
684,1	527,557
684,6	519,9
685	513,357
685,5	507,586
685,9	504,671
686,3	500,357
686,8	497,157
687,2	491,643
687,7	486,814
688,1	485,443
688,5	484,043
689	481,214
689,4	476,786
689,9	471,071
690,3	465,386
690,7	465,443
691,2	465,843
691,6	460,843
692	457,329
692,5	457,386
692,9	457,729
693,4	456,071
693,8	452,129
694,2	446,529
694,7	440,214
695,1	434,843
695,6	431,5
696	430,1
696,4	425,729
696,9	419,843
697,3	410,186
697,8	410,443
698,2	403,614
698,6	401,957
699,1	396,643
699,5	398,471
699,9	396,729
700,4	396,757
700,8	394,957
701,3	398,786
701,7	389,014
702,1	382,186
702,6	374,643
703	374,271
703,5	373,1
703,9	367,929
704,3	361,786
704,8	362,814
705,2	364,157
705,6	361,871
706,1	358,9
706,5	355,843
707	352,043
707,4	349,929
707,8	344,757
708,3	344,043
708,7	341,814
709,2	338,757
709,6	337,814
710	340,443
710,5	336,786
710,9	337,843
711,3	334,9
711,8	336,871
712,2	335,043
712,7	332,843
713,1	327,7
713,5	327,357
714	324,957
714,4	317,843
714,8	315,957
715,3	313,529
715,7	312,071
716,2	308,9
716,6	308,214
717	301,7
717,5	299,5
717,9	295,5
718,3	288,614
718,8	287,671
719,2	286,014
719,7	284,071
720,1	284,671
720,5	286,386
721	283,214
721,4	284,843
721,8	285,014
722,3	283,529
722,7	285,071
723,2	280,471
723,6	272,357
724	271,243
724,5	266,7
724,9	257,786
725,3	254,986
725,8	247,757
726,2	246,357
726,7	249,471
727,1	245,957
727,5	245,329
728	242,043
728,4	239,671
728,8	236,271
729,3	233,271
729,7	228,014
730,1	225,129
730,6	228,929
731	229,929
731,5	229,614
731,9	228,729
732,3	231,814
732,8	239,014
733,2	240,3
733,6	234,586
734,1	229,671
734,5	226,186
734,9	226,757
735,4	225,014
735,8	216,757
736,3	217,786
736,7	214,1
737,1	217,014
737,6	215,614
738	210,929
738,4	204,729
738,9	203,529
739,3	198,9
739,7	196,671
740,2	192,9
740,6	196,843
741,1	203,614
741,5	203,957
741,9	202,7
742,4	200,843
742,8	206,1
743,2	208,871
743,7	203,071
744,1	191,614
744,5	191,871
745	190,586
745,4	188,5
745,8	185,643
746,3	181,186
746,7	177,843
747,2	182,071
747,6	182,129
748	184,071
748,5	187,243
748,9	183,329
749,3	182,186
749,8	187,271
750,2	183,1
750,6	179,071
751,1	179,043
751,5	174,757
751,9	176,586
752,4	178,386
752,8	172,071
753,3	171,814
753,7	176,157
754,1	169,557
754,6	167,243
755	164,3
755,4	158,014
755,9	158,414
756,3	156,843
756,7	154,214
757,2	157,071
757,6	158,014
758	156,614
758,5	163,557
758,9	160,643
759,3	164,443
759,8	160,929
760,2	158,843
760,6	156,214
761,1	155,271
761,5	151,7
761,9	153,243
762,4	146,5
762,8	145,443
763,3	141,671
763,7	146,671
764,1	144,271
764,6	142,529
765	141,386
765,4	141,586
765,9	142,986
766,3	146,1
766,7	137,9
767,2	137,586
767,6	136,871
768	135,957
768,5	136,129
768,9	133,157
769,3	131,357
769,8	129,386
770,2	131,3
770,6	126,786
771,1	127,443
771,5	125,186
771,9	128,786
772,4	130,071
772,8	131,757
773,2	130,5
773,7	132,3
774,1	130,529
774,5	131,557
775	128,957
775,4	127,243
775,8	123,7
776,3	121,557
776,7	117,786
777,1	116,814
777,6	115,9
778	116,271
778,4	111,986
778,9	118,157
779,3	119,129
779,7	123,757
780,2	124,614
780,6	124,3
781	121,157
781,5	122,986
781,9	120,929
782,3	116,786
782,8	112,986
783,2	110,043
783,6	110,129
784,1	106,9
784,5	100,757
784,9	94,986
785,4	97,9
785,8	101,357
786,2	102,614
786,7	101,986
787,1	100,186
787,5	103,843
788	105,386
788,4	101,957
788,8	93,071
789,3	88,643
789,7	88,529
790,1	89,5
790,6	93,9
791	94,329
791,4	94,957
791,9	96,757
792,3	95,9
792,7	98,014
793,2	100,243
793,6	92,643
794	92,9
794,5	88,9
794,9	92,043
795,3	98,671
795,8	92,929
796,2	91,557
796,6	94,329
797,1	88,643
797,5	90,043
797,9	84,329
798,4	77,157
798,8	75,271
799,2	69,757
799,7	71,5
800,1	74,786
800,5	75,614
801	79,7
801,4	80,843
801,8	83,986
802,2	87,329
802,7	82,3
803,1	81,471
803,5	80,329
804	79,7
804,4	78,5
804,8	79,471
805,3	76,157
805,7	78,729
806,1	77,586
806,6	78,186
807	75,443
807,4	74,929
807,9	66,957
808,3	69,557
808,7	69,557
809,2	73,929
809,6	73,443
810	73,186
810,4	76,071
810,9	76,986
811,3	77,786
811,7	81,386
812,2	81,243
812,6	80,557
813	85,9
813,5	85,557
813,9	88,129
814,3	86,814
814,8	78,214
815,2	69,214
815,6	66,757
816,1	64,614
816,5	60,129
816,9	63,014
817,3	61,7
817,8	66,757
818,2	72,357
818,6	69,643
819,1	67,557
819,5	66,443
819,9	63,243
820,4	61,614
820,8	55,5
821,2	48,329
821,7	51,757
822,1	52,5
822,5	59,586
822,9	56,814
823,4	57,357
823,8	59,5
824,2	64,071
824,7	60,7
825,1	54,471
825,5	45,957
826	40,7
826,4	40,043
826,8	37,529
827,3	39,329
827,7	37,671
828,1	40,843
828,5	40,014
829	41,014
829,4	40,557
829,8	34,729
830,3	28,586
830,7	26,9
831,1	29,757
831,6	31,271
832	34,3
832,4	33,329
832,8	41,157
833,3	43,757
833,7	45,014
834,1	39,214
834,6	36,757
835	40,129
835,4	42,243
835,8	38,843
836,3	41,9
836,7	46,671
837,1	46,271
837,6	50,9
838	47,643
838,4	47,843
838,9	47,843
839,3	41,871
839,7	40,414
840,1	38,071
840,6	33,329
841	35,614
841,4	32,843
841,9	32,129
842,3	34,643
842,7	34,014
843,1	36,586
843,6	40,9
844	38,3
844,4	41,357
844,9	43,443
845,3	43,5
845,7	39,471
846,2	38,014
846,6	30,329
847	29,443
847,4	28,586
847,9	29,586
848,3	26,443
848,7	28,186
849,2	27,214
849,6	26,443
850	31,243
850,4	28,3
850,9	27,614
851,3	31,186
851,7	34,186
852,2	35,071
852,6	42,329
853	41,214
853,4	41,329
853,9	40,9
854,3	38,643
854,7	37,814
855,2	38,414
855,6	34,929
856	24,814
856,4	21,271
856,9	18,929
857,3	23,071
857,7	26,729
858,2	32,329
858,6	32,414
859	36,586
859,4	40,814
859,9	40,414
860,3	32,129
860,7	25,986
861,1	23,357
861,6	24,186
862	28,414
862,4	26,186
862,9	26,7
863,3	29,786
863,7	28,329
864,1	24,243
864,6	22,586
865	20,757
865,4	22,071
865,9	21,929
866,3	19,186
866,7	17,843
867,1	15,786
867,6	17,843
868	15,529
868,4	11,786
868,8	12,071
869,3	16,5
869,7	22,729
870,1	24,186
870,6	23,471
871	22,071
871,4	31,043
871,8	28,557
872,3	28,871
872,7	27,357
873,1	30,071
873,5	27,786
874	29,1
874,4	25,214
874,8	20,871
875,3	19,529
875,7	18,014
876,1	16,671
876,5	16,7
877	17,443
877,4	10,014
877,8	19,586
878,2	21,671
878,7	22,186
879,1	19,671
879,5	25,786
879,9	24,671
880,4	28,843
880,8	26,786
881,2	23,7
881,7	18,843
882,1	21,9
882,5	11,9
882,9	6,814
883,4	3,929
883,8	2,3
884,2	-2,3
884,6	1,471
885,1	-0,471
885,5	5,5
885,9	5,729
886,3	9,586
886,8	7,671
887,2	10,843
887,6	13,471
888	12,643
888,5	12,7
888,9	16,357
889,3	9,586
889,8	9,557
890,2	8,157
890,6	0,929
891	4,7
891,5	5,471
891,9	5,186
892,3	12,329
892,7	12,386
893,2	16,386
893,6	21,414
894	24,243
894,4	19,271
894,9	23,129
895,3	21,329
895,7	23,443
896,1	21,3
896,6	18,786
897	16,586
897,4	20,929
897,8	23,386
898,3	23,729
898,7	19,014
899,1	17,529
899,5	20,414
900	10,329
900,4	7,529
900,8	-1,757
901,2	-6,071
901,7	-6,271
902,1	-6,814
902,5	-9,3
902,9	-3,386
903,4	0,414
903,8	4,386
904,2	6,614
904,6	10,786
905,1	14,214
905,5	12,071
905,9	11,843
906,3	10,243
906,8	9,786
907,2	11,043
907,6	10,043
908	9,871
908,5	9,186
908,9	5,9
909,3	4,957
909,7	4,9
910,2	5,614
910,6	8,529
911	6,957
911,4	11,357
911,9	13,329
912,3	12,814
912,7	17,757
913,1	19,671
913,6	16,329
914	15,471
914,4	11,443
914,8	14,643
915,3	12,9
915,7	7,5
916,1	7,871
916,5	11,271
916,9	10,671
917,4	14,214
917,8	15,814
918,2	15,129
918,6	13,3
919,1	7,129
919,5	8,871
919,9	11,129
920,3	9,386
920,8	2,529
921,2	2,186
921,6	3,3
922	6,7
922,5	0,357
922,9	-1,614
923,3	-1,014
923,7	2,5
924,2	1,729
924,6	3,471
925	5,5
925,4	4,129
925,8	3,271
926,3	0,671
926,7	-1,786
927,1	-0,1
927,5	1,471
928	-2,9
928,4	-2,786
928,8	0,986
929,2	2,357
929,7	6,014
930,1	9,614
930,5	6,586
930,9	11,329
931,3	14,414
931,8	13,9
932,2	14,186
932,6	12,7
933	2,386
933,5	5,186
933,9	5,1
934,3	3,871
934,7	0,929
935,2	1,871
935,6	1,214
936	8,557
936,4	6,414
936,8	4,471
937,3	5,643
937,7	8,329
938,1	9,043
938,5	4,671
939	7,071
939,4	6,586
939,8	3,243
940,2	2,243
940,6	2,214
941,1	2,071
941,5	10,214
941,9	3,1
942,3	2,871
942,8	5,471
943,2	11,186
943,6	9,443
944	5,329
944,4	0,814
944,9	0,071
945,3	1,071
945,7	-1,014
946,1	-10,471
946,6	-14,357
947	-12,814
947,4	-9,214
947,8	0,214
948,2	-1,614
948,7	0,243
949,1	1,729
949,5	9,557
949,9	11,329
950,3	8,271
950,8	6,043
951,2	5,386
951,6	-0,814
952	4,1
952,5	-3,243
952,9	-2,671
953,3	-0,529
953,7	-2,014
954,1	2,357
954,6	9,186
955	7,529
955,4	7,986
955,8	7,3
956,2	4,786
956,7	4,586
957,1	0,071
957,5	2,843
957,9	1,814
958,3	0,643
958,8	2,386
959,2	7,329
959,6	8,643
960	9,414
960,5	8,271
960,9	9,1
961,3	12,357
961,7	9,357
962,1	5,1
962,6	4,329
963	3,271
963,4	-3,271
963,8	-6,214
964,2	-5,1
964,7	-6,671
965,1	-4,386
965,5	-4,014
965,9	-4,443
966,3	3,329
966,8	4,471
967,2	4,871
967,6	4,3
968	-1,1
968,4	-0,157
968,9	5,414
969,3	7,386
969,7	6,929
970,1	7,157
970,5	8,243
971	14,357
971,4	9,986
971,8	5,271
972,2	3,9
972,6	3,843
973,1	1,557
973,5	4,529
973,9	6,986
974,3	5,014
974,7	7,157
975,2	3,243
975,6	0,157
976	1,271
976,4	-4,471
976,8	-9,129
977,3	-9,957
977,7	-13,129
978,1	-13,9
978,5	-12,843
978,9	-17,471
979,4	-14,014
979,8	-15,471
980,2	-11,3
980,6	-8,557
981	-9,014
981,5	-5,043
981,9	0,9
982,3	1,586
982,7	5,614
983,1	2,929
983,6	3,3
984	5,871
984,4	3,586
984,8	3,757
985,2	5,071
985,6	-0,129
986,1	5,157
986,5	7,5
986,9	0,529
987,3	2,357
987,7	1,414
988,2	-2,329
988,6	1,186
989	-6,957
989,4	-9,9
989,8	-6,557
990,3	-7,186
990,7	-8,214
991,1	-4,129
991,5	-1,843
991,9	3,643
992,3	4,271
992,8	10,243
993,2	10,443
993,6	14,386
994	14,471
994,4	14,329
994,9	13,757
995,3	13,186
995,7	8,157
996,1	9,843
996,5	8,814
996,9	4,986
997,4	3,271
997,8	0,586
998,2	-0,986
998,6	-5,643
999	-9,643
999,5	-14,214
999,9	-13,471
1000,3	-16,871
1000,7	-12,986
1001,1	-14,671
1001,5	-6,386
1002	0,071
1002,4	3,157
1002,8	3,557
1003,2	8,186
1003,6	9,129
1004	15,986
1004,5	8,929
1004,9	6,814
1005,3	2,386
1005,7	3,129
1006,1	-3,471
1006,6	-5,3
1007	-5,586
1007,4	-3,271
1007,8	-3,214
1008,2	1,729
1008,6	4,157
1009,1	7,329
1009,5	8,614
1009,9	7,071
1010,3	9,814
1010,7	6,871
1011,1	3,529
1011,6	0,471
1012	4,157
1012,4	4,186
1012,8	3,214
1013,2	5,443
1013,6	8,386
1014,1	8,414
1014,5	8,186
1014,9	5,443
1015,3	1,3
1015,7	0,271
1016,1	-0,729
1016,6	-2,5
1017	-1,671
1017,4	-1,329
1017,8	-3,1
1018,2	1,3
1018,6	0,1
1019,1	-1,786
1019,5	-4,1
1019,9	-9,071
1020,3	-7,3
1020,7	-3,786
1021,1	-5,557
1021,6	-2,243
1022	0,843
1022,4	5,671
1022,8	11,586
1023,2	11,043
1023,6	9,329
1024,1	16,243
1024,5	14,071
1024,9	6,071
1025,3	2,643
1025,7	0,957
1026,1	1,814
1026,6	1,557
1027	-2,9
1027,4	4,986
1027,8	6,986
1028,2	7,186
1028,6	10,814
1029	9,786
1029,5	14,243
1029,9	11,843
1030,3	-0,014
1030,7	2,071
1031,1	3,071
1031,5	-3,186
1032	-6,671
1032,4	-10,243
1032,8	-5,871
1033,2	1,7
1033,6	3,329
1034	0,386
1034,4	1,786
1034,9	7,929
1035,3	4,071
1035,7	2,9
1036,1	-2,957
1036,5	-6,843
1036,9	-3,614
1037,4	3,414
1037,8	-3,7
1038,2	-2,271
1038,6	-1,614
1039	3,071
1039,4	13,043
1039,8	5,5
1040,3	1,043
1040,7	3,043
1041,1	4,043
1041,5	4,5
1041,9	1,671
1042,3	-7,014
1042,7	3,614
1043,2	4,043
1043,6	3,1
1044	2,814
1044,4	2,186
1044,8	3,3
1045,2	5,329
1045,6	4,071
1046,1	3,357
1046,5	3,186
1046,9	2,357
1047,3	1,243
1047,7	1,357
1048,1	0,5
1048,5	-4,443
1049	0,3
1049,4	8,557
1049,8	10,357
1050,2	6,757
1050,6	7,757
1051	9,471
1051,4	11,643
1051,9	6,243
1052,3	7,986
1052,7	9,814
1053,1	10,9
1053,5	13,814
1053,9	13,5
1054,3	11,014
1054,8	15,957
1055,2	13,986
1055,6	17,386
1056	16,471
1056,4	10,329
1056,8	12,1
1057,2	12,557
1057,6	5,7
1058,1	-0,414
1058,5	-11,214
1058,9	-7,129
1059,3	-5,814
1059,7	-5,5
1060,1	-3,329
1060,5	0,443
1061	1,786
1061,4	7,614
1061,8	8,014
1062,2	6,671
1062,6	7,071
1063	8,871
1063,4	6,186
1063,8	7,643
1064,3	0,614
1064,7	-1,5
1065,1	-1,3
1065,5	-4,071
1065,9	-8,5
1066,3	-7,529
1066,7	-12,443
1067,1	-7,214
1067,6	-6,243
1068	-9,529
1068,4	-10,757
1068,8	-5,386
1069,2	-4,614
1069,6	0,929
1070	3,243
1070,4	1,129
1070,9	4,043
1071,3	2,186
1071,7	-1,329
1072,1	-3,386
1072,5	-8,014
1072,9	-8,386
1073,3	-8,1
1073,7	-8,9
1074,2	-7,414
1074,6	-7,243
1075	-8,1
1075,4	-7,9
1075,8	-7,757
1076,2	-10,929
1076,6	-9,814
1077	-9,157
1077,5	-6,357
1077,9	-4,443
1078,3	-3,014
1078,7	-1,843
1079,1	1,929
1079,5	7,1
1079,9	5,929
1080,3	1,586
1080,7	2,357
1081,2	9,843
1081,6	7,986
1082	8,414
1082,4	8,443
1082,8	13,043
1083,2	14,129
1083,6	16,043
1084	7,614
1084,5	9,843
1084,9	8,386
1085,3	0,643
1085,7	-2,129
1086,1	-1,329
1086,5	-1,157
1086,9	3,414
1087,3	1,5
1087,7	1,757
1088,2	3,557
1088,6	4,043
1089	5,871
1089,4	4,557
1089,8	3,5
1090,2	-0,157
1090,6	0,157
1091	4,671
1091,4	1,986
1091,9	-1,7
1092,3	-1,814
1092,7	-6,157
1093,1	-4,014
1093,5	-6,986
1093,9	-9,929
1094,3	-4,757
1094,7	-6,471
1095,1	-3,643
1095,5	-2,329
1096	-4,443
1096,4	-1,043
1096,8	-1,1
1097,2	-5,157
1097,6	1,871
1098	-0,471
1098,4	0,729
1098,8	6,471
1099,2	12,329
1099,6	11,871
1100,1	10,414
1100,5	4,3
1100,9	4,186
1101,3	6,357
1101,7	2,843
1102,1	-2,186
1102,5	1,557
1102,9	4,443
1103,3	9,929
1103,7	11,529
1104,2	9,357
1104,6	8,557
1105	4,814
1105,4	4,043
1105,8	2,471
1106,2	-0,329
1106,6	-2,757
1107	-2,586
1107,4	-1,467
1107,8	2,18
1108,3	-0,6
