Data from Subt2_059.txt Node
Date: Sat Aug 26 16:31:04 MSK 2023
User: vat
Spectrometer: MAYP114033
Trigger mode: 0
Integration Time (sec): 1,000000E0
Scans to average: 5
Electric dark correction enabled: true
Nonlinearity correction enabled: false
Boxcar width: 3
XAxis mode: Wavelengths
Number of Pixels in Spectrum: 2068
>>>>>Begin Spectral Data<<<<<
199,4	-0,15
199,9	2,32
200,4	-0,3
200,8	-0,171
201,3	0,314
201,8	2,314
202,2	3,429
202,7	5,314
203,2	2,714
203,6	2,914
204,1	2,114
204,6	6,714
205	8,829
205,5	8,886
206	9,229
206,4	12,857
206,9	12,6
207,4	14,457
207,8	8,086
208,3	5,971
208,8	6,257
209,2	4,114
209,7	3,686
210,2	10,2
210,6	10,629
211,1	12,057
211,5	10,4
212	6,286
212,5	4,2
212,9	1,943
213,4	-0,8
213,9	-3,943
214,3	-1,914
214,8	-1,686
215,3	0,143
215,7	-0,2
216,2	0,514
216,7	-3,314
217,1	-4,743
217,6	-7,914
218,1	-5,771
218,5	-3,143
219	2,857
219,5	5,771
219,9	9,829
220,4	11,057
220,9	10,257
221,3	7,514
221,8	5,143
222,3	0,343
222,7	-7,457
223,2	-9,4
223,6	-6,714
224,1	-3,686
224,6	-3,286
225	-1,4
225,5	6,6
226	9,114
226,4	11,229
226,9	9,114
227,4	9,686
227,8	12,914
228,3	11,829
228,8	6,943
229,2	10,286
229,7	7,371
230,2	10,543
230,6	10,886
231,1	10,971
231,5	13
232	16,514
232,5	12,857
232,9	13,171
233,4	11
233,9	9,371
234,3	5,686
234,8	4,857
235,3	0,2
235,7	5,457
236,2	5,943
236,7	7,8
237,1	10,514
237,6	12,143
238,1	11,057
238,5	13,371
239	9,571
239,4	7,571
239,9	6,8
240,4	3,657
240,8	1,943
241,3	1,429
241,8	-1,257
242,2	-3,286
242,7	1,914
243,2	2,314
243,6	3,429
244,1	1,371
244,6	-1,6
245	-2,8
245,5	-1,486
245,9	-2,4
246,4	-5,171
246,9	-7,286
247,3	-5
247,8	-2,514
248,3	-0,286
248,7	7,971
249,2	2,829
249,7	5,086
250,1	2,914
250,6	2,657
251	7,057
251,5	5,057
252	-2,686
252,4	-0,886
252,9	-1,629
253,4	1,971
253,8	3,257
254,3	-0,771
254,8	-1,886
255,2	1,6
255,7	4,886
256,1	5,771
256,6	7,6
257,1	7,114
257,5	8,886
258	10,629
258,5	9,143
258,9	7,857
259,4	8,286
259,9	10,229
260,3	8,343
260,8	11,029
261,2	13,829
261,7	10,114
262,2	9,2
262,6	7,857
263,1	4,486
263,6	6,029
264	4,543
264,5	1,943
264,9	1,2
265,4	2,886
265,9	8,429
266,3	9,886
266,8	9,571
267,3	7,086
267,7	7,914
268,2	10,171
268,7	7,829
269,1	1,429
269,6	4,086
270	8,371
270,5	10,8
271	13,514
271,4	12,8
271,9	16,629
272,4	18,886
272,8	10,857
273,3	5,857
273,7	3,029
274,2	2,371
274,7	4,057
275,1	-1,714
275,6	-0,886
276,1	1,829
276,5	5,4
277	7,571
277,4	6,943
277,9	6,857
278,4	12,457
278,8	15,057
279,3	15,943
279,8	19,229
280,2	13,029
280,7	11,057
281,1	12,743
281,6	11,371
282,1	8,286
282,5	10,514
283	6,086
283,4	10,229
283,9	9,286
284,4	9,143
284,8	9,657
285,3	8,486
285,8	3,371
286,2	-0
286,7	-1,286
287,1	-2,143
287,6	-2,886
288,1	-2,914
288,5	1,8
289	3,8
289,5	5,143
289,9	5,314
290,4	5,114
290,8	8,571
291,3	6
291,8	-0,514
292,2	4,686
292,7	4,371
293,1	4,857
293,6	6,914
294,1	0,429
294,5	4,743
295	5,743
295,5	5,914
295,9	10,514
296,4	15,657
296,8	10,257
297,3	16,486
297,8	10,229
298,2	9,857
298,7	4,514
299,1	2,571
299,6	-3,429
300,1	1,029
300,5	-0,029
301	5,286
301,5	7,314
301,9	5,714
302,4	0,914
302,8	3,457
303,3	2,514
303,8	0,857
304,2	-2,629
304,7	-1,514
305,1	4,571
305,6	7
306,1	6,286
306,5	8,829
307	7,143
307,4	4,829
307,9	3,571
308,4	3,371
308,8	6,543
309,3	7,771
309,8	11,314
310,2	7,286
310,7	18,343
311,1	15,257
311,6	11,257
312,1	12,914
312,5	11,057
313	4,886
313,4	12,114
313,9	10,114
314,4	10,714
314,8	10,686
315,3	7,857
315,7	9,114
316,2	10,829
316,7	8,429
317,1	2
317,6	3,571
318	6,286
318,5	5,886
319	4,8
319,4	7,371
319,9	12,257
320,3	16,629
320,8	15,486
321,3	11
321,7	6,2
322,2	6,314
322,6	4,314
323,1	-1,571
323,6	-4,714
324	-3,743
324,5	-1,771
324,9	3,257
325,4	3,4
325,9	3,543
326,3	8
326,8	9,771
327,2	9,257
327,7	10,8
328,2	11,343
328,6	15,371
329,1	13,314
329,5	13,657
330	14,571
330,5	14,486
330,9	15,6
331,4	10,229
331,8	9,514
332,3	17,057
332,8	12,829
333,2	8,371
333,7	10,486
334,1	11,114
334,6	19,314
335,1	20,4
335,5	16,371
336	16,6
336,4	20,8
336,9	22,314
337,4	20,2
337,8	16,086
338,3	11,429
338,7	11,314
339,2	13,171
339,7	12,029
340,1	7,514
340,6	6,086
341	16,571
341,5	17,543
342	16,286
342,4	14,8
342,9	8,257
343,3	11,543
343,8	13,971
344,2	8,229
344,7	7,829
345,2	4,486
345,6	7,4
346,1	11,343
346,5	11,229
347	16,086
347,5	8,2
347,9	7,571
348,4	12,571
348,8	8,057
349,3	9,943
349,8	8,229
350,2	0,171
350,7	5,371
351,1	6,371
351,6	9,114
352	17,686
352,5	23,743
353	33,057
353,4	44,829
353,9	55,486
354,3	68,6
354,8	74,257
355,3	85,257
355,7	99,057
356,2	114,057
356,6	135,429
357,1	157,543
357,5	183,771
358	225,086
358,5	264,2
358,9	313,371
359,4	364
359,8	412,229
360,3	473,486
360,8	540,714
361,2	617,486
361,7	700,143
362,1	784,4
362,6	883,486
363	997,114
363,5	1114,914
364	1238,171
364,4	1352,771
364,9	1471,229
365,3	1592,686
365,8	1710,6
366,3	1818,371
366,7	1913,171
367,2	1997,314
367,6	2071,8
368,1	2125,057
368,5	2160,057
369	2177,886
369,5	2173,743
369,9	2154,857
370,4	2120,143
370,8	2069
371,3	2016,714
371,7	1938,286
372,2	1853,714
372,7	1762,514
373,1	1671,486
373,6	1578,4
374	1475,371
374,5	1374,286
374,9	1280,829
375,4	1191,629
375,9	1109,143
376,3	1022,314
376,8	939,171
377,2	874,743
377,7	799,943
378,2	740
378,6	677,714
379,1	623,171
379,5	576,657
380	534,371
380,4	487,6
380,9	455,629
381,4	420,714
381,8	391,571
382,3	361,8
382,7	330,771
383,2	303,771
383,6	283,057
384,1	264,143
384,6	242,8
385	223,8
385,5	207,943
385,9	196,8
386,4	186,514
386,8	180,114
387,3	167,829
387,7	160,714
388,2	153,571
388,7	143,914
389,1	135,057
389,6	125,657
390	110,257
390,5	102,514
390,9	103,029
391,4	99,914
391,9	97,457
392,3	91,514
392,8	86,514
393,2	83
393,7	81,2
394,1	75,771
394,6	62,657
395,1	58,8
395,5	55,657
396	53,514
396,4	55,571
396,9	51,771
397,3	50,486
397,8	56,943
398,2	53,429
398,7	51,971
399,2	47,714
399,6	46,943
400,1	44,029
400,5	41
401	40,086
401,4	41,543
401,9	42,314
402,4	47,371
402,8	43,8
403,3	47,029
403,7	48
404,2	46,314
404,6	44,829
405,1	45
405,5	41,343
406	41,257
406,5	36,171
406,9	33,714
407,4	33,029
407,8	35,2
408,3	38,486
408,7	44,514
409,2	46,029
409,6	51,143
410,1	55,486
410,6	59,229
411	58,657
411,5	54,943
411,9	47,8
412,4	48,686
412,8	53,829
413,3	55,429
413,7	58,343
414,2	62,686
414,7	73,086
415,1	78,229
415,6	85,571
416	80,429
416,5	80,914
416,9	81,657
417,4	84,857
417,8	80,229
418,3	88,343
418,8	88,086
419,2	93,943
419,7	98,743
420,1	97,543
420,6	100,886
421	104,371
421,5	103,714
421,9	105,914
422,4	109,029
422,8	106,171
423,3	109,714
423,8	110,514
424,2	112,743
424,7	112,429
425,1	110,171
425,6	109,971
426	113,114
426,5	110,943
426,9	104,343
427,4	105,257
427,9	102,343
428,3	104,943
428,8	103,514
429,2	103
429,7	101,429
430,1	105,743
430,6	100,371
431	99,143
431,5	97,229
431,9	98,086
432,4	100,543
432,8	102,943
433,3	106,657
433,8	112,686
434,2	117,486
434,7	120,314
435,1	121,571
435,6	126,829
436	136,114
436,5	136,8
436,9	139,286
437,4	143,229
437,8	149,714
438,3	161,114
438,8	157,429
439,2	161,286
439,7	171,286
440,1	178,771
440,6	193,971
441	202,371
441,5	206,171
441,9	221,486
442,4	236,029
442,8	239,971
443,3	250,4
443,7	254,714
444,2	263,371
444,7	274,857
445,1	281,571
445,6	288,343
446	303,657
446,5	314,143
446,9	327,543
447,4	340,571
447,8	353,514
448,3	370,714
448,7	384,229
449,2	398,514
449,6	412,057
450,1	426,286
450,6	441,829
451	457,086
451,5	469,571
451,9	480,857
452,4	499,143
452,8	520,857
453,3	534,743
453,7	555,343
454,2	574,371
454,6	595,914
455,1	619,086
455,5	637,886
456	655,457
456,4	681,943
456,9	699,714
457,3	724,029
457,8	751,771
458,3	777,314
458,7	804,8
459,2	835,371
459,6	858,857
460,1	888,457
460,5	914,314
461	935,114
461,4	964,6
461,9	989,029
462,3	1013,4
462,8	1046,6
463,2	1077,486
463,7	1106,114
464,1	1140,971
464,6	1169,629
465	1202,257
465,5	1234,971
466	1265,343
466,4	1293,143
466,9	1324,6
467,3	1357,143
467,8	1397,914
468,2	1424,771
468,7	1461,171
469,1	1495,571
469,6	1531,257
470	1568,486
470,5	1608,143
470,9	1638,2
471,4	1679,457
471,8	1715,029
472,3	1744,743
472,7	1786,514
473,2	1821,629
473,6	1848,857
474,1	1878,457
474,5	1914,886
475	1946,429
475,4	1985,2
475,9	2017,257
476,4	2054,171
476,8	2090,943
477,3	2126,114
477,7	2160,971
478,2	2195,886
478,6	2224,457
479,1	2257,771
479,5	2284,657
480	2314,514
480,4	2345,686
480,9	2374,829
481,3	2400,143
481,8	2436,514
482,2	2459,886
482,7	2491,143
483,1	2520,171
483,6	2546,514
484	2572,4
484,5	2599,8
484,9	2622,886
485,4	2647,543
485,8	2668,229
486,3	2685,829
486,7	2711,629
487,2	2731,857
487,6	2757,743
488,1	2772,571
488,5	2797,429
489	2814,829
489,4	2842,114
489,9	2861,714
490,4	2882
490,8	2892,2
491,3	2912,743
491,7	2923,714
492,2	2944,143
492,6	2955,4
493,1	2964,8
493,5	2971,229
494	2980,457
494,4	2990,171
494,9	2999,886
495,3	3008,943
495,8	3018,514
496,2	3027,686
496,7	3038,514
497,1	3047,286
497,6	3057,943
498	3066,686
498,5	3070,771
498,9	3077,2
499,4	3080,829
499,8	3085,571
500,3	3092,286
500,7	3095,114
501,2	3096,543
501,6	3104,314
502,1	3109,657
502,5	3113,171
503	3115,143
503,4	3118
503,9	3123,429
504,3	3120,629
504,8	3120,343
505,2	3114,114
505,7	3121,543
506,1	3126,286
506,6	3127,914
507	3128,829
507,5	3136,714
507,9	3136,4
508,4	3144,286
508,8	3142,114
509,3	3146,086
509,7	3144,657
510,2	3144,571
510,6	3138,571
511,1	3138,857
511,5	3140,114
512	3142,4
512,4	3134,686
512,9	3138,743
513,3	3137,371
513,8	3140,486
514,2	3143,743
514,7	3141,029
515,1	3138
515,6	3132,2
516	3122,571
516,5	3121,8
516,9	3118,057
517,4	3116
517,8	3110,8
518,3	3105,371
518,7	3108,543
519,2	3112,686
519,6	3108,4
520,1	3112,171
520,5	3104,914
521	3102,657
521,4	3102,914
521,9	3107,714
522,3	3111,429
522,8	3117,371
523,2	3112,457
523,7	3114,086
524,1	3118,657
524,6	3114,829
525	3117,143
525,5	3116,686
525,9	3115,171
526,4	3117,571
526,8	3117,2
527,3	3116,629
527,7	3122,486
528,2	3109,086
528,6	3101,286
529,1	3096,486
529,5	3088,086
530	3086,4
530,4	3083
530,9	3077,714
531,3	3082,6
531,8	3089,743
532,2	3089,943
532,6	3101,714
533,1	3101,229
533,5	3104,743
534	3112,486
534,4	3119,229
534,9	3123
535,3	3122,8
535,8	3119,543
536,2	3128,886
536,7	3126,257
537,1	3127,657
537,6	3132,286
538	3134,4
538,5	3139,057
538,9	3146,314
539,4	3143,914
539,8	3147,2
540,3	3146,8
540,7	3147,314
541,2	3143,429
541,6	3148,629
542,1	3155,714
542,5	3158,571
543	3161,829
543,4	3172,771
543,9	3171,829
544,3	3175,286
544,8	3177,857
545,2	3174,943
545,7	3184,743
546,1	3187,829
546,5	3184,514
547	3186,771
547,4	3191,629
547,9	3192,914
548,3	3195,314
548,8	3192,171
549,2	3196,429
549,7	3204,8
550,1	3210,571
550,6	3215,714
551	3224,286
551,5	3229,486
551,9	3235,343
552,4	3243,029
552,8	3240,743
553,3	3247,886
553,7	3249,343
554,2	3248,457
554,6	3248,4
555,1	3250,886
555,5	3253,057
555,9	3259,771
556,4	3260,657
556,8	3265,457
557,3	3269,114
557,7	3273,486
558,2	3277
558,6	3279,6
559,1	3279,286
559,5	3280,771
560	3286,771
560,4	3290,914
560,9	3301,114
561,3	3306
561,8	3311,457
562,2	3314,829
562,7	3318,086
563,1	3315,086
563,6	3312,543
564	3307,686
564,4	3309,514
564,9	3302,143
565,3	3305,2
565,8	3310,229
566,2	3314,743
566,7	3319,343
567,1	3323,714
567,6	3327,657
568	3337,743
568,5	3333,343
568,9	3330,543
569,4	3332,543
569,8	3332,571
570,3	3331,486
570,7	3323,514
571,1	3317,171
571,6	3324,086
572	3331,286
572,5	3329,714
572,9	3335,8
573,4	3338,943
573,8	3343,886
574,3	3347,486
574,7	3342,543
575,2	3335,857
575,6	3334,029
576,1	3328,029
576,5	3324,4
576,9	3318,743
577,4	3318,371
577,8	3316,886
578,3	3312,257
578,7	3310,829
579,2	3308,8
579,6	3305,771
580,1	3305,829
580,5	3298,543
581	3289,971
581,4	3292,743
581,9	3291,771
582,3	3285,829
582,7	3284,343
583,2	3277,143
583,6	3274,086
584,1	3277,343
584,5	3266,429
585	3259,943
585,4	3254,686
585,9	3243,829
586,3	3241,229
586,8	3231,914
587,2	3226,6
587,6	3224,371
588,1	3217,857
588,5	3220,286
589	3214,714
589,4	3208
589,9	3212,171
590,3	3205,629
590,8	3198,114
591,2	3191,629
591,7	3176,143
592,1	3170,286
592,5	3166,543
593	3159,229
593,4	3153,857
593,9	3146,343
594,3	3141,743
594,8	3140,371
595,2	3142,8
595,7	3142,343
596,1	3137,314
596,6	3136,943
597	3138,057
597,4	3135
597,9	3131,229
598,3	3125,143
598,8	3119,171
599,2	3114,629
599,7	3103,714
600,1	3093,086
600,6	3081,714
601	3067,314
601,4	3061,2
601,9	3050,971
602,3	3046,4
602,8	3043,086
603,2	3043,229
603,7	3038,543
604,1	3042,457
604,6	3030,371
605	3025,486
605,4	3013,571
605,9	3000,343
606,3	2990,4
606,8	2979,057
607,2	2966,286
607,7	2959,057
608,1	2953,257
608,6	2948,657
609	2943,114
609,4	2934,343
609,9	2932,457
610,3	2927,086
610,8	2922,857
611,2	2908,4
611,7	2898,343
612,1	2885,657
612,6	2874,829
613	2870,657
613,4	2855,314
613,9	2845,629
614,3	2840,114
614,8	2823,229
615,2	2817,314
615,7	2809,686
616,1	2792,686
616,6	2787,057
617	2776,771
617,4	2767,914
617,9	2765,657
618,3	2757,829
618,8	2745,543
619,2	2738,657
619,7	2730,2
620,1	2715,257
620,5	2702,943
621	2692,686
621,4	2681,629
621,9	2666
622,3	2658,686
622,8	2639,686
623,2	2630,714
623,6	2612,6
624,1	2598,086
624,5	2582,057
625	2575,114
625,4	2562,229
625,9	2564,314
626,3	2555,343
626,8	2549,486
627,2	2539,886
627,6	2533,743
628,1	2524,029
628,5	2506,571
629	2496,457
629,4	2480,971
629,9	2469,143
630,3	2454,857
630,7	2444,086
631,2	2429,771
631,6	2422,857
632,1	2399,971
632,5	2391,371
633	2378,914
633,4	2366,257
633,8	2351,114
634,3	2345,343
634,7	2332,829
635,2	2324
635,6	2313,114
636,1	2309,371
636,5	2294,429
636,9	2280,286
637,4	2270,429
637,8	2258,314
638,3	2247,829
638,7	2235,143
639,2	2217,2
639,6	2212,4
640	2206,343
640,5	2193,543
640,9	2185,314
641,4	2170
641,8	2161,943
642,2	2155,771
642,7	2146,829
643,1	2138,429
643,6	2130,171
644	2123,286
644,5	2118,486
644,9	2107,314
645,3	2097,514
645,8	2092,857
646,2	2083,114
646,7	2068,914
647,1	2057,571
647,6	2046,657
648	2041,114
648,4	2027,171
648,9	2015,257
649,3	2002,714
649,8	1993,771
650,2	1982
650,6	1978,743
651,1	1972,143
651,5	1966,371
652	1950,771
652,4	1942,257
652,9	1934,943
653,3	1928,2
653,7	1912,971
654,2	1898,686
654,6	1886,029
655,1	1872,857
655,5	1863,629
655,9	1849,371
656,4	1842,114
656,8	1829,057
657,3	1819,543
657,7	1808,657
658,2	1807
658,6	1792,286
659	1784,029
659,5	1771,343
659,9	1765,629
660,4	1757,257
660,8	1754,457
661,2	1741,286
661,7	1737,2
662,1	1731,514
662,6	1714,657
663	1703,657
663,4	1690,029
663,9	1679,171
664,3	1671,686
664,8	1664,371
665,2	1651,314
665,6	1646,8
666,1	1635,257
666,5	1628,571
667	1614,314
667,4	1604,029
667,9	1584,343
668,3	1574,771
668,7	1563,286
669,2	1555,429
669,6	1549,543
670,1	1542,371
670,5	1525,714
670,9	1526,8
671,4	1520,057
671,8	1514,971
672,3	1508,457
672,7	1494,314
673,1	1485,286
673,6	1483,457
674	1472,486
674,5	1461,486
674,9	1450,514
675,3	1441,971
675,8	1433,714
676,2	1426,114
676,7	1422
677,1	1415,829
677,5	1405,543
678	1395,771
678,4	1386,114
678,9	1378,114
679,3	1367
679,7	1355,514
680,2	1345,686
680,6	1337,543
681,1	1331,457
681,5	1324,171
681,9	1319,057
682,4	1318,257
682,8	1307,943
683,3	1295,771
683,7	1291,171
684,1	1279,771
684,6	1270,286
685	1257,8
685,5	1242,514
685,9	1237,114
686,3	1235,429
686,8	1227,114
687,2	1224,971
687,7	1220,057
688,1	1213,543
688,5	1205,429
689	1201,371
689,4	1198,629
689,9	1191,257
690,3	1182,257
690,7	1169,8
691,2	1161,229
691,6	1155,829
692	1146,057
692,5	1130,457
692,9	1122,457
693,4	1113,571
693,8	1114,771
694,2	1105,4
694,7	1098,257
695,1	1090,686
695,6	1087,257
696	1081,771
696,4	1071,857
696,9	1063,286
697,3	1056,229
697,8	1046,171
698,2	1042,029
698,6	1036,2
699,1	1028,314
699,5	1024,571
699,9	1016,371
700,4	1011,943
700,8	1009,571
701,3	996,171
701,7	986,543
702,1	980,143
702,6	975,829
703	966,229
703,5	960,971
703,9	954,8
704,3	951,886
704,8	950,8
705,2	944,943
705,6	937,029
706,1	935,314
706,5	932,371
707	926,429
707,4	924,6
707,8	914,057
708,3	908,714
708,7	907,886
709,2	902,771
709,6	897,771
710	892,8
710,5	886,057
710,9	881,857
711,3	873,686
711,8	861,514
712,2	858,114
712,7	848,857
713,1	843,343
713,5	835,057
714	833,8
714,4	834,6
714,8	831,629
715,3	821
715,7	813,029
716,2	807,4
716,6	801,057
717	787,914
717,5	780
717,9	773,886
718,3	769,429
718,8	766,8
719,2	760,171
719,7	759,457
720,1	754,571
720,5	747,714
721	746,257
721,4	744,457
721,8	743,257
722,3	740,771
722,7	730,886
723,2	727,971
723,6	724,343
724	718,257
724,5	708,857
724,9	701,2
725,3	696,343
725,8	689,257
726,2	683,457
726,7	679,257
727,1	673,857
727,5	670,143
728	664,714
728,4	660,314
728,8	664,857
729,3	661,057
729,7	657,943
730,1	652,829
730,6	651,8
731	652,171
731,5	644,8
731,9	640,771
732,3	641,257
732,8	638,743
733,2	638,229
733,6	631,371
734,1	621,8
734,5	615,229
734,9	609,457
735,4	604,343
735,8	597,429
736,3	593,4
736,7	594,486
737,1	598,686
737,6	603,286
738	598,514
738,4	596,086
738,9	594,457
739,3	589,457
739,7	581,429
740,2	573,829
740,6	569,514
741,1	566,571
741,5	562,714
741,9	555,629
742,4	550,029
742,8	550,571
743,2	550,657
743,7	543,114
744,1	538,429
744,5	533,886
745	534,286
745,4	529,543
745,8	526,086
746,3	518,943
746,7	518,629
747,2	519,229
747,6	516,486
748	513,657
748,5	510,314
748,9	504,857
749,3	502,943
749,8	498,2
750,2	490,257
750,6	486,314
751,1	483,514
751,5	481,543
751,9	483,371
752,4	478,286
752,8	473,257
753,3	471,857
753,7	469,171
754,1	462,343
754,6	461,086
755	454,6
755,4	451,429
755,9	453,371
756,3	446,914
756,7	440,457
757,2	438,829
757,6	439
758	434,714
758,5	433,029
758,9	428,371
759,3	428,8
759,8	431,571
760,2	433,6
760,6	428,086
761,1	423,057
761,5	422,343
761,9	420,571
762,4	420,8
762,8	415,857
763,3	406,514
763,7	402,2
764,1	400,143
764,6	396,6
765	391,457
765,4	387,086
765,9	378,771
766,3	377,457
766,7	379,257
767,2	377,971
767,6	370,2
768	369,486
768,5	363,743
768,9	362,914
769,3	363,486
769,8	360,086
770,2	360,229
770,6	359,457
771,1	362,686
771,5	364,229
771,9	362,743
772,4	364,771
772,8	361,943
773,2	359,771
773,7	357,314
774,1	353,086
774,5	351,543
775	348,743
775,4	340,914
775,8	338,314
776,3	330,6
776,7	331
777,1	330,8
777,6	324,857
778	323,543
778,4	321,2
778,9	319,657
779,3	320,371
779,7	322
780,2	313,943
780,6	317,943
781	320,257
781,5	319,543
781,9	316,343
782,3	314,571
782,8	310,743
783,2	309,771
783,6	300,629
784,1	300,371
784,5	295,086
784,9	295,229
785,4	294,571
785,8	289,8
786,2	287,171
786,7	284,314
787,1	282,514
787,5	278,657
788	275,971
788,4	271,829
788,8	268,514
789,3	264,6
789,7	264,343
790,1	261,2
790,6	264,143
791	258,714
791,4	256,8
791,9	258,829
792,3	258,229
792,7	262,514
793,2	252,886
793,6	253,429
794	253,429
794,5	250,743
794,9	249,857
795,3	248,6
795,8	243,2
796,2	244,086
796,6	236,6
797,1	233,8
797,5	233
797,9	226,457
798,4	223,114
798,8	220,686
799,2	223,086
799,7	229,686
800,1	227,543
800,5	226,543
801	229,029
801,4	223,8
801,8	222,886
802,2	221,314
802,7	215,371
803,1	214,857
803,5	216,6
804	211,914
804,4	213,371
804,8	214,314
805,3	208,543
805,7	206,886
806,1	207
806,6	202,686
807	203,829
807,4	201,571
807,9	201,6
808,3	204,029
808,7	201,971
809,2	197,429
809,6	197,171
810	195,571
810,4	200,686
810,9	192,229
811,3	188,4
811,7	184,171
812,2	188,743
812,6	183,229
813	184,686
813,5	179,457
813,9	182,829
814,3	183,914
814,8	184,8
815,2	176,486
815,6	174,057
816,1	169,657
816,5	164,829
816,9	161
817,3	160,829
817,8	164,086
818,2	161,086
818,6	160,057
819,1	160,514
819,5	162,4
819,9	160,886
820,4	158,629
820,8	148,343
821,2	152,229
821,7	153,229
822,1	151,057
822,5	153,143
822,9	156,6
823,4	153,571
823,8	159,343
824,2	157,4
824,7	160,714
825,1	158,371
825,5	156,486
826	152,514
826,4	152,086
826,8	151,4
827,3	150
827,7	147,486
828,1	150,343
828,5	147,686
829	142,571
829,4	146,971
829,8	139,743
830,3	141,114
830,7	135,6
831,1	129,257
831,6	127,229
832	125,086
832,4	119,2
832,8	125,714
833,3	118,686
833,7	120,743
834,1	121,943
834,6	120,971
835	124,429
835,4	127,514
835,8	119,486
836,3	123,029
836,7	117,286
837,1	115,057
837,6	108,257
838	104,6
838,4	97,143
838,9	100,514
839,3	100,886
839,7	104,771
840,1	101,371
840,6	107,8
841	107,6
841,4	107
841,9	98,743
842,3	101,514
842,7	100,857
843,1	106,8
843,6	104,943
844	107,457
844,4	108,029
844,9	114,114
845,3	108,514
845,7	109,314
846,2	109
846,6	106,029
847	103,914
847,4	104,029
847,9	99,886
848,3	102,229
848,7	103,971
849,2	102,629
849,6	103,4
850	98,943
850,4	96,571
850,9	94,8
851,3	86,486
851,7	79,543
852,2	71,114
852,6	71,286
853	76,8
853,4	82,8
853,9	84,086
854,3	86,857
854,7	86,6
855,2	86,829
855,6	86
856	80,771
856,4	73,8
856,9	76,429
857,3	76,314
857,7	78,343
858,2	80,029
858,6	84,743
859	82,514
859,4	82,257
859,9	79,657
860,3	77,629
860,7	77,829
861,1	80,429
861,6	76
862	79,143
862,4	79,657
862,9	76,257
863,3	77,971
863,7	71,543
864,1	70,514
864,6	65,686
865	60,857
865,4	57,943
865,9	58,857
866,3	59,343
866,7	64,229
867,1	63,686
867,6	59,914
868	60,914
868,4	60,629
868,8	61,8
869,3	61,257
869,7	56,229
870,1	53,971
870,6	57,514
871	102,543
871,4	99,657
871,8	97,2
872,3	96,8
872,7	97,143
873,1	100,6
873,5	100,714
874	58,257
874,4	63,429
874,8	64,8
875,3	58,971
875,7	61,371
876,1	55,029
876,5	59,629
877	57,8
877,4	56,857
877,8	59,8
878,2	61,114
878,7	60,914
879,1	62,943
879,5	58,2
879,9	57
880,4	53,914
880,8	49,943
881,2	52,143
881,7	52,886
882,1	52,657
882,5	50,371
882,9	48,743
883,4	52,2
883,8	51,8
884,2	51,8
884,6	51,486
885,1	52,686
885,5	55,286
885,9	57,457
886,3	51,886
886,8	48,143
887,2	48,886
887,6	45,2
888	41,943
888,5	43,743
888,9	42,257
889,3	39,086
889,8	41,6
890,2	36,943
890,6	37,714
891	38,429
891,5	40,543
891,9	40,914
892,3	44,943
892,7	44,8
893,2	46,6
893,6	48,029
894	48,543
894,4	42,686
894,9	41,543
895,3	40,086
895,7	38,971
896,1	40,6
896,6	38,086
897	36,286
897,4	35,029
897,8	37,229
898,3	41,257
898,7	41,943
899,1	39,143
899,5	37,143
900	37,486
900,4	37,914
900,8	35,543
901,2	36,457
901,7	34,057
902,1	39
902,5	40,629
902,9	42,171
903,4	44,914
903,8	42,457
904,2	42,657
904,6	46,657
905,1	43,2
905,5	38,943
905,9	37,629
906,3	35,743
906,8	38,971
907,2	32,971
907,6	29,486
908	23,2
908,5	30,2
908,9	27,714
909,3	22,714
909,7	20,086
910,2	20,971
910,6	22,629
911	29,857
911,4	26,914
911,9	29,229
912,3	31,486
912,7	30,571
913,1	24,943
913,6	22,943
914	22,171
914,4	17,086
914,8	16,514
915,3	16,2
915,7	14,229
916,1	17,086
916,5	17,429
916,9	12,6
917,4	14,943
917,8	8,971
918,2	9,2
918,6	10,543
919,1	14,114
919,5	17,143
919,9	19,486
920,3	19,457
920,8	21,114
921,2	25,371
921,6	25,029
922	19,486
922,5	17,686
922,9	14,343
923,3	15,571
923,7	13,714
924,2	7,571
924,6	9,286
925	11,514
925,4	10,6
925,8	10,371
926,3	12,457
926,7	14,343
927,1	19
927,5	18,743
928	19,229
928,4	17,686
928,8	23,114
929,2	19,4
929,7	15,4
930,1	13,657
930,5	9,057
930,9	12,514
931,3	15,057
931,8	12,086
932,2	12,686
932,6	20,429
933	17,171
933,5	21,914
933,9	22,8
934,3	15,171
934,7	20,086
935,2	23,086
935,6	19,6
936	20,486
936,4	20,229
936,8	13,543
937,3	19,943
937,7	16,257
938,1	9,229
938,5	9,971
939	9,143
939,4	11,029
939,8	12,714
940,2	8,743
940,6	8,571
941,1	17,886
941,5	19,857
941,9	23,229
942,3	17,057
942,8	17,057
943,2	17,6
943,6	18
944	11,886
944,4	5,514
944,9	2
945,3	7,457
945,7	7,114
946,1	4,343
946,6	4,657
947	6,886
947,4	11,286
947,8	15,6
948,2	13,371
948,7	16,343
949,1	18,886
949,5	16,914
949,9	18,714
950,3	18,743
950,8	12,629
951,2	15,514
951,6	17,057
952	15,486
952,5	14,429
952,9	11,914
953,3	8,971
953,7	10,4
954,1	9,229
954,6	7,714
955	13,229
955,4	11,171
955,8	10,057
956,2	9,4
956,7	13,686
957,1	10,571
957,5	11,114
957,9	6,943
958,3	9,086
958,8	7,571
959,2	11,743
959,6	7,486
960	6,114
960,5	-1,2
960,9	2,314
961,3	2,6
961,7	-0,2
962,1	-3,686
962,6	-2,6
963	1,057
963,4	4,457
963,8	2,457
964,2	1,6
964,7	6,657
965,1	11,286
965,5	9,6
965,9	8,943
966,3	10,543
966,8	11,371
967,2	13,571
967,6	10,343
968	9,571
968,4	12,2
968,9	14,229
969,3	12,771
969,7	9,914
970,1	8,371
970,5	10,429
971	6,914
971,4	11,171
971,8	11,629
972,2	11,943
972,6	16,686
973,1	17
973,5	16,114
973,9	20,8
974,3	14,971
974,7	9,229
975,2	9,057
975,6	3,886
976	6,371
976,4	6,829
976,8	3,114
977,3	4,171
977,7	4,914
978,1	3,457
978,5	4,286
978,9	-0,971
979,4	-0,971
979,8	1,514
980,2	2,229
980,6	4,857
981	11,771
981,5	14,086
981,9	14,657
982,3	10,657
982,7	10,457
983,1	11,8
983,6	12,057
984	7,743
984,4	8,657
984,8	10
985,2	14,971
985,6	14,114
986,1	11,771
986,5	5,971
986,9	6,371
987,3	3
987,7	2,257
988,2	2,114
988,6	0,286
989	1,057
989,4	8,086
989,8	7
990,3	8,571
990,7	8,143
991,1	4,057
991,5	5,371
991,9	4,686
992,3	5,657
992,8	7,314
993,2	7,943
993,6	10,714
994	16,8
994,4	14,943
994,9	19,371
995,3	16,743
995,7	15,686
996,1	12,4
996,5	9
996,9	1
997,4	2,057
997,8	-0,371
998,2	0,571
998,6	1,086
999	2,171
999,5	4,8
999,9	8,143
1000,3	11,714
1000,7	10,171
1001,1	6,571
1001,5	1,657
1002	1,686
1002,4	4,771
1002,8	8,657
1003,2	3,829
1003,6	6,171
1004	5,057
1004,5	8,314
1004,9	8,914
1005,3	1,286
1005,7	-1,571
1006,1	-1,286
1006,6	-3,771
1007	-0,057
1007,4	-2,171
1007,8	-5,171
1008,2	-3,171
1008,6	-5,971
1009,1	-8,429
1009,5	-1,543
1009,9	1,971
1010,3	5,8
1010,7	13,086
1011,1	20,086
1011,6	21,086
1012	24,057
1012,4	20,8
1012,8	13,829
1013,2	13,343
1013,6	10,143
1014,1	2,229
1014,5	6,4
1014,9	8,457
1015,3	5,429
1015,7	3,571
1016,1	4,771
1016,6	7,514
1017	11,571
1017,4	10,886
1017,8	7,943
1018,2	1,571
1018,6	8,657
1019,1	4,686
1019,5	5,114
1019,9	5,486
1020,3	2,743
1020,7	2,657
1021,1	8,971
1021,6	1,2
1022	1,914
1022,4	4,086
1022,8	-2,229
1023,2	-0,057
1023,6	-2,057
1024,1	1,371
1024,5	5,371
1024,9	9,6
1025,3	4,371
1025,7	10,6
1026,1	14,029
1026,6	17,514
1027	12
1027,4	12
1027,8	7,771
1028,2	9,171
1028,6	10,714
1029	4,486
1029,5	4,829
1029,9	7,686
1030,3	13,914
1030,7	12,629
1031,1	8,8
1031,5	7,686
1032	10,914
1032,4	7,514
1032,8	5,286
1033,2	-2,714
1033,6	2,486
1034	1,714
1034,4	6,2
1034,9	2,971
1035,3	6,543
1035,7	7,171
1036,1	10,257
1036,5	8,514
1036,9	11,686
1037,4	8,943
1037,8	12,2
1038,2	6,914
1038,6	7,857
1039	8,057
1039,4	5,686
1039,8	7,914
1040,3	5,257
1040,7	-0,086
1041,1	3,686
1041,5	-1,629
1041,9	-2,171
1042,3	0,914
1042,7	-1,2
1043,2	-2,286
1043,6	4,4
1044	5,743
1044,4	4
1044,8	1,143
1045,2	3,229
1045,6	3,343
1046,1	8,657
1046,5	8,6
1046,9	8,857
1047,3	14,971
1047,7	15,371
1048,1	9,6
1048,5	9,314
1049	7,486
1049,4	6,429
1049,8	2,829
1050,2	5,543
1050,6	7,429
1051	13,629
1051,4	9,8
1051,9	12,629
1052,3	5,943
1052,7	8,8
1053,1	5,114
1053,5	5,229
1053,9	-0,914
1054,3	1,8
1054,8	-0,657
1055,2	6,886
1055,6	5,8
1056	7,714
1056,4	7,914
1056,8	12,686
1057,2	16,257
1057,6	10,857
1058,1	8,543
1058,5	8,286
1058,9	8
1059,3	13,257
1059,7	8,429
1060,1	4,314
1060,5	4,057
1061	3,4
1061,4	11,543
1061,8	6,686
1062,2	3,2
1062,6	5,343
1063	7,143
1063,4	11,943
1063,8	13,371
1064,3	5,857
1064,7	8,4
1065,1	6,229
1065,5	6,886
1065,9	4,514
1066,3	-0,686
1066,7	-1,686
1067,1	-2,029
1067,6	0,714
1068	0,457
1068,4	3,343
1068,8	6,514
1069,2	9,743
1069,6	9,457
1070	11,8
1070,4	9,657
1070,9	11,486
1071,3	7,371
1071,7	9,743
1072,1	12,314
1072,5	14,657
1072,9	18,257
1073,3	19,657
1073,7	17,057
1074,2	18,2
1074,6	15,086
1075	10,571
1075,4	9,343
1075,8	5,543
1076,2	5,914
1076,6	5,486
1077	1,486
1077,5	2,314
1077,9	5,714
1078,3	3,8
1078,7	2,029
1079,1	5,629
1079,5	5,857
1079,9	9,257
1080,3	10,257
1080,7	11,143
1081,2	14,343
1081,6	13,486
1082	11,914
1082,4	10,543
1082,8	8,8
1083,2	2,2
1083,6	-2,286
1084	-8,8
1084,5	-8,686
1084,9	-10,8
1085,3	-7,629
1085,7	-8,6
1086,1	-6,686
1086,5	-1,343
1086,9	3,857
1087,3	7,6
1087,7	7,371
1088,2	7,857
1088,6	6,914
1089	6,914
1089,4	6,629
1089,8	11,714
1090,2	11,714
1090,6	12,457
1091	16
1091,4	19,171
1091,9	23,886
1092,3	19,286
1092,7	11,914
1093,1	6,029
1093,5	2,314
1093,9	2,029
1094,3	4,6
1094,7	2,086
1095,1	-1,8
1095,5	-0,743
1096	-0,714
1096,4	3,257
1096,8	-1,543
1097,2	-5,229
1097,6	-7,429
1098	-0,971
1098,4	0,171
1098,8	4,829
1099,2	4,257
1099,6	6,057
1100,1	9,6
1100,5	13,314
1100,9	12,229
1101,3	12,4
1101,7	12,286
1102,1	11,857
1102,5	10,4
1102,9	7,4
1103,3	3,686
1103,7	1,8
1104,2	4
1104,6	5,943
1105	4,257
1105,4	5
1105,8	5,543
1106,2	6,829
1106,6	6,971
1107	3,457
1107,4	-0,267
1107,8	0,12
1108,3	-0,15
