Data from Subt2_176.txt Node
Date: Sat Aug 26 18:39:13 MSK 2023
User: vat
Spectrometer: MAYP114033
Trigger mode: 0
Integration Time (sec): 1,000000E0
Scans to average: 5
Electric dark correction enabled: true
Nonlinearity correction enabled: false
Boxcar width: 3
XAxis mode: Wavelengths
Number of Pixels in Spectrum: 2068
>>>>>Begin Spectral Data<<<<<
199,4	-1,05
199,9	3,04
200,4	0,033
200,8	1,886
201,3	3,343
201,8	2,571
202,2	1,486
202,7	4,657
203,2	3,943
203,6	5,971
204,1	3
204,6	-0,8
205	1,571
205,5	3,857
206	0,457
206,4	-3,514
206,9	-4,971
207,4	-3,371
207,8	-1,514
208,3	-0,086
208,8	-0,943
209,2	1,314
209,7	5,629
210,2	6,686
210,6	7,2
211,1	9,457
211,5	6,629
212	6,6
212,5	5,657
212,9	3,743
213,4	2,2
213,9	0,143
214,3	-1,429
214,8	-0,514
215,3	-3,457
215,7	-2,257
216,2	-3,343
216,7	-1,571
217,1	-0,543
217,6	2,4
218,1	4,086
218,5	4,914
219	-0,971
219,5	0,629
219,9	0,971
220,4	7,114
220,9	7,543
221,3	6,057
221,8	9
222,3	15,314
222,7	15,829
223,2	14,514
223,6	8,771
224,1	3,629
224,6	7,457
225	5,029
225,5	2,629
226	3,686
226,4	5,829
226,9	8,6
227,4	11,571
227,8	5,6
228,3	3,971
228,8	3,743
229,2	6,029
229,7	5,314
230,2	4,286
230,6	7,229
231,1	13,714
231,5	17,057
232	17,2
232,5	8,143
232,9	9,771
233,4	7
233,9	1,743
234,3	-2,286
234,8	-2,543
235,3	-2,457
235,7	3,371
236,2	1,171
236,7	3,971
237,1	7,486
237,6	2,771
238,1	-0,143
238,5	-2,771
239	-2,343
239,4	0,229
239,9	-2,771
240,4	-5,343
240,8	1,629
241,3	1,6
241,8	1,286
242,2	-2,029
242,7	-8,486
243,2	-4,886
243,6	-7,629
244,1	-8,314
244,6	-6,2
245	-1,943
245,5	-0,857
245,9	1,914
246,4	2,743
246,9	9,714
247,3	5,914
247,8	6,686
248,3	8,857
248,7	9,571
249,2	13,314
249,7	11,143
250,1	8,971
250,6	4,943
251	6
251,5	1,714
252	4,657
252,4	5,086
252,9	1,943
253,4	-0,571
253,8	2,714
254,3	3,886
254,8	4,171
255,2	0,486
255,7	-3,114
256,1	-0,143
256,6	2,4
257,1	5,914
257,5	0,114
258	-1,314
258,5	1,029
258,9	1,086
259,4	0,343
259,9	-0,514
260,3	-1,429
260,8	-3,086
261,2	-3,971
261,7	-3
262,2	-1,257
262,6	-3,771
263,1	-0,286
263,6	-1,686
264	3,743
264,5	10,343
264,9	8,029
265,4	8,343
265,9	4,114
266,3	0,286
266,8	4,6
267,3	2,514
267,7	-0,486
268,2	-2,057
268,7	-1,657
269,1	5,714
269,6	4,171
270	4,771
270,5	3,429
271	3,4
271,4	6,143
271,9	1,057
272,4	1,714
272,8	1,457
273,3	-4,686
273,7	0,6
274,2	2,114
274,7	0,6
275,1	4,057
275,6	2,229
276,1	2,629
276,5	10,171
277	9,686
277,4	9,257
277,9	9,257
278,4	9,514
278,8	9,4
279,3	11,029
279,8	5,657
280,2	3,057
280,7	-0,514
281,1	-3,029
281,6	-3,771
282,1	-0,743
282,5	-2,514
283	-4,686
283,4	-3,4
283,9	-0,143
284,4	7,257
284,8	7,086
285,3	2,629
285,8	4,686
286,2	4,943
286,7	4
287,1	3,114
287,6	-2,914
288,1	-4,2
288,5	1,8
289	-2
289,5	0,943
289,9	-0,8
290,4	-1
290,8	-1,2
291,3	4,8
291,8	3,114
292,2	3,6
292,7	3,657
293,1	5,8
293,6	9,457
294,1	12,229
294,5	9,8
295	9,771
295,5	9,114
295,9	9,257
296,4	5,4
296,8	3,057
297,3	1,914
297,8	-3,657
298,2	-11,657
298,7	-8,029
299,1	-8,086
299,6	-6,286
300,1	-1,2
300,5	-0,457
301	7,4
301,5	18,457
301,9	16,657
302,4	13,314
302,8	12,343
303,3	7,914
303,8	3,971
304,2	-1,171
304,7	-6,486
305,1	-9,114
305,6	-6,771
306,1	0,914
306,5	-3,857
307	-0,343
307,4	2,571
307,9	0,429
308,4	1,714
308,8	-2,686
309,3	-7,857
309,8	-4,486
310,2	-2,343
310,7	-5,286
311,1	-3,829
311,6	1,171
312,1	2,486
312,5	4,143
313	4,686
313,4	0,343
313,9	0,914
314,4	2,314
314,8	-1,829
315,3	2
315,7	-0,943
316,2	-5,343
316,7	-3,371
317,1	-0,029
317,6	-0,514
318	4,571
318,5	0,371
319	-0,229
319,4	4,229
319,9	8,571
320,3	7,571
320,8	6
321,3	3,229
321,7	8,286
322,2	8,057
322,6	9,714
323,1	4,714
323,6	1,429
324	3,657
324,5	4,457
324,9	4,914
325,4	6,714
325,9	2,514
326,3	5,486
326,8	8,486
327,2	7,343
327,7	4,771
328,2	1,057
328,6	1,686
329,1	-2,571
329,5	-7,457
330	-9,514
330,5	-8,943
330,9	-6,057
331,4	-0,457
331,8	-2
332,3	5,743
332,8	8,286
333,2	8,971
333,7	9,514
334,1	5,4
334,6	-0,743
335,1	-4
335,5	-5,657
336	-6,571
336,4	-4,314
336,9	2,914
337,4	8,4
337,8	11,457
338,3	15,571
338,7	18,571
339,2	17,771
339,7	18,686
340,1	11,114
340,6	6,029
341	4,686
341,5	3,571
342	-3,114
342,4	-2,371
342,9	-5,543
343,3	-7,229
343,8	-6
344,2	-6,429
344,7	2,457
345,2	8,4
345,6	10,971
346,1	12,171
346,5	6,886
347	7,543
347,5	7,914
347,9	5,429
348,4	6,943
348,8	5,857
349,3	7,543
349,8	15,971
350,2	21,914
350,7	20,2
351,1	19,171
351,6	20,543
352	25,057
352,5	31,2
353	41,971
353,4	45,743
353,9	65,686
354,3	81,143
354,8	97,571
355,3	124,829
355,7	150,057
356,2	181,229
356,6	215,914
357,1	251,429
357,5	298,086
358	351,457
358,5	403,2
358,9	466,629
359,4	536,086
359,8	619,057
360,3	715,914
360,8	814,943
361,2	929
361,7	1060,8
362,1	1208,257
362,6	1363,943
363	1529,4
363,5	1699,571
364	1890,343
364,4	2082,343
364,9	2272,371
365,3	2457,257
365,8	2637,143
366,3	2809,714
366,7	2967,857
367,2	3101,686
367,6	3213,857
368,1	3303,914
368,5	3366,714
369	3393,971
369,5	3399,057
369,9	3372,914
370,4	3318,143
370,8	3243,4
371,3	3149,743
371,7	3034,143
372,2	2908,486
372,7	2771,2
373,1	2627,857
373,6	2481,086
374	2330,143
374,5	2172,543
374,9	2025,686
375,4	1884,457
375,9	1742,914
376,3	1610,057
376,8	1479,114
377,2	1359,743
377,7	1248,4
378,2	1139,171
378,6	1042,714
379,1	955,143
379,5	878,914
380	811,914
380,4	742
380,9	678,543
381,4	624,657
381,8	577,086
382,3	536,714
382,7	490,771
383,2	453,857
383,6	420,086
384,1	395,943
384,6	372,514
385	345,2
385,5	318,343
385,9	294,543
386,4	271,429
386,8	255,886
387,3	235,486
387,7	218,629
388,2	204,514
388,7	193,143
389,1	185,571
389,6	173,114
390	158,857
390,5	149,8
390,9	142,4
391,4	132,114
391,9	116,429
392,3	107,543
392,8	97,371
393,2	91,971
393,7	85,114
394,1	75,457
394,6	75,686
395,1	74,943
395,5	69,486
396	71,2
396,4	72,514
396,9	67,743
397,3	70,457
397,8	64,886
398,2	65
398,7	66,771
399,2	66,286
399,6	58,086
400,1	56,343
400,5	50,571
401	48,314
401,4	42,171
401,9	42,571
402,4	42,857
402,8	40,857
403,3	48,371
403,7	46,114
404,2	50,143
404,6	49,429
405,1	47,486
405,5	45
406	49,086
406,5	44,743
406,9	50,171
407,4	51,686
407,8	58,286
408,3	62,943
408,7	67,8
409,2	75,771
409,6	82,257
410,1	86,114
410,6	91,886
411	98,2
411,5	101,029
411,9	104,257
412,4	106,771
412,8	110,886
413,3	116,257
413,7	118,457
414,2	121,914
414,7	129,743
415,1	141,943
415,6	149,114
416	159,343
416,5	166,4
416,9	178,486
417,4	191,057
417,8	205,971
418,3	219,343
418,8	235,629
419,2	242,514
419,7	255,914
420,1	267,886
420,6	281
421	285,029
421,5	297,343
421,9	309,629
422,4	330,914
422,8	348,229
423,3	361,4
423,8	377,457
424,2	395,8
424,7	409,743
425,1	426,457
425,6	444,143
426	464,686
426,5	491,686
426,9	517,971
427,4	542,629
427,9	564,371
428,3	592,771
428,8	619,629
429,2	644,886
429,7	671,2
430,1	697,857
430,6	731,571
431	770,571
431,5	809,314
431,9	840,571
432,4	880,457
432,8	922,886
433,3	966,914
433,8	1006,971
434,2	1056,257
434,7	1100,971
435,1	1155,343
435,6	1209,4
436	1263,714
436,5	1323,914
436,9	1392,629
437,4	1452,943
437,8	1523,771
438,3	1594,8
438,8	1671,486
439,2	1743,8
439,7	1823,286
440,1	1904,829
440,6	1992,743
441	2073,771
441,5	2164,514
441,9	2253,514
442,4	2344,457
442,8	2440,971
443,3	2539,6
443,7	2636,143
444,2	2745
444,7	2853,543
445,1	2968,629
445,6	3090,771
446	3211,086
446,5	3324,286
446,9	3441,514
447,4	3574,714
447,8	3707,8
448,3	3837,8
448,7	3976,371
449,2	4117,629
449,6	4269,371
450,1	4422,971
450,6	4569,343
451	4715,971
451,5	4876,486
451,9	5036,429
452,4	5201,286
452,8	5363,4
453,3	5534,8
453,7	5703,943
454,2	5886,486
454,6	6060,286
455,1	6234,943
455,5	6408,686
456	6591,971
456,4	6776,571
456,9	6967,514
457,3	7158,714
457,8	7347,943
458,3	7546,914
458,7	7740,971
459,2	7944,029
459,6	8138,8
460,1	8340
460,5	8536,086
461	8740,629
461,4	8944,714
461,9	9151,8
462,3	9358,886
462,8	9566,857
463,2	9772,486
463,7	9978,514
464,1	10196,971
464,6	10403,6
465	10610,429
465,5	10810,257
466	11020,771
466,4	11226,429
466,9	11445,8
467,3	11643,314
467,8	11846,6
468,2	12057,057
468,7	12264,629
469,1	12471,286
469,6	12683,257
470	12874,514
470,5	13075,029
470,9	13262,543
471,4	13451,486
471,8	13632,143
472,3	13813,543
472,7	13983,371
473,2	14160,371
473,6	14332,543
474,1	14518,171
474,5	14687,6
475	14870,629
475,4	15040,886
475,9	15203,343
476,4	15363,571
476,8	15514,829
477,3	15655,857
477,7	15804,143
478,2	15941,886
478,6	16072,743
479,1	16198,657
479,5	16332,686
480	16448,771
480,4	16576,143
480,9	16683,743
481,3	16791,771
481,8	16887,943
482,2	16994,143
482,7	17081,943
483,1	17172,571
483,6	17238,914
484	17302,714
484,5	17362,114
484,9	17429,943
485,4	17481,114
485,8	17524,914
486,3	17571,6
486,7	17617,6
487,2	17663,714
487,6	17690,6
488,1	17713,486
488,5	17724,571
489	17744,114
489,4	17755,343
489,9	17755,314
490,4	17747,743
490,8	17754,057
491,3	17755,886
491,7	17736,629
492,2	17706,629
492,6	17676,714
493,1	17645,257
493,5	17597,114
494	17546,057
494,4	17486,086
494,9	17433,457
495,3	17376,571
495,8	17316,743
496,2	17261,657
496,7	17203,143
497,1	17134,257
497,6	17068,829
498	17009,143
498,5	16933,914
498,9	16862,886
499,4	16776,2
499,8	16710,057
500,3	16630,457
500,7	16534,086
501,2	16437,543
501,6	16342,714
502,1	16240,943
502,5	16151,971
503	16047,457
503,4	15942
503,9	15838,257
504,3	15741,4
504,8	15642,886
505,2	15532,686
505,7	15424,8
506,1	15316,057
506,6	15196,943
507	15086,6
507,5	14968,629
507,9	14853,8
508,4	14739,343
508,8	14614,771
509,3	14488,429
509,7	14371,143
510,2	14247,114
510,6	14119,114
511,1	13983,571
511,5	13864,6
512	13727,743
512,4	13608,657
512,9	13485,057
513,3	13365,2
513,8	13239,229
514,2	13111,486
514,7	12980,2
515,1	12861,486
515,6	12729,314
516	12590,457
516,5	12456,686
516,9	12324,314
517,4	12206,029
517,8	12073,143
518,3	11942,4
518,7	11821,714
519,2	11701,714
519,6	11567,314
520,1	11442,286
520,5	11308,057
521	11179,343
521,4	11061,229
521,9	10929,771
522,3	10805,171
522,8	10690,886
523,2	10583,886
523,7	10473,429
524,1	10352,914
524,6	10233,543
525	10110,143
525,5	10010,429
525,9	9901,257
526,4	9788,6
526,8	9681,2
527,3	9582,429
527,7	9483,6
528,2	9396,943
528,6	9280,057
529,1	9168,943
529,5	9069,114
530	8964,486
530,4	8867,229
530,9	8762,771
531,3	8649,743
531,8	8546,714
532,2	8468,2
532,6	8365,829
533,1	8271,771
533,5	8180,314
534	8090,457
534,4	8007,114
534,9	7932,314
535,3	7839,943
535,8	7754,086
536,2	7672,714
536,7	7590,743
537,1	7506,457
537,6	7428,429
538	7350,2
538,5	7268,371
538,9	7187,229
539,4	7118,057
539,8	7036,629
540,3	6964,886
540,7	6889,8
541,2	6809,486
541,6	6735,171
542,1	6667,429
542,5	6588,4
543	6518,057
543,4	6445,429
543,9	6382,914
544,3	6324,371
544,8	6258,829
545,2	6191,343
545,7	6132,771
546,1	6074,343
546,5	6017,057
547	5949,943
547,4	5891,543
547,9	5836,229
548,3	5786,743
548,8	5728,829
549,2	5673,943
549,7	5621,229
550,1	5570,857
550,6	5517,943
551	5468,457
551,5	5417,371
551,9	5368,4
552,4	5318,4
552,8	5265,657
553,3	5218,629
553,7	5163,686
554,2	5116,8
554,6	5072,029
555,1	5030,543
555,5	4989,057
555,9	4949,314
556,4	4904,657
556,8	4868,229
557,3	4826,714
557,7	4786,943
558,2	4737,171
558,6	4698,514
559,1	4654,8
559,5	4615,486
560	4574,486
560,4	4538
560,9	4498,714
561,3	4464,171
561,8	4422,829
562,2	4385,2
562,7	4353,771
563,1	4325,486
563,6	4285,914
564	4249,543
564,4	4215,571
564,9	4180,6
565,3	4153,171
565,8	4114,714
566,2	4080,686
566,7	4053,829
567,1	4020,314
567,6	3994,657
568	3963,343
568,5	3931,4
568,9	3901,971
569,4	3874,714
569,8	3850
570,3	3824,829
570,7	3791,486
571,1	3775,886
571,6	3748,971
572	3723,686
572,5	3692,229
572,9	3659,286
573,4	3633,229
573,8	3611,457
574,3	3573,629
574,7	3540,657
575,2	3513,743
575,6	3487,4
576,1	3463,514
576,5	3442,486
576,9	3414,771
577,4	3395,057
577,8	3374,571
578,3	3350,4
578,7	3323,657
579,2	3300,857
579,6	3274,429
580,1	3250,343
580,5	3230,371
581	3215,4
581,4	3198,829
581,9	3181,429
582,3	3159,6
582,7	3139,457
583,2	3117,971
583,6	3095,686
584,1	3065,114
584,5	3043,943
585	3020,971
585,4	2994,114
585,9	2971,743
586,3	2956,629
586,8	2937,057
587,2	2922,486
587,6	2907,543
588,1	2896,029
588,5	2883,914
589	2868,143
589,4	2842,2
589,9	2820,886
590,3	2802,457
590,8	2778,229
591,2	2758,314
591,7	2743,571
592,1	2728,114
592,5	2718,114
593	2705,486
593,4	2687,943
593,9	2675,829
594,3	2663,971
594,8	2645,657
595,2	2624,286
595,7	2606,171
596,1	2587,8
596,6	2575,143
597	2555,229
597,4	2541,143
597,9	2528,829
598,3	2519,314
598,8	2506,8
599,2	2491,629
599,7	2482,086
600,1	2469,543
600,6	2445,8
601	2427,714
601,4	2422,114
601,9	2412,771
602,3	2404,057
602,8	2387,286
603,2	2372,4
603,7	2357,571
604,1	2348,086
604,6	2326,457
605	2304,714
605,4	2286,2
605,9	2269,171
606,3	2256,457
606,8	2244,686
607,2	2233
607,7	2216,057
608,1	2211,114
608,6	2201,657
609	2194,429
609,4	2183,714
609,9	2171,657
610,3	2159,086
610,8	2150,514
611,2	2136
611,7	2124,314
612,1	2107,914
612,6	2094,857
613	2087,486
613,4	2073,771
613,9	2059,286
614,3	2047,543
614,8	2036,543
615,2	2025,029
615,7	2013,943
616,1	2002,429
616,6	1988,429
617	1975,2
617,4	1961,686
617,9	1951,686
618,3	1947,114
618,8	1940,286
619,2	1927,771
619,7	1915,857
620,1	1906,971
620,5	1896,829
621	1880,543
621,4	1866,143
621,9	1849,229
622,3	1834,229
622,8	1823,657
623,2	1813,8
623,6	1800,571
624,1	1792,771
624,5	1780,543
625	1775,886
625,4	1771,486
625,9	1762,857
626,3	1753,343
626,8	1744,457
627,2	1732,257
627,6	1711,686
628,1	1694,286
628,5	1682,229
629	1666,857
629,4	1652,657
629,9	1638,743
630,3	1628
630,7	1624,314
631,2	1614,829
631,6	1599,543
632,1	1586,971
632,5	1576,914
633	1568,229
633,4	1555,6
633,8	1546,543
634,3	1538,143
634,7	1533,571
635,2	1526,343
635,6	1518,6
636,1	1506,086
636,5	1496,8
636,9	1484,2
637,4	1474,543
637,8	1457,371
638,3	1445,486
638,7	1430,857
639,2	1418,686
639,6	1410,8
640	1406,6
640,5	1394,029
640,9	1388,629
641,4	1379,8
641,8	1371,457
642,2	1371,171
642,7	1368,371
643,1	1361,171
643,6	1349,457
644	1343,829
644,5	1338,371
644,9	1334,543
645,3	1321,571
645,8	1307,543
646,2	1301,286
646,7	1297,543
647,1	1285,4
647,6	1279,057
648	1272,114
648,4	1262,114
648,9	1260,143
649,3	1248,143
649,8	1245
650,2	1240,286
650,6	1233,4
651,1	1222,086
651,5	1221,229
652	1206,829
652,4	1193,486
652,9	1181,057
653,3	1171,086
653,7	1161,343
654,2	1157,343
654,6	1143,771
655,1	1138,257
655,5	1140,571
655,9	1133,514
656,4	1127,057
656,8	1115,171
657,3	1103,629
657,7	1099,971
658,2	1092,943
658,6	1078,6
659	1072,743
659,5	1064,257
659,9	1061,886
660,4	1058,714
660,8	1048,314
661,2	1037,686
661,7	1029,971
662,1	1024,657
662,6	1023,4
663	1018,114
663,4	1010,829
663,9	1009,314
664,3	1001,486
664,8	995,429
665,2	980,257
665,6	965,771
666,1	959,743
666,5	951,629
667	939,914
667,4	936,257
667,9	932,314
668,3	929,171
668,7	921,2
669,2	914,257
669,6	909,257
670,1	903,886
670,5	895,971
670,9	892,314
671,4	889,229
671,8	893,657
672,3	891,943
672,7	888,314
673,1	881,571
673,6	878,143
674	873,429
674,5	865,257
674,9	849,714
675,3	834,6
675,8	824,371
676,2	819,057
676,7	813,2
677,1	801,457
677,5	792,486
678	789,571
678,4	791,257
678,9	784,6
679,3	779,629
679,7	771,8
680,2	761,286
680,6	757,229
681,1	750,771
681,5	745,6
681,9	741,886
682,4	741,743
682,8	737,571
683,3	738,4
683,7	736,114
684,1	730,943
684,6	718,829
685	709,057
685,5	695,429
685,9	688,343
686,3	678,829
686,8	671,686
687,2	671,457
687,7	669,771
688,1	664,057
688,5	665,943
689	665,2
689,4	665,457
689,9	656,486
690,3	648,829
690,7	644,857
691,2	644,343
691,6	637,314
692	632,4
692,5	627,2
692,9	630,457
693,4	623,629
693,8	619,343
694,2	612,114
694,7	608,314
695,1	605,457
695,6	603,686
696	598,171
696,4	594,086
696,9	585,943
697,3	580,686
697,8	573,914
698,2	561,943
698,6	559,229
699,1	555,743
699,5	555,886
699,9	550,429
700,4	547,314
700,8	545,2
701,3	546,2
701,7	536,6
702,1	529,829
702,6	523,571
703	525,429
703,5	522,114
703,9	514,343
704,3	510,686
704,8	505,629
705,2	505,343
705,6	502,371
706,1	497,286
706,5	492,086
707	493,086
707,4	491,4
707,8	487,629
708,3	482,543
708,7	477,857
709,2	472,114
709,6	471,657
710	468,171
710,5	461,114
710,9	464,229
711,3	459,829
711,8	456,229
712,2	454,914
712,7	451,829
713,1	449,629
713,5	448,514
714	441,743
714,4	436,2
714,8	435,2
715,3	428,571
715,7	422,057
716,2	414
716,6	413,171
717	408,629
717,5	405,971
717,9	404,257
718,3	401,114
718,8	403,743
719,2	404,143
719,7	392,886
720,1	394,629
720,5	396,171
721	388,314
721,4	388,857
721,8	387,886
722,3	380,943
722,7	389,086
723,2	381,286
723,6	367,343
724	366,8
724,5	361,314
724,9	355,029
725,3	356,629
725,8	344,314
726,2	338,8
726,7	340,229
727,1	334,286
727,5	334,057
728	328,286
728,4	325,714
728,8	325,657
729,3	322,714
729,7	317,314
730,1	315,771
730,6	314,943
731	310,886
731,5	308,829
731,9	306,8
732,3	308,343
732,8	315,143
733,2	313,714
733,6	307
734,1	311,629
734,5	304,771
734,9	302,543
735,4	304,857
735,8	296,657
736,3	298,514
736,7	297,886
737,1	292,829
737,6	290,114
738	285,543
738,4	280,343
738,9	282,114
739,3	277,714
739,7	278,486
740,2	276,743
740,6	281,114
741,1	285,629
741,5	278,314
741,9	276,971
742,4	275,6
742,8	272,714
743,2	271,8
743,7	264,086
744,1	256,943
744,5	259
745	256,971
745,4	253,771
745,8	250,143
746,3	247,114
746,7	247,371
747,2	249,629
747,6	248,314
748	251,371
748,5	256
748,9	255,286
749,3	253,486
749,8	256,086
750,2	251,714
750,6	248,4
751,1	244,571
751,5	240,086
751,9	239,486
752,4	239,914
752,8	232,8
753,3	233,657
753,7	236,314
754,1	228,857
754,6	223,486
755	219,371
755,4	215,657
755,9	219,543
756,3	219,343
756,7	216,543
757,2	217,771
757,6	222,086
758	218,829
758,5	221,514
758,9	214,657
759,3	214,571
759,8	213,371
760,2	212,886
760,6	204,943
761,1	205,257
761,5	205,914
761,9	205,886
762,4	200,914
762,8	195,714
763,3	191,457
763,7	195,257
764,1	195,743
764,6	191,743
765	193,714
765,4	193,971
765,9	194,686
766,3	198,171
766,7	194,257
767,2	193,229
767,6	196,314
768	194,286
768,5	191,057
768,9	190,371
769,3	188,057
769,8	188,514
770,2	187,8
770,6	178,914
771,1	182
771,5	181,171
771,9	180,8
772,4	182,057
772,8	180,429
773,2	177,371
773,7	175,286
774,1	169,143
774,5	164,286
775	163,629
775,4	158,8
775,8	158,657
776,3	159,257
776,7	156,114
777,1	155,257
777,6	161,857
778	162,686
778,4	160,343
778,9	162,314
779,3	162,714
779,7	165,429
780,2	165,829
780,6	161,943
781	157,343
781,5	155,457
781,9	147,714
782,3	144,057
782,8	142,886
783,2	136,971
783,6	136,6
784,1	138,514
784,5	139,514
784,9	141,657
785,4	138,343
785,8	142,943
786,2	145,714
786,7	146,914
787,1	144,171
787,5	144,543
788	140,857
788,4	143,714
788,8	137,8
789,3	133,4
789,7	132,171
790,1	131,114
790,6	128,914
791	131,114
791,4	131,4
791,9	126,114
792,3	128
792,7	128,743
793,2	125,343
793,6	124,829
794	125,086
794,5	119,829
794,9	126,714
795,3	127,514
795,8	126,114
796,2	130,343
796,6	129,371
797,1	129,057
797,5	130,629
797,9	126,886
798,4	124,571
798,8	119,171
799,2	117,657
799,7	120,057
800,1	115,314
800,5	116,571
801	118,229
801,4	115,029
801,8	112,886
802,2	112,543
802,7	107,371
803,1	107,943
803,5	106,057
804	101,343
804,4	103,629
804,8	106,657
805,3	106,6
805,7	108,2
806,1	104,914
806,6	107,714
807	107,229
807,4	104,486
807,9	99,971
808,3	97,4
808,7	97,343
809,2	99,114
809,6	98,171
810	96,286
810,4	99
810,9	101,486
811,3	101,314
811,7	99,971
812,2	103,114
812,6	96,8
813	97,057
813,5	93,714
813,9	93,971
814,3	93,114
814,8	93,6
815,2	86,171
815,6	86,629
816,1	89,686
816,5	88,286
816,9	85,971
817,3	82,943
817,8	86,543
818,2	89,629
818,6	86,629
819,1	84,714
819,5	81,857
819,9	85,114
820,4	88,229
820,8	81,057
821,2	77,914
821,7	82,171
822,1	83,543
822,5	93,086
822,9	90,6
823,4	89,486
823,8	89,714
824,2	93
824,7	87,229
825,1	80,771
825,5	68,657
826	62,943
826,4	60,971
826,8	57,8
827,3	54,914
827,7	57,857
828,1	60,886
828,5	63,543
829	61,914
829,4	62,343
829,8	60,286
830,3	62,6
830,7	57,886
831,1	57,2
831,6	60,657
832	60,6
832,4	58,029
832,8	60,171
833,3	53,743
833,7	56
834,1	51,4
834,6	46,114
835	51,514
835,4	51,171
835,8	46,486
836,3	45,571
836,7	46,657
837,1	50,629
837,6	56,2
838	51,943
838,4	54,057
838,9	57,171
839,3	55,657
839,7	60,114
840,1	56,914
840,6	50,743
841	56,971
841,4	55,229
841,9	58,629
842,3	63,886
842,7	60,857
843,1	62,171
843,6	63,943
844	57,857
844,4	61,543
844,9	62,086
845,3	60,829
845,7	57,486
846,2	53,657
846,6	49,343
847	51,857
847,4	46,2
847,9	42,486
848,3	40,343
848,7	41,6
849,2	43,171
849,6	46,943
850	49,971
850,4	54,657
850,9	61,057
851,3	59,286
851,7	61,286
852,2	60,4
852,6	64,886
853	60,686
853,4	54,743
853,9	44,2
854,3	48,343
854,7	46,371
855,2	48
855,6	46,143
856	42,314
856,4	42,886
856,9	45,886
857,3	42,4
857,7	43,714
858,2	48,229
858,6	45,486
859	43,857
859,4	43,286
859,9	40,943
860,3	42,457
860,7	39,457
861,1	34,829
861,6	31,886
862	35,457
862,4	34,143
862,9	37,971
863,3	34,514
863,7	31,114
864,1	31,657
864,6	32,029
865	31,971
865,4	34,114
865,9	34,429
866,3	32,286
866,7	33,6
867,1	29,829
867,6	28,314
868	28,829
868,4	28,486
868,8	26,057
869,3	29,371
869,7	34
870,1	31,286
870,6	33,343
871	16,2
871,4	16,057
871,8	12,286
872,3	14
872,7	12,229
873,1	15,8
873,5	16,457
874	29,2
874,4	29,429
874,8	30,286
875,3	28,857
875,7	25,514
876,1	26,029
876,5	25,543
877	26,571
877,4	23,457
877,8	22,714
878,2	24,514
878,7	23,886
879,1	23,2
879,5	21,857
879,9	23,286
880,4	27,543
880,8	30,686
881,2	29,771
881,7	30,943
882,1	30,8
882,5	30,229
882,9	27,886
883,4	24,686
883,8	24,429
884,2	22,429
884,6	20,143
885,1	21,257
885,5	23,629
885,9	23,371
886,3	23,143
886,8	20,086
887,2	18,143
887,6	16,171
888	14,943
888,5	15,343
888,9	13,943
889,3	10,686
889,8	10,171
890,2	10,943
890,6	8,429
891	10,543
891,5	3,886
891,9	5,2
892,3	8,829
892,7	12,914
893,2	15,771
893,6	21,743
894	22,343
894,4	23,543
894,9	21,6
895,3	19,743
895,7	20,086
896,1	16,686
896,6	18,543
897	17,514
897,4	23,6
897,8	25,857
898,3	28,857
898,7	24,4
899,1	23,086
899,5	18,143
900	10,2
900,4	8,314
900,8	9,4
901,2	2,571
901,7	2,514
902,1	8,914
902,5	11,943
902,9	13,771
903,4	13,514
903,8	13,543
904,2	16,2
904,6	20,086
905,1	16,914
905,5	17,114
905,9	23,2
906,3	24,771
906,8	25,2
907,2	26,543
907,6	23,771
908	23,4
908,5	22,4
908,9	16,771
909,3	12,4
909,7	10,143
910,2	10,771
910,6	17,257
911	14,314
911,4	17,114
911,9	16,2
912,3	17,657
912,7	21,943
913,1	25,371
913,6	16,229
914	16,4
914,4	8,486
914,8	11,486
915,3	8,6
915,7	6,2
916,1	0,8
916,5	6,829
916,9	9,371
917,4	14,029
917,8	16,686
918,2	14,514
918,6	11,886
919,1	10,943
919,5	9,429
919,9	12,286
920,3	12,829
920,8	10,457
921,2	14,686
921,6	11,914
922	15,086
922,5	14
922,9	13,514
923,3	10,971
923,7	8,6
924,2	9,657
924,6	12,429
925	11,743
925,4	11,829
925,8	10,971
926,3	11,029
926,7	11,229
927,1	9,086
927,5	9,2
928	8
928,4	4,686
928,8	6,6
929,2	8,457
929,7	11,171
930,1	14,029
930,5	14,086
930,9	15,714
931,3	17,743
931,8	14,714
932,2	14,086
932,6	10,943
933	4,943
933,5	5,343
933,9	5,343
934,3	7,829
934,7	1,8
935,2	1,086
935,6	3,543
936	6,914
936,4	6,886
936,8	9,114
937,3	6,257
937,7	13,429
938,1	18,229
938,5	15,057
939	13,657
939,4	14,886
939,8	10,714
940,2	11,886
940,6	12,457
941,1	10,257
941,5	17,714
941,9	14,286
942,3	13,971
942,8	15,343
943,2	15,314
943,6	7,8
944	8,514
944,4	3,886
944,9	4,714
945,3	1,371
945,7	0,286
946,1	-1,086
946,6	1,886
947	-0,743
947,4	0
947,8	4,229
948,2	6,029
948,7	8,714
949,1	8,571
949,5	13,057
949,9	10,686
950,3	10,686
950,8	9,829
951,2	9,314
951,6	5,571
952	9,886
952,5	1,829
952,9	2,686
953,3	3,571
953,7	4,457
954,1	8,2
954,6	9,657
955	8,029
955,4	10,2
955,8	15,971
956,2	12,914
956,7	13,914
957,1	5,514
957,5	10,229
957,9	8,086
958,3	12,629
958,8	7,743
959,2	10,543
959,6	11,571
960	14,343
960,5	12,6
960,9	13,029
961,3	9,343
961,7	11,543
962,1	10,857
962,6	7,171
963	10,114
963,4	3,371
963,8	2,429
964,2	4,171
964,7	1,029
965,1	2,4
965,5	1,171
965,9	-1,686
966,3	2,771
966,8	4,743
967,2	1,171
967,6	3,543
968	-4,343
968,4	-2,8
968,9	-3,571
969,3	-1,2
969,7	-5,171
970,1	-4,229
970,5	-7,371
971	-0,2
971,4	-0,8
971,8	3,4
972,2	2,971
972,6	3,257
973,1	6,829
973,5	7,114
973,9	8,886
974,3	7,8
974,7	8,6
975,2	8,343
975,6	8,686
976	7,8
976,4	8,257
976,8	4,914
977,3	6,314
977,7	3,114
978,1	-1,6
978,5	-3,114
978,9	-5,4
979,4	-7,143
979,8	-6,543
980,2	-8,257
980,6	-12,943
981	-10,114
981,5	-8,714
981,9	-7,829
982,3	-4,686
982,7	-5,257
983,1	-5,543
983,6	2,543
984	4,514
984,4	9,543
984,8	11,343
985,2	10,971
985,6	7,514
986,1	10,171
986,5	7,886
986,9	1,371
987,3	1,714
987,7	1,114
988,2	-2,429
988,6	3,057
989	1,286
989,4	-0,114
989,8	7,143
990,3	5
990,7	2,6
991,1	1,857
991,5	1,257
991,9	6,029
992,3	7,771
992,8	9,114
993,2	6,429
993,6	6,371
994	13,771
994,4	16,086
994,9	15,657
995,3	12,114
995,7	8,314
996,1	7,6
996,5	11,543
996,9	5,829
997,4	4,771
997,8	-2,629
998,2	-0,657
998,6	-6,371
999	-5,771
999,5	-12,914
999,9	-11,257
1000,3	-16,714
1000,7	-9,629
1001,1	-8,943
1001,5	-3,429
1002	0,286
1002,4	5,629
1002,8	5,743
1003,2	7,857
1003,6	5,8
1004	4,514
1004,5	0,171
1004,9	-3,314
1005,3	-10,257
1005,7	-9,571
1006,1	-7,971
1006,6	-6,943
1007	-0,657
1007,4	-0,343
1007,8	-0,914
1008,2	2,514
1008,6	2,314
1009,1	2,2
1009,5	-0,086
1009,9	-2,829
1010,3	-0,229
1010,7	0,657
1011,1	4,257
1011,6	4,771
1012	5,229
1012,4	6
1012,8	0,829
1013,2	6,114
1013,6	7,257
1014,1	7,629
1014,5	8,886
1014,9	5,8
1015,3	6,771
1015,7	12,257
1016,1	3,086
1016,6	3,086
1017	3,771
1017,4	1,457
1017,8	3,314
1018,2	1,743
1018,6	-4,686
1019,1	-2,314
1019,5	-4,286
1019,9	-6,914
1020,3	-3,629
1020,7	-2
1021,1	-3,457
1021,6	-2,2
1022	2,8
1022,4	2,571
1022,8	3,057
1023,2	-1,486
1023,6	-2,229
1024,1	3,886
1024,5	7,771
1024,9	1,629
1025,3	3,429
1025,7	4,686
1026,1	10,714
1026,6	11,429
1027	11,514
1027,4	12,629
1027,8	18,486
1028,2	18,171
1028,6	20,571
1029	18,6
1029,5	17,829
1029,9	12,771
1030,3	7,143
1030,7	7,829
1031,1	4,657
1031,5	0,771
1032	-2,229
1032,4	-0,771
1032,8	3,057
1033,2	7,771
1033,6	2,914
1034	5,629
1034,4	5,457
1034,9	7,429
1035,3	1,571
1035,7	0,029
1036,1	-4,629
1036,5	-5,343
1036,9	-6,914
1037,4	-2,514
1037,8	-7,543
1038,2	-7,743
1038,6	-7,886
1039	-1,629
1039,4	5,229
1039,8	3,543
1040,3	4,429
1040,7	7,771
1041,1	10,943
1041,5	13,486
1041,9	5,8
1042,3	2,543
1042,7	5,771
1043,2	2,657
1043,6	1,2
1044	2,914
1044,4	-1,457
1044,8	8,743
1045,2	6,686
1045,6	10,257
1046,1	7,314
1046,5	9,343
1046,9	5,971
1047,3	7,571
1047,7	1,829
1048,1	-0,429
1048,5	-2,143
1049	2,714
1049,4	7,314
1049,8	9,143
1050,2	11,114
1050,6	13,029
1051	14,571
1051,4	13,057
1051,9	7,4
1052,3	9,143
1052,7	7,714
1053,1	2,971
1053,5	7,114
1053,9	8,029
1054,3	9,943
1054,8	17,486
1055,2	12,229
1055,6	17,657
1056	20,286
1056,4	10,771
1056,8	9,714
1057,2	7,971
1057,6	3,543
1058,1	0,571
1058,5	-5,971
1058,9	-2,914
1059,3	-0,343
1059,7	-0,257
1060,1	0,829
1060,5	2,171
1061	6,829
1061,4	5,543
1061,8	3,571
1062,2	2,914
1062,6	3,971
1063	3,371
1063,4	-0,286
1063,8	-5,086
1064,3	-2,6
1064,7	-3,743
1065,1	-1,114
1065,5	-8,143
1065,9	-11,457
1066,3	-10,2
1066,7	-10,914
1067,1	-10,8
1067,6	-7,686
1068	-11,143
1068,4	-2,6
1068,8	4,314
1069,2	4,314
1069,6	6,914
1070	6,971
1070,4	7,029
1070,9	6,086
1071,3	8,086
1071,7	0,743
1072,1	-1,286
1072,5	-2,629
1072,9	-2,857
1073,3	-6,971
1073,7	-8,6
1074,2	-11,229
1074,6	-5
1075	-4,371
1075,4	-4,771
1075,8	-0,171
1076,2	-0,657
1076,6	5,6
1077	2,4
1077,5	0,771
1077,9	-1,829
1078,3	-4,686
1078,7	-7,543
1079,1	-10,314
1079,5	-7,514
1079,9	-4,629
1080,3	-5,057
1080,7	2,343
1081,2	11,314
1081,6	12,429
1082	14,486
1082,4	15,686
1082,8	15,029
1083,2	17,6
1083,6	15,914
1084	12,571
1084,5	12,829
1084,9	11,4
1085,3	4,914
1085,7	9,171
1086,1	8,343
1086,5	6,514
1086,9	7,286
1087,3	3,943
1087,7	5,971
1088,2	6,6
1088,6	3,114
1089	2
1089,4	2,6
1089,8	4,743
1090,2	5,029
1090,6	7,286
1091	9,829
1091,4	10,314
1091,9	10,4
1092,3	9,886
1092,7	7,257
1093,1	10,4
1093,5	7,857
1093,9	2,686
1094,3	6,371
1094,7	2,229
1095,1	5,143
1095,5	5,114
1096	1,371
1096,4	0,057
1096,8	6,2
1097,2	2,057
1097,6	9,286
1098	8,457
1098,4	9,171
1098,8	11,171
1099,2	19,314
1099,6	15,4
1100,1	15,057
1100,5	10,457
1100,9	7,743
1101,3	7,2
1101,7	6,314
1102,1	3,086
1102,5	7,8
1102,9	9,4
1103,3	12,086
1103,7	14,086
1104,2	11,571
1104,6	12,8
1105	9,029
1105,4	6,771
1105,8	4,486
1106,2	1,371
1106,6	0,086
1107	1,6
1107,4	0,8
1107,8	2,44
1108,3	-0,3
