Data from Subt2_041.txt Node
Date: Sat Aug 26 16:25:09 MSK 2023
User: vat
Spectrometer: MAYP114033
Trigger mode: 0
Integration Time (sec): 1,000000E0
Scans to average: 5
Electric dark correction enabled: true
Nonlinearity correction enabled: false
Boxcar width: 3
XAxis mode: Wavelengths
Number of Pixels in Spectrum: 2068
>>>>>Begin Spectral Data<<<<<
199,4	0,467
199,9	-1,473
200,4	-5,3
200,8	-6,148
201,3	-5,176
201,8	-3,29
202,2	-5,49
202,7	-4,09
203,2	-5,005
203,6	-1,09
204,1	-2,376
204,6	-0,319
205	0,167
205,5	1,51
206	3,081
206,4	6,852
206,9	4,195
207,4	11,081
207,8	5,11
208,3	5,11
208,8	8,424
209,2	9,252
209,7	10,71
210,2	18,595
210,6	14,681
211,1	15,224
211,5	12,738
212	8,51
212,5	1,195
212,9	-1,176
213,4	-5,176
213,9	-5,205
214,3	-4,205
214,8	-3,548
215,3	0,424
215,7	2,938
216,2	4,195
216,7	0,824
217,1	-0,262
217,6	4,595
218,1	3,881
218,5	2,31
219	9,91
219,5	8,424
219,9	11,452
220,4	13,767
220,9	11,681
221,3	12,881
221,8	10,881
222,3	4,167
222,7	2,338
223,2	3,052
223,6	1,167
224,1	-0,605
224,6	-4,062
225	-3,376
225,5	1,452
226	2,31
226,4	2,881
226,9	3,795
227,4	4,652
227,8	10,681
228,3	12,881
228,8	11,081
229,2	14,652
229,7	11,852
230,2	14,395
230,6	14,624
231,1	16,281
231,5	15,024
232	15,224
232,5	12,252
232,9	15,681
233,4	11,938
233,9	13,167
234,3	8,71
234,8	9,224
235,3	7,224
235,7	10,31
236,2	9,024
236,7	12,424
237,1	10,138
237,6	13,338
238,1	13,881
238,5	13,852
239	11,995
239,4	10,824
239,9	8,11
240,4	7,481
240,8	10,51
241,3	7,167
241,8	5,567
242,2	0,167
242,7	2,281
243,2	2,652
243,6	2,481
244,1	-6,233
244,6	-7,805
245	-6,462
245,5	-1,576
245,9	-4,776
246,4	-5,605
246,9	-2,376
247,3	-1,462
247,8	2,052
248,3	2,024
248,7	6,967
249,2	5,024
249,7	3,395
250,1	2,281
250,6	4,052
251	1,51
251,5	-0,833
252	-4,519
252,4	0,081
252,9	3,081
253,4	1,652
253,8	-0,319
254,3	4,567
254,8	7,51
255,2	6,91
255,7	7,424
256,1	3,938
256,6	7,91
257,1	11,71
257,5	10,71
258	7,195
258,5	8,424
258,9	8,395
259,4	12,224
259,9	8,71
260,3	3,852
260,8	1,338
261,2	6,081
261,7	8,938
262,2	2,967
262,6	1,481
263,1	0,938
263,6	3,767
264	2,567
264,5	2,538
264,9	-2,833
265,4	2,767
265,9	6,652
266,3	8,567
266,8	8,624
267,3	9,31
267,7	8,31
268,2	8,11
268,7	3,424
269,1	2,481
269,6	3,938
270	9,51
270,5	12,967
271	14,052
271,4	10,167
271,9	11,395
272,4	7,481
272,8	0,51
273,3	-5,662
273,7	-9,462
274,2	-10,69
274,7	-6,233
275,1	-10,633
275,6	-5,49
276,1	0,681
276,5	3,052
277	7,395
277,4	10,538
277,9	9,081
278,4	16,395
278,8	13,281
279,3	7,938
279,8	10,967
280,2	5,11
280,7	0,481
281,1	3,824
281,6	3,995
282,1	6,138
282,5	12,195
283	7,995
283,4	11,91
283,9	11,252
284,4	9,91
284,8	5,995
285,3	0,31
285,8	-2,69
286,2	-5,948
286,7	-4,748
287,1	-3,49
287,6	-0,376
288,1	5,052
288,5	9,424
289	11,11
289,5	11,138
289,9	8,681
290,4	9,624
290,8	9,967
291,3	3,567
291,8	2,195
292,2	2,024
292,7	3,595
293,1	4,595
293,6	2,938
294,1	-1,405
294,5	4,595
295	6,052
295,5	8,71
295,9	10,481
296,4	10,252
296,8	8,852
297,3	10,281
297,8	8,881
298,2	9,224
298,7	4,91
299,1	8,281
299,6	9,138
300,1	11,652
300,5	12,91
301	16,452
301,5	15,138
301,9	15,738
302,4	9,195
302,8	7,738
303,3	7,367
303,8	4,367
304,2	0,51
304,7	-1,662
305,1	0,081
305,6	0,224
306,1	2,367
306,5	4,624
307	5,224
307,4	4,481
307,9	2,224
308,4	4,11
308,8	10,852
309,3	7,624
309,8	9,967
310,2	7,281
310,7	14,024
311,1	15,567
311,6	13,51
312,1	11,11
312,5	14,795
313	11,738
313,4	13,938
313,9	13,252
314,4	11,367
314,8	12,624
315,3	12,481
315,7	13,395
316,2	11,481
316,7	11,081
317,1	8,338
317,6	13,052
318	11,31
318,5	8,481
319	5,052
319,4	6,481
319,9	8,338
320,3	5,024
320,8	5,881
321,3	3,224
321,7	2,852
322,2	7,195
322,6	3,595
323,1	2,795
323,6	3,938
324	5,31
324,5	4,167
324,9	5,138
325,4	2,567
325,9	9,052
326,3	8,881
326,8	9,51
327,2	7,195
327,7	8,367
328,2	10,71
328,6	10,024
329,1	5,995
329,5	4,852
330	4,252
330,5	5,852
330,9	8,881
331,4	4,081
331,8	9,138
332,3	17,424
332,8	18,195
333,2	17,51
333,7	15,11
334,1	15,881
334,6	17,91
335,1	11,967
335,5	4,252
336	2,71
336,4	3,795
336,9	8,71
337,4	9,281
337,8	14,367
338,3	17,224
338,7	18,938
339,2	24,824
339,7	25,738
340,1	21,538
340,6	17,281
341	18,652
341,5	19,395
342	17,938
342,4	11,652
342,9	7,995
343,3	10,367
343,8	16,881
344,2	15,881
344,7	15,024
345,2	12,167
345,6	18,281
346,1	21,652
346,5	21,452
347	16,567
347,5	9,738
347,9	8,452
348,4	12,795
348,8	12,595
349,3	11,252
349,8	15,967
350,2	17,624
350,7	25,052
351,1	24,967
351,6	30,367
352	35,738
352,5	40,71
353	46,11
353,4	55,452
353,9	65,081
354,3	84,338
354,8	95,738
355,3	113,052
355,7	137,338
356,2	162,367
356,6	193,367
357,1	222,624
357,5	253,995
358	300,224
358,5	352,681
358,9	409,681
359,4	471,738
359,8	537,395
360,3	627,738
360,8	727,938
361,2	831,91
361,7	941,395
362,1	1067,595
362,6	1212,91
363	1366,481
363,5	1519,624
364	1682,452
364,4	1849,967
364,9	2018,881
365,3	2184,024
365,8	2336,767
366,3	2492,567
366,7	2629,452
367,2	2741,138
367,6	2839,738
368,1	2911,167
368,5	2962,224
369	2987,91
369,5	2984,681
369,9	2959,31
370,4	2917,738
370,8	2850,567
371,3	2776,567
371,7	2682,167
372,2	2568,91
372,7	2437,681
373,1	2315,252
373,6	2179,481
374	2043,252
374,5	1906,11
374,9	1767,11
375,4	1641,138
375,9	1525,167
376,3	1407,767
376,8	1296,595
377,2	1198,338
377,7	1097,424
378,2	1006,738
378,6	919,338
379,1	843,624
379,5	770,71
380	713,224
380,4	653,081
380,9	604,138
381,4	562,024
381,8	519,881
382,3	477,51
382,7	436,881
383,2	401,052
383,6	371,452
384,1	345,567
384,6	312,424
385	292,052
385,5	270,51
385,9	255,138
386,4	241,424
386,8	228,595
387,3	210,767
387,7	200,652
388,2	184,538
388,7	172,795
389,1	156,852
389,6	142,338
390	128,367
390,5	117,052
390,9	114,081
391,4	112,681
391,9	109,538
392,3	104,795
392,8	102,167
393,2	94,567
393,7	94,995
394,1	88,252
394,6	79,224
395,1	73,995
395,5	74,967
396	70,052
396,4	71,367
396,9	67,11
397,3	62,767
397,8	63,138
398,2	59,281
398,7	52,91
399,2	49,71
399,6	49,252
400,1	42,71
400,5	43,938
401	43,795
401,4	46,481
401,9	48,11
402,4	46,681
402,8	41,338
403,3	43,538
403,7	42,71
404,2	42,967
404,6	40,595
405,1	39,224
405,5	38,195
406	37,167
406,5	37,052
406,9	34,938
407,4	35,881
407,8	40,424
408,3	41,71
408,7	48,938
409,2	54,795
409,6	62,081
410,1	67,452
410,6	72,71
411	76,224
411,5	76,71
411,9	78,195
412,4	83,081
412,8	89,195
413,3	95,281
413,7	97,338
414,2	104,081
414,7	115,624
415,1	120,11
415,6	126,452
416	130,995
416,5	135,624
416,9	139,91
417,4	143,738
417,8	149,481
418,3	164,167
418,8	169,681
419,2	178,481
419,7	192,481
420,1	202,881
420,6	214,824
421	225,595
421,5	233,224
421,9	247,367
422,4	256,938
422,8	264,71
423,3	273,31
423,8	285,824
424,2	301,51
424,7	314,51
425,1	325,31
425,6	340,71
426	355,624
426,5	373,481
426,9	388,51
427,4	400,881
427,9	408,824
428,3	426,252
428,8	445,738
429,2	462,338
429,7	479,252
430,1	498,31
430,6	524,195
431	551,281
431,5	578,71
431,9	601,424
432,4	631,51
432,8	667,224
433,3	698,367
433,8	728,681
434,2	769,91
434,7	800,138
435,1	840,824
435,6	884,538
436	923,224
436,5	972,424
436,9	1019,024
437,4	1065,652
437,8	1118,167
438,3	1168,738
438,8	1208,424
439,2	1263,452
439,7	1316,995
440,1	1373,338
440,6	1428,424
441	1489,681
441,5	1552,424
441,9	1631,51
442,4	1704,138
442,8	1777,167
443,3	1850,91
443,7	1926,652
444,2	2007,281
444,7	2088,081
445,1	2165,224
445,6	2247,538
446	2335,51
446,5	2426,681
446,9	2524,395
447,4	2622,052
447,8	2724,51
448,3	2827,738
448,7	2929,71
449,2	3033,138
449,6	3134,11
450,1	3246,852
450,6	3357,538
451	3469,681
451,5	3582,052
451,9	3701,367
452,4	3824,31
452,8	3953,567
453,3	4067,195
453,7	4191,024
454,2	4312,795
454,6	4446,224
455,1	4572,538
455,5	4698,795
456	4834,624
456,4	4976,51
456,9	5110,881
457,3	5254,91
457,8	5391,424
458,3	5541,538
458,7	5687,424
459,2	5826,338
459,6	5979,652
460,1	6130,738
460,5	6283,91
461	6435,11
461,4	6587,138
461,9	6737,567
462,3	6894,195
462,8	7033,252
463,2	7180,595
463,7	7327,967
464,1	7487,881
464,6	7638,538
465	7786,51
465,5	7938,767
466	8094,052
466,4	8240,224
466,9	8392,624
467,3	8530,395
467,8	8678,252
468,2	8826,452
468,7	8970,995
469,1	9110,624
469,6	9268,481
470	9403,767
470,5	9551,967
470,9	9694,081
471,4	9836,367
471,8	9971,91
472,3	10109,595
472,7	10232,852
473,2	10360,71
473,6	10488,938
474,1	10602,195
474,5	10728,167
475	10844,938
475,4	10958,824
475,9	11086,881
476,4	11190,938
476,8	11298,652
477,3	11414,91
477,7	11518,081
478,2	11625,681
478,6	11733,281
479,1	11820,938
479,5	11925,967
480	12004,138
480,4	12082,224
480,9	12157,738
481,3	12226,767
481,8	12286,081
482,2	12351,567
482,7	12415,024
483,1	12484,11
483,6	12537,367
484	12586,338
484,5	12635,824
484,9	12692,795
485,4	12722,167
485,8	12748,71
486,3	12777,081
486,7	12817,395
487,2	12839,652
487,6	12853,367
488,1	12863,71
488,5	12888,852
489	12906,138
489,4	12919,167
489,9	12912,71
490,4	12909,995
490,8	12910,652
491,3	12897,395
491,7	12881,195
492,2	12854,195
492,6	12830,31
493,1	12799,395
493,5	12770,081
494	12739,652
494,4	12706,71
494,9	12665,224
495,3	12638,481
495,8	12583,881
496,2	12548,538
496,7	12503,252
497,1	12456,11
497,6	12405,681
498	12356,338
498,5	12303,081
498,9	12256,481
499,4	12199,738
499,8	12147,852
500,3	12090,852
500,7	12039,424
501,2	11988,824
501,6	11920,367
502,1	11854,624
502,5	11786,795
503	11721,081
503,4	11656,852
503,9	11583,081
504,3	11496,424
504,8	11412,995
505,2	11328,995
505,7	11252,881
506,1	11171,595
506,6	11078,995
507	10986,938
507,5	10904,652
507,9	10833,081
508,4	10753,995
508,8	10666,452
509,3	10574,31
509,7	10483,967
510,2	10396,652
510,6	10307,252
511,1	10224,024
511,5	10132,338
512	10048,31
512,4	9961,338
512,9	9867,852
513,3	9785,767
513,8	9695,138
514,2	9588,595
514,7	9498,767
515,1	9389,738
515,6	9294,538
516	9203,91
516,5	9115,081
516,9	9018,624
517,4	8925,252
517,8	8828,338
518,3	8735,881
518,7	8637,281
519,2	8551,938
519,6	8457,281
520,1	8366,652
520,5	8277,424
521	8187,938
521,4	8107,881
521,9	8021,71
522,3	7930,767
522,8	7834,852
523,2	7755,31
523,7	7667,881
524,1	7590,252
524,6	7488,052
525	7408,624
525,5	7324,852
525,9	7235,31
526,4	7149,424
526,8	7061,51
527,3	6978,795
527,7	6913,681
528,2	6832,624
528,6	6748,195
529,1	6667,252
529,5	6579,11
530	6512,224
530,4	6431,481
530,9	6346,51
531,3	6271,024
531,8	6205,024
532,2	6149,51
532,6	6088,052
533,1	6021,681
533,5	5958,395
534	5898,624
534,4	5834,024
534,9	5766,767
535,3	5696,11
535,8	5627,252
536,2	5558,652
536,7	5485,424
537,1	5423,481
537,6	5355,338
538	5289,338
538,5	5225,052
538,9	5160,71
539,4	5099,767
539,8	5046,681
540,3	4982,452
540,7	4927,11
541,2	4869,71
541,6	4811,252
542,1	4768,11
542,5	4714,252
543	4660,681
543,4	4614,938
543,9	4566,281
544,3	4522,252
544,8	4478,595
545,2	4423,395
545,7	4378,224
546,1	4330,738
546,5	4278,795
547	4231,395
547,4	4179,881
547,9	4133,167
548,3	4084,938
548,8	4039,967
549,2	3995,31
549,7	3957,881
550,1	3918,71
550,6	3883,252
551	3845,224
551,5	3809,252
551,9	3770,281
552,4	3737,738
552,8	3693,967
553,3	3658,767
553,7	3620,51
554,2	3582,852
554,6	3545,738
555,1	3513,624
555,5	3478,138
555,9	3446,481
556,4	3407,31
556,8	3365,995
557,3	3334,91
557,7	3308,995
558,2	3273,052
558,6	3240,795
559,1	3209,081
559,5	3183,195
560	3161,624
560,4	3130,224
560,9	3097,652
561,3	3071,424
561,8	3045,367
562,2	3016,995
562,7	2988,224
563,1	2960,11
563,6	2933,71
564	2909,652
564,4	2885,652
564,9	2850,91
565,3	2832,424
565,8	2806,738
566,2	2783,024
566,7	2751,767
567,1	2731,424
567,6	2707,338
568	2690,767
568,5	2663,11
568,9	2640,538
569,4	2615,252
569,8	2601,738
570,3	2575,081
570,7	2548,138
571,1	2526,995
571,6	2507,652
572	2486,538
572,5	2465,995
572,9	2447,338
573,4	2428,224
573,8	2413,11
574,3	2391,567
574,7	2367,367
575,2	2347,681
575,6	2330,367
576,1	2302,367
576,5	2277,852
576,9	2258,195
577,4	2240,167
577,8	2224,767
578,3	2200,881
578,7	2182,995
579,2	2170,024
579,6	2159,51
580,1	2139,881
580,5	2123,11
581	2111,252
581,4	2103,424
581,9	2083,224
582,3	2066,995
582,7	2042,71
583,2	2029,395
583,6	2009,11
584,1	1989,167
584,5	1974,481
585	1964,167
585,4	1946,367
585,9	1941,538
586,3	1923,91
586,8	1910,681
587,2	1894,424
587,6	1873,481
588,1	1859,71
588,5	1848,395
589	1830,367
589,4	1819,795
589,9	1808,167
590,3	1794,024
590,8	1781,481
591,2	1766,91
591,7	1760,052
592,1	1743,852
592,5	1732,224
593	1719,281
593,4	1708,51
593,9	1691,338
594,3	1675,852
594,8	1656,624
595,2	1650,852
595,7	1635,024
596,1	1624,195
596,6	1617,595
597	1620,167
597,4	1609,595
597,9	1597,51
598,3	1586,31
598,8	1578,595
599,2	1566,91
599,7	1551,281
600,1	1532,995
600,6	1526,995
601	1517,138
601,4	1506,824
601,9	1493,71
602,3	1487,052
602,8	1478,767
603,2	1475,252
603,7	1463,167
604,1	1460,595
604,6	1447,452
605	1443,567
605,4	1435,538
605,9	1427,338
606,3	1412,51
606,8	1401,252
607,2	1386,938
607,7	1381,538
608,1	1367,567
608,6	1357,452
609	1347,91
609,4	1343,452
609,9	1339,138
610,3	1333,452
610,8	1326,824
611,2	1319,967
611,7	1309,452
612,1	1300,252
612,6	1290,795
613	1284,624
613,4	1276,967
613,9	1265,367
614,3	1257,338
614,8	1246,481
615,2	1237,252
615,7	1230,338
616,1	1219,567
616,6	1203,538
617	1194,224
617,4	1184,081
617,9	1179,11
618,3	1181,167
618,8	1166,51
619,2	1160,852
619,7	1157,824
620,1	1145,367
620,5	1143,395
621	1131,195
621,4	1114,652
621,9	1113,738
622,3	1107,51
622,8	1094,024
623,2	1093,167
623,6	1078,71
624,1	1080,595
624,5	1074,824
625	1059,395
625,4	1048,195
625,9	1050,195
626,3	1043,31
626,8	1039,881
627,2	1029,538
627,6	1020,367
628,1	1018,081
628,5	1014,71
629	1006,11
629,4	993,452
629,9	987,338
630,3	977,11
630,7	976,738
631,2	970,367
631,6	960,481
632,1	953,738
632,5	952,224
633	944,338
633,4	942,195
633,8	930,652
634,3	918,338
634,7	916,452
635,2	908,881
635,6	900,71
636,1	898,024
636,5	889,71
636,9	886,881
637,4	885,995
637,8	874,824
638,3	868,795
638,7	864,995
639,2	858,31
639,6	848,767
640	836,938
640,5	833,195
640,9	830,595
641,4	822,567
641,8	814,738
642,2	807,167
642,7	807,767
643,1	809,052
643,6	801,538
644	797,624
644,5	792,481
644,9	789,91
645,3	783,281
645,8	780,138
646,2	774,795
646,7	770,195
647,1	765,71
647,6	766,538
648	758,567
648,4	753,938
648,9	745,767
649,3	732,081
649,8	727,967
650,2	716,995
650,6	709,138
651,1	707,652
651,5	704,167
652	700,052
652,4	700,167
652,9	696,624
653,3	692,91
653,7	687,595
654,2	684,567
654,6	681,11
655,1	674,624
655,5	673,71
655,9	669,538
656,4	670,452
656,8	668,567
657,3	660,167
657,7	650,995
658,2	648,481
658,6	640,024
659	630,167
659,5	624,11
659,9	621,824
660,4	619,767
660,8	622,024
661,2	614,881
661,7	609,938
662,1	610,652
662,6	600,681
663	598,224
663,4	592,567
663,9	583,967
664,3	581,595
664,8	581,824
665,2	579,452
665,6	579,567
666,1	569,31
666,5	569,367
667	562,71
667,4	560,252
667,9	553,624
668,3	548,795
668,7	547,424
669,2	545,31
669,6	537,367
670,1	540,852
670,5	530,767
670,9	529,281
671,4	520,881
671,8	517,481
672,3	513,624
672,7	510,424
673,1	503,138
673,6	508,824
674	504,252
674,5	508,881
674,9	500,567
675,3	495,624
675,8	493,081
676,2	495,395
676,7	486,567
677,1	485,824
677,5	480,138
678	481,824
678,4	484,195
678,9	480,224
679,3	470,224
679,7	466,51
680,2	461,167
680,6	454,138
681,1	445,252
681,5	434,795
681,9	429,281
682,4	429,367
682,8	428,967
683,3	422,967
683,7	422,395
684,1	419,51
684,6	421,052
685	418,852
685,5	413,052
685,9	407,167
686,3	407,624
686,8	404,71
687,2	407,51
687,7	403,824
688,1	407,424
688,5	405,881
689	404,167
689,4	405,967
689,9	403,052
690,3	401,281
690,7	393,081
691,2	389,252
691,6	387,881
692	385,31
692,5	377,624
692,9	376,252
693,4	373,767
693,8	376,338
694,2	366,595
694,7	364,538
695,1	361,824
695,6	357,652
696	356,081
696,4	347,567
696,9	344,967
697,3	344,624
697,8	340,938
698,2	337,71
698,6	336,852
699,1	327,824
699,5	327,881
699,9	329,11
700,4	328,481
700,8	331,624
701,3	330,138
701,7	327,738
702,1	329,395
702,6	327,652
703	318,252
703,5	316,224
703,9	308,31
704,3	309,767
704,8	308,452
705,2	303,967
705,6	295,052
706,1	299,652
706,5	297,624
707	295,652
707,4	292,767
707,8	292,367
708,3	291,138
708,7	294,195
709,2	288,738
709,6	285,081
710	283,852
710,5	281,795
710,9	277,11
711,3	277,681
711,8	277,338
712,2	280,595
712,7	281,738
713,1	277,852
713,5	274,738
714	273,538
714,4	268,424
714,8	267,424
715,3	261,652
715,7	253,938
716,2	248,881
716,6	251,167
717	250,938
717,5	250,138
717,9	247,338
718,3	244,281
718,8	245,567
719,2	247,281
719,7	246,167
720,1	240,624
720,5	240,252
721	236,595
721,4	238,71
721,8	238,71
722,3	236,395
722,7	223,881
723,2	223,11
723,6	220,852
724	218,081
724,5	210,424
724,9	206,938
725,3	206,167
725,8	209,224
726,2	205,595
726,7	205,395
727,1	204,11
727,5	205,367
728	205,224
728,4	202,652
728,8	203,338
729,3	201,538
729,7	198,624
730,1	195,538
730,6	194,424
731	197,195
731,5	199,281
731,9	197,51
732,3	199,881
732,8	205,081
733,2	207,681
733,6	206,281
734,1	197,367
734,5	189,767
734,9	189,11
735,4	188,624
735,8	184,51
736,3	183,024
736,7	181,995
737,1	186,024
737,6	187,938
738	185,824
738,4	185,967
738,9	182,367
739,3	176,367
739,7	175,51
740,2	172,338
740,6	171,852
741,1	170,91
741,5	169,081
741,9	166,31
742,4	169,395
742,8	167,51
743,2	166,71
743,7	165,681
744,1	162,738
744,5	161,652
745	161,395
745,4	158,167
745,8	160,424
746,3	160,51
746,7	161,338
747,2	161,738
747,6	160,538
748	161,024
748,5	161,71
748,9	156,424
749,3	158,024
749,8	152,395
750,2	148,881
750,6	146,881
751,1	147,624
751,5	147,395
751,9	148,738
752,4	145,995
752,8	146,767
753,3	149,11
753,7	146,795
754,1	142,767
754,6	140,452
755	138,624
755,4	134,624
755,9	134,224
756,3	130,681
756,7	127,71
757,2	129,281
757,6	127,11
758	125,281
758,5	123,481
758,9	123,367
759,3	124,367
759,8	129,71
760,2	130,51
760,6	130,538
761,1	130,51
761,5	133,624
761,9	132,452
762,4	131,11
762,8	131,852
763,3	129,195
763,7	129,395
764,1	126,195
764,6	125,795
765	122,11
765,4	122,167
765,9	115,967
766,3	111,595
766,7	114,195
767,2	115,852
767,6	111,224
768	111,881
768,5	106,51
768,9	101,881
769,3	104,595
769,8	101,967
770,2	105,281
770,6	106,624
771,1	110,824
771,5	112,967
771,9	114,252
772,4	117,967
772,8	113,052
773,2	109,224
773,7	109,138
774,1	109,224
774,5	112,195
775	113,424
775,4	106,995
775,8	107,224
776,3	104,852
776,7	106,738
777,1	106,538
777,6	102,71
778	100,024
778,4	101,081
778,9	102,881
779,3	103,624
779,7	99,31
780,2	95,567
780,6	97,595
781	102,738
781,5	100,138
781,9	99,452
782,3	99,138
782,8	98,538
783,2	92,281
783,6	85,795
784,1	79,767
784,5	79,967
784,9	84,024
785,4	81,624
785,8	81,538
786,2	84,224
786,7	90,881
787,1	92,167
787,5	93,281
788	85,995
788,4	85,281
788,8	81,252
789,3	82,367
789,7	82,167
790,1	83,852
790,6	79,624
791	83,595
791,4	82,138
791,9	84,452
792,3	82,052
792,7	81,51
793,2	78,395
793,6	80,938
794	75,252
794,5	79,738
794,9	81,481
795,3	84,11
795,8	77,738
796,2	78,138
796,6	73,052
797,1	72,281
797,5	69,252
797,9	68,081
798,4	66,71
798,8	64,595
799,2	65,91
799,7	68,624
800,1	73,052
800,5	70,452
801	68,538
801,4	64,395
801,8	67,11
802,2	66,967
802,7	66,024
803,1	60,767
803,5	63,367
804	61,738
804,4	62,252
804,8	61,852
805,3	57,138
805,7	56,252
806,1	59,995
806,6	59,424
807	62,681
807,4	58,71
807,9	57,024
808,3	59,281
808,7	57,995
809,2	56,881
809,6	56,167
810	53,967
810,4	62,51
810,9	60,595
811,3	60,71
811,7	59,595
812,2	63,367
812,6	61,224
813	60,567
813,5	58,081
813,9	62,052
814,3	61,424
814,8	64,224
815,2	57,967
815,6	54,481
816,1	56,567
816,5	53,195
816,9	52,767
817,3	50,31
817,8	55,567
818,2	54,881
818,6	58,31
819,1	57,195
819,5	60,652
819,9	56,681
820,4	57,624
820,8	47,11
821,2	51,31
821,7	50,852
822,1	52,938
822,5	48,31
822,9	54,452
823,4	54,281
823,8	56,024
824,2	53,624
824,7	51,967
825,1	48,138
825,5	53,795
826	48,91
826,4	51,367
826,8	55,138
827,3	57,652
827,7	59,824
828,1	59,624
828,5	55,138
829	52,338
829,4	52,081
829,8	48,081
830,3	46,71
830,7	42,967
831,1	41,338
831,6	38,91
832	36,31
832,4	35,252
832,8	37,824
833,3	33,138
833,7	39,052
834,1	35,795
834,6	37,51
835	43,91
835,4	45,052
835,8	38,91
836,3	40,395
836,7	34,138
837,1	38,481
837,6	35,252
838	34,824
838,4	29,481
838,9	36,195
839,3	37,51
839,7	36,31
840,1	32,481
840,6	35,824
841	32,738
841,4	31,595
841,9	29,081
842,3	27,195
842,7	31,795
843,1	34,624
843,6	33,424
844	37,081
844,4	40,452
844,9	38,11
845,3	36,224
845,7	38,481
846,2	38,252
846,6	38,795
847	31,595
847,4	32,995
847,9	31,738
848,3	35,567
848,7	31,138
849,2	34,081
849,6	35,995
850	37,11
850,4	35,195
850,9	36,338
851,3	31,138
851,7	30,395
852,2	25,51
852,6	25,052
853	32,624
853,4	35,367
853,9	31,652
854,3	32,452
854,7	29,595
855,2	30,795
855,6	26,224
856	18,395
856,4	17,624
856,9	22,395
857,3	22,995
857,7	28,538
858,2	28,938
858,6	34,31
859	33,31
859,4	30,738
859,9	28,681
860,3	29,824
860,7	26,052
861,1	27,367
861,6	22,938
862	25,881
862,4	25,51
862,9	27,424
863,3	23,681
863,7	20,595
864,1	16,767
864,6	17,824
865	17,91
865,4	17,224
865,9	18,11
866,3	24,481
866,7	30,567
867,1	33,71
867,6	31,452
868	31,995
868,4	29,624
868,8	29,024
869,3	23,767
869,7	20,738
870,1	20,367
870,6	20,795
871	11,081
871,4	14,081
871,8	13,395
872,3	14,51
872,7	16,91
873,1	14,738
873,5	17,424
874	30,31
874,4	29,138
874,8	27,681
875,3	28,995
875,7	26,31
876,1	23,538
876,5	22,767
877	18,052
877,4	19,795
877,8	21,91
878,2	22,481
878,7	25,024
879,1	29,938
879,5	30,967
879,9	33,481
880,4	24,652
880,8	25,938
881,2	24,138
881,7	26,252
882,1	23,681
882,5	21,424
882,9	20,138
883,4	27,538
883,8	23,967
884,2	24,281
884,6	21,995
885,1	25,652
885,5	28,424
885,9	32,11
886,3	29,452
886,8	28,11
887,2	25,595
887,6	20,424
888	13,995
888,5	13,424
888,9	8,052
889,3	7,681
889,8	10,138
890,2	8,852
890,6	12,338
891	14,024
891,5	9,71
891,9	11,052
892,3	11,452
892,7	15,167
893,2	20,995
893,6	18,167
894	19,11
894,4	21,51
894,9	21,595
895,3	23,452
895,7	18,51
896,1	14,195
896,6	13,31
897	12,881
897,4	8,852
897,8	7,424
898,3	11,824
898,7	6,624
899,1	8,481
899,5	9,481
900	9,51
900,4	12,652
900,8	12,195
901,2	5,91
901,7	10,167
902,1	9,967
902,5	13,224
902,9	16,367
903,4	17,967
903,8	15,681
904,2	19,71
904,6	18,252
905,1	21,338
905,5	17,538
905,9	15,452
906,3	15,51
906,8	18,624
907,2	13,195
907,6	12,71
908	8,367
908,5	10,224
908,9	9,338
909,3	7,252
909,7	5,395
910,2	6,338
910,6	9,424
911	10,852
911,4	5,338
911,9	9,852
912,3	7,51
912,7	8,224
913,1	2,738
913,6	2,452
914	1,31
914,4	1,195
914,8	-0,462
915,3	2,11
915,7	0,31
916,1	5,138
916,5	4,995
916,9	1,51
917,4	7,424
917,8	1,595
918,2	-2,09
918,6	-2,09
919,1	-0,69
919,5	1,824
919,9	6,967
920,3	9,081
920,8	14,224
921,2	19,652
921,6	20,795
922	19,424
922,5	15,852
922,9	12,852
923,3	14,338
923,7	10,738
924,2	8,481
924,6	10,395
925	11,51
925,4	11,338
925,8	14,71
926,3	13,51
926,7	14,51
927,1	17,567
927,5	16,767
928	12,824
928,4	12,281
928,8	12,652
929,2	9,938
929,7	10,081
930,1	3,881
930,5	2,967
930,9	8,481
931,3	9,024
931,8	4,538
932,2	6,024
932,6	7,595
933	7,795
933,5	8,138
933,9	7,767
934,3	8,51
934,7	11,052
935,2	11,738
935,6	10,538
936	10,738
936,4	8,452
936,8	5,281
937,3	5,652
937,7	5,481
938,1	-3,033
938,5	-6,376
939	-5,548
939,4	0,852
939,8	6,224
940,2	6,538
940,6	4,51
941,1	13,71
941,5	20,138
941,9	22,281
942,3	17,081
942,8	14,738
943,2	14,51
943,6	17,538
944	16,824
944,4	8,681
944,9	6,71
945,3	10,31
945,7	7,567
946,1	7,31
946,6	4,967
947	3,624
947,4	8,452
947,8	12,11
948,2	8,51
948,7	12,024
949,1	7,081
949,5	9,024
949,9	12,452
950,3	14,824
950,8	11,795
951,2	13,852
951,6	15,424
952	16,71
952,5	10,681
952,9	6,681
953,3	0,595
953,7	2,91
954,1	3,567
954,6	0,538
955	3,738
955,4	8,195
955,8	12,31
956,2	12,51
956,7	10,224
957,1	9,424
957,5	6,595
957,9	5,481
958,3	5,338
958,8	0,538
959,2	1,91
959,6	1,967
960	-2,233
960,5	-3,119
960,9	-4,548
961,3	-4,176
961,7	-5,833
962,1	-5,748
962,6	-5,348
963	-1,89
963,4	-0,119
963,8	0,624
964,2	-2,319
964,7	1,167
965,1	-0,833
965,5	-4,919
965,9	-4,576
966,3	-5,462
966,8	-3,433
967,2	1,31
967,6	-1,462
968	1,795
968,4	8,51
968,9	12,424
969,3	11,852
969,7	8,824
970,1	5,138
970,5	4,652
971	4,31
971,4	1,881
971,8	0,567
972,2	2,11
972,6	4,91
973,1	5,738
973,5	6,795
973,9	4,738
974,3	-0,719
974,7	-5,148
975,2	-4,176
975,6	-9,805
976	-5,833
976,4	-8,519
976,8	-7,49
977,3	-0,948
977,7	-3,776
978,1	-4,376
978,5	0,424
978,9	-4,205
979,4	-0,719
979,8	-0,776
980,2	-5,376
980,6	-2,29
981	-0,205
981,5	-1,605
981,9	-0,719
982,3	-4,005
982,7	-2,662
983,1	4,252
983,6	8,91
984	8,538
984,4	15,881
984,8	14,881
985,2	16,881
985,6	15,995
986,1	10,824
986,5	3,624
986,9	4,995
987,3	-2,49
987,7	0,91
988,2	5,681
988,6	6,881
989	7,481
989,4	13,595
989,8	8,881
990,3	9,167
990,7	3,595
991,1	-0,776
991,5	-1,633
991,9	1,138
992,3	-2,548
992,8	3,51
993,2	6,995
993,6	13,195
994	11,31
994,4	12,138
994,9	14,738
995,3	14,424
995,7	11,824
996,1	5,91
996,5	2,71
996,9	5,995
997,4	5,681
997,8	1,367
998,2	4,281
998,6	7,138
999	10,11
999,5	11,595
999,9	11,024
1000,3	13,852
1000,7	15,795
1001,1	15,281
1001,5	8,738
1002	11,167
1002,4	9,624
1002,8	12,281
1003,2	11,281
1003,6	9,31
1004	9,338
1004,5	5,424
1004,9	3,681
1005,3	-2,29
1005,7	-6,662
1006,1	-11,233
1006,6	-10,919
1007	-11,148
1007,4	-0,89
1007,8	-3,462
1008,2	1,424
1008,6	-0,09
1009,1	-3,148
1009,5	-1,719
1009,9	2,195
1010,3	-0,405
1010,7	5,281
1011,1	9,938
1011,6	8,281
1012	14,11
1012,4	13,681
1012,8	5,681
1013,2	8,081
1013,6	6,681
1014,1	9,595
1014,5	12,567
1014,9	13,767
1015,3	14,852
1015,7	15,424
1016,1	13,567
1016,6	12,252
1017	6,195
1017,4	5,595
1017,8	-0,09
1018,2	-7,176
1018,6	0,252
1019,1	-3,262
1019,5	-2,748
1019,9	2,938
1020,3	5,595
1020,7	7,481
1021,1	10,71
1021,6	6,395
1022	4,538
1022,4	8,052
1022,8	3,052
1023,2	-0,49
1023,6	-3,262
1024,1	0,852
1024,5	4,395
1024,9	11,795
1025,3	6,052
1025,7	5,31
1026,1	9,91
1026,6	15,367
1027	7,71
1027,4	3,624
1027,8	-2,376
1028,2	3,852
1028,6	4,367
1029	-0,29
1029,5	-1,09
1029,9	2,452
1030,3	4,081
1030,7	4,538
1031,1	-0,376
1031,5	-4,119
1032	-0,805
1032,4	-1,948
1032,8	-0,948
1033,2	-0,576
1033,6	0,824
1034	4,795
1034,4	13,052
1034,9	9,652
1035,3	13,624
1035,7	12,71
1036,1	11,767
1036,5	7,738
1036,9	1,367
1037,4	-4,176
1037,8	-3,119
1038,2	-8,033
1038,6	-8,405
1039	-10,805
1039,4	-8,319
1039,8	-3,976
1040,3	-2,976
1040,7	-1,662
1041,1	1,538
1041,5	1,138
1041,9	2,767
1042,3	7,224
1042,7	3,167
1043,2	3,281
1043,6	8,881
1044	7,452
1044,4	5,767
1044,8	3,51
1045,2	3,91
1045,6	10,967
1046,1	15,367
1046,5	10,052
1046,9	6,767
1047,3	7,71
1047,7	7,91
1048,1	1,138
1048,5	-2,319
1049	-5,233
1049,4	-5,233
1049,8	1,995
1050,2	4,681
1050,6	10,367
1051	16,995
1051,4	11,738
1051,9	15,11
1052,3	10,938
1052,7	9,195
1053,1	12,538
1053,5	10,595
1053,9	6,567
1054,3	13,852
1054,8	12,481
1055,2	17,11
1055,6	13,624
1056	8,481
1056,4	6,624
1056,8	7,281
1057,2	3,595
1057,6	0,138
1058,1	-2,148
1058,5	-0,519
1058,9	3,795
1059,3	9,767
1059,7	3,738
1060,1	5,538
1060,5	1,395
1061	4,195
1061,4	10,252
1061,8	6,252
1062,2	3,11
1062,6	7,224
1063	7,024
1063,4	10,11
1063,8	7,081
1064,3	-1,005
1064,7	-1,719
1065,1	-3,262
1065,5	-0,29
1065,9	-4,262
1066,3	-7,69
1066,7	-7,862
1067,1	-8,462
1067,6	-4,319
1068	-10,405
1068,4	-6,69
1068,8	-2,833
1069,2	1,624
1069,6	5,452
1070	10,652
1070,4	7,395
1070,9	11,938
1071,3	9,652
1071,7	9,424
1072,1	9,31
1072,5	11,538
1072,9	10,024
1073,3	10,367
1073,7	7,252
1074,2	8,052
1074,6	7,138
1075	7,424
1075,4	7,452
1075,8	9,595
1076,2	9,138
1076,6	7,567
1077	1,767
1077,5	0,795
1077,9	3,852
1078,3	-2,262
1078,7	-2,176
1079,1	1,024
1079,5	-1,662
1079,9	8,31
1080,3	10,681
1080,7	9,195
1081,2	12,51
1081,6	11,538
1082	9,11
1082,4	16,681
1082,8	7,31
1083,2	-0,805
1083,6	0,71
1084	-4,176
1084,5	-6,119
1084,9	-8,29
1085,3	-9,205
1085,7	-11,319
1086,1	-11,176
1086,5	-9,062
1086,9	-3,005
1087,3	-1,376
1087,7	5,995
1088,2	4,71
1088,6	7,424
1089	10,395
1089,4	5,51
1089,8	4,824
1090,2	3,51
1090,6	-1,976
1091	0,967
1091,4	2,395
1091,9	8,51
1092,3	5,938
1092,7	5,024
1093,1	1,224
1093,5	0,567
1093,9	3,081
1094,3	3,224
1094,7	-0,062
1095,1	-0,576
1095,5	-0,833
1096	-1,09
1096,4	2,424
1096,8	-3,805
1097,2	-1,262
1097,6	-1,176
1098	-0,119
1098,4	0,31
1098,8	4,081
1099,2	0,967
1099,6	4,224
1100,1	1,367
1100,5	0,824
1100,9	0,852
1101,3	-0,805
1101,7	0,738
1102,1	4,281
1102,5	2,195
1102,9	0,967
1103,3	0,624
1103,7	-0,462
1104,2	1,138
1104,6	0,195
1105	0,91
1105,4	5,452
1105,8	6,967
1106,2	7,681
1106,6	9,081
1107	7,71
1107,4	7,1
1107,8	3,687
1108,3	-0,233
