Data from Subt2_272.txt Node
Date: Sat Aug 26 19:04:28 MSK 2023
User: vat
Spectrometer: MAYP114033
Trigger mode: 0
Integration Time (sec): 1,000000E0
Scans to average: 5
Electric dark correction enabled: true
Nonlinearity correction enabled: false
Boxcar width: 3
XAxis mode: Wavelengths
Number of Pixels in Spectrum: 2068
>>>>>Begin Spectral Data<<<<<
199,4	-0,25
199,9	2,88
200,4	1,367
200,8	4,8
201,3	3,286
201,8	5,371
202,2	2,029
202,7	5,971
203,2	1,229
203,6	3,6
204,1	-0,886
204,6	-1,029
205	-0,286
205,5	5,714
206	2,943
206,4	4,314
206,9	2,2
207,4	5,029
207,8	9,086
208,3	5,029
208,8	1,457
209,2	2,086
209,7	3,743
210,2	6,457
210,6	3,657
211,1	6,086
211,5	5,143
212	8,857
212,5	7,943
212,9	6,543
213,4	4,714
213,9	7
214,3	3,286
214,8	6,086
215,3	2,857
215,7	7
216,2	10,971
216,7	12,6
217,1	12
217,6	16,171
218,1	18,429
218,5	18,086
219	7,943
219,5	11,286
219,9	9,514
220,4	14,4
220,9	8,971
221,3	8,343
221,8	10,971
222,3	15,657
222,7	14,486
223,2	9,8
223,6	5,686
224,1	5,829
224,6	7,2
225	0,943
225,5	1,029
226	-3,114
226,4	1,029
226,9	-0,343
227,4	0,229
227,8	-5,686
228,3	-2,457
228,8	0,314
229,2	-2,114
229,7	0,314
230,2	3,857
230,6	7,486
231,1	18,086
231,5	19,429
232	18,657
232,5	21,371
232,9	21,286
233,4	18,286
233,9	14,914
234,3	8,8
234,8	7,143
235,3	4,429
235,7	3,943
236,2	2,571
236,7	4,657
237,1	8,2
237,6	2,943
238,1	2,657
238,5	1
239	0,743
239,4	5,171
239,9	1,686
240,4	-1,2
240,8	5,943
241,3	2,714
241,8	2,543
242,2	7,6
242,7	1,314
243,2	4,8
243,6	3,114
244,1	4,657
244,6	11,029
245	13,286
245,5	11,286
245,9	10,314
246,4	5,514
246,9	8,314
247,3	7,114
247,8	5,6
248,3	4,4
248,7	1,057
249,2	3,171
249,7	2,714
250,1	4,057
250,6	0,343
251	0
251,5	3,686
252	4,343
252,4	8,8
252,9	7,371
253,4	1,629
253,8	2,543
254,3	3,314
254,8	5,029
255,2	-2,429
255,7	-6,971
256,1	-0,086
256,6	5,429
257,1	8,029
257,5	6,057
258	4,943
258,5	14,457
258,9	14,429
259,4	11,429
259,9	10,171
260,3	7,8
260,8	6,343
261,2	5,2
261,7	3,171
262,2	-1,914
262,6	-4,457
263,1	-4,114
263,6	-3,571
264	2,629
264,5	3,971
264,9	1,229
265,4	9,486
265,9	11,2
266,3	9,029
266,8	10,086
267,3	5,086
267,7	4,514
268,2	5,629
268,7	4,6
269,1	5,771
269,6	6,829
270	7,657
270,5	6,486
271	6,943
271,4	8,829
271,9	4,429
272,4	8,429
272,8	10,114
273,3	5,771
273,7	12,171
274,2	12,4
274,7	12,171
275,1	14,314
275,6	12,714
276,1	8,571
276,5	9,171
277	4,2
277,4	1,314
277,9	5,657
278,4	8,971
278,8	6,2
279,3	8,6
279,8	10,314
280,2	12,2
280,7	12,943
281,1	6,514
281,6	7,314
282,1	6,371
282,5	6,2
283	6,457
283,4	5,6
283,9	10,057
284,4	15,886
284,8	11,143
285,3	9,943
285,8	6,686
286,2	5,829
286,7	5,343
287,1	-2,086
287,6	-6,343
288,1	-6,714
288,5	-2,914
289	-2,171
289,5	-2,6
289,9	-3,429
290,4	-1,486
290,8	-0,086
291,3	2,314
291,8	0,943
292,2	1
292,7	2,057
293,1	2,8
293,6	5,886
294,1	3,771
294,5	6,229
295	11,286
295,5	14,114
295,9	15
296,4	13,057
296,8	14,486
297,3	14,286
297,8	9,571
298,2	-0,229
298,7	3,486
299,1	0,229
299,6	0,486
300,1	0,457
300,5	3,171
301	7,229
301,5	14,886
301,9	10,343
302,4	9,143
302,8	10,714
303,3	7,057
303,8	3,971
304,2	-1,486
304,7	-2,571
305,1	-8,343
305,6	-7,4
306,1	0,429
306,5	2,286
307	8,743
307,4	15,286
307,9	13,4
308,4	13,629
308,8	12,057
309,3	4,429
309,8	3,629
310,2	-1,114
310,7	-8,343
311,1	-9,4
311,6	-4,457
312,1	-1,2
312,5	3,4
313	2,943
313,4	2,743
313,9	6,543
314,4	8,743
314,8	7,286
315,3	8,571
315,7	5
316,2	1,829
316,7	2,171
317,1	4,914
317,6	5,571
318	14,371
318,5	12,086
319	14,457
319,4	19,486
319,9	23,657
320,3	23,4
320,8	21,4
321,3	16,429
321,7	16,771
322,2	13,571
322,6	12,971
323,1	5,114
323,6	1,486
324	-3,314
324,5	-8,886
324,9	-6,514
325,4	-8,143
325,9	-6,229
326,3	-2,057
326,8	1,4
327,2	4,6
327,7	10,114
328,2	7,686
328,6	13,886
329,1	9,657
329,5	12,171
330	10,114
330,5	12,429
330,9	9,8
331,4	12
331,8	7,6
332,3	10,829
332,8	8,571
333,2	7,629
333,7	9,943
334,1	11
334,6	7,057
335,1	7,343
335,5	5,971
336	4,2
336,4	6,771
336,9	7,943
337,4	10,571
337,8	12,6
338,3	12,2
338,7	14,2
339,2	13,114
339,7	13,914
340,1	8,6
340,6	4,029
341	4,686
341,5	7
342	3,057
342,4	3,343
342,9	0,343
343,3	4,114
343,8	4,857
344,2	5,086
344,7	7,286
345,2	8,743
345,6	6,686
346,1	5,971
346,5	-0,314
347	-1,571
347,5	-4,971
347,9	-4,714
348,4	-7,114
348,8	-2,971
349,3	1,714
349,8	6,914
350,2	15,2
350,7	16,686
351,1	12,286
351,6	15,457
352	17,486
352,5	19,429
353	29,029
353,4	33,343
353,9	44,914
354,3	56,6
354,8	68,4
355,3	85,6
355,7	100,857
356,2	112,829
356,6	131,314
357,1	154,657
357,5	183,286
358	215,171
358,5	249,2
358,9	285,914
359,4	329,571
359,8	374,143
360,3	433,371
360,8	488,114
361,2	556,457
361,7	628,771
362,1	719,171
362,6	815,914
363	919,114
363,5	1019,886
364	1142,657
364,4	1258,2
364,9	1377,029
365,3	1491,343
365,8	1597,429
366,3	1698,029
366,7	1795,514
367,2	1874,6
367,6	1944,8
368,1	2005,429
368,5	2043,257
369	2061,543
369,5	2070,029
369,9	2051,543
370,4	2020,857
370,8	1978,686
371,3	1920,6
371,7	1852,886
372,2	1781,514
372,7	1702,514
373,1	1618,971
373,6	1531,457
374	1439,171
374,5	1341
374,9	1249,6
375,4	1166
375,9	1080,486
376,3	1001,229
376,8	922,886
377,2	849,857
377,7	786,857
378,2	723,657
378,6	664,257
379,1	607,486
379,5	562,057
380	519,486
380,4	479,429
380,9	439,114
381,4	402,343
381,8	371,8
382,3	352,029
382,7	322,743
383,2	304,714
383,6	284,657
384,1	264,543
384,6	252,857
385	233,829
385,5	213,514
385,9	197,657
386,4	180,971
386,8	171,829
387,3	164,4
387,7	152,286
388,2	148,829
388,7	141,286
389,1	139,771
389,6	129,486
390	121,943
390,5	116,914
390,9	114,543
391,4	106,114
391,9	97,657
392,3	91,343
392,8	87,4
393,2	79,114
393,7	71,2
394,1	62,4
394,6	57,457
395,1	57,029
395,5	51,143
396	47,4
396,4	47,714
396,9	45,571
397,3	48,571
397,8	48,171
398,2	45,971
398,7	48,171
399,2	51,486
399,6	50,2
400,1	48,886
400,5	38,886
401	38,686
401,4	37,029
401,9	37,114
402,4	35,857
402,8	32,943
403,3	37,914
403,7	37,686
404,2	40,257
404,6	41,657
405,1	36,571
405,5	30,657
406	32,943
406,5	30,657
406,9	41,486
407,4	40,143
407,8	42,514
408,3	49,029
408,7	50,6
409,2	52,743
409,6	58,257
410,1	56,4
410,6	56,857
411	57,629
411,5	55,886
411,9	61,343
412,4	62,429
412,8	59,714
413,3	60,257
413,7	62,914
414,2	63,514
414,7	70,343
415,1	78,886
415,6	84,657
416	90,857
416,5	96,514
416,9	96,257
417,4	101,029
417,8	103,543
418,3	104,6
418,8	105,314
419,2	102,286
419,7	101,743
420,1	102,771
420,6	99,086
421	96,914
421,5	98,2
421,9	100,657
422,4	101,257
422,8	102,057
423,3	101,743
423,8	104,714
424,2	102,114
424,7	95,943
425,1	93,343
425,6	99,257
426	96,886
426,5	100,171
426,9	101,971
427,4	99,057
427,9	96,486
428,3	95,086
428,8	88,229
429,2	86,457
429,7	80,571
430,1	76,457
430,6	75,657
431	77,686
431,5	79,486
431,9	75,257
432,4	73,943
432,8	78,029
433,3	78,143
433,8	83,486
434,2	83,514
434,7	83,114
435,1	88,686
435,6	92,771
436	90,429
436,5	97,343
436,9	93,314
437,4	93,6
437,8	95,429
438,3	96,6
438,8	98,171
439,2	107,429
439,7	102,057
440,1	110,771
440,6	119,971
441	116,314
441,5	115,914
441,9	121,8
442,4	118,229
442,8	122,686
443,3	123,429
443,7	119,229
444,2	125,886
444,7	132,143
445,1	135,629
445,6	139,4
446	146,171
446,5	144
446,9	145
447,4	146,571
447,8	151,771
448,3	154,771
448,7	160,514
449,2	162,943
449,6	173,4
450,1	178,914
450,6	193,486
451	197,143
451,5	196,657
451,9	205,943
452,4	213,914
452,8	219,229
453,3	231,171
453,7	229,143
454,2	238,943
454,6	247,343
455,1	251,2
455,5	255,429
456	263,286
456,4	266,429
456,9	275,686
457,3	282,514
457,8	286,771
458,3	297,829
458,7	305,714
459,2	314,286
459,6	322,571
460,1	330,829
460,5	337,686
461	357,6
461,4	359,857
461,9	368,543
462,3	379,229
462,8	391,714
463,2	398,886
463,7	410,686
464,1	419,343
464,6	437,543
465	452,343
465,5	465,486
466	475,743
466,4	491,4
466,9	510,343
467,3	520,029
467,8	530,743
468,2	542,257
468,7	551,114
469,1	569,686
469,6	581,943
470	587,714
470,5	600,143
470,9	609,229
471,4	614,2
471,8	625,171
472,3	634,257
472,7	648,171
473,2	656,714
473,6	665,429
474,1	681,8
474,5	702
475	716,686
475,4	728,629
475,9	742
476,4	754,686
476,8	770,886
477,3	780,429
477,7	793,886
478,2	808,171
478,6	817,714
479,1	824,543
479,5	836,686
480	846,457
480,4	863,657
480,9	870,686
481,3	876,629
481,8	886,086
482,2	895,514
482,7	907,886
483,1	919,143
483,6	921,343
484	930,743
484,5	944,286
484,9	954,2
485,4	967,629
485,8	974,914
486,3	984,829
486,7	993,886
487,2	1002,171
487,6	1007,857
488,1	1014,714
488,5	1017,914
489	1027,914
489,4	1036,4
489,9	1042,571
490,4	1050,771
490,8	1059,429
491,3	1073,114
491,7	1079,229
492,2	1086,971
492,6	1091,714
493,1	1095,457
493,5	1097,171
494	1097,657
494,4	1098,714
494,9	1107,829
495,3	1115,114
495,8	1116,886
496,2	1127,714
496,7	1131,057
497,1	1143,6
497,6	1151,714
498	1157,4
498,5	1159,229
498,9	1163,886
499,4	1166,743
499,8	1183,686
500,3	1185,6
500,7	1184,257
501,2	1184,514
501,6	1187,629
502,1	1198,343
502,5	1205,314
503	1203,229
503,4	1207,257
503,9	1213,143
504,3	1219,257
504,8	1226,686
505,2	1228,114
505,7	1228,286
506,1	1237,971
506,6	1240,829
507	1245,571
507,5	1249,6
507,9	1251,314
508,4	1256,086
508,8	1259,4
509,3	1257,743
509,7	1261,686
510,2	1264,657
510,6	1265,514
511,1	1271,629
511,5	1272,971
512	1276,343
512,4	1279,629
512,9	1282,914
513,3	1292,4
513,8	1298,686
514,2	1300,914
514,7	1303,486
515,1	1305,829
515,6	1309,543
516	1309,829
516,5	1314,314
516,9	1322,914
517,4	1326,6
517,8	1337,829
518,3	1346,086
518,7	1349,629
519,2	1356,229
519,6	1352,514
520,1	1354,2
520,5	1360,8
521	1357,571
521,4	1364,114
521,9	1368,914
522,3	1375,829
522,8	1384,486
523,2	1393,857
523,7	1396,057
524,1	1404,714
524,6	1404,857
525	1408,429
525,5	1414,857
525,9	1421,743
526,4	1417,029
526,8	1425,457
527,3	1428,771
527,7	1439,543
528,2	1453,371
528,6	1452,829
529,1	1455,686
529,5	1469,6
530	1475,2
530,4	1479,714
530,9	1479,143
531,3	1479,771
531,8	1488,657
532,2	1500,371
532,6	1496,486
533,1	1493,629
533,5	1497,829
534	1505,2
534,4	1508,229
534,9	1517,029
535,3	1514,371
535,8	1521,857
536,2	1536,743
536,7	1551,486
537,1	1562,743
537,6	1571,971
538	1584,314
538,5	1594,571
538,9	1599,543
539,4	1604,8
539,8	1602,429
540,3	1612,743
540,7	1615,8
541,2	1609,657
541,6	1614,343
542,1	1628,571
542,5	1631,743
543	1639,514
543,4	1635,971
543,9	1643,343
544,3	1655,657
544,8	1660,514
545,2	1664,029
545,7	1671,086
546,1	1680,314
546,5	1693,686
547	1695,086
547,4	1698,457
547,9	1703,686
548,3	1711,657
548,8	1720,857
549,2	1725,657
549,7	1726,343
550,1	1739,771
550,6	1746,343
551	1749,286
551,5	1749,743
551,9	1751,714
552,4	1764,257
552,8	1769,029
553,3	1766,914
553,7	1768,143
554,2	1779,486
554,6	1785,057
555,1	1789,829
555,5	1785,543
555,9	1790,229
556,4	1795,6
556,8	1796,371
557,3	1800,629
557,7	1808,8
558,2	1813,114
558,6	1816,771
559,1	1820,543
559,5	1826,257
560	1834,6
560,4	1841,171
560,9	1839,343
561,3	1840,4
561,8	1848,886
562,2	1852,514
562,7	1857,686
563,1	1860,057
563,6	1860,343
564	1866,886
564,4	1872,086
564,9	1872,229
565,3	1882,4
565,8	1885,343
566,2	1892,743
566,7	1895,457
567,1	1903,171
567,6	1906,629
568	1905,943
568,5	1895,286
568,9	1898,971
569,4	1897
569,8	1898,543
570,3	1892,2
570,7	1885,571
571,1	1889,886
571,6	1896,4
572	1896,971
572,5	1904,171
572,9	1902,371
573,4	1906,514
573,8	1917,571
574,3	1915,6
574,7	1919
575,2	1913,086
575,6	1911,657
576,1	1917,629
576,5	1921,714
576,9	1914,371
577,4	1914,429
577,8	1913,143
578,3	1917,343
578,7	1913,829
579,2	1913,057
579,6	1907,486
580,1	1908,486
580,5	1910,486
581	1913,2
581,4	1912,4
581,9	1913,257
582,3	1910,343
582,7	1915,114
583,2	1916,943
583,6	1911,571
584,1	1907,771
584,5	1905,914
585	1905,743
585,4	1894,543
585,9	1885,143
586,3	1882,657
586,8	1887,429
587,2	1886,171
587,6	1885,857
588,1	1883,457
588,5	1889,114
589	1891,857
589,4	1888,257
589,9	1882,8
590,3	1875,514
590,8	1871,371
591,2	1871,057
591,7	1872,771
592,1	1865,286
592,5	1865,743
593	1862,829
593,4	1861,229
593,9	1856,914
594,3	1848,8
594,8	1838,486
595,2	1839
595,7	1834,343
596,1	1825,886
596,6	1825,343
597	1824,2
597,4	1822,514
597,9	1819,229
598,3	1816,943
598,8	1813,371
599,2	1813,971
599,7	1814,057
600,1	1807,286
600,6	1806,714
601	1805,771
601,4	1804,829
601,9	1801,143
602,3	1797,057
602,8	1785,829
603,2	1783,8
603,7	1777,4
604,1	1772,229
604,6	1763,686
605	1756,886
605,4	1757
605,9	1756,114
606,3	1745,257
606,8	1732,057
607,2	1725,457
607,7	1719,971
608,1	1718,971
608,6	1712,543
609	1709,629
609,4	1712,543
609,9	1720,114
610,3	1717,057
610,8	1713,743
611,2	1707,2
611,7	1693,543
612,1	1686,057
612,6	1679,829
613	1668,857
613,4	1660,886
613,9	1656,429
614,3	1647,6
614,8	1650,657
615,2	1643,057
615,7	1641,086
616,1	1635,257
616,6	1626,971
617	1613,457
617,4	1608,8
617,9	1601,743
618,3	1596,886
618,8	1591,114
619,2	1580,943
619,7	1583,2
620,1	1583,743
620,5	1582
621	1572,171
621,4	1563,143
621,9	1549,714
622,3	1546,971
622,8	1530
623,2	1515,857
623,6	1503,4
624,1	1498,971
624,5	1491,771
625	1490,886
625,4	1487,143
625,9	1484,029
626,3	1479,2
626,8	1471,771
627,2	1460,971
627,6	1450,6
628,1	1436,714
628,5	1428,971
629	1416,629
629,4	1407,886
629,9	1402,514
630,3	1394,914
630,7	1391,257
631,2	1390,229
631,6	1383,829
632,1	1386,257
632,5	1382,543
633	1375,171
633,4	1370,771
633,8	1364,371
634,3	1352,886
634,7	1338,2
635,2	1328,943
635,6	1326,086
636,1	1321,8
636,5	1309,886
636,9	1296,771
637,4	1290,686
637,8	1285,857
638,3	1274,314
638,7	1261,114
639,2	1251,429
639,6	1246,771
640	1244,086
640,5	1239,657
640,9	1233,971
641,4	1232,457
641,8	1229,714
642,2	1223
642,7	1222,971
643,1	1224,286
643,6	1217,114
644	1212,629
644,5	1207,486
644,9	1202,371
645,3	1195
645,8	1186,057
646,2	1178,371
646,7	1175,771
647,1	1168,114
647,6	1165,543
648	1163,086
648,4	1156,086
648,9	1151,686
649,3	1138,8
649,8	1132,143
650,2	1127,457
650,6	1118,971
651,1	1108,229
651,5	1107,943
652	1102
652,4	1092,743
652,9	1084,343
653,3	1076,143
653,7	1068,514
654,2	1065,771
654,6	1054,543
655,1	1046,343
655,5	1051,686
655,9	1049,114
656,4	1046,629
656,8	1040,143
657,3	1033
657,7	1034,571
658,2	1029,229
658,6	1020,543
659	1008,286
659,5	1000,6
659,9	992,371
660,4	982,686
660,8	969,829
661,2	965,086
661,7	959,771
662,1	955,629
662,6	947,2
663	946,514
663,4	942,543
663,9	939,657
664,3	933,657
664,8	921,171
665,2	913,6
665,6	907,571
666,1	901,343
666,5	896,2
667	887,743
667,4	877,6
667,9	878,657
668,3	872,257
668,7	864,371
669,2	856,171
669,6	850,114
670,1	846,743
670,5	841,971
670,9	835,429
671,4	831,514
671,8	834,057
672,3	833,457
672,7	831,914
673,1	822,8
673,6	818,029
674	813,714
674,5	807,2
674,9	795,2
675,3	784,771
675,8	775,543
676,2	770,429
676,7	763,543
677,1	757,286
677,5	755,629
678	756,886
678,4	754,914
678,9	750,886
679,3	748,8
679,7	745,743
680,2	733,171
680,6	724,2
681,1	714,371
681,5	711,143
681,9	705,629
682,4	702,057
682,8	700
683,3	704,886
683,7	705,8
684,1	701,371
684,6	694,714
685	690,2
685,5	684,8
685,9	675,857
686,3	667,086
686,8	661,571
687,2	662,343
687,7	654,143
688,1	647,286
688,5	646,543
689	647,629
689,4	645,343
689,9	639,686
690,3	632,114
690,7	631,857
691,2	631,657
691,6	622,886
692	614,857
692,5	609,4
692,9	605,714
693,4	600
693,8	594
694,2	585,514
694,7	583,571
695,1	581,771
695,6	579,571
696	576,371
696,4	571,914
696,9	562,914
697,3	560,486
697,8	555,971
698,2	550,086
698,6	548
699,1	543,829
699,5	546,714
699,9	545,743
700,4	539,914
700,8	539,571
701,3	537,4
701,7	531,514
702,1	524,2
702,6	515,714
703	516,029
703,5	516,086
703,9	509,457
704,3	505,086
704,8	500,257
705,2	502,629
705,6	498,086
706,1	493,2
706,5	484,657
707	483,714
707,4	480,4
707,8	474,914
708,3	477,429
708,7	478,314
709,2	471,486
709,6	471,743
710	468,571
710,5	464,029
710,9	463,571
711,3	454,143
711,8	450,914
712,2	449,143
712,7	443
713,1	440,086
713,5	442,457
714	439,886
714,4	434,686
714,8	433,743
715,3	433,457
715,7	438,057
716,2	429,257
716,6	425,086
717	420,629
717,5	416,314
717,9	413,486
718,3	410,371
718,8	405,314
719,2	404,314
719,7	400,371
720,1	402,171
720,5	406
721	399,371
721,4	395,229
721,8	393,429
722,3	384,886
722,7	386,829
723,2	377,657
723,6	363,914
724	362,914
724,5	359,229
724,9	355,057
725,3	359,343
725,8	354,571
726,2	352,257
726,7	352,886
727,1	347,829
727,5	349,943
728	346,2
728,4	344,2
728,8	339,029
729,3	337,486
729,7	335,914
730,1	335,171
730,6	332,971
731	329,829
731,5	324,914
731,9	323,457
732,3	324,771
732,8	324,857
733,2	323,343
733,6	320,2
734,1	319,029
734,5	321,343
734,9	322,629
735,4	320,486
735,8	317,857
736,3	320,114
736,7	317,171
737,1	315,886
737,6	309,429
738	299,143
738,4	291,686
738,9	293,829
739,3	288
739,7	287,514
740,2	286,857
740,6	290,543
741,1	300,029
741,5	302,029
741,9	297,029
742,4	298,2
742,8	296,771
743,2	292,743
743,7	287,2
744,1	275,2
744,5	268,257
745	261,6
745,4	256,914
745,8	255,371
746,3	255,657
746,7	254,314
747,2	254,6
747,6	262,714
748	267
748,5	266,257
748,9	260,686
749,3	257,286
749,8	256,114
750,2	256,314
750,6	249,343
751,1	247,657
751,5	246,029
751,9	248,429
752,4	248,371
752,8	245,429
753,3	242,8
753,7	246
754,1	243,343
754,6	235,943
755	231,857
755,4	232,8
755,9	233,914
756,3	230,971
756,7	224,2
757,2	220,771
757,6	225,686
758	223,486
758,5	215,543
758,9	215,2
759,3	216,571
759,8	216
760,2	213,829
760,6	209,514
761,1	208,257
761,5	207,029
761,9	198,229
762,4	195,8
762,8	195,314
763,3	196,8
763,7	195,886
764,1	196,514
764,6	198,657
765	201,314
765,4	201,857
765,9	199
766,3	197,571
766,7	195,6
767,2	193,686
767,6	195,057
768	193,971
768,5	190,771
768,9	193,343
769,3	191,857
769,8	189,114
770,2	191,114
770,6	187,686
771,1	188,343
771,5	187,429
771,9	183,143
772,4	184,143
772,8	184
773,2	182,486
773,7	178,343
774,1	175,2
774,5	173,4
775	175,514
775,4	173,571
775,8	172,971
776,3	167,886
776,7	169,686
777,1	169,314
777,6	169
778	169,771
778,4	164,314
778,9	162,971
779,3	164,486
779,7	165,514
780,2	166,8
780,6	163,914
781	156,543
781,5	159,229
781,9	160,4
782,3	157,229
782,8	157,543
783,2	151,086
783,6	154,286
784,1	156,057
784,5	152,086
784,9	147,914
785,4	149,343
785,8	148,857
786,2	152,543
786,7	147,914
787,1	145,371
787,5	149,771
788	150,657
788,4	151,143
788,8	145,829
789,3	142,943
789,7	142,971
790,1	141,4
790,6	138,629
791	134,514
791,4	133,4
791,9	127,543
792,3	126,086
792,7	129,914
793,2	125,714
793,6	125,114
794	126,514
794,5	120,314
794,9	126,314
795,3	128,086
795,8	122,771
796,2	127,829
796,6	125,686
797,1	125,686
797,5	123,657
797,9	118,429
798,4	115,286
798,8	115,543
799,2	110,086
799,7	114,257
800,1	112,143
800,5	116,057
801	119,857
801,4	117,514
801,8	114,2
802,2	113,829
802,7	105,514
803,1	103,229
803,5	103,2
804	99,114
804,4	101,571
804,8	102,571
805,3	104,571
805,7	109,429
806,1	110,971
806,6	110,857
807	111,686
807,4	106,771
807,9	106,714
808,3	108,229
808,7	104,486
809,2	106,029
809,6	104,143
810	99,6
810,4	100,543
810,9	100,886
811,3	98,886
811,7	102,229
812,2	106
812,6	101,914
813	107,543
813,5	109,114
813,9	103,771
814,3	99,2
814,8	93,343
815,2	82,943
815,6	84,029
816,1	82,286
816,5	82
816,9	81,571
817,3	85,114
817,8	89
818,2	94,857
818,6	92,229
819,1	88,886
819,5	86,629
819,9	89,714
820,4	88,057
820,8	81,771
821,2	76,771
821,7	76,914
822,1	79,771
822,5	83,857
822,9	83,6
823,4	80,857
823,8	83,914
824,2	84,371
824,7	82,171
825,1	73,086
825,5	68,771
826	63,143
826,4	63,286
826,8	63,429
827,3	64,229
827,7	65,514
828,1	71,257
828,5	68,257
829	70,543
829,4	68,029
829,8	60,486
830,3	60,371
830,7	54,857
831,1	56,257
831,6	58,886
832	57,714
832,4	60,857
832,8	67,057
833,3	65,2
833,7	67,6
834,1	64,257
834,6	61,543
835	61,429
835,4	61,314
835,8	56,543
836,3	55,743
836,7	60,914
837,1	59,086
837,6	61,714
838	60,171
838,4	58,286
838,9	58,514
839,3	55,714
839,7	55,686
840,1	54,4
840,6	52
841	53,8
841,4	57,257
841,9	55,943
842,3	57,4
842,7	55,114
843,1	53,886
843,6	57,457
844	56,343
844,4	56,029
844,9	59,029
845,3	59,229
845,7	57,057
846,2	54,057
846,6	48,629
847	52,343
847,4	50,829
847,9	49,2
848,3	47,657
848,7	48,743
849,2	53,886
849,6	50,514
850	50,857
850,4	48,714
850,9	48,571
851,3	50,4
851,7	51,143
852,2	51,286
852,6	54,857
853	52,029
853,4	50,571
853,9	46,971
854,3	46,914
854,7	43,086
855,2	42,286
855,6	43,143
856	37,171
856,4	37,143
856,9	40,914
857,3	41,114
857,7	46,171
858,2	49,543
858,6	48,686
859	52,257
859,4	54,8
859,9	52,829
860,3	49
860,7	44,371
861,1	42,543
861,6	40,943
862	41
862,4	36,629
862,9	38,686
863,3	38,314
863,7	38,886
864,1	37,886
864,6	37,229
865	36,143
865,4	37,429
865,9	37,543
866,3	34,971
866,7	30,571
867,1	25,4
867,6	26,743
868	21,4
868,4	18,143
868,8	18,743
869,3	23,6
869,7	28,571
870,1	29,429
870,6	24,514
871	-30,143
871,4	-25,057
871,8	-27,486
872,3	-26,314
872,7	-26,171
873,1	-20,657
873,5	-15,314
874	40,943
874,4	39,8
874,8	34,314
875,3	36,286
875,7	35,743
876,1	32,457
876,5	31,686
877	32,657
877,4	31,829
877,8	38,143
878,2	42,143
878,7	43,743
879,1	42,543
879,5	39,2
879,9	42,514
880,4	43,057
880,8	41,543
881,2	31,886
881,7	28,343
882,1	30,4
882,5	31,971
882,9	28,571
883,4	24,343
883,8	26,086
884,2	28,029
884,6	24,257
885,1	26,314
885,5	27,229
885,9	26,629
886,3	29,086
886,8	27,343
887,2	22,971
887,6	24,286
888	19,571
888,5	19,657
888,9	20,6
889,3	17,714
889,8	14,771
890,2	18,143
890,6	17,286
891	23,229
891,5	22,6
891,9	21,743
892,3	24,829
892,7	27,171
893,2	25,229
893,6	28,857
894	22,829
894,4	18,6
894,9	20,343
895,3	16,257
895,7	15,771
896,1	13,657
896,6	14,257
897	17,514
897,4	23,314
897,8	27,171
898,3	34,486
898,7	33,829
899,1	34,743
899,5	28,486
900	22,686
900,4	20,971
900,8	15,543
901,2	11,714
901,7	13,857
902,1	15,829
902,5	20,514
902,9	20,857
903,4	24,086
903,8	25,743
904,2	22,057
904,6	24,114
905,1	26,943
905,5	26,686
905,9	34,229
906,3	32,6
906,8	34,8
907,2	37,857
907,6	32,971
908	28,857
908,5	26,286
908,9	19,914
909,3	18,257
909,7	18,629
910,2	19,114
910,6	21,771
911	20,829
911,4	23,771
911,9	22,571
912,3	21,6
912,7	23,543
913,1	22,8
913,6	21,714
914	22
914,4	16,971
914,8	19,171
915,3	17,743
915,7	12,657
916,1	12,486
916,5	10,257
916,9	12,086
917,4	16,6
917,8	19,829
918,2	17,057
918,6	14,857
919,1	16,457
919,5	19,6
919,9	18,971
920,3	14,971
920,8	10,314
921,2	11,457
921,6	9,314
922	8,971
922,5	7,8
922,9	8,486
923,3	7,657
923,7	9,914
924,2	10,6
924,6	15,486
925	15,371
925,4	13,486
925,8	11,543
926,3	16,114
926,7	12,543
927,1	15,543
927,5	15,743
928	13,086
928,4	11,6
928,8	11,914
929,2	8,086
929,7	11,2
930,1	9,6
930,5	5,514
930,9	5,457
931,3	5,257
931,8	4,571
932,2	5,114
932,6	2,886
933	-2,857
933,5	1,486
933,9	3,171
934,3	6,571
934,7	7,114
935,2	9,229
935,6	11,429
936	16,8
936,4	17,314
936,8	18,371
937,3	16,514
937,7	18,086
938,1	22,171
938,5	17,743
939	16,8
939,4	13,114
939,8	7,971
940,2	9,971
940,6	10,914
941,1	7,686
941,5	11,771
941,9	9,486
942,3	11,6
942,8	17,314
943,2	16,257
943,6	10,314
944	8,4
944,4	7,057
944,9	8,343
945,3	5,371
945,7	1,714
946,1	0,571
946,6	4,171
947	3,571
947,4	6,257
947,8	4,743
948,2	5,029
948,7	7,429
949,1	8,857
949,5	12,314
949,9	15,371
950,3	15,029
950,8	16,429
951,2	17,086
951,6	14,8
952	18,371
952,5	12,657
952,9	10,429
953,3	7,543
953,7	9,886
954,1	13,057
954,6	15,8
955	13,029
955,4	17,314
955,8	23,314
956,2	25,4
956,7	25,314
957,1	22,6
957,5	22,114
957,9	24,286
958,3	19,286
958,8	11,743
959,2	13,2
959,6	14,943
960	11,543
960,5	14,171
960,9	15,314
961,3	16,171
961,7	16,114
962,1	12,914
962,6	11,057
963	14,971
963,4	8,4
963,8	3,229
964,2	4,629
964,7	6,571
965,1	11,057
965,5	10,029
965,9	4,457
966,3	5,6
966,8	7,029
967,2	8,143
967,6	9,086
968	2,371
968,4	3,686
968,9	8,514
969,3	16,029
969,7	11,371
970,1	11,314
970,5	7,514
971	15,943
971,4	14,343
971,8	15,114
972,2	12,343
972,6	12,857
973,1	14,171
973,5	16,743
973,9	14,029
974,3	13,686
974,7	14,714
975,2	10,943
975,6	14,171
976	12,514
976,4	10,514
976,8	8,743
977,3	3,657
977,7	1,543
978,1	2,686
978,5	2,743
978,9	0,486
979,4	0,314
979,8	-0,571
980,2	4,171
980,6	2,714
981	5,114
981,5	2,371
981,9	3,971
982,3	7,057
982,7	5,257
983,1	6,257
983,6	5,829
984	3,343
984,4	6,2
984,8	6,829
985,2	6,171
985,6	0,886
986,1	-0,714
986,5	0,114
986,9	0,886
987,3	1,114
987,7	1,686
988,2	-0,829
988,6	10,257
989	11,629
989,4	11,229
989,8	8,086
990,3	5,6
990,7	6,114
991,1	7,914
991,5	4,171
991,9	7,2
992,3	10,943
992,8	14,914
993,2	18,943
993,6	16,829
994	18,771
994,4	17,114
994,9	15,057
995,3	13,886
995,7	11,657
996,1	8,657
996,5	6,4
996,9	3,829
997,4	9
997,8	5,371
998,2	3,371
998,6	-1,6
999	-2,714
999,5	-0,743
999,9	2,286
1000,3	-1,143
1000,7	3,057
1001,1	3,629
1001,5	8,543
1002	12,714
1002,4	14,457
1002,8	9,771
1003,2	12,743
1003,6	9,971
1004	14,914
1004,5	12,257
1004,9	10,771
1005,3	7,4
1005,7	12,6
1006,1	8,486
1006,6	10,114
1007	7,971
1007,4	8,8
1007,8	6,057
1008,2	6,457
1008,6	5,686
1009,1	5,771
1009,5	11,743
1009,9	8,143
1010,3	5,686
1010,7	8,629
1011,1	5,886
1011,6	5,4
1012	8,343
1012,4	2,8
1012,8	3,429
1013,2	12,286
1013,6	11,743
1014,1	16,971
1014,5	17,2
1014,9	14,057
1015,3	11,057
1015,7	12,371
1016,1	10,314
1016,6	7,371
1017	8,4
1017,4	6,343
1017,8	8,371
1018,2	15,314
1018,6	11,886
1019,1	10,343
1019,5	12,229
1019,9	11,314
1020,3	14,343
1020,7	16,457
1021,1	12,8
1021,6	15,543
1022	18,429
1022,4	16,857
1022,8	18,571
1023,2	17,886
1023,6	16,543
1024,1	21,686
1024,5	25,371
1024,9	19,371
1025,3	19,514
1025,7	14,829
1026,1	12,514
1026,6	5,371
1027	3,457
1027,4	1,029
1027,8	1,743
1028,2	2,829
1028,6	5,714
1029	4,457
1029,5	13,486
1029,9	8,343
1030,3	0,114
1030,7	3,286
1031,1	4,171
1031,5	1,971
1032	3,4
1032,4	-3,257
1032,8	-2,8
1033,2	4,743
1033,6	4,571
1034	6,029
1034,4	5,086
1034,9	7,286
1035,3	10,371
1035,7	11,771
1036,1	8,943
1036,5	4,943
1036,9	4,686
1037,4	11,543
1037,8	6,057
1038,2	3,029
1038,6	8,171
1039	16,029
1039,4	21,4
1039,8	15,8
1040,3	12,686
1040,7	16,514
1041,1	20,314
1041,5	18
1041,9	14,371
1042,3	12,571
1042,7	17
1043,2	14,571
1043,6	13,914
1044	12,829
1044,4	13,2
1044,8	13,629
1045,2	8,6
1045,6	12,229
1046,1	6,971
1046,5	9,257
1046,9	7,429
1047,3	2,457
1047,7	-1,286
1048,1	0,371
1048,5	-5
1049	3,714
1049,4	5,543
1049,8	6,029
1050,2	8,086
1050,6	15,171
1051	16,171
1051,4	16,457
1051,9	15,914
1052,3	18,514
1052,7	17,6
1053,1	14,829
1053,5	11,714
1053,9	15,4
1054,3	13,829
1054,8	15,429
1055,2	14,629
1055,6	21,743
1056	23,057
1056,4	20,171
1056,8	17,914
1057,2	18,943
1057,6	15,971
1058,1	13,2
1058,5	5,943
1058,9	8,486
1059,3	8,886
1059,7	9,057
1060,1	7,314
1060,5	7,771
1061	9,371
1061,4	9,343
1061,8	11,286
1062,2	9,257
1062,6	11,4
1063	13,943
1063,4	12,429
1063,8	6,714
1064,3	5,571
1064,7	3,486
1065,1	2,886
1065,5	-3,086
1065,9	-4,971
1066,3	-8,114
1066,7	-10,714
1067,1	-11,429
1067,6	-7,8
1068	-7,686
1068,4	-3,314
1068,8	-1,286
1069,2	-1,257
1069,6	2,771
1070	11,543
1070,4	3,4
1070,9	4,2
1071,3	1,114
1071,7	-0,771
1072,1	2,6
1072,5	1,571
1072,9	-4,486
1073,3	0,743
1073,7	-0,514
1074,2	3,143
1074,6	5,4
1075	6,057
1075,4	7,943
1075,8	12,571
1076,2	6,086
1076,6	9,371
1077	9,629
1077,5	9,257
1077,9	9,286
1078,3	7,486
1078,7	4,971
1079,1	6,657
1079,5	8,8
1079,9	8,257
1080,3	8,2
1080,7	7,857
1081,2	12,114
1081,6	10,4
1082	13,086
1082,4	13,314
1082,8	13,4
1083,2	13,143
1083,6	12,943
1084	8,657
1084,5	9,143
1084,9	5,571
1085,3	-2,371
1085,7	-1,2
1086,1	1,629
1086,5	4
1086,9	9,057
1087,3	8,743
1087,7	11,114
1088,2	14,314
1088,6	10,971
1089	11,286
1089,4	9,943
1089,8	6,2
1090,2	6,257
1090,6	7,4
1091	9,257
1091,4	11,6
1091,9	8,657
1092,3	8,314
1092,7	6,4
1093,1	9,171
1093,5	7,543
1093,9	4,857
1094,3	7,486
1094,7	6,086
1095,1	6,429
1095,5	8,486
1096	4,629
1096,4	6,086
1096,8	12,229
1097,2	8,943
1097,6	16,286
1098	17,143
1098,4	18,029
1098,8	22,714
1099,2	27,143
1099,6	22,686
1100,1	21,114
1100,5	14,229
1100,9	11,029
1101,3	11,486
1101,7	8,829
1102,1	4,857
1102,5	5,743
1102,9	6,914
1103,3	10,314
1103,7	11,371
1104,2	9,314
1104,6	11,114
1105	5,743
1105,4	6,943
1105,8	5,2
1106,2	2,057
1106,6	1,2
1107	0,829
1107,4	-2,7
1107,8	2,12
1108,3	-0,85
