Data from Subt2_088.txt Node
Date: Sat Aug 26 16:41:44 MSK 2023
User: vat
Spectrometer: MAYP114033
Trigger mode: 0
Integration Time (sec): 1,000000E0
Scans to average: 5
Electric dark correction enabled: true
Nonlinearity correction enabled: false
Boxcar width: 3
XAxis mode: Wavelengths
Number of Pixels in Spectrum: 2068
>>>>>Begin Spectral Data<<<<<
199,4	0
199,9	-0,5
200,4	-0,8
200,8	1,414
201,3	4,157
201,8	4,757
202,2	4,357
202,7	8,729
203,2	7,386
203,6	9,7
204,1	6,9
204,6	6,386
205	10,243
205,5	11,7
206	9,1
206,4	15,671
206,9	11,586
207,4	17,643
207,8	14,671
208,3	9,3
208,8	7,986
209,2	10,386
209,7	8,5
210,2	15,129
210,6	10,929
211,1	14,014
211,5	14,643
212	15,586
212,5	11,843
212,9	9,929
213,4	8,386
213,9	8,471
214,3	8,386
214,8	9,757
215,3	8,871
215,7	6,986
216,2	12,814
216,7	8,443
217,1	6,014
217,6	3,557
218,1	3,871
218,5	5,529
219	17,614
219,5	10,3
219,9	13,243
220,4	13,7
220,9	14,071
221,3	15,5
221,8	11,214
222,3	1,271
222,7	3,957
223,2	5,071
223,6	5,129
224,1	4,871
224,6	4,557
225	6,529
225,5	11,9
226	7,814
226,4	7,729
226,9	6,043
227,4	9,529
227,8	13,414
228,3	17,471
228,8	12,957
229,2	19,471
229,7	12,671
230,2	18,7
230,6	15,529
231,1	14,671
231,5	17,243
232	23,729
232,5	21,586
232,9	28,329
233,4	26,3
233,9	29,386
234,3	29,471
234,8	25,614
235,3	17,529
235,7	21,529
236,2	21,986
236,7	23,214
237,1	16,071
237,6	11,386
238,1	10,871
238,5	15,3
239	11,586
239,4	12,843
239,9	11,329
240,4	16,529
240,8	16,214
241,3	14,071
241,8	11,043
242,2	8,957
242,7	5,986
243,2	5,929
243,6	5,071
244,1	5,7
244,6	7,786
245	7,386
245,5	8,814
245,9	9,757
246,4	9,214
246,9	8,557
247,3	6,871
247,8	6,043
248,3	9,929
248,7	15,157
249,2	11,814
249,7	11,929
250,1	13,1
250,6	16,814
251	13,557
251,5	7,357
252	4,757
252,4	7,186
252,9	6,1
253,4	5,071
253,8	1,986
254,3	10,557
254,8	14,043
255,2	11,3
255,7	14,071
256,1	16,3
256,6	17,614
257,1	20,5
257,5	20,414
258	20,871
258,5	21,671
258,9	16,557
259,4	17,614
259,9	18,957
260,3	13,729
260,8	10,929
261,2	15,643
261,7	15,671
262,2	18,386
262,6	16,871
263,1	16,1
263,6	16,614
264	14,329
264,5	10,986
264,9	10,786
265,4	11,014
265,9	11,643
266,3	11,329
266,8	12,157
267,3	12,586
267,7	11,357
268,2	5,786
268,7	4,214
269,1	2,7
269,6	7,871
270	11,414
270,5	12,671
271	12,471
271,4	15,271
271,9	17,157
272,4	17,786
272,8	10,329
273,3	6,786
273,7	2,357
274,2	3,1
274,7	3,1
275,1	-0,186
275,6	2,757
276,1	4,5
276,5	7,471
277	14,443
277,4	13,643
277,9	14,329
278,4	15,471
278,8	16,129
279,3	13,786
279,8	14,643
280,2	8,929
280,7	8,757
281,1	11,929
281,6	13,614
282,1	14,843
282,5	18,814
283	16,157
283,4	19,386
283,9	16,043
284,4	15,357
284,8	13,357
285,3	5,671
285,8	2,386
286,2	-0,871
286,7	-1,014
287,1	1,986
287,6	1,614
288,1	1,871
288,5	6,871
289	11,071
289,5	14,871
289,9	11,443
290,4	11,271
290,8	11,357
291,3	12,471
291,8	10,043
292,2	11,614
292,7	15,471
293,1	18,929
293,6	22,557
294,1	21,871
294,5	24,757
295	21,186
295,5	19,414
295,9	19,786
296,4	17,786
296,8	14,443
297,3	14,471
297,8	12,014
298,2	11,986
298,7	8,157
299,1	6,529
299,6	6,729
300,1	5,786
300,5	8,1
301	9,843
301,5	13,643
301,9	15,986
302,4	14,986
302,8	17,071
303,3	19,157
303,8	13,3
304,2	8,5
304,7	5,871
305,1	2,671
305,6	-2,271
306,1	-3,843
306,5	-4,557
307	-3,243
307,4	-1,329
307,9	0,671
308,4	4,357
308,8	9,614
309,3	7,643
309,8	10,586
310,2	10,3
310,7	17,614
311,1	14,7
311,6	13,5
312,1	14,757
312,5	19,843
313	14,9
313,4	16,643
313,9	17,9
314,4	20,186
314,8	24,786
315,3	26,5
315,7	23,329
316,2	24,129
316,7	23,814
317,1	17,386
317,6	19,729
318	18,043
318,5	14,043
319	15,186
319,4	14,586
319,9	15,929
320,3	16,529
320,8	16,643
321,3	13,929
321,7	11,586
322,2	12,071
322,6	9,586
323,1	6,871
323,6	4,814
324	3,414
324,5	0,557
324,9	4,157
325,4	4,471
325,9	13,671
326,3	16,414
326,8	14,386
327,2	14,814
327,7	16,814
328,2	11,786
328,6	12,671
329,1	5,186
329,5	4,729
330	8,329
330,5	6,386
330,9	8,414
331,4	10,5
331,8	10,471
332,3	15,329
332,8	14,471
333,2	11,386
333,7	14,586
334,1	15,3
334,6	14,186
335,1	15,214
335,5	11,671
336	8,243
336,4	13,957
336,9	16,757
337,4	16,957
337,8	16,586
338,3	17,586
338,7	20,957
339,2	27,614
339,7	23,986
340,1	18,557
340,6	14,814
341	21,586
341,5	19,214
342	17,7
342,4	14,814
342,9	9,9
343,3	14,186
343,8	17,986
344,2	14,529
344,7	14,471
345,2	11,129
345,6	12,671
346,1	16,329
346,5	15,471
347	14,443
347,5	13,014
347,9	10,357
348,4	13,757
348,8	12,843
349,3	14,586
349,8	16,414
350,2	17,5
350,7	25,529
351,1	30,043
351,6	32,186
352	40,643
352,5	46,843
353	54,7
353,4	61,9
353,9	68,786
354,3	83,243
354,8	97,843
355,3	117,243
355,7	139,586
356,2	157,5
356,6	186,386
357,1	217,357
357,5	251,671
358	298,729
358,5	341,243
358,9	392,557
359,4	462,986
359,8	535,757
360,3	612,957
360,8	702,386
361,2	793,786
361,7	899,986
362,1	1018,414
362,6	1143,814
363	1280,157
363,5	1430,3
364	1576,1
364,4	1728,814
364,9	1879,586
365,3	2031,471
365,8	2171,814
366,3	2308,243
366,7	2427,071
367,2	2535,986
367,6	2629,014
368,1	2698,757
368,5	2739,643
369	2761,471
369,5	2765,214
369,9	2740,986
370,4	2698,157
370,8	2633,786
371,3	2559,586
371,7	2472,529
372,2	2371,986
372,7	2243,3
373,1	2126,5
373,6	2004,3
374	1878,243
374,5	1752,9
374,9	1629,357
375,4	1511,529
375,9	1408,157
376,3	1299,7
376,8	1197,814
377,2	1109,414
377,7	1019,729
378,2	938,529
378,6	860,3
379,1	786,986
379,5	722,757
380	667,671
380,4	609,014
380,9	560,214
381,4	515,7
381,8	477,957
382,3	440,5
382,7	406,843
383,2	373,214
383,6	348,329
384,1	327,729
384,6	303,986
385	279,757
385,5	263,814
385,9	246,7
386,4	229,129
386,8	217,557
387,3	201,929
387,7	188,157
388,2	175,5
388,7	162,671
389,1	150,7
389,6	141,214
390	127,9
390,5	116,986
390,9	116,1
391,4	119,157
391,9	111,186
392,3	101,214
392,8	96,9
393,2	90,471
393,7	88,471
394,1	83,357
394,6	73,814
395,1	73,1
395,5	76,243
396	73,5
396,4	74,929
396,9	71,586
397,3	63,271
397,8	57,957
398,2	52,1
398,7	51,5
399,2	47,3
399,6	46,014
400,1	43,386
400,5	46,071
401	47,586
401,4	49,5
401,9	45,5
402,4	47,1
402,8	43,414
403,3	43,643
403,7	40,586
404,2	38,986
404,6	39,986
405,1	35,929
405,5	34,386
406	34,671
406,5	31,671
406,9	30,871
407,4	29,271
407,8	28,9
408,3	34,043
408,7	39,129
409,2	38,643
409,6	43,529
410,1	50,871
410,6	54,329
411	55,243
411,5	56,5
411,9	54,357
412,4	55,243
412,8	54,929
413,3	53,786
413,7	57,157
414,2	62,329
414,7	68,214
415,1	71,1
415,6	79,986
416	86,557
416,5	87,157
416,9	85,386
417,4	86,414
417,8	87,843
418,3	96,557
418,8	91,357
419,2	94,929
419,7	100,214
420,1	101,043
420,6	100,129
421	102,329
421,5	97,586
421,9	102,386
422,4	99,957
422,8	98,843
423,3	101,843
423,8	107,1
424,2	107,071
424,7	107,871
425,1	110,386
425,6	112,5
426	116,214
426,5	117,214
426,9	117,3
427,4	114,957
427,9	110,986
428,3	108,729
428,8	110,7
429,2	106,1
429,7	109,671
430,1	108,129
430,6	110,614
431	113,9
431,5	116,386
431,9	117,5
432,4	124,614
432,8	127,243
433,3	130,614
433,8	134,814
434,2	139,329
434,7	140,329
435,1	143,814
435,6	152,671
436	158,129
436,5	164,814
436,9	172,129
437,4	184,186
437,8	191,414
438,3	199,3
438,8	196,071
439,2	199,671
439,7	203,9
440,1	207,129
440,6	216,357
441	227,129
441,5	234,729
441,9	246,729
442,4	264,557
442,8	278,871
443,3	289,071
443,7	291,5
444,2	305,614
444,7	316,529
445,1	329,357
445,6	335,757
446	349,186
446,5	370,071
446,9	389,9
447,4	403,043
447,8	420,157
448,3	438,043
448,7	455,357
449,2	473,414
449,6	485,843
450,1	509,7
450,6	527,7
451	543,329
451,5	566,271
451,9	587,814
452,4	608,414
452,8	634,1
453,3	648,757
453,7	671,786
454,2	697,7
454,6	719,671
455,1	740,186
455,5	764,443
456	790,186
456,4	819,271
456,9	842,186
457,3	872,014
457,8	898,871
458,3	934,529
458,7	966,014
459,2	993,986
459,6	1023,243
460,1	1062,471
460,5	1094,329
461	1123,271
461,4	1154,5
461,9	1184,729
462,3	1220,214
462,8	1253,586
463,2	1286,071
463,7	1315,329
464,1	1356,3
464,6	1385,7
465	1424,414
465,5	1460,9
466	1497,1
466,4	1532,729
466,9	1574,386
467,3	1607,386
467,8	1656,671
468,2	1696,757
468,7	1733,957
469,1	1774,329
469,6	1809,129
470	1846,243
470,5	1884,729
470,9	1918,443
471,4	1951,9
471,8	1986,214
472,3	2022,871
472,7	2062,843
473,2	2095,414
473,6	2137,3
474,1	2175,186
474,5	2217,5
475	2265,357
475,4	2301,3
475,9	2349,586
476,4	2396,5
476,8	2436,414
477,3	2472,329
477,7	2512,1
478,2	2545,071
478,6	2588,043
479,1	2616,271
479,5	2655,757
480	2693,814
480,4	2728,157
480,9	2764,929
481,3	2799,614
481,8	2833,386
482,2	2865,243
482,7	2896,7
483,1	2927,271
483,6	2960,214
484	2986,357
484,5	3013,786
484,9	3045,929
485,4	3080,357
485,8	3102,729
486,3	3127,586
486,7	3157,786
487,2	3192,986
487,6	3225,929
488,1	3249,7
488,5	3272,786
489	3298,843
489,4	3327,7
489,9	3351,271
490,4	3362,471
490,8	3375,443
491,3	3393,243
491,7	3407,671
492,2	3428,043
492,6	3446,129
493,1	3455,9
493,5	3468,986
494	3489,7
494,4	3508,043
494,9	3523,557
495,3	3542,214
495,8	3548,357
496,2	3569,414
496,7	3590,929
497,1	3610,014
497,6	3622,214
498	3634,7
498,5	3650,586
498,9	3664,986
499,4	3678,329
499,8	3684,843
500,3	3689,3
500,7	3700,329
501,2	3720,557
501,6	3726,414
502,1	3743,043
502,5	3748,271
503	3765,614
503,4	3777,014
503,9	3784,5
504,3	3790,786
504,8	3798,757
505,2	3797,471
505,7	3810,786
506,1	3818,1
506,6	3821,757
507	3831,871
507,5	3838,529
507,9	3847,7
508,4	3862,243
508,8	3866,386
509,3	3867,357
509,7	3878,786
510,2	3880,7
510,6	3885,186
511,1	3892,186
511,5	3896,5
512	3906,957
512,4	3918,357
512,9	3914,757
513,3	3930,729
513,8	3938,471
514,2	3943,357
514,7	3951,014
515,1	3955,214
515,6	3956,7
516	3965,014
516,5	3965,957
516,9	3969,271
517,4	3968,5
517,8	3965,757
518,3	3965,243
518,7	3971,929
519,2	3978,214
519,6	3981,757
520,1	3983,5
520,5	3990,729
521	3998,843
521,4	4007,129
521,9	4010,214
522,3	4016,414
522,8	4022,814
523,2	4034,7
523,7	4039,071
524,1	4043,357
524,6	4044,071
525	4055,671
525,5	4067,471
525,9	4068,786
526,4	4071,157
526,8	4072,729
527,3	4082,7
527,7	4092,529
528,2	4094,414
528,6	4098,414
529,1	4103,5
529,5	4109,729
530	4123,386
530,4	4129,014
530,9	4132,186
531,3	4135,557
531,8	4137,586
532,2	4150,9
532,6	4158,786
533,1	4157,243
533,5	4159,557
534	4169,757
534,4	4181,386
534,9	4200,414
535,3	4210,1
535,8	4220,243
536,2	4236,157
536,7	4247,271
537,1	4253,386
537,6	4261,043
538	4262,7
538,5	4266,329
538,9	4273,471
539,4	4284,243
539,8	4287,814
540,3	4297,271
540,7	4300,586
541,2	4303,643
541,6	4314,614
542,1	4321,1
542,5	4322,843
543	4335,5
543,4	4347,957
543,9	4359,271
544,3	4369,929
544,8	4374,071
545,2	4388,271
545,7	4402,271
546,1	4416,643
546,5	4421,586
547	4432,729
547,4	4435,386
547,9	4447,614
548,3	4451,729
548,8	4455,271
549,2	4461,671
549,7	4471,414
550,1	4479,443
550,6	4493,9
551	4497,157
551,5	4499,043
551,9	4512,671
552,4	4519,386
552,8	4524,443
553,3	4534,5
553,7	4541,671
554,2	4550,929
554,6	4567,871
555,1	4570,443
555,5	4574,9
555,9	4588,9
556,4	4589,271
556,8	4595,929
557,3	4604,986
557,7	4604,843
558,2	4613,7
558,6	4625,357
559,1	4627,271
559,5	4631,814
560	4639,329
560,4	4642,786
560,9	4650,471
561,3	4655,329
561,8	4658,271
562,2	4668,557
562,7	4677,5
563,1	4681,243
563,6	4682,443
564	4689,414
564,4	4695,9
564,9	4701,014
565,3	4703,7
565,8	4716,071
566,2	4716,586
566,7	4722,9
567,1	4725,043
567,6	4729,471
568	4731,614
568,5	4733,043
568,9	4719,757
569,4	4727,3
569,8	4730,671
570,3	4734,214
570,7	4732,843
571,1	4734,557
571,6	4731,757
572	4739,757
572,5	4734,5
572,9	4740,3
573,4	4738,671
573,8	4740,9
574,3	4738,529
574,7	4737,129
575,2	4740,871
575,6	4744,957
576,1	4742,186
576,5	4739,386
576,9	4737,729
577,4	4736,443
577,8	4731,814
578,3	4718,871
578,7	4720,614
579,2	4709,071
579,6	4703,929
580,1	4701,529
580,5	4696,9
581	4698,271
581,4	4704,214
581,9	4702,614
582,3	4696,757
582,7	4693,871
583,2	4670,986
583,6	4664,071
584,1	4650,786
584,5	4644,1
585	4631,957
585,4	4621,814
585,9	4618,271
586,3	4619,929
586,8	4606,957
587,2	4606,271
587,6	4596,643
588,1	4590,1
588,5	4586,329
589	4573,243
589,4	4563,757
589,9	4565,414
590,3	4554,929
590,8	4547,214
591,2	4533,557
591,7	4529,243
592,1	4521,843
592,5	4524,243
593	4512,557
593,4	4507,071
593,9	4490,357
594,3	4484,243
594,8	4473,1
595,2	4472,471
595,7	4458,614
596,1	4451,214
596,6	4448,014
597	4445,957
597,4	4440,614
597,9	4439,5
598,3	4427,671
598,8	4423,671
599,2	4416,043
599,7	4404,557
600,1	4391,529
600,6	4382,014
601	4368,357
601,4	4355,786
601,9	4336,129
602,3	4327,871
602,8	4319,129
603,2	4313,471
603,7	4299,9
604,1	4293,843
604,6	4274,843
605	4269,729
605,4	4260,957
605,9	4242,5
606,3	4231,614
606,8	4211,043
607,2	4198,529
607,7	4195,814
608,1	4183,671
608,6	4170,9
609	4164,186
609,4	4157,329
609,9	4156,843
610,3	4140,557
610,8	4132,586
611,2	4115,129
611,7	4099,214
612,1	4078,557
612,6	4059,7
613	4043,9
613,4	4023,871
613,9	3997,843
614,3	3987,1
614,8	3969,443
615,2	3962,557
615,7	3946,757
616,1	3930,614
616,6	3924,9
617	3912,671
617,4	3894,214
617,9	3881,929
618,3	3863,1
618,8	3851,329
619,2	3836,443
619,7	3817,386
620,1	3798,729
620,5	3789,7
621	3769,329
621,4	3752,814
621,9	3729,729
622,3	3710,5
622,8	3689,271
623,2	3681,757
623,6	3657,271
624,1	3645,5
624,5	3633,957
625	3617,414
625,4	3603,7
625,9	3593,529
626,3	3567,329
626,8	3562,5
627,2	3540,786
627,6	3518,986
628,1	3506,529
628,5	3494,014
629	3476,414
629,4	3467,014
629,9	3442,271
630,3	3423,814
630,7	3409,129
631,2	3386,414
631,6	3367,671
632,1	3351,529
632,5	3337,043
633	3317,614
633,4	3303,557
633,8	3284,3
634,3	3267,443
634,7	3249,986
635,2	3236,957
635,6	3212,043
636,1	3198,871
636,5	3183,157
636,9	3168,529
637,4	3160,357
637,8	3137,729
638,3	3117,443
638,7	3106,214
639,2	3094,1
639,6	3076,929
640	3057,357
640,5	3037,957
640,9	3029,243
641,4	3009,129
641,8	2992,3
642,2	2970,1
642,7	2954,071
643,1	2946,243
643,6	2930,271
644	2915,214
644,5	2900,443
644,9	2881,871
645,3	2871,5
645,8	2862,414
646,2	2842,643
646,7	2824,757
647,1	2807,414
647,6	2790,986
648	2785,386
648,4	2769,157
648,9	2747,386
649,3	2733,843
649,8	2723,471
650,2	2712,7
650,6	2703,729
651,1	2690,443
651,5	2681,414
652	2673,5
652,4	2651,9
652,9	2643,843
653,3	2623,729
653,7	2607,814
654,2	2591,529
654,6	2572,071
655,1	2556,7
655,5	2541,986
655,9	2517,243
656,4	2507,414
656,8	2496,643
657,3	2471,214
657,7	2458,329
658,2	2446,186
658,6	2436,1
659	2422,9
659,5	2404,157
659,9	2389,586
660,4	2377,3
660,8	2364,557
661,2	2344,443
661,7	2331,043
662,1	2316,729
662,6	2300,671
663	2286,786
663,4	2281,043
663,9	2264,386
664,3	2251,957
664,8	2236,814
665,2	2224,014
665,6	2213,129
666,1	2195,329
666,5	2180,671
667	2164,186
667,4	2153,557
667,9	2139,071
668,3	2123,243
668,7	2111,814
669,2	2101,186
669,6	2088,129
670,1	2078,014
670,5	2061,357
670,9	2052,386
671,4	2041,271
671,8	2027,414
672,3	2018,157
672,7	1995,443
673,1	1981,129
673,6	1965,671
674	1952,157
674,5	1944,871
674,9	1929,586
675,3	1909,557
675,8	1904,471
676,2	1894,1
676,7	1889,443
677,1	1878,271
677,5	1859,9
678	1849,814
678,4	1842,471
678,9	1829,243
679,3	1815,414
679,7	1799,986
680,2	1788,7
680,6	1779,3
681,1	1771,471
681,5	1755,929
681,9	1743,729
682,4	1729,957
682,8	1716,729
683,3	1700,357
683,7	1685,671
684,1	1668,786
684,6	1661,643
685	1649,071
685,5	1643,329
685,9	1637,443
686,3	1629,643
686,8	1621,357
687,2	1613,129
687,7	1601,671
688,1	1592,614
688,5	1579,9
689	1569,129
689,4	1562,386
689,9	1552,186
690,3	1547,414
690,7	1534,271
691,2	1526,871
691,6	1519,614
692	1503,671
692,5	1489,957
692,9	1479,386
693,4	1467,643
693,8	1461,7
694,2	1448,529
694,7	1438,071
695,1	1434,443
695,6	1418,957
696	1405,471
696,4	1390,843
696,9	1375,643
697,3	1364,671
697,8	1349,786
698,2	1336,186
698,6	1336,529
699,1	1329,986
699,5	1317,5
699,9	1313,5
700,4	1306,929
700,8	1304,614
701,3	1296,557
701,7	1280,7
702,1	1270,129
702,6	1263,586
703	1249,929
703,5	1240,643
703,9	1231,386
704,3	1225,671
704,8	1223,014
705,2	1220,871
705,6	1211,9
706,1	1207,471
706,5	1202,986
707	1188,329
707,4	1178,957
707,8	1167,071
708,3	1152,614
708,7	1150,786
709,2	1140,614
709,6	1129,329
710	1122,443
710,5	1113,471
710,9	1106,243
711,3	1098,614
711,8	1085,957
712,2	1081,5
712,7	1075,043
713,1	1068,014
713,5	1055,414
714	1049,7
714,4	1047,414
714,8	1042,357
715,3	1036,329
715,7	1028,529
716,2	1019,843
716,6	1021,386
717	1011,471
717,5	1006,157
717,9	997,729
718,3	985,986
718,8	980,414
719,2	977,071
719,7	967,043
720,1	957,729
720,5	947,3
721	939,1
721,4	933,929
721,8	925,386
722,3	912,271
722,7	900,557
723,2	894,243
723,6	885,586
724	875,729
724,5	867,843
724,9	856,843
725,3	853,557
725,8	848,014
726,2	842,7
726,7	837,157
727,1	834,529
727,5	830,814
728	830,443
728,4	821,814
728,8	820,271
729,3	817,271
729,7	814,043
730,1	807,129
730,6	797,843
731	791,786
731,5	788,643
731,9	783,814
732,3	782,729
732,8	776,471
733,2	772,586
733,6	769,243
734,1	763,443
734,5	760,786
734,9	755,386
735,4	747,471
735,8	743,957
736,3	738,957
736,7	738,5
737,1	737,471
737,6	731,386
738	727,786
738,4	724,614
738,9	725,729
739,3	721,614
739,7	710,5
740,2	703,3
740,6	702,5
741,1	693,757
741,5	689,843
741,9	678,186
742,4	673,9
742,8	674,643
743,2	670,843
743,7	667,271
744,1	663,043
744,5	657,786
745	649,757
745,4	648,729
745,8	646,129
746,3	644,386
746,7	640,157
747,2	639,671
747,6	633,586
748	633,729
748,5	624,071
748,9	617,329
749,3	613,043
749,8	602,3
750,2	600,271
750,6	596,414
751,1	594,386
751,5	588,986
751,9	584,386
752,4	579,5
752,8	576,643
753,3	568,786
753,7	565,014
754,1	555,214
754,6	549,614
755	544,043
755,4	541,157
755,9	541,1
756,3	534,757
756,7	528,214
757,2	528,529
757,6	532,071
758	529,243
758,5	515,614
758,9	507,786
759,3	504,7
759,8	506,757
760,2	507,214
760,6	500,329
761,1	498,643
761,5	502,129
761,9	500,443
762,4	497,757
762,8	493,786
763,3	481,843
763,7	479,386
764,1	470,586
764,6	468,129
765	464,871
765,4	460,957
765,9	455,186
766,3	454,157
766,7	451,757
767,2	452,9
767,6	444,871
768	442,814
768,5	441,9
768,9	434,7
769,3	435,871
769,8	433,1
770,2	431,243
770,6	430,414
771,1	429,643
771,5	428,814
771,9	426,129
772,4	422,9
772,8	419,386
773,2	414,671
773,7	414,557
774,1	415,357
774,5	413,929
775	413,243
775,4	410,814
775,8	409,186
776,3	409,129
776,7	406,814
777,1	403,471
777,6	396,271
778	396,329
778,4	390,043
778,9	385,757
779,3	381,271
779,7	379,729
780,2	371,443
780,6	373,586
781	367,1
781,5	366,043
781,9	366,843
782,3	365,214
782,8	357,071
783,2	353,043
783,6	345,157
784,1	343,729
784,5	344,786
784,9	342,071
785,4	339,214
785,8	335,614
786,2	333,129
786,7	330,1
787,1	327,386
787,5	321,586
788	312,1
788,4	306,986
788,8	310,443
789,3	308,271
789,7	304,671
790,1	304,386
790,6	304,357
791	305,9
791,4	302,586
791,9	300,957
792,3	299,843
792,7	303,3
793,2	297,9
793,6	293,386
794	292,529
794,5	293,157
794,9	289,129
795,3	290,443
795,8	286,3
796,2	287,071
796,6	284,071
797,1	276,3
797,5	275,129
797,9	278,329
798,4	274,7
798,8	274,3
799,2	273,414
799,7	275,443
800,1	277,3
800,5	272,814
801	266,986
801,4	263,214
801,8	261,643
802,2	256,986
802,7	253,329
803,1	251,786
803,5	254,1
804	248,871
804,4	248,871
804,8	247,9
805,3	245,671
805,7	242,643
806,1	242,129
806,6	236,7
807	237,957
807,4	232,414
807,9	230,071
808,3	227,957
808,7	225,157
809,2	222,843
809,6	223,814
810	226,5
810,4	230,757
810,9	224,414
811,3	223,614
811,7	220,271
812,2	221,386
812,6	219,786
813	211,7
813,5	206,586
813,9	207,071
814,3	205,443
814,8	207,329
815,2	199,843
815,6	194,557
816,1	192,586
816,5	185,986
816,9	183,757
817,3	180,1
817,8	180,871
818,2	179,614
818,6	182,871
819,1	181,757
819,5	180,414
819,9	177,214
820,4	180,071
820,8	172,757
821,2	173,757
821,7	169,186
822,1	168,214
822,5	170,643
822,9	173,443
823,4	169,614
823,8	171,957
824,2	172,9
824,7	177,757
825,1	176,157
825,5	178,243
826	176,814
826,4	178,786
826,8	179,443
827,3	178,529
827,7	175,5
828,1	179,471
828,5	176,271
829	172,643
829,4	172,471
829,8	165,586
830,3	163,071
830,7	154,186
831,1	148,043
831,6	142,5
832	138,871
832,4	134,614
832,8	136,043
833,3	132,9
833,7	135,7
834,1	135,5
834,6	136,871
835	141,1
835,4	141,529
835,8	137,986
836,3	136,271
836,7	130,957
837,1	127,814
837,6	125,871
838	120,557
838,4	113,9
838,9	118,986
839,3	122,957
839,7	124,729
840,1	122,557
840,6	122,414
841	123,729
841,4	125,871
841,9	122,271
842,3	117,471
842,7	114,843
843,1	117,614
843,6	121,786
844	119,043
844,4	121,386
844,9	119,986
845,3	118,414
845,7	122,671
846,2	117,871
846,6	114,329
847	114,643
847,4	112,157
847,9	111,243
848,3	114,929
848,7	112,7
849,2	117,729
849,6	116,5
850	115,129
850,4	112,643
850,9	111,586
851,3	105,329
851,7	105,471
852,2	100,043
852,6	99,757
853	103,671
853,4	106,9
853,9	104,443
854,3	106,1
854,7	100,271
855,2	98,3
855,6	95,614
856	89,671
856,4	85,1
856,9	84,014
857,3	83,1
857,7	87,557
858,2	87,643
858,6	91,014
859	90,214
859,4	93,843
859,9	95,157
860,3	95,843
860,7	94,214
861,1	96,5
861,6	95,957
862	93,1
862,4	91,1
862,9	91,014
863,3	91,929
863,7	88,614
864,1	86,443
864,6	79,957
865	78,386
865,4	73,357
865,9	68,729
866,3	66,929
866,7	67,5
867,1	73,3
867,6	76,7
868	80,7
868,4	80,329
868,8	83,014
869,3	81,243
869,7	80,671
870,1	78,386
870,6	74,957
871	88,643
871,4	89,614
871,8	89,529
872,3	88,7
872,7	86,5
873,1	82,614
873,5	87,414
874	77,557
874,4	76,243
874,8	74,871
875,3	72,329
875,7	71,729
876,1	71,014
876,5	68,186
877	60,357
877,4	61,414
877,8	61,586
878,2	62,414
878,7	65,643
879,1	66,557
879,5	66,671
879,9	66,9
880,4	62,443
880,8	62,757
881,2	62,129
881,7	63,357
882,1	59,614
882,5	54,157
882,9	55,271
883,4	59,957
883,8	56,671
884,2	57,643
884,6	59,129
885,1	61,957
885,5	66,843
885,9	71,757
886,3	69,871
886,8	68,357
887,2	67,271
887,6	57,614
888	53,871
888,5	53,357
888,9	47,614
889,3	43,043
889,8	44,186
890,2	43,7
890,6	48,471
891	53,929
891,5	53,643
891,9	55,757
892,3	57,1
892,7	59,9
893,2	58,7
893,6	56,214
894	50,443
894,4	48,671
894,9	44,414
895,3	47,757
895,7	39,9
896,1	41,5
896,6	44,1
897	45,357
897,4	41,843
897,8	44,729
898,3	48,1
898,7	50,871
899,1	50,9
899,5	45,614
900	44,357
900,4	40,957
900,8	41,243
901,2	37,814
901,7	38,586
902,1	38,643
902,5	41,129
902,9	43,757
903,4	51,014
903,8	42,814
904,2	41,186
904,6	38,186
905,1	38,186
905,5	34,357
905,9	30,329
906,3	25,271
906,8	34,357
907,2	29,957
907,6	34,729
908	32,814
908,5	37,357
908,9	39,357
909,3	37,929
909,7	34,814
910,2	38,414
910,6	37,357
911	36,529
911,4	34,414
911,9	37,1
912,3	41,786
912,7	44,014
913,1	36,243
913,6	36,357
914	34,414
914,4	33,529
914,8	31,443
915,3	30,157
915,7	20,843
916,1	24,014
916,5	26,5
916,9	27,557
917,4	31,186
917,8	29,471
918,2	29,671
918,6	33,5
919,1	37,043
919,5	37,471
919,9	39,9
920,3	38,414
920,8	37,614
921,2	38,843
921,6	39,871
922	35,843
922,5	35,329
922,9	30,443
923,3	31,7
923,7	30,757
924,2	24,557
924,6	23,871
925	24,443
925,4	19,814
925,8	20,443
926,3	17,7
926,7	21,957
927,1	27,5
927,5	29,357
928	32,329
928,4	32,586
928,8	37,357
929,2	34,014
929,7	27,186
930,1	25,386
930,5	19,643
930,9	21,614
931,3	22,129
931,8	20,329
932,2	25,357
932,6	30,386
933	28,014
933,5	31,5
933,9	29,386
934,3	30,157
934,7	28,271
935,2	30,614
935,6	29,843
936	28,014
936,4	24,729
936,8	21,1
937,3	20,757
937,7	20,357
938,1	14,214
938,5	10,643
939	15,414
939,4	21,529
939,8	20,3
940,2	17,243
940,6	18,414
941,1	24,814
941,5	31,586
941,9	29,271
942,3	23,871
942,8	29,3
943,2	26,929
943,6	27,671
944	23,357
944,4	12,9
944,9	7,729
945,3	11,386
945,7	7,129
946,1	11,7
946,6	11,243
947	15,957
947,4	20,243
947,8	24,386
948,2	20,7
948,7	24,643
949,1	22,9
949,5	18,614
949,9	17,329
950,3	19,386
950,8	19,614
951,2	22,957
951,6	25,043
952	25,643
952,5	27,871
952,9	20,443
953,3	14,043
953,7	16,129
954,1	17,214
954,6	15,643
955	15,357
955,4	14,214
955,8	23,529
956,2	23,5
956,7	21,986
957,1	20,557
957,5	16,243
957,9	18,157
958,3	20,071
958,8	13,414
959,2	17,3
959,6	17,557
960	16,9
960,5	17,7
960,9	18,186
961,3	18,243
961,7	13,986
962,1	13,757
962,6	12,471
963	10,871
963,4	10,614
963,8	10,643
964,2	6,9
964,7	10,157
965,1	12,986
965,5	14,614
965,9	16,643
966,3	16,586
966,8	16,157
967,2	23,929
967,6	22,986
968	22,129
968,4	23,043
968,9	27,243
969,3	27,329
969,7	23,7
970,1	19,271
970,5	21,729
971	16,271
971,4	15,757
971,8	15,871
972,2	19,586
972,6	22,357
973,1	23,557
973,5	22,271
973,9	26,843
974,3	22,186
974,7	17,3
975,2	14,871
975,6	7,643
976	5,757
976,4	8,157
976,8	6,271
977,3	8,586
977,7	9,043
978,1	6,671
978,5	11,443
978,9	10,443
979,4	9,071
979,8	8,814
980,2	6,7
980,6	7,471
981	11,957
981,5	12,7
981,9	13,1
982,3	8,443
982,7	9,786
983,1	15,3
983,6	17,243
984	16,986
984,4	17,986
984,8	19,1
985,2	20,614
985,6	24,814
986,1	22,186
986,5	14,729
986,9	12,5
987,3	9,271
987,7	10,014
988,2	14,5
988,6	12,929
989	12,129
989,4	17,729
989,8	14,614
990,3	17,014
990,7	16,471
991,1	12,471
991,5	9,214
991,9	13,843
992,3	11,929
992,8	21,671
993,2	25,414
993,6	22,929
994	23,014
994,4	22,843
994,9	20,957
995,3	19,471
995,7	12,614
996,1	8,671
996,5	11,757
996,9	8,3
997,4	8,929
997,8	7,9
998,2	9,871
998,6	12,157
999	13,643
999,5	13,129
999,9	20,5
1000,3	21,3
1000,7	21,5
1001,1	20,243
1001,5	13,414
1002	13,614
1002,4	11,9
1002,8	10,929
1003,2	9,643
1003,6	11,357
1004	11,786
1004,5	15,957
1004,9	12,614
1005,3	8,443
1005,7	6,814
1006,1	9,157
1006,6	7,129
1007	4,986
1007,4	6,7
1007,8	7,729
1008,2	13,614
1008,6	9,557
1009,1	1,729
1009,5	5,671
1009,9	10,643
1010,3	11,871
1010,7	15,1
1011,1	17,843
1011,6	21,614
1012	27,757
1012,4	26,071
1012,8	19,7
1013,2	16,9
1013,6	15,329
1014,1	13,729
1014,5	15,843
1014,9	16,157
1015,3	11,329
1015,7	16,5
1016,1	14,729
1016,6	14,271
1017	11,386
1017,4	7,414
1017,8	3,671
1018,2	5,386
1018,6	6,157
1019,1	8,843
1019,5	9,7
1019,9	13,414
1020,3	17,243
1020,7	21,7
1021,1	23,529
1021,6	17,414
1022	13,586
1022,4	17,786
1022,8	13,5
1023,2	12,986
1023,6	7,471
1024,1	6,729
1024,5	11,814
1024,9	18,557
1025,3	14,786
1025,7	20,1
1026,1	21,643
1026,6	28,157
1027	29,929
1027,4	29,443
1027,8	22,357
1028,2	21,929
1028,6	18,7
1029	17,414
1029,5	17,014
1029,9	15,957
1030,3	18,757
1030,7	22,471
1031,1	18,871
1031,5	17,7
1032	19,243
1032,4	16,129
1032,8	16,014
1033,2	11,186
1033,6	12,271
1034	13,671
1034,4	15,414
1034,9	9,414
1035,3	14,443
1035,7	11,443
1036,1	15,014
1036,5	11,729
1036,9	13,729
1037,4	14,157
1037,8	20,014
1038,2	11,386
1038,6	9,3
1039	7,014
1039,4	8,186
1039,8	4,729
1040,3	-0,7
1040,7	-7,643
1041,1	-1,729
1041,5	-2,1
1041,9	-4,357
1042,3	-1,929
1042,7	0,614
1043,2	4,529
1043,6	13,243
1044	14,843
1044,4	18,643
1044,8	19,1
1045,2	18,186
1045,6	19,471
1046,1	21,129
1046,5	18,129
1046,9	14,1
1047,3	15,043
1047,7	19,357
1048,1	19,271
1048,5	20,471
1049	21,129
1049,4	18,557
1049,8	19,414
1050,2	24,129
1050,6	21,871
1051	25,729
1051,4	21,071
1051,9	22,529
1052,3	20,243
1052,7	21,5
1053,1	16,129
1053,5	14,271
1053,9	7,529
1054,3	8,871
1054,8	8,643
1055,2	11,043
1055,6	10,129
1056	11,843
1056,4	15,557
1056,8	18,671
1057,2	21,557
1057,6	18,243
1058,1	20,214
1058,5	16,386
1058,9	15,729
1059,3	18,214
1059,7	15,671
1060,1	12,529
1060,5	10,014
1061	10,129
1061,4	21,157
1061,8	18,471
1062,2	14,929
1062,6	14,586
1063	16,3
1063,4	17,271
1063,8	14,643
1064,3	7,471
1064,7	8,9
1065,1	8,557
1065,5	15,243
1065,9	19,871
1066,3	18,671
1066,7	22,186
1067,1	19,586
1067,6	22,014
1068	18,729
1068,4	16,7
1068,8	10,129
1069,2	11,443
1069,6	10,957
1070	14,871
1070,4	16,729
1070,9	20,129
1071,3	14,386
1071,7	19,986
1072,1	22,586
1072,5	22,329
1072,9	25,214
1073,3	23,157
1073,7	23,5
1074,2	28,671
1074,6	23,557
1075	21,071
1075,4	17,443
1075,8	16,5
1076,2	14,643
1076,6	15,186
1077	11,557
1077,5	13,071
1077,9	15,814
1078,3	14,614
1078,7	13,386
1079,1	14,957
1079,5	10,786
1079,9	15,243
1080,3	14,843
1080,7	15,529
1081,2	18,9
1081,6	19,1
1082	19,871
1082,4	19,5
1082,8	13,786
1083,2	7,614
1083,6	5,871
1084	3,014
1084,5	2,157
1084,9	-1,814
1085,3	-1,614
1085,7	-4,386
1086,1	-3,386
1086,5	-2,214
1086,9	1,5
1087,3	0,471
1087,7	2,529
1088,2	4,3
1088,6	7,271
1089	11,043
1089,4	8,414
1089,8	14,586
1090,2	16,443
1090,6	14,129
1091	20,357
1091,4	23,757
1091,9	27,071
1092,3	28,329
1092,7	22,843
1093,1	15,186
1093,5	13,957
1093,9	10,443
1094,3	10,557
1094,7	9,1
1095,1	7,1
1095,5	6,729
1096	9,157
1096,4	13,414
1096,8	7,357
1097,2	5,357
1097,6	5,214
1098	4,757
1098,4	2,643
1098,8	5,643
1099,2	2,243
1099,6	9,329
1100,1	11,129
1100,5	14,586
1100,9	14,5
1101,3	13,814
1101,7	17,586
1102,1	22,386
1102,5	17,7
1102,9	16,357
1103,3	9,214
1103,7	9,129
1104,2	11,043
1104,6	9,357
1105	5,443
1105,4	2,814
1105,8	2,129
1106,2	3,271
1106,6	3,386
1107	1,586
1107,4	-2,333
1107,8	-3,1
1108,3	0,95
