Data from Subt2_231.txt Node
Date: Sat Aug 26 18:54:13 MSK 2023
User: vat
Spectrometer: MAYP114033
Trigger mode: 0
Integration Time (sec): 1,000000E0
Scans to average: 5
Electric dark correction enabled: true
Nonlinearity correction enabled: false
Boxcar width: 3
XAxis mode: Wavelengths
Number of Pixels in Spectrum: 2068
>>>>>Begin Spectral Data<<<<<
199,4	-0,3
199,9	-0,4
200,4	-1
200,8	-0,743
201,3	-1
201,8	-1,057
202,2	-1,943
202,7	1,457
203,2	2,943
203,6	4,257
204,1	3,771
204,6	3,171
205	3,829
205,5	2,829
206	-0,943
206,4	-0,286
206,9	-0,029
207,4	3,886
207,8	4,8
208,3	4,457
208,8	6
209,2	7,029
209,7	5,686
210,2	6,971
210,6	6,543
211,1	6
211,5	5,971
212	9,457
212,5	9,943
212,9	10,771
213,4	7,914
213,9	4,629
214,3	5,371
214,8	6,457
215,3	7,486
215,7	10,057
216,2	11,714
216,7	12,286
217,1	13,314
217,6	15,914
218,1	12,714
218,5	6,486
219	-0,886
219,5	-0,343
219,9	-4,371
220,4	3,4
220,9	1,2
221,3	3,257
221,8	8,086
222,3	13,657
222,7	12,571
223,2	17,829
223,6	10,686
224,1	8,886
224,6	12,314
225	8,371
225,5	5,829
226	0,6
226,4	1,486
226,9	1,943
227,4	3,629
227,8	-3,514
228,3	-1,571
228,8	1,371
229,2	7,686
229,7	5,257
230,2	4,257
230,6	9,771
231,1	13,457
231,5	14,114
232	13,457
232,5	11,686
232,9	12,6
233,4	15,114
233,9	7,629
234,3	11,8
234,8	8,857
235,3	7,857
235,7	7,657
236,2	6,8
236,7	2,914
237,1	7
237,6	2,171
238,1	5,371
238,5	2,2
239	0,971
239,4	6,971
239,9	4,714
240,4	1,229
240,8	4,086
241,3	-0,371
241,8	0,943
242,2	2,714
242,7	-5,086
243,2	-0,629
243,6	2,629
244,1	2,314
244,6	7,257
245	9,8
245,5	9
245,9	8,343
246,4	8,743
246,9	5,886
247,3	6,143
247,8	4,657
248,3	6,486
248,7	7,286
249,2	13,371
249,7	12,6
250,1	19,314
250,6	19,686
251	18,886
251,5	13,314
252	12,6
252,4	13,143
252,9	12,2
253,4	3,571
253,8	1,143
254,3	4,2
254,8	7,543
255,2	2,971
255,7	-2,4
256,1	-0,029
256,6	4,743
257,1	7,2
257,5	1,486
258	1,457
258,5	4,857
258,9	4,229
259,4	-0,114
259,9	-0,114
260,3	-4,2
260,8	-4,8
261,2	-5,657
261,7	-4,2
262,2	-3,257
262,6	-3,686
263,1	0,714
263,6	5,371
264	14,171
264,5	19,4
264,9	18,771
265,4	21,743
265,9	23,171
266,3	22,171
266,8	22,257
267,3	17,629
267,7	14,914
268,2	14,2
268,7	14,629
269,1	17,886
269,6	13,657
270	16,229
270,5	14,971
271	12,914
271,4	16,629
271,9	13,6
272,4	17,857
272,8	18,343
273,3	9,686
273,7	13,514
274,2	12,514
274,7	9,6
275,1	11,857
275,6	6,686
276,1	5,143
276,5	11,914
277	7,829
277,4	9,914
277,9	11,8
278,4	13,114
278,8	13,114
279,3	18,943
279,8	16,714
280,2	20,2
280,7	18,143
281,1	14,029
281,6	15,514
282,1	17,114
282,5	14,286
283	15,257
283,4	13,429
283,9	17,371
284,4	23,286
284,8	21,857
285,3	18,686
285,8	16,857
286,2	15
286,7	10,886
287,1	5,943
287,6	2,971
288,1	-1,457
288,5	4,571
289	2,343
289,5	2,914
289,9	6,514
290,4	10,257
290,8	10,771
291,3	13,743
291,8	11,714
292,2	11,171
292,7	17,943
293,1	20,171
293,6	23,686
294,1	23,229
294,5	22,429
295	19,086
295,5	20,2
295,9	15,971
296,4	13,4
296,8	4,743
297,3	1,029
297,8	-2,114
298,2	-3,571
298,7	4,286
299,1	1,914
299,6	-3,457
300,1	2,543
300,5	5,571
301	9,457
301,5	16,514
301,9	8
302,4	6,486
302,8	10,914
303,3	9,143
303,8	4,971
304,2	4,657
304,7	0,371
305,1	-3,4
305,6	-0,743
306,1	4,314
306,5	5,114
307	12,8
307,4	14,6
307,9	16,743
308,4	21,8
308,8	17,514
309,3	12,6
309,8	10,371
310,2	7,714
310,7	6,686
311,1	3,971
311,6	6,686
312,1	11,143
312,5	16,257
313	16,629
313,4	15,2
313,9	15,629
314,4	13,229
314,8	5,6
315,3	4,429
315,7	-5,857
316,2	-5,743
316,7	-8,286
317,1	-5,114
317,6	-2,171
318	4,457
318,5	1,571
319	7,486
319,4	7,629
319,9	17,486
320,3	14,686
320,8	12,8
321,3	12,6
321,7	17,343
322,2	15,657
322,6	16,143
323,1	8,343
323,6	8,257
324	8,114
324,5	5,343
324,9	4,514
325,4	5,343
325,9	11,8
326,3	14
326,8	14,429
327,2	10,686
327,7	11,771
328,2	9,686
328,6	11,971
329,1	2,371
329,5	-0,486
330	-6,914
330,5	-1,429
330,9	0,743
331,4	4,2
331,8	1,114
332,3	4,971
332,8	8,6
333,2	12,457
333,7	15,971
334,1	13,486
334,6	9,8
335,1	6,571
335,5	4,8
336	3,171
336,4	6,514
336,9	9,029
337,4	12,057
337,8	16,8
338,3	22,4
338,7	26,857
339,2	25,571
339,7	25,086
340,1	18,829
340,6	18,114
341	10,714
341,5	11,257
342	6,229
342,4	8,914
342,9	7,686
343,3	4,629
343,8	4,114
344,2	4,971
344,7	7,914
345,2	8,6
345,6	8,657
346,1	9,343
346,5	8,371
347	4,943
347,5	6,486
347,9	6,371
348,4	8,857
348,8	6,829
349,3	4,629
349,8	9,371
350,2	17,771
350,7	16,571
351,1	14,686
351,6	18,286
352	22,886
352,5	27,857
353	36,114
353,4	37,971
353,9	48,543
354,3	56,4
354,8	62,629
355,3	78,629
355,7	91,514
356,2	104,714
356,6	121,086
357,1	142,257
357,5	167,914
358	194,714
358,5	220,457
358,9	256,857
359,4	294,143
359,8	337,914
360,3	390,257
360,8	442,886
361,2	507,543
361,7	579,514
362,1	658,4
362,6	744,514
363	835,257
363,5	930,229
364	1040,257
364,4	1143,829
364,9	1246,829
365,3	1350,2
365,8	1449,714
366,3	1537,914
366,7	1620,2
367,2	1688,8
367,6	1748,2
368,1	1798,771
368,5	1828,143
369	1835,971
369,5	1841,543
369,9	1821,657
370,4	1794,086
370,8	1756,086
371,3	1696,914
371,7	1633,571
372,2	1566,371
372,7	1489,229
373,1	1413,229
373,6	1327,771
374	1244,257
374,5	1163,543
374,9	1085,6
375,4	1009,371
375,9	934,429
376,3	865,943
376,8	797,286
377,2	732,886
377,7	669,486
378,2	608,514
378,6	555,457
379,1	507,086
379,5	463,543
380	426,886
380,4	383,914
380,9	352,886
381,4	323,229
381,8	302,286
382,3	282,314
382,7	259,086
383,2	238,914
383,6	228
384,1	212,629
384,6	202
385	188,743
385,5	175,771
385,9	164,829
386,4	153,257
386,8	145,629
387,3	135,714
387,7	129,486
388,2	121,057
388,7	114,171
389,1	108,886
389,6	102,6
390	95
390,5	92,257
390,9	85,629
391,4	77,914
391,9	70,4
392,3	65,2
392,8	60,829
393,2	54,343
393,7	47,857
394,1	41,486
394,6	40,171
395,1	47,343
395,5	46,771
396	49,086
396,4	45,2
396,9	45,943
397,3	49,686
397,8	48,229
398,2	42,2
398,7	39,914
399,2	33,829
399,6	37,914
400,1	36,571
400,5	31,629
401	31,514
401,4	28,743
401,9	30,143
402,4	33,8
402,8	31,457
403,3	37,571
403,7	38,029
404,2	39,229
404,6	38,057
405,1	36,686
405,5	31,4
406	30,029
406,5	21,057
406,9	25,314
407,4	22,286
407,8	24,514
408,3	26,171
408,7	26,343
409,2	33,371
409,6	41,714
410,1	40,4
410,6	48,286
411	50,543
411,5	52,914
411,9	58,343
412,4	59,4
412,8	61,629
413,3	61,171
413,7	59,429
414,2	59,486
414,7	64,114
415,1	68,943
415,6	72,457
416	73,143
416,5	77,314
416,9	81,2
417,4	83,771
417,8	89,686
418,3	92,571
418,8	94,429
419,2	91,857
419,7	94,029
420,1	93,686
420,6	95,857
421	92,714
421,5	99,2
421,9	98,886
422,4	105,2
422,8	105,857
423,3	108,486
423,8	109,771
424,2	107,114
424,7	100,057
425,1	100,571
425,6	102,343
426	100,714
426,5	102,543
426,9	105,4
427,4	105,343
427,9	107,4
428,3	110,571
428,8	110,257
429,2	112,886
429,7	114,657
430,1	115,371
430,6	118,686
431	117,029
431,5	119
431,9	114,2
432,4	115,971
432,8	115,629
433,3	113,429
433,8	115,857
434,2	119,457
434,7	117,6
435,1	123,686
435,6	130,657
436	132,6
436,5	145,771
436,9	146,8
437,4	153,057
437,8	161,343
438,3	167,286
438,8	170,943
439,2	177,429
439,7	181,629
440,1	196,257
440,6	207,943
441	210,486
441,5	218,943
441,9	229,543
442,4	233,971
442,8	241,429
443,3	249,543
443,7	255,371
444,2	272,286
444,7	285,086
445,1	295,029
445,6	311,171
446	325,029
446,5	335,543
446,9	346,029
447,4	357,029
447,8	371,714
448,3	389,171
448,7	409
449,2	428,486
449,6	446,714
450,1	464,486
450,6	485,086
451	503,143
451,5	517,457
451,9	537,914
452,4	554
452,8	571,686
453,3	596,543
453,7	615,029
454,2	637,714
454,6	660,743
455,1	682,4
455,5	704,429
456	731,429
456,4	752,886
456,9	777,886
457,3	803
457,8	824,571
458,3	851,057
458,7	875
459,2	900,057
459,6	929,771
460,1	961,114
460,5	985,114
461	1020
461,4	1039,8
461,9	1065,743
462,3	1095
462,8	1121,971
463,2	1145,171
463,7	1179,714
464,1	1213,257
464,6	1254,257
465	1291,429
465,5	1323,829
466	1361,314
466,4	1397,457
466,9	1432,686
467,3	1461,486
467,8	1493,143
468,2	1527,229
468,7	1562,686
469,1	1598,914
469,6	1632,429
470	1665,229
470,5	1706,057
470,9	1739,257
471,4	1770,143
471,8	1804,829
472,3	1843,6
472,7	1883,629
473,2	1913,257
473,6	1942,971
474,1	1982,771
474,5	2024,714
475	2061,943
475,4	2092,314
475,9	2128,143
476,4	2170
476,8	2210,343
477,3	2241,114
477,7	2275,143
478,2	2304,6
478,6	2331,314
479,1	2357,829
479,5	2383,4
480	2412,343
480,4	2445,314
480,9	2472
481,3	2502,143
481,8	2532,486
482,2	2558,971
482,7	2595,857
483,1	2625,886
483,6	2650,829
484	2677,143
484,5	2711,8
484,9	2738,286
485,4	2772,743
485,8	2795,429
486,3	2814,314
486,7	2845,286
487,2	2876,657
487,6	2893,886
488,1	2918,886
488,5	2938,229
489	2962,6
489,4	2989,486
489,9	3005,514
490,4	3023,771
490,8	3044,457
491,3	3073
491,7	3087,371
492,2	3106,143
492,6	3120,829
493,1	3138,286
493,5	3147,457
494	3154,4
494,4	3164
494,9	3186,629
495,3	3202,971
495,8	3214,771
496,2	3230,829
496,7	3244,4
497,1	3265,057
497,6	3277,6
498	3287,457
498,5	3296,914
498,9	3307
499,4	3317,943
499,8	3337,543
500,3	3355,2
500,7	3361,2
501,2	3369,914
501,6	3369,514
502,1	3380,629
502,5	3393,314
503	3402,314
503,4	3405,6
503,9	3413,714
504,3	3426,343
504,8	3434,971
505,2	3447,771
505,7	3451,857
506,1	3459,543
506,6	3460,886
507	3469,457
507,5	3473,571
507,9	3485,829
508,4	3490,543
508,8	3493,943
509,3	3496,714
509,7	3509
510,2	3518,2
510,6	3523,286
511,1	3530,429
511,5	3538,286
512	3544,943
512,4	3551,914
512,9	3556,114
513,3	3557,743
513,8	3564,4
514,2	3563,714
514,7	3570,457
515,1	3574,486
515,6	3572,057
516	3575,829
516,5	3582,657
516,9	3589,143
517,4	3602,171
517,8	3603,257
518,3	3611,8
518,7	3620,286
519,2	3627,486
519,6	3632,971
520,1	3638,143
520,5	3643,429
521	3645,286
521,4	3642,971
521,9	3651,057
522,3	3660,886
522,8	3660,171
523,2	3667,171
523,7	3668,629
524,1	3682,2
524,6	3690,857
525	3696,914
525,5	3693,943
525,9	3709,914
526,4	3713,286
526,8	3721,771
527,3	3720,086
527,7	3731,8
528,2	3736,343
528,6	3743,886
529,1	3747,371
529,5	3756,914
530	3769,143
530,4	3781,543
530,9	3785,743
531,3	3797,057
531,8	3809
532,2	3814,057
532,6	3815,171
533,1	3813,714
533,5	3823,457
534	3826,514
534,4	3832,457
534,9	3836,457
535,3	3843,286
535,8	3848,343
536,2	3865,429
536,7	3873,343
537,1	3882,914
537,6	3893,743
538	3906,743
538,5	3919,086
538,9	3932,543
539,4	3941,629
539,8	3943,486
540,3	3957,486
540,7	3964,943
541,2	3972,857
541,6	3980,657
542,1	3990,314
542,5	3994,714
543	4000,457
543,4	4005,486
543,9	4013,457
544,3	4025,771
544,8	4034,943
545,2	4045,714
545,7	4055,429
546,1	4075,8
546,5	4089,2
547	4100,486
547,4	4106,171
547,9	4114,943
548,3	4122,429
548,8	4131,714
549,2	4129,314
549,7	4135,686
550,1	4143,486
550,6	4148,229
551	4158,743
551,5	4157,914
551,9	4163,6
552,4	4171,857
552,8	4183,343
553,3	4185,114
553,7	4185,857
554,2	4187,571
554,6	4205,286
555,1	4210,457
555,5	4216,6
555,9	4213,229
556,4	4221,457
556,8	4233,171
557,3	4247,229
557,7	4252,514
558,2	4258,057
558,6	4274,286
559,1	4281,143
559,5	4289
560	4298,686
560,4	4300,486
560,9	4301,829
561,3	4308,114
561,8	4309,857
562,2	4318,229
562,7	4321,371
563,1	4322,143
563,6	4322,114
564	4329,114
564,4	4332,6
564,9	4335,743
565,3	4343,6
565,8	4344,743
566,2	4350,229
566,7	4361,543
567,1	4365,686
567,6	4366,114
568	4372,286
568,5	4365
568,9	4368,943
569,4	4371,571
569,8	4366,686
570,3	4363,971
570,7	4364,571
571,1	4365,886
571,6	4376,914
572	4375,543
572,5	4375,914
572,9	4372,429
573,4	4371,914
573,8	4384,286
574,3	4379,229
574,7	4379,514
575,2	4383,8
575,6	4388,514
576,1	4397,257
576,5	4401,514
576,9	4391,371
577,4	4386,286
577,8	4381,971
578,3	4378,343
578,7	4368
579,2	4365,6
579,6	4360,743
580,1	4357,8
580,5	4358,486
581	4357,857
581,4	4353,943
581,9	4349,429
582,3	4338,343
582,7	4331,429
583,2	4324,343
583,6	4322,314
584,1	4311,029
584,5	4301,171
585	4301,057
585,4	4294,686
585,9	4290,6
586,3	4286,2
586,8	4277,686
587,2	4272,171
587,6	4272,2
588,1	4263,629
588,5	4258,4
589	4250,771
589,4	4244,343
589,9	4238,029
590,3	4228,714
590,8	4219,914
591,2	4213,629
591,7	4208,371
592,1	4203,457
592,5	4201,657
593	4191,686
593,4	4183,143
593,9	4172,029
594,3	4163,6
594,8	4155,8
595,2	4149,771
595,7	4138,057
596,1	4131,286
596,6	4132,171
597	4122,143
597,4	4117,029
597,9	4107,657
598,3	4098,257
598,8	4088,229
599,2	4085,114
599,7	4074,457
600,1	4067,314
600,6	4054,943
601	4043,971
601,4	4040,4
601,9	4034,657
602,3	4021,8
602,8	4008,857
603,2	4004,8
603,7	3990,486
604,1	3983,229
604,6	3969,371
605	3947,686
605,4	3938
605,9	3926,943
606,3	3917
606,8	3904,943
607,2	3897,171
607,7	3883,429
608,1	3882,314
608,6	3876,571
609	3866,857
609,4	3856,371
609,9	3846,029
610,3	3829,657
610,8	3818,657
611,2	3806,257
611,7	3786
612,1	3768
612,6	3756,029
613	3748,914
613,4	3735,4
613,9	3719,857
614,3	3705,743
614,8	3695,857
615,2	3688,714
615,7	3672,143
616,1	3661,171
616,6	3651,457
617	3632,714
617,4	3617,914
617,9	3605,657
618,3	3590,743
618,8	3577,543
619,2	3562,514
619,7	3547,6
620,1	3539,714
620,5	3530,8
621	3513,429
621,4	3498,314
621,9	3485,457
622,3	3465,857
622,8	3452,057
623,2	3438,514
623,6	3421,486
624,1	3407,429
624,5	3391,629
625	3378,229
625,4	3365,914
625,9	3347,371
626,3	3333,343
626,8	3317,4
627,2	3302,857
627,6	3279,286
628,1	3255,571
628,5	3244,143
629	3226,171
629,4	3204,486
629,9	3187,343
630,3	3165,371
630,7	3155,486
631,2	3145,657
631,6	3122,514
632,1	3110,171
632,5	3100,229
633	3085
633,4	3070,143
633,8	3055,686
634,3	3037,8
634,7	3019,657
635,2	3001,857
635,6	2982,886
636,1	2969,743
636,5	2951,771
636,9	2929,971
637,4	2911,029
637,8	2895,657
638,3	2880,314
638,7	2863,486
639,2	2846,771
639,6	2835,229
640	2828,343
640,5	2821,886
640,9	2810,4
641,4	2794,857
641,8	2783,486
642,2	2765,429
642,7	2749,857
643,1	2738,343
643,6	2715,6
644	2703,943
644,5	2695,914
644,9	2684,314
645,3	2672,571
645,8	2657,457
646,2	2641,6
646,7	2629,029
647,1	2615,6
647,6	2597,171
648	2580,2
648,4	2560,514
648,9	2550,857
649,3	2535,943
649,8	2525,171
650,2	2515,286
650,6	2502,714
651,1	2489,514
651,5	2484,143
652	2464,029
652,4	2454,257
652,9	2440,371
653,3	2425
653,7	2414,371
654,2	2400
654,6	2381,543
655,1	2377,771
655,5	2365,943
655,9	2353,6
656,4	2332,143
656,8	2319,543
657,3	2307,829
657,7	2297,886
658,2	2279,714
658,6	2261,743
659	2241,714
659,5	2233,857
659,9	2217,543
660,4	2208,114
660,8	2190,429
661,2	2179,657
661,7	2166,629
662,1	2156,857
662,6	2143,714
663	2133,086
663,4	2116,229
663,9	2109,457
664,3	2095,257
664,8	2074,571
665,2	2064,057
665,6	2046,886
666,1	2032,029
666,5	2021,086
667	2006,229
667,4	1991,886
667,9	1982,343
668,3	1965,343
668,7	1955,886
669,2	1945,114
669,6	1925,571
670,1	1916,571
670,5	1904,771
670,9	1892,114
671,4	1883,257
671,8	1875,543
672,3	1871
672,7	1863,657
673,1	1845,943
673,6	1831,6
674	1826,2
674,5	1816,457
674,9	1796,657
675,3	1773,143
675,8	1759,657
676,2	1749,086
676,7	1734
677,1	1719,743
677,5	1705,514
678	1701,686
678,4	1693,114
678,9	1684,029
679,3	1673,057
679,7	1669,171
680,2	1655,429
680,6	1641,8
681,1	1628,743
681,5	1621,714
681,9	1613,829
682,4	1601,429
682,8	1593,257
683,3	1588,914
683,7	1581,914
684,1	1574,029
684,6	1558,743
685	1545,429
685,5	1535,657
685,9	1519,514
686,3	1502,857
686,8	1491,286
687,2	1478,886
687,7	1464,971
688,1	1449,886
688,5	1442,4
689	1436,143
689,4	1427,029
689,9	1419,914
690,3	1407,8
690,7	1405,943
691,2	1401,857
691,6	1393,457
692	1381,771
692,5	1378,286
692,9	1370,771
693,4	1362,086
693,8	1352,8
694,2	1343,829
694,7	1333,114
695,1	1323,514
695,6	1313,343
696	1302,543
696,4	1294,714
696,9	1282,571
697,3	1269,943
697,8	1261,257
698,2	1254,086
698,6	1247,943
699,1	1236,657
699,5	1231,829
699,9	1224,086
700,4	1218,057
700,8	1211,543
701,3	1204,029
701,7	1189,486
702,1	1183,257
702,6	1173
703	1166,229
703,5	1155,6
703,9	1144,429
704,3	1139,771
704,8	1135,829
705,2	1123
705,6	1113,971
706,1	1102,086
706,5	1092,114
707	1086,943
707,4	1077,171
707,8	1064,029
708,3	1061,114
708,7	1057,2
709,2	1053,714
709,6	1046,771
710	1043,8
710,5	1036,514
710,9	1033,229
711,3	1025,114
711,8	1016,943
712,2	1007,629
712,7	1004,571
713,1	996,714
713,5	991,829
714	984,914
714,4	979,286
714,8	970,029
715,3	959,543
715,7	957,2
716,2	944,8
716,6	938,8
717	930,686
717,5	925,971
717,9	925,743
718,3	919,429
718,8	911,086
719,2	903,2
719,7	893,571
720,1	887,8
720,5	877,429
721	864,514
721,4	859,743
721,8	853,429
722,3	846,629
722,7	841,114
723,2	828,314
723,6	816,057
724	808,286
724,5	800,257
724,9	788,486
725,3	783,571
725,8	774,314
726,2	772,286
726,7	770,371
727,1	764,257
727,5	760,857
728	756,771
728,4	751,8
728,8	746,543
729,3	742,343
729,7	739,971
730,1	733,371
730,6	731,629
731	726,686
731,5	719,686
731,9	716,057
732,3	712,571
732,8	711,029
733,2	710,914
733,6	704
734,1	700,629
734,5	699,4
734,9	695,857
735,4	692,514
735,8	682,886
736,3	683,886
736,7	678,914
737,1	677,629
737,6	672,314
738	668,029
738,4	662,486
738,9	657,8
739,3	645,371
739,7	641,029
740,2	630,571
740,6	630,971
741,1	631,429
741,5	624,143
741,9	621,171
742,4	623,086
742,8	621,429
743,2	620,6
743,7	612,6
744,1	599,914
744,5	597,086
745	597,029
745,4	587,343
745,8	585,857
746,3	582,714
746,7	578,371
747,2	575,286
747,6	578,914
748	574,486
748,5	574,629
748,9	563,486
749,3	555,971
749,8	551,829
750,2	554,086
750,6	541,771
751,1	538,4
751,5	531,114
751,9	534,4
752,4	534,2
752,8	535
753,3	531,714
753,7	535,857
754,1	526,886
754,6	517,6
755	508,686
755,4	502,857
755,9	498,686
756,3	491,114
756,7	485,314
757,2	484,343
757,6	487,8
758	488,629
758,5	486,371
758,9	480,457
759,3	475,171
759,8	471,686
760,2	469,6
760,6	466,257
761,1	460,171
761,5	456,486
761,9	453,314
762,4	450,029
762,8	442,371
763,3	437,229
763,7	435,743
764,1	432,6
764,6	434,171
765	431,2
765,4	431,686
765,9	432,543
766,3	435,286
766,7	429,371
767,2	426,514
767,6	421,743
768	417,657
768,5	413,971
768,9	409,2
769,3	405,629
769,8	401,429
770,2	400,571
770,6	395,8
771,1	392,943
771,5	389,943
771,9	392,686
772,4	391,2
772,8	388,829
773,2	384,971
773,7	382,229
774,1	378,8
774,5	374,943
775	364,886
775,4	359,6
775,8	358,743
776,3	357,943
776,7	356,143
777,1	359,543
777,6	358,8
778	367,057
778,4	363
778,9	360,114
779,3	356,657
779,7	354,914
780,2	348,114
780,6	345,057
781	334,229
781,5	329,486
781,9	325,086
782,3	316,829
782,8	313,629
783,2	306,171
783,6	307,343
784,1	303,971
784,5	303,714
784,9	306,857
785,4	309,743
785,8	309,914
786,2	313,686
786,7	310,143
787,1	306,286
787,5	303
788	296,743
788,4	297,943
788,8	294,6
789,3	288,714
789,7	287,171
790,1	288,457
790,6	289,686
791	290,286
791,4	289,543
791,9	285,257
792,3	282,686
792,7	280,486
793,2	275,514
793,6	273,057
794	268,743
794,5	261,657
794,9	263,2
795,3	267,857
795,8	262
796,2	267,486
796,6	262,143
797,1	259,086
797,5	253,514
797,9	249,714
798,4	240,971
798,8	244,886
799,2	238,371
799,7	241
800,1	238,086
800,5	240,8
801	241,571
801,4	240,286
801,8	230,6
802,2	227,914
802,7	222,086
803,1	223,514
803,5	221,629
804	213,143
804,4	212,943
804,8	213,2
805,3	216,171
805,7	215,571
806,1	212,829
806,6	210,6
807	211,543
807,4	212,229
807,9	207,057
808,3	203,057
808,7	199,686
809,2	202,257
809,6	206,171
810	206,286
810,4	206
810,9	207,514
811,3	207,314
811,7	206,914
812,2	207,086
812,6	200,829
813	204,943
813,5	202,229
813,9	201,886
814,3	197,457
814,8	198,543
815,2	192,229
815,6	189,286
816,1	184,886
816,5	182,714
816,9	185,286
817,3	184,514
817,8	181,857
818,2	180,8
818,6	174,6
819,1	170,971
819,5	168,514
819,9	167,771
820,4	165,6
820,8	166,171
821,2	159,029
821,7	165,657
822,1	168,229
822,5	169,029
822,9	164,629
823,4	166,343
823,8	166,114
824,2	170,8
824,7	164,629
825,1	155,886
825,5	152,857
826	151,229
826,4	147,829
826,8	146,429
827,3	149,086
827,7	148,4
828,1	148,743
828,5	147,971
829	142,457
829,4	142,114
829,8	135,6
830,3	130,114
830,7	128,714
831,1	129,914
831,6	130,257
832	130,686
832,4	126,229
832,8	130,571
833,3	127,657
833,7	125,286
834,1	123,743
834,6	118,371
835	123,229
835,4	127,686
835,8	119,857
836,3	118,4
836,7	121,343
837,1	119,714
837,6	125,086
838	119,743
838,4	115,2
838,9	118,114
839,3	116,857
839,7	115,314
840,1	111,286
840,6	110,229
841	111,229
841,4	110,8
841,9	109,771
842,3	111,886
842,7	111,714
843,1	114,829
843,6	114,457
844	112,143
844,4	114,629
844,9	114
845,3	112,029
845,7	109,743
846,2	106,743
846,6	102,229
847	106,029
847,4	104,8
847,9	102,086
848,3	99,857
848,7	98,6
849,2	98,486
849,6	91,4
850	88,029
850,4	83,743
850,9	84,286
851,3	84,743
851,7	84,771
852,2	85,657
852,6	91,886
853	90,714
853,4	93,829
853,9	92,086
854,3	93,571
854,7	94,914
855,2	91,457
855,6	93,8
856	90,686
856,4	83,971
856,9	84,886
857,3	81,629
857,7	83,314
858,2	87,286
858,6	82,714
859	83,514
859,4	87,229
859,9	85,286
860,3	86,829
860,7	84,943
861,1	81,657
861,6	79,514
862	80,6
862,4	77,086
862,9	75,857
863,3	73,429
863,7	69,171
864,1	69,429
864,6	67,714
865	65,714
865,4	66,743
865,9	68,143
866,3	64,829
866,7	64,514
867,1	59,229
867,6	64,6
868	64,657
868,4	62,086
868,8	61,629
869,3	63,486
869,7	67,971
870,1	64,143
870,6	61,943
871	-9,943
871,4	-2,8
871,8	-3,171
872,3	-2,314
872,7	-5,657
873,1	-3,229
873,5	-3,286
874	66,686
874,4	60,314
874,8	59,086
875,3	58,686
875,7	56,8
876,1	61,686
876,5	60
877	57,086
877,4	54,2
877,8	55,286
878,2	58,943
878,7	62,686
879,1	59,086
879,5	57,429
879,9	56,657
880,4	58,429
880,8	54,743
881,2	49,2
881,7	42,171
882,1	45,743
882,5	45,057
882,9	47,829
883,4	47,086
883,8	47,857
884,2	48,514
884,6	51,029
885,1	48,171
885,5	50,714
885,9	48,286
886,3	51,086
886,8	50,457
887,2	48,857
887,6	48,057
888	45,771
888,5	46,8
888,9	48,743
889,3	41,114
889,8	43
890,2	44,029
890,6	39,914
891	40,257
891,5	37,2
891,9	36,886
892,3	44,286
892,7	45,143
893,2	45,8
893,6	51,286
894	53,257
894,4	48,771
894,9	48,229
895,3	44,8
895,7	47,143
896,1	43,086
896,6	42,286
897	42,171
897,4	47,2
897,8	49,314
898,3	48,914
898,7	41,971
899,1	42,629
899,5	41,943
900	36,543
900,4	34,943
900,8	28,857
901,2	26,257
901,7	25,429
902,1	29,2
902,5	27,943
902,9	30
903,4	33,086
903,8	35,4
904,2	37,886
904,6	42,286
905,1	41,886
905,5	44,543
905,9	45,857
906,3	45,543
906,8	48,343
907,2	48,514
907,6	45,629
908	45,114
908,5	39,2
908,9	36,486
909,3	35,114
909,7	32,057
910,2	31,286
910,6	35,171
911	28,086
911,4	30,914
911,9	32,314
912,3	29,914
912,7	35,429
913,1	36,114
913,6	32,686
914	38,171
914,4	36,943
914,8	39,971
915,3	38,086
915,7	34,829
916,1	32,429
916,5	33,371
916,9	29,829
917,4	29,857
917,8	27,286
918,2	22,8
918,6	15,343
919,1	17,114
919,5	16,686
919,9	21,571
920,3	19,8
920,8	17,914
921,2	18,743
921,6	19,8
922	22,6
922,5	21,4
922,9	19,571
923,3	20
923,7	22,114
924,2	26,771
924,6	29,857
925	25,2
925,4	24,143
925,8	21,429
926,3	23,371
926,7	19,057
927,1	16,943
927,5	19,514
928	19,143
928,4	15,771
928,8	17,229
929,2	14,629
929,7	19,6
930,1	22,886
930,5	19,6
930,9	24,486
931,3	28,429
931,8	31,657
932,2	33,171
932,6	26,943
933	18,343
933,5	21,343
933,9	16,257
934,3	18,343
934,7	12,343
935,2	13,086
935,6	19,371
936	27,886
936,4	24,571
936,8	28,629
937,3	24,343
937,7	29,2
938,1	31,114
938,5	23,086
939	19,2
939,4	21,571
939,8	20,171
940,2	21,114
940,6	19,743
941,1	18,6
941,5	24,486
941,9	21,057
942,3	19,571
942,8	18,543
943,2	21,6
943,6	17,543
944	11,314
944,4	11,571
944,9	15,171
945,3	14,6
945,7	8,914
946,1	2,886
946,6	3,657
947	6,057
947,4	6,429
947,8	5,914
948,2	4,4
948,7	6,971
949,1	7,886
949,5	12,371
949,9	11,886
950,3	12,171
950,8	12,8
951,2	16,029
951,6	14,943
952	19
952,5	15,343
952,9	20,457
953,3	18,314
953,7	18,686
954,1	18,343
954,6	20,714
955	22,029
955,4	18,943
955,8	16,257
956,2	15,6
956,7	14,771
957,1	10,314
957,5	11,429
957,9	5,343
958,3	8,2
958,8	10
959,2	15,629
959,6	18,457
960	15,743
960,5	18,686
960,9	23,486
961,3	21,886
961,7	15,943
962,1	13,257
962,6	11,971
963	17,171
963,4	11,686
963,8	8,4
964,2	9,657
964,7	14,543
965,1	14,286
965,5	14,857
965,9	13,371
966,3	16,086
966,8	17,657
967,2	21,257
967,6	18,514
968	15,886
968,4	14,686
968,9	17,086
969,3	20,486
969,7	18,4
970,1	15,857
970,5	13,343
971	14,457
971,4	13,743
971,8	12,2
972,2	8,829
972,6	7,486
973,1	4,914
973,5	8,457
973,9	10,571
974,3	11,686
974,7	14,057
975,2	13,543
975,6	14,743
976	16,771
976,4	14,686
976,8	12,4
977,3	10,257
977,7	6,371
978,1	6,486
978,5	2,429
978,9	3,429
979,4	1,743
979,8	0,2
980,2	2,086
980,6	2,314
981	1,343
981,5	3,029
981,9	2,171
982,3	3,6
982,7	8,6
983,1	1,943
983,6	3,229
984	3,371
984,4	2,429
984,8	-0,029
985,2	-0,114
985,6	-2,829
986,1	2,514
986,5	2,714
986,9	-2,486
987,3	1,543
987,7	4,686
988,2	4,057
988,6	6
989	7,629
989,4	6,086
989,8	10,429
990,3	10,4
990,7	7,686
991,1	12,371
991,5	9,914
991,9	9,057
992,3	12,629
992,8	14,857
993,2	14,229
993,6	17,371
994	18,143
994,4	21,457
994,9	21,114
995,3	19,514
995,7	13,8
996,1	12,257
996,5	10,943
996,9	4,6
997,4	5,829
997,8	3,914
998,2	0,257
998,6	-0,629
999	0,286
999,5	-1,486
999,9	0,143
1000,3	-4,886
1000,7	-4,429
1001,1	-4,4
1001,5	-1,314
1002	1,971
1002,4	3,714
1002,8	6,229
1003,2	5,543
1003,6	9,2
1004	15,143
1004,5	13,657
1004,9	11,286
1005,3	4,314
1005,7	2,571
1006,1	0,6
1006,6	-0,314
1007	-3,629
1007,4	-4,314
1007,8	-4,829
1008,2	-2,257
1008,6	-1,4
1009,1	1,686
1009,5	-0,971
1009,9	1,086
1010,3	6,029
1010,7	8,171
1011,1	11,314
1011,6	14,771
1012	14,743
1012,4	15,343
1012,8	14,971
1013,2	19,114
1013,6	21,686
1014,1	23,657
1014,5	21,457
1014,9	19,914
1015,3	19,257
1015,7	17,343
1016,1	12,2
1016,6	10,943
1017	9,886
1017,4	8,343
1017,8	11,343
1018,2	14,457
1018,6	11,257
1019,1	11,886
1019,5	9,457
1019,9	4,2
1020,3	3,257
1020,7	1,4
1021,1	-2,2
1021,6	-1,543
1022	2,429
1022,4	4,6
1022,8	9,6
1023,2	10,314
1023,6	8,686
1024,1	17,571
1024,5	20,971
1024,9	17,714
1025,3	16,371
1025,7	17,714
1026,1	22,6
1026,6	26,6
1027	20,743
1027,4	22
1027,8	19,743
1028,2	15,657
1028,6	19,657
1029	15,343
1029,5	13,486
1029,9	9,314
1030,3	7,829
1030,7	7
1031,1	12,714
1031,5	6,343
1032	7,229
1032,4	8
1032,8	13,8
1033,2	18,943
1033,6	19,257
1034	18,6
1034,4	20,143
1034,9	19,143
1035,3	17,657
1035,7	16,371
1036,1	5,771
1036,5	1,371
1036,9	0,857
1037,4	0,343
1037,8	-0,857
1038,2	-1,229
1038,6	-3,114
1039	5,171
1039,4	18,2
1039,8	14,657
1040,3	10,143
1040,7	10,6
1041,1	15,171
1041,5	19,657
1041,9	16,057
1042,3	10,543
1042,7	17,286
1043,2	20,543
1043,6	20,457
1044	16,286
1044,4	14,686
1044,8	13,286
1045,2	10,429
1045,6	5,229
1046,1	3,8
1046,5	4,457
1046,9	3
1047,3	3,571
1047,7	7,486
1048,1	6,629
1048,5	5,629
1049	10,629
1049,4	15,6
1049,8	16,229
1050,2	12
1050,6	14,657
1051	19,629
1051,4	24,943
1051,9	21,657
1052,3	21,229
1052,7	21,657
1053,1	22,086
1053,5	19,914
1053,9	14,886
1054,3	13,914
1054,8	20,286
1055,2	19,714
1055,6	24,6
1056	24,629
1056,4	21,343
1056,8	23,743
1057,2	20,886
1057,6	13,057
1058,1	10,743
1058,5	0,943
1058,9	2,629
1059,3	4,829
1059,7	4,057
1060,1	2,886
1060,5	6,371
1061	6,743
1061,4	7,6
1061,8	8,771
1062,2	6,314
1062,6	7,257
1063	9,829
1063,4	10,2
1063,8	7,143
1064,3	11,686
1064,7	10,486
1065,1	9,257
1065,5	9,6
1065,9	8
1066,3	2,486
1066,7	2
1067,1	-1,829
1067,6	3,114
1068	1,371
1068,4	4,229
1068,8	5,857
1069,2	11
1069,6	8,486
1070	13,229
1070,4	6,257
1070,9	6,629
1071,3	-1,657
1071,7	-4,229
1072,1	-6,571
1072,5	-2,571
1072,9	-3,229
1073,3	1,343
1073,7	4,457
1074,2	8,086
1074,6	11,543
1075	14,686
1075,4	15,886
1075,8	18,571
1076,2	16
1076,6	17,314
1077	15,629
1077,5	14,457
1077,9	10,2
1078,3	9,857
1078,7	9,543
1079,1	9,029
1079,5	4,657
1079,9	9,114
1080,3	7,543
1080,7	10,4
1081,2	12,143
1081,6	10,143
1082	6,857
1082,4	13,629
1082,8	15,4
1083,2	14,743
1083,6	15,657
1084	13,457
1084,5	15,429
1084,9	12,857
1085,3	6,029
1085,7	2,486
1086,1	5,343
1086,5	8,2
1086,9	8,686
1087,3	5,171
1087,7	10,114
1088,2	15,029
1088,6	13,8
1089	11,343
1089,4	7,229
1089,8	9,057
1090,2	7,257
1090,6	7,629
1091	5,914
1091,4	10,314
1091,9	11,229
1092,3	11,029
1092,7	7,343
1093,1	11,514
1093,5	11,686
1093,9	10,029
1094,3	13,371
1094,7	12,886
1095,1	15,371
1095,5	16,086
1096	13,8
1096,4	13,714
1096,8	16,686
1097,2	10,429
1097,6	12,286
1098	10,971
1098,4	15,314
1098,8	16,457
1099,2	20,2
1099,6	20,286
1100,1	18,4
1100,5	15,457
1100,9	13,571
1101,3	10,229
1101,7	8,2
1102,1	4,543
1102,5	5,486
1102,9	6,543
1103,3	11,114
1103,7	14,086
1104,2	15,314
1104,6	14,886
1105	12,086
1105,4	9,457
1105,8	8,286
1106,2	3,714
1106,6	0,6
1107	-2,057
1107,4	-1,733
1107,8	0,68
1108,3	-0,25
