Data from Subt2_194.txt Node
Date: Sat Aug 26 18:43:03 MSK 2023
User: vat
Spectrometer: MAYP114033
Trigger mode: 0
Integration Time (sec): 1,000000E0
Scans to average: 5
Electric dark correction enabled: true
Nonlinearity correction enabled: false
Boxcar width: 3
XAxis mode: Wavelengths
Number of Pixels in Spectrum: 2068
>>>>>Begin Spectral Data<<<<<
199,4	-0,7
199,9	1,18
200,4	1,4
200,8	0,7
201,3	-0,586
201,8	0,129
202,2	-1,929
202,7	3,986
203,2	1,329
203,6	-0,3
204,1	-3,3
204,6	-1,014
205	1,186
205,5	2,871
206	-1,443
206,4	-0,671
206,9	-1,1
207,4	4,814
207,8	4,129
208,3	0,157
208,8	0,357
209,2	1,529
209,7	3,671
210,2	6,929
210,6	7,157
211,1	5,1
211,5	2,157
212	-1,214
212,5	-5,671
212,9	-11,471
213,4	-10,671
213,9	-12,614
214,3	-8,614
214,8	-2,871
215,3	-0,043
215,7	5,014
216,2	11,929
216,7	11,414
217,1	8,786
217,6	8,957
218,1	7,671
218,5	8,1
219	-0,129
219,5	-2,671
219,9	-6,671
220,4	0,9
220,9	-2,529
221,3	-4,386
221,8	-2,271
222,3	5,071
222,7	5,671
223,2	7,957
223,6	2,271
224,1	4,043
224,6	7,329
225	5,071
225,5	2,271
226	3,1
226,4	3,757
226,9	4,186
227,4	5,671
227,8	-1,671
228,3	-2,1
228,8	-1,729
229,2	-0,557
229,7	-0,014
230,2	-0,214
230,6	2,586
231,1	13,3
231,5	16,386
232	15,786
232,5	10,243
232,9	11,871
233,4	15,186
233,9	7,671
234,3	4,614
234,8	3,843
235,3	2,271
235,7	6,214
236,2	1,929
236,7	-1,643
237,1	2,614
237,6	-1,357
238,1	-3,014
238,5	-3,614
239	-3,986
239,4	3,986
239,9	4,7
240,4	5,043
240,8	7,271
241,3	6,214
241,8	10,386
242,2	10,757
242,7	2,129
243,2	1,1
243,6	-0,586
244,1	3,014
244,6	5,071
245	4,3
245,5	0,243
245,9	-0,071
246,4	-0,214
246,9	0,386
247,3	-1,3
247,8	-0,814
248,3	-1,529
248,7	1,386
249,2	6,7
249,7	8,786
250,1	10,729
250,6	8,3
251	6,729
251,5	6,643
252	5,871
252,4	3,529
252,9	-1,786
253,4	-5,357
253,8	-5,757
254,3	-4,729
254,8	-2,871
255,2	-6,471
255,7	-7,043
256,1	0,929
256,6	2,614
257,1	1,557
257,5	0,3
258	-3,271
258,5	5,671
258,9	6,443
259,4	3,7
259,9	4,614
260,3	3,529
260,8	1,329
261,2	3,786
261,7	0,014
262,2	-3,471
262,6	-6,671
263,1	-5,786
263,6	-2,729
264	-1,443
264,5	0,929
264,9	0,357
265,4	6,071
265,9	6,729
266,3	6,957
266,8	8,7
267,3	11,3
267,7	6,729
268,2	9,243
268,7	7,586
269,1	8,757
269,6	3,843
270	5,071
270,5	0,986
271	2,1
271,4	-2,043
271,9	-6,929
272,4	-4,643
272,8	0,529
273,3	-3,014
273,7	0,786
274,2	2,843
274,7	5,271
275,1	11,957
275,6	8,414
276,1	2,1
276,5	5,357
277	4,5
277,4	1,7
277,9	3,3
278,4	1,757
278,8	4,1
279,3	7,814
279,8	7,729
280,2	6,471
280,7	10,557
281,1	4,757
281,6	5,786
282,1	4,671
282,5	5,214
283	3,871
283,4	4,843
283,9	4,186
284,4	12,071
284,8	10,1
285,3	7,929
285,8	4,214
286,2	4,1
286,7	5,529
287,1	0,357
287,6	-1,043
288,1	-6,871
288,5	-2,043
289	1,929
289,5	3,957
289,9	1,271
290,4	8,157
290,8	8,671
291,3	14,729
291,8	14,786
292,2	11,471
292,7	11,586
293,1	11,814
293,6	11,043
294,1	7,7
294,5	7,357
295	7,414
295,5	9,186
295,9	6,929
296,4	4,471
296,8	0,757
297,3	-1,071
297,8	-2,614
298,2	-7,5
298,7	-3,129
299,1	-3,9
299,6	-0,1
300,1	3,243
300,5	8,586
301	7,786
301,5	13,843
301,9	8,986
302,4	5,357
302,8	5,157
303,3	2,7
303,8	-3,986
304,2	-0,643
304,7	-3,214
305,1	-4,557
305,6	-2,014
306,1	2,7
306,5	4,386
307	9,271
307,4	11,757
307,9	8,386
308,4	8,643
308,8	4,557
309,3	1,929
309,8	-1,9
310,2	-2,043
310,7	-10,1
311,1	-4,871
311,6	-1,843
312,1	3,186
312,5	3,157
313	6,843
313,4	3,5
313,9	10,043
314,4	5,357
314,8	3,129
315,3	3,7
315,7	-4,871
316,2	-8,243
316,7	-4,414
317,1	-3,3
317,6	-1,557
318	3,814
318,5	5,529
319	9,586
319,4	12,986
319,9	15,043
320,3	10,014
320,8	10,671
321,3	6,786
321,7	7,7
322,2	7,529
322,6	4,529
323,1	-0,871
323,6	0,557
324	-1,529
324,5	-3,357
324,9	-6,243
325,4	-3,043
325,9	0,814
326,3	3,557
326,8	6,3
327,2	5,443
327,7	4,214
328,2	3,671
328,6	5,414
329,1	-2,986
329,5	-5,214
330	-11,929
330,5	-9,986
330,9	-6,643
331,4	-5,214
331,8	-8,243
332,3	0,986
332,8	3,5
333,2	9,643
333,7	11,157
334,1	13,843
334,6	11,871
335,1	7,014
335,5	6,986
336	2,671
336,4	2,357
336,9	8,586
337,4	8,414
337,8	8,129
338,3	11,214
338,7	11,7
339,2	12,186
339,7	13,614
340,1	2,643
340,6	-0,757
341	-1,386
341,5	2,271
342	-1,871
342,4	-0,7
342,9	-4,071
343,3	0,929
343,8	4,386
344,2	6,1
344,7	9,5
345,2	9,043
345,6	13,7
346,1	12,814
346,5	4,7
347	1,843
347,5	0,957
347,9	-1,557
348,4	0,386
348,8	-1,643
349,3	2,071
349,8	10,757
350,2	17,671
350,7	18,014
351,1	18,014
351,6	19,014
352	22,243
352,5	25,271
353	37,043
353,4	41,3
353,9	54,1
354,3	64,471
354,8	78,643
355,3	97,043
355,7	119,443
356,2	137,757
356,6	162,129
357,1	192,843
357,5	226,3
358	266,9
358,5	305,014
358,9	350,386
359,4	405,129
359,8	462,929
360,3	531,671
360,8	606,129
361,2	688,471
361,7	785,186
362,1	894,671
362,6	1003,9
363	1130,557
363,5	1260,614
364	1407,014
364,4	1547,729
364,9	1689,929
365,3	1826,243
365,8	1962,586
366,3	2084,986
366,7	2198,929
367,2	2294,471
367,6	2377,414
368,1	2444,814
368,5	2484,414
369	2505,671
369,5	2510,614
369,9	2490,986
370,4	2447,671
370,8	2393,3
371,3	2319,9
371,7	2241,129
372,2	2147,586
372,7	2043,9
373,1	1931,129
373,6	1821,786
374	1713,129
374,5	1597,214
374,9	1487,129
375,4	1382,529
375,9	1278,014
376,3	1186,243
376,8	1095,729
377,2	1008,671
377,7	926,7
378,2	848,157
378,6	773,786
379,1	710,329
379,5	648,5
380	596,929
380,4	543,386
380,9	499,386
381,4	455,414
381,8	422,443
382,3	390,871
382,7	362,414
383,2	335,071
383,6	310,071
384,1	294,5
384,6	276,929
385	255,871
385,5	237,614
385,9	220,786
386,4	203,586
386,8	194,1
387,3	177,014
387,7	166,1
388,2	154,443
388,7	145,529
389,1	136,529
389,6	130,7
390	119,471
390,5	112,586
390,9	104,786
391,4	99,1
391,9	90,757
392,3	84,929
392,8	71,557
393,2	64,186
393,7	58,357
394,1	54,214
394,6	52,1
395,1	52,471
395,5	50,186
396	54,157
396,4	55,3
396,9	52,757
397,3	55,414
397,8	59,214
398,2	58,929
398,7	62,186
399,2	62,357
399,6	60,957
400,1	61,214
400,5	56,186
401	54,014
401,4	47,357
401,9	42,157
402,4	40,386
402,8	38,7
403,3	43,214
403,7	42,014
404,2	42,129
404,6	46,643
405,1	43,129
405,5	42,843
406	45,043
406,5	40,329
406,9	44,3
407,4	43,7
407,8	45,129
408,3	52,5
408,7	54,1
409,2	58,814
409,6	63,986
410,1	68,1
410,6	70,671
411	75,986
411,5	77,786
411,9	85,414
412,4	89,586
412,8	97,271
413,3	100,071
413,7	107,957
414,2	112,329
414,7	122,443
415,1	132,586
415,6	140,643
416	144,386
416,5	154,471
416,9	158,614
417,4	172,186
417,8	188,214
418,3	197,586
418,8	207,557
419,2	222,157
419,7	234,243
420,1	247,3
420,6	256,643
421	260,186
421,5	273,129
421,9	286,929
422,4	299,957
422,8	312,186
423,3	325,843
423,8	336,729
424,2	352,357
424,7	364,786
425,1	381,243
425,6	400,986
426	421,214
426,5	441,843
426,9	465,843
427,4	483,443
427,9	501,557
428,3	525,329
428,8	543,729
429,2	561,329
429,7	587,1
430,1	607,5
430,6	636,957
431	669,186
431,5	697,814
431,9	727,414
432,4	764,071
432,8	795,986
433,3	832,929
433,8	870,214
434,2	908,957
434,7	955,071
435,1	998,929
435,6	1044,843
436	1095,386
436,5	1147,329
436,9	1195,5
437,4	1250,214
437,8	1299,786
438,3	1359,929
438,8	1421,671
439,2	1480,671
439,7	1545,414
440,1	1619,014
440,6	1695,871
441	1766,1
441,5	1840,1
441,9	1915,157
442,4	1995,957
442,8	2077,1
443,3	2164,814
443,7	2250,214
444,2	2348,9
444,7	2441,386
445,1	2534,443
445,6	2635,414
446	2741,586
446,5	2843,014
446,9	2939,786
447,4	3040,071
447,8	3154,729
448,3	3275,671
448,7	3387,214
449,2	3506,471
449,6	3627,014
450,1	3745,643
450,6	3877,129
451	4003,929
451,5	4135,157
451,9	4273,414
452,4	4409,814
452,8	4546,786
453,3	4698,9
453,7	4835,671
454,2	4982,471
454,6	5124,271
455,1	5275,5
455,5	5425,386
456	5580,729
456,4	5730,214
456,9	5890,986
457,3	6046,871
457,8	6207,243
458,3	6365,443
458,7	6522,243
459,2	6686,5
459,6	6848,614
460,1	7014,414
460,5	7180,671
461	7357,214
461,4	7526,786
461,9	7694,929
462,3	7863,9
462,8	8045,471
463,2	8209,5
463,7	8390,957
464,1	8565,043
464,6	8741,129
465	8921,1
465,5	9091,557
466	9258,243
466,4	9441,786
466,9	9601,1
467,3	9768,157
467,8	9935,957
468,2	10100,957
468,7	10275,843
469,1	10446,871
469,6	10604,1
470	10770,157
470,5	10933,129
470,9	11088,186
471,4	11250,386
471,8	11407,243
472,3	11558,843
472,7	11714,757
473,2	11860,643
473,6	11999,557
474,1	12142,214
474,5	12280,529
475	12414,271
475,4	12548,557
475,9	12683,186
476,4	12815,786
476,8	12942,443
477,3	13065,929
477,7	13193,757
478,2	13302,929
478,6	13409,957
479,1	13509,271
479,5	13607,7
480	13710,843
480,4	13800,671
480,9	13876,643
481,3	13962,414
481,8	14047,329
482,2	14119,529
482,7	14189,9
483,1	14251,757
483,6	14319,814
484	14379,414
484,5	14440,871
484,9	14478,357
485,4	14531,757
485,8	14567,586
486,3	14609,157
486,7	14632,471
487,2	14669,271
487,6	14682,9
488,1	14707,386
488,5	14724,071
489	14742,214
489,4	14741,586
489,9	14742,7
490,4	14729,471
490,8	14727,471
491,3	14718,586
491,7	14690,357
492,2	14666,529
492,6	14638,529
493,1	14611,729
493,5	14562,3
494	14517,643
494,4	14472,614
494,9	14426,929
495,3	14385,386
495,8	14338,643
496,2	14294,071
496,7	14246,729
497,1	14192,729
497,6	14132,357
498	14081,129
498,5	14010,7
498,9	13942,643
499,4	13875,271
499,8	13824,529
500,3	13756,529
500,7	13682,729
501,2	13601,643
501,6	13522,9
502,1	13432,271
502,5	13346,671
503	13259,386
503,4	13173,729
503,9	13089,271
504,3	13008,1
504,8	12919,1
505,2	12843,757
505,7	12748,243
506,1	12657,014
506,6	12547,014
507	12451,957
507,5	12352,9
507,9	12253,671
508,4	12144,671
508,8	12040,586
509,3	11926,986
509,7	11833,7
510,2	11728,786
510,6	11616,7
511,1	11510,214
511,5	11404,671
512	11303,614
512,4	11196,986
512,9	11088,757
513,3	10979,329
513,8	10871,014
514,2	10766,243
514,7	10669,329
515,1	10562,957
515,6	10457,957
516	10350,014
516,5	10246,7
516,9	10137,786
517,4	10036,329
517,8	9920,014
518,3	9807,014
518,7	9697,3
519,2	9595,471
519,6	9489,129
520,1	9380,329
520,5	9273,529
521	9165,843
521,4	9070,071
521,9	8975,157
522,3	8865,186
522,8	8766,1
523,2	8677,871
523,7	8580,043
524,1	8492,471
524,6	8390,7
525	8288,157
525,5	8201,3
525,9	8107,843
526,4	8006,1
526,8	7916,043
527,3	7819,214
527,7	7739,129
528,2	7658,129
528,6	7572,1
529,1	7486,129
529,5	7409,443
530	7321,214
530,4	7245,357
530,9	7160,1
531,3	7078,529
531,8	6999,443
532,2	6922,786
532,6	6845,271
533,1	6771,386
533,5	6694,271
534	6612,986
534,4	6536,729
534,9	6460,1
535,3	6380,329
535,8	6312,071
536,2	6242,329
536,7	6176,471
537,1	6107,014
537,6	6037,557
538	5978,271
538,5	5916,186
538,9	5843,957
539,4	5777,3
539,8	5708,443
540,3	5656,129
540,7	5598,157
541,2	5535,557
541,6	5481,386
542,1	5425,643
542,5	5368,929
543	5315,271
543,4	5256,329
543,9	5196,929
544,3	5142,471
544,8	5080,729
545,2	5032,5
545,7	4986,757
546,1	4936,929
546,5	4889,757
547	4842,129
547,4	4795,986
547,9	4751,757
548,3	4701,586
548,8	4654,814
549,2	4612,386
549,7	4564,357
550,1	4517,471
550,6	4471,614
551	4432,814
551,5	4386,243
551,9	4345,729
552,4	4294,814
552,8	4253,014
553,3	4214,271
553,7	4174,186
554,2	4134,071
554,6	4108,129
555,1	4069,729
555,5	4038,529
555,9	4010,186
556,4	3975,043
556,8	3945,957
557,3	3912,757
557,7	3877,1
558,2	3839,386
558,6	3810,443
559,1	3772,014
559,5	3746,3
560	3704,186
560,4	3669,586
560,9	3636,443
561,3	3602,814
561,8	3568,043
562,2	3540,586
562,7	3509,929
563,1	3493,329
563,6	3468,586
564	3441,529
564,4	3417,643
564,9	3393,586
565,3	3365,443
565,8	3336,729
566,2	3305,557
566,7	3279,214
567,1	3250,871
567,6	3225,957
568	3193,1
568,5	3170,414
568,9	3148,586
569,4	3125,586
569,8	3105,586
570,3	3082,043
570,7	3055,9
571,1	3041,871
571,6	3024,814
572	3009,043
572,5	2982,614
572,9	2956,786
573,4	2933,414
573,8	2926,414
574,3	2901,586
574,7	2869,614
575,2	2844,586
575,6	2825,014
576,1	2805,871
576,5	2796,3
576,9	2763,186
577,4	2743,386
577,8	2721,843
578,3	2701,414
578,7	2683,243
579,2	2664,929
579,6	2637,5
580,1	2620,129
580,5	2604,043
581	2593,614
581,4	2575,157
581,9	2552,643
582,3	2531,529
582,7	2511,271
583,2	2493,471
583,6	2481,729
584,1	2460,871
584,5	2437,471
585	2426,586
585,4	2402,5
585,9	2393,986
586,3	2382,814
586,8	2360,986
587,2	2343,243
587,6	2334,357
588,1	2320,043
588,5	2312,357
589	2294,957
589,4	2273,843
589,9	2261,329
590,3	2252,386
590,8	2235,014
591,2	2219,729
591,7	2206,529
592,1	2191,814
592,5	2185,586
593	2167,786
593,4	2150,986
593,9	2143,929
594,3	2128,729
594,8	2113,3
595,2	2105,529
595,7	2088,357
596,1	2074,471
596,6	2063,843
597	2051,757
597,4	2042,329
597,9	2034,929
598,3	2019,671
598,8	2012,614
599,2	2003,757
599,7	1993,357
600,1	1976,443
600,6	1964,414
601	1954,3
601,4	1946,786
601,9	1936,357
602,3	1928,186
602,8	1919,843
603,2	1909,386
603,7	1899,757
604,1	1887,929
604,6	1872,614
605	1857,929
605,4	1851,671
605,9	1838,014
606,3	1824,671
606,8	1815,929
607,2	1802,729
607,7	1790,557
608,1	1782,1
608,6	1767,1
609	1761,129
609,4	1754,157
609,9	1740,071
610,3	1729,843
610,8	1724,3
611,2	1713,043
611,7	1702,3
612,1	1687,757
612,6	1681,3
613	1671,729
613,4	1663,643
613,9	1649,586
614,3	1637,786
614,8	1627,1
615,2	1616,014
615,7	1604,986
616,1	1596,071
616,6	1584,557
617	1574,729
617,4	1568,986
617,9	1561,186
618,3	1558,243
618,8	1550,786
619,2	1540,7
619,7	1535,186
620,1	1528,071
620,5	1519,986
621	1511,243
621,4	1499,3
621,9	1490,443
622,3	1481,7
622,8	1466,329
623,2	1456,043
623,6	1442,1
624,1	1433,929
624,5	1422,529
625	1418,843
625,4	1409,386
625,9	1405,243
626,3	1395,843
626,8	1385,586
627,2	1375,129
627,6	1362,129
628,1	1345,729
628,5	1340,443
629	1329,614
629,4	1323,214
629,9	1319,014
630,3	1311,129
630,7	1306,329
631,2	1299,671
631,6	1289,786
632,1	1285,586
632,5	1273,386
633	1265,157
633,4	1253,357
633,8	1244,386
634,3	1232,357
634,7	1220,471
635,2	1209,357
635,6	1201,557
636,1	1195,729
636,5	1186,786
636,9	1175,729
637,4	1169,271
637,8	1160,671
638,3	1153,071
638,7	1147,329
639,2	1135,1
639,6	1130,7
640	1127,329
640,5	1119,729
640,9	1115,529
641,4	1108,729
641,8	1103,871
642,2	1097,957
642,7	1097,243
643,1	1093,986
643,6	1084,671
644	1076,043
644,5	1072,243
644,9	1065,357
645,3	1057,329
645,8	1047,043
646,2	1038,871
646,7	1035,757
647,1	1034,1
647,6	1026,614
648	1023,243
648,4	1017,5
648,9	1010,871
649,3	1003,014
649,8	998,929
650,2	990,186
650,6	985,871
651,1	974,157
651,5	970,671
652	963,243
652,4	954,586
652,9	948,157
653,3	942,043
653,7	934,214
654,2	929,1
654,6	918,871
655,1	916,386
655,5	921,357
655,9	910,329
656,4	904,186
656,8	897,414
657,3	892,786
657,7	895,214
658,2	884,843
658,6	873,5
659	868,471
659,5	863,243
659,9	859,214
660,4	857,529
660,8	844,643
661,2	839,157
661,7	831,271
662,1	831,7
662,6	822,814
663	813,443
663,4	803,014
663,9	800,386
664,3	793,1
664,8	786,443
665,2	773,386
665,6	768,671
666,1	763,186
666,5	758,586
667	748,214
667,4	744,7
667,9	741,529
668,3	742,243
668,7	739,814
669,2	739,643
669,6	733,5
670,1	733,586
670,5	727,729
670,9	720,871
671,4	712,643
671,8	708,157
672,3	703,214
672,7	701,643
673,1	697,243
673,6	691,243
674	692,043
674,5	686,329
674,9	675,071
675,3	666,471
675,8	662,186
676,2	657,043
676,7	651,957
677,1	641,214
677,5	636,757
678	638,586
678,4	638,1
678,9	628,471
679,3	618,871
679,7	618,186
680,2	608,9
680,6	605,614
681,1	599,786
681,5	595,871
681,9	594,957
682,4	596,129
682,8	590,586
683,3	596,243
683,7	594,271
684,1	592,471
684,6	587,7
685	580,757
685,5	571,357
685,9	563,1
686,3	551,7
686,8	547,1
687,2	542,186
687,7	534,786
688,1	530,414
688,5	528,729
689	528,014
689,4	526,729
689,9	519,243
690,3	513,157
690,7	511,357
691,2	510,3
691,6	510,014
692	509,529
692,5	511,014
692,9	509,271
693,4	504,5
693,8	502,157
694,2	493,214
694,7	488,529
695,1	481,729
695,6	473,671
696	471,3
696,4	469,729
696,9	461,5
697,3	460,729
697,8	454,271
698,2	452,986
698,6	456,7
699,1	453,443
699,5	452,243
699,9	449,214
700,4	442,271
700,8	440,957
701,3	438,357
701,7	427,929
702,1	421,414
702,6	416,129
703	417,557
703,5	420,186
703,9	416,071
704,3	410,729
704,8	407,1
705,2	406,757
705,6	404,843
706,1	398,414
706,5	391,9
707	393,757
707,4	392,871
707,8	388,586
708,3	387,3
708,7	385,271
709,2	381,443
709,6	379,957
710	376,871
710,5	370,814
710,9	371,014
711,3	362,643
711,8	358,614
712,2	359,986
712,7	356,5
713,1	355,843
713,5	354,129
714	352,986
714,4	351,471
714,8	350,357
715,3	342,786
715,7	343,757
716,2	338,529
716,6	334,157
717	329,443
717,5	328,329
717,9	326,757
718,3	323,814
718,8	319,529
719,2	315,871
719,7	314,357
720,1	314,729
720,5	318,614
721	313,471
721,4	309,929
721,8	310,1
722,3	304,529
722,7	309,186
723,2	300,3
723,6	289,157
724	285,9
724,5	287,186
724,9	283,529
725,3	281,443
725,8	275,529
726,2	274,386
726,7	274,929
727,1	274,757
727,5	272,871
728	272,186
728,4	276,529
728,8	272,5
729,3	271,843
729,7	270,986
730,1	269,757
730,6	268,7
731	264,529
731,5	254,357
731,9	249,643
732,3	250,157
732,8	250,614
733,2	249,357
733,6	246,414
734,1	247,186
734,5	248,614
734,9	245,871
735,4	245,729
735,8	236,157
736,3	236,357
736,7	232,786
737,1	229,471
737,6	226,471
738	228,386
738,4	223,7
738,9	231,7
739,3	230,329
739,7	234,529
740,2	233,529
740,6	236,243
741,1	239,043
741,5	238,786
741,9	236,957
742,4	236,757
742,8	232,7
743,2	226,9
743,7	221,1
744,1	215,129
744,5	213,157
745	204,786
745,4	197,643
745,8	195,014
746,3	198,329
746,7	200,1
747,2	196,786
747,6	200,729
748	204,5
748,5	206,986
748,9	203,529
749,3	199,1
749,8	197,586
750,2	198,1
750,6	191,357
751,1	190,414
751,5	183,586
751,9	185,7
752,4	187,386
752,8	188,271
753,3	186,729
753,7	188,529
754,1	183,014
754,6	181,643
755	176,357
755,4	170,729
755,9	169,529
756,3	169,643
756,7	169,357
757,2	171,614
757,6	175,529
758	177,986
758,5	180,043
758,9	173,757
759,3	174,043
759,8	167,386
760,2	165,414
760,6	162,129
761,1	158,7
761,5	158,386
761,9	161,643
762,4	160,7
762,8	161,957
763,3	157,786
763,7	156,329
764,1	158,329
764,6	158,929
765	157,814
765,4	156,357
765,9	156,243
766,3	162,443
766,7	161,814
767,2	157,871
767,6	157,329
768	155,786
768,5	154,214
768,9	152,871
769,3	148,214
769,8	146,7
770,2	151,271
770,6	146,157
771,1	147,7
771,5	146,843
771,9	147,786
772,4	147,871
772,8	146,243
773,2	144,043
773,7	145,957
774,1	141,957
774,5	140,643
775	139,386
775,4	140,957
775,8	138,557
776,3	140,929
776,7	141,9
777,1	137,986
777,6	139,329
778	139,071
778,4	131,871
778,9	135,271
779,3	128,786
779,7	123,9
780,2	125,671
780,6	124,757
781	120,586
781,5	120,243
781,9	118,843
782,3	118,329
782,8	121,471
783,2	119,214
783,6	120,986
784,1	121,586
784,5	122,957
784,9	121,357
785,4	122,529
785,8	119,7
786,2	121,014
786,7	119,814
787,1	118,386
787,5	117,043
788	116,414
788,4	116,214
788,8	116,071
789,3	113,586
789,7	110,729
790,1	109,671
790,6	109,9
791	107,757
791,4	110,929
791,9	108,014
792,3	105,9
792,7	109,957
793,2	110,329
793,6	108,157
794	111,729
794,5	102,614
794,9	107,557
795,3	111,471
795,8	103,443
796,2	105,871
796,6	108,186
797,1	103,129
797,5	101,757
797,9	94,243
798,4	91,071
798,8	90,929
799,2	88,786
799,7	85,9
800,1	85,157
800,5	90,157
801	93,529
801,4	93,214
801,8	92,557
802,2	87,043
802,7	85,671
803,1	87,643
803,5	86,757
804	87,7
804,4	87,1
804,8	89,643
805,3	92,757
805,7	95,043
806,1	94,129
806,6	96,614
807	92,186
807,4	89,186
807,9	81,214
808,3	80,957
808,7	77,243
809,2	78,386
809,6	71,214
810	71,157
810,4	74,129
810,9	79,5
811,3	80,5
811,7	82,7
812,2	84,7
812,6	85,014
813	85,586
813,5	84,3
813,9	82,643
814,3	80,071
814,8	77,7
815,2	77,214
815,6	76,014
816,1	77,7
816,5	74,157
816,9	74,986
817,3	75,786
817,8	81,443
818,2	77,043
818,6	74,9
819,1	70,643
819,5	72,471
819,9	72,043
820,4	68,071
820,8	61,643
821,2	53,014
821,7	58,471
822,1	62,586
822,5	68,386
822,9	68,557
823,4	71,1
823,8	73,871
824,2	82,043
824,7	75,443
825,1	67,529
825,5	62,671
826	57,071
826,4	54,414
826,8	49,586
827,3	53,614
827,7	57,929
828,1	64,386
828,5	63,471
829	61,671
829,4	63,729
829,8	63,157
830,3	58,614
830,7	52,986
831,1	49,329
831,6	49,614
832	52,157
832,4	47,1
832,8	52,871
833,3	48,529
833,7	47,3
834,1	46,014
834,6	39,529
835	42,386
835,4	44,757
835,8	38,243
836,3	40,186
836,7	45,757
837,1	46,043
837,6	50,7
838	44,671
838,4	43,957
838,9	41,786
839,3	38,586
839,7	37,414
840,1	31,557
840,6	28,214
841	31,3
841,4	32,786
841,9	37,443
842,3	37,986
842,7	37,557
843,1	40,643
843,6	44,043
844	43,843
844,4	44,357
844,9	46,986
845,3	49,786
845,7	47,814
846,2	45,386
846,6	38,186
847	37,643
847,4	35,443
847,9	32,357
848,3	29,186
848,7	32,843
849,2	36,614
849,6	41,129
850	44,329
850,4	43,129
850,9	42,614
851,3	44,957
851,7	41,757
852,2	40,3
852,6	46,9
853	43,014
853,4	44,671
853,9	40,271
854,3	38,271
854,7	39,357
855,2	37,9
855,6	33,529
856	31,1
856,4	26,357
856,9	27,129
857,3	26,157
857,7	27,843
858,2	33,9
858,6	29,586
859	33,986
859,4	37,243
859,9	34,157
860,3	32,014
860,7	30,186
861,1	27,729
861,6	28,014
862	28,586
862,4	25,671
862,9	29,986
863,3	31,357
863,7	28,1
864,1	28,586
864,6	29,071
865	24,357
865,4	28,871
865,9	28,586
866,3	24,643
866,7	24,214
867,1	18,557
867,6	19,643
868	21,214
868,4	17,814
868,8	20,5
869,3	22,7
869,7	27,929
870,1	29,414
870,6	29,129
871	10,271
871,4	9,129
871,8	2,529
872,3	7,843
872,7	3,614
873,1	2,671
873,5	1,329
874	18,729
874,4	23,271
874,8	23,386
875,3	24,271
875,7	21,614
876,1	25,1
876,5	27,243
877	25,443
877,4	21,357
877,8	23,929
878,2	25,643
878,7	27,614
879,1	24,9
879,5	24,757
879,9	27,471
880,4	28,9
880,8	26,986
881,2	22,643
881,7	25,471
882,1	27,557
882,5	26,214
882,9	25,471
883,4	26,757
883,8	27,729
884,2	25,414
884,6	18,843
885,1	19,7
885,5	18,871
885,9	16,871
886,3	18,586
886,8	18,386
887,2	17,671
887,6	21,929
888	18,786
888,5	19,757
888,9	19,243
889,3	11,271
889,8	11,9
890,2	12,529
890,6	7,186
891	6,786
891,5	4,471
891,9	6,843
892,3	10,986
892,7	12,5
893,2	13,243
893,6	19,071
894	18,357
894,4	17,3
894,9	17,043
895,3	18,871
895,7	19,957
896,1	18,043
896,6	16,329
897	18,929
897,4	26,014
897,8	26,329
898,3	25,757
898,7	20,214
899,1	20,043
899,5	20,243
900	15,871
900,4	11,071
900,8	8,386
901,2	2,414
901,7	0,329
902,1	2,671
902,5	2,957
902,9	1,814
903,4	2,329
903,8	6,043
904,2	11,271
904,6	14,786
905,1	14,871
905,5	15,471
905,9	23,186
906,3	25,471
906,8	24,586
907,2	23,243
907,6	26,414
908	26,1
908,5	25,214
908,9	21,9
909,3	15,186
909,7	14,529
910,2	13,729
910,6	13,129
911	9,386
911,4	9,957
911,9	6,214
912,3	7,871
912,7	9,929
913,1	11,586
913,6	9,586
914	11,414
914,4	10,271
914,8	12,557
915,3	12,443
915,7	11,214
916,1	9,929
916,5	11,557
916,9	8,671
917,4	8,214
917,8	10,7
918,2	8,186
918,6	0,471
919,1	1,386
919,5	1,043
919,9	4,786
920,3	2,9
920,8	-1,071
921,2	1,386
921,6	7,9
922	4,871
922,5	0,3
922,9	0,529
923,3	1,871
923,7	2,386
924,2	1,443
924,6	2,014
925	6,271
925,4	9,471
925,8	8,529
926,3	10,014
926,7	7,614
927,1	10,586
927,5	10,5
928	8,014
928,4	6,157
928,8	6,786
929,2	5,014
929,7	8,871
930,1	7,186
930,5	5,557
930,9	5,786
931,3	6,386
931,8	4,843
932,2	5,957
932,6	3,586
933	-3,243
933,5	-0,271
933,9	3,357
934,3	5,929
934,7	5,814
935,2	6,043
935,6	7,071
936	14,1
936,4	14,414
936,8	6,957
937,3	1,643
937,7	2,7
938,1	3,471
938,5	-3,5
939	-2,1
939,4	-3,614
939,8	-4,386
940,2	-5,757
940,6	-4,357
941,1	-6,957
941,5	1,871
941,9	-5,014
942,3	-7,1
942,8	-1,986
943,2	5,014
943,6	-1,814
944	-1,014
944,4	-1,329
944,9	5,329
945,3	4,271
945,7	1,871
946,1	-4,071
946,6	0,729
947	-1,214
947,4	-0,414
947,8	-4,129
948,2	-5,357
948,7	-2,243
949,1	-0,043
949,5	5,1
949,9	9,586
950,3	9,014
950,8	10,157
951,2	10,329
951,6	5,757
952	10,671
952,5	6,186
952,9	2,357
953,3	2,386
953,7	0,414
954,1	4,329
954,6	8,5
955	8,386
955,4	5,671
955,8	7,671
956,2	4,843
956,7	7,329
957,1	2,357
957,5	1,5
957,9	0,129
958,3	3,471
958,8	4,243
959,2	6,1
959,6	10,729
960	9,7
960,5	11,529
960,9	13,1
961,3	10,529
961,7	7,986
962,1	7,586
962,6	7,129
963	12,843
963,4	8,129
963,8	5,043
964,2	6,014
964,7	9,414
965,1	12,214
965,5	6,5
965,9	3,414
966,3	7,729
966,8	3,957
967,2	1,5
967,6	0,586
968	-4,614
968,4	-0,3
968,9	2,929
969,3	6,214
969,7	4,643
970,1	8,243
970,5	5,671
971	8,614
971,4	7,529
971,8	2,5
972,2	-1,643
972,6	3,071
973,1	0,414
973,5	2,329
973,9	2,786
974,3	2,1
974,7	8,757
975,2	8,1
975,6	10,043
976	13,471
976,4	11,043
976,8	11,329
977,3	7,471
977,7	4,014
978,1	1,986
978,5	-3,329
978,9	-10,643
979,4	-9,786
979,8	-11,271
980,2	-10,414
980,6	-13,157
981	-7,5
981,5	-5,471
981,9	0,129
982,3	0,243
982,7	1,814
983,1	1,014
983,6	3,586
984	-0,557
984,4	1,129
984,8	0,557
985,2	-0,957
985,6	-4,957
986,1	-1,043
986,5	-0,843
986,9	-0,957
987,3	0,557
987,7	2,129
988,2	4,643
988,6	6,414
989	3,957
989,4	3,843
989,8	3,386
990,3	4,243
990,7	4,129
991,1	6,1
991,5	4,529
991,9	10,329
992,3	14,443
992,8	13,986
993,2	9,5
993,6	11,671
994	12,786
994,4	15,586
994,9	10,786
995,3	5,929
995,7	8,271
996,1	8,214
996,5	5,814
996,9	-1,643
997,4	4,157
997,8	1,414
998,2	-0,271
998,6	-9,243
999	-9,157
999,5	-9,186
999,9	-7,614
1000,3	-11,557
1000,7	-7,471
1001,1	-6,729
1001,5	1,214
1002	5,357
1002,4	3,386
1002,8	3,957
1003,2	4,129
1003,6	4,071
1004	7,214
1004,5	5,529
1004,9	6,471
1005,3	1,786
1005,7	3,586
1006,1	-1,757
1006,6	-4,671
1007	-2,243
1007,4	-3,671
1007,8	-5,957
1008,2	-6,3
1008,6	-4,414
1009,1	-1,243
1009,5	2,586
1009,9	-0,929
1010,3	3,957
1010,7	4,557
1011,1	8,129
1011,6	6,157
1012	7,014
1012,4	2,071
1012,8	-0,214
1013,2	3,271
1013,6	5,186
1014,1	9,271
1014,5	7,729
1014,9	7,843
1015,3	7,7
1015,7	12,557
1016,1	4,929
1016,6	0,814
1017	-0,5
1017,4	4,271
1017,8	1,814
1018,2	5,071
1018,6	-3,9
1019,1	-3,757
1019,5	-5,471
1019,9	-5,271
1020,3	-6,071
1020,7	-2,957
1021,1	-5,843
1021,6	0,557
1022	4,414
1022,4	9,357
1022,8	7,729
1023,2	3,329
1023,6	2,1
1024,1	8,471
1024,5	12,071
1024,9	7,357
1025,3	4,529
1025,7	5,757
1026,1	10,957
1026,6	9,014
1027	5,014
1027,4	4,243
1027,8	5,557
1028,2	4,329
1028,6	7,729
1029	1,9
1029,5	5,557
1029,9	3,214
1030,3	-2,243
1030,7	-0,5
1031,1	4,214
1031,5	-1,7
1032	0,757
1032,4	-0,786
1032,8	0,557
1033,2	2,214
1033,6	-1,614
1034	-5,129
1034,4	-7,557
1034,9	-4,357
1035,3	-7,329
1035,7	-3,729
1036,1	-5,957
1036,5	-3,643
1036,9	-4,014
1037,4	2,7
1037,8	-2,271
1038,2	-2,129
1038,6	-1,986
1039	2,9
1039,4	10,3
1039,8	6,5
1040,3	6,3
1040,7	7,729
1041,1	10,9
1041,5	6,014
1041,9	5,586
1042,3	-1,186
1042,7	3,014
1043,2	-2,157
1043,6	-2,329
1044	-6,1
1044,4	-0,471
1044,8	-0,586
1045,2	-1,271
1045,6	-0,271
1046,1	2,957
1046,5	6,757
1046,9	6,414
1047,3	1,157
1047,7	-2,671
1048,1	-3,814
1048,5	-5,786
1049	-1,529
1049,4	0,671
1049,8	5,386
1050,2	9,043
1050,6	14,9
1051	16,929
1051,4	18,1
1051,9	13,671
1052,3	15,414
1052,7	19,7
1053,1	12,214
1053,5	9,443
1053,9	11,786
1054,3	9,557
1054,8	16,014
1055,2	8,014
1055,6	4,471
1056	7,9
1056,4	6,443
1056,8	2,329
1057,2	-0,671
1057,6	-5,957
1058,1	-6,557
1058,5	-12,729
1058,9	-6,271
1059,3	-2,757
1059,7	-0,043
1060,1	3,557
1060,5	2,071
1061	4,786
1061,4	4,071
1061,8	1,329
1062,2	-3,814
1062,6	-2,9
1063	-2,814
1063,4	-3,214
1063,8	-6,129
1064,3	-4,9
1064,7	-2,9
1065,1	1,729
1065,5	-2,014
1065,9	-1,729
1066,3	-1,329
1066,7	-2,986
1067,1	-1,443
1067,6	-0,929
1068	-4,414
1068,4	-0,814
1068,8	-0,186
1069,2	-2,214
1069,6	1,157
1070	3,643
1070,4	0,643
1070,9	-0,614
1071,3	-5,614
1071,7	-7,843
1072,1	-3,614
1072,5	-4,129
1072,9	-3,243
1073,3	-4,129
1073,7	-3,957
1074,2	1,243
1074,6	5,071
1075	0,414
1075,4	0,071
1075,8	1,443
1076,2	5,129
1076,6	4,786
1077	2,1
1077,5	1,929
1077,9	2,871
1078,3	3,014
1078,7	0,243
1079,1	-6,043
1079,5	-6,614
1079,9	-5,614
1080,3	-8,814
1080,7	-5,929
1081,2	-1,129
1081,6	-2,614
1082	0,614
1082,4	5,329
1082,8	3,443
1083,2	6,614
1083,6	7,986
1084	1,014
1084,5	3,129
1084,9	1,443
1085,3	-0,757
1085,7	2,386
1086,1	0,614
1086,5	-0,329
1086,9	5,1
1087,3	5,357
1087,7	7,3
1088,2	8,757
1088,6	6,614
1089	10,157
1089,4	6,557
1089,8	6,814
1090,2	2,157
1090,6	1,843
1091	2,671
1091,4	5,443
1091,9	1,814
1092,3	5,243
1092,7	2,129
1093,1	7,186
1093,5	6,957
1093,9	3,586
1094,3	4,586
1094,7	3,586
1095,1	6,843
1095,5	6,271
1096	3,186
1096,4	4,957
1096,8	6,214
1097,2	4,757
1097,6	7,386
1098	4,414
1098,4	4,414
1098,8	6,243
1099,2	10,586
1099,6	8,643
1100,1	7,443
1100,5	4,614
1100,9	4,386
1101,3	4,386
1101,7	3,5
1102,1	-3,214
1102,5	2,671
1102,9	5,157
1103,3	9,586
1103,7	9,1
1104,2	8,671
1104,6	9,7
1105	8,414
1105,4	4,386
1105,8	1,129
1106,2	-1,586
1106,6	-2,1
1107	-1,357
1107,4	-2,833
1107,8	-0,74
1108,3	-0,2
