Data from Subt2_201.txt Node
Date: Sat Aug 26 18:45:33 MSK 2023
User: vat
Spectrometer: MAYP114033
Trigger mode: 0
Integration Time (sec): 1,000000E0
Scans to average: 5
Electric dark correction enabled: true
Nonlinearity correction enabled: false
Boxcar width: 3
XAxis mode: Wavelengths
Number of Pixels in Spectrum: 2068
>>>>>Begin Spectral Data<<<<<
199,4	0,117
199,9	5,227
200,4	-0,333
200,8	-1,162
201,3	-5,019
201,8	-4,962
202,2	-8,248
202,7	-6,619
203,2	-7,59
203,6	-5,276
204,1	-6,733
204,6	-4,848
205	-2,533
205,5	-0,848
206	-2,248
206,4	-4,333
206,9	-3,505
207,4	-0,048
207,8	2,667
208,3	0,895
208,8	0,495
209,2	3,038
209,7	1,381
210,2	2,21
210,6	2,667
211,1	4,124
211,5	1,781
212	2,467
212,5	1,067
212,9	1,067
213,4	3,41
213,9	1,152
214,3	-1,276
214,8	4,724
215,3	3,667
215,7	4,81
216,2	7,295
216,7	6,295
217,1	3,61
217,6	3,81
218,1	-1,219
218,5	-2,648
219	-8,362
219,5	-9,505
219,9	-16,705
220,4	-5,762
220,9	-3,305
221,3	-3,076
221,8	3,438
222,3	8,638
222,7	11,524
223,2	17,067
223,6	8,124
224,1	5,981
224,6	10,181
225	4,638
225,5	4,01
226	1,552
226,4	5,181
226,9	9,238
227,4	10,238
227,8	3,352
228,3	5,781
228,8	5,667
229,2	7,952
229,7	4,352
230,2	1,781
230,6	5,924
231,1	14,467
231,5	13,724
232	14,781
232,5	10,781
232,9	11,467
233,4	18,81
233,9	13,981
234,3	11,438
234,8	14,781
235,3	12,695
235,7	17,838
236,2	18,61
236,7	9,61
237,1	10,981
237,6	7,724
238,1	3,21
238,5	1,267
239	-1,305
239,4	1,61
239,9	3,952
240,4	2,181
240,8	6,667
241,3	9,495
241,8	10,152
242,2	7,838
242,7	2,981
243,2	5,152
243,6	1,124
244,1	-1,362
244,6	0,324
245	-0,048
245,5	0,752
245,9	1,352
246,4	-0,048
246,9	5,067
247,3	5,924
247,8	6,352
248,3	10,61
248,7	13,552
249,2	14,41
249,7	11,695
250,1	12,695
250,6	12,724
251	12,581
251,5	12,324
252	11,752
252,4	10,752
252,9	13,467
253,4	9,838
253,8	6,095
254,3	2,181
254,8	-1,39
255,2	-1,848
255,7	-4,505
256,1	-5,333
256,6	-0,105
257,1	5,695
257,5	6,638
258	10,438
258,5	10,981
258,9	13,838
259,4	8,552
259,9	8,267
260,3	4,438
260,8	1,781
261,2	1,152
261,7	2,095
262,2	-2,276
262,6	0,952
263,1	3,324
263,6	3,324
264	8,924
264,5	9,667
264,9	6,61
265,4	17,352
265,9	18,01
266,3	18,21
266,8	22,495
267,3	18,067
267,7	15,181
268,2	16,867
268,7	14,524
269,1	14,981
269,6	9,61
270	10,267
270,5	9,952
271	11,095
271,4	8,324
271,9	4,324
272,4	5,981
272,8	9,21
273,3	3,41
273,7	3,038
274,2	5,752
274,7	7,81
275,1	7,295
275,6	8,01
276,1	1,952
276,5	3,124
277	3,552
277,4	1,581
277,9	3,867
278,4	5,695
278,8	6,952
279,3	10,724
279,8	12,952
280,2	16,095
280,7	17,381
281,1	11,552
281,6	11,067
282,1	10,01
282,5	8,952
283	6,581
283,4	4,724
283,9	5,438
284,4	9,295
284,8	9,695
285,3	8,181
285,8	6,781
286,2	10,038
286,7	9,295
287,1	5,752
287,6	3,01
288,1	-1,048
288,5	0,981
289	-0,019
289,5	-2,048
289,9	-0,419
290,4	4,038
290,8	5,752
291,3	5,981
291,8	4,41
292,2	2,695
292,7	2,381
293,1	0,467
293,6	-0,419
294,1	-0,962
294,5	1,438
295	0,21
295,5	3,695
295,9	1,552
296,4	0,01
296,8	-5,419
297,3	-8,076
297,8	-10,305
298,2	-11,705
298,7	-8,562
299,1	-4,362
299,6	-1,819
300,1	3,752
300,5	9,21
301	12,124
301,5	17,667
301,9	17,295
302,4	13,552
302,8	15,381
303,3	14,81
303,8	11,267
304,2	10,695
304,7	5,267
305,1	-1,105
305,6	0,895
306,1	4,581
306,5	-0,276
307	3,952
307,4	4,61
307,9	4,724
308,4	8,638
308,8	5,324
309,3	0,61
309,8	3,295
310,2	0,895
310,7	-3,133
311,1	-0,448
311,6	-4,505
312,1	-2,99
312,5	-1,219
313	2,438
313,4	3,552
313,9	5,467
314,4	3,952
314,8	3,667
315,3	2,381
315,7	-3,248
316,2	-9,848
316,7	-14,533
317,1	-8,362
317,6	-9,476
318	-1,448
318,5	1,838
319	4,781
319,4	7,324
319,9	14,752
320,3	10,838
320,8	10,067
321,3	9,838
321,7	10,495
322,2	6,867
322,6	8,01
323,1	2,61
323,6	-0,619
324	0,381
324,5	-1,876
324,9	1,324
325,4	1,924
325,9	6,124
326,3	8,61
326,8	15,267
327,2	11,295
327,7	5,781
328,2	3,952
328,6	7,781
329,1	-3,419
329,5	-2,133
330	-6,419
330,5	-0,59
330,9	1,924
331,4	-0,59
331,8	-2,076
332,3	5,724
332,8	2,324
333,2	3,895
333,7	5,838
334,1	10,238
334,6	8,381
335,1	6,495
335,5	7,924
336	7,41
336,4	7,552
336,9	14,01
337,4	14,01
337,8	14,238
338,3	14,838
338,7	10,495
339,2	7,467
339,7	7,667
340,1	-3,219
340,6	-6,533
341	-5,333
341,5	-0,305
342	-0,219
342,4	5,495
342,9	6,21
343,3	10,152
343,8	14,124
344,2	14,924
344,7	15,895
345,2	17,381
345,6	14,095
346,1	13,552
346,5	10,01
347	3,781
347,5	1,238
347,9	2,552
348,4	4,581
348,8	9,438
349,3	12,181
349,8	17,324
350,2	28,438
350,7	27,81
351,1	28,267
351,6	32,952
352	37,638
352,5	37,781
353	47,01
353,4	49,41
353,9	64,067
354,3	74,21
354,8	81,895
355,3	95,467
355,7	118,981
356,2	137,552
356,6	159,467
357,1	187,238
357,5	220,038
358	258,867
358,5	299,952
358,9	347,267
359,4	402,038
359,8	465,781
360,3	539,181
360,8	613,61
361,2	705,21
361,7	802,952
362,1	912,667
362,6	1028,981
363	1153,324
363,5	1285,952
364	1435,924
364,4	1576,638
364,9	1722,381
365,3	1862,095
365,8	1994,438
366,3	2124,61
366,7	2238,895
367,2	2333,867
367,6	2415,895
368,1	2483,01
368,5	2518,924
369	2541,095
369,5	2543,067
369,9	2525,324
370,4	2490,21
370,8	2437,295
371,3	2359,61
371,7	2284,81
372,2	2190,695
372,7	2086,324
373,1	1973,638
373,6	1855,524
374	1744,381
374,5	1634,41
374,9	1518,752
375,4	1409,867
375,9	1306,667
376,3	1205,381
376,8	1110,352
377,2	1016,095
377,7	929,095
378,2	849,667
378,6	780,867
379,1	712,61
379,5	658,124
380	603,61
380,4	552,01
380,9	507,067
381,4	465,781
381,8	429,981
382,3	399,324
382,7	365,124
383,2	339,781
383,6	319,752
384,1	297,467
384,6	280,067
385	260,695
385,5	238,552
385,9	223,295
386,4	210,838
386,8	196,981
387,3	187,895
387,7	177,695
388,2	169,467
388,7	160,238
389,1	148,924
389,6	135,267
390	123,467
390,5	117,438
390,9	109,467
391,4	94,324
391,9	88,324
392,3	86,295
392,8	79,724
393,2	68,467
393,7	60,924
394,1	52,124
394,6	54,038
395,1	55,381
395,5	48,952
396	49,267
396,4	51,695
396,9	46,81
397,3	50,467
397,8	48,981
398,2	44,267
398,7	43,524
399,2	42,695
399,6	42,981
400,1	44,81
400,5	37,838
401	36,124
401,4	32,467
401,9	34,381
402,4	35,924
402,8	31,81
403,3	37,438
403,7	35,438
404,2	36,781
404,6	42,638
405,1	43,867
405,5	40,381
406	44,952
406,5	40,638
406,9	51,381
407,4	51,438
407,8	54,781
408,3	54,067
408,7	55,895
409,2	60,495
409,6	62,552
410,1	60,295
410,6	66,524
411	68,181
411,5	74,752
411,9	81,238
412,4	85,952
412,8	92,152
413,3	97,895
413,7	99,838
414,2	101,352
414,7	110,724
415,1	125,381
415,6	131,181
416	137,238
416,5	144,81
416,9	153,267
417,4	162,467
417,8	168,352
418,3	169,895
418,8	181,295
419,2	190,324
419,7	198,952
420,1	203,724
420,6	211,924
421	216,324
421,5	228,267
421,9	234,467
422,4	242,667
422,8	253,924
423,3	268,81
423,8	278,867
424,2	289,524
424,7	298,267
425,1	307,267
425,6	323,867
426	332,895
426,5	347,924
426,9	367,238
427,4	382,381
427,9	394,095
428,3	415,038
428,8	430,781
429,2	455,01
429,7	472,21
430,1	490,152
430,6	513,295
431	536,21
431,5	557,124
431,9	578,152
432,4	600,524
432,8	627,438
433,3	653,324
433,8	682,781
434,2	718,695
434,7	753,01
435,1	784,01
435,6	821,467
436	858,21
436,5	898,267
436,9	936,124
437,4	971,61
437,8	1012,038
438,3	1062,524
438,8	1102,495
439,2	1151,895
439,7	1201,152
440,1	1251,267
440,6	1306,781
441	1357,867
441,5	1411,152
441,9	1470,724
442,4	1524,781
442,8	1584,724
443,3	1645,352
443,7	1707,124
444,2	1779,61
444,7	1844,381
445,1	1914,238
445,6	1990,895
446	2065,524
446,5	2140,81
446,9	2213,752
447,4	2291,181
447,8	2377,781
448,3	2461,067
448,7	2538,667
449,2	2627,724
449,6	2719,838
450,1	2807,981
450,6	2902,952
451	2993,952
451,5	3096,867
451,9	3197,267
452,4	3298,638
452,8	3397,695
453,3	3505,324
453,7	3606,41
454,2	3714,038
454,6	3820,61
455,1	3934,867
455,5	4037,152
456	4154,695
456,4	4263,095
456,9	4381,695
457,3	4496,781
457,8	4606,952
458,3	4726,781
458,7	4848,895
459,2	4966,038
459,6	5090,581
460,1	5209,181
460,5	5326,01
461	5452,638
461,4	5571,495
461,9	5694,352
462,3	5822,981
462,8	5953,667
463,2	6081,895
463,7	6212,067
464,1	6338,495
464,6	6465,181
465	6590,781
465,5	6716,295
466	6844,81
466,4	6964,438
466,9	7096,467
467,3	7226,152
467,8	7353,01
468,2	7476,181
468,7	7600,895
469,1	7722,724
469,6	7844,724
470	7965,667
470,5	8079,981
470,9	8186,21
471,4	8304,21
471,8	8411,895
472,3	8523,152
472,7	8644,238
473,2	8745,067
473,6	8846,495
474,1	8960,981
474,5	9064,695
475	9168,238
475,4	9266,381
475,9	9356,324
476,4	9450,467
476,8	9545,924
477,3	9637,01
477,7	9725,895
478,2	9810,495
478,6	9894,81
479,1	9971,924
479,5	10046,095
480	10109,952
480,4	10173,495
480,9	10237,781
481,3	10290,867
481,8	10350,038
482,2	10397,01
482,7	10452,038
483,1	10509,038
483,6	10557,952
484	10585,467
484,5	10630,895
484,9	10662,181
485,4	10696,41
485,8	10721,21
486,3	10732,581
486,7	10749,581
487,2	10781,838
487,6	10789,781
488,1	10799,724
488,5	10804,038
489	10810,952
489,4	10823,124
489,9	10827,41
490,4	10814,295
490,8	10808,867
491,3	10784,981
491,7	10768,581
492,2	10749,752
492,6	10733,781
493,1	10702,638
493,5	10673,581
494	10633,981
494,4	10617,038
494,9	10580,552
495,3	10549,181
495,8	10504,495
496,2	10466,324
496,7	10421,352
497,1	10397,295
497,6	10352,724
498	10315,552
498,5	10261,267
498,9	10207,038
499,4	10153,981
499,8	10122,752
500,3	10070,695
500,7	10006,381
501,2	9942,981
501,6	9874,295
502,1	9816,352
502,5	9765,495
503	9691,924
503,4	9613,895
503,9	9548,038
504,3	9493,867
504,8	9438,695
505,2	9371,495
505,7	9294,381
506,1	9227,495
506,6	9156,781
507	9088,838
507,5	9006,667
507,9	8927,295
508,4	8856,838
508,8	8774,067
509,3	8692,81
509,7	8616,867
510,2	8537,438
510,6	8455,895
511,1	8375,667
511,5	8295,124
512	8224,581
512,4	8143,667
512,9	8066,895
513,3	7987,81
513,8	7909,324
514,2	7836,467
514,7	7757,038
515,1	7670,067
515,6	7593,21
516	7504,152
516,5	7428,01
516,9	7346,581
517,4	7261,552
517,8	7184,524
518,3	7106,295
518,7	7027,21
519,2	6958,067
519,6	6874,124
520,1	6806,752
520,5	6730,438
521	6645,724
521,4	6574,467
521,9	6502,438
522,3	6424,41
522,8	6349,924
523,2	6272,152
523,7	6199,152
524,1	6128,324
524,6	6057,81
525	5981,152
525,5	5912,952
525,9	5848,038
526,4	5779,067
526,8	5712,181
527,3	5651,638
527,7	5591,381
528,2	5522,924
528,6	5461,81
529,1	5399,81
529,5	5339,638
530	5280,61
530,4	5222,295
530,9	5149,495
531,3	5100,495
531,8	5049,495
532,2	4986,581
532,6	4932,438
533,1	4874,952
533,5	4814,552
534	4763,581
534,4	4706,667
534,9	4643,724
535,3	4599,238
535,8	4547,295
536,2	4497,21
536,7	4443,267
537,1	4395,124
537,6	4342,067
538	4295,095
538,5	4242,038
538,9	4191,352
539,4	4151,095
539,8	4105,752
540,3	4060,095
540,7	4019,695
541,2	3971,524
541,6	3928,924
542,1	3884,467
542,5	3836,895
543	3800,267
543,4	3755,81
543,9	3717,181
544,3	3679,724
544,8	3637,038
545,2	3600,352
545,7	3566,724
546,1	3529,924
546,5	3499,81
547	3460,61
547,4	3425,752
547,9	3395,095
548,3	3361,838
548,8	3325,61
549,2	3289,638
549,7	3258,038
550,1	3230,467
550,6	3197,124
551	3167,895
551,5	3138,695
551,9	3104,324
552,4	3072,981
552,8	3044,724
553,3	3014,695
553,7	2982,752
554,2	2955,952
554,6	2927,238
555,1	2908,495
555,5	2887,724
555,9	2859,867
556,4	2830,238
556,8	2807,267
557,3	2781,81
557,7	2755,495
558,2	2725,067
558,6	2705,124
559,1	2680,524
559,5	2660,895
560	2644,61
560,4	2621,381
560,9	2601,067
561,3	2575,695
561,8	2546,438
562,2	2522,152
562,7	2499,61
563,1	2477,752
563,6	2451,952
564	2439,267
564,4	2422,124
564,9	2400,952
565,3	2384,667
565,8	2361,981
566,2	2347,381
566,7	2335,467
567,1	2312,181
567,6	2299,467
568	2285,21
568,5	2263,895
568,9	2249,324
569,4	2226,781
569,8	2205,838
570,3	2190,724
570,7	2169,381
571,1	2157,324
571,6	2144,724
572	2134,238
572,5	2116,695
572,9	2103,895
573,4	2085,267
573,8	2080,095
574,3	2060,638
574,7	2049,295
575,2	2027,952
575,6	2013,324
576,1	2000,352
576,5	1986,61
576,9	1963,095
577,4	1946,324
577,8	1921,067
578,3	1908,181
578,7	1893,81
579,2	1877,381
579,6	1860,81
580,1	1844,867
580,5	1834,924
581	1830,267
581,4	1819,524
581,9	1804,467
582,3	1791,495
582,7	1782,324
583,2	1773,467
583,6	1766,581
584,1	1754,067
584,5	1738,381
585	1730,524
585,4	1713,01
585,9	1693,924
586,3	1679,895
586,8	1662,752
587,2	1646,952
587,6	1638,61
588,1	1634,21
588,5	1630,124
589	1629,038
589,4	1619,495
589,9	1611,038
590,3	1605,181
590,8	1599,038
591,2	1584,181
591,7	1581,21
592,1	1566,524
592,5	1561,81
593	1552,124
593,4	1538,124
593,9	1525,124
594,3	1515,324
594,8	1497,467
595,2	1493,381
595,7	1485,095
596,1	1475,524
596,6	1470,495
597	1463,952
597,4	1455,838
597,9	1449,895
598,3	1440,695
598,8	1427,952
599,2	1421,61
599,7	1416,61
600,1	1402,524
600,6	1395,238
601	1387,952
601,4	1386,867
601,9	1382,695
602,3	1370,752
602,8	1359,352
603,2	1354,152
603,7	1345,352
604,1	1337,981
604,6	1322,667
605	1311,038
605,4	1310,095
605,9	1303,038
606,3	1293,438
606,8	1284,181
607,2	1274,095
607,7	1266,667
608,1	1261,895
608,6	1251,952
609	1249,867
609,4	1247,152
609,9	1241,295
610,3	1235,495
610,8	1229,038
611,2	1221,61
611,7	1209,61
612,1	1197,038
612,6	1185,952
613	1182,238
613,4	1173,552
613,9	1164,781
614,3	1156,581
614,8	1156,295
615,2	1149,81
615,7	1150,81
616,1	1142,752
616,6	1134,095
617	1124,838
617,4	1117,638
617,9	1112,667
618,3	1106,352
618,8	1097,61
619,2	1087,381
619,7	1084,752
620,1	1080,838
620,5	1078,21
621	1068,952
621,4	1063,61
621,9	1050,81
622,3	1051,352
622,8	1044,781
623,2	1039,895
623,6	1030,638
624,1	1025,495
624,5	1018,01
625	1019,724
625,4	1008,895
625,9	1001,952
626,3	994,61
626,8	989,495
627,2	978,781
627,6	974,752
628,1	962,524
628,5	959,438
629	951,295
629,4	947,952
629,9	941,895
630,3	934,838
630,7	927,781
631,2	925,524
631,6	917,867
632,1	911,295
632,5	902,381
633	896,781
633,4	890,838
633,8	883,867
634,3	874,895
634,7	864,61
635,2	858,352
635,6	851,181
636,1	846,095
636,5	840,438
636,9	834,238
637,4	830,41
637,8	823,61
638,3	820,152
638,7	815,295
639,2	803,267
639,6	801,981
640	795,21
640,5	789,552
640,9	789,124
641,4	784,267
641,8	780,981
642,2	778,41
642,7	777,667
643,1	779,924
643,6	772,781
644	771,895
644,5	772,638
644,9	769,838
645,3	769,41
645,8	756,295
646,2	750,095
646,7	747,238
647,1	738,981
647,6	735,352
648	731,638
648,4	728,438
648,9	729,981
649,3	720,952
649,8	717,152
650,2	713,21
650,6	705,724
651,1	693,752
651,5	688,952
652	677,067
652,4	670,552
652,9	672,152
653,3	668,267
653,7	663,867
654,2	663,495
654,6	653,495
655,1	658,124
655,5	661,352
655,9	649,495
656,4	647,267
656,8	641,181
657,3	641,81
657,7	641,638
658,2	632,838
658,6	624,781
659	620,724
659,5	612,895
659,9	609,238
660,4	604,324
660,8	597,981
661,2	594,381
661,7	594,838
662,1	593,038
662,6	590,61
663	586,581
663,4	582,524
663,9	584,41
664,3	578,438
664,8	569,41
665,2	564,61
665,6	557,895
666,1	557,152
666,5	550,438
667	546,124
667,4	543,895
667,9	534,781
668,3	532,752
668,7	526,638
669,2	523,781
669,6	522,324
670,1	519,581
670,5	513,667
670,9	515,838
671,4	509,524
671,8	513,81
672,3	515,124
672,7	511,524
673,1	503,038
673,6	496,438
674	496,867
674,5	493,724
674,9	482,01
675,3	470,724
675,8	466,352
676,2	463,752
676,7	462,438
677,1	458,61
677,5	458,067
678	458,581
678,4	456,495
678,9	447,124
679,3	444,552
679,7	443,895
680,2	435,581
680,6	430,61
681,1	429,095
681,5	426,638
681,9	434,238
682,4	427,781
682,8	428,581
683,3	430,381
683,7	428,152
684,1	424,467
684,6	422,467
685	413,438
685,5	412,81
685,9	404,495
686,3	397,181
686,8	393,895
687,2	392,41
687,7	387,667
688,1	383,095
688,5	379,895
689	381,067
689,4	381,095
689,9	376,695
690,3	370,952
690,7	367,238
691,2	366,895
691,6	365,095
692	359,695
692,5	358,924
692,9	358,124
693,4	354,581
693,8	353,724
694,2	349,695
694,7	348,067
695,1	345,838
695,6	339,41
696	339,21
696,4	337,238
696,9	330,695
697,3	327,952
697,8	322,581
698,2	321,581
698,6	323,152
699,1	319,438
699,5	320,81
699,9	319,952
700,4	318,124
700,8	316,667
701,3	316,152
701,7	306,952
702,1	300,638
702,6	297,724
703	298,81
703,5	300,438
703,9	299,724
704,3	299,695
704,8	304,495
705,2	304,324
705,6	300,467
706,1	292,667
706,5	285,752
707	286,752
707,4	281,095
707,8	276,352
708,3	280,324
708,7	281,152
709,2	281,838
709,6	278,438
710	277,124
710,5	271,381
710,9	271,895
711,3	265,495
711,8	264,467
712,2	261,238
712,7	262,295
713,1	258,61
713,5	263,038
714	257,41
714,4	252,81
714,8	249,838
715,3	249,467
715,7	248,924
716,2	244,61
716,6	241,381
717	239,438
717,5	241,124
717,9	239,61
718,3	236,038
718,8	238,295
719,2	235,152
719,7	230,724
720,1	230,752
720,5	232,01
721	229,495
721,4	230,781
721,8	229,067
722,3	226,981
722,7	231,01
723,2	223,095
723,6	209,495
724	206,638
724,5	205,267
724,9	201,152
725,3	201,924
725,8	197,181
726,2	200,038
726,7	207,895
727,1	206,752
727,5	205,467
728	199,981
728,4	200,924
728,8	197,352
729,3	195,667
729,7	193,781
730,1	194,838
730,6	193,581
731	191,152
731,5	187,867
731,9	186,581
732,3	187,924
732,8	188,81
733,2	186,724
733,6	182,752
734,1	182,495
734,5	180,381
734,9	178,724
735,4	177,895
735,8	168,181
736,3	168,067
736,7	169,067
737,1	174,638
737,6	172,438
738	171,667
738,4	170,552
738,9	176,324
739,3	175,01
739,7	171,295
740,2	165,552
740,6	171,381
741,1	174,352
741,5	168,267
741,9	166,324
742,4	166,352
742,8	167,895
743,2	169,467
743,7	159,724
744,1	151,752
744,5	152,21
745	152,495
745,4	145,781
745,8	145,838
746,3	141,124
746,7	140,524
747,2	144,724
747,6	150,61
748	152,524
748,5	156,952
748,9	153,152
749,3	150,867
749,8	150,667
750,2	148,038
750,6	146,152
751,1	146,352
751,5	143,867
751,9	147,495
752,4	150,067
752,8	153,752
753,3	153,695
753,7	150,181
754,1	141,895
754,6	136,867
755	126,238
755,4	120,552
755,9	115,495
756,3	110,667
756,7	110,61
757,2	112,695
757,6	115,352
758	117,438
758,5	119,781
758,9	119,41
759,3	123,295
759,8	118,381
760,2	118,295
760,6	117,838
761,1	121,724
761,5	123,01
761,9	119,038
762,4	116,038
762,8	117,267
763,3	115,21
763,7	114,238
764,1	115,238
764,6	112,61
765	116,238
765,4	116,21
765,9	117,81
766,3	120,467
766,7	118,552
767,2	113,467
767,6	116,238
768	115,895
768,5	116,152
768,9	115,21
769,3	114,581
769,8	110,438
770,2	114,067
770,6	111,867
771,1	112,295
771,5	114,895
771,9	114,638
772,4	111,467
772,8	113,524
773,2	111,095
773,7	110,124
774,1	110,524
774,5	100,838
775	97,838
775,4	95,838
775,8	97,181
776,3	100,667
776,7	96,895
777,1	97,438
777,6	103,981
778	107,581
778,4	106,095
778,9	105,638
779,3	95,01
779,7	98,324
780,2	95,41
780,6	93,724
781	90,895
781,5	89,895
781,9	89,981
782,3	88,581
782,8	90,238
783,2	87,552
783,6	91,981
784,1	86,981
784,5	87,181
784,9	85,438
785,4	93,381
785,8	91,952
786,2	92,867
786,7	90,21
787,1	89,924
787,5	92,552
788	93,41
788,4	91,638
788,8	87,724
789,3	85,438
789,7	80,067
790,1	78,324
790,6	75,952
791	71,01
791,4	70,038
791,9	65,495
792,3	63,324
792,7	71,095
793,2	71,324
793,6	71,438
794	75,724
794,5	73,924
794,9	81,238
795,3	80,838
795,8	72,324
796,2	77,41
796,6	75,438
797,1	71,838
797,5	68,752
797,9	62,552
798,4	62,324
798,8	62,61
799,2	60,124
799,7	62,781
800,1	62,524
800,5	65,238
801	69,352
801,4	72,352
801,8	70,61
802,2	69,552
802,7	65,667
803,1	70,238
803,5	70,267
804	66,238
804,4	67,095
804,8	67,838
805,3	67,638
805,7	68,81
806,1	65,124
806,6	66,038
807	64,152
807,4	59,752
807,9	56,552
808,3	55,495
808,7	54,095
809,2	55,695
809,6	59,152
810	62,838
810,4	64,552
810,9	64,895
811,3	69,21
811,7	72,21
812,2	74,524
812,6	67,838
813	72,295
813,5	74,095
813,9	76,01
814,3	71,01
814,8	66,667
815,2	64,352
815,6	62,867
816,1	63,781
816,5	63,267
816,9	62,981
817,3	62,438
817,8	69,095
818,2	65,895
818,6	65,21
819,1	55,524
819,5	48,295
819,9	44,524
820,4	45,924
820,8	38,467
821,2	34,695
821,7	32,695
822,1	39,867
822,5	51,781
822,9	54,41
823,4	50,667
823,8	49,552
824,2	52,695
824,7	52,267
825,1	44,267
825,5	32,581
826	29,781
826,4	33,067
826,8	31,981
827,3	32,752
827,7	31,952
828,1	37,981
828,5	43,324
829	40,238
829,4	37,838
829,8	37,41
830,3	35,181
830,7	33,552
831,1	30,181
831,6	31,581
832	36,495
832,4	35,781
832,8	37,695
833,3	38,838
833,7	41,038
834,1	39,952
834,6	33,952
835	35,867
835,4	38,524
835,8	34,781
836,3	34,781
836,7	40,467
837,1	39,524
837,6	43,267
838	40,667
838,4	36,781
838,9	39,438
839,3	36,467
839,7	33,552
840,1	29,781
840,6	24,895
841	28,238
841,4	29,267
841,9	34,41
842,3	31,381
842,7	30,21
843,1	34,724
843,6	39,981
844	37,695
844,4	43,095
844,9	37,324
845,3	41,152
845,7	40,095
846,2	35,81
846,6	33,552
847	33,067
847,4	28,924
847,9	31,238
848,3	32,695
848,7	30,695
849,2	32,695
849,6	28,295
850	32,552
850,4	34,838
850,9	31,467
851,3	33,752
851,7	36,324
852,2	33,381
852,6	39,152
853	35,724
853,4	33,867
853,9	33,295
854,3	27,552
854,7	29,581
855,2	30,695
855,6	28,21
856	27,667
856,4	22,781
856,9	22,695
857,3	25,381
857,7	27,667
858,2	33,352
858,6	30,867
859	28,524
859,4	33,438
859,9	32,781
860,3	28,381
860,7	24,638
861,1	25,21
861,6	24,924
862	27,124
862,4	21,81
862,9	21,952
863,3	24,895
863,7	24,524
864,1	25,038
864,6	26,295
865	23,838
865,4	28,238
865,9	31,124
866,3	27,81
866,7	27,21
867,1	20,124
867,6	24,152
868	21,01
868,4	18,838
868,8	16,524
869,3	17,067
869,7	22,667
870,1	21,181
870,6	16,524
871	-59,076
871,4	-49,39
871,8	-51,848
872,3	-51,076
872,7	-58,733
873,1	-56,076
873,5	-52,705
874	29,01
874,4	18,352
874,8	18,952
875,3	19,21
875,7	23,924
876,1	23,438
876,5	22,495
877	18,952
877,4	19,752
877,8	25,752
878,2	28,438
878,7	27,095
879,1	28,581
879,5	28,724
879,9	30,61
880,4	30,638
880,8	25,21
881,2	22,124
881,7	18,181
882,1	16,895
882,5	12,981
882,9	11,381
883,4	8,81
883,8	15,695
884,2	17,667
884,6	15,21
885,1	18,895
885,5	20,352
885,9	18,495
886,3	24,724
886,8	17,038
887,2	13,61
887,6	17,067
888	15,524
888,5	17,495
888,9	17,095
889,3	14,038
889,8	17,752
890,2	18,752
890,6	13,381
891	11,981
891,5	10,21
891,9	12,295
892,3	13,981
892,7	14,038
893,2	15,981
893,6	20,867
894	22,61
894,4	18,895
894,9	16,752
895,3	13,095
895,7	13,038
896,1	11,038
896,6	10,295
897	9,952
897,4	19,152
897,8	23,438
898,3	29,467
898,7	26,924
899,1	25,324
899,5	24,295
900	19,895
900,4	13,381
900,8	7,781
901,2	-1,533
901,7	-4,333
902,1	1,41
902,5	4,038
902,9	3,61
903,4	5,324
903,8	7,524
904,2	5,324
904,6	9,01
905,1	5,352
905,5	6,724
905,9	9,295
906,3	11,667
906,8	12,41
907,2	20,381
907,6	21,038
908	22,81
908,5	19,152
908,9	17,724
909,3	11,21
909,7	9,324
910,2	6,895
910,6	9,095
911	3,724
911,4	5,924
911,9	2,895
912,3	6,067
912,7	14,238
913,1	16,81
913,6	12,781
914	13,552
914,4	11,981
914,8	16,238
915,3	12,781
915,7	7,038
916,1	3,381
916,5	1,638
916,9	1,695
917,4	0,952
917,8	0,095
918,2	-1,219
918,6	-5,933
919,1	-1,162
919,5	3,781
919,9	9,495
920,3	11,581
920,8	13,924
921,2	14,467
921,6	12,552
922	9,381
922,5	7,981
922,9	7,838
923,3	4,152
923,7	2,552
924,2	2,21
924,6	9,095
925	6,524
925,4	3,781
925,8	-1,333
926,3	-0,648
926,7	-1,333
927,1	3,124
927,5	2,552
928	5,095
928,4	7,067
928,8	9,924
929,2	8,61
929,7	7,724
930,1	8,295
930,5	6,524
930,9	6,552
931,3	2,61
931,8	4,695
932,2	6,524
932,6	5,781
933	-3,333
933,5	-3,362
933,9	-0,59
934,3	3,724
934,7	-0,276
935,2	2,467
935,6	3,581
936	8,695
936,4	11,638
936,8	7,81
937,3	8,81
937,7	12,095
938,1	12,981
938,5	14,267
939	14,81
939,4	13,01
939,8	10,952
940,2	8,267
940,6	7,381
941,1	3,524
941,5	5,41
941,9	5,01
942,3	4,152
942,8	5,552
943,2	6,41
943,6	2,41
944	5,124
944,4	2,238
944,9	-0,19
945,3	1,295
945,7	0,724
946,1	-2,162
946,6	-0,448
947	0,895
947,4	6,438
947,8	13,095
948,2	9,81
948,7	12,438
949,1	13,267
949,5	15,438
949,9	15,152
950,3	11,095
950,8	7,352
951,2	8,124
951,6	3,552
952	8,638
952,5	1,638
952,9	-2,876
953,3	-2,762
953,7	-0,39
954,1	3,181
954,6	8,038
955	4,295
955,4	8,381
955,8	17,952
956,2	18,781
956,7	18,838
957,1	13,752
957,5	17,724
957,9	17,01
958,3	17,667
958,8	13,838
959,2	14,924
959,6	18,295
960	19,467
960,5	17,581
960,9	20,61
961,3	15,352
961,7	10,581
962,1	10,21
962,6	9,267
963	12,638
963,4	7,61
963,8	3,952
964,2	9,01
964,7	9,752
965,1	10,952
965,5	9,41
965,9	4,438
966,3	9,21
966,8	12,381
967,2	14,924
967,6	17,152
968	12,21
968,4	12,838
968,9	15,724
969,3	17,21
969,7	13,638
970,1	11,124
970,5	7,867
971	8,752
971,4	7,181
971,8	6,695
972,2	2,124
972,6	1,895
973,1	3,467
973,5	4,295
973,9	5,781
974,3	5,41
974,7	6,552
975,2	5,838
975,6	6,181
976	6,381
976,4	2,21
976,8	1,181
977,3	-0,305
977,7	-2,105
978,1	1,838
978,5	-0,476
978,9	-6,59
979,4	-2,848
979,8	-2,933
980,2	-0,676
980,6	-2,676
981	-0,133
981,5	7,952
981,9	12,695
982,3	15,295
982,7	16,181
983,1	9,638
983,6	13,01
984	4,524
984,4	1,067
984,8	3,067
985,2	0,981
985,6	0,924
986,1	9,41
986,5	9,438
986,9	8,895
987,3	9,552
987,7	7,495
988,2	3,467
988,6	-0,59
989	-6,048
989,4	-6,419
989,8	-6,705
990,3	-10,19
990,7	-15,076
991,1	-12,333
991,5	-7,362
991,9	-4,076
992,3	0,695
992,8	0,981
993,2	2,238
993,6	3,524
994	8,238
994,4	9,952
994,9	8,752
995,3	2,438
995,7	4,81
996,1	1,495
996,5	6,581
996,9	1,181
997,4	5,895
997,8	1,124
998,2	1,724
998,6	-5,19
999	-1,305
999,5	-2,962
999,9	0,238
1000,3	-9,848
1000,7	-4,076
1001,1	-3,79
1001,5	2,667
1002	5,752
1002,4	5,524
1002,8	3,838
1003,2	8,581
1003,6	7,61
1004	12,152
1004,5	9,981
1004,9	9,01
1005,3	4,695
1005,7	5,467
1006,1	0,981
1006,6	1,467
1007	-2,076
1007,4	0,895
1007,8	-0,333
1008,2	2,438
1008,6	3,524
1009,1	3,381
1009,5	1,695
1009,9	-0,219
1010,3	1,41
1010,7	2,581
1011,1	3,381
1011,6	0,667
1012	4,695
1012,4	2,81
1012,8	4,01
1013,2	6,581
1013,6	5,467
1014,1	4,781
1014,5	5,81
1014,9	0,495
1015,3	1,581
1015,7	1,495
1016,1	-1,962
1016,6	-1,933
1017	1,41
1017,4	0,638
1017,8	3,181
1018,2	7,895
1018,6	3,438
1019,1	4,21
1019,5	0,981
1019,9	-2,648
1020,3	-0,733
1020,7	-2,819
1021,1	-4,505
1021,6	0,524
1022	1,895
1022,4	4,781
1022,8	9,952
1023,2	8,21
1023,6	13,552
1024,1	17,61
1024,5	19,467
1024,9	18,267
1025,3	18,667
1025,7	14,81
1026,1	18,095
1026,6	15,467
1027	8,467
1027,4	6,981
1027,8	5,724
1028,2	2,838
1028,6	7,695
1029	4,724
1029,5	6,752
1029,9	4,924
1030,3	-0,905
1030,7	1,695
1031,1	7,324
1031,5	6,067
1032	5,781
1032,4	6,781
1032,8	11,038
1033,2	16,324
1033,6	13,152
1034	14,152
1034,4	7,981
1034,9	10,924
1035,3	5,095
1035,7	6,381
1036,1	4,381
1036,5	4,867
1036,9	1,867
1037,4	5,981
1037,8	-2,705
1038,2	-0,705
1038,6	-0,219
1039	2,638
1039,4	6,667
1039,8	-1,79
1040,3	-1,305
1040,7	4,21
1041,1	6,095
1041,5	2,695
1041,9	-3,676
1042,3	-7,533
1042,7	-1,276
1043,2	-1,248
1043,6	-0,733
1044	0,895
1044,4	2,638
1044,8	8,095
1045,2	9,21
1045,6	12,41
1046,1	7,467
1046,5	6,952
1046,9	5,238
1047,3	1,124
1047,7	0,067
1048,1	-2,419
1048,5	-0,448
1049	2,238
1049,4	6,295
1049,8	8,495
1050,2	13,638
1050,6	21,181
1051	21,895
1051,4	18,838
1051,9	16,952
1052,3	18,238
1052,7	12,467
1053,1	5,41
1053,5	1,838
1053,9	2,495
1054,3	-2,448
1054,8	4,267
1055,2	4,981
1055,6	8,124
1056	11,981
1056,4	4,552
1056,8	8,095
1057,2	10,238
1057,6	0,924
1058,1	-4,619
1058,5	-12,362
1058,9	-7,819
1059,3	-6,076
1059,7	-7,505
1060,1	-7,876
1060,5	-4,362
1061	0,238
1061,4	7,267
1061,8	8,724
1062,2	10,095
1062,6	8,067
1063	10,724
1063,4	14,124
1063,8	10,038
1064,3	8,067
1064,7	4,152
1065,1	5,981
1065,5	7,695
1065,9	3,981
1066,3	3,324
1066,7	-0,533
1067,1	-3,962
1067,6	-0,733
1068	-4,876
1068,4	-2,305
1068,8	2,61
1069,2	2,267
1069,6	5,867
1070	8,895
1070,4	7,895
1070,9	9,581
1071,3	3,181
1071,7	-2,648
1072,1	-6,248
1072,5	-7,276
1072,9	-6,39
1073,3	-7,19
1073,7	-4,019
1074,2	-3,562
1074,6	1,895
1075	4,238
1075,4	7,067
1075,8	11,438
1076,2	11,152
1076,6	10,581
1077	8,381
1077,5	6,181
1077,9	1,41
1078,3	-2,905
1078,7	-7,276
1079,1	-11,276
1079,5	-11,019
1079,9	-7,562
1080,3	-6,505
1080,7	-1,362
1081,2	4,524
1081,6	6,838
1082	9,467
1082,4	13,152
1082,8	13,124
1083,2	12,467
1083,6	16,067
1084	12,067
1084,5	15,01
1084,9	10,895
1085,3	4,638
1085,7	8,581
1086,1	7,924
1086,5	5,495
1086,9	9,295
1087,3	6,81
1087,7	9,495
1088,2	9,267
1088,6	2,124
1089	3,295
1089,4	1,352
1089,8	1,095
1090,2	-1,133
1090,6	-1,305
1091	5,695
1091,4	11,467
1091,9	11,238
1092,3	14,01
1092,7	9,895
1093,1	12,01
1093,5	10,238
1093,9	4,381
1094,3	6,552
1094,7	3,981
1095,1	1,61
1095,5	3,838
1096	-0,819
1096,4	3,467
1096,8	1,181
1097,2	-6,133
1097,6	-2,019
1098	-2,39
1098,4	-0,448
1098,8	0,152
1099,2	4,61
1099,6	8,981
1100,1	9,181
1100,5	3,895
1100,9	7,181
1101,3	7,724
1101,7	7,581
1102,1	-0,419
1102,5	-0,762
1102,9	2,181
1103,3	10,21
1103,7	8,324
1104,2	4,81
1104,6	4,495
1105	3,41
1105,4	1,438
1105,8	0,095
1106,2	-4,962
1106,6	-6,105
1107	-5,962
1107,4	-4,367
1107,8	-1,013
1108,3	-0,583
