Data from Subt2_034.txt Node
Date: Sat Aug 26 16:22:19 MSK 2023
User: vat
Spectrometer: MAYP114033
Trigger mode: 0
Integration Time (sec): 1,000000E0
Scans to average: 5
Electric dark correction enabled: true
Nonlinearity correction enabled: false
Boxcar width: 3
XAxis mode: Wavelengths
Number of Pixels in Spectrum: 2068
>>>>>Begin Spectral Data<<<<<
199,4	-0,25
199,9	-0,2
200,4	-0,7
200,8	-2,171
201,3	-2,914
201,8	-0,971
202,2	0,657
202,7	-0,4
203,2	-1,4
203,6	0,8
204,1	3,514
204,6	8,6
205	9,857
205,5	7,2
206	10,971
206,4	12,171
206,9	9,057
207,4	10,886
207,8	2,371
208,3	0,514
208,8	1,629
209,2	4,457
209,7	5,6
210,2	11,114
210,6	8,286
211,1	14,114
211,5	11,571
212	8,057
212,5	2,114
212,9	2,114
213,4	-2,829
213,9	-3,457
214,3	-5,857
214,8	-1,914
215,3	1,8
215,7	-0,857
216,2	3,343
216,7	2,971
217,1	3,371
217,6	6,657
218,1	5,8
218,5	6,743
219	17,114
219,5	9,114
219,9	12,629
220,4	12,829
220,9	9,429
221,3	8,971
221,8	7,771
222,3	-0,371
222,7	1,429
223,2	2,343
223,6	1,686
224,1	7,257
224,6	4,886
225	2,257
225,5	6,086
226	5,829
226,4	4,8
226,9	2,429
227,4	0,771
227,8	4,543
228,3	9,943
228,8	7,971
229,2	9,743
229,7	5,314
230,2	11,771
230,6	6,6
231,1	3,971
231,5	7,114
232	14,057
232,5	14,314
232,9	17,571
233,4	13,914
233,9	20,629
234,3	19,886
234,8	16,2
235,3	12
235,7	15,486
236,2	16,286
236,7	21,114
237,1	12,2
237,6	13,971
238,1	8,971
238,5	6,886
239	4,429
239,4	5,6
239,9	2,486
240,4	5,057
240,8	7,371
241,3	8,457
241,8	6,257
242,2	1,743
242,7	-1,057
243,2	-4,629
243,6	0,429
244,1	-0,8
244,6	-2,057
245	-2,286
245,5	0,771
245,9	0,829
246,4	3,057
246,9	-1,914
247,3	-4,943
247,8	-2,886
248,3	0,229
248,7	2,6
249,2	-0,771
249,7	0,543
250,1	3,886
250,6	3,571
251	8,086
251,5	1,514
252	-0,229
252,4	4,343
252,9	4,057
253,4	4,857
253,8	8,257
254,3	8,343
254,8	11,686
255,2	10,571
255,7	10,171
256,1	11,029
256,6	12,343
257,1	11,171
257,5	8,8
258	11,571
258,5	15,543
258,9	15,086
259,4	13,029
259,9	10,686
260,3	7,086
260,8	8,343
261,2	10,486
261,7	6,857
262,2	7,114
262,6	8,714
263,1	2,686
263,6	7,114
264	3,914
264,5	1,343
264,9	0,029
265,4	1,829
265,9	2,229
266,3	7,543
266,8	7,2
267,3	12,886
267,7	14,543
268,2	13,229
268,7	9,914
269,1	4,371
269,6	6,714
270	9,914
270,5	8,086
271	5,371
271,4	6,914
271,9	7,629
272,4	11,171
272,8	4,6
273,3	0,229
273,7	-3,8
274,2	-0,343
274,7	3,314
275,1	0,629
275,6	2,429
276,1	6,743
276,5	13,086
277	14,257
277,4	13,143
277,9	7,2
278,4	10,914
278,8	11,543
279,3	9,257
279,8	4,771
280,2	4,314
280,7	3,057
281,1	10,286
281,6	8,714
282,1	10,943
282,5	15,029
283	11,971
283,4	10,2
283,9	9,086
284,4	6,086
284,8	8,829
285,3	0,743
285,8	-2,229
286,2	-2,6
286,7	-2,829
287,1	-3,171
287,6	-1,371
288,1	-4,714
288,5	2,171
289	5,029
289,5	5,829
289,9	9
290,4	11,486
290,8	13,771
291,3	14,371
291,8	9,914
292,2	8,257
292,7	11,657
293,1	11,943
293,6	11,971
294,1	7,114
294,5	9,857
295	10,257
295,5	12,829
295,9	16,8
296,4	18,171
296,8	15,943
297,3	20,486
297,8	17,343
298,2	19,543
298,7	16,143
299,1	14,914
299,6	13,914
300,1	16,543
300,5	15,057
301	14
301,5	12,743
301,9	9,429
302,4	1,771
302,8	1,029
303,3	-2,714
303,8	-9,886
304,2	-6,429
304,7	-5,686
305,1	-2
305,6	-0,571
306,1	0,229
306,5	3,371
307	6,771
307,4	2,571
307,9	4,257
308,4	6,6
308,8	10,771
309,3	8,429
309,8	12,029
310,2	10,914
310,7	17,314
311,1	12,857
311,6	14,029
312,1	11
312,5	10,371
313	7,371
313,4	10,343
313,9	11,514
314,4	11
314,8	11,514
315,3	10,857
315,7	11,057
316,2	6,743
316,7	8,457
317,1	6,4
317,6	7,914
318	7,514
318,5	12,971
319	13,886
319,4	13,657
319,9	12,429
320,3	10,486
320,8	9,114
321,3	3,286
321,7	-1,8
322,2	-1,829
322,6	-4,829
323,1	-8,543
323,6	-9,829
324	-7,971
324,5	-8,429
324,9	-9,771
325,4	-11,657
325,9	-1,714
326,3	2,2
326,8	6,286
327,2	6,2
327,7	8,429
328,2	10,4
328,6	15,629
329,1	11,657
329,5	10,114
330	7,657
330,5	7,714
330,9	6,629
331,4	1,486
331,8	2,629
332,3	3,886
332,8	-0,714
333,2	0,143
333,7	1,629
334,1	5,486
334,6	12,514
335,1	10,943
335,5	9,857
336	8,857
336,4	7,686
336,9	9,457
337,4	6,914
337,8	7,429
338,3	3,286
338,7	4,886
339,2	12,8
339,7	14,657
340,1	12,629
340,6	10,6
341	13,429
341,5	16,457
342	15,029
342,4	11,743
342,9	6,343
343,3	3,143
343,8	8,343
344,2	4,257
344,7	7,657
345,2	5,4
345,6	12,143
346,1	18,514
346,5	26,086
347	27,114
347,5	24,257
347,9	22,429
348,4	24,2
348,8	18,543
349,3	17,571
349,8	17,257
350,2	15,229
350,7	22,4
351,1	20,257
351,6	22,257
352	29,029
352,5	34,743
353	40,829
353,4	50,771
353,9	57,257
354,3	73,4
354,8	86,771
355,3	104,857
355,7	122,771
356,2	148,971
356,6	176,6
357,1	207,943
357,5	245,886
358	295,486
358,5	345,171
358,9	403,857
359,4	465,629
359,8	537,571
360,3	618,429
360,8	703,029
361,2	800,457
361,7	910,943
362,1	1030,314
362,6	1166,086
363	1305,657
363,5	1459,286
364	1617,571
364,4	1781,171
364,9	1941,486
365,3	2097,629
365,8	2241,914
366,3	2387,714
366,7	2513,829
367,2	2628,171
367,6	2714,343
368,1	2781,086
368,5	2824,086
369	2851,171
369,5	2846,771
369,9	2822,114
370,4	2773,371
370,8	2708,686
371,3	2626,629
371,7	2535,371
372,2	2424,971
372,7	2298,4
373,1	2175,171
373,6	2051,486
374	1919,143
374,5	1791,943
374,9	1662,829
375,4	1537,229
375,9	1430,914
376,3	1320,114
376,8	1213,486
377,2	1122,486
377,7	1029,771
378,2	948,857
378,6	875,257
379,1	799,4
379,5	733,143
380	676,429
380,4	617,686
380,9	572,371
381,4	525,629
381,8	483,629
382,3	448,457
382,7	413,629
383,2	378,571
383,6	352,714
384,1	325,771
384,6	297,543
385	275,857
385,5	256,286
385,9	241,571
386,4	230,514
386,8	216,257
387,3	199,6
387,7	192,8
388,2	182,514
388,7	168,314
389,1	155,714
389,6	139,857
390	128,2
390,5	119,571
390,9	116,229
391,4	111,914
391,9	106,2
392,3	99,057
392,8	98,857
393,2	89,514
393,7	88,229
394,1	82,057
394,6	71,171
395,1	71,743
395,5	70,714
396	66,943
396,4	69,457
396,9	65,314
397,3	58,029
397,8	55,829
398,2	52,257
398,7	49,571
399,2	42,114
399,6	43,314
400,1	39,6
400,5	42,571
401	48,086
401,4	48,486
401,9	50,229
402,4	54,629
402,8	54,114
403,3	55,657
403,7	58,829
404,2	56,8
404,6	58,743
405,1	55,4
405,5	55,543
406	57,714
406,5	59,971
406,9	60,543
407,4	63,229
407,8	66,371
408,3	72,314
408,7	84,971
409,2	87,029
409,6	91,829
410,1	101,114
410,6	107,886
411	115,429
411,5	120,943
411,9	118,086
412,4	126,886
412,8	140,086
413,3	144,714
413,7	152,743
414,2	164,314
414,7	180,486
415,1	193,629
415,6	208,4
416	217,429
416,5	234,6
416,9	248,714
417,4	261,886
417,8	272,229
418,3	293,943
418,8	307,229
419,2	327,371
419,7	345,486
420,1	364,029
420,6	385,343
421	407,229
421,5	424,314
421,9	452,229
422,4	478,114
422,8	499,486
423,3	529,229
423,8	558,829
424,2	590,943
424,7	621,686
425,1	652,857
425,6	689,714
426	728,6
426,5	763,171
426,9	794,657
427,4	834,4
427,9	871,457
428,3	912,886
428,8	958,257
429,2	1007,029
429,7	1057,829
430,1	1114,657
430,6	1170,371
431	1239,514
431,5	1307,457
431,9	1370,371
432,4	1442,886
432,8	1515,6
433,3	1593,8
433,8	1676,771
434,2	1760,171
434,7	1844,286
435,1	1937,343
435,6	2033,543
436	2133,2
436,5	2241,571
436,9	2349,314
437,4	2463,057
437,8	2579,171
438,3	2705,571
438,8	2827,514
439,2	2956,686
439,7	3088,2
440,1	3231,6
440,6	3380,286
441	3528,229
441,5	3680,629
441,9	3844,486
442,4	4021,943
442,8	4200,029
443,3	4380,171
443,7	4559,771
444,2	4761,171
444,7	4960,4
445,1	5159,314
445,6	5358,286
446	5562,743
446,5	5779,714
446,9	6006,314
447,4	6226,314
447,8	6454,257
448,3	6691,257
448,7	6933,257
449,2	7180,743
449,6	7423,286
450,1	7675,829
450,6	7939,171
451	8198,371
451,5	8469,2
451,9	8750,629
452,4	9040
452,8	9342,029
453,3	9641,629
453,7	9938,486
454,2	10247,6
454,6	10555,057
455,1	10862,343
455,5	11176,886
456	11483,857
456,4	11791,171
456,9	12117,771
457,3	12460,171
457,8	12805,657
458,3	13145,629
458,7	13491,514
459,2	13849,371
459,6	14200,371
460,1	14548,029
460,5	14883,114
461	15218,514
461,4	15569,543
461,9	15919,743
462,3	16265,086
462,8	16618,314
463,2	16970,886
463,7	17319,429
464,1	17682,029
464,6	18040,743
465	18381,057
465,5	18725,229
466	19078,486
466,4	19416,629
466,9	19758,771
467,3	20091,886
467,8	20429,057
468,2	20764,8
468,7	21097,257
469,1	21424,886
469,6	21765,429
470	22093,943
470,5	22416,514
470,9	22732,371
471,4	23030
471,8	23333,829
472,3	23629,657
472,7	23911,886
473,2	24205,257
473,6	24498,914
474,1	24756,743
474,5	25047,8
475	25322,286
475,4	25590,457
475,9	25863,114
476,4	26111,2
476,8	26343,086
477,3	26597,971
477,7	26828,857
478,2	27039,486
478,6	27259,314
479,1	27449,371
479,5	27647,429
480	27830,943
480,4	28005,943
480,9	28167,057
481,3	28332,114
481,8	28479,571
482,2	28620,714
482,7	28744,143
483,1	28874,4
483,6	28994,886
484	29099,343
484,5	29204,714
484,9	29298,371
485,4	29395,429
485,8	29482,8
486,3	29557
486,7	29614,771
487,2	29679,457
487,6	29719,686
488,1	29738,971
488,5	29759,857
489	29766,571
489,4	29772,457
489,9	29765,229
490,4	29746,2
490,8	29721,2
491,3	29690
491,7	29652,343
492,2	29625,6
492,6	29566,971
493,1	29502,657
493,5	29420,514
494	29358,629
494,4	29284,286
494,9	29191,886
495,3	29097,257
495,8	29003,343
496,2	28914,057
496,7	28828,057
497,1	28703,371
497,6	28600,743
498	28492,2
498,5	28365,629
498,9	28246,657
499,4	28111,943
499,8	27965,943
500,3	27847,286
500,7	27692
501,2	27550,686
501,6	27402,486
502,1	27242,914
502,5	27091,457
503	26941,2
503,4	26764
503,9	26618,857
504,3	26444,8
504,8	26274,943
505,2	26108,086
505,7	25932,514
506,1	25767,371
506,6	25578,371
507	25383,2
507,5	25191,6
507,9	25003,057
508,4	24801,286
508,8	24594,771
509,3	24388,371
509,7	24196,629
510,2	23991,229
510,6	23787,886
511,1	23584,457
511,5	23371,229
512	23177,143
512,4	22970,714
512,9	22759,029
513,3	22558
513,8	22344,714
514,2	22128,886
514,7	21927,657
515,1	21711,2
515,6	21491,171
516	21275,886
516,5	21055,371
516,9	20841,257
517,4	20628,571
517,8	20415,914
518,3	20192,657
518,7	19980,343
519,2	19784,543
519,6	19574,857
520,1	19372,086
520,5	19155,971
521	18943,514
521,4	18742,629
521,9	18533,971
522,3	18328,314
522,8	18135,029
523,2	17919,829
523,7	17728,343
524,1	17533,143
524,6	17331,4
525	17156,143
525,5	16962,629
525,9	16753,771
526,4	16586,543
526,8	16389,514
527,3	16205,8
527,7	16040,971
528,2	15838,114
528,6	15654,686
529,1	15495,029
529,5	15300,886
530	15136,257
530,4	14963,057
530,9	14779,971
531,3	14625,143
531,8	14462,543
532,2	14285,286
532,6	14126,4
533,1	13961,314
533,5	13798,914
534	13645,629
534,4	13484,314
534,9	13326,914
535,3	13178,229
535,8	13025,743
536,2	12878,714
536,7	12729,914
537,1	12584,771
537,6	12446,857
538	12300,371
538,5	12155,029
538,9	12025,686
539,4	11889,371
539,8	11756,714
540,3	11610,343
540,7	11471,486
541,2	11341,429
541,6	11223,514
542,1	11091,229
542,5	10967,114
543	10837,657
543,4	10733,743
543,9	10607,257
544,3	10488,286
544,8	10373,2
545,2	10257,514
545,7	10142,171
546,1	10038,457
546,5	9918,486
547	9815,4
547,4	9706,171
547,9	9599,029
548,3	9498
548,8	9393,629
549,2	9284,486
549,7	9188,343
550,1	9103,4
550,6	9012,257
551	8915,143
551,5	8822,571
551,9	8737,314
552,4	8652,486
552,8	8566,8
553,3	8465,314
553,7	8374,057
554,2	8291,286
554,6	8208,4
555,1	8117,086
555,5	8041,4
555,9	7957,8
556,4	7879,286
556,8	7802,657
557,3	7710,457
557,7	7630,4
558,2	7558,686
558,6	7487,771
559,1	7406,114
559,5	7347,571
560	7274,057
560,4	7215,714
560,9	7147,714
561,3	7078,086
561,8	7013,286
562,2	6949,686
562,7	6873,457
563,1	6811,286
563,6	6744,6
564	6682,371
564,4	6618,686
564,9	6546,8
565,3	6490,943
565,8	6430,343
566,2	6374,829
566,7	6317,971
567,1	6257,114
567,6	6200,771
568	6143,657
568,5	6086,743
568,9	6030,829
569,4	5979,629
569,8	5921,114
570,3	5871,743
570,7	5819,914
571,1	5769,971
571,6	5722,857
572	5675,229
572,5	5618,114
572,9	5569,257
573,4	5519,171
573,8	5470,543
574,3	5418,029
574,7	5367,714
575,2	5319,371
575,6	5279,171
576,1	5232,514
576,5	5190,943
576,9	5150,029
577,4	5108,6
577,8	5064,629
578,3	5016,8
578,7	4969,971
579,2	4929,8
579,6	4886,429
580,1	4844,343
580,5	4800,771
581	4754,114
581,4	4720,914
581,9	4682,743
582,3	4640,029
582,7	4603,029
583,2	4555,829
583,6	4518,143
584,1	4481,657
584,5	4444,514
585	4405,8
585,4	4370,486
585,9	4336,2
586,3	4303,657
586,8	4269,943
587,2	4236,4
587,6	4202,829
588,1	4168,486
588,5	4136,343
589	4097,114
589,4	4064,743
589,9	4032,4
590,3	4005,057
590,8	3971,2
591,2	3940,6
591,7	3914,6
592,1	3884,057
592,5	3852,657
593	3821,6
593,4	3790,314
593,9	3758,629
594,3	3724,943
594,8	3688,171
595,2	3659,829
595,7	3638,743
596,1	3620,457
596,6	3599,429
597	3575,914
597,4	3561,2
597,9	3542,6
598,3	3521,114
598,8	3497,057
599,2	3467,286
599,7	3440,943
600,1	3418,257
600,6	3394,257
601	3373,143
601,4	3353,286
601,9	3333,086
602,3	3314,886
602,8	3286,771
603,2	3267,857
603,7	3239,371
604,1	3214,343
604,6	3190,4
605	3160,143
605,4	3134,943
605,9	3113,686
606,3	3085,8
606,8	3064,171
607,2	3045,371
607,7	3021,257
608,1	3006,171
608,6	2985,857
609	2968,457
609,4	2953,514
609,9	2937,114
610,3	2916,543
610,8	2899,514
611,2	2874,4
611,7	2852,457
612,1	2836,657
612,6	2817,171
613	2798,143
613,4	2776,114
613,9	2757
614,3	2739,714
614,8	2716,743
615,2	2691,6
615,7	2671,571
616,1	2651,057
616,6	2632,057
617	2609,514
617,4	2593,057
617,9	2583,029
618,3	2565,143
618,8	2538,6
619,2	2521,629
619,7	2505,943
620,1	2487,571
620,5	2471,057
621	2451,914
621,4	2437,971
621,9	2428,657
622,3	2416,686
622,8	2395,571
623,2	2381,457
623,6	2359,914
624,1	2346,086
624,5	2327,829
625	2306,143
625,4	2286,6
625,9	2272,4
626,3	2254,629
626,8	2241,286
627,2	2222,857
627,6	2206,714
628,1	2188,086
628,5	2170,743
629	2160,057
629,4	2144,829
629,9	2126,8
630,3	2110,971
630,7	2097,143
631,2	2082,971
631,6	2067,171
632,1	2045,114
632,5	2032,543
633	2017,2
633,4	1997,571
633,8	1976,571
634,3	1960,229
634,7	1946,143
635,2	1930,6
635,6	1911,257
636,1	1898,629
636,5	1885,857
636,9	1876,743
637,4	1866,286
637,8	1848,743
638,3	1838,314
638,7	1829,943
639,2	1818,8
639,6	1804,6
640	1792,371
640,5	1776,029
640,9	1768,4
641,4	1752,857
641,8	1737,2
642,2	1727,143
642,7	1718,629
643,1	1708,829
643,6	1699,086
644	1687,543
644,5	1679,514
644,9	1671,657
645,3	1654,629
645,8	1645,886
646,2	1636,371
646,7	1626,629
647,1	1614,543
647,6	1601,4
648	1585,914
648,4	1577,829
648,9	1568,4
649,3	1555,6
649,8	1546,629
650,2	1537,143
650,6	1529,057
651,1	1530,686
651,5	1524,143
652	1507,743
652,4	1495
652,9	1483,971
653,3	1475,771
653,7	1464,2
654,2	1448,771
654,6	1437,286
655,1	1427,257
655,5	1418,629
655,9	1409,286
656,4	1398,343
656,8	1385,829
657,3	1371,514
657,7	1359,8
658,2	1353,286
658,6	1339,743
659	1328,686
659,5	1316,829
659,9	1312,657
660,4	1304,143
660,8	1293,943
661,2	1284,543
661,7	1278,6
662,1	1269,629
662,6	1260,629
663	1250,314
663,4	1244,743
663,9	1231,886
664,3	1223,143
664,8	1216,486
665,2	1212,657
665,6	1205,2
666,1	1193,971
666,5	1181,886
667	1174,057
667,4	1165,629
667,9	1154,371
668,3	1143,457
668,7	1131,829
669,2	1122,029
669,6	1110,057
670,1	1108,657
670,5	1095,371
670,9	1090,8
671,4	1082,286
671,8	1075,914
672,3	1072,029
672,7	1066,657
673,1	1056,029
673,6	1053,743
674	1040,286
674,5	1029,514
674,9	1022,257
675,3	1015,143
675,8	1009,771
676,2	1002,629
676,7	991,514
677,1	986,743
677,5	984,743
678	980,514
678,4	973,886
678,9	962,4
679,3	951,657
679,7	947,429
680,2	947,314
680,6	933,086
681,1	921,343
681,5	915,8
681,9	908,6
682,4	903,714
682,8	892,943
683,3	875
683,7	873,314
684,1	865,686
684,6	858,857
685	858,4
685,5	854,343
685,9	849,857
686,3	853,686
686,8	848,8
687,2	848,943
687,7	841
688,1	834,514
688,5	826,971
689	821,314
689,4	813,143
689,9	810,086
690,3	801,886
690,7	793,857
691,2	787,771
691,6	783,314
692	778,429
692,5	768,2
692,9	752,943
693,4	747,6
693,8	743,086
694,2	732,686
694,7	728,857
695,1	722,8
695,6	716,743
696	716,2
696,4	711,229
696,9	711,343
697,3	708,486
697,8	697,286
698,2	692,714
698,6	691,4
699,1	683,457
699,5	675,286
699,9	666,371
700,4	662,486
700,8	662,714
701,3	658,514
701,7	649,943
702,1	651,343
702,6	649,229
703	644,086
703,5	639,743
703,9	632,171
704,3	626,8
704,8	624,486
705,2	615,086
705,6	603,771
706,1	602,314
706,5	597,057
707	589,829
707,4	586,714
707,8	583
708,3	580,429
708,7	582,343
709,2	577,2
709,6	574,886
710	574,886
710,5	572,6
710,9	566,2
711,3	560
711,8	557
712,2	554,6
712,7	549,286
713,1	543,457
713,5	536,886
714	535,314
714,4	534,6
714,8	530,8
715,3	523,914
715,7	516,143
716,2	512,371
716,6	512,743
717	506,143
717,5	505,2
717,9	497,314
718,3	492,686
718,8	494,457
719,2	492,229
719,7	487,029
720,1	484,486
720,5	481,143
721	480,771
721,4	479,6
721,8	476,943
722,3	471,229
722,7	461,886
723,2	456,257
723,6	449,429
724	444,629
724,5	438
724,9	433,829
725,3	429,143
725,8	427,143
726,2	425,314
726,7	422,143
727,1	414,686
727,5	414,829
728	409,714
728,4	407,886
728,8	406,286
729,3	406,543
729,7	405,686
730,1	408,086
730,6	403,171
731	402,029
731,5	399,143
731,9	400,514
732,3	399,8
732,8	396,743
733,2	391,714
733,6	390,457
734,1	384,971
734,5	380,543
734,9	375
735,4	371,514
735,8	366,943
736,3	368,286
736,7	369,543
737,1	364,686
737,6	364,4
738	360,943
738,4	358,143
738,9	357,771
739,3	353,514
739,7	346,057
740,2	347,057
740,6	348,571
741,1	346,486
741,5	341,457
741,9	334
742,4	328,314
742,8	329,6
743,2	330,943
743,7	328,914
744,1	324,114
744,5	325,171
745	323,657
745,4	324,886
745,8	320,514
746,3	317,4
746,7	310,629
747,2	312,971
747,6	307,371
748	307,886
748,5	304,486
748,9	299,286
749,3	301,6
749,8	294,886
750,2	292,057
750,6	285,886
751,1	286,771
751,5	283,4
751,9	286,571
752,4	278,029
752,8	281,486
753,3	277,229
753,7	281,486
754,1	275,257
754,6	274,514
755	272,171
755,4	270,514
755,9	269,771
756,3	268,371
756,7	260,571
757,2	261,771
757,6	261,4
758	255,514
758,5	250,8
758,9	250,029
759,3	246,943
759,8	252,429
760,2	252,114
760,6	247,657
761,1	248,229
761,5	253,114
761,9	253,057
762,4	252,429
762,8	250,886
763,3	245,829
763,7	242,657
764,1	238,8
764,6	233,714
765	226,514
765,4	230,886
765,9	222,457
766,3	218,629
766,7	221,571
767,2	222,714
767,6	218,514
768	220,886
768,5	211,257
768,9	213,971
769,3	211,714
769,8	212,886
770,2	212,886
770,6	213,714
771,1	213,171
771,5	218,343
771,9	215,857
772,4	222,4
772,8	216,914
773,2	213,514
773,7	212,257
774,1	210,486
774,5	208,571
775	205,343
775,4	201,629
775,8	200,743
776,3	197,486
776,7	200,057
777,1	204,114
777,6	199,343
778	202,371
778,4	200,629
778,9	198,286
779,3	200,8
779,7	196,886
780,2	192,457
780,6	193,486
781	193,743
781,5	194,686
781,9	198,486
782,3	197,114
782,8	193,2
783,2	187,657
783,6	184
784,1	182,857
784,5	178,571
784,9	171,657
785,4	166,571
785,8	164,514
786,2	163,171
786,7	162,229
787,1	155,943
787,5	155,286
788	153,257
788,4	152,571
788,8	153
789,3	153,857
789,7	151,6
790,1	155,371
790,6	155,571
791	158,429
791,4	157,6
791,9	158,343
792,3	156,6
792,7	163,029
793,2	158,514
793,6	156,714
794	158,829
794,5	160,686
794,9	160,686
795,3	159,771
795,8	151,343
796,2	148,286
796,6	142,429
797,1	134,629
797,5	132,086
797,9	130,314
798,4	129,086
798,8	127,143
799,2	131,971
799,7	137,771
800,1	137,829
800,5	135,486
801	133,943
801,4	128,543
801,8	134,486
802,2	133,029
802,7	128,457
803,1	128,057
803,5	129,4
804	128,429
804,4	129,029
804,8	125,086
805,3	123,057
805,7	124,257
806,1	126,229
806,6	126,229
807	125,629
807,4	126,4
807,9	125,543
808,3	123,914
808,7	122,343
809,2	120,229
809,6	114,286
810	111,657
810,4	114,714
810,9	110,571
811,3	110,429
811,7	106,4
812,2	110,314
812,6	113,543
813	115,029
813,5	112,657
813,9	114,686
814,3	111,486
814,8	112,629
815,2	102,657
815,6	101,543
816,1	101,171
816,5	98,029
816,9	100,314
817,3	99,371
817,8	102,4
818,2	105,171
818,6	100,714
819,1	96,686
819,5	96,8
819,9	90,257
820,4	93,314
820,8	87,514
821,2	91,171
821,7	95,371
822,1	96,143
822,5	95,6
822,9	97,714
823,4	91,029
823,8	93,343
824,2	90,857
824,7	88,943
825,1	86,8
825,5	90,429
826	90,429
826,4	95,2
826,8	93,314
827,3	90,229
827,7	91,171
828,1	95,543
828,5	90,8
829	86,857
829,4	87,057
829,8	85,143
830,3	88,057
830,7	86,314
831,1	82,543
831,6	85,886
832	83,571
832,4	79,8
832,8	82,114
833,3	76,2
833,7	78,657
834,1	80,457
834,6	73,571
835	80,343
835,4	84,029
835,8	77,914
836,3	78,086
836,7	70,171
837,1	69,714
837,6	68,314
838	63,914
838,4	58,514
838,9	68,143
839,3	70,029
839,7	73,657
840,1	68,743
840,6	75,029
841	73,629
841,4	72,029
841,9	63,629
842,3	61,057
842,7	59,229
843,1	64,514
843,6	62,2
844	65,257
844,4	66,171
844,9	68,171
845,3	65,371
845,7	65,171
846,2	62,743
846,6	60,257
847	57,286
847,4	55,6
847,9	55,086
848,3	58,029
848,7	61,914
849,2	61,429
849,6	61,457
850	59,143
850,4	62,771
850,9	62,114
851,3	59,971
851,7	57,943
852,2	54,886
852,6	55,971
853	61,571
853,4	64,286
853,9	60,286
854,3	62,057
854,7	55,543
855,2	58,971
855,6	53,829
856	48,657
856,4	41,943
856,9	41,971
857,3	40,657
857,7	45,771
858,2	40,029
858,6	44,371
859	42,829
859,4	44,886
859,9	49,4
860,3	50,6
860,7	50,343
861,1	53,257
861,6	51,286
862	53,343
862,4	53,943
862,9	51,829
863,3	48,343
863,7	43,114
864,1	42,457
864,6	45,486
865	43,429
865,4	40,057
865,9	36,171
866,3	38,371
866,7	38,886
867,1	42,886
867,6	39,057
868	39,771
868,4	39,229
868,8	42,343
869,3	44,486
869,7	45,343
870,1	43,514
870,6	39,771
871	85,029
871,4	85,143
871,8	83,171
872,3	82,086
872,7	81,057
873,1	78,543
873,5	83,914
874	36,771
874,4	35,514
874,8	35,429
875,3	30,286
875,7	30,543
876,1	30,314
876,5	31,657
877	33,229
877,4	33,2
877,8	39
878,2	39,514
878,7	43
879,1	39,771
879,5	40
879,9	39,686
880,4	39,2
880,8	32,2
881,2	34,714
881,7	35,743
882,1	38,571
882,5	33,457
882,9	31,657
883,4	38,886
883,8	42,714
884,2	41,171
884,6	35,057
885,1	35,743
885,5	39,543
885,9	42
886,3	38,257
886,8	30,657
887,2	30,429
887,6	29,286
888	25,057
888,5	22,571
888,9	24,257
889,3	16,429
889,8	19,314
890,2	17,2
890,6	18,686
891	21,143
891,5	20,2
891,9	16,257
892,3	23,2
892,7	23,286
893,2	27,314
893,6	26
894	25,429
894,4	29,657
894,9	29,371
895,3	25,343
895,7	27,371
896,1	23,8
896,6	26,829
897	26,057
897,4	19,4
897,8	21,286
898,3	23,829
898,7	19,343
899,1	20
899,5	14,086
900	15,686
900,4	15,857
900,8	13,257
901,2	10,486
901,7	14,657
902,1	15,857
902,5	20,6
902,9	21,543
903,4	24,143
903,8	21,857
904,2	26,086
904,6	22,029
905,1	23
905,5	20,6
905,9	17,829
906,3	16,686
906,8	19,286
907,2	14,086
907,6	19,2
908	21,257
908,5	22,171
908,9	22,743
909,3	18,8
909,7	19,629
910,2	19,514
910,6	20,571
911	15,886
911,4	14,343
911,9	14,686
912,3	18,486
912,7	16,4
913,1	15,257
913,6	13,429
914	13,771
914,4	12,171
914,8	12,029
915,3	9,429
915,7	8,086
916,1	6,829
916,5	4,314
916,9	2,057
917,4	7,486
917,8	7,486
918,2	5,457
918,6	6,743
919,1	11,057
919,5	13,657
919,9	15,629
920,3	12,629
920,8	13,514
921,2	20,457
921,6	20,457
922	13,486
922,5	13,457
922,9	13
923,3	16,943
923,7	13,429
924,2	6,571
924,6	6,543
925	9,371
925,4	6,4
925,8	7,543
926,3	9
926,7	11,086
927,1	15,257
927,5	19,171
928	20,829
928,4	22,6
928,8	25,371
929,2	22,057
929,7	18,114
930,1	16,343
930,5	11,686
930,9	13,943
931,3	15,171
931,8	8,286
932,2	6,457
932,6	9,829
933	5,257
933,5	5,857
933,9	7,686
934,3	3,8
934,7	10,514
935,2	15,286
935,6	13,571
936	16,543
936,4	14,086
936,8	9,486
937,3	8,971
937,7	8,457
938,1	0,229
938,5	0,571
939	0,629
939,4	4,743
939,8	4,257
940,2	2,086
940,6	-3,114
941,1	6,143
941,5	9,057
941,9	11,829
942,3	9,6
942,8	13,543
943,2	12,771
943,6	15,886
944	5,086
944,4	-0,086
944,9	-4,086
945,3	-1,571
945,7	-1,029
946,1	3,714
946,6	3,6
947	7,743
947,4	7,4
947,8	13,657
948,2	9,6
948,7	6,457
949,1	3,943
949,5	2,057
949,9	3,971
950,3	4,057
950,8	-1,314
951,2	-0,714
951,6	1,543
952	3,086
952,5	0,229
952,9	-2
953,3	-0,914
953,7	4,314
954,1	6,229
954,6	3,229
955	3,914
955,4	6,971
955,8	10,257
956,2	9,743
956,7	7,343
957,1	7,371
957,5	7,629
957,9	7,057
958,3	6,543
958,8	3,857
959,2	7,314
959,6	10,143
960	7,114
960,5	5,486
960,9	5,629
961,3	5,257
961,7	0,029
962,1	-0,543
962,6	-5,6
963	-5,829
963,4	-3,257
963,8	-5,4
964,2	-5,857
964,7	-0,857
965,1	-2,657
965,5	-4,029
965,9	-0,886
966,3	-2,143
966,8	-1,629
967,2	-0,714
967,6	1,057
968	2,8
968,4	6
968,9	7,6
969,3	7,971
969,7	8,6
970,1	10,314
970,5	8,943
971	6,371
971,4	9,686
971,8	7,514
972,2	11,8
972,6	13,686
973,1	17
973,5	16,8
973,9	19,943
974,3	12,943
974,7	8,743
975,2	5,086
975,6	0,686
976	0,886
976,4	-0,829
976,8	-5,143
977,3	0,543
977,7	6,114
978,1	7,171
978,5	9,257
978,9	4,143
979,4	4,771
979,8	6,743
980,2	1,686
980,6	0,143
981	1,086
981,5	6,171
981,9	2,314
982,3	-1,971
982,7	-2,571
983,1	0,629
983,6	3,6
984	4,114
984,4	4,343
984,8	8,857
985,2	12,886
985,6	13,971
986,1	13,314
986,5	3,171
986,9	0,886
987,3	-6,286
987,7	-5,114
988,2	-3,8
988,6	-1,143
989	1,514
989,4	10,257
989,8	11,143
990,3	13,914
990,7	10,171
991,1	6,429
991,5	1,257
991,9	4,743
992,3	9,2
992,8	7,2
993,2	7,029
993,6	6,857
994	9,486
994,4	12,114
994,9	7,714
995,3	-0,829
995,7	-0,943
996,1	-0,086
996,5	2,371
996,9	5,8
997,4	5,771
997,8	6,086
998,2	9,686
998,6	10,286
999	12,514
999,5	13,971
999,9	14,371
1000,3	17,286
1000,7	16,743
1001,1	13,6
1001,5	10,886
1002	8,229
1002,4	8,543
1002,8	6,029
1003,2	4,057
1003,6	4,8
1004	6,257
1004,5	10,943
1004,9	9,4
1005,3	3,686
1005,7	3,514
1006,1	-1,057
1006,6	-2,257
1007	-3,657
1007,4	-3,4
1007,8	-3,114
1008,2	-1,486
1008,6	-4,371
1009,1	-5,286
1009,5	0,343
1009,9	4,714
1010,3	6,857
1010,7	12,343
1011,1	16,943
1011,6	16,371
1012	18,686
1012,4	14,857
1012,8	9,543
1013,2	10,886
1013,6	6,143
1014,1	4,029
1014,5	10,571
1014,9	12,771
1015,3	10,486
1015,7	10,143
1016,1	3,629
1016,6	5,457
1017	6,171
1017,4	1,6
1017,8	-1,2
1018,2	-4,314
1018,6	1,171
1019,1	2,4
1019,5	3,229
1019,9	5,686
1020,3	2,771
1020,7	4,657
1021,1	10,686
1021,6	6,514
1022	1,257
1022,4	4,143
1022,8	-2,429
1023,2	1,457
1023,6	3,514
1024,1	1,4
1024,5	2,8
1024,9	10,286
1025,3	4,057
1025,7	7,171
1026,1	7,857
1026,6	9,286
1027	8,343
1027,4	7,057
1027,8	2,343
1028,2	6,543
1028,6	8,943
1029	6
1029,5	2,543
1029,9	1,429
1030,3	8,086
1030,7	6,943
1031,1	1,086
1031,5	-3,2
1032	2,457
1032,4	1,629
1032,8	0,457
1033,2	-7,914
1033,6	-2,486
1034	-2,114
1034,4	3,343
1034,9	-3,143
1035,3	2,171
1035,7	3,286
1036,1	6,943
1036,5	0,8
1036,9	3,457
1037,4	2,886
1037,8	4,114
1038,2	-6,4
1038,6	-6,343
1039	-9
1039,4	-3,457
1039,8	-3,457
1040,3	-6,257
1040,7	-8,829
1041,1	-5,514
1041,5	-6,314
1041,9	-3,743
1042,3	-8,571
1042,7	-7,857
1043,2	-7,629
1043,6	-2,457
1044	-2,8
1044,4	-6,114
1044,8	-11,714
1045,2	-7,314
1045,6	-6,543
1046,1	-2,314
1046,5	-1,543
1046,9	4,571
1047,3	7,629
1047,7	10,029
1048,1	9,886
1048,5	11,486
1049	10,686
1049,4	9,543
1049,8	1,514
1050,2	3,686
1050,6	6,2
1051	12,114
1051,4	4,971
1051,9	8,029
1052,3	6,829
1052,7	8,514
1053,1	5,686
1053,5	6,257
1053,9	-2,857
1054,3	3,257
1054,8	-0,8
1055,2	1,657
1055,6	3,686
1056	7,543
1056,4	7,057
1056,8	10,771
1057,2	10,657
1057,6	5,6
1058,1	4,914
1058,5	6,029
1058,9	5,029
1059,3	6,571
1059,7	1,286
1060,1	-0,686
1060,5	-0,771
1061	-0,686
1061,4	4,114
1061,8	-0,143
1062,2	2,943
1062,6	6,314
1063	4,886
1063,4	4,914
1063,8	4,086
1064,3	-7,486
1064,7	-6,229
1065,1	-11,657
1065,5	-6,229
1065,9	-3,257
1066,3	-6,514
1066,7	-6,971
1067,1	-3,8
1067,6	0,886
1068	-3,4
1068,4	-4,6
1068,8	-4,943
1069,2	-0,4
1069,6	-0,229
1070	3,2
1070,4	-3,4
1070,9	0,771
1071,3	-1,943
1071,7	-0,914
1072,1	6,2
1072,5	6,971
1072,9	13,571
1073,3	19,543
1073,7	17,086
1074,2	19,971
1074,6	18,6
1075	12,714
1075,4	10,343
1075,8	4,143
1076,2	2,686
1076,6	6,6
1077	1,6
1077,5	1,4
1077,9	2,657
1078,3	1,686
1078,7	-1,057
1079,1	3,943
1079,5	0,857
1079,9	6,2
1080,3	2,914
1080,7	2,743
1081,2	8,057
1081,6	12,629
1082	6,8
1082,4	8,429
1082,8	2,971
1083,2	2,314
1083,6	2,371
1084	-4,143
1084,5	-7,171
1084,9	-9,771
1085,3	-8,514
1085,7	-7,343
1086,1	-9
1086,5	-7,4
1086,9	-2,943
1087,3	-1,171
1087,7	6,143
1088,2	2,457
1088,6	-0,743
1089	2,057
1089,4	-2
1089,8	-1,429
1090,2	-0,943
1090,6	-5,371
1091	-1,286
1091,4	4,057
1091,9	7,314
1092,3	6,971
1092,7	6,657
1093,1	4,629
1093,5	5,143
1093,9	5,771
1094,3	4,371
1094,7	2,343
1095,1	0,657
1095,5	-0,771
1096	-2,514
1096,4	0,486
1096,8	-7,086
1097,2	-6,086
1097,6	-8,971
1098	-9,514
1098,4	-9,857
1098,8	-7,371
1099,2	-9,629
1099,6	-1,286
1100,1	-2,429
1100,5	4,571
1100,9	8,714
1101,3	9,286
1101,7	12,486
1102,1	11,171
1102,5	10,314
1102,9	6,029
1103,3	-1,229
1103,7	0,114
1104,2	-0,314
1104,6	1,657
1105	2,971
1105,4	-0,286
1105,8	3,914
1106,2	6,829
1106,6	4,257
1107	4,457
1107,4	-0,767
1107,8	-2,72
1108,3	-0,25
