Data from Subt2_071.txt Node
Date: Sat Aug 26 16:35:19 MSK 2023
User: vat
Spectrometer: MAYP114033
Trigger mode: 0
Integration Time (sec): 1,000000E0
Scans to average: 5
Electric dark correction enabled: true
Nonlinearity correction enabled: false
Boxcar width: 3
XAxis mode: Wavelengths
Number of Pixels in Spectrum: 2068
>>>>>Begin Spectral Data<<<<<
199,4	-0,95
199,9	-0,48
200,4	-0,167
200,8	-2,029
201,3	-0,257
201,8	0,714
202,2	2,657
202,7	4,943
203,2	6,6
203,6	5,429
204,1	10,771
204,6	11,829
205	12,514
205,5	10,514
206	8,486
206,4	8,829
206,9	10,171
207,4	11,286
207,8	7,8
208,3	6,829
208,8	11,029
209,2	13,171
209,7	11,771
210,2	16,514
210,6	10,486
211,1	13,857
211,5	12,971
212	3,771
212,5	-1,343
212,9	-2,6
213,4	-5
213,9	-4,6
214,3	-5,829
214,8	-4,857
215,3	4,571
215,7	3,686
216,2	7,143
216,7	4,6
217,1	3,514
217,6	1,229
218,1	3,029
218,5	0,971
219	8,857
219,5	8,086
219,9	8,429
220,4	9,714
220,9	9,571
221,3	7,943
221,8	3,229
222,3	-0,371
222,7	-3,657
223,2	-0,971
223,6	0,2
224,1	1,714
224,6	2,171
225	7,086
225,5	12,171
226	13,514
226,4	12,029
226,9	11,371
227,4	14,8
227,8	18,086
228,3	18,943
228,8	10,029
229,2	14,343
229,7	12,257
230,2	16,057
230,6	12
231,1	6,429
231,5	7,514
232	19,229
232,5	14,171
232,9	16,514
233,4	14,6
233,9	15,086
234,3	14,886
234,8	13,029
235,3	9,371
235,7	14,086
236,2	12,971
236,7	14,114
237,1	14,029
237,6	16,857
238,1	15,886
238,5	14,257
239	8,714
239,4	12,057
239,9	11,2
240,4	13,314
240,8	12,2
241,3	12,057
241,8	9,343
242,2	10,143
242,7	6,171
243,2	6,229
243,6	8,057
244,1	8,314
244,6	9,629
245	9,771
245,5	11,571
245,9	11,057
246,4	8,743
246,9	9,971
247,3	10,6
247,8	8,2
248,3	11,286
248,7	13,886
249,2	13,686
249,7	12,2
250,1	5,857
250,6	5,257
251	6,886
251,5	1,457
252	-0
252,4	0,057
252,9	3
253,4	4,286
253,8	5,714
254,3	4,686
254,8	6,857
255,2	7,914
255,7	10,143
256,1	7,371
256,6	8,543
257,1	11,714
257,5	14,314
258	14,771
258,5	11,114
258,9	11,714
259,4	14,943
259,9	20,229
260,3	13,657
260,8	15,486
261,2	17,657
261,7	21,371
262,2	20,8
262,6	19,714
263,1	14,486
263,6	19,514
264	15
264,5	13,257
264,9	9,686
265,4	10,143
265,9	14,343
266,3	14,771
266,8	12,971
267,3	15,057
267,7	14
268,2	13,943
268,7	11,457
269,1	7,343
269,6	10,314
270	10,914
270,5	10,4
271	14,057
271,4	10,029
271,9	12,714
272,4	14,886
272,8	8,286
273,3	6,571
273,7	2,714
274,2	-0,114
274,7	6,657
275,1	-0,286
275,6	0,543
276,1	5,314
276,5	5,857
277	11,457
277,4	15,143
277,9	11,143
278,4	20,857
278,8	21,286
279,3	18,714
279,8	21,914
280,2	15,686
280,7	11,886
281,1	18,543
281,6	16,6
282,1	21,029
282,5	25,371
283	17,714
283,4	20,943
283,9	19,286
284,4	15,714
284,8	12,571
285,3	5,257
285,8	0,029
286,2	3
286,7	2,829
287,1	4,457
287,6	5,171
288,1	6,771
288,5	7,2
289	8,2
289,5	10,314
289,9	7,743
290,4	8,143
290,8	12,857
291,3	11
291,8	15,371
292,2	15,057
292,7	13,886
293,1	15,943
293,6	16,086
294,1	7,886
294,5	10,629
295	4,343
295,5	6,286
295,9	10,943
296,4	11,6
296,8	10,2
297,3	15,943
297,8	19,286
298,2	17,657
298,7	14,8
299,1	11,029
299,6	12
300,1	15,829
300,5	13,714
301	9,429
301,5	14,114
301,9	13,914
302,4	11,743
302,8	9,914
303,3	6,429
303,8	1,657
304,2	0,314
304,7	-0,6
305,1	3,086
305,6	-0,771
306,1	0,314
306,5	1,257
307	1,029
307,4	-2,314
307,9	-2,429
308,4	-2,486
308,8	4,829
309,3	3,571
309,8	6,629
310,2	6,829
310,7	20,171
311,1	16,886
311,6	13,943
312,1	14,714
312,5	15,2
313	10,8
313,4	13,486
313,9	6,171
314,4	6,686
314,8	8,857
315,3	7,657
315,7	7,743
316,2	6,8
316,7	5,6
317,1	5
317,6	5,686
318	11
318,5	9,086
319	10,8
319,4	13,286
319,9	13,6
320,3	14,343
320,8	14,686
321,3	6,686
321,7	9,086
322,2	7,943
322,6	9,6
323,1	8,257
323,6	6,2
324	3,743
324,5	3,229
324,9	2,114
325,4	3,029
325,9	3,486
326,3	8,914
326,8	9,543
327,2	13,657
327,7	14,914
328,2	12,371
328,6	13,314
329,1	12,943
329,5	13,257
330	11
330,5	10,286
330,9	11,714
331,4	8,6
331,8	7,286
332,3	7,714
332,8	4,6
333,2	5,086
333,7	5,686
334,1	8,4
334,6	13,543
335,1	17,286
335,5	15,971
336	14,771
336,4	16,086
336,9	19,229
337,4	16,114
337,8	15,8
338,3	13,571
338,7	12,771
339,2	13,543
339,7	16,571
340,1	10,143
340,6	8,571
341	11,4
341,5	13,314
342	12,971
342,4	13,143
342,9	6,514
343,3	10,371
343,8	16,886
344,2	15,543
344,7	11,314
345,2	10,886
345,6	16,514
346,1	22,857
346,5	21,143
347	17,2
347,5	14,657
347,9	14,971
348,4	14,571
348,8	11,286
349,3	9,857
349,8	10,343
350,2	11,971
350,7	15,943
351,1	14,257
351,6	18,086
352	22,8
352,5	24,657
353	34,714
353,4	40,114
353,9	47,029
354,3	63,771
354,8	72,743
355,3	83,429
355,7	102,086
356,2	115,029
356,6	137,914
357,1	158,829
357,5	184,971
358	223,429
358,5	261,457
358,9	304,371
359,4	355,2
359,8	403,086
360,3	467,514
360,8	532,086
361,2	602,6
361,7	680,829
362,1	767,971
362,6	867,314
363	973,314
363,5	1086,457
364	1200,171
364,4	1313,629
364,9	1432,771
365,3	1548,229
365,8	1658,629
366,3	1767,857
366,7	1859,4
367,2	1941,143
367,6	2015,714
368,1	2068,971
368,5	2101,829
369	2114,686
369,5	2118,114
369,9	2102
370,4	2071,543
370,8	2020,457
371,3	1966,657
371,7	1897,886
372,2	1818,8
372,7	1722,686
373,1	1633,486
373,6	1541,257
374	1441,371
374,5	1344,029
374,9	1250,429
375,4	1163,057
375,9	1084,114
376,3	1000,029
376,8	920,914
377,2	855,8
377,7	784,571
378,2	722,086
378,6	661,343
379,1	603,114
379,5	554,771
380	510,571
380,4	468,171
380,9	433,171
381,4	402,514
381,8	372,571
382,3	343,343
382,7	315,086
383,2	294,629
383,6	273,971
384,1	254,629
384,6	232,571
385	218,857
385,5	206,114
385,9	198,343
386,4	184,943
386,8	176,371
387,3	164,143
387,7	159,4
388,2	150,886
388,7	149,257
389,1	139,286
389,6	128
390	121,343
390,5	114,657
390,9	109,943
391,4	106,943
391,9	95,257
392,3	84,457
392,8	83,686
393,2	74,743
393,7	74,229
394,1	69,543
394,6	63,743
395,1	63,714
395,5	66,171
396	63,429
396,4	62,543
396,9	62,714
397,3	53,286
397,8	50,171
398,2	43,857
398,7	40,086
399,2	37,943
399,6	41,714
400,1	32,657
400,5	40,771
401	43,429
401,4	45,486
401,9	45,029
402,4	42,629
402,8	38,657
403,3	40,4
403,7	35,086
404,2	33,771
404,6	33,971
405,1	31,457
405,5	29,8
406	27
406,5	26,771
406,9	27,657
407,4	25,6
407,8	24,171
408,3	29,057
408,7	38,143
409,2	42,086
409,6	43,486
410,1	49,286
410,6	51,714
411	54,686
411,5	53,486
411,9	50,057
412,4	55,086
412,8	57,486
413,3	56,514
413,7	58,343
414,2	63,429
414,7	70,571
415,1	69,6
415,6	71,457
416	77,371
416,5	78,2
416,9	77
417,4	74,914
417,8	76,714
418,3	85,6
418,8	82,771
419,2	86
419,7	92,314
420,1	97,286
420,6	101,743
421	99,143
421,5	96,714
421,9	99,629
422,4	100,114
422,8	96,343
423,3	94,943
423,8	97,914
424,2	100,286
424,7	99,429
425,1	97,371
425,6	96,714
426	97,629
426,5	98,371
426,9	95,057
427,4	92,171
427,9	91,229
428,3	93,514
428,8	92,971
429,2	91,229
429,7	85,686
430,1	84,857
430,6	88,829
431	88,571
431,5	91,143
431,9	91,543
432,4	92,543
432,8	98,829
433,3	101,543
433,8	103,057
434,2	103,771
434,7	101,629
435,1	103,4
435,6	113,829
436	118,771
436,5	121,257
436,9	123,571
437,4	132,286
437,8	133,857
438,3	137,886
438,8	130,629
439,2	132,571
439,7	133,171
440,1	137,343
440,6	141,686
441	147,514
441,5	148,571
441,9	161,771
442,4	173,571
442,8	181,857
443,3	184,371
443,7	186,971
444,2	198,971
444,7	208,8
445,1	211,257
445,6	212,229
446	223,543
446,5	234
446,9	244,029
447,4	251,6
447,8	258,543
448,3	272
448,7	285,457
449,2	290,371
449,6	300,686
450,1	319,029
450,6	332,8
451	340,486
451,5	350,543
451,9	363,314
452,4	378,2
452,8	394,629
453,3	398,886
453,7	413,857
454,2	431,514
454,6	445,943
455,1	453,2
455,5	470,314
456	483,657
456,4	503,8
456,9	515,229
457,3	539,629
457,8	556,2
458,3	583,914
458,7	603,029
459,2	624,171
459,6	641,743
460,1	658,657
460,5	678,371
461	696,314
461,4	716,343
461,9	733,486
462,3	754,457
462,8	775,057
463,2	800
463,7	818,714
464,1	848,029
464,6	865,543
465	889,6
465,5	913,686
466	939,886
466,4	960,429
466,9	982,429
467,3	1003,314
467,8	1037,2
468,2	1063,743
468,7	1088,743
469,1	1114,371
469,6	1143,629
470	1175,371
470,5	1203,257
470,9	1225,514
471,4	1255,971
471,8	1278
472,3	1296,143
472,7	1323,714
473,2	1337,886
473,6	1364,571
474,1	1381,657
474,5	1401,229
475	1427,857
475,4	1458,943
475,9	1486,829
476,4	1517,457
476,8	1540,371
477,3	1571,771
477,7	1599,829
478,2	1619,4
478,6	1641,171
479,1	1657,171
479,5	1682,886
480	1703,8
480,4	1722,029
480,9	1743,143
481,3	1765,314
481,8	1790,629
482,2	1809,114
482,7	1830,171
483,1	1853,2
483,6	1871,829
484	1884,171
484,5	1907,914
484,9	1925,971
485,4	1950,771
485,8	1961,514
486,3	1975,629
486,7	1997,857
487,2	2017,6
487,6	2027,829
488,1	2041
488,5	2054,886
489	2066,6
489,4	2082,829
489,9	2091,171
490,4	2103,571
490,8	2116,057
491,3	2126,6
491,7	2131,257
492,2	2145,057
492,6	2150,2
493,1	2155,371
493,5	2155,029
494	2164,457
494,4	2167,657
494,9	2174,314
495,3	2185
495,8	2192,543
496,2	2202,686
496,7	2212,257
497,1	2215,4
497,6	2215,6
498	2221,486
498,5	2222,771
498,9	2220,571
499,4	2225,571
499,8	2228,343
500,3	2233,6
500,7	2238,143
501,2	2245,943
501,6	2248,514
502,1	2258,714
502,5	2257,486
503	2263,229
503,4	2263,429
503,9	2274,543
504,3	2274,086
504,8	2272,486
505,2	2272,571
505,7	2275,829
506,1	2278,314
506,6	2281,229
507	2281
507,5	2278,571
507,9	2280,829
508,4	2286,286
508,8	2285
509,3	2278,114
509,7	2272
510,2	2264,629
510,6	2261,971
511,1	2264,257
511,5	2255,057
512	2257,086
512,4	2258,571
512,9	2261,971
513,3	2269,029
513,8	2272,4
514,2	2272,057
514,7	2273,257
515,1	2273,4
515,6	2273,143
516	2271,486
516,5	2270,429
516,9	2263,943
517,4	2259,114
517,8	2254,114
518,3	2248
518,7	2246,714
519,2	2249,2
519,6	2245,8
520,1	2249,229
520,5	2250,629
521	2249,629
521,4	2250,686
521,9	2256,886
522,3	2252,429
522,8	2252,6
523,2	2254,6
523,7	2255,771
524,1	2260,114
524,6	2259,171
525	2250,886
525,5	2253,457
525,9	2247,457
526,4	2237,571
526,8	2229,943
527,3	2229,829
527,7	2230,714
528,2	2236,571
528,6	2235,714
529,1	2241,8
529,5	2246,343
530	2254,714
530,4	2254,371
530,9	2253,171
531,3	2248
531,8	2251,743
532,2	2250,143
532,6	2259,943
533,1	2256,571
533,5	2255,829
534	2257,771
534,4	2265,114
534,9	2275,857
535,3	2281,057
535,8	2278,4
536,2	2285,914
536,7	2290,971
537,1	2292
537,6	2299,657
538	2291,886
538,5	2296,057
538,9	2298,171
539,4	2301,886
539,8	2303,543
540,3	2306,886
540,7	2299,114
541,2	2298,771
541,6	2304,743
542,1	2313,743
542,5	2311,143
543	2314,057
543,4	2324,829
543,9	2330,6
544,3	2334,486
544,8	2331
545,2	2332,543
545,7	2336,171
546,1	2342,629
546,5	2342
547	2351,086
547,4	2352,971
547,9	2359,086
548,3	2358,629
548,8	2362,886
549,2	2366,943
549,7	2367,857
550,1	2367,886
550,6	2376,686
551	2380,029
551,5	2379,286
551,9	2388,314
552,4	2390,029
552,8	2399,114
553,3	2402,686
553,7	2401,314
554,2	2400,057
554,6	2402,971
555,1	2401,286
555,5	2400,229
555,9	2401,486
556,4	2407,314
556,8	2407,286
557,3	2406,514
557,7	2413,6
558,2	2412
558,6	2420,971
559,1	2422
559,5	2416,2
560	2429,514
560,4	2439,2
560,9	2444,029
561,3	2447,743
561,8	2451,371
562,2	2451,514
562,7	2463
563,1	2456,029
563,6	2457,2
564	2456,486
564,4	2460
564,9	2454,4
565,3	2459,714
565,8	2462,114
566,2	2468,971
566,7	2465,771
567,1	2472,114
567,6	2472,629
568	2477,371
568,5	2473,143
568,9	2466,143
569,4	2465,343
569,8	2472,571
570,3	2468,543
570,7	2465,657
571,1	2469,857
571,6	2474,829
572	2476,257
572,5	2474,743
572,9	2476,229
573,4	2475,686
573,8	2481,771
574,3	2473,686
574,7	2475,6
575,2	2470,829
575,6	2472,257
576,1	2469,886
576,5	2470,343
576,9	2468,829
577,4	2472,114
577,8	2465,4
578,3	2466,171
578,7	2463,143
579,2	2460,743
579,6	2460,229
580,1	2456,314
580,5	2448,657
581	2448,371
581,4	2451,314
581,9	2450,114
582,3	2439,514
582,7	2433,743
583,2	2429,057
583,6	2430,457
584,1	2423,971
584,5	2419,4
585	2413,314
585,4	2415,429
585,9	2415,143
586,3	2413,771
586,8	2409,857
587,2	2408
587,6	2399,229
588,1	2394,686
588,5	2394,486
589	2384,714
589,4	2379
589,9	2373,4
590,3	2367
590,8	2368,086
591,2	2372,514
591,7	2366,143
592,1	2365,143
592,5	2360,514
593	2359,514
593,4	2358,686
593,9	2352,771
594,3	2336,229
594,8	2331,429
595,2	2323,714
595,7	2323,714
596,1	2317,714
596,6	2318,543
597	2319,029
597,4	2319,914
597,9	2315,514
598,3	2311,771
598,8	2305
599,2	2304,743
599,7	2296,057
600,1	2289,143
600,6	2287,714
601	2288,229
601,4	2288,343
601,9	2284,543
602,3	2278,543
602,8	2272,429
603,2	2272,629
603,7	2268,857
604,1	2259,829
604,6	2248,714
605	2241,4
605,4	2234,457
605,9	2233,943
606,3	2219,914
606,8	2205,114
607,2	2196,971
607,7	2197,086
608,1	2194,029
608,6	2191,286
609	2181,2
609,4	2178,114
609,9	2176,914
610,3	2170,257
610,8	2165,914
611,2	2159,229
611,7	2145,143
612,1	2130,457
612,6	2124,314
613	2121,486
613,4	2116,943
613,9	2109,114
614,3	2101,286
614,8	2101,343
615,2	2099,457
615,7	2092,571
616,1	2080,286
616,6	2075,486
617	2060,6
617,4	2052,429
617,9	2036,629
618,3	2034,343
618,8	2021,486
619,2	2016,829
619,7	2006,143
620,1	2000,971
620,5	1995,486
621	1990,114
621,4	1980,086
621,9	1974,8
622,3	1965,914
622,8	1954,343
623,2	1948,743
623,6	1938,343
624,1	1933,343
624,5	1922,029
625	1910,657
625,4	1907,286
625,9	1903,029
626,3	1887,743
626,8	1886,229
627,2	1877,286
627,6	1868,143
628,1	1862,057
628,5	1850,086
629	1842,143
629,4	1837,286
629,9	1824,2
630,3	1812,971
630,7	1809,857
631,2	1795,257
631,6	1788,057
632,1	1780,171
632,5	1775,286
633	1760,629
633,4	1751,914
633,8	1736,8
634,3	1734,886
634,7	1724,429
635,2	1712,114
635,6	1701,114
636,1	1701,171
636,5	1691,771
636,9	1687,086
637,4	1681,257
637,8	1673,057
638,3	1665,171
638,7	1657,229
639,2	1645,314
639,6	1643,457
640	1634,914
640,5	1625,914
640,9	1619,6
641,4	1609,057
641,8	1599
642,2	1591,371
642,7	1583,486
643,1	1580,457
643,6	1573
644	1564,4
644,5	1561,086
644,9	1554,943
645,3	1550,943
645,8	1540,714
646,2	1530,8
646,7	1517,829
647,1	1508,343
647,6	1500,457
648	1491,886
648,4	1486,029
648,9	1481,6
649,3	1471,457
649,8	1468,914
650,2	1458,971
650,6	1452,971
651,1	1451,486
651,5	1441,6
652	1430,857
652,4	1423,171
652,9	1414,486
653,3	1410,743
653,7	1404,4
654,2	1396,514
654,6	1383,714
655,1	1372,143
655,5	1365,2
655,9	1359,029
656,4	1354,286
656,8	1345,2
657,3	1335,514
657,7	1329,4
658,2	1327,114
658,6	1320,286
659	1309,8
659,5	1300,2
659,9	1293,657
660,4	1287,6
660,8	1283,029
661,2	1277,4
661,7	1266,629
662,1	1262,429
662,6	1248,029
663	1242,943
663,4	1233,343
663,9	1222,229
664,3	1208,457
664,8	1200,571
665,2	1192,371
665,6	1191,143
666,1	1181,914
666,5	1176,086
667	1171,257
667,4	1169,971
667,9	1167,2
668,3	1160,343
668,7	1155,629
669,2	1145,829
669,6	1139,714
670,1	1133,371
670,5	1122,343
670,9	1121,314
671,4	1114,429
671,8	1106,771
672,3	1103,8
672,7	1095,229
673,1	1088,743
673,6	1085,257
674	1070,971
674,5	1067,343
674,9	1062
675,3	1055,286
675,8	1051,457
676,2	1044,829
676,7	1036,343
677,1	1031,257
677,5	1022
678	1012,771
678,4	1007,429
678,9	1001,429
679,3	995,086
679,7	991,286
680,2	989,743
680,6	987
681,1	984,514
681,5	976,286
681,9	968,714
682,4	965,4
682,8	959,4
683,3	945,229
683,7	936,114
684,1	928,171
684,6	920,686
685	913,257
685,5	899,743
685,9	895,714
686,3	896,914
686,8	889,657
687,2	885,657
687,7	884,971
688,1	881,057
688,5	880,571
689	872,086
689,4	867,4
689,9	865,171
690,3	860,543
690,7	849,714
691,2	842,2
691,6	835,829
692	832,914
692,5	820,486
692,9	811,086
693,4	804,8
693,8	803,229
694,2	797,286
694,7	796,943
695,1	789,6
695,6	787,257
696	786,429
696,4	778,486
696,9	771,743
697,3	771,114
697,8	757,657
698,2	752,771
698,6	749,857
699,1	739,114
699,5	735,943
699,9	733,286
700,4	726,486
700,8	728,943
701,3	724,114
701,7	715,571
702,1	712,943
702,6	708,229
703	697,343
703,5	694,486
703,9	691,171
704,3	686,571
704,8	688,457
705,2	689,629
705,6	684,4
706,1	685,914
706,5	684,914
707	672,286
707,4	671,6
707,8	664,771
708,3	654,514
708,7	655,543
709,2	650,629
709,6	644,371
710	643,143
710,5	637,486
710,9	633,314
711,3	629,429
711,8	621,171
712,2	614,543
712,7	606,314
713,1	601,657
713,5	598,086
714	593,057
714,4	590,086
714,8	589,286
715,3	583,571
715,7	579,771
716,2	574,029
716,6	572,571
717	569,429
717,5	570,086
717,9	561,257
718,3	558,771
718,8	558,286
719,2	562,4
719,7	557,029
720,1	550,143
720,5	544,114
721	542,886
721,4	545,8
721,8	541,8
722,3	530,8
722,7	524,886
723,2	523,229
723,6	518,114
724	513,6
724,5	504
724,9	495,171
725,3	491,8
725,8	487,314
726,2	482,171
726,7	477,543
727,1	472,343
727,5	473,143
728	474,514
728,4	473,086
728,8	474,057
729,3	474,286
729,7	472
730,1	471,057
730,6	465,629
731	464,771
731,5	465,286
731,9	462,857
732,3	459,029
732,8	459,429
733,2	458,257
733,6	455,086
734,1	450,743
734,5	440,886
734,9	436,914
735,4	439,514
735,8	436,486
736,3	430,286
736,7	432,257
737,1	431,971
737,6	434,829
738	430,943
738,4	428,514
738,9	430,429
739,3	430,8
739,7	422,429
740,2	418,657
740,6	414,829
741,1	412,486
741,5	404,657
741,9	392,314
742,4	386,4
742,8	391,029
743,2	389,057
743,7	390,886
744,1	386,257
744,5	385,114
745	384,657
745,4	386,343
745,8	381,029
746,3	379,057
746,7	373,886
747,2	377,514
747,6	374,057
748	376,029
748,5	370,6
748,9	365,143
749,3	366,171
749,8	363,429
750,2	356,857
750,6	357,6
751,1	353,371
751,5	353,114
751,9	353,371
752,4	348,686
752,8	346,486
753,3	342,857
753,7	337,857
754,1	334,943
754,6	333,143
755	336,143
755,4	335,314
755,9	335,343
756,3	333,343
756,7	331,171
757,2	331,629
757,6	326,086
758	318,286
758,5	309,114
758,9	306,943
759,3	305,857
759,8	309,514
760,2	308,343
760,6	309,543
761,1	306,943
761,5	311,686
761,9	306
762,4	308,371
762,8	300,514
763,3	294,629
763,7	286,714
764,1	283,714
764,6	278,857
765	276,457
765,4	272,171
765,9	267,971
766,3	268,171
766,7	272,229
767,2	271,943
767,6	266
768	267,171
768,5	261,257
768,9	261,886
769,3	262,514
769,8	263,829
770,2	268,914
770,6	272,086
771,1	273,029
771,5	272,086
771,9	270,343
772,4	271,343
772,8	264,229
773,2	257,629
773,7	253,429
774,1	253,514
774,5	254,514
775	251,657
775,4	245,029
775,8	245,686
776,3	241,429
776,7	243,286
777,1	241
777,6	239,143
778	240,286
778,4	237,314
778,9	237,057
779,3	237,771
779,7	235,4
780,2	228,257
780,6	226,486
781	226,8
781,5	231,286
781,9	231,143
782,3	227,314
782,8	222,8
783,2	222,6
783,6	218,714
784,1	217,229
784,5	211,686
784,9	211,429
785,4	210,343
785,8	208,886
786,2	205,229
786,7	205,857
787,1	202,6
787,5	201,371
788	197,8
788,4	197,943
788,8	197,057
789,3	196,686
789,7	194,743
790,1	196,171
790,6	195,229
791	192,714
791,4	190
791,9	190,714
792,3	192,114
792,7	195,4
793,2	189,943
793,6	184,543
794	182,4
794,5	181,371
794,9	181,6
795,3	177,543
795,8	172,2
796,2	174,829
796,6	174,286
797,1	171,657
797,5	171,486
797,9	168,143
798,4	168,543
798,8	165,714
799,2	161,771
799,7	164,2
800,1	164,914
800,5	162,171
801	161,371
801,4	158,029
801,8	159,629
802,2	160,314
802,7	161,029
803,1	158,029
803,5	160,6
804	157,314
804,4	154,143
804,8	151,971
805,3	146,114
805,7	142,8
806,1	145,686
806,6	143,486
807	142,286
807,4	144,286
807,9	144,171
808,3	144,114
808,7	143,714
809,2	141,143
809,6	140,743
810	141,886
810,4	143,486
810,9	136,743
811,3	137,743
811,7	136,457
812,2	137,086
812,6	136,514
813	133,943
813,5	132,514
813,9	135,657
814,3	132,4
814,8	131,857
815,2	124,429
815,6	120,086
816,1	120,657
816,5	116,886
816,9	116,914
817,3	116,429
817,8	122,2
818,2	121,257
818,6	121,486
819,1	121,571
819,5	123,857
819,9	117,4
820,4	118,714
820,8	104,2
821,2	106,714
821,7	107,371
822,1	103,029
822,5	102,314
822,9	108,743
823,4	106,6
823,8	112,714
824,2	112,286
824,7	116,8
825,1	118,543
825,5	119,314
826	119,914
826,4	120,771
826,8	120,629
827,3	121,914
827,7	114,257
828,1	115,086
828,5	111,657
829	105,257
829,4	107,429
829,8	100,8
830,3	98,914
830,7	93,343
831,1	86,114
831,6	83,886
832	83,771
832,4	79,057
832,8	82,514
833,3	77,343
833,7	80,914
834,1	83,629
834,6	82,114
835	83,171
835,4	87,714
835,8	86,343
836,3	88,943
836,7	84,886
837,1	84,114
837,6	85
838	79,8
838,4	72,371
838,9	72,6
839,3	76,686
839,7	80,343
840,1	80,171
840,6	77,571
841	77,229
841,4	77,857
841,9	73,457
842,3	69,743
842,7	67,6
843,1	70,629
843,6	77,057
844	79,6
844,4	81,629
844,9	84,057
845,3	81,8
845,7	82,229
846,2	80,086
846,6	74,514
847	74,886
847,4	73,343
847,9	73,086
848,3	75,343
848,7	76,4
849,2	74,286
849,6	73,743
850	71,457
850,4	72,771
850,9	71,143
851,3	70,629
851,7	67,2
852,2	61,029
852,6	59,171
853	63,4
853,4	61,743
853,9	58,457
854,3	54,257
854,7	53,629
855,2	58,114
855,6	55
856	48,029
856,4	47,229
856,9	44,8
857,3	46,657
857,7	50,629
858,2	52,771
858,6	59,657
859	60,286
859,4	61,343
859,9	61,486
860,3	60
860,7	54,057
861,1	52,029
861,6	47,886
862	51,171
862,4	47,971
862,9	52,571
863,3	48,8
863,7	48,286
864,1	48,286
864,6	47,943
865	49,171
865,4	47,029
865,9	44,429
866,3	51,314
866,7	54,371
867,1	56,343
867,6	55,8
868	52,943
868,4	52,914
868,8	57,543
869,3	56,257
869,7	52,914
870,1	54,514
870,6	51,8
871	80,314
871,4	80,943
871,8	78,657
872,3	75,2
872,7	75,114
873,1	76,2
873,5	77,257
874	46,714
874,4	44,6
874,8	41,029
875,3	41,8
875,7	42,057
876,1	35,114
876,5	39,543
877	40,914
877,4	40,514
877,8	46,2
878,2	42,8
878,7	47,229
879,1	48,886
879,5	47,286
879,9	45,629
880,4	44,229
880,8	40,057
881,2	42,2
881,7	40,886
882,1	37,943
882,5	35,4
882,9	35,2
883,4	38,571
883,8	35,6
884,2	36,114
884,6	31,314
885,1	35,029
885,5	38,943
885,9	46,114
886,3	46
886,8	48,514
887,2	47,629
887,6	48,371
888	44,829
888,5	43,8
888,9	37
889,3	33,543
889,8	32,143
890,2	30,4
890,6	28,086
891	29,171
891,5	29,114
891,9	28,829
892,3	29,686
892,7	32,629
893,2	34,886
893,6	37,857
894	38,971
894,4	38,314
894,9	37,743
895,3	41,4
895,7	39,229
896,1	41,2
896,6	40,314
897	40,257
897,4	35,486
897,8	35,2
898,3	34,629
898,7	31,686
899,1	27,543
899,5	28,371
900	26,143
900,4	24,4
900,8	28,229
901,2	24,486
901,7	25,629
902,1	27,914
902,5	26,543
902,9	29,114
903,4	36,086
903,8	28,657
904,2	35,257
904,6	34,743
905,1	36,486
905,5	36,429
905,9	29,371
906,3	22,057
906,8	24,829
907,2	15,943
907,6	17,943
908	13,4
908,5	14,971
908,9	16,914
909,3	17,229
909,7	15,6
910,2	16,857
910,6	15,486
911	15
911,4	12,029
911,9	15,2
912,3	17,057
912,7	17,8
913,1	17,229
913,6	19,857
914	24,114
914,4	21,629
914,8	22,886
915,3	21,314
915,7	14,371
916,1	13,714
916,5	11,971
916,9	7,743
917,4	10,229
917,8	7,086
918,2	7,314
918,6	15
919,1	21,771
919,5	24,4
919,9	23,943
920,3	24,229
920,8	22,314
921,2	24,629
921,6	23,486
922	15,829
922,5	15,429
922,9	15,714
923,3	16,8
923,7	18,057
924,2	17,943
924,6	15,714
925	16,714
925,4	12,343
925,8	13,514
926,3	16,514
926,7	19,114
927,1	18,343
927,5	22,971
928	22,171
928,4	23,371
928,8	26,914
929,2	23,171
929,7	20,743
930,1	20,629
930,5	17,2
930,9	22,629
931,3	25,057
931,8	19,143
932,2	19,914
932,6	20,543
933	17,4
933,5	18,829
933,9	15,4
934,3	11,6
934,7	14,143
935,2	15,4
935,6	12,629
936	11
936,4	9,571
936,8	10,714
937,3	12,143
937,7	10,771
938,1	5,629
938,5	5,8
939	11,629
939,4	12,171
939,8	8,486
940,2	8,943
940,6	6,971
941,1	12,514
941,5	14,229
941,9	11,771
942,3	10,143
942,8	13,286
943,2	11,571
943,6	15,429
944	10,771
944,4	4,571
944,9	6,514
945,3	10,771
945,7	11
946,1	11,171
946,6	8,514
947	9,371
947,4	15,943
947,8	16,457
948,2	12,8
948,7	10
949,1	7,943
949,5	10,2
949,9	13,657
950,3	14,657
950,8	12,857
951,2	15,314
951,6	18,086
952	19,543
952,5	14,971
952,9	11,829
953,3	7,714
953,7	9,486
954,1	7,771
954,6	6,829
955	8,943
955,4	13,629
955,8	16,543
956,2	15,171
956,7	14,486
957,1	13,857
957,5	12,343
957,9	13,2
958,3	9,829
958,8	4,257
959,2	10,6
959,6	14,343
960	15,057
960,5	14,486
960,9	11,343
961,3	13,857
961,7	12,4
962,1	8,371
962,6	3,571
963	-2,514
963,4	-0,543
963,8	0,771
964,2	-2,6
964,7	-0,914
965,1	-0,114
965,5	-2,086
965,9	4,857
966,3	4,057
966,8	5,371
967,2	7,257
967,6	8,914
968	6,514
968,4	10,429
968,9	12,971
969,3	13,6
969,7	8,286
970,1	10,029
970,5	15,971
971	15,286
971,4	17,6
971,8	15,4
972,2	19,6
972,6	22,829
973,1	22,571
973,5	18,343
973,9	21,743
974,3	16,571
974,7	12,514
975,2	5,914
975,6	0,343
976	-0,171
976,4	-0,314
976,8	0,457
977,3	0,2
977,7	3,486
978,1	4,743
978,5	10,171
978,9	8,971
979,4	6,914
979,8	4,971
980,2	1,743
980,6	1,771
981	3,943
981,5	1,714
981,9	3,971
982,3	5,771
982,7	3,457
983,1	6,143
983,6	5,2
984	4,057
984,4	8,429
984,8	4,114
985,2	0,8
985,6	5,514
986,1	7,171
986,5	6,343
986,9	9,857
987,3	3,286
987,7	7,771
988,2	10,6
988,6	8,029
989	10,829
989,4	12
989,8	6,971
990,3	11,486
990,7	7,029
991,1	3,286
991,5	4,714
991,9	4,143
992,3	5,657
992,8	7,429
993,2	9,343
993,6	9,771
994	11,629
994,4	10,886
994,9	9,371
995,3	9,029
995,7	9,686
996,1	7,371
996,5	9,8
996,9	11,029
997,4	9,029
997,8	7,486
998,2	6,714
998,6	7,371
999	8,257
999,5	7,286
999,9	7,086
1000,3	10,6
1000,7	10,171
1001,1	9,343
1001,5	7,8
1002	5,029
1002,4	6,6
1002,8	12,886
1003,2	13,429
1003,6	13,543
1004	15,543
1004,5	13,371
1004,9	17,543
1005,3	15,143
1005,7	7,971
1006,1	3,086
1006,6	6,4
1007	3,029
1007,4	6,514
1007,8	0,829
1008,2	0,686
1008,6	2,114
1009,1	0,771
1009,5	5,543
1009,9	11,057
1010,3	13,686
1010,7	19,629
1011,1	23,886
1011,6	23,8
1012	24,629
1012,4	23
1012,8	19
1013,2	14,029
1013,6	11,171
1014,1	8,457
1014,5	8,771
1014,9	11,457
1015,3	6,286
1015,7	3,371
1016,1	5,971
1016,6	8,343
1017	9,943
1017,4	9,629
1017,8	5,543
1018,2	3,486
1018,6	7,743
1019,1	3,829
1019,5	4,286
1019,9	7,057
1020,3	7,086
1020,7	13,857
1021,1	17,686
1021,6	13,2
1022	10,886
1022,4	12,943
1022,8	6,829
1023,2	5,914
1023,6	-1,057
1024,1	-1,343
1024,5	1,857
1024,9	9,857
1025,3	9,2
1025,7	13,4
1026,1	14,229
1026,6	24,686
1027	22,457
1027,4	22,914
1027,8	20,143
1028,2	18,886
1028,6	16,2
1029	15,971
1029,5	8,971
1029,9	11,971
1030,3	14,8
1030,7	10,857
1031,1	6,714
1031,5	7,543
1032	10,057
1032,4	9,714
1032,8	8,429
1033,2	6,857
1033,6	9,714
1034	11,171
1034,4	15,543
1034,9	11,029
1035,3	13,029
1035,7	6,686
1036,1	6,686
1036,5	-0,371
1036,9	0,029
1037,4	0,229
1037,8	3,543
1038,2	-1,371
1038,6	2,943
1039	-0,2
1039,4	4,657
1039,8	4,457
1040,3	-2,057
1040,7	-4
1041,1	-1,571
1041,5	-2,486
1041,9	-0,314
1042,3	1,914
1042,7	2,943
1043,2	3,571
1043,6	10,829
1044	11,171
1044,4	10,029
1044,8	5,2
1045,2	9,457
1045,6	11,743
1046,1	15,143
1046,5	11,171
1046,9	13,714
1047,3	13,886
1047,7	14,8
1048,1	8,571
1048,5	9,143
1049	7,629
1049,4	4,543
1049,8	1,971
1050,2	8,543
1050,6	11,229
1051	13,857
1051,4	10,343
1051,9	11,743
1052,3	10,143
1052,7	11,029
1053,1	7,886
1053,5	11,343
1053,9	9,571
1054,3	6,229
1054,8	10,257
1055,2	12,343
1055,6	12,829
1056	12,257
1056,4	9,8
1056,8	17,229
1057,2	19,086
1057,6	12,686
1058,1	12,6
1058,5	13
1058,9	13,086
1059,3	13,171
1059,7	5,2
1060,1	3,257
1060,5	-3,2
1061	-5,086
1061,4	-0,943
1061,8	-5,4
1062,2	-7,714
1062,6	-7,743
1063	-4,229
1063,4	3,571
1063,8	6,257
1064,3	3,657
1064,7	8,829
1065,1	12,171
1065,5	15,057
1065,9	10,943
1066,3	6,429
1066,7	4,029
1067,1	2,571
1067,6	2,314
1068	-1,371
1068,4	0,771
1068,8	3,829
1069,2	7,286
1069,6	10,171
1070	10,229
1070,4	8,086
1070,9	8,971
1071,3	5,229
1071,7	4,343
1072,1	6,314
1072,5	6,371
1072,9	11,4
1073,3	11,743
1073,7	11
1074,2	12,143
1074,6	13,543
1075	10,686
1075,4	8,2
1075,8	4,714
1076,2	6,886
1076,6	6,914
1077	4,143
1077,5	7,743
1077,9	9,057
1078,3	9
1078,7	8,2
1079,1	9,114
1079,5	9,6
1079,9	15,686
1080,3	9,943
1080,7	12,286
1081,2	14,629
1081,6	14,857
1082	12,429
1082,4	13,629
1082,8	8,543
1083,2	4,6
1083,6	3,686
1084	-0,229
1084,5	0,257
1084,9	-0,371
1085,3	-2,629
1085,7	-3,314
1086,1	0,714
1086,5	0,429
1086,9	4,4
1087,3	3,714
1087,7	5,457
1088,2	6,857
1088,6	5,714
1089	3,8
1089,4	1,857
1089,8	4,771
1090,2	5,4
1090,6	0,029
1091	4,829
1091,4	9,486
1091,9	14,286
1092,3	14,6
1092,7	11,2
1093,1	9,4
1093,5	12,257
1093,9	8,343
1094,3	6,771
1094,7	4,371
1095,1	1,943
1095,5	-2
1096	-6,571
1096,4	-2,686
1096,8	-6,029
1097,2	-4,4
1097,6	-2,486
1098	2,171
1098,4	4,457
1098,8	4,943
1099,2	1,171
1099,6	3,829
1100,1	2,943
1100,5	4,086
1100,9	3,257
1101,3	4,857
1101,7	12,514
1102,1	13,057
1102,5	11,771
1102,9	6,543
1103,3	2,571
1103,7	0,6
1104,2	0,771
1104,6	-1,171
1105	-1,286
1105,4	1,6
1105,8	5,486
1106,2	7,086
1106,6	5,343
1107	3,743
1107,4	1,367
1107,8	2,24
1108,3	0,3
