Data from Subt2_239.txt Node
Date: Sat Aug 26 18:55:38 MSK 2023
User: vat
Spectrometer: MAYP114033
Trigger mode: 0
Integration Time (sec): 1,000000E0
Scans to average: 5
Electric dark correction enabled: true
Nonlinearity correction enabled: false
Boxcar width: 3
XAxis mode: Wavelengths
Number of Pixels in Spectrum: 2068
>>>>>Begin Spectral Data<<<<<
199,4	-1,133
199,9	-0,353
200,4	-1,267
200,8	-0,348
201,3	-1,148
201,8	1,024
202,2	-2,833
202,7	1,595
203,2	2,395
203,6	-0,405
204,1	-1,748
204,6	-0,719
205	0,138
205,5	5,567
206	2,595
206,4	2,11
206,9	4,91
207,4	5,538
207,8	6,167
208,3	4,481
208,8	0,424
209,2	3,738
209,7	4,481
210,2	7,91
210,6	9,824
211,1	10,51
211,5	7,738
212	13,252
212,5	9,452
212,9	8,624
213,4	4,795
213,9	3,052
214,3	3,452
214,8	7,281
215,3	3,481
215,7	7,338
216,2	9,652
216,7	13,995
217,1	10,91
217,6	8,681
218,1	9,338
218,5	8,738
219	-2,319
219,5	-1,576
219,9	-2,376
220,4	6,052
220,9	9,595
221,3	5,824
221,8	7,624
222,3	16,967
222,7	14,052
223,2	11,395
223,6	6,395
224,1	6,481
224,6	10,795
225	7,052
225,5	2,11
226	2,252
226,4	2,367
226,9	-0,49
227,4	-5,433
227,8	-12,119
228,3	-8,29
228,8	-3,49
229,2	-5,49
229,7	-6,09
230,2	-2,205
230,6	5,367
231,1	14,367
231,5	13,71
232	14,652
232,5	15,081
232,9	18,967
233,4	20,824
233,9	12,538
234,3	8,481
234,8	7,367
235,3	2,595
235,7	6,681
236,2	3,11
236,7	0,281
237,1	5,281
237,6	2,71
238,1	3,51
238,5	1,681
239	0,11
239,4	3,081
239,9	-0,776
240,4	-4,376
240,8	0,11
241,3	-2,376
241,8	-3,805
242,2	-3,033
242,7	-6,09
243,2	-0,576
243,6	-0,919
244,1	-2,633
244,6	0,595
245	4,624
245,5	3,567
245,9	2,081
246,4	2,081
246,9	4,395
247,3	5,452
247,8	4,395
248,3	4,881
248,7	3,795
249,2	8,281
249,7	6,567
250,1	10,938
250,6	8,938
251	13,567
251,5	12,31
252	12,967
252,4	14,595
252,9	14,338
253,4	8,881
253,8	8,424
254,3	4,795
254,8	7,138
255,2	6,681
255,7	1,281
256,1	4,538
256,6	7,681
257,1	9,281
257,5	3,71
258	1,11
258,5	1,824
258,9	3,567
259,4	0,738
259,9	-2,119
260,3	-1,776
260,8	1,167
261,2	0,681
261,7	1,424
262,2	-3,69
262,6	-4,548
263,1	0,195
263,6	-1,348
264	1,081
264,5	5,424
264,9	4,138
265,4	10,367
265,9	11,395
266,3	8,652
266,8	10,567
267,3	9,452
267,7	6,91
268,2	7,595
268,7	10,195
269,1	12,338
269,6	11,11
270	14,567
270,5	13,51
271	14,338
271,4	10,024
271,9	2,167
272,4	-0,89
272,8	1,224
273,3	-5,605
273,7	-3,09
274,2	-3,462
274,7	0,881
275,1	7,31
275,6	8,824
276,1	4,167
276,5	10,138
277	6,081
277,4	6,11
277,9	12,71
278,4	11,652
278,8	9,852
279,3	15,852
279,8	13,138
280,2	20,424
280,7	23,91
281,1	12,824
281,6	15,795
282,1	16,367
282,5	12,567
283	8,681
283,4	2,624
283,9	-1,862
284,4	3,081
284,8	-1,462
285,3	-2,176
285,8	-0,233
286,2	-0,519
286,7	2,281
287,1	6,281
287,6	4,938
288,1	2,567
288,5	5,595
289	6,138
289,5	10,995
289,9	11,881
290,4	9,367
290,8	10,424
291,3	11,51
291,8	10,938
292,2	10,567
292,7	10,195
293,1	6,767
293,6	6,967
294,1	5,881
294,5	6,281
295	4,738
295,5	1,367
295,9	1,167
296,4	1,452
296,8	-0,748
297,3	0,167
297,8	-3,319
298,2	-3,633
298,7	0,367
299,1	1,224
299,6	0,824
300,1	4,195
300,5	3,71
301	11,738
301,5	17,052
301,9	15,567
302,4	12,024
302,8	12,824
303,3	9,995
303,8	8,481
304,2	3,052
304,7	0,081
305,1	-1,833
305,6	-0,976
306,1	6,681
306,5	9,652
307	11,138
307,4	16,738
307,9	15,452
308,4	13,967
308,8	9,424
309,3	0,681
309,8	-1,519
310,2	1,052
310,7	-1,862
311,1	-0,662
311,6	-2,548
312,1	0,795
312,5	7,51
313	10,852
313,4	9,738
313,9	9,024
314,4	6,681
314,8	6,681
315,3	8,195
315,7	2,224
316,2	-4,405
316,7	-7,033
317,1	-0,576
317,6	-1,233
318	9,91
318,5	9,081
319	11,595
319,4	19,738
319,9	29,081
320,3	27,338
320,8	25,224
321,3	18,967
321,7	18,367
322,2	16,252
322,6	14,281
323,1	8,538
323,6	2,795
324	4,824
324,5	3,567
324,9	7,481
325,4	8,052
325,9	11,567
326,3	8,081
326,8	10,367
327,2	5,938
327,7	2,481
328,2	-1,205
328,6	3,681
329,1	-4,976
329,5	-1,862
330	-1,519
330,5	6,681
330,9	13,538
331,4	20,252
331,8	13,91
332,3	19,11
332,8	20,281
333,2	16,795
333,7	17,31
334,1	17,652
334,6	9,881
335,1	10,595
335,5	9,081
336	6,595
336,4	8,995
336,9	14,967
337,4	12,681
337,8	11,652
338,3	15,681
338,7	19,195
339,2	15,995
339,7	23,052
340,1	17,367
340,6	18,252
341	18,167
341,5	15,938
342	12,224
342,4	13,052
342,9	6,367
343,3	4,71
343,8	4,538
344,2	8,452
344,7	11,995
345,2	10,567
345,6	10,367
346,1	10,195
346,5	3,624
347	-3,319
347,5	0,452
347,9	-0,09
348,4	2,367
348,8	6,195
349,3	6,652
349,8	14,195
350,2	26,938
350,7	20,538
351,1	20,281
351,6	23,281
352	25,138
352,5	32,31
353	45,424
353,4	43,024
353,9	53,824
354,3	62,252
354,8	69,538
355,3	84,995
355,7	99,31
356,2	108,281
356,6	130,71
357,1	155,567
357,5	187,595
358	222,11
358,5	254,138
358,9	292,167
359,4	335,795
359,8	384,767
360,3	441,281
360,8	495,938
361,2	565,024
361,7	635,71
362,1	721,824
362,6	816,224
363	919,567
363,5	1028,795
364	1143,167
364,4	1261,967
364,9	1386,052
365,3	1497,195
365,8	1602,938
366,3	1704,824
366,7	1793,681
367,2	1880,367
367,6	1944,081
368,1	2001,252
368,5	2041,31
369	2070,424
369,5	2080,195
369,9	2066,51
370,4	2039,138
370,8	2001,71
371,3	1943,624
371,7	1874,938
372,2	1793,081
372,7	1704,995
373,1	1621,624
373,6	1526,595
374	1430,738
374,5	1333,824
374,9	1244,767
375,4	1158,081
375,9	1071,11
376,3	983,252
376,8	901,11
377,2	828,71
377,7	760,395
378,2	694,795
378,6	634,967
379,1	577,995
379,5	533,395
380	492,681
380,4	448,852
380,9	413,224
381,4	377,652
381,8	350,51
382,3	327,138
382,7	302,767
383,2	284,795
383,6	263,538
384,1	245,052
384,6	236,052
385	215,195
385,5	202,824
385,9	185,91
386,4	169,367
386,8	158,395
387,3	146,31
387,7	131,51
388,2	127,681
388,7	117,31
389,1	112,31
389,6	107,71
390	103,881
390,5	97,51
390,9	95,71
391,4	86,052
391,9	82,024
392,3	78,738
392,8	71,452
393,2	62,852
393,7	61,567
394,1	57,567
394,6	58,167
395,1	54,281
395,5	53,938
396	49,938
396,4	51,938
396,9	52,51
397,3	49,624
397,8	50,71
398,2	49,395
398,7	48,052
399,2	48,338
399,6	47,824
400,1	46,338
400,5	43,367
401	36,338
401,4	34,738
401,9	32,852
402,4	34,738
402,8	31,91
403,3	32,081
403,7	28,595
404,2	35,567
404,6	37,881
405,1	34,052
405,5	32,538
406	32,395
406,5	29,852
406,9	34,538
407,4	29,967
407,8	31,824
408,3	35,881
408,7	35,024
409,2	37,852
409,6	39,795
410,1	38,852
410,6	41,995
411	44,281
411,5	43,71
411,9	46,967
412,4	49,595
412,8	53,995
413,3	57,481
413,7	59,481
414,2	59,367
414,7	66,852
415,1	78,31
415,6	82,081
416	83,024
416,5	85,424
416,9	81,938
417,4	85,281
417,8	87,967
418,3	84,681
418,8	87,138
419,2	87,852
419,7	91,167
420,1	99,767
420,6	99,71
421	99,31
421,5	100,767
421,9	99,167
422,4	100,881
422,8	102,738
423,3	102,538
423,8	102,252
424,2	96,938
424,7	94,91
425,1	97,881
425,6	99,995
426	98,31
426,5	96,452
426,9	100,852
427,4	104,167
427,9	102,795
428,3	102,452
428,8	100,624
429,2	96,595
429,7	98,138
430,1	93,795
430,6	92,224
431	94,881
431,5	95,824
431,9	93,91
432,4	102,452
432,8	104,481
433,3	109,624
433,8	117,538
434,2	123,11
434,7	128,081
435,1	133,224
435,6	134,881
436	138,71
436,5	144,538
436,9	142,481
437,4	146,052
437,8	148,052
438,3	153,024
438,8	158,795
439,2	166,481
439,7	175,452
440,1	188,738
440,6	193,71
441	200,081
441,5	212,795
441,9	222,824
442,4	225,395
442,8	228,738
443,3	236,31
443,7	247,281
444,2	264,795
444,7	273,11
445,1	285,567
445,6	302,652
446	315,138
446,5	324,31
446,9	335,252
447,4	338,767
447,8	352,767
448,3	371,11
448,7	382,452
449,2	402,367
449,6	421,881
450,1	438,367
450,6	465,395
451	481,481
451,5	495,681
451,9	517,11
452,4	536,652
452,8	553,195
453,3	574,395
453,7	586,167
454,2	610,652
454,6	625,767
455,1	645,995
455,5	661,424
456	690,767
456,4	710,167
456,9	734,795
457,3	754,852
457,8	777,595
458,3	802,824
458,7	828,881
459,2	846,795
459,6	875,052
460,1	905,024
460,5	929,024
461	963,195
461,4	983,595
461,9	1011,081
462,3	1044,452
462,8	1069,11
463,2	1094,852
463,7	1125,167
464,1	1154,938
464,6	1191,71
465	1224,967
465,5	1255,967
466	1288,652
466,4	1319,224
466,9	1356,195
467,3	1384,824
467,8	1415,795
468,2	1448,967
468,7	1479,538
469,1	1520,881
469,6	1556,367
470	1587,338
470,5	1620,938
470,9	1660,052
471,4	1686,538
471,8	1719,71
472,3	1749,595
472,7	1777,767
473,2	1808,738
473,6	1841,281
474,1	1870,967
474,5	1908,51
475	1943,795
475,4	1977,91
475,9	2017,71
476,4	2052,081
476,8	2088,681
477,3	2120,367
477,7	2155,767
478,2	2181,195
478,6	2208,795
479,1	2236,167
479,5	2264,595
480	2288,767
480,4	2321,195
480,9	2349,024
481,3	2379,595
481,8	2407,138
482,2	2428,538
482,7	2454,681
483,1	2483,967
483,6	2504,567
484	2527,652
484,5	2557,11
484,9	2585,224
485,4	2616,452
485,8	2644,71
486,3	2667,995
486,7	2694,424
487,2	2718,767
487,6	2737,91
488,1	2751,367
488,5	2772,367
489	2794,252
489,4	2820,595
489,9	2833,881
490,4	2855,738
490,8	2871,738
491,3	2898,452
491,7	2913,138
492,2	2933,052
492,6	2947,395
493,1	2966,681
493,5	2980,281
494	2997,338
494,4	3008,967
494,9	3024,595
495,3	3037,281
495,8	3040,624
496,2	3049,052
496,7	3056,91
497,1	3072,081
497,6	3082,31
498	3097,252
498,5	3106,081
498,9	3118,681
499,4	3135,938
499,8	3156,51
500,3	3166,138
500,7	3178,738
501,2	3183,424
501,6	3187,824
502,1	3200,51
502,5	3210,481
503	3215,195
503,4	3221,938
503,9	3228,052
504,3	3235,024
504,8	3244,595
505,2	3252,338
505,7	3259,224
506,1	3265,738
506,6	3264,224
507	3269,424
507,5	3275,367
507,9	3280,881
508,4	3285,395
508,8	3292,167
509,3	3289,31
509,7	3299,881
510,2	3310,224
510,6	3316,538
511,1	3321,652
511,5	3325,91
512	3332,195
512,4	3342,11
512,9	3351,281
513,3	3352,967
513,8	3354,71
514,2	3363,738
514,7	3369,71
515,1	3374,481
515,6	3377,252
516	3371,738
516,5	3376,081
516,9	3384,624
517,4	3387,938
517,8	3397,738
518,3	3405,224
518,7	3412,852
519,2	3426,31
519,6	3432,11
520,1	3437,567
520,5	3446,538
521	3446,567
521,4	3452,224
521,9	3457,31
522,3	3462,852
522,8	3467,71
523,2	3476,538
523,7	3476,367
524,1	3478,195
524,6	3475,052
525	3480,767
525,5	3488,281
525,9	3495,51
526,4	3497,91
526,8	3501,024
527,3	3515,538
527,7	3527,481
528,2	3528,567
528,6	3534,995
529,1	3539,167
529,5	3550,195
530	3559,31
530,4	3564,624
530,9	3572,51
531,3	3582,767
531,8	3585,567
532,2	3595,31
532,6	3597,852
533,1	3608,738
533,5	3613,424
534	3620,51
534,4	3633,31
534,9	3643,081
535,3	3650,624
535,8	3665,652
536,2	3674,31
536,7	3684,71
537,1	3691,024
537,6	3699,681
538	3707,052
538,5	3716,31
538,9	3714,395
539,4	3724,31
539,8	3730,795
540,3	3738,681
540,7	3746,024
541,2	3751,852
541,6	3759,967
542,1	3778,195
542,5	3787,195
543	3798,395
543,4	3804,338
543,9	3812,767
544,3	3829,052
544,8	3833,595
545,2	3837,138
545,7	3844,367
546,1	3852,595
546,5	3867,91
547	3871,824
547,4	3874,595
547,9	3881,567
548,3	3898,795
548,8	3905,452
549,2	3909,681
549,7	3911,71
550,1	3923,052
550,6	3926,767
551	3935,767
551,5	3931,91
551,9	3934,681
552,4	3947,11
552,8	3957,71
553,3	3961,224
553,7	3978,51
554,2	3990,824
554,6	4006,338
555,1	4017,652
555,5	4022,081
555,9	4027,995
556,4	4037,052
556,8	4038,452
557,3	4048,452
557,7	4053,852
558,2	4064,51
558,6	4075,91
559,1	4079,081
559,5	4090,224
560	4101,424
560,4	4099,31
560,9	4105,081
561,3	4107,91
561,8	4111,167
562,2	4117,481
562,7	4113,367
563,1	4119,024
563,6	4119,252
564	4121,195
564,4	4121,738
564,9	4123,481
565,3	4131,424
565,8	4137,967
566,2	4137,995
566,7	4153,395
567,1	4160,652
567,6	4166,995
568	4173,138
568,5	4173,11
568,9	4170,052
569,4	4172,71
569,8	4169,852
570,3	4164,481
570,7	4156,595
571,1	4154,681
571,6	4156,252
572	4165,51
572,5	4164,167
572,9	4163,795
573,4	4167,538
573,8	4177,624
574,3	4175,795
574,7	4173,71
575,2	4174,71
575,6	4175,567
576,1	4182,052
576,5	4183,338
576,9	4177,91
577,4	4177,91
577,8	4175,767
578,3	4172,567
578,7	4168,367
579,2	4158,452
579,6	4152,338
580,1	4150,71
580,5	4145,31
581	4144,252
581,4	4141,424
581,9	4138,881
582,3	4132,138
582,7	4122,481
583,2	4117,11
583,6	4115,138
584,1	4108,824
584,5	4099,167
585	4086,224
585,4	4075,052
585,9	4074,367
586,3	4069,938
586,8	4065,995
587,2	4063,395
587,6	4063,824
588,1	4065,795
588,5	4063,967
589	4060,052
589,4	4051,91
589,9	4044,081
590,3	4034,167
590,8	4023,138
591,2	4017,595
591,7	4018,967
592,1	4010,795
592,5	4015,081
593	4006,881
593,4	3992,052
593,9	3985,881
594,3	3979,567
594,8	3973,31
595,2	3965,395
595,7	3953,567
596,1	3940,367
596,6	3943,224
597	3938,481
597,4	3932,624
597,9	3921,138
598,3	3918,681
598,8	3902,024
599,2	3900,967
599,7	3890,281
600,1	3878,824
600,6	3867,738
601	3862,852
601,4	3856,11
601,9	3857,738
602,3	3843,738
602,8	3837,738
603,2	3828,138
603,7	3815,224
604,1	3803,138
604,6	3786,738
605	3769,967
605,4	3766,052
605,9	3752,681
606,3	3739,252
606,8	3727,052
607,2	3711,567
607,7	3693,395
608,1	3686,424
608,6	3676,967
609	3674,424
609,4	3669,024
609,9	3660,31
610,3	3654,795
610,8	3649,367
611,2	3635,91
611,7	3621,681
612,1	3602,281
612,6	3588,252
613	3579,452
613,4	3563,567
613,9	3551,595
614,3	3534,681
614,8	3523,138
615,2	3507,252
615,7	3498,024
616,1	3482,081
616,6	3465,595
617	3450,367
617,4	3443,481
617,9	3433,852
618,3	3424,967
618,8	3412,424
619,2	3400,338
619,7	3391,224
620,1	3381,91
620,5	3367,852
621	3349,31
621,4	3335,824
621,9	3311,452
622,3	3295,652
622,8	3276,681
623,2	3259,881
623,6	3241,195
624,1	3232,91
624,5	3215,824
625	3208,967
625,4	3200,881
625,9	3195,281
626,3	3185,252
626,8	3175,624
627,2	3156,081
627,6	3140,024
628,1	3120,595
628,5	3103,167
629	3084,881
629,4	3064,767
629,9	3043,71
630,3	3024,424
630,7	3005,481
631,2	2996,738
631,6	2980,024
632,1	2964,767
632,5	2951,967
633	2940,224
633,4	2923,252
633,8	2910,195
634,3	2890,167
634,7	2874,767
635,2	2854,081
635,6	2844,624
636,1	2830,824
636,5	2815,11
636,9	2801,538
637,4	2788,624
637,8	2772,652
638,3	2761,252
638,7	2737,338
639,2	2722,91
639,6	2707,052
640	2692,624
640,5	2677,767
640,9	2665,595
641,4	2658,195
641,8	2647,338
642,2	2634,51
642,7	2629,738
643,1	2624,624
643,6	2609,024
644	2595,624
644,5	2587,052
644,9	2577,081
645,3	2559,252
645,8	2541,881
646,2	2525,738
646,7	2514,052
647,1	2496,767
647,6	2484,11
648	2468,024
648,4	2456,767
648,9	2452,91
649,3	2440,367
649,8	2427,452
650,2	2419,024
650,6	2397,567
651,1	2390,624
651,5	2378,71
652	2359,052
652,4	2340,252
652,9	2333,024
653,3	2318,567
653,7	2305,538
654,2	2288,367
654,6	2271,681
655,1	2261,338
655,5	2256,424
655,9	2240,51
656,4	2229,967
656,8	2217,681
657,3	2203,824
657,7	2196,881
658,2	2181,138
658,6	2164,624
659	2157,281
659,5	2138,281
659,9	2128,71
660,4	2112,452
660,8	2098,11
661,2	2087,681
661,7	2074,31
662,1	2058,338
662,6	2051,824
663	2038,738
663,4	2025,281
663,9	2009,624
664,3	1992,938
664,8	1980,91
665,2	1961,252
665,6	1944,567
666,1	1930,081
666,5	1920,31
667	1912,338
667,4	1901,852
667,9	1884,595
668,3	1874,967
668,7	1864,795
669,2	1853,052
669,6	1843,481
670,1	1827,738
670,5	1815,252
670,9	1804,652
671,4	1792,024
671,8	1780,995
672,3	1773,91
672,7	1761,081
673,1	1749,652
673,6	1738,195
674	1734,995
674,5	1725,795
674,9	1710,11
675,3	1692,624
675,8	1682,91
676,2	1673,967
676,7	1660,738
677,1	1645,652
677,5	1633,138
678	1628,967
678,4	1621,138
678,9	1610,738
679,3	1600,567
679,7	1594,395
680,2	1579,567
680,6	1570,195
681,1	1556,852
681,5	1545,195
681,9	1530,424
682,4	1520,967
682,8	1509,052
683,3	1502,567
683,7	1493,395
684,1	1485,881
684,6	1474,395
685	1468,795
685,5	1453,652
685,9	1439,281
686,3	1422,452
686,8	1411,595
687,2	1399,081
687,7	1391,91
688,1	1379,395
688,5	1370,11
689	1367,052
689,4	1363,738
689,9	1356,195
690,3	1350,224
690,7	1343,881
691,2	1335,11
691,6	1329,71
692	1321,195
692,5	1314,71
692,9	1309,195
693,4	1292,71
693,8	1284,71
694,2	1278,967
694,7	1267,767
695,1	1256,252
695,6	1248,795
696	1240,881
696,4	1237,967
696,9	1219,081
697,3	1210,081
697,8	1205,252
698,2	1196,967
698,6	1187,138
699,1	1175,652
699,5	1168,967
699,9	1164,081
700,4	1150,767
700,8	1147,624
701,3	1143,767
701,7	1132,281
702,1	1122,081
702,6	1113,452
703	1109,052
703,5	1104,11
703,9	1089,967
704,3	1083,11
704,8	1075,91
705,2	1068,652
705,6	1058,424
706,1	1050,367
706,5	1045,795
707	1042,052
707,4	1030,081
707,8	1025,881
708,3	1022,452
708,7	1021,51
709,2	1013,881
709,6	1005,738
710	999,595
710,5	995,081
710,9	989,738
711,3	978,91
711,8	971,967
712,2	965,852
712,7	957,31
713,1	947,224
713,5	942,91
714	936,624
714,4	932,167
714,8	922,681
715,3	914,138
715,7	912,681
716,2	903,11
716,6	897,195
717	885,367
717,5	877,195
717,9	873,824
718,3	865,51
718,8	853,652
719,2	853,024
719,7	843,824
720,1	841,767
720,5	839,967
721	827,338
721,4	820,967
721,8	820,367
722,3	810,995
722,7	810,11
723,2	799,995
723,6	783,081
724	779,281
724,5	770,738
724,9	761,224
725,3	756,567
725,8	744,11
726,2	740,538
726,7	739,11
727,1	732,91
727,5	733,91
728	725,195
728,4	721,681
728,8	717,338
729,3	710,538
729,7	703,938
730,1	700,11
730,6	693,395
731	692,852
731,5	688,024
731,9	679,967
732,3	675,195
732,8	676,681
733,2	673,681
733,6	667,967
734,1	662,71
734,5	653,652
734,9	651,595
735,4	652,167
735,8	640,195
736,3	640,538
736,7	638,11
737,1	635,052
737,6	630,91
738	628,852
738,4	617,738
738,9	621,481
739,3	610,138
739,7	604,881
740,2	603,052
740,6	604,052
741,1	603,881
741,5	601,738
741,9	596,91
742,4	599,51
742,8	601,452
743,2	594,767
743,7	587,452
744,1	574,795
744,5	571,31
745	569,795
745,4	561,795
745,8	558,024
746,3	553,681
746,7	550,224
747,2	552,338
747,6	552,824
748	546,481
748,5	549,852
748,9	541,995
749,3	541,567
749,8	541,824
750,2	536,938
750,6	531,538
751,1	531,624
751,5	519,424
751,9	519,281
752,4	514,281
752,8	507,71
753,3	503,481
753,7	500,824
754,1	493,824
754,6	490,795
755	481,195
755,4	474,938
755,9	474,595
756,3	474,481
756,7	470,424
757,2	465,367
757,6	467,224
758	469,538
758,5	468,881
758,9	463,138
759,3	461,138
759,8	460,367
760,2	456,852
760,6	447,052
761,1	440,767
761,5	436,967
761,9	435,538
762,4	426,281
762,8	420,624
763,3	416,51
763,7	421,824
764,1	421,224
764,6	422,052
765	420,652
765,4	420,395
765,9	421,395
766,3	422,452
766,7	411,252
767,2	405,167
767,6	404,138
768	395,91
768,5	390,852
768,9	387,138
769,3	385,51
769,8	385,224
770,2	387,767
770,6	378,795
771,1	381,252
771,5	379,138
771,9	375,91
772,4	373,967
772,8	372,852
773,2	369,167
773,7	369,51
774,1	364,852
774,5	359,224
775	357,538
775,4	355,252
775,8	351,11
776,3	348,11
776,7	341,281
777,1	338,024
777,6	343,595
778	340,881
778,4	335,052
778,9	337,938
779,3	331,91
779,7	330,395
780,2	328,51
780,6	324,138
781	318,224
781,5	320,91
781,9	315,481
782,3	315,338
782,8	319,424
783,2	315,424
783,6	315,31
784,1	314,195
784,5	306,795
784,9	303,681
785,4	304,624
785,8	297,081
786,2	299,91
786,7	296,138
787,1	291,395
787,5	292,624
788	291,024
788,4	288,51
788,8	287,91
789,3	281,995
789,7	280,795
790,1	281,424
790,6	277,852
791	271,252
791,4	266,852
791,9	268,51
792,3	266,767
792,7	266,967
793,2	262,795
793,6	259,624
794	264,652
794,5	261,852
794,9	258,224
795,3	260,31
795,8	257,367
796,2	256,681
796,6	260,281
797,1	256,938
797,5	254,938
797,9	245,081
798,4	234,767
798,8	228,738
799,2	224,024
799,7	220,852
800,1	213,738
800,5	212,71
801	218,281
801,4	219,281
801,8	215,567
802,2	218,024
802,7	213,424
803,1	214,595
803,5	214,881
804	211,424
804,4	215,052
804,8	217,824
805,3	217,595
805,7	216,624
806,1	212,824
806,6	213,281
807	208,995
807,4	199,938
807,9	191,852
808,3	189,824
808,7	191,31
809,2	194,281
809,6	192,395
810	195,538
810,4	194,795
810,9	197,681
811,3	195,91
811,7	188,195
812,2	188,995
812,6	180,252
813	179,567
813,5	179,338
813,9	176,852
814,3	175,195
814,8	172,424
815,2	165,681
815,6	165,881
816,1	163,024
816,5	164,652
816,9	168,024
817,3	167,31
817,8	174,424
818,2	176,967
818,6	178,767
819,1	177,138
819,5	171,681
819,9	171,338
820,4	171,538
820,8	164,624
821,2	157,595
821,7	157,767
822,1	158,367
822,5	163,481
822,9	158,538
823,4	153,738
823,8	158,481
824,2	161,224
824,7	153,852
825,1	147,281
825,5	142,367
826	139,424
826,4	138,995
826,8	132,681
827,3	131,395
827,7	129,881
828,1	132,91
828,5	131,738
829	129,538
829,4	129,224
829,8	124,424
830,3	124,167
830,7	124,567
831,1	127,567
831,6	126,252
832	129,252
832,4	123,938
832,8	128,367
833,3	122,91
833,7	123,91
834,1	116,938
834,6	116,167
835	114,367
835,4	117,824
835,8	111,767
836,3	113,31
836,7	113,252
837,1	115,995
837,6	117,881
838	114,224
838,4	112,081
838,9	112,395
839,3	109,767
839,7	112,052
840,1	103,252
840,6	100,424
841	102,767
841,4	102,51
841,9	104,367
842,3	104,624
842,7	99,595
843,1	99,595
843,6	102,881
844	101,767
844,4	103,738
844,9	106,024
845,3	107,881
845,7	109,224
846,2	112,738
846,6	104,51
847	106,967
847,4	105,252
847,9	102,395
848,3	102,51
848,7	100,481
849,2	99,91
849,6	99,538
850	99,681
850,4	97,681
850,9	95,367
851,3	92,395
851,7	92,195
852,2	90,395
852,6	94,595
853	93,224
853,4	93,881
853,9	95,11
854,3	97,138
854,7	96,024
855,2	93,681
855,6	93,052
856	87,281
856,4	81,767
856,9	80,424
857,3	78,252
857,7	82,138
858,2	87,138
858,6	86,081
859	87,652
859,4	87,567
859,9	85,338
860,3	83,281
860,7	76,624
861,1	72,452
861,6	69,824
862	70,738
862,4	69,081
862,9	67,881
863,3	66,395
863,7	67,338
864,1	65,252
864,6	63,195
865	60,51
865,4	62,767
865,9	64,91
866,3	61,195
866,7	61,824
867,1	61,995
867,6	60,881
868	58,167
868,4	56,967
868,8	55,595
869,3	60,71
869,7	63,595
870,1	58,71
870,6	59,567
871	62,624
871,4	67,252
871,8	63,395
872,3	63,538
872,7	57,91
873,1	64,11
873,5	66,452
874	61,852
874,4	60,024
874,8	55,081
875,3	56,995
875,7	59,795
876,1	59,824
876,5	58,395
877	58,081
877,4	53,824
877,8	64,624
878,2	62,395
878,7	60,281
879,1	60,51
879,5	62,195
879,9	68,31
880,4	68,967
880,8	64,424
881,2	61,224
881,7	58,567
882,1	58,11
882,5	51,595
882,9	47,224
883,4	47,167
883,8	48,595
884,2	48,281
884,6	46,31
885,1	43,195
885,5	43,624
885,9	42,852
886,3	45,31
886,8	41,395
887,2	39,71
887,6	40,481
888	38,138
888,5	41,052
888,9	37,281
889,3	33,395
889,8	35,624
890,2	36,252
890,6	35,567
891	38,624
891,5	35,852
891,9	40,767
892,3	42,31
892,7	43,51
893,2	45,624
893,6	45,11
894	45,11
894,4	45,367
894,9	40,767
895,3	38,595
895,7	35,795
896,1	36,024
896,6	38,224
897	38,652
897,4	43,738
897,8	46,71
898,3	49,024
898,7	45,995
899,1	41,538
899,5	40,052
900	37,167
900,4	30,938
900,8	23,852
901,2	20,224
901,7	23,281
902,1	27,738
902,5	28,795
902,9	28,567
903,4	31,824
903,8	41,281
904,2	41,338
904,6	40,681
905,1	39,795
905,5	37,681
905,9	38,195
906,3	38,167
906,8	35,395
907,2	38,052
907,6	39,595
908	39,281
908,5	37,452
908,9	35,424
909,3	34,567
909,7	32,967
910,2	32,51
910,6	31,595
911	26,51
911,4	31,567
911,9	28,195
912,3	27,338
912,7	35,767
913,1	34,338
913,6	32,881
914	32,338
914,4	29,195
914,8	34,938
915,3	30,967
915,7	23,967
916,1	24,395
916,5	23,71
916,9	29,538
917,4	27,767
917,8	28,51
918,2	27,567
918,6	23,824
919,1	25,081
919,5	27,538
919,9	24,31
920,3	24,995
920,8	19,224
921,2	19,395
921,6	19,852
922	14,938
922,5	12,738
922,9	11,767
923,3	12,138
923,7	14,681
924,2	16,824
924,6	18,795
925	20,995
925,4	19,252
925,8	18,424
926,3	18,31
926,7	16,738
927,1	14,967
927,5	15,967
928	12,51
928,4	14,624
928,8	18,795
929,2	18,681
929,7	22,71
930,1	24,71
930,5	23,738
930,9	29,567
931,3	30,824
931,8	28,11
932,2	30,167
932,6	24,51
933	18,538
933,5	17,281
933,9	15,452
934,3	13,567
934,7	12,167
935,2	11,567
935,6	12,567
936	17,881
936,4	19,252
936,8	21,081
937,3	19,281
937,7	21,281
938,1	21,91
938,5	19,167
939	19,852
939,4	16,91
939,8	14,024
940,2	19,567
940,6	21,052
941,1	19,652
941,5	26,338
941,9	24,652
942,3	26,081
942,8	27,481
943,2	23,938
943,6	21,567
944	18,424
944,4	15,71
944,9	10,71
945,3	7,11
945,7	1,395
946,1	-3,319
946,6	-3,29
947	-1,833
947,4	0,595
947,8	5,167
948,2	5,881
948,7	7,938
949,1	10,595
949,5	15,31
949,9	15,595
950,3	14,681
950,8	14,252
951,2	16,395
951,6	17,795
952	18,281
952,5	8,167
952,9	8,595
953,3	9,195
953,7	7,91
954,1	10,738
954,6	10,567
955	12,424
955,4	14,852
955,8	15,795
956,2	13,938
956,7	18,881
957,1	17,252
957,5	20,624
957,9	21,167
958,3	22,338
958,8	22,195
959,2	25,138
959,6	27,538
960	23,281
960,5	21,11
960,9	20,081
961,3	17,51
961,7	16,481
962,1	13,995
962,6	10,51
963	9,881
963,4	8,167
963,8	6,824
964,2	8,367
964,7	8,252
965,1	12,252
965,5	9,081
965,9	13,281
966,3	17,852
966,8	17,481
967,2	20,424
967,6	21,024
968	14,91
968,4	19,138
968,9	17,11
969,3	15,481
969,7	13,11
970,1	16,024
970,5	12,795
971	16,195
971,4	10,824
971,8	13,51
972,2	11,852
972,6	11,224
973,1	8,081
973,5	11,167
973,9	11,71
974,3	12,567
974,7	12,538
975,2	15,71
975,6	19,452
976	19,367
976,4	15,195
976,8	16,452
977,3	16,567
977,7	14,395
978,1	12,967
978,5	11,91
978,9	7,995
979,4	8,624
979,8	4,967
980,2	7,538
980,6	4,681
981	6,367
981,5	7,995
981,9	13,652
982,3	17,281
982,7	17,852
983,1	17,31
983,6	21,51
984	18,995
984,4	19,452
984,8	15,995
985,2	12,852
985,6	11,71
986,1	12,367
986,5	12,567
986,9	7,881
987,3	8,252
987,7	9,91
988,2	11,995
988,6	13,452
989	11,71
989,4	12,967
989,8	17,395
990,3	15,281
990,7	16,91
991,1	17,481
991,5	17,395
991,9	19,91
992,3	18,224
992,8	15,567
993,2	15,738
993,6	10,995
994	12,91
994,4	12,824
994,9	10,91
995,3	7,052
995,7	6,51
996,1	10,995
996,5	13,281
996,9	10,081
997,4	12,052
997,8	11,424
998,2	13,995
998,6	8,71
999	1,338
999,5	-3,776
999,9	-2,89
1000,3	-9,49
1000,7	-8,405
1001,1	-11,548
1001,5	-4,062
1002	4,167
1002,4	9,738
1002,8	8,11
1003,2	12,195
1003,6	13,567
1004	19,824
1004,5	18,424
1004,9	14,824
1005,3	10,595
1005,7	12,252
1006,1	8,852
1006,6	5,91
1007	3,11
1007,4	2,738
1007,8	0,824
1008,2	2,538
1008,6	4,938
1009,1	7,081
1009,5	7,51
1009,9	7,995
1010,3	6,452
1010,7	5,881
1011,1	6,11
1011,6	6,538
1012	7,195
1012,4	7,395
1012,8	5,481
1013,2	12,11
1013,6	15,624
1014,1	16,081
1014,5	16,167
1014,9	18,995
1015,3	18,567
1015,7	22,224
1016,1	19,624
1016,6	16,11
1017	16,681
1017,4	13,767
1017,8	8,995
1018,2	12,567
1018,6	6,71
1019,1	7,91
1019,5	10,767
1019,9	9,71
1020,3	12,081
1020,7	13,138
1021,1	10,481
1021,6	11,71
1022	15,424
1022,4	13,567
1022,8	15,995
1023,2	12,452
1023,6	16,995
1024,1	24,738
1024,5	28,138
1024,9	21,224
1025,3	22,567
1025,7	22,252
1026,1	24,024
1026,6	19,31
1027	10,881
1027,4	9,395
1027,8	7,138
1028,2	6,395
1028,6	10,624
1029	9,452
1029,5	12,824
1029,9	11,767
1030,3	11,538
1030,7	15,767
1031,1	16,338
1031,5	10,281
1032	13,024
1032,4	11,167
1032,8	14,624
1033,2	22,11
1033,6	20,538
1034	15,681
1034,4	16,767
1034,9	16,052
1035,3	10,481
1035,7	11,881
1036,1	2,195
1036,5	-1,748
1036,9	1,995
1037,4	3,052
1037,8	-2,09
1038,2	2,881
1038,6	-1,833
1039	6,995
1039,4	16,795
1039,8	13,452
1040,3	10,595
1040,7	14,681
1041,1	16,852
1041,5	21,881
1041,9	13,738
1042,3	7,424
1042,7	13,367
1043,2	15,624
1043,6	11,11
1044	8,338
1044,4	8,567
1044,8	16,824
1045,2	18,852
1045,6	21,167
1046,1	20,824
1046,5	23,367
1046,9	22,167
1047,3	17,424
1047,7	12,71
1048,1	9,367
1048,5	5,71
1049	8,281
1049,4	13,795
1049,8	15,252
1050,2	19,195
1050,6	20,252
1051	24,624
1051,4	20,567
1051,9	21,595
1052,3	21,51
1052,7	24,081
1053,1	25,081
1053,5	26,252
1053,9	28,024
1054,3	29,195
1054,8	30,624
1055,2	30,852
1055,6	31,367
1056	28,338
1056,4	22,995
1056,8	19,052
1057,2	17,51
1057,6	11,681
1058,1	7,681
1058,5	2,167
1058,9	2,852
1059,3	5,081
1059,7	6,081
1060,1	7,052
1060,5	4,967
1061	8,31
1061,4	11,481
1061,8	13,167
1062,2	8,91
1062,6	7,967
1063	13,167
1063,4	12,595
1063,8	8,738
1064,3	6,252
1064,7	7,081
1065,1	10,481
1065,5	6,881
1065,9	4,681
1066,3	6,795
1066,7	4,052
1067,1	2,195
1067,6	0,595
1068	-3,919
1068,4	-3,233
1068,8	0,624
1069,2	0,481
1069,6	1,681
1070	5,567
1070,4	3,824
1070,9	4,567
1071,3	8,681
1071,7	6,538
1072,1	9,367
1072,5	9,938
1072,9	10,51
1073,3	12,538
1073,7	15,71
1074,2	19,338
1074,6	16,167
1075	10,852
1075,4	12,367
1075,8	17,71
1076,2	17,281
1076,6	18,995
1077	15,567
1077,5	19,052
1077,9	21,538
1078,3	19,881
1078,7	16,252
1079,1	15,538
1079,5	14,167
1079,9	13,852
1080,3	11,824
1080,7	11,91
1081,2	19,538
1081,6	17,938
1082	14,852
1082,4	17,767
1082,8	14,738
1083,2	14,995
1083,6	15,795
1084	10,252
1084,5	11,052
1084,9	9,224
1085,3	5,795
1085,7	11,367
1086,1	14,281
1086,5	14,624
1086,9	17,567
1087,3	14,738
1087,7	16,824
1088,2	18,681
1088,6	13,481
1089	11,081
1089,4	9,767
1089,8	9,738
1090,2	9,538
1090,6	10,995
1091	14,91
1091,4	19,424
1091,9	16,424
1092,3	19,91
1092,7	12,91
1093,1	14,738
1093,5	14,11
1093,9	9,995
1094,3	10,91
1094,7	14,31
1095,1	12,91
1095,5	16,538
1096	13,195
1096,4	14,11
1096,8	12,767
1097,2	11,681
1097,6	12,938
1098	15,738
1098,4	16,424
1098,8	21,595
1099,2	25,595
1099,6	22,938
1100,1	21,424
1100,5	15,938
1100,9	12,081
1101,3	13,738
1101,7	12,367
1102,1	8,538
1102,5	14,281
1102,9	14,367
1103,3	18,824
1103,7	20,367
1104,2	16,081
1104,6	15,052
1105	12,795
1105,4	10,995
1105,8	7,938
1106,2	4,052
1106,6	1,681
1107	2,252
1107,4	1,567
1107,8	2,727
1108,3	-0,083
