Data from Subt2_009.txt Node
Date: Sat Aug 26 16:12:04 MSK 2023
User: vat
Spectrometer: MAYP114033
Trigger mode: 0
Integration Time (sec): 1,000000E0
Scans to average: 5
Electric dark correction enabled: true
Nonlinearity correction enabled: false
Boxcar width: 3
XAxis mode: Wavelengths
Number of Pixels in Spectrum: 2068
>>>>>Begin Spectral Data<<<<<
199,4	-0,833
199,9	2,987
200,4	-0
200,8	-0,59
201,3	-2,105
201,8	1,038
202,2	1,81
202,7	3,838
203,2	2,095
203,6	6,61
204,1	9,152
204,6	10,952
205	9,667
205,5	8,81
206	4,552
206,4	0,724
206,9	1,095
207,4	-0,99
207,8	0,438
208,3	-2,476
208,8	0,324
209,2	3,867
209,7	7,867
210,2	6,41
210,6	4,152
211,1	5,267
211,5	3,067
212	0,067
212,5	-3,676
212,9	-1,019
213,4	-6,105
213,9	-4,476
214,3	-6,305
214,8	0,752
215,3	5,01
215,7	10,181
216,2	9,41
216,7	15,124
217,1	11,981
217,6	8,752
218,1	2,238
218,5	-6,105
219	-13,876
219,5	-14,933
219,9	-16,819
220,4	-7,39
220,9	-10,733
221,3	-2,19
221,8	-1,39
222,3	5,238
222,7	2,981
223,2	5,495
223,6	2,752
224,1	10,01
224,6	1,981
225	12,667
225,5	12,267
226	12,552
226,4	11,181
226,9	14,295
227,4	12,667
227,8	17,324
228,3	9,295
228,8	10,667
229,2	11,895
229,7	8,381
230,2	4,867
230,6	3,552
231,1	7,352
231,5	9,724
232	7,524
232,5	8,152
232,9	11,152
233,4	12,352
233,9	13,924
234,3	8,781
234,8	9,381
235,3	13,724
235,7	8,324
236,2	4,21
236,7	-0,133
237,1	-1,219
237,6	-2,619
238,1	-4,276
238,5	-8,305
239	-1,219
239,4	4,267
239,9	1,01
240,4	5,61
240,8	3,438
241,3	8,067
241,8	7,524
242,2	1,981
242,7	1,238
243,2	8,895
243,6	4,638
244,1	4,695
244,6	-1,476
245	-3,59
245,5	1,152
245,9	4,41
246,4	4,067
246,9	7,867
247,3	12,152
247,8	14,552
248,3	14,267
248,7	15,095
249,2	8,124
249,7	7,724
250,1	6,381
250,6	3,41
251	-1,505
251,5	2,895
252	3,267
252,4	10,267
252,9	4,152
253,4	1,61
253,8	6,61
254,3	16,924
254,8	14,667
255,2	9,61
255,7	0,41
256,1	3,895
256,6	3,352
257,1	0,724
257,5	-6,048
258	-7,248
258,5	-8,648
258,9	-3,648
259,4	-5,476
259,9	-5,333
260,3	-5,705
260,8	-3,048
261,2	0,61
261,7	-2,019
262,2	-4,876
262,6	-4,676
263,1	-2,648
263,6	-2,448
264	-3,733
264,5	-2,905
264,9	2,067
265,4	5,867
265,9	10,781
266,3	10,21
266,8	7,324
267,3	4,267
267,7	1,381
268,2	2,438
268,7	1,981
269,1	-0,162
269,6	-3,305
270	2,324
270,5	3,867
271	3,21
271,4	2,295
271,9	4,381
272,4	2,638
272,8	9,581
273,3	10,381
273,7	11,895
274,2	10,867
274,7	14,495
275,1	13,61
275,6	12,781
276,1	13,381
276,5	9,924
277	4,924
277,4	7,324
277,9	4,924
278,4	3,924
278,8	4,324
279,3	-0,533
279,8	0,838
280,2	7,524
280,7	9,724
281,1	9,81
281,6	6,152
282,1	10,295
282,5	8,038
283	9,638
283,4	2,152
283,9	1,467
284,4	-3,933
284,8	0,838
285,3	-2,419
285,8	-1,648
286,2	-7,19
286,7	-4,733
287,1	-5,59
287,6	-2,048
288,1	-2,076
288,5	-5,933
289	-4,305
289,5	-0,762
289,9	2,038
290,4	1,81
290,8	2,495
291,3	1,695
291,8	5,467
292,2	8,267
292,7	9,495
293,1	9,01
293,6	9,381
294,1	10,924
294,5	10,952
295	12,838
295,5	11,295
295,9	7,867
296,4	4,324
296,8	3,067
297,3	3,352
297,8	2,267
298,2	1,781
298,7	0,41
299,1	4,867
299,6	4,981
300,1	4,61
300,5	6,324
301	4,01
301,5	2,467
301,9	6,895
302,4	0,524
302,8	5,895
303,3	5,438
303,8	2,581
304,2	3,067
304,7	1,124
305,1	-2,162
305,6	-0,105
306,1	-3,19
306,5	-2,019
307	-6,933
307,4	-5,105
307,9	-2,876
308,4	-5,448
308,8	0,181
309,3	5,067
309,8	3,867
310,2	8,324
310,7	7,695
311,1	8,01
311,6	9,495
312,1	5,41
312,5	2,181
313	1,181
313,4	1,752
313,9	-0,305
314,4	1,181
314,8	3,638
315,3	4,495
315,7	3,61
316,2	8,038
316,7	2,295
317,1	8,324
317,6	8,781
318	10,295
318,5	6,038
319	6,267
319,4	1,152
319,9	5,01
320,3	4,838
320,8	4,981
321,3	3,638
321,7	8,324
322,2	7,867
322,6	10,438
323,1	11,895
323,6	11,324
324	11,524
324,5	8,095
324,9	2,124
325,4	3,095
325,9	0,438
326,3	1,438
326,8	-2,19
327,2	-5,362
327,7	-3,99
328,2	-2,19
328,6	-6,448
329,1	-7,562
329,5	-9,448
330	-11,133
330,5	-11,333
330,9	-10,648
331,4	-8,79
331,8	-0,79
332,3	5,467
332,8	6,867
333,2	4,495
333,7	10,21
334,1	6,724
334,6	10,438
335,1	5,41
335,5	3,181
336	0,01
336,4	6,81
336,9	3,61
337,4	7,61
337,8	5,724
338,3	5,924
338,7	6,667
339,2	9,752
339,7	8,152
340,1	8,181
340,6	4,01
341	0,467
341,5	7,152
342	8,41
342,4	12,838
342,9	15,524
343,3	15,781
343,8	16,01
344,2	18,724
344,7	14,638
345,2	19,352
345,6	15,524
346,1	15,238
346,5	14,295
347	16,381
347,5	16,638
347,9	17,181
348,4	10,838
348,8	9,495
349,3	12,038
349,8	14,038
350,2	18,781
350,7	23,895
351,1	27,01
351,6	37,981
352	51,21
352,5	61,295
353	78,495
353,4	93,81
353,9	111,438
354,3	142,152
354,8	166,581
355,3	195,067
355,7	231,324
356,2	271,81
356,6	326,895
357,1	392,667
357,5	457,095
358	534,267
358,5	631,838
358,9	741,61
359,4	861,21
359,8	995,695
360,3	1142,981
360,8	1314,952
361,2	1511,038
361,7	1718,152
362,1	1945,267
362,6	2192,324
363	2461,752
363,5	2745,038
364	3035,267
364,4	3335,638
364,9	3636,295
365,3	3931,381
365,8	4222,267
366,3	4482,552
366,7	4723,838
367,2	4927,181
367,6	5094,552
368,1	5223,01
368,5	5310,295
369	5342,552
369,5	5332,981
369,9	5285,124
370,4	5202,667
370,8	5082,724
371,3	4925,552
371,7	4739,124
372,2	4540,238
372,7	4328,238
373,1	4090,752
373,6	3854,295
374	3609,695
374,5	3369,552
374,9	3133,438
375,4	2909,038
375,9	2690,467
376,3	2485,352
376,8	2286,638
377,2	2095,41
377,7	1925,152
378,2	1767,752
378,6	1616,438
379,1	1478,41
379,5	1353,895
380	1238,21
380,4	1140,381
380,9	1046,038
381,4	959,124
381,8	877,667
382,3	808,152
382,7	746,838
383,2	692,638
383,6	644,61
384,1	597,695
384,6	553,495
385	516,067
385,5	482,467
385,9	446,952
386,4	416,895
386,8	386,438
387,3	357,867
387,7	337,438
388,2	313,267
388,7	285,495
389,1	263,21
389,6	241,41
390	224,152
390,5	212,095
390,9	194,152
391,4	183,781
391,9	176,295
392,3	167,724
392,8	159,924
393,2	144,41
393,7	134,124
394,1	127,781
394,6	119,752
395,1	110,181
395,5	104,467
396	96,01
396,4	92,924
396,9	87,952
397,3	82,467
397,8	78,41
398,2	74,467
398,7	69,21
399,2	66,21
399,6	62,61
400,1	60,267
400,5	57,838
401	55,352
401,4	54,895
401,9	56,924
402,4	61,01
402,8	62,552
403,3	62,981
403,7	65,152
404,2	66,61
404,6	61,781
405,1	56,467
405,5	51,924
406	51,81
406,5	53,038
406,9	54,324
407,4	49,61
407,8	57,095
408,3	62,695
408,7	69,752
409,2	75,552
409,6	80,667
410,1	84,038
410,6	93,124
411	97,438
411,5	104,438
411,9	109,238
412,4	116,81
412,8	125,152
413,3	130,924
413,7	136,61
414,2	147,295
414,7	154,267
415,1	156,038
415,6	164,438
416	169,267
416,5	182,038
416,9	193,267
417,4	197,238
417,8	203,524
418,3	221,924
418,8	236,581
419,2	251,067
419,7	261,352
420,1	274,695
420,6	297,095
421	308,095
421,5	317,924
421,9	328,581
422,4	340,581
422,8	354,381
423,3	373,095
423,8	387,867
424,2	412,781
424,7	434,895
425,1	454,352
425,6	477,667
426	502,781
426,5	525,781
426,9	549,381
427,4	579,267
427,9	605,524
428,3	637,352
428,8	667,695
429,2	702,81
429,7	736,01
430,1	774,781
430,6	810,181
431	852,638
431,5	889,038
431,9	928,238
432,4	969,267
432,8	1015,524
433,3	1057,81
433,8	1106,41
434,2	1155,21
434,7	1213,667
435,1	1279,724
435,6	1338,124
436	1401,152
436,5	1472,638
436,9	1536,752
437,4	1608,581
437,8	1686,01
438,3	1761,724
438,8	1841,324
439,2	1925,01
439,7	2004,152
440,1	2098,381
440,6	2191,895
441	2281,467
441,5	2379,267
441,9	2485,895
442,4	2592,552
442,8	2703,981
443,3	2815,667
443,7	2928,181
444,2	3044,21
444,7	3165,467
445,1	3290,438
445,6	3418,895
446	3553,21
446,5	3686,124
446,9	3829,067
447,4	3984,61
447,8	4131,238
448,3	4278,638
448,7	4435,038
449,2	4599,667
449,6	4761,095
450,1	4931,181
450,6	5094,552
451	5267,381
451,5	5449,981
451,9	5632,667
452,4	5806,581
452,8	6001,895
453,3	6187,438
453,7	6382,038
454,2	6582,581
454,6	6782,238
455,1	6981,267
455,5	7182,524
456	7382,495
456,4	7587,724
456,9	7806,695
457,3	8016,867
457,8	8235,724
458,3	8449,438
458,7	8679,895
459,2	8911,067
459,6	9131,495
460,1	9349,581
460,5	9579,238
461	9812,781
461,4	10054,181
461,9	10293,638
462,3	10533,638
462,8	10783,124
463,2	11026,124
463,7	11270,038
464,1	11502,552
464,6	11738,295
465	11981,438
465,5	12220,495
466	12463,267
466,4	12699,238
466,9	12932,524
467,3	13174,01
467,8	13412,752
468,2	13631,067
468,7	13865,81
469,1	14094,295
469,6	14326,838
470	14555,524
470,5	14777,895
470,9	14996,152
471,4	15218,524
471,8	15441,61
472,3	15658,552
472,7	15868,581
473,2	16081,981
473,6	16286,067
474,1	16493,581
474,5	16693,724
475	16881,552
475,4	17074,352
475,9	17272,238
476,4	17452,638
476,8	17629,838
477,3	17811,524
477,7	17988,267
478,2	18140,324
478,6	18299,752
479,1	18439,438
479,5	18593,638
480	18733,124
480,4	18872,81
480,9	18997,038
481,3	19124,124
481,8	19239,895
482,2	19350,295
482,7	19453,61
483,1	19557,752
483,6	19627,124
484	19713,724
484,5	19804,41
484,9	19882,695
485,4	19953,667
485,8	20006,067
486,3	20065,038
486,7	20122,038
487,2	20168,21
487,6	20204,895
488,1	20225,267
488,5	20242,21
489	20257,41
489,4	20267,181
489,9	20273,495
490,4	20275,695
490,8	20270,067
491,3	20255,638
491,7	20234,238
492,2	20220,952
492,6	20186,267
493,1	20149,295
493,5	20092,638
494	20040,524
494,4	19991,552
494,9	19947,124
495,3	19874,381
495,8	19811,695
496,2	19745,981
496,7	19676,867
497,1	19593,638
497,6	19525,695
498	19443,181
498,5	19357,61
498,9	19267,981
499,4	19184,61
499,8	19093,952
500,3	18989,095
500,7	18883,695
501,2	18779,01
501,6	18679,352
502,1	18577,467
502,5	18461,067
503	18364,61
503,4	18260,038
503,9	18147,61
504,3	18030,038
504,8	17908,895
505,2	17786,01
505,7	17666,867
506,1	17531,038
506,6	17411,638
507	17278,152
507,5	17148,324
507,9	17018,41
508,4	16874,01
508,8	16731,01
509,3	16599,41
509,7	16457,095
510,2	16312,495
510,6	16174,181
511,1	16030,238
511,5	15882,238
512	15739,095
512,4	15585,867
512,9	15437,61
513,3	15296,552
513,8	15145,638
514,2	14999,924
514,7	14866,467
515,1	14710,581
515,6	14565,352
516	14412,867
516,5	14254,01
516,9	14105,124
517,4	13958,381
517,8	13809,81
518,3	13684,752
518,7	13533,981
519,2	13401,61
519,6	13267,41
520,1	13126,467
520,5	12984,552
521	12835,752
521,4	12682,324
521,9	12548,667
522,3	12408,552
522,8	12271,667
523,2	12135,267
523,7	12001,752
524,1	11868,638
524,6	11740,695
525	11605,467
525,5	11479,352
525,9	11355,21
526,4	11233,638
526,8	11102,352
527,3	10988,724
527,7	10864,81
528,2	10744,067
528,6	10621,267
529,1	10501,867
529,5	10382,067
530	10280,667
530,4	10167,895
530,9	10051,752
531,3	9946,01
531,8	9831,41
532,2	9720,067
532,6	9614,81
533,1	9499,467
533,5	9393,01
534	9292,295
534,4	9190,21
534,9	9098,667
535,3	8998,81
535,8	8902,638
536,2	8808,695
536,7	8717,324
537,1	8626,21
537,6	8532,81
538	8437,581
538,5	8348,067
538,9	8243,238
539,4	8148,524
539,8	8050,724
540,3	7963,295
540,7	7879,81
541,2	7798,724
541,6	7717,952
542,1	7648,581
542,5	7566,781
543	7498,524
543,4	7420,581
543,9	7344,352
544,3	7269,267
544,8	7195,781
545,2	7126,124
545,7	7070,095
546,1	7002,552
546,5	6933,095
547	6857,581
547,4	6791,524
547,9	6716,238
548,3	6652,61
548,8	6577,295
549,2	6504,981
549,7	6443,724
550,1	6388,238
550,6	6330,438
551	6275,924
551,5	6212,095
551,9	6161,124
552,4	6108,381
552,8	6054,495
553,3	5998,867
553,7	5939,495
554,2	5890,524
554,6	5841,981
555,1	5791,752
555,5	5738,667
555,9	5691,952
556,4	5643,21
556,8	5592,752
557,3	5547,867
557,7	5498,895
558,2	5449,124
558,6	5407,352
559,1	5357,81
559,5	5320,752
560	5274,61
560,4	5231,124
560,9	5196,381
561,3	5157,61
561,8	5118,552
562,2	5085,495
562,7	5036,352
563,1	5004,324
563,6	4968,895
564	4929,152
564,4	4888,924
564,9	4856,238
565,3	4812,238
565,8	4778,638
566,2	4743,352
566,7	4699,495
567,1	4659,352
567,6	4623,01
568	4582,781
568,5	4548,41
568,9	4522,238
569,4	4484,981
569,8	4454,695
570,3	4424,924
570,7	4397,61
571,1	4368,038
571,6	4340,81
572	4306,981
572,5	4274,01
572,9	4240,924
573,4	4212,495
573,8	4182,752
574,3	4145,781
574,7	4112,381
575,2	4080,495
575,6	4057,21
576,1	4036,838
576,5	4006,095
576,9	3976,781
577,4	3952,724
577,8	3924,781
578,3	3899,324
578,7	3869,124
579,2	3832,924
579,6	3807,067
580,1	3778,095
580,5	3757,467
581	3736,924
581,4	3711,667
581,9	3687,267
582,3	3661,295
582,7	3635,895
583,2	3606,61
583,6	3574,21
584,1	3546,381
584,5	3518,752
585	3497,524
585,4	3475,352
585,9	3452,01
586,3	3439,638
586,8	3421,838
587,2	3397,895
587,6	3378,524
588,1	3350,981
588,5	3331,724
589	3304,381
589,4	3279,924
589,9	3259,752
590,3	3238,067
590,8	3208,638
591,2	3194,41
591,7	3177,067
592,1	3164,324
592,5	3150,667
593	3126,524
593,4	3116,838
593,9	3111,067
594,3	3094,267
594,8	3075,981
595,2	3061,695
595,7	3037,01
596,1	3021,724
596,6	2997,124
597	2978,61
597,4	2955,467
597,9	2942,152
598,3	2924,467
598,8	2916,867
599,2	2903,981
599,7	2892,467
600,1	2874,181
600,6	2867,267
601	2854,152
601,4	2837,381
601,9	2819,238
602,3	2802,695
602,8	2784,524
603,2	2771,724
603,7	2752,21
604,1	2728,01
604,6	2714,495
605	2698,21
605,4	2685,067
605,9	2676,267
606,3	2660,781
606,8	2644,067
607,2	2636,41
607,7	2622,752
608,1	2605,752
608,6	2587,581
609	2573,724
609,4	2558,238
609,9	2544,267
610,3	2529,924
610,8	2512,067
611,2	2500,581
611,7	2484,038
612,1	2466,61
612,6	2452,524
613	2435,61
613,4	2422,267
613,9	2409,467
614,3	2391,381
614,8	2382,095
615,2	2369,124
615,7	2355,952
616,1	2342,095
616,6	2318,41
617	2302,095
617,4	2284,981
617,9	2272,638
618,3	2252,781
618,8	2240,61
619,2	2229,067
619,7	2222,838
620,1	2210,552
620,5	2200,552
621	2185,752
621,4	2178,438
621,9	2171,981
622,3	2162,752
622,8	2145,524
623,2	2130,695
623,6	2116,352
624,1	2099,124
624,5	2089,638
625	2070,667
625,4	2055,41
625,9	2041,667
626,3	2030,067
626,8	2017,695
627,2	2009,981
627,6	1988,495
628,1	1974,095
628,5	1960,467
629	1952,638
629,4	1940,467
629,9	1930,581
630,3	1917,095
630,7	1902,381
631,2	1877,038
631,6	1861,838
632,1	1852,152
632,5	1839,181
633	1822,981
633,4	1813,952
633,8	1805,895
634,3	1803,495
634,7	1794,181
635,2	1772,381
635,6	1761,552
636,1	1753,352
636,5	1733,295
636,9	1719,981
637,4	1709,581
637,8	1695,21
638,3	1684,895
638,7	1673,467
639,2	1662,21
639,6	1655,638
640	1652,781
640,5	1647,01
640,9	1641,638
641,4	1634,524
641,8	1628,41
642,2	1619,981
642,7	1612,038
643,1	1600,667
643,6	1589,895
644	1579,41
644,5	1574,352
644,9	1564,067
645,3	1555,524
645,8	1542,267
646,2	1526,324
646,7	1512,81
647,1	1502,524
647,6	1486,552
648	1471,581
648,4	1458,381
648,9	1452,61
649,3	1445,21
649,8	1438,067
650,2	1431,638
650,6	1427,41
651,1	1423,152
651,5	1415,752
652	1410,01
652,4	1398,952
652,9	1391,924
653,3	1377,038
653,7	1367,981
654,2	1355,067
654,6	1343,352
655,1	1326,095
655,5	1319,952
655,9	1311,038
656,4	1312,324
656,8	1304,267
657,3	1294,095
657,7	1286,495
658,2	1284,41
658,6	1277,667
659	1267,01
659,5	1246,524
659,9	1241,238
660,4	1236,21
660,8	1228,495
661,2	1219,181
661,7	1205,981
662,1	1197,781
662,6	1194,895
663	1181,81
663,4	1172,524
663,9	1164,41
664,3	1157,095
664,8	1153,61
665,2	1140,01
665,6	1134,124
666,1	1127,781
666,5	1124,21
667	1113,095
667,4	1101,295
667,9	1087,638
668,3	1086,495
668,7	1074,781
669,2	1065,752
669,6	1051,867
670,1	1050,095
670,5	1040,867
670,9	1031,181
671,4	1024,467
671,8	1019,924
672,3	1013,867
672,7	1010,752
673,1	1002,552
673,6	994,61
674	990,581
674,5	981,981
674,9	972,238
675,3	962,352
675,8	954,438
676,2	946,038
676,7	945,61
677,1	943,467
677,5	933,295
678	929,895
678,4	922,638
678,9	913,895
679,3	908,238
679,7	900,695
680,2	892,552
680,6	888,81
681,1	883,581
681,5	878,524
681,9	875,01
682,4	867,21
682,8	858,838
683,3	853,095
683,7	847,952
684,1	838,495
684,6	833,095
685	826,81
685,5	823,924
685,9	820,181
686,3	812,381
686,8	803,981
687,2	795,867
687,7	790,495
688,1	785,781
688,5	775,552
689	771,981
689,4	768,495
689,9	766,924
690,3	763,324
690,7	760,01
691,2	756,067
691,6	757,152
692	747,438
692,5	739,438
692,9	729,524
693,4	727,724
693,8	717,381
694,2	707,41
694,7	699,181
695,1	693,152
695,6	688,81
696	687,21
696,4	680,124
696,9	678,267
697,3	669,61
697,8	664,781
698,2	659,181
698,6	659,381
699,1	654,41
699,5	650,724
699,9	643,295
700,4	642,838
700,8	641,41
701,3	642,152
701,7	631,752
702,1	624,581
702,6	617,61
703	611,467
703,5	603,41
703,9	596,61
704,3	589,61
704,8	590,181
705,2	587,61
705,6	585,152
706,1	586,295
706,5	583,238
707	578,038
707,4	575,924
707,8	565,838
708,3	560,038
708,7	551,695
709,2	542,438
709,6	541,438
710	535,495
710,5	529,752
710,9	531,095
711,3	528,324
711,8	529,467
712,2	531,495
712,7	530,524
713,1	524,781
713,5	518,867
714	514,467
714,4	510,638
714,8	501,695
715,3	494,981
715,7	486,524
716,2	485,667
716,6	484,981
717	477,867
717,5	473,781
717,9	474,067
718,3	470,124
718,8	468,295
719,2	465,781
719,7	461,038
720,1	457,238
720,5	453,438
721	446,867
721,4	445,124
721,8	438,295
722,3	430,41
722,7	424,952
723,2	422,667
723,6	417,41
724	413,81
724,5	406,124
724,9	402,238
725,3	400,581
725,8	402,524
726,2	397,952
726,7	400,495
727,1	397,524
727,5	394,01
728	389,095
728,4	387,152
728,8	377,867
729,3	381,21
729,7	372,695
730,1	375,038
730,6	374,552
731	374,981
731,5	373,552
731,9	374,981
732,3	368,952
732,8	370,181
733,2	365,467
733,6	366,124
734,1	367,495
734,5	361,295
734,9	358,781
735,4	351,267
735,8	346,495
736,3	340,895
736,7	335,838
737,1	334,152
737,6	333,352
738	330,41
738,4	332,981
738,9	335,61
739,3	334,352
739,7	340,952
740,2	335,267
740,6	335,295
741,1	333,067
741,5	329,61
741,9	321,438
742,4	318,352
742,8	307,838
743,2	304,752
743,7	303,295
744,1	301,267
744,5	297,181
745	301,61
745,4	300,638
745,8	301,352
746,3	300,581
746,7	299,61
747,2	294,381
747,6	297,095
748	289,21
748,5	286,667
748,9	285,124
749,3	287,81
749,8	286,21
750,2	285,581
750,6	282,924
751,1	282,867
751,5	282,867
751,9	278,752
752,4	271,838
752,8	261,838
753,3	265,581
753,7	267,324
754,1	268,41
754,6	268,124
755	267,81
755,4	265,067
755,9	271,41
756,3	265,667
756,7	259,267
757,2	256,838
757,6	256,295
758	254,924
758,5	256,495
758,9	254,638
759,3	254,038
759,8	249,238
760,2	244,552
760,6	241,381
761,1	235,524
761,5	236,61
761,9	232,467
762,4	230,438
762,8	232,381
763,3	233,124
763,7	226,667
764,1	224,781
764,6	217,695
765	217,981
765,4	213,81
765,9	211,695
766,3	209,638
766,7	214,467
767,2	218,81
767,6	220,181
768	213,838
768,5	213,895
768,9	210,495
769,3	213,21
769,8	210,381
770,2	205,381
770,6	201,952
771,1	204,781
771,5	203,381
771,9	203,895
772,4	196,638
772,8	192,41
773,2	193,038
773,7	193,038
774,1	189,724
774,5	190,067
775	190,238
775,4	190,61
775,8	193,352
776,3	193,324
776,7	192,581
777,1	192,524
777,6	187,838
778	187,01
778,4	180,952
778,9	180,152
779,3	177,381
779,7	180,181
780,2	179,495
780,6	182,467
781	176,838
781,5	180,438
781,9	177,381
782,3	176,124
782,8	173,438
783,2	177,095
783,6	176,952
784,1	177,61
784,5	174,381
784,9	170,952
785,4	168,981
785,8	167,895
786,2	163,267
786,7	157,124
787,1	156,238
787,5	157,924
788	159,067
788,4	159,781
788,8	151,981
789,3	147,124
789,7	151,981
790,1	149,324
790,6	145,724
791	148,752
791,4	142,495
791,9	148,924
792,3	148,838
792,7	146,038
793,2	145,81
793,6	150,581
794	147,695
794,5	155,095
794,9	151,581
795,3	148,61
795,8	146,438
796,2	149,41
796,6	141,61
797,1	141,695
797,5	139,495
797,9	135,295
798,4	135,095
798,8	135,667
799,2	134,152
799,7	134,324
800,1	134,638
800,5	128,495
801	129,924
801,4	133,495
801,8	131,924
802,2	132,467
802,7	134,467
803,1	133,667
803,5	133,981
804	133,524
804,4	130,495
804,8	127,01
805,3	125,952
805,7	120,981
806,1	115,638
806,6	114,124
807	115,838
807,4	115,21
807,9	113,695
808,3	106,467
808,7	105,41
809,2	106,152
809,6	104,152
810	102,81
810,4	97,838
810,9	97,781
811,3	101,438
811,7	100,667
812,2	99,41
812,6	98,724
813	96,81
813,5	100,867
813,9	101,667
814,3	99,581
814,8	102,61
815,2	100,638
815,6	101,381
816,1	99,324
816,5	100,152
816,9	95,724
817,3	98,467
817,8	97,352
818,2	96,41
818,6	97,581
819,1	98,238
819,5	96,581
819,9	103,124
820,4	99,667
820,8	98,524
821,2	97,324
821,7	96,038
822,1	94,581
822,5	93,552
822,9	91,038
823,4	89,41
823,8	89,467
824,2	87,838
824,7	82,924
825,1	85,695
825,5	80,01
826	77,295
826,4	80,781
826,8	74,752
827,3	75,295
827,7	79,752
828,1	73,924
828,5	73,838
829	73,067
829,4	68,295
829,8	75,41
830,3	73,295
830,7	67,638
831,1	69,295
831,6	72,724
832	68,124
832,4	68,324
832,8	67,124
833,3	69,724
833,7	73,952
834,1	73,21
834,6	74,552
835	78,867
835,4	84,238
835,8	81,667
836,3	76,238
836,7	72,781
837,1	68,352
837,6	64,238
838	62,381
838,4	51,924
838,9	49,752
839,3	52,524
839,7	52,381
840,1	59,438
840,6	61,21
841	61,695
841,4	61,695
841,9	59,038
842,3	63,181
842,7	63,867
843,1	60,752
843,6	61,952
844	63,095
844,4	65,124
844,9	67,438
845,3	61,981
845,7	64,524
846,2	63,01
846,6	58,552
847	55,41
847,4	50,267
847,9	49,667
848,3	50,638
848,7	45,752
849,2	44,324
849,6	44,81
850	44,495
850,4	49,267
850,9	46,524
851,3	40,21
851,7	43,352
852,2	41,581
852,6	43,01
853	44,324
853,4	43,81
853,9	48,238
854,3	55,295
854,7	52,181
855,2	53,381
855,6	51,124
856	50,781
856,4	52,495
856,9	47,724
857,3	44,695
857,7	42,695
858,2	41,581
858,6	38,638
859	38,038
859,4	36,238
859,9	39,152
860,3	43,581
860,7	43,952
861,1	43,667
861,6	44,867
862	45,752
862,4	44,21
862,9	42,495
863,3	34,838
863,7	38,067
864,1	38,038
864,6	39,152
865	38,324
865,4	35,61
865,9	36,981
866,3	34,952
866,7	31,295
867,1	31,867
867,6	30,038
868	22,21
868,4	23,038
868,8	20,867
869,3	27,638
869,7	27,438
870,1	26,01
870,6	25,695
871	53,267
871,4	55,81
871,8	55,41
872,3	49,181
872,7	48,095
873,1	49,924
873,5	50,324
874	28,867
874,4	24,981
874,8	26,381
875,3	29,524
875,7	33,41
876,1	32,181
876,5	35,095
877	32,781
877,4	31,41
877,8	26,552
878,2	30,352
878,7	27,381
879,1	27,152
879,5	24,21
879,9	18,152
880,4	22,981
880,8	20,438
881,2	17,781
881,7	18,467
882,1	18,867
882,5	18,095
882,9	23,038
883,4	20,667
883,8	19,61
884,2	16,495
884,6	16,81
885,1	13,838
885,5	19,267
885,9	20,181
886,3	16,667
886,8	25,267
887,2	23,01
887,6	19,895
888	22,638
888,5	19,238
888,9	15,752
889,3	21,267
889,8	18,752
890,2	22,095
890,6	20,267
891	22,695
891,5	18,01
891,9	19,324
892,3	13,21
892,7	14,181
893,2	18,695
893,6	20,467
894	13,41
894,4	18,181
894,9	16,552
895,3	18,295
895,7	18,552
896,1	11,467
896,6	13,352
897	13,267
897,4	9,01
897,8	13,467
898,3	14,924
898,7	6,495
899,1	5,181
899,5	1,695
900	8,267
900,4	10,01
900,8	11,238
901,2	11,667
901,7	19,695
902,1	23,695
902,5	24,124
902,9	19,41
903,4	16,752
903,8	15,752
904,2	13,724
904,6	15,524
905,1	15,067
905,5	15,495
905,9	17,552
906,3	19,181
906,8	18,21
907,2	18,867
907,6	12,238
908	11,238
908,5	15,152
908,9	12,695
909,3	11,895
909,7	9,295
910,2	14,524
910,6	18,61
911	21,038
911,4	19,638
911,9	19,01
912,3	20,724
912,7	23,067
913,1	17,352
913,6	19,152
914	17,61
914,4	16,152
914,8	16,552
915,3	17,038
915,7	13,581
916,1	17,01
916,5	13,267
916,9	14,41
917,4	13,352
917,8	13,01
918,2	10,781
918,6	15,438
919,1	10,838
919,5	13,295
919,9	10,552
920,3	10,752
920,8	8,924
921,2	8,781
921,6	6,095
922	8,581
922,5	5,81
922,9	6,924
923,3	12,381
923,7	15,41
924,2	14,81
924,6	15,867
925	13,152
925,4	14,238
925,8	7,838
926,3	2,01
926,7	2,41
927,1	5,495
927,5	7,152
928	12,038
928,4	12,924
928,8	16,581
929,2	21,124
929,7	18,124
930,1	15,895
930,5	17,81
930,9	16,61
931,3	15,01
931,8	17,438
932,2	15,267
932,6	17,867
933	14,752
933,5	9,267
933,9	6,724
934,3	5,952
934,7	1,981
935,2	-1,276
935,6	-3,248
936	2,495
936,4	1,838
936,8	3,552
937,3	3,324
937,7	4,61
938,1	1,067
938,5	-0,962
939	-1,676
939,4	1,295
939,8	1,924
940,2	1,181
940,6	3,438
941,1	5,667
941,5	9,524
941,9	10,61
942,3	5,838
942,8	5,21
943,2	6,81
943,6	6,41
944	7,81
944,4	4,038
944,9	-0,762
945,3	2,667
945,7	3,124
946,1	0,324
946,6	2,438
947	5,21
947,4	7,324
947,8	6,524
948,2	5,667
948,7	6,695
949,1	7,124
949,5	0,838
949,9	0,181
950,3	-1,276
950,8	-3,419
951,2	-2,676
951,6	-4,876
952	-1,133
952,5	3,581
952,9	3,438
953,3	4,838
953,7	10,067
954,1	8,267
954,6	3,095
955	1,667
955,4	1,581
955,8	0,61
956,2	-0,99
956,7	0,324
957,1	-0,048
957,5	1,324
957,9	0,067
958,3	-5,648
958,8	-6,562
959,2	-6,162
959,6	-9,819
960	-4,648
960,5	-0,79
960,9	1,524
961,3	8,381
961,7	8,438
962,1	6,41
962,6	10,638
963	10,124
963,4	9,81
963,8	6,695
964,2	2,21
964,7	0,181
965,1	6,067
965,5	0,724
965,9	-5,59
966,3	-3,162
966,8	-0,705
967,2	4,238
967,6	8,295
968	3,238
968,4	7,638
968,9	12,952
969,3	9,61
969,7	11,981
970,1	8,41
970,5	6,724
971	7,667
971,4	5,924
971,8	1,752
972,2	1,524
972,6	-1,448
973,1	-0,619
973,5	-3,648
973,9	-2,676
974,3	-1,99
974,7	-2,333
975,2	-2,848
975,6	-4,419
976	-8,59
976,4	-4,248
976,8	-1,762
977,3	-3,39
977,7	1,267
978,1	-3,19
978,5	-3,79
978,9	0,324
979,4	-6,905
979,8	-9,762
980,2	-6,705
980,6	-11,048
981	-6,648
981,5	-8,619
981,9	-9,362
982,3	-1,448
982,7	-2,076
983,1	-4,019
983,6	-5,648
984	-5,905
984,4	0,01
984,8	-0,562
985,2	-6,19
985,6	-6,905
986,1	-5,39
986,5	-2,533
986,9	-0,905
987,3	-3,248
987,7	-2,619
988,2	-1,933
988,6	2,981
989	1,067
989,4	1,324
989,8	0,095
990,3	0,467
990,7	1,41
991,1	1,467
991,5	-0,733
991,9	-2,79
992,3	-1,048
992,8	-2,819
993,2	-3,905
993,6	-4,848
994	1,838
994,4	0,581
994,9	2,21
995,3	3,667
995,7	6,181
996,1	7,41
996,5	7,895
996,9	2,41
997,4	2,41
997,8	2,667
998,2	-0,505
998,6	-4,848
999	-9,733
999,5	-12,39
999,9	-9,39
1000,3	-12,19
1000,7	-10,133
1001,1	-9,848
1001,5	-11,962
1002	-7,762
1002,4	-4,619
1002,8	-5,79
1003,2	-7,162
1003,6	-8,448
1004	-6,676
1004,5	-1,19
1004,9	-1,362
1005,3	-1,305
1005,7	-0,962
1006,1	5,981
1006,6	4,238
1007	0,41
1007,4	1,81
1007,8	2,695
1008,2	5,781
1008,6	4,438
1009,1	3,81
1009,5	7,152
1009,9	9,581
1010,3	2,41
1010,7	2,21
1011,1	-6,248
1011,6	-3,505
1012	-2,648
1012,4	-5,505
1012,8	-6,619
1013,2	-2,19
1013,6	-1,362
1014,1	1,21
1014,5	-0,848
1014,9	-1,762
1015,3	-1,819
1015,7	2,038
1016,1	6,381
1016,6	6,724
1017	7,267
1017,4	6,067
1017,8	6,752
1018,2	4,181
1018,6	2,324
1019,1	4,61
1019,5	4,181
1019,9	5,438
1020,3	3,01
1020,7	-5,619
1021,1	-2,019
1021,6	2,581
1022	-3,162
1022,4	-5,448
1022,8	-9,848
1023,2	-2,848
1023,6	0,781
1024,1	0,61
1024,5	-9,248
1024,9	-7,848
1025,3	-5,362
1025,7	-1,562
1026,1	-5,105
1026,6	-4,933
1027	-1,048
1027,4	-1,59
1027,8	1,181
1028,2	4,81
1028,6	3,438
1029	4,295
1029,5	2,41
1029,9	-3,99
1030,3	-1,562
1030,7	-1,962
1031,1	-10,333
1031,5	-10,362
1032	-10,39
1032,4	-3,448
1032,8	-1,505
1033,2	1,038
1033,6	1,124
1034	6,61
1034,4	7,952
1034,9	10,752
1035,3	8,552
1035,7	8,61
1036,1	9,524
1036,5	6,895
1036,9	7,467
1037,4	7,352
1037,8	7,038
1038,2	10,895
1038,6	9,867
1039	7,038
1039,4	4,152
1039,8	2,038
1040,3	2,41
1040,7	-1,248
1041,1	-10,19
1041,5	-9,419
1041,9	-6,848
1042,3	-3,19
1042,7	-1,905
1043,2	-2,248
1043,6	-5,076
1044	-3,99
1044,4	-0,333
1044,8	0,781
1045,2	-5,076
1045,6	-8,019
1046,1	-6,848
1046,5	0,181
1046,9	5,01
1047,3	1,438
1047,7	1,124
1048,1	5,867
1048,5	7,552
1049	7,552
1049,4	4,21
1049,8	-1,848
1050,2	-2,362
1050,6	-5,333
1051	-0,39
1051,4	0,495
1051,9	-1,676
1052,3	-1,248
1052,7	0,895
1053,1	2,895
1053,5	5,81
1053,9	1,952
1054,3	-0,505
1054,8	7,61
1055,2	7,038
1055,6	10,724
1056	5,238
1056,4	5,21
1056,8	1,81
1057,2	-1,305
1057,6	-12,305
1058,1	-10,79
1058,5	-14,048
1058,9	-4,076
1059,3	-0,819
1059,7	1,581
1060,1	6,124
1060,5	11,524
1061	13,524
1061,4	13,438
1061,8	9,238
1062,2	7,61
1062,6	3,01
1063	1,324
1063,4	4,552
1063,8	1,01
1064,3	4,61
1064,7	5,038
1065,1	1,838
1065,5	5,867
1065,9	8,267
1066,3	7,867
1066,7	8,181
1067,1	8,181
1067,6	6,581
1068	6,467
1068,4	10,01
1068,8	5,238
1069,2	2,838
1069,6	2,724
1070	-0,419
1070,4	-1,219
1070,9	-5,762
1071,3	-4,019
1071,7	4,638
1072,1	7,038
1072,5	6,524
1072,9	12,667
1073,3	13,01
1073,7	16,895
1074,2	14,067
1074,6	7,181
1075	4,924
1075,4	9,924
1075,8	4,752
1076,2	9,81
1076,6	12,381
1077	8,495
1077,5	16,352
1077,9	14,152
1078,3	9,438
1078,7	11,467
1079,1	8,467
1079,5	6,324
1079,9	6,267
1080,3	-1,448
1080,7	2,495
1081,2	-0,133
1081,6	1,724
1082	-0,99
1082,4	-0,933
1082,8	1,524
1083,2	3,952
1083,6	0,438
1084	3,781
1084,5	-1,248
1084,9	-0,705
1085,3	-6,733
1085,7	-6,133
1086,1	-2,648
1086,5	-2,676
1086,9	-1,533
1087,3	1,838
1087,7	0,524
1088,2	5,352
1088,6	6,695
1089	3,324
1089,4	1,352
1089,8	-1,505
1090,2	-8,219
1090,6	-6,533
1091	-2,305
1091,4	-5,505
1091,9	-8,133
1092,3	-3,076
1092,7	-5,362
1093,1	4,124
1093,5	1,61
1093,9	0,038
1094,3	5,552
1094,7	11,752
1095,1	9,41
1095,5	11,524
1096	8,41
1096,4	11,81
1096,8	10,838
1097,2	8,724
1097,6	3,238
1098	4,61
1098,4	3,124
1098,8	0,752
1099,2	-3,362
1099,6	-4,39
1100,1	-7,505
1100,5	-5,848
1100,9	-9,448
1101,3	-9,276
1101,7	-5,99
1102,1	-1,219
1102,5	0,952
1102,9	3,924
1103,3	-0,733
1103,7	2,038
1104,2	4,752
1104,6	2,152
1105	0,181
1105,4	-1,133
1105,8	-3,333
1106,2	0,838
1106,6	-0,19
1107	-0,105
1107,4	0,467
1107,8	0,827
1108,3	-0,083
