Data from Subt2_101.txt Node
Date: Sat Aug 26 18:18:38 MSK 2023
User: vat
Spectrometer: MAYP114033
Trigger mode: 0
Integration Time (sec): 1,000000E0
Scans to average: 5
Electric dark correction enabled: true
Nonlinearity correction enabled: false
Boxcar width: 3
XAxis mode: Wavelengths
Number of Pixels in Spectrum: 2068
>>>>>Begin Spectral Data<<<<<
199,4	0
199,9	1,76
200,4	1,3
200,8	3,086
201,3	1,657
201,8	5,486
202,2	3,743
202,7	6,743
203,2	5,686
203,6	5,314
204,1	1,086
204,6	0,8
205	-1,771
205,5	1,8
206	-0,229
206,4	2,257
206,9	2,086
207,4	6,8
207,8	6,714
208,3	5,714
208,8	3,314
209,2	3,829
209,7	1,4
210,2	3,057
210,6	2,257
211,1	2,8
211,5	-0,543
212	1,771
212,5	-0,971
212,9	-4,914
213,4	-5,771
213,9	-13,114
214,3	-9,2
214,8	-4,171
215,3	-5,914
215,7	-3,257
216,2	3,829
216,7	7,486
217,1	13,229
217,6	12,514
218,1	8,629
218,5	6,229
219	0,743
219,5	-1,829
219,9	-8,143
220,4	-0,571
220,9	-4,371
221,3	-2,2
221,8	4,943
222,3	12,029
222,7	10,029
223,2	12,629
223,6	7,686
224,1	10,829
224,6	16,086
225	5,686
225,5	4,914
226	7,914
226,4	9,429
226,9	9,257
227,4	9,371
227,8	0,457
228,3	3,743
228,8	2,571
229,2	0,6
229,7	-1,714
230,2	-3,114
230,6	-3,914
231,1	5,457
231,5	9,543
232	7,086
232,5	12,6
232,9	15,343
233,4	14,343
233,9	11,8
234,3	7,743
234,8	3,286
235,3	2,714
235,7	0,457
236,2	-2,657
236,7	-3,257
237,1	-1,143
237,6	-9,429
238,1	-7,486
238,5	-8,171
239	-7,686
239,4	-3,686
239,9	-1,514
240,4	0,971
240,8	10,943
241,3	10,714
241,8	11,857
242,2	7,429
242,7	0,257
243,2	-1,686
243,6	-8,6
244,1	-10,686
244,6	-10,914
245	-8,714
245,5	-10,686
245,9	-7,143
246,4	-6
246,9	2,2
247,3	0,571
247,8	0,914
248,3	3,171
248,7	9,143
249,2	12,8
249,7	12,543
250,1	7,4
250,6	6,314
251	6,771
251,5	5,543
252	3,057
252,4	-0,171
252,9	-2,486
253,4	-5,743
253,8	-6,457
254,3	-3,4
254,8	-4,429
255,2	-5,4
255,7	-7,057
256,1	-4,457
256,6	-0,229
257,1	2,971
257,5	-3,8
258	-5,771
258,5	-6,514
258,9	-2,914
259,4	-6,086
259,9	-3,229
260,3	-7,829
260,8	-7,429
261,2	-6,943
261,7	-3,057
262,2	-9,714
262,6	-10,2
263,1	-12,343
263,6	-7,371
264	-3,657
264,5	-0,829
264,9	-2,457
265,4	3,114
265,9	5,6
266,3	7,6
266,8	8,914
267,3	9,429
267,7	8,143
268,2	8,457
268,7	10,114
269,1	9,257
269,6	2
270	3,543
270,5	-0,914
271	3,229
271,4	3,371
271,9	-2,914
272,4	-0,857
272,8	4,4
273,3	-2,686
273,7	1,629
274,2	-3,657
274,7	-6,743
275,1	-2,057
275,6	-0,829
276,1	-3,257
276,5	2,171
277	0,829
277,4	2,4
277,9	4,429
278,4	6,657
278,8	6,657
279,3	11,114
279,8	10,2
280,2	9,057
280,7	10,771
281,1	6,886
281,6	6
282,1	8,686
282,5	6,829
283	5,457
283,4	9,371
283,9	8,429
284,4	13,2
284,8	13,314
285,3	7,314
285,8	5,343
286,2	2,829
286,7	4,029
287,1	2,943
287,6	5,2
288,1	1,8
288,5	5,457
289	5,914
289,5	13,543
289,9	7,229
290,4	7,771
290,8	4,343
291,3	3,371
291,8	3,314
292,2	6,257
292,7	8,229
293,1	12,571
293,6	15,657
294,1	15,829
294,5	17,571
295	16,343
295,5	14,029
295,9	10,514
296,4	5,743
296,8	3,771
297,3	1,886
297,8	-1,6
298,2	-6,914
298,7	-2,686
299,1	-4,486
299,6	-2,029
300,1	-0,057
300,5	3,429
301	11,857
301,5	20,2
301,9	16,629
302,4	14,143
302,8	14,543
303,3	12,486
303,8	6,257
304,2	2,371
304,7	-2,429
305,1	-6,429
305,6	-7,286
306,1	-1,371
306,5	-1,857
307	6,657
307,4	8,714
307,9	10,629
308,4	16,314
308,8	11,886
309,3	9,029
309,8	5,257
310,2	3,143
310,7	-2,771
311,1	-2,6
311,6	-2,886
312,1	3,514
312,5	2,286
313	5,171
313,4	7,429
313,9	10,743
314,4	10,914
314,8	8,314
315,3	6,8
315,7	1,6
316,2	-0,286
316,7	-3,029
317,1	-1,714
317,6	-0,629
318	5,829
318,5	5,8
319	6,829
319,4	9,914
319,9	11,2
320,3	14,057
320,8	9,686
321,3	3,486
321,7	7,943
322,2	9,771
322,6	9,229
323,1	4,629
323,6	1,971
324	4,457
324,5	2,629
324,9	1,886
325,4	3,629
325,9	5
326,3	9,943
326,8	8,2
327,2	6,057
327,7	8,6
328,2	7,629
328,6	8,286
329,1	2,2
329,5	-3,286
330	-3,171
330,5	-2,571
330,9	-2,029
331,4	-0,429
331,8	-3,743
332,3	3,571
332,8	10,029
333,2	5,8
333,7	7,657
334,1	7,629
334,6	2,771
335,1	4,457
335,5	3,686
336	-0,314
336,4	6,629
336,9	10,543
337,4	12,8
337,8	14,457
338,3	13,971
338,7	12,4
339,2	14,257
339,7	15,657
340,1	10,971
340,6	12,486
341	11,686
341,5	10
342	4,171
342,4	0,286
342,9	-3,143
343,3	-2,2
343,8	-7,6
344,2	-4
344,7	1,657
345,2	3,486
345,6	5,4
346,1	7,314
346,5	3,314
347	-0,914
347,5	-3,571
347,9	-3,4
348,4	2,343
348,8	3,886
349,3	5,171
349,8	11,6
350,2	22,829
350,7	21,743
351,1	19,943
351,6	22,629
352	25,486
352,5	24,343
353	27,057
353,4	25,543
353,9	33,6
354,3	37,886
354,8	39,943
355,3	50,857
355,7	63,457
356,2	75,286
356,6	88,971
357,1	106,057
357,5	130,029
358	156,114
358,5	171,914
358,9	199,143
359,4	226,086
359,8	261,371
360,3	302,114
360,8	336,857
361,2	380
361,7	437,857
362,1	500,371
362,6	565,714
363	628,686
363,5	694
364	774,686
364,4	857,743
364,9	936,943
365,3	1005,086
365,8	1074,029
366,3	1139,457
366,7	1202,743
367,2	1254,943
367,6	1287,4
368,1	1319,686
368,5	1340,171
369	1349,571
369,5	1357,771
369,9	1341,6
370,4	1318,4
370,8	1293,229
371,3	1248,857
371,7	1210,057
372,2	1157,371
372,7	1099,086
373,1	1044,514
373,6	980,914
374	921,4
374,5	861,514
374,9	798,486
375,4	749,514
375,9	691,857
376,3	636,429
376,8	588,857
377,2	541,086
377,7	500,6
378,2	456,143
378,6	416,314
379,1	382,257
379,5	352,029
380	326,143
380,4	297,543
380,9	270,6
381,4	248,114
381,8	230,771
382,3	216,371
382,7	202,343
383,2	188,2
383,6	177,029
384,1	171,914
384,6	165,686
385	149,514
385,5	135,057
385,9	123,343
386,4	113,086
386,8	106,829
387,3	91,057
387,7	81,886
388,2	79,743
388,7	73,943
389,1	70,314
389,6	68,2
390	61,229
390,5	65,2
390,9	64,857
391,4	60,229
391,9	59,429
392,3	59,857
392,8	51,086
393,2	47,257
393,7	40,629
394,1	34,057
394,6	31,457
395,1	33,8
395,5	31
396	36,8
396,4	40,8
396,9	36,486
397,3	42,371
397,8	44,257
398,2	42,457
398,7	39,943
399,2	36,514
399,6	33,371
400,1	37,314
400,5	29,457
401	28,086
401,4	22,657
401,9	26,457
402,4	30,343
402,8	32,4
403,3	34,8
403,7	36,971
404,2	41,914
404,6	52,686
405,1	53,229
405,5	48,914
406	50,571
406,5	50,886
406,9	59,371
407,4	59,2
407,8	58,457
408,3	63,514
408,7	68,486
409,2	77,457
409,6	85
410,1	89,2
410,6	101,486
411	110,086
411,5	119,086
411,9	129,829
412,4	135,286
412,8	141,143
413,3	150,714
413,7	156,857
414,2	162,657
414,7	175,114
415,1	189,371
415,6	201,086
416	215,371
416,5	230,086
416,9	239,057
417,4	258,029
417,8	273,686
418,3	284,486
418,8	299,4
419,2	311,857
419,7	326
420,1	348,657
420,6	364,486
421	378,143
421,5	401,571
421,9	425,143
422,4	453,429
422,8	479
423,3	504,171
423,8	530,943
424,2	557,343
424,7	588,629
425,1	619,629
425,6	651,657
426	681,657
426,5	720,943
426,9	759,286
427,4	801,686
427,9	836,914
428,3	879,6
428,8	924,657
429,2	971,029
429,7	1013,6
430,1	1067,971
430,6	1119,857
431	1181,314
431,5	1238,543
431,9	1296,714
432,4	1369,114
432,8	1442,086
433,3	1511,657
433,8	1590,343
434,2	1666,886
434,7	1750,629
435,1	1838,657
435,6	1925,457
436	2017,657
436,5	2122,057
436,9	2220,029
437,4	2330,057
437,8	2442,8
438,3	2564,943
438,8	2686,457
439,2	2814,343
439,7	2945,629
440,1	3086,486
440,6	3231,457
441	3373,886
441,5	3517,914
441,9	3672,486
442,4	3829,314
442,8	3993,629
443,3	4159,629
443,7	4331,943
444,2	4516,686
444,7	4706,114
445,1	4900,314
445,6	5096,857
446	5295,286
446,5	5499,143
446,9	5696,429
447,4	5915,829
447,8	6135,029
448,3	6370,343
448,7	6601,257
449,2	6835,771
449,6	7081,314
450,1	7338,286
450,6	7583,657
451	7834,857
451,5	8082
451,9	8354,429
452,4	8630,571
452,8	8910,629
453,3	9189,771
453,7	9479,343
454,2	9779,743
454,6	10080,4
455,1	10379,486
455,5	10673,2
456	10978,286
456,4	11281
456,9	11592,114
457,3	11905,914
457,8	12216,657
458,3	12523,571
458,7	12856,314
459,2	13183,429
459,6	13518,457
460,1	13848,857
460,5	14187,143
461	14528,6
461,4	14873,2
461,9	15198,829
462,3	15529,286
462,8	15865,6
463,2	16190,743
463,7	16520,886
464,1	16856,143
464,6	17192,457
465	17523,714
465,5	17853,429
466	18193,8
466,4	18531,257
466,9	18868,143
467,3	19202,514
467,8	19527,486
468,2	19851,114
468,7	20189,2
469,1	20504,371
469,6	20823,286
470	21125,943
470,5	21416,714
470,9	21723,114
471,4	22021,686
471,8	22294,486
472,3	22573,371
472,7	22868,171
473,2	23142,971
473,6	23413,514
474,1	23674,457
474,5	23947,229
475	24224,314
475,4	24477,771
475,9	24716,571
476,4	24971,486
476,8	25227,914
477,3	25459,514
477,7	25680,371
478,2	25880,4
478,6	26100,543
479,1	26290,457
479,5	26465,086
480	26634,029
480,4	26801,057
480,9	26963,229
481,3	27119,8
481,8	27266,057
482,2	27401,886
482,7	27531,857
483,1	27648,029
483,6	27768,457
484	27877,857
484,5	27974,029
484,9	28048,771
485,4	28135,829
485,8	28210,571
486,3	28274,029
486,7	28332,571
487,2	28379,714
487,6	28412,743
488,1	28442,114
488,5	28472,914
489	28498,371
489,4	28504,429
489,9	28482,171
490,4	28466,514
490,8	28470,457
491,3	28443,857
491,7	28391,057
492,2	28343,771
492,6	28297,343
493,1	28243,114
493,5	28183
494	28097,829
494,4	28021,771
494,9	27949,4
495,3	27858,8
495,8	27768,086
496,2	27684,629
496,7	27587,286
497,1	27490,857
497,6	27399,286
498	27298,657
498,5	27188,371
498,9	27060,114
499,4	26937,457
499,8	26806,114
500,3	26677,371
500,7	26540,629
501,2	26387,943
501,6	26245,029
502,1	26106,886
502,5	25972,829
503	25832,8
503,4	25676,943
503,9	25520,914
504,3	25390,457
504,8	25232,343
505,2	25068,714
505,7	24883,257
506,1	24704,857
506,6	24517,486
507	24325,057
507,5	24122,257
507,9	23935,257
508,4	23758,714
508,8	23578,629
509,3	23369,486
509,7	23190,829
510,2	23004,429
510,6	22819,086
511,1	22624,943
511,5	22430,286
512	22225,343
512,4	22036,429
512,9	21821,343
513,3	21630,886
513,8	21415,829
514,2	21203,114
514,7	20997,143
515,1	20794
515,6	20592,171
516	20403,114
516,5	20186,857
516,9	19988,029
517,4	19790,257
517,8	19580,571
518,3	19376,829
518,7	19170,686
519,2	18965,114
519,6	18773,143
520,1	18577
520,5	18375,429
521	18170,8
521,4	17979,086
521,9	17782,771
522,3	17587,457
522,8	17388,771
523,2	17187,514
523,7	17001,029
524,1	16826,314
524,6	16640,171
525	16476,029
525,5	16296,457
525,9	16113,257
526,4	15938,486
526,8	15757,657
527,3	15581,914
527,7	15407,886
528,2	15225,429
528,6	15047,686
529,1	14882,314
529,5	14708,886
530	14539
530,4	14367,4
530,9	14199,971
531,3	14033,971
531,8	13872,343
532,2	13715,486
532,6	13561,771
533,1	13405,429
533,5	13249,486
534	13104,457
534,4	12956,886
534,9	12813,629
535,3	12662,686
535,8	12512,829
536,2	12380,229
536,7	12243,171
537,1	12103,914
537,6	11963,771
538	11828,457
538,5	11699,2
538,9	11565,914
539,4	11427,429
539,8	11294,057
540,3	11161,6
540,7	11031,286
541,2	10901,286
541,6	10779,857
542,1	10655,543
542,5	10538,857
543	10420,771
543,4	10299
543,9	10189,286
544,3	10083
544,8	9965,743
545,2	9866,4
545,7	9762,543
546,1	9663,314
546,5	9567,343
547	9467,857
547,4	9363,171
547,9	9262,543
548,3	9165,4
548,8	9069,514
549,2	8963,429
549,7	8868,829
550,1	8772,4
550,6	8680,314
551	8588,914
551,5	8499,457
551,9	8407
552,4	8328,457
552,8	8236,6
553,3	8143,4
553,7	8058,771
554,2	7976,057
554,6	7898,057
555,1	7812,571
555,5	7727,943
555,9	7649,743
556,4	7578,714
556,8	7509,657
557,3	7438,4
557,7	7368,543
558,2	7296,514
558,6	7233,4
559,1	7161,2
559,5	7088,743
560	7020,343
560,4	6953,943
560,9	6880,314
561,3	6819
561,8	6755,457
562,2	6690,114
562,7	6628,171
563,1	6568,343
563,6	6506,429
564	6444,857
564,4	6375,486
564,9	6306,914
565,3	6257,629
565,8	6203,914
566,2	6139,286
566,7	6083,429
567,1	6026,286
567,6	5984,743
568	5927
568,5	5865,4
568,9	5804,543
569,4	5750,314
569,8	5698,343
570,3	5653,629
570,7	5592,171
571,1	5549,143
571,6	5504,257
572	5459,543
572,5	5415,314
572,9	5359,171
573,4	5308,657
573,8	5270,4
574,3	5216,486
574,7	5169
575,2	5123,229
575,6	5072,457
576,1	5037,286
576,5	4999,229
576,9	4950,943
577,4	4915,457
577,8	4873,714
578,3	4832,971
578,7	4792,8
579,2	4746,086
579,6	4694,429
580,1	4652,229
580,5	4609,143
581	4570,829
581,4	4534,114
581,9	4491,743
582,3	4450,943
582,7	4409,571
583,2	4377,543
583,6	4343,629
584,1	4307,314
584,5	4271,8
585	4240,086
585,4	4202,4
585,9	4174,229
586,3	4137,886
586,8	4101,686
587,2	4063,914
587,6	4032,857
588,1	4000,943
588,5	3976,457
589	3948,8
589,4	3914,371
589,9	3879,8
590,3	3847,629
590,8	3815,743
591,2	3792,829
591,7	3762,857
592,1	3734,086
592,5	3711,971
593	3691,343
593,4	3666,543
593,9	3638,771
594,3	3605,514
594,8	3578,114
595,2	3543,171
595,7	3514,971
596,1	3490,057
596,6	3465,314
597	3438,286
597,4	3413,457
597,9	3395,743
598,3	3380,2
598,8	3354,971
599,2	3333,914
599,7	3309,486
600,1	3287,171
600,6	3264,686
601	3237,514
601,4	3214,971
601,9	3196,2
602,3	3172,943
602,8	3154,914
603,2	3135,6
603,7	3114,486
604,1	3097,143
604,6	3073,457
605	3044,514
605,4	3021,171
605,9	2994,2
606,3	2971,257
606,8	2949,457
607,2	2924,629
607,7	2895,714
608,1	2879,829
608,6	2863,914
609	2849,943
609,4	2830,314
609,9	2816,2
610,3	2795,229
610,8	2779,143
611,2	2757,343
611,7	2734,8
612,1	2714,543
612,6	2696,686
613	2674,514
613,4	2653,771
613,9	2635,657
614,3	2621,343
614,8	2603,629
615,2	2583,286
615,7	2563,657
616,1	2545,371
616,6	2526,314
617	2506,8
617,4	2490,8
617,9	2473,457
618,3	2459,771
618,8	2448,6
619,2	2432,543
619,7	2422,086
620,1	2407,086
620,5	2386,486
621	2368,029
621,4	2349,771
621,9	2328,743
622,3	2313,629
622,8	2289,629
623,2	2276
623,6	2256,229
624,1	2244,4
624,5	2226,143
625	2213,257
625,4	2191,486
625,9	2183,886
626,3	2163,2
626,8	2144,771
627,2	2125,371
627,6	2108,2
628,1	2089,543
628,5	2083,771
629	2062,486
629,4	2050,6
629,9	2041,486
630,3	2026,086
630,7	2012,429
631,2	1994,514
631,6	1976,8
632,1	1964,943
632,5	1945,343
633	1929,229
633,4	1908,571
633,8	1893
634,3	1879,829
634,7	1861,571
635,2	1844,629
635,6	1832,686
636,1	1822,629
636,5	1812,371
636,9	1800,486
637,4	1787,314
637,8	1773,514
638,3	1756,829
638,7	1746,914
639,2	1732,229
639,6	1717,314
640	1707,286
640,5	1695,514
640,9	1683,171
641,4	1678,257
641,8	1667,343
642,2	1655,914
642,7	1651,143
643,1	1642,6
643,6	1633,771
644	1625,543
644,5	1612,4
644,9	1600,686
645,3	1588,143
645,8	1572,229
646,2	1558,229
646,7	1546,286
647,1	1532,343
647,6	1521,257
648	1514,543
648,4	1503,114
648,9	1495,6
649,3	1485,371
649,8	1475,429
650,2	1473,686
650,6	1465,2
651,1	1455,2
651,5	1452,086
652	1442,543
652,4	1432,457
652,9	1424,171
653,3	1412,829
653,7	1404,2
654,2	1389,429
654,6	1374,629
655,1	1369,314
655,5	1363
655,9	1349,6
656,4	1335,029
656,8	1326,486
657,3	1322,743
657,7	1319,029
658,2	1303,686
658,6	1295,371
659	1288,686
659,5	1279,857
659,9	1272,943
660,4	1261,286
660,8	1245,4
661,2	1237,714
661,7	1226,4
662,1	1215,771
662,6	1205,2
663	1191,914
663,4	1183,686
663,9	1180,629
664,3	1173,314
664,8	1157,8
665,2	1149,771
665,6	1141,2
666,1	1134,457
666,5	1127,086
667	1116,229
667,4	1106,657
667,9	1100,229
668,3	1091,257
668,7	1086,2
669,2	1078,657
669,6	1066,429
670,1	1058,771
670,5	1049,286
670,9	1042,771
671,4	1035,943
671,8	1031,971
672,3	1027,971
672,7	1026,657
673,1	1018,057
673,6	1012,771
674	1012
674,5	1006,286
674,9	989,657
675,3	973,6
675,8	962,571
676,2	960,114
676,7	953,4
677,1	942,657
677,5	933,714
678	932,914
678,4	931,286
678,9	924,486
679,3	915,343
679,7	907,057
680,2	894,171
680,6	883,486
681,1	874,029
681,5	869,229
681,9	864,086
682,4	855
682,8	850,371
683,3	851,257
683,7	852,6
684,1	849,143
684,6	839,114
685	831,971
685,5	826
685,9	817,857
686,3	808,4
686,8	802,314
687,2	795,057
687,7	792,6
688,1	783,171
688,5	781,143
689	774,229
689,4	770,657
689,9	762,257
690,3	754,8
690,7	749,914
691,2	747,314
691,6	741,629
692	739,057
692,5	734,629
692,9	728
693,4	723,771
693,8	716,2
694,2	711,2
694,7	704,029
695,1	699,029
695,6	692,714
696	692,943
696,4	687,514
696,9	679,571
697,3	669,2
697,8	660,343
698,2	653,886
698,6	651,114
699,1	642,314
699,5	641
699,9	636,914
700,4	634,371
700,8	633,143
701,3	632
701,7	623,743
702,1	618,486
702,6	613,771
703	614,914
703,5	612,286
703,9	609,086
704,3	605
704,8	600,629
705,2	598,057
705,6	593,486
706,1	584,257
706,5	584,4
707	580,343
707,4	573,229
707,8	568,114
708,3	567,029
708,7	556,314
709,2	554,6
709,6	543,629
710	540,6
710,5	535,6
710,9	537,371
711,3	527,429
711,8	529,257
712,2	525,971
712,7	522,771
713,1	521,829
713,5	520,629
714	515,6
714,4	512,543
714,8	507,914
715,3	501,371
715,7	500,057
716,2	492,714
716,6	488,486
717	483,943
717,5	478,943
717,9	479,629
718,3	476,829
718,8	476,229
719,2	471,971
719,7	467,429
720,1	465,629
720,5	468,714
721	462,057
721,4	460,543
721,8	455,857
722,3	446,943
722,7	448,229
723,2	438,8
723,6	427,429
724	418,829
724,5	416,114
724,9	409,114
725,3	411,743
725,8	405,029
726,2	406,343
726,7	404,857
727,1	406,914
727,5	400,171
728	398,086
728,4	392,286
728,8	384,886
729,3	376,971
729,7	373,714
730,1	370,057
730,6	369,257
731	365,314
731,5	367,371
731,9	369,8
732,3	368,343
732,8	369,086
733,2	366,743
733,6	363,343
734,1	363,229
734,5	355,543
734,9	353,543
735,4	354,086
735,8	348,771
736,3	347,114
736,7	341,886
737,1	340,057
737,6	339,886
738	336,2
738,4	332,714
738,9	335,057
739,3	331,914
739,7	329,943
740,2	330,514
740,6	332,457
741,1	332,714
741,5	326,114
741,9	320,829
742,4	322,514
742,8	327,429
743,2	327,771
743,7	317,829
744,1	312
744,5	311,743
745	309,886
745,4	300,571
745,8	295,086
746,3	291,286
746,7	292,343
747,2	291,543
747,6	295,657
748	296,457
748,5	300,229
748,9	293,514
749,3	285
749,8	285,057
750,2	285,286
750,6	276,629
751,1	275,486
751,5	270,6
751,9	276,257
752,4	279,057
752,8	274,543
753,3	271,514
753,7	275,857
754,1	268,743
754,6	266,029
755	259,486
755,4	253,971
755,9	255,229
756,3	253,657
756,7	250,571
757,2	255,543
757,6	255,8
758	256,657
758,5	256,943
758,9	252,257
759,3	249,2
759,8	245,571
760,2	240,171
760,6	237,457
761,1	233,657
761,5	232,714
761,9	234,029
762,4	228,486
762,8	227,8
763,3	225,057
763,7	227,457
764,1	231,114
764,6	232,371
765	230,857
765,4	234,743
765,9	233,829
766,3	238,886
766,7	234,714
767,2	226,829
767,6	226,057
768	223,314
768,5	221,657
768,9	220,629
769,3	216,371
769,8	214,314
770,2	215,971
770,6	210,343
771,1	209,714
771,5	207,771
771,9	205,543
772,4	202,629
772,8	204,629
773,2	203,914
773,7	201,343
774,1	199,629
774,5	194,257
775	193,771
775,4	197,257
775,8	193,257
776,3	194,2
776,7	191,829
777,1	191,143
777,6	196,429
778	196,771
778,4	189,086
778,9	190,429
779,3	182,4
779,7	186,543
780,2	188,286
780,6	182,629
781	179,743
781,5	178,943
781,9	174,771
782,3	175,6
782,8	174,886
783,2	171,657
783,6	174
784,1	174,457
784,5	172,971
784,9	172,343
785,4	176,486
785,8	177,057
786,2	178,4
786,7	177,714
787,1	172
787,5	173,057
788	173,657
788,4	166,971
788,8	161,314
789,3	155,914
789,7	156,629
790,1	158,029
790,6	157,743
791	153,686
791,4	156
791,9	152,571
792,3	152,829
792,7	153,8
793,2	151,171
793,6	150,314
794	149,143
794,5	143,886
794,9	148,743
795,3	150,4
795,8	140,029
796,2	140,543
796,6	139,114
797,1	141
797,5	142,543
797,9	138,143
798,4	130,457
798,8	134,286
799,2	131,343
799,7	132,229
800,1	129,771
800,5	128,514
801	133,086
801,4	133,257
801,8	129,629
802,2	134,571
802,7	129,886
803,1	130,886
803,5	131,857
804	123,143
804,4	124,743
804,8	128,4
805,3	127,257
805,7	125,886
806,1	123,429
806,6	123,286
807	126
807,4	124,314
807,9	115,686
808,3	109,2
808,7	110,714
809,2	110,686
809,6	108,743
810	105,771
810,4	104,8
810,9	107,543
811,3	112,314
811,7	113,486
812,2	114,514
812,6	112,514
813	115,314
813,5	120
813,9	119,971
814,3	116,971
814,8	111,943
815,2	107,257
815,6	107,571
816,1	107,429
816,5	101,343
816,9	98,714
817,3	96,486
817,8	101,914
818,2	102,114
818,6	98
819,1	92,543
819,5	90,886
819,9	93,4
820,4	90,657
820,8	85,429
821,2	83,286
821,7	86,314
822,1	89,486
822,5	94,971
822,9	93,8
823,4	94,143
823,8	95,771
824,2	96,143
824,7	90,371
825,1	83,914
825,5	77,571
826	74,257
826,4	77,314
826,8	72,771
827,3	75,143
827,7	75
828,1	79,6
828,5	77,571
829	74,2
829,4	71,114
829,8	70,714
830,3	67,686
830,7	68,429
831,1	68,629
831,6	72,4
832	74,8
832,4	74,057
832,8	72,543
833,3	70,629
833,7	68,571
834,1	64,343
834,6	60,686
835	63,286
835,4	65,2
835,8	64,143
836,3	65,6
836,7	66,514
837,1	66,029
837,6	68,571
838	67,486
838,4	65,743
838,9	68,371
839,3	65,429
839,7	66,429
840,1	62,314
840,6	58,429
841	57,114
841,4	58,8
841,9	57,314
842,3	56,486
842,7	53,686
843,1	57,171
843,6	58,2
844	58
844,4	57,457
844,9	60,057
845,3	60,943
845,7	60,343
846,2	55,086
846,6	53,8
847	54,229
847,4	53,4
847,9	53,914
848,3	54,857
848,7	57,629
849,2	63,029
849,6	55,714
850	60,657
850,4	57,086
850,9	58,857
851,3	60,943
851,7	57,971
852,2	57,743
852,6	65,714
853	61,171
853,4	59,571
853,9	48,543
854,3	45,486
854,7	48,914
855,2	45,886
855,6	44,257
856	39,686
856,4	37,314
856,9	39,6
857,3	37,486
857,7	39,486
858,2	43,857
858,6	41,914
859	48,343
859,4	54,257
859,9	53,486
860,3	55,971
860,7	55,514
861,1	53,629
861,6	53,829
862	50,914
862,4	44,657
862,9	49,171
863,3	50,8
863,7	44,971
864,1	46,343
864,6	45,029
865	40,086
865,4	43,971
865,9	42,971
866,3	36,514
866,7	37,829
867,1	32,886
867,6	34,857
868	34,429
868,4	31,743
868,8	31,171
869,3	32
869,7	35,857
870,1	34,743
870,6	29,914
871	-26,629
871,4	-24,486
871,8	-28,714
872,3	-25,943
872,7	-28,829
873,1	-24,886
873,5	-20
874	34,514
874,4	35,571
874,8	39,6
875,3	38,571
875,7	36,114
876,1	35,714
876,5	36,629
877	38,971
877,4	33,743
877,8	30,743
878,2	29,457
878,7	31,6
879,1	28,086
879,5	27,857
879,9	30,629
880,4	36,371
880,8	37,571
881,2	37,286
881,7	35,286
882,1	37,171
882,5	35,771
882,9	35,971
883,4	30,286
883,8	31,914
884,2	30,686
884,6	29,114
885,1	31
885,5	28,257
885,9	21,543
886,3	26,2
886,8	22,857
887,2	20,171
887,6	18,714
888	17,057
888,5	16,743
888,9	18,457
889,3	12,057
889,8	11,514
890,2	10,771
890,6	8,886
891	7,829
891,5	10,514
891,9	12,943
892,3	18,4
892,7	18,886
893,2	25,971
893,6	29,229
894	30,743
894,4	25,714
894,9	23,143
895,3	19,286
895,7	18,829
896,1	19,229
896,6	21,029
897	19,971
897,4	26,714
897,8	28,6
898,3	31,343
898,7	27,371
899,1	22,914
899,5	19,943
900	13,971
900,4	9,114
900,8	7
901,2	3,514
901,7	6,4
902,1	7,6
902,5	10,857
902,9	13,886
903,4	13,6
903,8	15,714
904,2	15,686
904,6	17,971
905,1	16,429
905,5	13,057
905,9	16
906,3	18,8
906,8	18,057
907,2	20,343
907,6	18,514
908	22,343
908,5	22,257
908,9	15,657
909,3	15,514
909,7	15,657
910,2	17,829
910,6	24,971
911	18,971
911,4	19,971
911,9	24,429
912,3	24,8
912,7	27,857
913,1	23,971
913,6	15,629
914	14,429
914,4	11,714
914,8	11,429
915,3	8,371
915,7	7,4
916,1	6,514
916,5	10,8
916,9	17,8
917,4	23,571
917,8	26
918,2	22,771
918,6	14,514
919,1	17,457
919,5	17,286
919,9	11,886
920,3	8,829
920,8	6,971
921,2	10,629
921,6	14,086
922	13,429
922,5	7,714
922,9	9,514
923,3	3,2
923,7	3,714
924,2	1,257
924,6	3,771
925	4,714
925,4	5,286
925,8	4,429
926,3	9,314
926,7	6,429
927,1	8,086
927,5	7,543
928	3,2
928,4	4,057
928,8	8,8
929,2	7,6
929,7	10,914
930,1	13,571
930,5	11,457
930,9	13,143
931,3	12,743
931,8	8,314
932,2	11,343
932,6	10,343
933	1,314
933,5	0,743
933,9	0,429
934,3	3,171
934,7	2,629
935,2	1,286
935,6	1,543
936	7,943
936,4	12,8
936,8	13,857
937,3	7,657
937,7	7,943
938,1	9,286
938,5	3,343
939	1,6
939,4	0,571
939,8	-2,543
940,2	3,771
940,6	7,543
941,1	6,514
941,5	17,4
941,9	14,314
942,3	12
942,8	15,514
943,2	14,229
943,6	8,829
944	7,714
944,4	2,857
944,9	3,6
945,3	4,343
945,7	0,343
946,1	-5,886
946,6	-7,514
947	-10,857
947,4	-12,286
947,8	-8,743
948,2	-10,286
948,7	-7,771
949,1	-3,343
949,5	1,4
949,9	3,257
950,3	3,314
950,8	1,314
951,2	3,057
951,6	1,914
952	6,914
952,5	2,229
952,9	4,086
953,3	2,943
953,7	4,2
954,1	5,2
954,6	7,771
955	5,743
955,4	7,457
955,8	11,686
956,2	14,543
956,7	16,086
957,1	11,029
957,5	9,429
957,9	9,886
958,3	9,429
958,8	4,714
959,2	5,257
959,6	7,686
960	9,657
960,5	15,057
960,9	17,114
961,3	17,686
961,7	18,029
962,1	13,771
962,6	13,429
963	16,4
963,4	10,686
963,8	6,457
964,2	6,571
964,7	5,343
965,1	9,114
965,5	9,029
965,9	6,543
966,3	10,257
966,8	10,029
967,2	12,457
967,6	10,829
968	8,686
968,4	6,057
968,9	7,543
969,3	6,971
969,7	4,657
970,1	4,971
970,5	7,143
971	5,286
971,4	1,343
971,8	4,829
972,2	2,171
972,6	2,371
973,1	-0,686
973,5	0,429
973,9	5,971
974,3	10,114
974,7	10,486
975,2	10,629
975,6	11,457
976	11,629
976,4	7,057
976,8	5,171
977,3	4,086
977,7	-2,914
978,1	-3,314
978,5	-3,514
978,9	-4,943
979,4	-3,314
979,8	-2,057
980,2	-2,857
980,6	-6,229
981	-4,057
981,5	-3,114
981,9	-3,114
982,3	0,571
982,7	-3,657
983,1	-4,457
983,6	2,429
984	1,029
984,4	2
984,8	3,857
985,2	-0,686
985,6	-0,657
986,1	2,743
986,5	1,914
986,9	-3,257
987,3	-1,371
987,7	-0,114
988,2	0,514
988,6	2,229
989	0,543
989,4	-1,086
989,8	4,714
990,3	2,2
990,7	-0,743
991,1	3,114
991,5	4,086
991,9	5,514
992,3	4,2
992,8	3,286
993,2	0,286
993,6	3,914
994	3,6
994,4	1,057
994,9	-0,343
995,3	3,286
995,7	0,371
996,1	2,057
996,5	0,314
996,9	-3,2
997,4	0,314
997,8	-2,714
998,2	-6,629
998,6	-11,114
999	-9,371
999,5	-10,457
999,9	-7,629
1000,3	-8,543
1000,7	-5,314
1001,1	-3,971
1001,5	1,171
1002	6,771
1002,4	9,429
1002,8	8,486
1003,2	8,714
1003,6	8,6
1004	11,114
1004,5	8,8
1004,9	5,143
1005,3	3,886
1005,7	4,486
1006,1	3,114
1006,6	3,657
1007	4,543
1007,4	6,486
1007,8	2,486
1008,2	-4,371
1008,6	-5,286
1009,1	-6,943
1009,5	-9,314
1009,9	-13,771
1010,3	-8,914
1010,7	-8,6
1011,1	-2,6
1011,6	-3,343
1012	0,429
1012,4	-0,371
1012,8	-3,286
1013,2	-0,514
1013,6	2,771
1014,1	5,171
1014,5	5,571
1014,9	2,829
1015,3	0,514
1015,7	5,914
1016,1	-1,143
1016,6	-3,2
1017	-3,486
1017,4	-3,429
1017,8	-2,171
1018,2	5,457
1018,6	-0,086
1019,1	-0,429
1019,5	3,714
1019,9	-4,171
1020,3	-1,829
1020,7	-2,114
1021,1	-5,486
1021,6	0,343
1022	4,514
1022,4	0,343
1022,8	10,114
1023,2	8,486
1023,6	10,286
1024,1	15,086
1024,5	16,743
1024,9	13,314
1025,3	12,343
1025,7	9,114
1026,1	12
1026,6	9,086
1027	5,886
1027,4	4,029
1027,8	4,657
1028,2	4,143
1028,6	7,543
1029	4
1029,5	10,657
1029,9	5,914
1030,3	4,886
1030,7	6,057
1031,1	7,086
1031,5	-0,4
1032	-0,514
1032,4	-7,086
1032,8	-2,143
1033,2	2
1033,6	-0,943
1034	0,229
1034,4	2,6
1034,9	6,286
1035,3	4,343
1035,7	6,714
1036,1	1,514
1036,5	0,914
1036,9	-0,629
1037,4	4,171
1037,8	-4,914
1038,2	-0,829
1038,6	-4,743
1039	-1,457
1039,4	6,686
1039,8	2,371
1040,3	0,286
1040,7	4,2
1041,1	2,8
1041,5	2,314
1041,9	1,286
1042,3	-4,371
1042,7	3,086
1043,2	3,857
1043,6	2,943
1044	2,057
1044,4	3,6
1044,8	4,171
1045,2	6,371
1045,6	4,257
1046,1	-0,886
1046,5	-0,343
1046,9	-4,286
1047,3	-4,286
1047,7	-4,314
1048,1	-6,886
1048,5	-5,829
1049	-0,343
1049,4	6,4
1049,8	9,514
1050,2	10,314
1050,6	11,743
1051	15,257
1051,4	11,343
1051,9	8,629
1052,3	9,143
1052,7	13,4
1053,1	9,486
1053,5	10,886
1053,9	3,943
1054,3	4,371
1054,8	12,771
1055,2	9,2
1055,6	10,171
1056	15,571
1056,4	10,143
1056,8	18,686
1057,2	20,143
1057,6	10,514
1058,1	6,886
1058,5	0,429
1058,9	2,486
1059,3	5,971
1059,7	2,771
1060,1	1,743
1060,5	0,571
1061	5,686
1061,4	8,543
1061,8	6,343
1062,2	2,829
1062,6	2,171
1063	6
1063,4	6,857
1063,8	4,943
1064,3	2,714
1064,7	6,857
1065,1	9,4
1065,5	8,514
1065,9	3,743
1066,3	1,714
1066,7	-0,743
1067,1	-2,371
1067,6	-6,8
1068	-8,629
1068,4	-9
1068,8	-5,371
1069,2	-2,229
1069,6	-2,2
1070	5,429
1070,4	3,2
1070,9	6,086
1071,3	7
1071,7	1,057
1072,1	1,629
1072,5	2,2
1072,9	-3,886
1073,3	-2,257
1073,7	-2,743
1074,2	-0,314
1074,6	6,771
1075	5,057
1075,4	4,143
1075,8	9,657
1076,2	8,086
1076,6	7,314
1077	2,714
1077,5	3,6
1077,9	1,771
1078,3	1,914
1078,7	-1,429
1079,1	-1,2
1079,5	-4,057
1079,9	-4
1080,3	-8,914
1080,7	-6,486
1081,2	-2,314
1081,6	-1,543
1082	-2,171
1082,4	4,886
1082,8	9,543
1083,2	13,114
1083,6	14,171
1084	11,943
1084,5	9,886
1084,9	5,457
1085,3	-0,286
1085,7	-2,571
1086,1	-4,714
1086,5	-5,829
1086,9	-2,657
1087,3	-1,143
1087,7	0,914
1088,2	1,171
1088,6	3,971
1089	3,229
1089,4	3,543
1089,8	0,771
1090,2	-0,571
1090,6	-0,057
1091	2,086
1091,4	-0,914
1091,9	0
1092,3	3,314
1092,7	1,743
1093,1	3,257
1093,5	6,743
1093,9	6,514
1094,3	11,8
1094,7	10,029
1095,1	7,114
1095,5	10,714
1096	8,743
1096,4	9,6
1096,8	16,257
1097,2	12,571
1097,6	17,486
1098	19,171
1098,4	19,686
1098,8	24,8
1099,2	26,686
1099,6	18,029
1100,1	14,686
1100,5	7,114
1100,9	6,514
1101,3	6,629
1101,7	1,314
1102,1	-4,229
1102,5	-1,714
1102,9	1,029
1103,3	7,343
1103,7	4,829
1104,2	2,057
1104,6	3,971
1105	2,486
1105,4	-0,914
1105,8	-2,857
1106,2	-4,829
1106,6	-3,371
1107	-3,314
1107,4	-4,967
1107,8	-1,84
1108,3	-0,25
