Data from Subt2_072.txt Node
Date: Sat Aug 26 16:35:24 MSK 2023
User: vat
Spectrometer: MAYP114033
Trigger mode: 0
Integration Time (sec): 1,000000E0
Scans to average: 5
Electric dark correction enabled: true
Nonlinearity correction enabled: false
Boxcar width: 3
XAxis mode: Wavelengths
Number of Pixels in Spectrum: 2068
>>>>>Begin Spectral Data<<<<<
199,4	-0,767
199,9	0,613
200,4	-0,733
200,8	-0,352
201,3	2,19
201,8	3,79
202,2	5,048
202,7	6,562
203,2	4,819
203,6	9,305
204,1	8,819
204,6	8,076
205	11,533
205,5	9,562
206	8,876
206,4	11,248
206,9	6,819
207,4	11,333
207,8	9,419
208,3	5,848
208,8	6,162
209,2	7,362
209,7	9,848
210,2	14,39
210,6	13,133
211,1	15,162
211,5	14,533
212	10,419
212,5	5,648
212,9	4,105
213,4	-0,781
213,9	-1,81
214,3	-0,752
214,8	2,048
215,3	7,59
215,7	7,533
216,2	8,162
216,7	9,733
217,1	5,505
217,6	5,105
218,1	6,733
218,5	8,276
219	14,99
219,5	11,619
219,9	13,248
220,4	14,619
220,9	14,419
221,3	10,962
221,8	6,99
222,3	3,419
222,7	0,933
223,2	0,305
223,6	-0,695
224,1	1,962
224,6	1,248
225	2,19
225,5	6,362
226	7,562
226,4	8,876
226,9	6,905
227,4	5,048
227,8	6,219
228,3	9,762
228,8	6,219
229,2	10,276
229,7	8,905
230,2	17,648
230,6	12,562
231,1	15,59
231,5	16,419
232	18,533
232,5	16,933
232,9	16,733
233,4	13,848
233,9	18,133
234,3	13,362
234,8	11,905
235,3	11,419
235,7	15,533
236,2	18,419
236,7	17,133
237,1	11,933
237,6	11,99
238,1	10,276
238,5	10,276
239	4,962
239,4	5,19
239,9	6,876
240,4	12,076
240,8	15,39
241,3	13,419
241,8	12,248
242,2	11,933
242,7	11,505
243,2	12,99
243,6	13,248
244,1	11,276
244,6	12,019
245	11,876
245,5	14,276
245,9	12,276
246,4	6,276
246,9	4,476
247,3	-0,81
247,8	0,876
248,3	0,59
248,7	5,276
249,2	-0,067
249,7	3,79
250,1	3,676
250,6	8,162
251	8,819
251,5	7,019
252	1,448
252,4	4,962
252,9	2,848
253,4	5,562
253,8	4,505
254,3	6,333
254,8	10,933
255,2	11,419
255,7	12,962
256,1	11,676
256,6	9,362
257,1	10,562
257,5	10,19
258	5,248
258,5	7,019
258,9	6,79
259,4	11,619
259,9	13,019
260,3	13,619
260,8	13,276
261,2	20,333
261,7	16,819
262,2	19,905
262,6	16,133
263,1	13,99
263,6	15,019
264	11,333
264,5	5,505
264,9	4,048
265,4	2,705
265,9	5,533
266,3	7,648
266,8	4,819
267,3	7,533
267,7	9,362
268,2	12,248
268,7	12,333
269,1	12,276
269,6	12,905
270	16,619
270,5	14,076
271	16,876
271,4	11,99
271,9	8,819
272,4	11,076
272,8	8,333
273,3	4,019
273,7	2,99
274,2	-1,295
274,7	3,419
275,1	-1,067
275,6	-2,067
276,1	-0,295
276,5	3,59
277	6,048
277,4	9,533
277,9	6,162
278,4	11,333
278,8	16,105
279,3	10,99
279,8	11,59
280,2	13,59
280,7	9,19
281,1	14,305
281,6	14,933
282,1	10,305
282,5	15,333
283	13,362
283,4	12,419
283,9	11,905
284,4	11,79
284,8	10,876
285,3	7,762
285,8	2,505
286,2	-2,124
286,7	-3,924
287,1	-2,81
287,6	-0,41
288,1	1,362
288,5	4,019
289	9,933
289,5	14,448
289,9	14,105
290,4	12,705
290,8	12,819
291,3	10,562
291,8	4,819
292,2	4,076
292,7	3,99
293,1	6,762
293,6	8,619
294,1	-1,01
294,5	4,905
295	7,648
295,5	12,162
295,9	15,276
296,4	14,362
296,8	12,99
297,3	19,876
297,8	19,133
298,2	20,562
298,7	12,305
299,1	13,933
299,6	13,333
300,1	15,19
300,5	17,305
301	17,076
301,5	16,676
301,9	19,505
302,4	13,219
302,8	14,648
303,3	16,076
303,8	9,162
304,2	4,962
304,7	5,733
305,1	5,619
305,6	5,419
306,1	5,705
306,5	2,876
307	5,39
307,4	2,476
307,9	0,562
308,4	0,905
308,8	5,848
309,3	3,162
309,8	11,619
310,2	10,162
310,7	20,762
311,1	20,676
311,6	20,419
312,1	21,105
312,5	23,162
313	14,848
313,4	16,276
313,9	12,99
314,4	12,19
314,8	13,59
315,3	11,305
315,7	10,648
316,2	8,219
316,7	11,048
317,1	9,076
317,6	11,133
318	14,419
318,5	14,676
319	15,219
319,4	22,59
319,9	19,962
320,3	21,248
320,8	18,162
321,3	13,962
321,7	13,448
322,2	14,419
322,6	8,562
323,1	10,733
323,6	8,476
324	13,19
324,5	11,733
324,9	12,676
325,4	14,819
325,9	22,705
326,3	21,99
326,8	23,076
327,2	24,019
327,7	27,276
328,2	27,048
328,6	24,676
329,1	15,848
329,5	17,676
330	19,019
330,5	13,362
330,9	12,876
331,4	4,448
331,8	5,676
332,3	10,99
332,8	7,619
333,2	5,162
333,7	8,619
334,1	9,248
334,6	20,476
335,1	18,705
335,5	17,248
336	17,362
336,4	14,619
336,9	17,848
337,4	15,619
337,8	10,305
338,3	8,962
338,7	8,819
339,2	15,219
339,7	15,39
340,1	14,933
340,6	14,048
341	17,619
341,5	19,876
342	16,905
342,4	12,762
342,9	12,848
343,3	10,762
343,8	15,905
344,2	15,933
344,7	14,076
345,2	13,99
345,6	14,619
346,1	16,248
346,5	18,076
347	14,676
347,5	9,133
347,9	7,648
348,4	10,648
348,8	12,648
349,3	10,733
349,8	12,133
350,2	13,905
350,7	16,133
351,1	19,876
351,6	24,39
352	28,219
352,5	35,619
353	40,848
353,4	45,762
353,9	58,59
354,3	70,648
354,8	80,248
355,3	91,962
355,7	109,362
356,2	123,476
356,6	148,219
357,1	166,79
357,5	188,962
358	224,133
358,5	256,619
358,9	299,362
359,4	349,476
359,8	402,962
360,3	468,99
360,8	539,619
361,2	616,219
361,7	700,39
362,1	794,562
362,6	895,876
363	1004,619
363,5	1117,476
364	1233,076
364,4	1349,876
364,9	1476,505
365,3	1593,419
365,8	1710,848
366,3	1815,962
366,7	1918,533
367,2	2007,562
367,6	2082,248
368,1	2134,248
368,5	2172,048
369	2188,39
369,5	2195,619
369,9	2174,905
370,4	2146,133
370,8	2096,219
371,3	2040,505
371,7	1968,419
372,2	1885,619
372,7	1785,133
373,1	1690,762
373,6	1587,79
374	1485,419
374,5	1384,476
374,9	1284,076
375,4	1190,79
375,9	1106,905
376,3	1020,076
376,8	944,619
377,2	877,19
377,7	803,533
378,2	737,248
378,6	680,19
379,1	626,048
379,5	578,419
380	532,39
380,4	487,105
380,9	450,19
381,4	416,79
381,8	380,933
382,3	350,619
382,7	318,99
383,2	292,476
383,6	268,505
384,1	248,962
384,6	229,076
385	213,333
385,5	193,162
385,9	186,533
386,4	176,676
386,8	168,59
387,3	159,562
387,7	154,419
388,2	142,848
388,7	139,762
389,1	129,533
389,6	117,162
390	111,19
390,5	101,219
390,9	98,105
391,4	98,505
391,9	92,933
392,3	86,048
392,8	85,962
393,2	76,448
393,7	77,19
394,1	72,705
394,6	64,39
395,1	64,99
395,5	65,248
396	60,133
396,4	60,962
396,9	61,99
397,3	56,133
397,8	57,905
398,2	51,019
398,7	46,362
399,2	44,648
399,6	48,533
400,1	37,79
400,5	42,762
401	45,105
401,4	51,962
401,9	54,19
402,4	57,333
402,8	51,476
403,3	54,505
403,7	53,933
404,2	52,876
404,6	47,362
405,1	41,505
405,5	38,076
406	39,676
406,5	42,305
406,9	36,276
407,4	34,505
407,8	36,19
408,3	41,048
408,7	48,162
409,2	48,476
409,6	49,562
410,1	58,133
410,6	63,648
411	63,362
411,5	66,533
411,9	61,505
412,4	64,362
412,8	67,248
413,3	63,305
413,7	62,048
414,2	68,648
414,7	72,39
415,1	77,619
415,6	82,219
416	85,105
416,5	90,79
416,9	89,562
417,4	90,562
417,8	90,162
418,3	93,848
418,8	88,276
419,2	89,762
419,7	90,219
420,1	92,905
420,6	91,448
421	93,133
421,5	92,219
421,9	95,676
422,4	92,248
422,8	89,305
423,3	91,533
423,8	96,876
424,2	95,705
424,7	96,248
425,1	99,619
425,6	103,705
426	107,648
426,5	107,305
426,9	103,876
427,4	105,59
427,9	98,819
428,3	99,733
428,8	100,162
429,2	94,619
429,7	93,619
430,1	93,733
430,6	92,248
431	97,59
431,5	94,19
431,9	92,19
432,4	98,705
432,8	101,248
433,3	101,533
433,8	103,305
434,2	103,105
434,7	102,333
435,1	104,905
435,6	109,219
436	110,333
436,5	116,048
436,9	117,362
437,4	122,276
437,8	126,962
438,3	134,276
438,8	131,876
439,2	138,762
439,7	138,448
440,1	145,133
440,6	152,362
441	157,819
441,5	159,162
441,9	170,133
442,4	175,59
442,8	186,962
443,3	191,076
443,7	195,905
444,2	206,248
444,7	212,99
445,1	218,848
445,6	225,562
446	232,048
446,5	245,99
446,9	255,905
447,4	260,19
447,8	269,362
448,3	277,99
448,7	287,476
449,2	293,705
449,6	299,448
450,1	311,39
450,6	329,848
451	341,705
451,5	350,076
451,9	365,048
452,4	380,762
452,8	396,505
453,3	407,648
453,7	414,162
454,2	424,99
454,6	445,133
455,1	448,219
455,5	463,448
456	478,219
456,4	495,819
456,9	513,819
457,3	536,876
457,8	549,505
458,3	573,39
458,7	596,305
459,2	613,333
459,6	629,676
460,1	648,933
460,5	665,562
461	685,648
461,4	710,248
461,9	724,59
462,3	750,19
462,8	772,59
463,2	795,448
463,7	818,219
464,1	844,533
464,6	864,705
465	890,933
465,5	915,933
466	940,476
466,4	963,819
466,9	985,048
467,3	1007,133
467,8	1036,276
468,2	1057,162
468,7	1078,79
469,1	1102,59
469,6	1131,305
470	1162,562
470,5	1192,19
470,9	1218,962
471,4	1245,819
471,8	1270,59
472,3	1292,019
472,7	1318,39
473,2	1333,962
473,6	1354,533
474,1	1372,019
474,5	1397,876
475	1426,419
475,4	1455,162
475,9	1481,219
476,4	1509,048
476,8	1535,562
477,3	1564,048
477,7	1591,362
478,2	1610,276
478,6	1636,962
479,1	1658,419
479,5	1685,733
480	1708,79
480,4	1727,933
480,9	1747,676
481,3	1769,19
481,8	1788,962
482,2	1808,476
482,7	1828,705
483,1	1848,705
483,6	1865,562
484	1882,248
484,5	1903,362
484,9	1923,59
485,4	1941,79
485,8	1955,305
486,3	1969,933
486,7	1990,333
487,2	2001,876
487,6	2015,019
488,1	2028,762
488,5	2039,933
489	2055,333
489,4	2066,99
489,9	2074,705
490,4	2098,048
490,8	2107,99
491,3	2117,076
491,7	2128,733
492,2	2144,505
492,6	2154,962
493,1	2170,762
493,5	2164,362
494	2174,219
494,4	2182,048
494,9	2188,048
495,3	2188,933
495,8	2197,019
496,2	2195,533
496,7	2206,276
497,1	2209,19
497,6	2208,676
498	2214,619
498,5	2216,79
498,9	2219,476
499,4	2226,562
499,8	2230,819
500,3	2236,876
500,7	2240,962
501,2	2243,362
501,6	2251,705
502,1	2255,733
502,5	2254,933
503	2262,819
503,4	2260,819
503,9	2266,79
504,3	2266,162
504,8	2263,905
505,2	2261,619
505,7	2267,733
506,1	2263,733
506,6	2263,133
507	2259,79
507,5	2261,448
507,9	2259,905
508,4	2263,276
508,8	2256,59
509,3	2258,048
509,7	2255,648
510,2	2254,448
510,6	2246,819
511,1	2253,448
511,5	2251,448
512	2255,962
512,4	2252,276
512,9	2255,39
513,3	2259,676
513,8	2265,59
514,2	2265,762
514,7	2262,276
515,1	2263,676
515,6	2263,048
516	2259,219
516,5	2256,048
516,9	2247,019
517,4	2239,733
517,8	2243,133
518,3	2239,905
518,7	2241,676
519,2	2248,39
519,6	2241,076
520,1	2247,219
520,5	2245,876
521	2246,276
521,4	2244,562
521,9	2242,048
522,3	2237,648
522,8	2245,533
523,2	2243,105
523,7	2246,39
524,1	2243,19
524,6	2240,562
525	2244,448
525,5	2246,419
525,9	2243,162
526,4	2243,333
526,8	2241,39
527,3	2241,476
527,7	2245,933
528,2	2241,133
528,6	2239,19
529,1	2242,99
529,5	2242,762
530	2246,505
530,4	2246,362
530,9	2245,105
531,3	2247,762
531,8	2250,905
532,2	2251,79
532,6	2258,905
533,1	2253,533
533,5	2257,648
534	2264,705
534,4	2266,19
534,9	2271,476
535,3	2277,448
535,8	2277,962
536,2	2281,962
536,7	2281,676
537,1	2279,848
537,6	2288,105
538	2288,762
538,5	2287,933
538,9	2288,762
539,4	2298,648
539,8	2298,048
540,3	2301,333
540,7	2298,59
541,2	2301,248
541,6	2304,905
542,1	2307,048
542,5	2305,533
543	2309,19
543,4	2319,076
543,9	2323,019
544,3	2322,648
544,8	2321,362
545,2	2328,076
545,7	2332,619
546,1	2341,048
546,5	2339,505
547	2340,648
547,4	2341,133
547,9	2347,676
548,3	2351,019
548,8	2349,905
549,2	2353,105
549,7	2357,39
550,1	2364,419
550,6	2368,876
551	2371,248
551,5	2376,333
551,9	2379,619
552,4	2383,419
552,8	2381,219
553,3	2383,19
553,7	2390,648
554,2	2393,39
554,6	2389,962
555,1	2393,705
555,5	2397,79
555,9	2401,076
556,4	2402,562
556,8	2405,162
557,3	2406,305
557,7	2412,133
558,2	2411,505
558,6	2416,219
559,1	2421,505
559,5	2421,219
560	2420,333
560,4	2427,99
560,9	2433,133
561,3	2439,019
561,8	2439,876
562,2	2438,905
562,7	2445,933
563,1	2449,276
563,6	2445,876
564	2443,448
564,4	2447,419
564,9	2444,562
565,3	2450,105
565,8	2448,648
566,2	2448,79
566,7	2447,419
567,1	2456,39
567,6	2458,533
568	2462,676
568,5	2463,676
568,9	2465,619
569,4	2466,076
569,8	2472,99
570,3	2468,162
570,7	2463,733
571,1	2460,933
571,6	2466,333
572	2467,19
572,5	2467,59
572,9	2472,105
573,4	2470,762
573,8	2471,219
574,3	2473,19
574,7	2465,562
575,2	2462,419
575,6	2466,905
576,1	2461,362
576,5	2460,333
576,9	2460,333
577,4	2456,076
577,8	2455,162
578,3	2454,419
578,7	2452,562
579,2	2453,505
579,6	2457,648
580,1	2456,619
580,5	2459,648
581	2460,162
581,4	2456,019
581,9	2449,705
582,3	2439,448
582,7	2432,79
583,2	2427,076
583,6	2421,762
584,1	2414,048
584,5	2419,648
585	2423,99
585,4	2424,105
585,9	2423,705
586,3	2421,448
586,8	2412,848
587,2	2409,019
587,6	2400,019
588,1	2394,476
588,5	2390,79
589	2381,448
589,4	2379,362
589,9	2376,99
590,3	2373,648
590,8	2367,648
591,2	2360,362
591,7	2354,219
592,1	2351,362
592,5	2348,648
593	2347,19
593,4	2340,305
593,9	2337,305
594,3	2330,762
594,8	2330,733
595,2	2330,705
595,7	2327,105
596,1	2324,448
596,6	2328,648
597	2328,876
597,4	2323,105
597,9	2313,705
598,3	2307,248
598,8	2298,419
599,2	2292,048
599,7	2287,933
600,1	2283,305
600,6	2280,905
601	2278,476
601,4	2272,848
601,9	2269,105
602,3	2266,476
602,8	2253,562
603,2	2243,733
603,7	2240,019
604,1	2236,99
604,6	2230,048
605	2227,19
605,4	2223,39
605,9	2224,762
606,3	2221,133
606,8	2211,219
607,2	2211,048
607,7	2207,619
608,1	2200,419
608,6	2194,105
609	2189,219
609,4	2182,048
609,9	2178,676
610,3	2162,505
610,8	2157,448
611,2	2149,99
611,7	2139,819
612,1	2131,99
612,6	2125,619
613	2118,419
613,4	2112,905
613,9	2100,705
614,3	2095,619
614,8	2088,162
615,2	2078,705
615,7	2076,819
616,1	2065,905
616,6	2062,133
617	2056,962
617,4	2045,533
617,9	2040,562
618,3	2029,419
618,8	2017,848
619,2	2014,562
619,7	2009,876
620,1	1999,705
620,5	1997,819
621	1987,648
621,4	1983,048
621,9	1970,933
622,3	1967,248
622,8	1950,99
623,2	1942,562
623,6	1930,962
624,1	1925,305
624,5	1918,505
625	1909,448
625,4	1899,705
625,9	1901,219
626,3	1897,019
626,8	1887,619
627,2	1876,333
627,6	1861,619
628,1	1856,333
628,5	1843,219
629	1833,648
629,4	1822,933
629,9	1817,676
630,3	1812,39
630,7	1814,79
631,2	1804,019
631,6	1798,705
632,1	1783,79
632,5	1778,962
633	1767,476
633,4	1755,562
633,8	1738,648
634,3	1731,419
634,7	1718,19
635,2	1712,79
635,6	1703,133
636,1	1697,19
636,5	1689,476
636,9	1682,19
637,4	1675,362
637,8	1671,162
638,3	1657,905
638,7	1649,733
639,2	1647,819
639,6	1641,876
640	1632,019
640,5	1625,962
640,9	1620,019
641,4	1614,076
641,8	1606,505
642,2	1597,533
642,7	1586,933
643,1	1585,505
643,6	1578,905
644	1568,419
644,5	1562,048
644,9	1549,848
645,3	1539,162
645,8	1534,248
646,2	1527,876
646,7	1516,59
647,1	1510,819
647,6	1501,448
648	1498,162
648,4	1488,219
648,9	1483,933
649,3	1471,276
649,8	1465,276
650,2	1455,59
650,6	1452,733
651,1	1448,048
651,5	1443,933
652	1435,562
652,4	1428,019
652,9	1423,733
653,3	1420,105
653,7	1408,476
654,2	1401,876
654,6	1391,19
655,1	1378,133
655,5	1372,505
655,9	1360,162
656,4	1350,762
656,8	1347,99
657,3	1331,048
657,7	1322,962
658,2	1318,762
658,6	1307,59
659	1298,79
659,5	1289,476
659,9	1279,676
660,4	1279,848
660,8	1276,448
661,2	1268,819
661,7	1264,162
662,1	1257,905
662,6	1251,676
663	1244,362
663,4	1234,305
663,9	1223,305
664,3	1217,905
664,8	1212,676
665,2	1207,505
665,6	1201,562
666,1	1191,305
666,5	1186,019
667	1174,219
667,4	1166,648
667,9	1156,619
668,3	1152,448
668,7	1146,505
669,2	1141,076
669,6	1134,133
670,1	1134,562
670,5	1124,362
670,9	1123,962
671,4	1112,905
671,8	1102,705
672,3	1097,39
672,7	1089,79
673,1	1081,705
673,6	1076,162
674	1064,505
674,5	1059,076
674,9	1056,819
675,3	1048,619
675,8	1045,448
676,2	1040,79
676,7	1037,533
677,1	1036,876
677,5	1028,362
678	1021,162
678,4	1013,848
678,9	1002,105
679,3	993,905
679,7	981,648
680,2	971,276
680,6	968,19
681,1	958,39
681,5	955,419
681,9	948,448
682,4	945,676
682,8	940,59
683,3	935,219
683,7	928,333
684,1	924,448
684,6	919,905
685	918,99
685,5	909,333
685,9	910,476
686,3	906,448
686,8	903,333
687,2	901,533
687,7	896,048
688,1	890,448
688,5	887,219
689	882,419
689,4	876,048
689,9	869,362
690,3	864,848
690,7	855,505
691,2	848,59
691,6	841,705
692	830,962
692,5	825,248
692,9	817,905
693,4	809,505
693,8	810,019
694,2	802,848
694,7	801,048
695,1	797,733
695,6	788,248
696	786,305
696,4	777,105
696,9	768,39
697,3	760,819
697,8	749,99
698,2	742,419
698,6	740,676
699,1	731,333
699,5	729,733
699,9	725,762
700,4	724,819
700,8	723,933
701,3	719,962
701,7	710,819
702,1	705,562
702,6	701,59
703	692,333
703,5	686,133
703,9	681,819
704,3	681,819
704,8	685,305
705,2	682,305
705,6	674,39
706,1	677,962
706,5	678,676
707	670,162
707,4	666,105
707,8	657,162
708,3	651,705
708,7	654,562
709,2	648,39
709,6	645,676
710	641,048
710,5	637,733
710,9	635,848
711,3	633,876
711,8	626,019
712,2	623,419
712,7	619,905
713,1	616,648
713,5	610,076
714	604,962
714,4	605,133
714,8	603,876
715,3	597,305
715,7	589,733
716,2	588,476
716,6	584,248
717	582,933
717,5	573,962
717,9	566,276
718,3	560,133
718,8	556,305
719,2	551,505
719,7	550,905
720,1	545,219
720,5	545,105
721	541,162
721,4	542,133
721,8	537,962
722,3	534,676
722,7	524,419
723,2	519,676
723,6	512,562
724	508,448
724,5	501,79
724,9	494,619
725,3	490,219
725,8	488,276
726,2	481,648
726,7	481,362
727,1	476,448
727,5	476,219
728	477,99
728,4	473,99
728,8	471,448
729,3	469,762
729,7	466,219
730,1	465,762
730,6	459,39
731	458,733
731,5	461,39
731,9	463,59
732,3	463,79
732,8	462,076
733,2	461,905
733,6	460,99
734,1	455,59
734,5	445,248
734,9	435,876
735,4	434,133
735,8	431,476
736,3	427,019
736,7	425,533
737,1	424,59
737,6	427,133
738	430,99
738,4	429,79
738,9	429,076
739,3	423,305
739,7	426,705
740,2	424,448
740,6	422,733
741,1	419,305
741,5	417,533
741,9	411,905
742,4	409,39
742,8	406,133
743,2	404,448
743,7	399,59
744,1	392,076
744,5	388,133
745	386,79
745,4	386,619
745,8	378,762
746,3	374,99
746,7	375,276
747,2	376,476
747,6	372,648
748	369,79
748,5	364,333
748,9	361,476
749,3	361,333
749,8	358,248
750,2	354,59
750,6	352,305
751,1	348,848
751,5	349,533
751,9	346,276
752,4	342,562
752,8	337,305
753,3	331,933
753,7	330,333
754,1	327,79
754,6	328,619
755	327,019
755,4	324,676
755,9	326,048
756,3	324,305
756,7	316,99
757,2	322,276
757,6	317,59
758	314,733
758,5	310,733
758,9	309,448
759,3	305,933
759,8	311,905
760,2	304,905
760,6	307,133
761,1	304,762
761,5	301,905
761,9	296,105
762,4	298,705
762,8	294,105
763,3	293,505
763,7	287,762
764,1	283,676
764,6	284,933
765	284,505
765,4	284,733
765,9	282,905
766,3	279,048
766,7	280,048
767,2	285,362
767,6	280,048
768	278,648
768,5	274,133
768,9	269,733
769,3	267,333
769,8	262,676
770,2	259,905
770,6	259,133
771,1	260,962
771,5	260,933
771,9	259,933
772,4	264,305
772,8	264,562
773,2	261,933
773,7	261,59
774,1	256,733
774,5	254,59
775	251,619
775,4	244,219
775,8	243,305
776,3	235,705
776,7	237,219
777,1	239,79
777,6	237,933
778	240,733
778,4	242,19
778,9	240,248
779,3	245,105
779,7	240,619
780,2	231,99
780,6	234,762
781	231,505
781,5	231,162
781,9	229,076
782,3	226,362
782,8	220,933
783,2	223,448
783,6	215,076
784,1	214,733
784,5	210,133
784,9	209,59
785,4	210,762
785,8	207,562
786,2	203,962
786,7	204,219
787,1	204,905
787,5	205,676
788	204,133
788,4	195,59
788,8	198,276
789,3	198,19
789,7	195,362
790,1	191,705
790,6	189,762
791	187,533
791,4	190,448
791,9	191,619
792,3	190,876
792,7	198,648
793,2	198,019
793,6	195,905
794	193,819
794,5	193,676
794,9	191,048
795,3	192,133
795,8	185,162
796,2	184,762
796,6	180,962
797,1	177,448
797,5	174,619
797,9	173,79
798,4	169,676
798,8	167,848
799,2	166,19
799,7	169,419
800,1	170,305
800,5	168,505
801	166,448
801,4	159,105
801,8	157,219
802,2	155,019
802,7	150,533
803,1	145,762
803,5	144,733
804	142,448
804,4	147,733
804,8	147,248
805,3	145,562
805,7	147,505
806,1	151,819
806,6	154,248
807	156,705
807,4	153,505
807,9	154,219
808,3	151,562
808,7	151,305
809,2	151,619
809,6	150,076
810	146,133
810,4	149,505
810,9	144,876
811,3	143,99
811,7	139,619
812,2	139,762
812,6	136,876
813	136,619
813,5	133,39
813,9	135,105
814,3	136,419
814,8	135,505
815,2	128,162
815,6	125,048
816,1	126,905
816,5	121,048
816,9	118,933
817,3	115,162
817,8	119,819
818,2	117,562
818,6	120,505
819,1	120,276
819,5	121,562
819,9	119,99
820,4	119,848
820,8	111,533
821,2	118,476
821,7	116,419
822,1	112,848
822,5	117,79
822,9	117,876
823,4	119,476
823,8	121,676
824,2	115,876
824,7	114,419
825,1	113,333
825,5	112,59
826	112,476
826,4	109,562
826,8	109,619
827,3	112,962
827,7	115,533
828,1	115,59
828,5	112,933
829	109,562
829,4	108,99
829,8	103,248
830,3	100,219
830,7	94,505
831,1	92,39
831,6	88,476
832	86,219
832,4	86,448
832,8	91,305
833,3	87,076
833,7	92,676
834,1	92,076
834,6	90,562
835	95,648
835,4	97,619
835,8	90,99
836,3	90,819
836,7	85,59
837,1	82,105
837,6	83,676
838	79,676
838,4	70,848
838,9	77,933
839,3	82,076
839,7	80,276
840,1	81,762
840,6	84,076
841	83,162
841,4	88,733
841,9	81,562
842,3	77,705
842,7	78,19
843,1	78,048
843,6	76,276
844	78,419
844,4	79,105
844,9	80,076
845,3	79,733
845,7	82,019
846,2	82,905
846,6	79,562
847	77,419
847,4	75,419
847,9	77,505
848,3	78,733
848,7	75,962
849,2	76,333
849,6	76,305
850	75,19
850,4	74,59
850,9	72,39
851,3	70,333
851,7	66,648
852,2	60,105
852,6	62,733
853	66,133
853,4	68,248
853,9	65,105
854,3	62,876
854,7	62,733
855,2	67,276
855,6	64,19
856	57,39
856,4	53,362
856,9	50,419
857,3	50,59
857,7	57,248
858,2	54,419
858,6	57,533
859	56,39
859,4	56,219
859,9	59,819
860,3	63,076
860,7	59,962
861,1	63,648
861,6	61,876
862	64,505
862,4	67,219
862,9	68,048
863,3	64,79
863,7	62,276
864,1	56,762
864,6	55,219
865	53,39
865,4	49,248
865,9	46,448
866,3	49,362
866,7	49,876
867,1	56,505
867,6	55,962
868	54,819
868,4	54,648
868,8	55,705
869,3	54,19
869,7	51,076
870,1	48,762
870,6	40,133
871	89,876
871,4	88,733
871,8	88,619
872,3	89,476
872,7	87,933
873,1	89,59
873,5	99,19
874	53,133
874,4	50,419
874,8	48,476
875,3	40,933
875,7	41,619
876,1	37,076
876,5	35,962
877	32,162
877,4	33,276
877,8	35,419
878,2	38,362
878,7	42,99
879,1	45,362
879,5	47,248
879,9	51,133
880,4	51,705
880,8	50,59
881,2	53,162
881,7	51,705
882,1	45,648
882,5	43,676
882,9	42,448
883,4	44,733
883,8	44,39
884,2	43,562
884,6	44,105
885,1	45,99
885,5	44,39
885,9	46,305
886,3	44,562
886,8	45,133
887,2	42,705
887,6	39,905
888	40,39
888,5	40,362
888,9	36,962
889,3	31,362
889,8	29,619
890,2	29,648
890,6	29,39
891	26,648
891,5	24,162
891,9	24,105
892,3	27,105
892,7	28,419
893,2	28,133
893,6	26,333
894	27,819
894,4	30,333
894,9	26,39
895,3	27,076
895,7	23,39
896,1	25,905
896,6	26,476
897	27,533
897,4	23,248
897,8	25,19
898,3	28,248
898,7	30,99
899,1	27,733
899,5	27,99
900	28,133
900,4	29,105
900,8	31,848
901,2	27,305
901,7	26,762
902,1	28,676
902,5	32,219
902,9	30,505
903,4	35,305
903,8	30,762
904,2	35,762
904,6	34,819
905,1	35,848
905,5	28,676
905,9	30,076
906,3	25,048
906,8	28,819
907,2	22,476
907,6	26,019
908	25,076
908,5	28,99
908,9	30,048
909,3	28,505
909,7	24,79
910,2	23,905
910,6	21,533
911	21,19
911,4	19,448
911,9	21,848
912,3	19,619
912,7	21,248
913,1	21,819
913,6	22,476
914	21,076
914,4	19,648
914,8	13,562
915,3	19,848
915,7	16,705
916,1	19,076
916,5	19,362
916,9	18,962
917,4	21,276
917,8	20,048
918,2	15,133
918,6	19,076
919,1	20,362
919,5	20,133
919,9	22,419
920,3	19,905
920,8	24,133
921,2	30,619
921,6	29,248
922	27,705
922,5	24,648
922,9	22,99
923,3	26,848
923,7	21,762
924,2	12,19
924,6	12,248
925	10,762
925,4	11,448
925,8	10,019
926,3	9,533
926,7	10,219
927,1	14,99
927,5	15,79
928	13,99
928,4	11,562
928,8	18,79
929,2	18,962
929,7	17,848
930,1	15,533
930,5	9,819
930,9	17,505
931,3	18,019
931,8	11,076
932,2	7,533
932,6	9,99
933	9,19
933,5	12,048
933,9	5,59
934,3	5,933
934,7	10,105
935,2	11,562
935,6	12,248
936	10,876
936,4	11,819
936,8	11,733
937,3	16,648
937,7	13,705
938,1	11,733
938,5	10,505
939	16,533
939,4	18,419
939,8	19,676
940,2	17,076
940,6	15,19
941,1	16,762
941,5	18,762
941,9	19,333
942,3	15,39
942,8	15,162
943,2	11,133
943,6	13,933
944	12,048
944,4	6,562
944,9	3,076
945,3	7,79
945,7	7,076
946,1	9,962
946,6	8,276
947	10,105
947,4	14,962
947,8	17,533
948,2	15,562
948,7	18,019
949,1	13,076
949,5	14,19
949,9	15,562
950,3	14,99
950,8	13,819
951,2	14,533
951,6	13,733
952	15,933
952,5	13,276
952,9	8,333
953,3	4,39
953,7	7,676
954,1	5,676
954,6	5,505
955	10,076
955,4	10,448
955,8	18,762
956,2	19,848
956,7	20,59
957,1	17,79
957,5	18,933
957,9	13,933
958,3	16,305
958,8	14,076
959,2	16,076
959,6	11,19
960	14,248
960,5	12,162
960,9	14,076
961,3	13,248
961,7	6,905
962,1	9,705
962,6	8,905
963	6,619
963,4	8,648
963,8	10,362
964,2	7,019
964,7	10,99
965,1	9,762
965,5	10,676
965,9	11,333
966,3	8,99
966,8	7,39
967,2	10,133
967,6	9,848
968	6,419
968,4	11,019
968,9	15,505
969,3	18,733
969,7	19,276
970,1	19,619
970,5	21,733
971	20,648
971,4	17,79
971,8	14,619
972,2	15,505
972,6	17,762
973,1	17,362
973,5	17,648
973,9	19,362
974,3	14,333
974,7	12,79
975,2	8,362
975,6	0,762
976	2,019
976,4	-0,381
976,8	-2,867
977,3	0,59
977,7	2,59
978,1	4,619
978,5	10,333
978,9	5,048
979,4	4,019
979,8	8,79
980,2	4,905
980,6	4,676
981	6,59
981,5	7,248
981,9	11,705
982,3	8,59
982,7	6,276
983,1	14,476
983,6	14,705
984	13,648
984,4	15,819
984,8	12,476
985,2	16,133
985,6	17,505
986,1	15,619
986,5	8,133
986,9	3,076
987,3	1,962
987,7	4,962
988,2	5,448
988,6	4,648
989	1,762
989,4	12,562
989,8	16,019
990,3	15,476
990,7	13,819
991,1	8,276
991,5	11,248
991,9	15,933
992,3	13,505
992,8	16,048
993,2	16,79
993,6	17,99
994	21,99
994,4	17,019
994,9	14,819
995,3	13,819
995,7	7,99
996,1	3,733
996,5	2,362
996,9	3,79
997,4	4,962
997,8	3,79
998,2	6,533
998,6	11,962
999	12,219
999,5	12,905
999,9	12,705
1000,3	16,362
1000,7	15,276
1001,1	12,99
1001,5	8,476
1002	7,619
1002,4	6,133
1002,8	10,048
1003,2	6,219
1003,6	10,933
1004	11,448
1004,5	13,962
1004,9	13,333
1005,3	12,19
1005,7	7,705
1006,1	7,533
1006,6	5,076
1007	4,305
1007,4	5,39
1007,8	6,505
1008,2	5,276
1008,6	5,733
1009,1	4,59
1009,5	8,79
1009,9	12,505
1010,3	14,733
1010,7	20,19
1011,1	28,533
1011,6	26,362
1012	26,962
1012,4	22,962
1012,8	17,733
1013,2	15,19
1013,6	9,79
1014,1	6,076
1014,5	9,076
1014,9	12,419
1015,3	8,39
1015,7	8,476
1016,1	8,676
1016,6	13,562
1017	15,419
1017,4	12,333
1017,8	11,133
1018,2	12,59
1018,6	12,19
1019,1	7,562
1019,5	9,79
1019,9	9,19
1020,3	8,676
1020,7	12,305
1021,1	13,305
1021,6	15,419
1022	15,162
1022,4	14,305
1022,8	12,076
1023,2	17,562
1023,6	11,476
1024,1	15,019
1024,5	14,362
1024,9	19,619
1025,3	17,248
1025,7	16,333
1026,1	14,305
1026,6	17,79
1027	14,562
1027,4	11,933
1027,8	11,219
1028,2	11,648
1028,6	13,762
1029	12,219
1029,5	10,562
1029,9	12,676
1030,3	17,419
1030,7	16,362
1031,1	10,276
1031,5	8,048
1032	11,362
1032,4	8,505
1032,8	2,962
1033,2	1,676
1033,6	0,162
1034	0,562
1034,4	3,533
1034,9	-1,41
1035,3	5,162
1035,7	5,333
1036,1	3,876
1036,5	0,562
1036,9	0,733
1037,4	-0,638
1037,8	0,505
1038,2	-8,238
1038,6	-7,552
1039	-7,495
1039,4	-1,752
1039,8	-1,267
1040,3	-0,181
1040,7	-0,895
1041,1	7,248
1041,5	4,876
1041,9	2,419
1042,3	4,933
1042,7	7,762
1043,2	10,19
1043,6	17,79
1044	10,105
1044,4	8,333
1044,8	6,162
1045,2	3,676
1045,6	6,19
1046,1	2,876
1046,5	1,562
1046,9	4,819
1047,3	12,59
1047,7	17,219
1048,1	16,59
1048,5	11,762
1049	13,819
1049,4	6,933
1049,8	6,876
1050,2	4,276
1050,6	7,448
1051	10,648
1051,4	10,79
1051,9	10,648
1052,3	8,162
1052,7	10,733
1053,1	11,505
1053,5	10,848
1053,9	6,705
1054,3	3,819
1054,8	10,962
1055,2	15,933
1055,6	10,333
1056	8,333
1056,4	5,505
1056,8	6,733
1057,2	11,962
1057,6	2,448
1058,1	4,705
1058,5	6,19
1058,9	12,019
1059,3	17,619
1059,7	11,733
1060,1	8,733
1060,5	7,105
1061	3,105
1061,4	10,848
1061,8	7,562
1062,2	-0,467
1062,6	7,533
1063	7,876
1063,4	12,076
1063,8	11,562
1064,3	5,562
1064,7	1,162
1065,1	2,133
1065,5	3,133
1065,9	2,79
1066,3	-5,695
1066,7	-4,438
1067,1	-1,695
1067,6	3,962
1068	2,733
1068,4	-1,438
1068,8	1,219
1069,2	3,305
1069,6	2,962
1070	1,619
1070,4	0,705
1070,9	2,19
1071,3	1,733
1071,7	0,533
1072,1	6,162
1072,5	9,962
1072,9	16,162
1073,3	14,99
1073,7	17,59
1074,2	23,276
1074,6	24,819
1075	24,419
1075,4	23,248
1075,8	19,305
1076,2	19,048
1076,6	20,076
1077	15,562
1077,5	19,476
1077,9	21,105
1078,3	21,448
1078,7	16,705
1079,1	22,99
1079,5	17,505
1079,9	21,99
1080,3	17,305
1080,7	14,019
1081,2	14,933
1081,6	17,019
1082	11,676
1082,4	14,448
1082,8	10,79
1083,2	8,105
1083,6	11,533
1084	7,819
1084,5	5,305
1084,9	4,305
1085,3	5,476
1085,7	0,819
1086,1	0,962
1086,5	4,962
1086,9	6,448
1087,3	11,505
1087,7	12,505
1088,2	10,133
1088,6	13,105
1089	13,848
1089,4	4,705
1089,8	8,562
1090,2	8,533
1090,6	5,219
1091	10,648
1091,4	11,705
1091,9	14,305
1092,3	15,133
1092,7	9,39
1093,1	6,79
1093,5	6,59
1093,9	4,048
1094,3	2,248
1094,7	2,39
1095,1	1,248
1095,5	4,419
1096	1,848
1096,4	7,876
1096,8	4,876
1097,2	5,305
1097,6	1,848
1098	6,162
1098,4	6,133
1098,8	11,848
1099,2	7,705
1099,6	11,419
1100,1	13,562
1100,5	17,248
1100,9	14,619
1101,3	14,619
1101,7	13,733
1102,1	12,762
1102,5	9,476
1102,9	5,962
1103,3	3,962
1103,7	4,019
1104,2	4,362
1104,6	3,105
1105	4,933
1105,4	6,39
1105,8	7,819
1106,2	7,505
1106,6	6,305
1107	3,248
1107,4	1,633
1107,8	0,573
1108,3	-0,317
