Data from Subt2_222.txt Node
Date: Sat Aug 26 18:50:33 MSK 2023
User: vat
Spectrometer: MAYP114033
Trigger mode: 0
Integration Time (sec): 1,000000E0
Scans to average: 5
Electric dark correction enabled: true
Nonlinearity correction enabled: false
Boxcar width: 3
XAxis mode: Wavelengths
Number of Pixels in Spectrum: 2068
>>>>>Begin Spectral Data<<<<<
199,4	-0,15
199,9	-2,38
200,4	-2,367
200,8	-0,614
201,3	-2,643
201,8	-2,329
202,2	-5,1
202,7	-1,7
203,2	0,586
203,6	-1,243
204,1	-1,357
204,6	0,157
205	3,7
205,5	3,443
206	2,5
206,4	1,671
206,9	1,643
207,4	-0,186
207,8	-0,471
208,3	-2,929
208,8	1,843
209,2	-0,957
209,7	-0,529
210,2	0,871
210,6	5,586
211,1	10,814
211,5	7,357
212	6,729
212,5	9,043
212,9	7,871
213,4	8,729
213,9	5,986
214,3	4,214
214,8	9,243
215,3	3,843
215,7	6,929
216,2	12,329
216,7	14,3
217,1	12,043
217,6	12,643
218,1	10,214
218,5	12,5
219	3,014
219,5	-2,471
219,9	-7,729
220,4	0,071
220,9	-3,129
221,3	-0,814
221,8	1,386
222,3	6,043
222,7	9,071
223,2	11,986
223,6	7,557
224,1	6,529
224,6	5,957
225	5,9
225,5	7,557
226	7,757
226,4	7,729
226,9	9,643
227,4	11,814
227,8	6,1
228,3	5,3
228,8	5,329
229,2	4,014
229,7	7,7
230,2	4,586
230,6	6,586
231,1	15,186
231,5	15,043
232	14,843
232,5	16,814
232,9	14,071
233,4	19,071
233,9	15,043
234,3	10,5
234,8	14,329
235,3	14,386
235,7	13,614
236,2	13,757
236,7	8,443
237,1	11,671
237,6	10,957
238,1	6,957
238,5	1,843
239	2,643
239,4	4,757
239,9	4,786
240,4	3,271
240,8	8,1
241,3	7,986
241,8	11,471
242,2	8,243
242,7	5,957
243,2	5,157
243,6	3,214
244,1	2,529
244,6	7,671
245	8,614
245,5	7,243
245,9	6,529
246,4	6,043
246,9	3,243
247,3	2,9
247,8	0,3
248,3	2,9
248,7	7,414
249,2	8,643
249,7	7,7
250,1	13,471
250,6	7,243
251	4,643
251,5	1,386
252	-0,043
252,4	1,157
252,9	0,243
253,4	-2,643
253,8	-0,671
254,3	0,271
254,8	-0,386
255,2	-3,357
255,7	-4,557
256,1	-2,586
256,6	-1,214
257,1	4,843
257,5	0,443
258	-0,5
258,5	0,071
258,9	-2,243
259,4	-5,957
259,9	-6,443
260,3	-12,9
260,8	-12,357
261,2	-12,3
261,7	-10,043
262,2	-9,071
262,6	-6,729
263,1	-3,9
263,6	-1,929
264	6,871
264,5	12,386
264,9	12,614
265,4	14,043
265,9	12,871
266,3	14,071
266,8	16,986
267,3	10,329
267,7	7,214
268,2	8,414
268,7	11,9
269,1	15,5
269,6	7,757
270	10,7
270,5	9,071
271	10,271
271,4	8,129
271,9	2,643
272,4	3,529
272,8	9,071
273,3	2,214
273,7	6,3
274,2	4,129
274,7	2,929
275,1	6,243
275,6	8,757
276,1	5,043
276,5	7,871
277	6,814
277,4	8,014
277,9	14,243
278,4	13,529
278,8	10,586
279,3	15,614
279,8	16,357
280,2	19,071
280,7	21,871
281,1	16,243
281,6	15,043
282,1	15,557
282,5	9,871
283	7,557
283,4	6,186
283,9	2,9
284,4	5,786
284,8	5,957
285,3	3,786
285,8	11,843
286,2	9,414
286,7	9,271
287,1	7,271
287,6	2,357
288,1	-0,9
288,5	3,443
289	-1,329
289,5	1,729
289,9	0,357
290,4	4,471
290,8	8,357
291,3	8,186
291,8	7,3
292,2	11,186
292,7	16,357
293,1	13,186
293,6	13,043
294,1	12,586
294,5	14,729
295	14,986
295,5	10,1
295,9	8,386
296,4	10,043
296,8	5,443
297,3	6,1
297,8	2,5
298,2	-4,043
298,7	-2,529
299,1	-5,1
299,6	-5,386
300,1	0,329
300,5	-0,957
301	5,071
301,5	12,529
301,9	12,386
302,4	10,3
302,8	12,043
303,3	10,7
303,8	5,957
304,2	2,871
304,7	0,243
305,1	-3,843
305,6	-3,271
306,1	3,5
306,5	3,757
307	14,157
307,4	16,9
307,9	13,529
308,4	14,671
308,8	9,3
309,3	5,671
309,8	3,757
310,2	-2,186
310,7	-7,357
311,1	-0,671
311,6	4,271
312,1	11,357
312,5	9,443
313	9,7
313,4	11,129
313,9	15,729
314,4	10,757
314,8	4,614
315,3	4,986
315,7	4,014
316,2	2,414
316,7	0,471
317,1	7,043
317,6	7,786
318	10,871
318,5	5,871
319	6,386
319,4	9,1
319,9	14,986
320,3	6,643
320,8	9,643
321,3	11,214
321,7	16,843
322,2	16,214
322,6	15,786
323,1	14,9
323,6	14,214
324	12,757
324,5	8,986
324,9	10,386
325,4	7,157
325,9	10,671
326,3	8,043
326,8	11,586
327,2	5,986
327,7	6,871
328,2	1,871
328,6	9,271
329,1	1,757
329,5	-0,929
330	-3,9
330,5	0,157
330,9	5,7
331,4	8,3
331,8	4,1
332,3	7,243
332,8	9,557
333,2	10,214
333,7	13,643
334,1	12,7
334,6	9,357
335,1	6,757
335,5	6,814
336	5,614
336,4	9,986
336,9	13,9
337,4	12,786
337,8	14,043
338,3	19,186
338,7	20,643
339,2	17,043
339,7	15,557
340,1	6,643
340,6	5,157
341	3,414
341,5	0,614
342	-3,9
342,4	-4,3
342,9	-2,386
343,3	1,614
343,8	4,5
344,2	6,471
344,7	11,357
345,2	10,843
345,6	13,1
346,1	11,271
346,5	6,871
347	2,7
347,5	3,843
347,9	3,414
348,4	9,671
348,8	13,043
349,3	8,614
349,8	15,529
350,2	23,9
350,7	23,043
351,1	24,814
351,6	28,014
352	31,471
352,5	36,586
353	39,843
353,4	40,329
353,9	52,1
354,3	65,243
354,8	74,471
355,3	94,643
355,7	115,871
356,2	136,386
356,6	163,671
357,1	197,786
357,5	232,871
358	275,929
358,5	316,471
358,9	370,586
359,4	432,243
359,8	498,786
360,3	571,671
360,8	644,5
361,2	734,786
361,7	839,529
362,1	951,243
362,6	1074,043
363	1205,929
363,5	1338,443
364	1491,529
364,4	1640,471
364,9	1787,7
365,3	1933,014
365,8	2074,9
366,3	2204,414
366,7	2322,757
367,2	2431,757
367,6	2516,986
368,1	2590,7
368,5	2634,1
369	2655,329
369,5	2664,071
369,9	2649,757
370,4	2602,071
370,8	2547,271
371,3	2467,871
371,7	2381,529
372,2	2282,329
372,7	2169,186
373,1	2055,9
373,6	1936,5
374	1821,071
374,5	1703,643
374,9	1588,471
375,4	1472,471
375,9	1361,986
376,3	1254,786
376,8	1156,043
377,2	1057,871
377,7	967,014
378,2	888,071
378,6	813,5
379,1	744,186
379,5	685,157
380	633,014
380,4	582,3
380,9	534,186
381,4	489,386
381,8	453,7
382,3	424,043
382,7	389,786
383,2	359,871
383,6	333,671
384,1	314,871
384,6	294,529
385	273,786
385,5	253,157
385,9	233,7
386,4	216,9
386,8	202,786
387,3	184,557
387,7	171,529
388,2	156,443
388,7	144,7
389,1	138,1
389,6	127,957
390	118,071
390,5	113,814
390,9	106,814
391,4	103,329
391,9	96,9
392,3	88,014
392,8	78,929
393,2	70,843
393,7	64,557
394,1	58,757
394,6	54,471
395,1	54,329
395,5	53,357
396	52,243
396,4	53,271
396,9	51,671
397,3	52,786
397,8	48,643
398,2	43,071
398,7	43,129
399,2	43,1
399,6	42,9
400,1	37,529
400,5	32,1
401	35,129
401,4	29,186
401,9	31,614
402,4	33,871
402,8	27,957
403,3	33,5
403,7	33,529
404,2	33,271
404,6	43,5
405,1	35,614
405,5	35,214
406	37,414
406,5	34,614
406,9	37,814
407,4	36,5
407,8	35,071
408,3	40,414
408,7	40,329
409,2	48,043
409,6	52,7
410,1	53,843
410,6	58,786
411	57,843
411,5	59,243
411,9	63,586
412,4	64,329
412,8	67,1
413,3	69,786
413,7	66,529
414,2	68,643
414,7	76,957
415,1	82,671
415,6	83,129
416	84,157
416,5	86,557
416,9	94,871
417,4	101,643
417,8	105,643
418,3	106,186
418,8	108,529
419,2	111,7
419,7	116,043
420,1	114,729
420,6	114,7
421	111,214
421,5	114,043
421,9	117,643
422,4	116,9
422,8	113,557
423,3	113,471
423,8	111,471
424,2	107,014
424,7	104,843
425,1	101,529
425,6	104,471
426	104,414
426,5	108,243
426,9	110,986
427,4	114,843
427,9	111,243
428,3	114,357
428,8	111,214
429,2	108,957
429,7	104,3
430,1	103,586
430,6	98,9
431	99,386
431,5	100,986
431,9	99,7
432,4	103,786
432,8	111,614
433,3	111,214
433,8	117,071
434,2	123,214
434,7	122,1
435,1	126,386
435,6	128,157
436	126,586
436,5	132,986
436,9	132,729
437,4	132,271
437,8	136,186
438,3	138,243
438,8	142,929
439,2	148,214
439,7	151,843
440,1	157,243
440,6	163,1
441	164,786
441,5	169,443
441,9	176,557
442,4	173,043
442,8	173,557
443,3	178,586
443,7	185,843
444,2	193,871
444,7	201,014
445,1	205,643
445,6	216,357
446	224,443
446,5	227,329
446,9	225,271
447,4	230,557
447,8	240,814
448,3	249,729
448,7	260,471
449,2	275,386
449,6	287,471
450,1	299,7
450,6	310,7
451	317,614
451,5	324,7
451,9	335,757
452,4	344,014
452,8	354,443
453,3	368,614
453,7	371,671
454,2	385,643
454,6	397,043
455,1	404,614
455,5	411,243
456	424,643
456,4	431,157
456,9	448,5
457,3	455,5
457,8	462,557
458,3	477,414
458,7	486,5
459,2	495,786
459,6	506,3
460,1	520,814
460,5	529,214
461	544,814
461,4	550,929
461,9	560,957
462,3	577,557
462,8	594,957
463,2	600,929
463,7	621,586
464,1	637,7
464,6	657,014
465	675,957
465,5	688,186
466	700,186
466,4	716,814
466,9	726,386
467,3	742,929
467,8	760,1
468,2	778,1
468,7	795,214
469,1	815,871
469,6	835,043
470	852,071
470,5	860,243
470,9	870,129
471,4	878,814
471,8	889,986
472,3	904,043
472,7	913,243
473,2	921,614
473,6	933,871
474,1	947,929
474,5	962,529
475	975,643
475,4	985,271
475,9	999,5
476,4	1015,929
476,8	1032,729
477,3	1044,043
477,7	1057,843
478,2	1071,757
478,6	1083,271
479,1	1091,471
479,5	1092,757
480	1097,729
480,4	1108,357
480,9	1116,757
481,3	1123,214
481,8	1133,1
482,2	1140,957
482,7	1162,329
483,1	1170,814
483,6	1178,243
484	1180,586
484,5	1185,1
484,9	1187,986
485,4	1196,529
485,8	1190,271
486,3	1193,014
486,7	1198,957
487,2	1205,643
487,6	1207,843
488,1	1202,557
488,5	1197,1
489	1205,5
489,4	1212,843
489,9	1206,871
490,4	1209,071
490,8	1208,757
491,3	1218,5
491,7	1220,786
492,2	1219,157
492,6	1216,214
493,1	1214,786
493,5	1205,757
494	1201,186
494,4	1194,786
494,9	1191,414
495,3	1191,3
495,8	1185,957
496,2	1185,243
496,7	1180,043
497,1	1182,243
497,6	1180,871
498	1178,043
498,5	1171,071
498,9	1163,929
499,4	1159,043
499,8	1164,014
500,3	1154,271
500,7	1140,929
501,2	1130,729
501,6	1119,557
502,1	1115,186
502,5	1104,443
503	1093,529
503,4	1081,443
503,9	1073,643
504,3	1069,671
504,8	1064,386
505,2	1050,757
505,7	1039,471
506,1	1034,9
506,6	1028,157
507	1018,871
507,5	1011,1
507,9	996,843
508,4	987,586
508,8	979,043
509,3	960,214
509,7	950,5
510,2	944,957
510,6	928,643
511,1	919,557
511,5	911,757
512	904,157
512,4	898,757
512,9	894,014
513,3	885,529
513,8	876,814
514,2	871,471
514,7	863,186
515,1	848,871
515,6	833,929
516	819,586
516,5	810,357
516,9	802,157
517,4	793,986
517,8	785,271
518,3	781,786
518,7	774,729
519,2	769,271
519,6	756,386
520,1	750,614
520,5	740,271
521	730,843
521,4	721,757
521,9	712,814
522,3	702,5
522,8	692,871
523,2	681,957
523,7	669,729
524,1	661,157
524,6	648,1
525	640,529
525,5	628,071
525,9	623,757
526,4	615,871
526,8	607,843
527,3	604,271
527,7	599,671
528,2	593,729
528,6	586,357
529,1	579,529
529,5	577,471
530	572,329
530,4	565,1
530,9	557,386
531,3	551,529
531,8	546,671
532,2	536,443
532,6	525,243
533,1	517,271
533,5	509,786
534	502,014
534,4	491,643
534,9	484,9
535,3	477,757
535,8	472,157
536,2	468,614
536,7	465,643
537,1	461,186
537,6	457,786
538	453,529
538,5	450,729
538,9	443,157
539,4	439,129
539,8	429,9
540,3	429,786
540,7	422,757
541,2	413,157
541,6	407,043
542,1	406,357
542,5	400,271
543	390,1
543,4	380,814
543,9	378,814
544,3	378,586
544,8	375,214
545,2	370,557
545,7	367,214
546,1	368,243
546,5	367,129
547	359,214
547,4	354,586
547,9	349,757
548,3	345,557
548,8	343,014
549,2	338,843
549,7	339,871
550,1	341,3
550,6	342,071
551	341,671
551,5	335,929
551,9	331,814
552,4	326,5
552,8	318,043
553,3	313,043
553,7	302,729
554,2	302,871
554,6	301,529
555,1	301,043
555,5	297,5
555,9	294,414
556,4	291,186
556,8	289,443
557,3	282,557
557,7	281,471
558,2	278,357
558,6	282,243
559,1	279,357
559,5	278,186
560	279,271
560,4	280,843
560,9	280,014
561,3	275,614
561,8	267,157
562,2	265,5
562,7	264,1
563,1	265,471
563,6	262,9
564	260,214
564,4	257,643
564,9	257,729
565,3	257,871
565,8	255,414
566,2	253,671
566,7	250,414
567,1	250,271
567,6	250,129
568	247,7
568,5	244,957
568,9	244,529
569,4	241,757
569,8	239,7
570,3	235,014
570,7	227,443
571,1	230,757
571,6	229,929
572	229,1
572,5	227,357
572,9	225,043
573,4	225,529
573,8	228,386
574,3	223,786
574,7	219,443
575,2	214,957
575,6	210,443
576,1	210,043
576,5	212,929
576,9	207,3
577,4	203,643
577,8	202,214
578,3	202,014
578,7	203,1
579,2	206,357
579,6	197,871
580,1	195,986
580,5	195,643
581	200,929
581,4	196,186
581,9	194,3
582,3	187,3
582,7	188,529
583,2	191,786
583,6	194,729
584,1	190,271
584,5	196,043
585	195,386
585,4	190,643
585,9	187,414
586,3	191,043
586,8	187,9
587,2	184,671
587,6	185,729
588,1	192,043
588,5	199,471
589	199,7
589,4	195,214
589,9	192,014
590,3	191,1
590,8	185,557
591,2	179,9
591,7	178,814
592,1	178,729
592,5	182,443
593	180,471
593,4	183,9
593,9	182,957
594,3	181,414
594,8	175,671
595,2	174,214
595,7	171,243
596,1	172,786
596,6	170,243
597	171,043
597,4	169,243
597,9	174,129
598,3	175,643
598,8	171,986
599,2	173,357
599,7	171,243
600,1	164,729
600,6	162,957
601	156,729
601,4	158,3
601,9	157,557
602,3	152,329
602,8	150,157
603,2	150,1
603,7	147,129
604,1	148,957
604,6	144,414
605	141,786
605,4	147,5
605,9	147,443
606,3	147,5
606,8	148,186
607,2	145,671
607,7	143,814
608,1	144,414
608,6	138,957
609	141,786
609,4	144,786
609,9	148,586
610,3	150,757
610,8	153,986
611,2	155,7
611,7	156,843
612,1	155,329
612,6	152,986
613	151,271
613,4	148,786
613,9	145,1
614,3	142,243
614,8	144,186
615,2	140,986
615,7	143,186
616,1	139,729
616,6	135,071
617	132,814
617,4	136,471
617,9	136,814
618,3	139,757
618,8	142,1
619,2	144,871
619,7	147,243
620,1	145,329
620,5	141,729
621	139,471
621,4	137,043
621,9	131,3
622,3	124,871
622,8	123,529
623,2	124,643
623,6	124,586
624,1	123,471
624,5	124,414
625	131,871
625,4	133,329
625,9	133,129
626,3	135,157
626,8	132,729
627,2	134,071
627,6	125,071
628,1	114,3
628,5	121,043
629	118,614
629,4	119,243
629,9	119,671
630,3	111,757
630,7	116,729
631,2	119,071
631,6	116,071
632,1	116,843
632,5	113,386
633	113,757
633,4	116,1
633,8	115,957
634,3	119,814
634,7	116,157
635,2	113,843
635,6	115,3
636,1	113,7
636,5	113,3
636,9	107,7
637,4	100,957
637,8	95,871
638,3	94,5
638,7	90,871
639,2	89,043
639,6	88,243
640	89,014
640,5	93,243
640,9	93,529
641,4	99,129
641,8	101,3
642,2	101,929
642,7	107,929
643,1	112,214
643,6	112,5
644	117,186
644,5	116,7
644,9	117,071
645,3	119,929
645,8	108,929
646,2	110,557
646,7	104,529
647,1	101,5
647,6	102,329
648	102,471
648,4	94,986
648,9	100,614
649,3	98,643
649,8	101,9
650,2	101,614
650,6	96,271
651,1	89,529
651,5	95,614
652	94,986
652,4	87,471
652,9	84,757
653,3	86,614
653,7	87,186
654,2	87,786
654,6	81,814
655,1	82,414
655,5	91,729
655,9	89,043
656,4	85,643
656,8	84,357
657,3	85,929
657,7	90,357
658,2	89,1
658,6	84,1
659	85,643
659,5	84,129
659,9	84,043
660,4	86,386
660,8	78,643
661,2	76,471
661,7	77,214
662,1	75,786
662,6	79,957
663	80,871
663,4	77,7
663,9	83,814
664,3	81,214
664,8	74,529
665,2	72,643
665,6	65,929
666,1	61,443
666,5	64,071
667	62,3
667,4	62,443
667,9	67,671
668,3	70,386
668,7	72,986
669,2	77,443
669,6	74,529
670,1	72,5
670,5	70,3
670,9	66,929
671,4	64,5
671,8	64,957
672,3	64,757
672,7	66,843
673,1	62,329
673,6	67,043
674	71,586
674,5	72,3
674,9	66,871
675,3	65,957
675,8	65,871
676,2	71,357
676,7	68,1
677,1	65,157
677,5	61,186
678	65,014
678,4	63,471
678,9	58,986
679,3	57,986
679,7	57,329
680,2	52,014
680,6	56,643
681,1	57,329
681,5	61,529
681,9	64,643
682,4	66,986
682,8	71,043
683,3	77,843
683,7	78,443
684,1	76,957
684,6	67,729
685	67,786
685,5	64,843
685,9	58,357
686,3	53,014
686,8	52,957
687,2	56,614
687,7	60,157
688,1	53,129
688,5	50,043
689	50,414
689,4	51,471
689,9	49,1
690,3	44,243
690,7	42,986
691,2	47,129
691,6	49,129
692	50,5
692,5	55,329
692,9	55,214
693,4	58,5
693,8	58,729
694,2	56,214
694,7	56,757
695,1	56,5
695,6	55,1
696	56,586
696,4	56,014
696,9	57,386
697,3	56,529
697,8	52,129
698,2	51,443
698,6	50,871
699,1	48,471
699,5	49,186
699,9	46,957
700,4	46,929
700,8	49,614
701,3	54,5
701,7	51,386
702,1	49,329
702,6	48,586
703	50,986
703,5	51,529
703,9	48,986
704,3	44,529
704,8	43,9
705,2	44,986
705,6	40,7
706,1	38,443
706,5	37,243
707	44,243
707,4	44,786
707,8	42,9
708,3	47,3
708,7	48,271
709,2	49,043
709,6	47,929
710	47,443
710,5	42,1
710,9	45,071
711,3	39,3
711,8	41,186
712,2	39,7
712,7	43,529
713,1	38,7
713,5	48,9
714	46,957
714,4	45,243
714,8	47,071
715,3	47,443
715,7	49,786
716,2	50,1
716,6	46,957
717	44,329
717,5	46,157
717,9	45,1
718,3	43,729
718,8	37,729
719,2	39,586
719,7	37,786
720,1	41,614
720,5	44,957
721	41,529
721,4	42,843
721,8	50,271
722,3	44,957
722,7	47,843
723,2	44,5
723,6	37,929
724	38,271
724,5	38,014
724,9	31,3
725,3	32,757
725,8	25,729
726,2	27,671
726,7	30,214
727,1	29,157
727,5	29,786
728	31,271
728,4	33,214
728,8	33,986
729,3	32,014
729,7	31,529
730,1	31,757
730,6	29,643
731	26,529
731,5	25,443
731,9	25,243
732,3	27,243
732,8	31,9
733,2	32,357
733,6	33,871
734,1	35,043
734,5	35,186
734,9	40,271
735,4	41,3
735,8	33,757
736,3	34,529
736,7	32,843
737,1	34,643
737,6	33,614
738	31,871
738,4	28,7
738,9	32,443
739,3	30,929
739,7	29,614
740,2	25,643
740,6	30,814
741,1	33,757
741,5	33,357
741,9	32,586
742,4	37,586
742,8	39,729
743,2	40,9
743,7	34,871
744,1	24,929
744,5	23,414
745	22,557
745,4	17,186
745,8	18,329
746,3	19,357
746,7	16,471
747,2	22,1
747,6	27,443
748	31,614
748,5	30,929
748,9	27,414
749,3	27,271
749,8	29,7
750,2	32,186
750,6	30,786
751,1	30,014
751,5	31,443
751,9	37,586
752,4	39,843
752,8	42,243
753,3	37,957
753,7	40,271
754,1	34,586
754,6	31,043
755	24,329
755,4	20,929
755,9	18,929
756,3	18,9
756,7	15,243
757,2	16,329
757,6	21,129
758	23,386
758,5	26,5
758,9	30,3
759,3	33,757
759,8	32,386
760,2	35,1
760,6	32,957
761,1	30,643
761,5	31,471
761,9	27,186
762,4	24,5
762,8	26,957
763,3	24,843
763,7	23,986
764,1	28,271
764,6	23,214
765	24,243
765,4	27,671
765,9	25,957
766,3	26,614
766,7	23,786
767,2	19,043
767,6	26,957
768	28,443
768,5	23,9
768,9	20,757
769,3	19,786
769,8	22,814
770,2	26,9
770,6	19,3
771,1	20,529
771,5	22,3
771,9	25,157
772,4	30,357
772,8	28,843
773,2	26,757
773,7	28,071
774,1	27,614
774,5	20,329
775	20,986
775,4	19,386
775,8	15,014
776,3	15,129
776,7	14,529
777,1	12,757
777,6	23,243
778	26,129
778,4	20,7
778,9	25,986
779,3	23,386
779,7	24,929
780,2	25,9
780,6	22,271
781	16,871
781,5	20,271
781,9	22,9
782,3	24,729
782,8	26,986
783,2	23,529
783,6	29,529
784,1	29,243
784,5	29,071
784,9	25,814
785,4	27,957
785,8	27,529
786,2	29,843
786,7	25,386
787,1	23,814
787,5	23,157
788	24,729
788,4	23,9
788,8	20,414
789,3	19,071
789,7	19,557
790,1	22,071
790,6	21,471
791	19,071
791,4	22,357
791,9	19,871
792,3	17,243
792,7	18,5
793,2	15,9
793,6	14,329
794	17,329
794,5	12,757
794,9	20,329
795,3	24,5
795,8	19,271
796,2	21,386
796,6	27,586
797,1	20,757
797,5	19,471
797,9	12,586
798,4	9,1
798,8	8,929
799,2	9,929
799,7	6,014
800,1	9,5
800,5	10,929
801	14,986
801,4	13,471
801,8	9,5
802,2	13,157
802,7	7,843
803,1	8,814
803,5	11,671
804	5,214
804,4	7,014
804,8	11,7
805,3	10,957
805,7	14,957
806,1	14,186
806,6	13,643
807	20,414
807,4	22,014
807,9	17,1
808,3	15,814
808,7	17,757
809,2	24,7
809,6	25,929
810	20,557
810,4	22,329
810,9	25,043
811,3	25,729
811,7	25,957
812,2	27,471
812,6	24,414
813	30,329
813,5	31,329
813,9	31,157
814,3	28,729
814,8	24,529
815,2	18,386
815,6	17,871
816,1	16,471
816,5	15,329
816,9	16,1
817,3	16,9
817,8	24,129
818,2	24,414
818,6	19,129
819,1	18,614
819,5	18,1
819,9	20,671
820,4	19,9
820,8	13,929
821,2	10,1
821,7	14,786
822,1	15,729
822,5	17,643
822,9	14,529
823,4	10,586
823,8	14,3
824,2	15,9
824,7	13,929
825,1	7,929
825,5	1,5
826	1,614
826,4	4,986
826,8	2,643
827,3	4,757
827,7	4,386
828,1	7,471
828,5	7,843
829	6,3
829,4	5,986
829,8	4,357
830,3	2,271
830,7	1,329
831,1	3,871
831,6	3,643
832	5,1
832,4	4,071
832,8	8,043
833,3	9,5
833,7	11,071
834,1	10,443
834,6	12,7
835	14,986
835,4	19,1
835,8	13,929
836,3	10,671
836,7	14,043
837,1	10,357
837,6	13,786
838	11,357
838,4	7,843
838,9	11,614
839,3	11,643
839,7	9,786
840,1	7,586
840,6	5,043
841	7,729
841,4	9,071
841,9	7,357
842,3	7,443
842,7	3,957
843,1	6,557
843,6	10,329
844	9,957
844,4	15,386
844,9	18,157
845,3	22,1
845,7	21,786
846,2	19,786
846,6	14,814
847	13,643
847,4	8,786
847,9	9,557
848,3	7,1
848,7	11,9
849,2	12,786
849,6	13,071
850	17,386
850,4	20,071
850,9	18,186
851,3	16,9
851,7	15,786
852,2	14,986
852,6	17,014
853	17,671
853,4	11,7
853,9	9,443
854,3	12,471
854,7	14,671
855,2	16,9
855,6	13,014
856	7,271
856,4	5,814
856,9	5,586
857,3	6,129
857,7	6,786
858,2	10,014
858,6	13,5
859	15,357
859,4	18,929
859,9	14,986
860,3	10,786
860,7	8,357
861,1	4,471
861,6	1,5
862	2,414
862,4	0,014
862,9	4,814
863,3	7,843
863,7	9,214
864,1	14,786
864,6	13,357
865	10,071
865,4	13,986
865,9	15,614
866,3	13,586
866,7	11,186
867,1	4,843
867,6	6,757
868	6,529
868,4	2,7
868,8	0,929
869,3	1,614
869,7	4,329
870,1	2,071
870,6	0,271
871	-16,214
871,4	-13,557
871,8	-16,671
872,3	-16,786
872,7	-18,643
873,1	-11,471
873,5	-9,386
874	5,557
874,4	6,157
874,8	8,843
875,3	10,871
875,7	9,929
876,1	4,929
876,5	6,071
877	8,5
877,4	6,5
877,8	8,643
878,2	11,1
878,7	12,414
879,1	16,643
879,5	19,271
879,9	22,243
880,4	23,129
880,8	23,043
881,2	19,614
881,7	20,071
882,1	18,471
882,5	10,7
882,9	10,386
883,4	10,814
883,8	8,986
884,2	8,557
884,6	6,271
885,1	6,471
885,5	9,529
885,9	8,157
886,3	9,7
886,8	8,5
887,2	7,129
887,6	4,471
888	6,814
888,5	9,3
888,9	5,5
889,3	2,471
889,8	1,757
890,2	0,529
890,6	-0,043
891	-4,014
891,5	-6,843
891,9	-4,529
892,3	-2,786
892,7	0,786
893,2	2,414
893,6	5,729
894	8,643
894,4	6,071
894,9	7,871
895,3	6,929
895,7	7,871
896,1	7,214
896,6	6,671
897	5,614
897,4	14,014
897,8	15,814
898,3	17,186
898,7	13,843
899,1	16,929
899,5	13,957
900	9,157
900,4	6,414
900,8	0,757
901,2	-2,186
901,7	-0,871
902,1	-1,043
902,5	3,843
902,9	6,643
903,4	9,586
903,8	12,729
904,2	12,243
904,6	8,871
905,1	7,871
905,5	9,014
905,9	12,043
906,3	6,129
906,8	6,443
907,2	10,643
907,6	13,814
908	14,843
908,5	11,357
908,9	7,043
909,3	5,014
909,7	4,443
910,2	2,329
910,6	5,929
911	3,614
911,4	4,071
911,9	3,443
912,3	10,843
912,7	15,1
913,1	17,443
913,6	11,271
914	11,643
914,4	12,757
914,8	17,014
915,3	12,786
915,7	6,586
916,1	2,557
916,5	5,471
916,9	8,043
917,4	7,929
917,8	9,271
918,2	6,871
918,6	6,3
919,1	8,271
919,5	11,414
919,9	10,671
920,3	7,043
920,8	5,986
921,2	9,586
921,6	10,586
922	9,671
922,5	3,9
922,9	5,443
923,3	4,129
923,7	4,957
924,2	-1,014
924,6	1,529
925	6,1
925,4	8,357
925,8	7,1
926,3	8,157
926,7	4,7
927,1	4,614
927,5	3,386
928	-0,757
928,4	0,043
928,8	-2,014
929,2	-0,557
929,7	0,757
930,1	5,357
930,5	4,586
930,9	8,957
931,3	5,443
931,8	6,471
932,2	11,214
932,6	10,157
933	3,443
933,5	4,214
933,9	0,529
934,3	5,129
934,7	0,786
935,2	-3,129
935,6	-1,9
936	5,729
936,4	5,871
936,8	6,414
937,3	1,814
937,7	6,586
938,1	10,271
938,5	4,786
939	0,729
939,4	2,129
939,8	-1,1
940,2	-0,814
940,6	1,329
941,1	-1,1
941,5	4,243
941,9	3,9
942,3	2,986
942,8	8,271
943,2	12,9
943,6	9,9
944	8,871
944,4	9,014
944,9	10,729
945,3	8,5
945,7	3,557
946,1	0,757
946,6	-3,586
947	-4,129
947,4	-1,557
947,8	-1,443
948,2	-1,586
948,7	1,9
949,1	1,357
949,5	9,443
949,9	11,5
950,3	7,529
950,8	9,071
951,2	8,529
951,6	2,529
952	6,5
952,5	0,7
952,9	2,014
953,3	3,729
953,7	5,557
954,1	6,786
954,6	12,471
955	9,186
955,4	11,757
955,8	14,871
956,2	12,414
956,7	13,3
957,1	11,071
957,5	11,329
957,9	10,729
958,3	8,043
958,8	8,1
959,2	10,529
959,6	10,671
960	14,3
960,5	17,614
960,9	22,014
961,3	21,186
961,7	14,443
962,1	14,071
962,6	13,614
963	9,757
963,4	0,329
963,8	-4,757
964,2	-1,186
964,7	1,243
965,1	3,814
965,5	0,3
965,9	4,986
966,3	11,214
966,8	10,529
967,2	9,186
967,6	9,757
968	7,386
968,4	11,7
968,9	7,5
969,3	11,357
969,7	10,243
970,1	13,5
970,5	12,043
971	11,471
971,4	10,586
971,8	12,7
972,2	9,5
972,6	13,129
973,1	6,586
973,5	8,243
973,9	11,929
974,3	6,329
974,7	6,843
975,2	6,357
975,6	2,329
976	7,586
976,4	4,529
976,8	2,757
977,3	7,043
977,7	4,357
978,1	5,129
978,5	7,443
978,9	4,357
979,4	2,1
979,8	-0,129
980,2	1,3
980,6	0,471
981	4,471
981,5	4,414
981,9	5,586
982,3	7,414
982,7	8,271
983,1	3,386
983,6	4,014
984	-1,043
984,4	-0,386
984,8	1,643
985,2	4,414
985,6	5,614
986,1	7,357
986,5	10,529
986,9	4,814
987,3	5,357
987,7	0,157
988,2	-2,586
988,6	-1,529
989	0,243
989,4	-3,529
989,8	0,557
990,3	-2,414
990,7	-0,014
991,1	2,557
991,5	2,3
991,9	6,414
992,3	12,157
992,8	15,157
993,2	15,614
993,6	18,871
994	19,529
994,4	18,757
994,9	15,557
995,3	12,957
995,7	10,871
996,1	11,9
996,5	8,871
996,9	7,329
997,4	13,529
997,8	10,386
998,2	9,443
998,6	4,986
999	2,871
999,5	4,014
999,9	1,214
1000,3	-7,3
1000,7	-5,214
1001,1	-4,843
1001,5	2,729
1002	8,243
1002,4	10,5
1002,8	11,386
1003,2	13,271
1003,6	13,871
1004	15,671
1004,5	7,071
1004,9	4,443
1005,3	-1,386
1005,7	-0,243
1006,1	-3,071
1006,6	-5,329
1007	-5,043
1007,4	-1,557
1007,8	1,243
1008,2	2,414
1008,6	8,843
1009,1	11,643
1009,5	14,357
1009,9	14,357
1010,3	15,7
1010,7	11,157
1011,1	13,929
1011,6	8,271
1012	8,386
1012,4	5,729
1012,8	0,957
1013,2	2,786
1013,6	6,329
1014,1	5,614
1014,5	3,1
1014,9	3,043
1015,3	1,214
1015,7	5,9
1016,1	5,5
1016,6	0,871
1017	2,243
1017,4	4,157
1017,8	3,3
1018,2	6,729
1018,6	1,9
1019,1	-0,814
1019,5	1,814
1019,9	-4,843
1020,3	-3,9
1020,7	0,157
1021,1	2,814
1021,6	6,929
1022	9,614
1022,4	10,271
1022,8	16,986
1023,2	16,157
1023,6	11,386
1024,1	14,071
1024,5	11,7
1024,9	8,071
1025,3	10,157
1025,7	8,1
1026,1	8,843
1026,6	8,1
1027	1,843
1027,4	3,929
1027,8	6,071
1028,2	4,814
1028,6	7,671
1029	3,5
1029,5	9,957
1029,9	9,471
1030,3	6,7
1030,7	8,357
1031,1	8,614
1031,5	5,043
1032	7,357
1032,4	6,3
1032,8	8,357
1033,2	12,929
1033,6	10,271
1034	11,129
1034,4	8,843
1034,9	12,586
1035,3	4,814
1035,7	12,157
1036,1	6,386
1036,5	4,957
1036,9	2,871
1037,4	9,243
1037,8	3,814
1038,2	7,871
1038,6	-1,329
1039	7,443
1039,4	17,243
1039,8	12,557
1040,3	8,471
1040,7	12,529
1041,1	15,414
1041,5	18,843
1041,9	12,814
1042,3	3,214
1042,7	8,357
1043,2	12,271
1043,6	6,3
1044	2,186
1044,4	-0,9
1044,8	-0,129
1045,2	-0,443
1045,6	-1,3
1046,1	-8,014
1046,5	-3,757
1046,9	-0,871
1047,3	-3,557
1047,7	-2,243
1048,1	-2,614
1048,5	-1,471
1049	5,786
1049,4	10,443
1049,8	10,071
1050,2	14,357
1050,6	15,729
1051	19,586
1051,4	18,157
1051,9	14,386
1052,3	20,443
1052,7	18,529
1053,1	13,157
1053,5	14,3
1053,9	12,843
1054,3	14,757
1054,8	18,329
1055,2	11,986
1055,6	14,614
1056	18,929
1056,4	12,614
1056,8	12,757
1057,2	10,557
1057,6	7,7
1058,1	5,1
1058,5	1,643
1058,9	2,357
1059,3	8,443
1059,7	8,357
1060,1	9,729
1060,5	10,7
1061	12,386
1061,4	10,7
1061,8	11,443
1062,2	7,414
1062,6	9,614
1063	13,214
1063,4	12,786
1063,8	10,557
1064,3	11,786
1064,7	11,386
1065,1	12,271
1065,5	7,386
1065,9	2,129
1066,3	1,986
1066,7	2,043
1067,1	2,9
1067,6	4,071
1068	-0,5
1068,4	2,557
1068,8	6,271
1069,2	6,071
1069,6	5,986
1070	9,957
1070,4	5,357
1070,9	5,271
1071,3	5,3
1071,7	1,5
1072,1	1,271
1072,5	-4,843
1072,9	-6,129
1073,3	-1,329
1073,7	1,329
1074,2	2,586
1074,6	7,214
1075	3,043
1075,4	8,757
1075,8	6,471
1076,2	0,357
1076,6	1,843
1077	0,757
1077,5	0,814
1077,9	3,614
1078,3	3,786
1078,7	3,243
1079,1	6,414
1079,5	3,843
1079,9	3,329
1080,3	-0,1
1080,7	-3,157
1081,2	1,014
1081,6	-0,843
1082	0,014
1082,4	5,786
1082,8	4,271
1083,2	2,7
1083,6	8,129
1084	4,243
1084,5	4,929
1084,9	4,243
1085,3	-0,957
1085,7	1,414
1086,1	4,271
1086,5	2,1
1086,9	4,414
1087,3	5,129
1087,7	3,729
1088,2	3,357
1088,6	0,586
1089	3,871
1089,4	3,586
1089,8	-1,186
1090,2	-0,443
1090,6	-0,929
1091	1,157
1091,4	3,414
1091,9	1,557
1092,3	4,014
1092,7	4,071
1093,1	7,014
1093,5	8,786
1093,9	6,471
1094,3	9,529
1094,7	4,843
1095,1	5,443
1095,5	9,471
1096	5,386
1096,4	4,614
1096,8	6,757
1097,2	1,5
1097,6	6,929
1098	6,243
1098,4	8,271
1098,8	11,3
1099,2	17,729
1099,6	17,014
1100,1	15,557
1100,5	9,729
1100,9	6,329
1101,3	2,271
1101,7	-0,757
1102,1	-6,614
1102,5	-4,186
1102,9	1,214
1103,3	5,671
1103,7	8,586
1104,2	9,671
1104,6	11,643
1105	12,471
1105,4	13,071
1105,8	10,157
1106,2	7,3
1106,6	5,7
1107	4,243
1107,4	3,4
1107,8	3,1
1108,3	-0,8
