Data from Subt2_219.txt Node
Date: Sat Aug 26 18:49:33 MSK 2023
User: vat
Spectrometer: MAYP114033
Trigger mode: 0
Integration Time (sec): 1,000000E0
Scans to average: 5
Electric dark correction enabled: true
Nonlinearity correction enabled: false
Boxcar width: 3
XAxis mode: Wavelengths
Number of Pixels in Spectrum: 2068
>>>>>Begin Spectral Data<<<<<
199,4	-0,05
199,9	1,28
200,4	-0,4
200,8	-0,057
201,3	-1,886
201,8	-0,457
202,2	-0,857
202,7	2,571
203,2	0,686
203,6	-0,114
204,1	-0,029
204,6	-0,686
205	-0,829
205,5	-0,886
206	-2,857
206,4	-1,686
206,9	1
207,4	5,114
207,8	7,457
208,3	7,171
208,8	6,8
209,2	8,629
209,7	8,886
210,2	10,571
210,6	4,257
211,1	8,286
211,5	4,086
212	5,686
212,5	5,057
212,9	3,286
213,4	2,314
213,9	2,457
214,3	2,857
214,8	8,086
215,3	6,2
215,7	5,943
216,2	9,2
216,7	7,629
217,1	8,429
217,6	7,743
218,1	5,943
218,5	6,086
219	1,8
219,5	0,257
219,9	-0,686
220,4	9
220,9	4,857
221,3	6,914
221,8	8,686
222,3	13,714
222,7	17,029
223,2	19,257
223,6	8,686
224,1	8,429
224,6	6,571
225	6,4
225,5	2,229
226	1,086
226,4	1,2
226,9	3,971
227,4	4,543
227,8	0,314
228,3	-0,743
228,8	0,2
229,2	1,229
229,7	-2,629
230,2	-3,486
230,6	2,486
231,1	11,886
231,5	14,343
232	17,057
232,5	13,714
232,9	18,571
233,4	18,229
233,9	11,657
234,3	6,514
234,8	4,429
235,3	2,029
235,7	3,829
236,2	0,543
236,7	0,886
237,1	1,771
237,6	-2,743
238,1	-3,886
238,5	-7,943
239	-7,143
239,4	-2,314
239,9	-2,829
240,4	-0,943
240,8	3,171
241,3	-0,771
241,8	5,457
242,2	1,971
242,7	-1,171
243,2	0,743
243,6	-2,314
244,1	3,657
244,6	8,686
245	5,857
245,5	10,371
245,9	7,629
246,4	8,4
246,9	13,114
247,3	8,857
247,8	8,686
248,3	9,943
248,7	6,429
249,2	8,171
249,7	7,343
250,1	7,171
250,6	4,257
251	5,286
251,5	3,686
252	4,886
252,4	8,543
252,9	5,229
253,4	1,371
253,8	-0,6
254,3	-0,343
254,8	4,971
255,2	2,771
255,7	-0,514
256,1	0,8
256,6	2,229
257,1	7,229
257,5	1,229
258	-1,943
258,5	0,286
258,9	-1,8
259,4	-2,8
259,9	-0,743
260,3	-3,257
260,8	1,143
261,2	1,857
261,7	1,943
262,2	2,771
262,6	2,943
263,1	3,114
263,6	6,657
264	8,143
264,5	7,714
264,9	6,029
265,4	8,371
265,9	10,657
266,3	10,2
266,8	8,257
267,3	5,6
267,7	0,143
268,2	0,629
268,7	0,314
269,1	2,371
269,6	-0,543
270	-0,543
270,5	-1,886
271	0,971
271,4	-0,457
271,9	-3,229
272,4	-5
272,8	-4,057
273,3	-3,457
273,7	0,543
274,2	5,829
274,7	8,914
275,1	15,143
275,6	16,029
276,1	13,571
276,5	14,4
277	13,314
277,4	10,286
277,9	6,257
278,4	3,143
278,8	6,171
279,3	11,229
279,8	13,086
280,2	14,314
280,7	17,429
281,1	21,2
281,6	20,429
282,1	15,571
282,5	12,371
283	10,057
283,4	6,514
283,9	5,314
284,4	5
284,8	7,686
285,3	3,743
285,8	6,086
286,2	1,114
286,7	-0,457
287,1	-3,771
287,6	-2,829
288,1	-8,343
288,5	-2,6
289	-6,571
289,5	-4,486
289,9	-0,657
290,4	2,543
290,8	0,943
291,3	3,714
291,8	3,371
292,2	4,857
292,7	9,429
293,1	11,343
293,6	8,2
294,1	8,057
294,5	8,686
295	9,8
295,5	7,971
295,9	8,686
296,4	5,086
296,8	5,714
297,3	5,714
297,8	-1,314
298,2	-3,629
298,7	1,543
299,1	0,029
299,6	0,286
300,1	1,486
300,5	3,629
301	12,429
301,5	14,8
301,9	10,457
302,4	7,829
302,8	9,6
303,3	7,4
303,8	3,914
304,2	1,257
304,7	-1,714
305,1	-2,171
305,6	0,714
306,1	3,743
306,5	6,371
307	8,371
307,4	10,943
307,9	12,286
308,4	13,257
308,8	8,543
309,3	2,086
309,8	1,029
310,2	0,943
310,7	-1,743
311,1	-1,771
311,6	1,6
312,1	6,257
312,5	14,2
313	15,543
313,4	14,114
313,9	13,743
314,4	12,114
314,8	5,486
315,3	1
315,7	-6,857
316,2	-8,771
316,7	-11,429
317,1	-7,886
317,6	-6,8
318	-1,486
318,5	0,286
319	2,2
319,4	2,286
319,9	9,971
320,3	9,257
320,8	7,314
321,3	8,771
321,7	11,829
322,2	9,829
322,6	11,2
323,1	7,571
323,6	6,743
324	6,857
324,5	3,429
324,9	2,2
325,4	4
325,9	2,886
326,3	4,629
326,8	4,4
327,2	2,857
327,7	4,971
328,2	3,114
328,6	5,771
329,1	2,714
329,5	0,2
330	-2
330,5	1,886
330,9	3,171
331,4	0,943
331,8	-0,114
332,3	5,314
332,8	8,2
333,2	11,4
333,7	12,057
334,1	11,886
334,6	13,086
335,1	9,771
335,5	10,343
336	6,429
336,4	6,571
336,9	10,829
337,4	10,343
337,8	10,086
338,3	12,029
338,7	10,229
339,2	11,314
339,7	11,143
340,1	2,886
340,6	2,714
341	2,6
341,5	1,629
342	-0,657
342,4	-2,771
342,9	-4,571
343,3	-1,857
343,8	-5,686
344,2	-0,914
344,7	3,714
345,2	4,971
345,6	10,829
346,1	11,829
346,5	9,8
347	10,857
347,5	6,343
347,9	8,829
348,4	9,457
348,8	9,6
349,3	10,086
349,8	13,857
350,2	21,2
350,7	23,114
351,1	19,829
351,6	22,029
352	26,686
352,5	31,029
353	44,6
353,4	49,8
353,9	62,914
354,3	74,371
354,8	88,543
355,3	105,029
355,7	126,4
356,2	146,4
356,6	173,229
357,1	208,457
357,5	247,743
358	293,143
358,5	340,743
358,9	391,6
359,4	449,8
359,8	515,771
360,3	588,8
360,8	670,371
361,2	758,543
361,7	856,143
362,1	977,114
362,6	1099,029
363	1230,6
363,5	1370,143
364	1519,914
364,4	1674,171
364,9	1828,914
365,3	1976,343
365,8	2116,714
366,3	2251,429
366,7	2375,371
367,2	2482,686
367,6	2567,343
368,1	2637,514
368,5	2683,371
369	2708,457
369,5	2713,971
369,9	2693,771
370,4	2653,114
370,8	2594,657
371,3	2520,343
371,7	2431,771
372,2	2328,571
372,7	2215,514
373,1	2095,057
373,6	1976,857
374	1859,629
374,5	1731,314
374,9	1616,429
375,4	1499,514
375,9	1386,4
376,3	1281,171
376,8	1172,286
377,2	1078,057
377,7	994,029
378,2	906,771
378,6	835,457
379,1	768,2
379,5	704,657
380	652,057
380,4	593,457
380,9	543,343
381,4	493,486
381,8	455,543
382,3	427,571
382,7	397,086
383,2	365,857
383,6	341,857
384,1	318,429
384,6	297,914
385	275,914
385,5	251,2
385,9	227,686
386,4	213,029
386,8	202,514
387,3	184,771
387,7	173,886
388,2	163,943
388,7	150,8
389,1	145,457
389,6	136,971
390	123,857
390,5	122,6
390,9	114,6
391,4	105,514
391,9	98,657
392,3	91,314
392,8	82,314
393,2	74,857
393,7	67,343
394,1	58,686
394,6	56,029
395,1	56,229
395,5	55,514
396	56,057
396,4	55,086
396,9	51,314
397,3	56,857
397,8	54,143
398,2	50,629
398,7	47,571
399,2	43,514
399,6	40,229
400,1	38,4
400,5	32,857
401	35,714
401,4	29,314
401,9	31,457
402,4	33,829
402,8	32,314
403,3	39,8
403,7	39,943
404,2	35,4
404,6	39,914
405,1	39,429
405,5	38,486
406	42,371
406,5	35,257
406,9	37,229
407,4	35,514
407,8	35,343
408,3	35,743
408,7	32,629
409,2	36,114
409,6	39,657
410,1	38,8
410,6	49,314
411	52,886
411,5	52,771
411,9	57,486
412,4	59,486
412,8	59,514
413,3	63,4
413,7	63
414,2	62,371
414,7	69,029
415,1	77,143
415,6	79,8
416	81,6
416,5	83,343
416,9	84,086
417,4	93,086
417,8	95,371
418,3	96,714
418,8	99,286
419,2	102,686
419,7	106,914
420,1	109,914
420,6	104,6
421	106,171
421,5	108,571
421,9	108,771
422,4	115,343
422,8	115,886
423,3	115,057
423,8	116,629
424,2	115,171
424,7	111,943
425,1	112,086
425,6	113,457
426	113,829
426,5	117,257
426,9	122,943
427,4	121,914
427,9	125,543
428,3	132,629
428,8	131,343
429,2	130,029
429,7	132,771
430,1	135,171
430,6	138,171
431	140,286
431,5	143,257
431,9	145,4
432,4	151,314
432,8	153,086
433,3	156,514
433,8	159,743
434,2	164,229
434,7	168,371
435,1	173,571
435,6	181,2
436	185,371
436,5	192,229
436,9	197,514
437,4	200,314
437,8	205,4
438,3	215,286
438,8	222,914
439,2	233,086
439,7	239,8
440,1	253,143
440,6	269,114
441	272,686
441,5	285,971
441,9	299,343
442,4	310,343
442,8	320,6
443,3	330,4
443,7	342,229
444,2	357,714
444,7	367,343
445,1	379,057
445,6	391,6
446	408,114
446,5	419,8
446,9	426,657
447,4	442,086
447,8	454,8
448,3	474,229
448,7	490,943
449,2	511,457
449,6	533,571
450,1	555,086
450,6	572,8
451	593,286
451,5	608,286
451,9	628,714
452,4	646,143
452,8	658,6
453,3	681,543
453,7	698,457
454,2	719,543
454,6	736,229
455,1	756,857
455,5	770,657
456	801,686
456,4	818,114
456,9	846,057
457,3	868,714
457,8	890,657
458,3	913,143
458,7	940,286
459,2	963,657
459,6	993,514
460,1	1019,6
460,5	1043,886
461	1071,914
461,4	1094,657
461,9	1120,143
462,3	1147,629
462,8	1169,971
463,2	1193,114
463,7	1219,029
464,1	1246,857
464,6	1278,4
465	1307,571
465,5	1330,429
466	1356,229
466,4	1381,886
466,9	1410,943
467,3	1434,171
467,8	1459,2
468,2	1488,857
468,7	1521,286
469,1	1551,857
469,6	1580,771
470	1606,886
470,5	1636,257
470,9	1659,114
471,4	1679,286
471,8	1696,257
472,3	1715,886
472,7	1742,314
473,2	1761,857
473,6	1782,143
474,1	1811,543
474,5	1835,029
475	1863,143
475,4	1889,286
475,9	1910,857
476,4	1933,229
476,8	1960,829
477,3	1977,943
477,7	2002,057
478,2	2021,629
478,6	2040,629
479,1	2056,029
479,5	2077,857
480	2093,457
480,4	2116,286
480,9	2129
481,3	2139,714
481,8	2154,714
482,2	2168,286
482,7	2180,971
483,1	2188,571
483,6	2193,571
484	2200,457
484,5	2219,171
484,9	2227,286
485,4	2236,771
485,8	2242,086
486,3	2254,2
486,7	2262,686
487,2	2269,914
487,6	2268,943
488,1	2276,8
488,5	2282,143
489	2284,514
489,4	2282,971
489,9	2274,2
490,4	2280,229
490,8	2278,457
491,3	2277,857
491,7	2272,829
492,2	2272,571
492,6	2272,771
493,1	2276,457
493,5	2261,286
494	2253,257
494,4	2243,857
494,9	2232,914
495,3	2231,343
495,8	2222,743
496,2	2213,857
496,7	2211,257
497,1	2204,143
497,6	2196,514
498	2197,657
498,5	2181,343
498,9	2169,229
499,4	2164,857
499,8	2162,286
500,3	2150,257
500,7	2135,343
501,2	2111
501,6	2092,943
502,1	2079,743
502,5	2064,029
503	2042,4
503,4	2027,914
503,9	2011,543
504,3	2008,486
504,8	1996,4
505,2	1984,343
505,7	1967,029
506,1	1953,343
506,6	1936,171
507	1917,143
507,5	1895,543
507,9	1878,343
508,4	1859,943
508,8	1842,629
509,3	1825,743
509,7	1810,543
510,2	1800,143
510,6	1778,229
511,1	1760,2
511,5	1742,514
512	1720,114
512,4	1702,086
512,9	1684,343
513,3	1668,429
513,8	1653,371
514,2	1638,571
514,7	1621,714
515,1	1606,429
515,6	1584,657
516	1565,4
516,5	1546,086
516,9	1525,343
517,4	1508,2
517,8	1490,086
518,3	1469,914
518,7	1454,943
519,2	1442,429
519,6	1426,629
520,1	1415,429
520,5	1398,086
521	1377,2
521,4	1366,8
521,9	1350,629
522,3	1331,571
522,8	1309,829
523,2	1294,571
523,7	1278,086
524,1	1264,4
524,6	1247,886
525	1227,4
525,5	1211,514
525,9	1202,171
526,4	1182,114
526,8	1166,2
527,3	1152,714
527,7	1136,171
528,2	1130,029
528,6	1116,8
529,1	1098,514
529,5	1095,714
530	1083,571
530,4	1075
530,9	1062,714
531,3	1047,571
531,8	1036,971
532,2	1027,8
532,6	1007,257
533,1	995,743
533,5	977,657
534	964,429
534,4	952,314
534,9	943,714
535,3	931,143
535,8	923,886
536,2	913,543
536,7	908,571
537,1	903,257
537,6	890,914
538	876,657
538,5	868,429
538,9	852,114
539,4	846,943
539,8	832,4
540,3	822
540,7	815
541,2	804,629
541,6	793,6
542,1	790,714
542,5	773,971
543	764,943
543,4	753,171
543,9	747,171
544,3	741,771
544,8	731,971
545,2	721,343
545,7	717,6
546,1	713,286
546,5	711,171
547	700,971
547,4	689,886
547,9	686,429
548,3	682,171
548,8	677,086
549,2	669,029
549,7	659,886
550,1	656,629
550,6	652,714
551	645,514
551,5	642,343
551,9	631,857
552,4	626,514
552,8	618,743
553,3	608,686
553,7	603,686
554,2	597,314
554,6	583,6
555,1	582,571
555,5	575,8
555,9	574,143
556,4	568,114
556,8	559,029
557,3	557,514
557,7	556,629
558,2	548,714
558,6	546,257
559,1	534,886
559,5	530,6
560	529,914
560,4	523,971
560,9	521,371
561,3	514,743
561,8	508,686
562,2	510,314
562,7	507,514
563,1	506,171
563,6	496,743
564	490,229
564,4	488,571
564,9	485,457
565,3	478,829
565,8	476,143
566,2	468,029
566,7	471,429
567,1	469,714
567,6	469,629
568	466,286
568,5	463,857
568,9	462,286
569,4	460,943
569,8	457,229
570,3	455,143
570,7	448,857
571,1	445,086
571,6	444,371
572	445,286
572,5	445,857
572,9	438,686
573,4	434,971
573,8	437
574,3	432,257
574,7	429,857
575,2	419,371
575,6	409,286
576,1	410,057
576,5	409,857
576,9	400,429
577,4	399,943
577,8	394,229
578,3	392,543
578,7	391,686
579,2	393,686
579,6	383,457
580,1	378,8
580,5	375,629
581	377,371
581,4	376,514
581,9	375,371
582,3	368,686
582,7	372,857
583,2	375,171
583,6	373,086
584,1	369,543
584,5	371,086
585	371,771
585,4	362,514
585,9	357,371
586,3	355,886
586,8	358,6
587,2	351,114
587,6	349,114
588,1	351,229
588,5	355,314
589	355,314
589,4	351,143
589,9	343,657
590,3	346,686
590,8	339,4
591,2	333,314
591,7	333,943
592,1	333,371
592,5	336,429
593	339,286
593,4	334,714
593,9	332,971
594,3	324,829
594,8	321,6
595,2	315,143
595,7	313,6
596,1	306,714
596,6	306,457
597	308,171
597,4	312,257
597,9	309,343
598,3	314,314
598,8	307,571
599,2	308,743
599,7	305,114
600,1	298,029
600,6	296,229
601	297
601,4	300,314
601,9	305,171
602,3	300,314
602,8	300,029
603,2	304,029
603,7	302,686
604,1	301,571
604,6	294,486
605	282,743
605,4	286,029
605,9	285,971
606,3	279,886
606,8	274,029
607,2	267,171
607,7	257,971
608,1	261,286
608,6	262,4
609	262,771
609,4	268,371
609,9	270,371
610,3	275
610,8	275,143
611,2	272,286
611,7	268,686
612,1	266,114
612,6	263,114
613	263,429
613,4	259,571
613,9	260,486
614,3	259,971
614,8	260,343
615,2	257,943
615,7	258,4
616,1	254,829
616,6	249,514
617	249,143
617,4	252,514
617,9	252,171
618,3	255,143
618,8	254,743
619,2	253,629
619,7	257,571
620,1	254,743
620,5	249,543
621	249,371
621,4	247,4
621,9	243,8
622,3	244,343
622,8	237,486
623,2	235,314
623,6	236,514
624,1	235,171
624,5	232,086
625	232,914
625,4	232,029
625,9	237,714
626,3	235,029
626,8	229,857
627,2	226,514
627,6	218,057
628,1	212,171
628,5	214,571
629	207,514
629,4	208,457
629,9	209,257
630,3	204,4
630,7	207,114
631,2	208,143
631,6	198,943
632,1	201,686
632,5	202,629
633	204,2
633,4	207,086
633,8	209,8
634,3	203,086
634,7	205,629
635,2	202,343
635,6	202,229
636,1	200,714
636,5	193,914
636,9	187,371
637,4	191,571
637,8	185,4
638,3	180,514
638,7	181,171
639,2	176,743
639,6	178,114
640	177,314
640,5	173,886
640,9	177,686
641,4	179,543
641,8	177,2
642,2	177,457
642,7	178,571
643,1	183,371
643,6	183,8
644	184,2
644,5	185,571
644,9	186,943
645,3	187,2
645,8	180,314
646,2	179,2
646,7	178,914
647,1	174,971
647,6	175,229
648	171,086
648,4	168,4
648,9	173,6
649,3	170,829
649,8	171,143
650,2	171,571
650,6	170,514
651,1	166,257
651,5	170,657
652	167,543
652,4	164,543
652,9	162,286
653,3	157,6
653,7	154,286
654,2	155,829
654,6	150,057
655,1	152,771
655,5	156,086
655,9	154,2
656,4	158,429
656,8	158,6
657,3	164,371
657,7	165,371
658,2	160,743
658,6	157,943
659	162,771
659,5	156,886
659,9	160,686
660,4	152,286
660,8	148,686
661,2	149,543
661,7	149,8
662,1	144,114
662,6	146,514
663	140,371
663,4	141,886
663,9	142,2
664,3	137,914
664,8	132,257
665,2	131,771
665,6	132,257
666,1	131,6
666,5	131,686
667	128,771
667,4	128,429
667,9	130,371
668,3	127,971
668,7	124,114
669,2	125,857
669,6	121,8
670,1	126,6
670,5	121,429
670,9	119,686
671,4	117,457
671,8	115,514
672,3	116,257
672,7	120,029
673,1	109,486
673,6	112,486
674	116,914
674,5	117,743
674,9	117,886
675,3	114,657
675,8	113,114
676,2	117,229
676,7	116,771
677,1	110,657
677,5	107,029
678	106,657
678,4	108,886
678,9	104,086
679,3	104,457
679,7	108,114
680,2	107,171
680,6	105,629
681,1	107,571
681,5	107,743
681,9	108,286
682,4	110,771
682,8	105,143
683,3	107,314
683,7	110
684,1	108,514
684,6	103,257
685	101,543
685,5	99,629
685,9	98,886
686,3	98,2
686,8	100,543
687,2	100,143
687,7	99,714
688,1	99,714
688,5	98,571
689	96,743
689,4	92,429
689,9	86,2
690,3	82,457
690,7	83,857
691,2	85,229
691,6	86,971
692	92,4
692,5	95,771
692,9	101,8
693,4	101,114
693,8	97,943
694,2	91,343
694,7	88,057
695,1	85,6
695,6	88,2
696	85,514
696,4	88,171
696,9	86,257
697,3	89,886
697,8	90,857
698,2	87,514
698,6	85,4
699,1	85
699,5	82,286
699,9	84,914
700,4	80,429
700,8	77,486
701,3	82,314
701,7	78,114
702,1	74,771
702,6	73,914
703	71,4
703,5	74,6
703,9	72,914
704,3	70,229
704,8	69,886
705,2	73,371
705,6	73,971
706,1	73,371
706,5	70,257
707	73,8
707,4	75,829
707,8	73,543
708,3	72,057
708,7	69,8
709,2	71,771
709,6	74,4
710	75,429
710,5	71,229
710,9	74,029
711,3	70,343
711,8	74,886
712,2	74,057
712,7	70,029
713,1	67,714
713,5	69,743
714	72,343
714,4	71,086
714,8	67,914
715,3	63,857
715,7	64,371
716,2	61,743
716,6	58,943
717	55,857
717,5	58,943
717,9	64,457
718,3	65,029
718,8	69,086
719,2	68,314
719,7	66,629
720,1	67,114
720,5	67,6
721	60,8
721,4	61,457
721,8	64,143
722,3	63,257
722,7	69,4
723,2	64,086
723,6	55,229
724	54,943
724,5	50,886
724,9	46,686
725,3	49,286
725,8	44,743
726,2	46,171
726,7	50,4
727,1	54,171
727,5	57,086
728	54,743
728,4	52,114
728,8	51,914
729,3	50,943
729,7	48,057
730,1	44,771
730,6	45,829
731	46,657
731,5	45,514
731,9	41,971
732,3	42,829
732,8	49,629
733,2	49,657
733,6	49,257
734,1	49,914
734,5	51,943
734,9	61
735,4	62,057
735,8	57,457
736,3	61,143
736,7	60,8
737,1	60,829
737,6	56,114
738	49,429
738,4	45,829
738,9	49,257
739,3	45,4
739,7	49,086
740,2	49,171
740,6	54,943
741,1	59,971
741,5	57
741,9	58,971
742,4	61,171
742,8	56,343
743,2	58
743,7	52
744,1	43,886
744,5	46,629
745	38,629
745,4	34,514
745,8	35,229
746,3	30,029
746,7	29,457
747,2	33,714
747,6	36,886
748	44,029
748,5	47,771
748,9	46,057
749,3	47,171
749,8	51,429
750,2	50,514
750,6	45
751,1	43,4
751,5	42,029
751,9	41,943
752,4	44,371
752,8	46
753,3	44,829
753,7	51,914
754,1	47,486
754,6	42,314
755	37,714
755,4	33,171
755,9	29,314
756,3	27,171
756,7	25
757,2	28,771
757,6	33,257
758	37,514
758,5	41,143
758,9	40,6
759,3	41,914
759,8	42,657
760,2	40,886
760,6	41,886
761,1	40,171
761,5	33,486
761,9	35,743
762,4	32,857
762,8	29,086
763,3	28,343
763,7	27,086
764,1	28,771
764,6	33,743
765	34,229
765,4	37,943
765,9	41,429
766,3	46,943
766,7	42,143
767,2	41,571
767,6	43,229
768	39,371
768,5	36,686
768,9	36,486
769,3	34,629
769,8	35,343
770,2	35,657
770,6	34,486
771,1	37,086
771,5	40,486
771,9	37,086
772,4	32,886
772,8	34,057
773,2	36,314
773,7	33,171
774,1	33,771
774,5	27,314
775	25,857
775,4	24,314
775,8	26,657
776,3	25,429
776,7	27,143
777,1	24,257
777,6	28,029
778	33,229
778,4	35,343
778,9	34,286
779,3	32,086
779,7	31
780,2	34,6
780,6	33,314
781	30,457
781,5	29,2
781,9	30,686
782,3	27,429
782,8	28,657
783,2	25,114
783,6	28,543
784,1	29,457
784,5	29,343
784,9	25,114
785,4	32,857
785,8	34,114
786,2	38
786,7	30,371
787,1	28,057
787,5	25,171
788	26,743
788,4	24,257
788,8	25,229
789,3	21,771
789,7	28,086
790,1	31,8
790,6	37,543
791	36,8
791,4	34,743
791,9	28,886
792,3	26,429
792,7	29,143
793,2	26,086
793,6	25,143
794	26,629
794,5	25,114
794,9	28,029
795,3	30,371
795,8	31,086
796,2	31,771
796,6	33,343
797,1	30,171
797,5	31,457
797,9	31,4
798,4	31,257
798,8	24,229
799,2	20,686
799,7	18,914
800,1	21,2
800,5	24,486
801	24,514
801,4	22,829
801,8	25,829
802,2	28,029
802,7	25,543
803,1	24,686
803,5	21,743
804	19,943
804,4	22,057
804,8	21,6
805,3	21,371
805,7	20,714
806,1	20,171
806,6	22,086
807	20,914
807,4	19,714
807,9	15,743
808,3	16,4
808,7	17,343
809,2	22,257
809,6	22,086
810	23,057
810,4	23,257
810,9	23,543
811,3	23,857
811,7	22,143
812,2	21,857
812,6	19,771
813	26,343
813,5	26,857
813,9	28,771
814,3	30,943
814,8	33,914
815,2	28,8
815,6	26,257
816,1	23,114
816,5	22,343
816,9	24,229
817,3	21,6
817,8	23,229
818,2	29,343
818,6	29,486
819,1	27,743
819,5	26,286
819,9	28,143
820,4	29,486
820,8	26,571
821,2	19,314
821,7	25,686
822,1	25,943
822,5	33,914
822,9	31,429
823,4	29,943
823,8	31,029
824,2	34,829
824,7	27,971
825,1	20,514
825,5	13,857
826	8,514
826,4	6,257
826,8	2,171
827,3	3,914
827,7	5,114
828,1	13,371
828,5	12,2
829	11,714
829,4	13,314
829,8	13,171
830,3	9
830,7	8,057
831,1	10,371
831,6	12,2
832	15,514
832,4	14,943
832,8	18,857
833,3	17,257
833,7	15,114
834,1	11,343
834,6	5,943
835	6,029
835,4	10,257
835,8	5,2
836,3	7,857
836,7	10,286
837,1	9,429
837,6	15,6
838	14,371
838,4	10,886
838,9	13,6
839,3	8,114
839,7	12,771
840,1	7,257
840,6	4,686
841	9,886
841,4	13,029
841,9	13,8
842,3	18,743
842,7	19,886
843,1	23,343
843,6	23,914
844	21,686
844,4	23,914
844,9	24,543
845,3	22,943
845,7	14,8
846,2	15,286
846,6	12,371
847	11,686
847,4	7,543
847,9	11,371
848,3	13,057
848,7	16,371
849,2	16,886
849,6	17,629
850	22,486
850,4	19,971
850,9	13,086
851,3	13,914
851,7	16,171
852,2	14,771
852,6	21,371
853	19,743
853,4	21,086
853,9	16,686
854,3	15
854,7	10,886
855,2	11,314
855,6	7,429
856	1,629
856,4	-2,057
856,9	2,629
857,3	2,114
857,7	6,914
858,2	9,257
858,6	10,971
859	14,429
859,4	17,429
859,9	19,143
860,3	17,771
860,7	15,2
861,1	14,971
861,6	11,486
862	7,943
862,4	9
862,9	8
863,3	7,543
863,7	6,571
864,1	6,086
864,6	8,343
865	10,371
865,4	10,829
865,9	11,429
866,3	8,086
866,7	6,457
867,1	6,743
867,6	8,429
868	7,657
868,4	7,257
868,8	8,657
869,3	12,514
869,7	19,057
870,1	17,114
870,6	13,257
871	-61,171
871,4	-54,514
871,8	-56,629
872,3	-52,371
872,7	-57,457
873,1	-56,457
873,5	-55,2
874	21,571
874,4	11,6
874,8	11,029
875,3	9,743
875,7	8,543
876,1	8,457
876,5	9,143
877	4,143
877,4	2,114
877,8	3,086
878,2	3,171
878,7	6,857
879,1	5,571
879,5	4,229
879,9	7,286
880,4	8,086
880,8	12,4
881,2	11,257
881,7	10,4
882,1	17,314
882,5	17
882,9	14,371
883,4	19
883,8	16,2
884,2	17
884,6	14,6
885,1	11,257
885,5	15,343
885,9	16,114
886,3	14,229
886,8	10,286
887,2	4,629
887,6	8,171
888	5,771
888,5	0,029
888,9	0,971
889,3	-0,943
889,8	-4,543
890,2	-2,886
890,6	-8,457
891	-9,771
891,5	-8,257
891,9	-9,686
892,3	-7,4
892,7	-0,086
893,2	3,171
893,6	7,057
894	8,486
894,4	7,514
894,9	11,629
895,3	10,8
895,7	12,486
896,1	10,029
896,6	9,8
897	11,4
897,4	15,486
897,8	15,857
898,3	18,514
898,7	16,143
899,1	18,914
899,5	16,629
900	10,8
900,4	4,943
900,8	2,629
901,2	-4,114
901,7	-8,257
902,1	-11,657
902,5	-6,143
902,9	-2,886
903,4	3,943
903,8	4,571
904,2	6,857
904,6	13,4
905,1	18,514
905,5	16,771
905,9	20,229
906,3	16,971
906,8	18,143
907,2	20,086
907,6	20,314
908	19,057
908,5	15,457
908,9	10,486
909,3	7,429
909,7	7,514
910,2	7,8
910,6	6,857
911	2,771
911,4	9,143
911,9	9,2
912,3	11,943
912,7	18,571
913,1	22,171
913,6	20,057
914	20,143
914,4	17,314
914,8	22,057
915,3	21,571
915,7	13
916,1	7,343
916,5	10,314
916,9	11,714
917,4	7,857
917,8	7,029
918,2	8,571
918,6	8,4
919,1	11,143
919,5	9,914
919,9	10,743
920,3	8,486
920,8	8,457
921,2	5,6
921,6	2,314
922	2,2
922,5	2,257
922,9	1,514
923,3	7
923,7	3,8
924,2	3,6
924,6	7,914
925	8,457
925,4	7,057
925,8	5,543
926,3	2,971
926,7	-0,429
927,1	3,029
927,5	4,229
928	0,857
928,4	-1,257
928,8	3,6
929,2	5,8
929,7	10,257
930,1	9,829
930,5	7,657
930,9	14,114
931,3	14,714
931,8	12,771
932,2	8,543
932,6	10,457
933	4,914
933,5	4,943
933,9	-0,657
934,3	2,057
934,7	-0,429
935,2	2,371
935,6	2,429
936	8,171
936,4	10,657
936,8	13,857
937,3	9,314
937,7	10,229
938,1	15,457
938,5	7,857
939	8,286
939,4	7,057
939,8	5,514
940,2	5,429
940,6	9,543
941,1	5,771
941,5	16,914
941,9	13,743
942,3	12,543
942,8	12,971
943,2	18,629
943,6	14,543
944	12,029
944,4	9,257
944,9	6,114
945,3	4,857
945,7	-0,143
946,1	-7,714
946,6	-10,686
947	-10,971
947,4	-8,829
947,8	-5,514
948,2	-4,057
948,7	2,886
949,1	6,2
949,5	14,086
949,9	18,6
950,3	16,2
950,8	15,743
951,2	11,543
951,6	4,514
952	8,2
952,5	2,257
952,9	-1,829
953,3	-5,829
953,7	-5,829
954,1	0,314
954,6	5,943
955	4,486
955,4	5,6
955,8	9,514
956,2	11,829
956,7	12,143
957,1	8,8
957,5	9,657
957,9	8,314
958,3	8,343
958,8	7,429
959,2	12,6
959,6	12,657
960	11,971
960,5	13,343
960,9	18,229
961,3	17,114
961,7	14,029
962,1	6,743
962,6	9,829
963	10,4
963,4	4,286
963,8	3,114
964,2	7,8
964,7	9,486
965,1	13,714
965,5	10,086
965,9	9,314
966,3	14,457
966,8	10,257
967,2	7,2
967,6	6,314
968	1,143
968,4	3,6
968,9	7,971
969,3	9,629
969,7	9,8
970,1	7,8
970,5	7,514
971	12,886
971,4	10,914
971,8	10,143
972,2	8,029
972,6	7,714
973,1	7,914
973,5	9,2
973,9	9,486
974,3	11,086
974,7	9,629
975,2	10,171
975,6	12,314
976	15,914
976,4	10,429
976,8	8,114
977,3	4,914
977,7	5,486
978,1	-0,057
978,5	-0,114
978,9	-5,486
979,4	-0,514
979,8	1,029
980,2	3,343
980,6	-0,657
981	3,971
981,5	1,657
981,9	6,086
982,3	5,6
982,7	6,6
983,1	2,257
983,6	4,114
984	5,743
984,4	8,257
984,8	9,114
985,2	10,4
985,6	6,029
986,1	12,314
986,5	11,6
986,9	5,571
987,3	4,943
987,7	5,657
988,2	4,543
988,6	6,657
989	1,6
989,4	3,257
989,8	5,371
990,3	3,943
990,7	-2,8
991,1	-1,6
991,5	1,629
991,9	7,543
992,3	9,771
992,8	10,829
993,2	10,143
993,6	13,4
994	12,257
994,4	8,8
994,9	3,371
995,3	1,971
995,7	0,686
996,1	2,086
996,5	7,914
996,9	7,486
997,4	7,943
997,8	5,571
998,2	4,857
998,6	0,343
999	1,914
999,5	-2,657
999,9	-3,571
1000,3	-8,314
1000,7	-5,571
1001,1	-6,029
1001,5	-1,171
1002	4,457
1002,4	3,057
1002,8	3,457
1003,2	6,543
1003,6	12,771
1004	17,114
1004,5	15,8
1004,9	9,057
1005,3	5,857
1005,7	5,371
1006,1	4,029
1006,6	-1
1007	-4,314
1007,4	-3,2
1007,8	-3,2
1008,2	-3,971
1008,6	-0,314
1009,1	-1,371
1009,5	0,029
1009,9	3,486
1010,3	2,971
1010,7	6,314
1011,1	9,114
1011,6	6,286
1012	11,914
1012,4	8,829
1012,8	5,314
1013,2	8,771
1013,6	1,257
1014,1	4,114
1014,5	2,514
1014,9	-0,114
1015,3	-1,086
1015,7	-1,371
1016,1	-2,229
1016,6	1,771
1017	1,8
1017,4	2,857
1017,8	5,086
1018,2	10,543
1018,6	7,486
1019,1	5,8
1019,5	6,714
1019,9	0,857
1020,3	7,114
1020,7	6,229
1021,1	2,857
1021,6	4,229
1022	4,543
1022,4	5,543
1022,8	6
1023,2	2,371
1023,6	3,457
1024,1	8,8
1024,5	7,8
1024,9	6,571
1025,3	5,314
1025,7	12,8
1026,1	11,171
1026,6	8,657
1027	4,457
1027,4	10,229
1027,8	14,829
1028,2	9,829
1028,6	12,171
1029	12,914
1029,5	13,914
1029,9	15,371
1030,3	7,114
1030,7	4,029
1031,1	8,2
1031,5	-0,6
1032	-0,343
1032,4	-0,829
1032,8	-1,2
1033,2	6,971
1033,6	7
1034	6,114
1034,4	2,457
1034,9	5,629
1035,3	2,171
1035,7	1,743
1036,1	-5,257
1036,5	-6,114
1036,9	-3,686
1037,4	5,371
1037,8	-1,371
1038,2	-0,486
1038,6	-3,943
1039	-1,143
1039,4	3,114
1039,8	-4,143
1040,3	-6,514
1040,7	-6,171
1041,1	-3,4
1041,5	-1,171
1041,9	-1,8
1042,3	-4,029
1042,7	6,6
1043,2	6,829
1043,6	7,657
1044	6,629
1044,4	6,829
1044,8	9,257
1045,2	7,371
1045,6	8,571
1046,1	9,829
1046,5	10,143
1046,9	6,971
1047,3	5,829
1047,7	6,971
1048,1	5,029
1048,5	-0,686
1049	-2,457
1049,4	1,343
1049,8	7,371
1050,2	11,257
1050,6	11,257
1051	12,571
1051,4	10,343
1051,9	11,6
1052,3	16,686
1052,7	16,629
1053,1	12,686
1053,5	15,914
1053,9	14,943
1054,3	14,771
1054,8	18,657
1055,2	14,314
1055,6	13,171
1056	17,886
1056,4	9,686
1056,8	11,686
1057,2	13,2
1057,6	7,343
1058,1	1,743
1058,5	-4,571
1058,9	-3,257
1059,3	3,657
1059,7	2,514
1060,1	4,943
1060,5	8,543
1061	14,286
1061,4	23,029
1061,8	23,314
1062,2	23,2
1062,6	24,886
1063	28,343
1063,4	26,514
1063,8	22,143
1064,3	16,543
1064,7	12,114
1065,1	7,457
1065,5	3,171
1065,9	-2,886
1066,3	-7,371
1066,7	-10,229
1067,1	-11,4
1067,6	-11,314
1068	-13,314
1068,4	-8,514
1068,8	-3,486
1069,2	3,6
1069,6	7,086
1070	11
1070,4	11,057
1070,9	13,629
1071,3	10,4
1071,7	4,029
1072,1	3,543
1072,5	0,286
1072,9	-2,971
1073,3	-2,857
1073,7	-3,286
1074,2	-2,914
1074,6	-0,743
1075	-6,114
1075,4	-2,343
1075,8	0,171
1076,2	0,571
1076,6	3,943
1077	5,4
1077,5	11,314
1077,9	12,857
1078,3	11,086
1078,7	12,829
1079,1	16,257
1079,5	13,6
1079,9	13,257
1080,3	5,6
1080,7	5,743
1081,2	12,514
1081,6	10,343
1082	5,771
1082,4	5,743
1082,8	6,943
1083,2	7,371
1083,6	10,257
1084	4,486
1084,5	5,943
1084,9	5,229
1085,3	2,743
1085,7	2,914
1086,1	1,143
1086,5	1,086
1086,9	2,486
1087,3	1,4
1087,7	0,343
1088,2	2,571
1088,6	-0,571
1089	2,743
1089,4	1,686
1089,8	1,914
1090,2	-0,4
1090,6	3,429
1091	6,6
1091,4	12,514
1091,9	12,057
1092,3	11,743
1092,7	8,743
1093,1	11,857
1093,5	11,343
1093,9	9,486
1094,3	8,686
1094,7	8,743
1095,1	8,8
1095,5	13,143
1096	11,114
1096,4	9,8
1096,8	9,143
1097,2	6,886
1097,6	10,943
1098	10,943
1098,4	9,571
1098,8	10,429
1099,2	17,571
1099,6	15,857
1100,1	15,371
1100,5	11,2
1100,9	12,257
1101,3	10,571
1101,7	10
1102,1	-0,057
1102,5	0,171
1102,9	1,629
1103,3	2,371
1103,7	2,429
1104,2	1,057
1104,6	0,4
1105	3,914
1105,4	3,714
1105,8	0,971
1106,2	-0,257
1106,6	-2,514
1107	-1
1107,4	-0,333
1107,8	-1,36
1108,3	-0,55
