Data from Subt2_311.txt Node
Date: Sat Aug 26 19:15:33 MSK 2023
User: vat
Spectrometer: MAYP114033
Trigger mode: 0
Integration Time (sec): 1,000000E0
Scans to average: 5
Electric dark correction enabled: true
Nonlinearity correction enabled: false
Boxcar width: 3
XAxis mode: Wavelengths
Number of Pixels in Spectrum: 2068
>>>>>Begin Spectral Data<<<<<
199,4	-0,217
199,9	2,913
200,4	1,2
200,8	2,519
201,3	0,776
201,8	2,719
202,2	-0,195
202,7	3,148
203,2	0,119
203,6	1,262
204,1	-1,938
204,6	-1,452
205	0,662
205,5	5,005
206	3,948
206,4	5,49
206,9	5,748
207,4	9,976
207,8	9,776
208,3	6,605
208,8	6,862
209,2	7,319
209,7	8,776
210,2	11,033
210,6	11,348
211,1	17,462
211,5	16,719
212	15,548
212,5	12,49
212,9	12,319
213,4	10,948
213,9	8,776
214,3	3,348
214,8	5,748
215,3	6,605
215,7	11,548
216,2	13,09
216,7	15,49
217,1	13,719
217,6	17,348
218,1	13,376
218,5	12,805
219	4,976
219,5	5,062
219,9	3,348
220,4	15,29
220,9	11,348
221,3	12,976
221,8	13,662
222,3	18,662
222,7	16,605
223,2	18,433
223,6	7,833
224,1	8,462
224,6	8,348
225	4,09
225,5	3,605
226	2,348
226,4	-0,567
226,9	2,233
227,4	3,376
227,8	-1,824
228,3	-1,652
228,8	-2,338
229,2	1,119
229,7	0,433
230,2	-0,652
230,6	3,719
231,1	14,348
231,5	14,976
232	15,719
232,5	13,405
232,9	16,633
233,4	16,69
233,9	13,576
234,3	6,576
234,8	8,062
235,3	9,405
235,7	11,976
236,2	13,233
236,7	10,748
237,1	13,605
237,6	14,005
238,1	13,005
238,5	6,033
239	2,576
239,4	3,205
239,9	2,776
240,4	-0,31
240,8	3,405
241,3	0,462
241,8	6,205
242,2	8,605
242,7	3,262
243,2	7,262
243,6	7,005
244,1	11,805
244,6	16,348
245	17,119
245,5	19,462
245,9	18,119
246,4	16,89
246,9	19,148
247,3	14,89
247,8	20,205
248,3	21,519
248,7	20,69
249,2	26,062
249,7	24,376
250,1	23,319
250,6	19,919
251	19,319
251,5	16,748
252	9,205
252,4	7,319
252,9	4,948
253,4	4,69
253,8	7,862
254,3	5,148
254,8	6,033
255,2	5,776
255,7	7,69
256,1	11,519
256,6	12,519
257,1	11,748
257,5	8,29
258	5,119
258,5	10,719
258,9	4,262
259,4	1,69
259,9	0,719
260,3	-3,252
260,8	-3,881
261,2	-3,767
261,7	-0,681
262,2	-1,681
262,6	2,09
263,1	3,376
263,6	8,09
264	10,719
264,5	14,776
264,9	9,719
265,4	14,633
265,9	11,433
266,3	11,176
266,8	11,69
267,3	15,29
267,7	12,462
268,2	10,833
268,7	10,519
269,1	12,69
269,6	9,376
270	9,605
270,5	2,376
271	3,233
271,4	8,548
271,9	7,776
272,4	7,319
272,8	6,89
273,3	5,205
273,7	9,662
274,2	7,776
274,7	5,29
275,1	6,09
275,6	8,319
276,1	7,576
276,5	9,548
277	10,319
277,4	13,919
277,9	16,462
278,4	17,262
278,8	17,719
279,3	21,348
279,8	21,376
280,2	23,433
280,7	22,29
281,1	17,519
281,6	18,805
282,1	17,919
282,5	15,405
283	15,519
283,4	12,576
283,9	15,633
284,4	20,376
284,8	18,462
285,3	18,262
285,8	15,348
286,2	10,576
286,7	8,69
287,1	6,005
287,6	8,148
288,1	5,49
288,5	5,919
289	9,519
289,5	10,919
289,9	10,948
290,4	11,205
290,8	7,948
291,3	8,948
291,8	8,69
292,2	7,576
292,7	15,862
293,1	14,033
293,6	13,605
294,1	13,176
294,5	13,976
295	14,09
295,5	14,148
295,9	12,405
296,4	13,605
296,8	13,319
297,3	11,662
297,8	10,576
298,2	8,119
298,7	12,148
299,1	9,376
299,6	9,119
300,1	10,748
300,5	14,205
301	19,69
301,5	22,062
301,9	20,348
302,4	17,805
302,8	18,49
303,3	17,348
303,8	11,49
304,2	6,719
304,7	6,376
305,1	0,033
305,6	1,348
306,1	8,69
306,5	14,119
307	21,205
307,4	22,319
307,9	20,948
308,4	23,062
308,8	19,09
309,3	15,148
309,8	9,233
310,2	6,776
310,7	6,062
311,1	8,148
311,6	13,262
312,1	18,833
312,5	19,233
313	18,433
313,4	13,576
313,9	13,576
314,4	9,748
314,8	4,262
315,3	3,462
315,7	-0,738
316,2	2,233
316,7	5,319
317,1	9,833
317,6	10,576
318	15,348
318,5	12,062
319	11,605
319,4	14,09
319,9	20,09
320,3	19,662
320,8	20,148
321,3	21,319
321,7	23,205
322,2	22,862
322,6	19,548
323,1	14,748
323,6	10,29
324	6,548
324,5	5,719
324,9	5,348
325,4	6,748
325,9	4,919
326,3	2,348
326,8	5,262
327,2	7,433
327,7	5,233
328,2	7,119
328,6	9,519
329,1	7,005
329,5	8,148
330	4,948
330,5	6,348
330,9	6,09
331,4	3,748
331,8	5,433
332,3	7,548
332,8	7,519
333,2	3,09
333,7	6,662
334,1	5,833
334,6	4,29
335,1	-2,652
335,5	1,776
336	0,662
336,4	6,776
336,9	5,605
337,4	8,862
337,8	11,805
338,3	14,633
338,7	12,719
339,2	12,262
339,7	16,319
340,1	12,29
340,6	8,519
341	3,576
341,5	4,205
342	2,29
342,4	2,805
342,9	-2,224
343,3	3,833
343,8	5,833
344,2	9,662
344,7	13,49
345,2	14,262
345,6	14,633
346,1	14,89
346,5	10,605
347	11,09
347,5	10,148
347,9	8,948
348,4	10,49
348,8	12,319
349,3	18,605
349,8	23,948
350,2	30,748
350,7	29,233
351,1	26,89
351,6	26,919
352	29,805
352,5	29,976
353	36,033
353,4	42,09
353,9	53,262
354,3	70,748
354,8	83,405
355,3	99,548
355,7	116,233
356,2	135,119
356,6	154,776
357,1	182,148
357,5	211,376
358	249,719
358,5	286,833
358,9	330,062
359,4	375,776
359,8	433,462
360,3	495,548
360,8	557,09
361,2	634,776
361,7	721,148
362,1	818,005
362,6	916,805
363	1026,376
363,5	1140,833
364	1269,319
364,4	1394,205
364,9	1521,919
365,3	1644,062
365,8	1766,519
366,3	1872,205
366,7	1972,519
367,2	2057,633
367,6	2121,719
368,1	2176,233
368,5	2213,948
369	2229,776
369,5	2234,233
369,9	2219,776
370,4	2186,49
370,8	2142,376
371,3	2074,462
371,7	2003,405
372,2	1920,119
372,7	1829,948
373,1	1730,119
373,6	1622,748
374	1520,805
374,5	1423,89
374,9	1326,29
375,4	1234,319
375,9	1142,033
376,3	1056,662
376,8	978,376
377,2	902,176
377,7	823,548
378,2	749,376
378,6	689,033
379,1	625,49
379,5	576,548
380	535,348
380,4	491,748
380,9	454,833
381,4	417,033
381,8	383,748
382,3	364,376
382,7	340,69
383,2	315,948
383,6	293,148
384,1	277,719
384,6	265,09
385	248,89
385,5	228,462
385,9	210,776
386,4	196,862
386,8	188,376
387,3	176,605
387,7	167,119
388,2	158,29
388,7	149,805
389,1	139,605
389,6	128,262
390	119,205
390,5	112,405
390,9	109,376
391,4	102,005
391,9	97,462
392,3	97,519
392,8	93,69
393,2	86,148
393,7	85,519
394,1	74,319
394,6	68,062
395,1	62,033
395,5	54,605
396	55,919
396,4	58,033
396,9	54,748
397,3	60,89
397,8	61,719
398,2	61,776
398,7	61,948
399,2	57,148
399,6	55,005
400,1	50,605
400,5	40,719
401	39,69
401,4	38,205
401,9	41,519
402,4	43,69
402,8	38,548
403,3	45,49
403,7	46,662
404,2	48,233
404,6	51,519
405,1	49,119
405,5	46,576
406	54,176
406,5	44,376
406,9	47,319
407,4	43,519
407,8	42,662
408,3	40,062
408,7	40,09
409,2	38,033
409,6	45,776
410,1	44,919
410,6	51,233
411	53,005
411,5	55,376
411,9	59,29
412,4	60,148
412,8	60,719
413,3	64,262
413,7	61,062
414,2	64,719
414,7	69,89
415,1	73,548
415,6	77,805
416	79,833
416,5	82,519
416,9	86,462
417,4	86,976
417,8	90,605
418,3	96,862
418,8	99,776
419,2	102,519
419,7	102,376
420,1	105,319
420,6	105,233
421	101,176
421,5	96,719
421,9	94,519
422,4	96,119
422,8	99,776
423,3	94,919
423,8	92,348
424,2	91,033
424,7	88,805
425,1	88,605
425,6	88,062
426	83,519
426,5	93,805
426,9	98,948
427,4	97,09
427,9	97,69
428,3	98,719
428,8	101,776
429,2	98,49
429,7	92,49
430,1	88,976
430,6	92,319
431	94,862
431,5	96,176
431,9	86,405
432,4	89,176
432,8	90,033
433,3	93,862
433,8	92,519
434,2	96,005
434,7	96,748
435,1	103,262
435,6	111,033
436	114,548
436,5	117,433
436,9	118,948
437,4	116,919
437,8	121,205
438,3	123,519
438,8	122,29
439,2	124,948
439,7	127,462
440,1	138,519
440,6	148,319
441	152,49
441,5	158,662
441,9	164,433
442,4	168,605
442,8	176,748
443,3	183,49
443,7	188,548
444,2	196,662
444,7	205,319
445,1	214,633
445,6	223,776
446	231,262
446,5	233,748
446,9	237,919
447,4	244,376
447,8	255,833
448,3	265,548
448,7	277,462
449,2	290,005
449,6	304,348
450,1	316,348
450,6	332,719
451	341,605
451,5	356,633
451,9	367,062
452,4	380,462
452,8	389,233
453,3	407,462
453,7	416,833
454,2	433,919
454,6	445,605
455,1	461,776
455,5	471,776
456	493,605
456,4	503,976
456,9	522,433
457,3	534,49
457,8	547,748
458,3	564,548
458,7	580,09
459,2	594,919
459,6	615,262
460,1	630,062
460,5	645,919
461	668,976
461,4	684,319
461,9	708,29
462,3	728,576
462,8	748,433
463,2	768,262
463,7	793,805
464,1	814,033
464,6	842,548
465	863,719
465,5	888,89
466	911,176
466,4	933,833
466,9	957,405
467,3	983,319
467,8	1005,976
468,2	1033,176
468,7	1056,205
469,1	1082,09
469,6	1107,09
470	1131,633
470,5	1151,605
470,9	1171,719
471,4	1193,29
471,8	1214,548
472,3	1240,119
472,7	1267,605
473,2	1290,833
473,6	1317,262
474,1	1350,976
474,5	1372,69
475	1397,548
475,4	1423,376
475,9	1448,948
476,4	1472,319
476,8	1500,576
477,3	1519,033
477,7	1549,09
478,2	1576,29
478,6	1595,119
479,1	1616,976
479,5	1641,205
480	1661,89
480,4	1684,205
480,9	1701,433
481,3	1716,262
481,8	1737,576
482,2	1750,49
482,7	1765,862
483,1	1783,09
483,6	1801,119
484	1814,062
484,5	1838,033
484,9	1848,776
485,4	1869,49
485,8	1885,548
486,3	1900,205
486,7	1911,69
487,2	1927,462
487,6	1942,919
488,1	1956,719
488,5	1964,29
489	1984,433
489,4	2005,376
489,9	2018,976
490,4	2029,49
490,8	2036,49
491,3	2055,033
491,7	2068,348
492,2	2074,862
492,6	2072,89
493,1	2080,748
493,5	2088,49
494	2088,262
494,4	2094,148
494,9	2101,49
495,3	2107,433
495,8	2117,833
496,2	2124,29
496,7	2124,548
497,1	2138,148
497,6	2141,205
498	2149,233
498,5	2151,29
498,9	2149,09
499,4	2151,776
499,8	2165,119
500,3	2164,005
500,7	2162,29
501,2	2158,862
501,6	2165,348
502,1	2164,89
502,5	2168,976
503	2168,548
503,4	2168,519
503,9	2165,833
504,3	2172,605
504,8	2164,548
505,2	2171,262
505,7	2168,405
506,1	2171,005
506,6	2172,833
507	2183,148
507,5	2179,548
507,9	2187,033
508,4	2181,576
508,8	2178,119
509,3	2171,319
509,7	2173,519
510,2	2170,262
510,6	2167,633
511,1	2164,205
511,5	2173,319
512	2172,862
512,4	2176,633
512,9	2173,376
513,3	2174,49
513,8	2172,176
514,2	2170,776
514,7	2161,633
515,1	2163,548
515,6	2160,69
516	2156,633
516,5	2155,49
516,9	2151,29
517,4	2155,233
517,8	2156,433
518,3	2154,176
518,7	2151,29
519,2	2154,519
519,6	2150,776
520,1	2151,262
520,5	2144,862
521	2144,433
521,4	2140,748
521,9	2145,062
522,3	2142,948
522,8	2140,29
523,2	2141,919
523,7	2138,776
524,1	2138,005
524,6	2142,205
525	2139,176
525,5	2138,69
525,9	2142,776
526,4	2143,719
526,8	2145,89
527,3	2142,919
527,7	2142,805
528,2	2146,948
528,6	2139,633
529,1	2143,033
529,5	2148,89
530	2145,605
530,4	2155,633
530,9	2158,433
531,3	2156,49
531,8	2164,833
532,2	2165,89
532,6	2166,776
533,1	2174,348
533,5	2168,748
534	2163,49
534,4	2163,405
534,9	2166,462
535,3	2164,833
535,8	2161,519
536,2	2166,89
536,7	2170,862
537,1	2175,605
537,6	2175,433
538	2179,176
538,5	2183,719
538,9	2180,119
539,4	2180,319
539,8	2183,776
540,3	2190,033
540,7	2194,462
541,2	2189,89
541,6	2187,376
542,1	2201,348
542,5	2202,833
543	2199,776
543,4	2197,205
543,9	2201,062
544,3	2212,233
544,8	2212,89
545,2	2208,09
545,7	2213,033
546,1	2220,062
546,5	2227,29
547	2229,976
547,4	2233,605
547,9	2239,119
548,3	2244,519
548,8	2245,062
549,2	2247,948
549,7	2252,662
550,1	2256,948
550,6	2255,776
551	2260,89
551,5	2268,262
551,9	2269,005
552,4	2272,462
552,8	2275,548
553,3	2272,605
553,7	2274,148
554,2	2278,49
554,6	2277,376
555,1	2284,433
555,5	2284,948
555,9	2283,976
556,4	2283,719
556,8	2288,548
557,3	2288,748
557,7	2291,89
558,2	2290,148
558,6	2297,519
559,1	2297,176
559,5	2306,262
560	2308,776
560,4	2311,948
560,9	2314,233
561,3	2319,862
561,8	2313,633
562,2	2323,919
562,7	2328,776
563,1	2334,005
563,6	2331,69
564	2336,433
564,4	2331,405
564,9	2338,348
565,3	2334,919
565,8	2334,462
566,2	2336,233
566,7	2338,862
567,1	2336,319
567,6	2345,748
568	2344,662
568,5	2349,462
568,9	2348,748
569,4	2349,49
569,8	2353,776
570,3	2359,662
570,7	2348,148
571,1	2353,776
571,6	2349,405
572	2357,033
572,5	2351,69
572,9	2349,69
573,4	2347,205
573,8	2359,805
574,3	2350,919
574,7	2349,376
575,2	2340,919
575,6	2339,348
576,1	2341,033
576,5	2340,919
576,9	2332,148
577,4	2336,576
577,8	2334,833
578,3	2335,405
578,7	2335,776
579,2	2339,976
579,6	2332,748
580,1	2330,49
580,5	2324,919
581	2326,919
581,4	2325,062
581,9	2319,576
582,3	2305,662
582,7	2310,405
583,2	2307,548
583,6	2305,348
584,1	2301,89
584,5	2296,719
585	2291,633
585,4	2283,576
585,9	2276,376
586,3	2280,176
586,8	2272,262
587,2	2265,205
587,6	2263,233
588,1	2264,062
588,5	2268,405
589	2261,548
589,4	2251,462
589,9	2254,662
590,3	2252,576
590,8	2249,205
591,2	2249,462
591,7	2246,405
592,1	2248,548
592,5	2248,176
593	2244,748
593,4	2237,948
593,9	2231,576
594,3	2223,605
594,8	2216,976
595,2	2209,205
595,7	2207,862
596,1	2201,433
596,6	2199,376
597	2198,862
597,4	2199,633
597,9	2200,262
598,3	2201,09
598,8	2195,348
599,2	2194,919
599,7	2192,176
600,1	2185,548
600,6	2181,376
601	2174,548
601,4	2170,462
601,9	2167,005
602,3	2156,548
602,8	2153,433
603,2	2149,148
603,7	2144,176
604,1	2141,519
604,6	2135,405
605	2128,633
605,4	2131,176
605,9	2123,376
606,3	2112,633
606,8	2098,319
607,2	2092,805
607,7	2081,062
608,1	2072,29
608,6	2066,405
609	2063,033
609,4	2066,319
609,9	2064,576
610,3	2053,776
610,8	2050,205
611,2	2043,919
611,7	2034,262
612,1	2029,49
612,6	2023,205
613	2021,89
613,4	2011,433
613,9	2004,519
614,3	2000,948
614,8	1997,205
615,2	1985,605
615,7	1976,519
616,1	1965,205
616,6	1959,719
617	1945,719
617,4	1937,205
617,9	1928,805
618,3	1927,633
618,8	1921,262
619,2	1907,348
619,7	1907,548
620,1	1906,205
620,5	1902,605
621	1894,205
621,4	1886,033
621,9	1876,262
622,3	1879,576
622,8	1862,062
623,2	1856,033
623,6	1846,29
624,1	1841,89
624,5	1831,976
625	1829,433
625,4	1822,062
625,9	1818,005
626,3	1805,548
626,8	1793,548
627,2	1782,662
627,6	1768,605
628,1	1752,605
628,5	1742,49
629	1733,69
629,4	1729,633
629,9	1722,233
630,3	1712,519
630,7	1708,805
631,2	1706,348
631,6	1693,662
632,1	1687,948
632,5	1681,776
633	1679,662
633,4	1670,833
633,8	1663,605
634,3	1652,576
634,7	1648,062
635,2	1640,576
635,6	1636,119
636,1	1628,005
636,5	1618,005
636,9	1608,119
637,4	1600,405
637,8	1587,09
638,3	1578,605
638,7	1563,605
639,2	1546,69
639,6	1543,719
640	1537,49
640,5	1528,262
640,9	1522,548
641,4	1518,176
641,8	1514,433
642,2	1507,833
642,7	1503,89
643,1	1500,405
643,6	1495,519
644	1489,633
644,5	1483,633
644,9	1474,633
645,3	1472,69
645,8	1455,09
646,2	1446,862
646,7	1435,376
647,1	1431,062
647,6	1422,719
648	1417,033
648,4	1405,09
648,9	1403,748
649,3	1398,205
649,8	1396,548
650,2	1392,062
650,6	1380,033
651,1	1371,319
651,5	1377,262
652	1368,605
652,4	1356,033
652,9	1348,662
653,3	1336,948
653,7	1328,919
654,2	1324,319
654,6	1312,062
655,1	1303,376
655,5	1300,748
655,9	1296,29
656,4	1290,805
656,8	1285,662
657,3	1281,319
657,7	1270,919
658,2	1266,719
658,6	1255,462
659	1244,89
659,5	1234,262
659,9	1230,205
660,4	1218,805
660,8	1205,776
661,2	1198,376
661,7	1193,862
662,1	1189,119
662,6	1187,776
663	1183,09
663,4	1178,833
663,9	1178,776
664,3	1172,176
664,8	1164,205
665,2	1157,776
665,6	1146,976
666,1	1137,862
666,5	1127,205
667	1124,948
667,4	1114,519
667,9	1106,405
668,3	1097,662
668,7	1087,29
669,2	1085,748
669,6	1081,69
670,1	1072,376
670,5	1065,005
670,9	1060,005
671,4	1051,576
671,8	1051,09
672,3	1045,519
672,7	1040,376
673,1	1029,376
673,6	1027,748
674	1025,005
674,5	1020,576
674,9	1012,262
675,3	999,576
675,8	992,348
676,2	991,462
676,7	983,062
677,1	972,205
677,5	964,605
678	959,862
678,4	955,148
678,9	948,919
679,3	940,09
679,7	938,719
680,2	930,033
680,6	922,148
681,1	915,233
681,5	909,576
681,9	907,69
682,4	902,605
682,8	899,519
683,3	901,748
683,7	901,29
684,1	896,005
684,6	890,948
685	881,833
685,5	874,033
685,9	863,29
686,3	853,348
686,8	844,405
687,2	837,662
687,7	829,262
688,1	818,976
688,5	816,919
689	813,119
689,4	803,976
689,9	803,09
690,3	797,29
690,7	796,033
691,2	796,719
691,6	792,519
692	786,09
692,5	787,233
692,9	782,376
693,4	778,719
693,8	770,09
694,2	762,519
694,7	755,805
695,1	750,862
695,6	743,062
696	738,348
696,4	730,976
696,9	723,919
697,3	721,319
697,8	712,033
698,2	706,262
698,6	704,862
699,1	695,662
699,5	698,176
699,9	699,576
700,4	690,233
700,8	691,833
701,3	693,633
701,7	686,519
702,1	685,176
702,6	677,262
703	673,319
703,5	674,405
703,9	666,148
704,3	658,033
704,8	652,89
705,2	647,833
705,6	641,748
706,1	638,662
706,5	631,805
707	629,205
707,4	628,862
707,8	623,662
708,3	626,519
708,7	624,662
709,2	615,205
709,6	613,605
710	614,948
710,5	605,005
710,9	604,633
711,3	595,062
711,8	590,719
712,2	590,376
712,7	583,376
713,1	574,862
713,5	575,805
714	570,319
714,4	568,948
714,8	568,719
715,3	560,233
715,7	560,176
716,2	556,062
716,6	551,605
717	547,062
717,5	538,319
717,9	535,519
718,3	534,233
718,8	528,062
719,2	524,405
719,7	519,776
720,1	522,233
720,5	519,119
721	508,433
721,4	508,233
721,8	508,09
722,3	502,233
722,7	504,662
723,2	495,005
723,6	486,833
724	487,433
724,5	479,176
724,9	472,205
725,3	470,748
725,8	459,862
726,2	459,462
726,7	460,49
727,1	456,376
727,5	455,49
728	448,119
728,4	445,862
728,8	444,205
729,3	438,119
729,7	434,319
730,1	433,405
730,6	435,748
731	437,776
731,5	435,576
731,9	431,062
732,3	432,919
732,8	432,605
733,2	426,176
733,6	419,09
734,1	418,348
734,5	414,348
734,9	417,262
735,4	413,348
735,8	404,776
736,3	411,348
736,7	406,376
737,1	403,148
737,6	402,719
738	398,576
738,4	398,376
738,9	404,062
739,3	396,833
739,7	401,233
740,2	400,005
740,6	399,662
741,1	399,233
741,5	387,662
741,9	386,605
742,4	387,548
742,8	379,748
743,2	378,119
743,7	369,29
744,1	363,462
744,5	363,176
745	356,348
745,4	346,29
745,8	345,89
746,3	341,062
746,7	341,062
747,2	341,348
747,6	346,033
748	347,205
748,5	352,69
748,9	347,233
749,3	345,862
749,8	347,119
750,2	343,033
750,6	337,548
751,1	338,862
751,5	330,433
751,9	335,748
752,4	335,205
752,8	333,062
753,3	329,89
753,7	331,205
754,1	320,49
754,6	318,662
755	314,662
755,4	307,233
755,9	303,633
756,3	301,776
756,7	296,576
757,2	298,376
757,6	303,062
758	297,976
758,5	298,49
758,9	300,862
759,3	298,519
759,8	299,805
760,2	300,376
760,6	291,119
761,1	289,49
761,5	288,919
761,9	286,605
762,4	283,919
762,8	281,29
763,3	275,205
763,7	278,805
764,1	279,976
764,6	275,919
765	273,005
765,4	274,462
765,9	274,233
766,3	278,233
766,7	271,29
767,2	265,005
767,6	270,29
768	267,005
768,5	264,976
768,9	261,69
769,3	254,405
769,8	258,233
770,2	257,49
770,6	253,948
771,1	258,548
771,5	256,033
771,9	252,148
772,4	254,348
772,8	250,576
773,2	251,948
773,7	249,062
774,1	244,519
774,5	240,005
775	242,748
775,4	241,776
775,8	240,519
776,3	242,662
776,7	241,719
777,1	238,633
777,6	238,69
778	238,405
778,4	234,69
778,9	232,405
779,3	224,405
779,7	225,176
780,2	224,605
780,6	224,948
781	216,776
781,5	211,033
781,9	210,062
782,3	212,462
782,8	208,233
783,2	201,176
783,6	203,033
784,1	204,433
784,5	205,319
784,9	200,833
785,4	200,005
785,8	198,376
786,2	200,748
786,7	195,348
787,1	193,948
787,5	194,262
788	195,919
788,4	192,948
788,8	192,519
789,3	192,748
789,7	199,09
790,1	197,062
790,6	199,776
791	195,633
791,4	197,376
791,9	193,176
792,3	188,176
792,7	183,662
793,2	182,862
793,6	177,405
794	183,348
794,5	176,748
794,9	180,005
795,3	182,033
795,8	175,976
796,2	176,748
796,6	177,748
797,1	171,519
797,5	169,89
797,9	162,748
798,4	157,462
798,8	157,805
799,2	156,548
799,7	157,69
800,1	156,919
800,5	159,548
801	167,062
801,4	169,119
801,8	170,433
802,2	168,119
802,7	162,862
803,1	162,176
803,5	164,262
804	155,748
804,4	155,605
804,8	154,433
805,3	154,69
805,7	154,205
806,1	151,976
806,6	150,805
807	154,033
807,4	150,062
807,9	143,548
808,3	142,862
808,7	141,976
809,2	142,805
809,6	137,376
810	135,748
810,4	135,005
810,9	138,148
811,3	137,89
811,7	138,519
812,2	140,49
812,6	138,776
813	141,576
813,5	143,605
813,9	143,176
814,3	140,376
814,8	137,433
815,2	130,719
815,6	130,919
816,1	127,376
816,5	123,862
816,9	120,719
817,3	120,062
817,8	126,433
818,2	129,176
818,6	126,09
819,1	123,348
819,5	122,605
819,9	123,862
820,4	119,776
820,8	111,633
821,2	108,176
821,7	111,062
822,1	111,49
822,5	113,119
822,9	110,033
823,4	112,633
823,8	115,262
824,2	118,462
824,7	113,005
825,1	110,119
825,5	105,405
826	101,176
826,4	100,262
826,8	95,148
827,3	92,919
827,7	97,262
828,1	96,719
828,5	97,605
829	97,919
829,4	99,433
829,8	96,89
830,3	94,976
830,7	92,862
831,1	97,719
831,6	98,119
832	100,548
832,4	93,233
832,8	97,433
833,3	98,148
833,7	95,062
834,1	89,348
834,6	86,948
835	88,69
835,4	91,119
835,8	85,948
836,3	81,69
836,7	82,29
837,1	78,548
837,6	81,89
838	76,662
838,4	78,005
838,9	79,405
839,3	76,805
839,7	78,948
840,1	77,633
840,6	72,348
841	78,405
841,4	78,29
841,9	80,433
842,3	79,919
842,7	77,576
843,1	80,319
843,6	84,89
844	81,148
844,4	83,69
844,9	81,948
845,3	85,29
845,7	86,462
846,2	81,205
846,6	76,662
847	75,148
847,4	73,462
847,9	78,719
848,3	77,919
848,7	75,405
849,2	82,662
849,6	79,805
850	85,776
850,4	81,719
850,9	71,719
851,3	70,976
851,7	71,09
852,2	64,005
852,6	67,605
853	63,576
853,4	64,376
853,9	67,205
854,3	67,005
854,7	64,519
855,2	66,805
855,6	66,919
856	63,176
856,4	58,49
856,9	54,605
857,3	60,633
857,7	62,29
858,2	67,89
858,6	66,119
859	67,005
859,4	67,605
859,9	70,662
860,3	62,662
860,7	60,919
861,1	57,69
861,6	58,033
862	56,176
862,4	57,69
862,9	57,519
863,3	62,29
863,7	63,233
864,1	64,519
864,6	60,862
865	62,405
865,4	62,062
865,9	63,69
866,3	55,405
866,7	55,89
867,1	47,205
867,6	49,376
868	46,29
868,4	46,548
868,8	48,605
869,3	52,09
869,7	58,548
870,1	60,348
870,6	57,548
871	62,833
871,4	64,49
871,8	57,662
872,3	59,119
872,7	53,748
873,1	54,176
873,5	56,176
874	50,748
874,4	49,776
874,8	46,976
875,3	44,776
875,7	38,319
876,1	42,719
876,5	40,69
877	40,376
877,4	35,69
877,8	43,633
878,2	46,976
878,7	49,833
879,1	46,176
879,5	50,662
879,9	54,976
880,4	55,09
880,8	51,233
881,2	46,148
881,7	44,433
882,1	49,205
882,5	46,062
882,9	42,005
883,4	42,09
883,8	42,948
884,2	42,576
884,6	44,233
885,1	38,576
885,5	37,319
885,9	37,662
886,3	41,062
886,8	38,605
887,2	37,748
887,6	38,976
888	38,605
888,5	40,748
888,9	39,719
889,3	37,205
889,8	35,89
890,2	41,576
890,6	32,948
891	32,433
891,5	30,405
891,9	30,29
892,3	34,09
892,7	35,89
893,2	32,319
893,6	38,948
894	40,519
894,4	36,148
894,9	36,033
895,3	31,005
895,7	30,69
896,1	30,205
896,6	28,862
897	31,29
897,4	37,176
897,8	35,376
898,3	38,633
898,7	39,29
899,1	40,09
899,5	38,233
900	29,919
900,4	26,233
900,8	23,033
901,2	20,119
901,7	17,205
902,1	17,519
902,5	16,862
902,9	18,833
903,4	19,576
903,8	25,176
904,2	24,948
904,6	24,062
905,1	23,462
905,5	23,319
905,9	26,633
906,3	30,29
906,8	33,376
907,2	35,405
907,6	37,662
908	38,69
908,5	38,776
908,9	35,576
909,3	32,205
909,7	26,119
910,2	26,462
910,6	27,89
911	20,976
911,4	24,662
911,9	25,662
912,3	26,205
912,7	31,119
913,1	29,633
913,6	26,205
914	28,433
914,4	23,69
914,8	26,348
915,3	19,833
915,7	14,948
916,1	12,69
916,5	12,148
916,9	11,776
917,4	11,462
917,8	11,69
918,2	13,405
918,6	11,433
919,1	10,033
919,5	12,89
919,9	17,005
920,3	17,862
920,8	17,776
921,2	22,605
921,6	27,176
922	31,519
922,5	31,976
922,9	29,662
923,3	28,233
923,7	25,49
924,2	23,29
924,6	20,262
925	19,548
925,4	18,29
925,8	17,062
926,3	18,948
926,7	17,205
927,1	16,233
927,5	19,548
928	19,519
928,4	19,576
928,8	26,09
929,2	22,319
929,7	24,148
930,1	26,862
930,5	23,776
930,9	24,433
931,3	18,319
931,8	12,176
932,2	16,948
932,6	16,148
933	11,09
933,5	11,748
933,9	14,033
934,3	21,548
934,7	15,919
935,2	14,833
935,6	19,005
936	22,405
936,4	26,348
936,8	24,433
937,3	22,776
937,7	30,862
938,1	34,805
938,5	30,49
939	30,29
939,4	26,148
939,8	18,69
940,2	17,376
940,6	13,805
941,1	10,319
941,5	10,405
941,9	7,805
942,3	8,176
942,8	16,29
943,2	15,69
943,6	13,09
944	12,433
944,4	14,89
944,9	15,89
945,3	14,833
945,7	7,462
946,1	5,605
946,6	6,948
947	4,976
947,4	8,948
947,8	10,148
948,2	9,833
948,7	13,833
949,1	14,976
949,5	24,748
949,9	27,233
950,3	22,49
950,8	20,919
951,2	20,29
951,6	17,348
952	21,062
952,5	12,919
952,9	12,833
953,3	12,348
953,7	11,29
954,1	14,776
954,6	19,376
955	18,29
955,4	17,605
955,8	20,605
956,2	17,776
956,7	18,605
957,1	16,09
957,5	17,119
957,9	17,176
958,3	17,262
958,8	14,09
959,2	19,062
959,6	23,119
960	19,862
960,5	19,205
960,9	21,462
961,3	20,319
961,7	18,976
962,1	15,462
962,6	17,948
963	18,548
963,4	14,833
963,8	13,633
964,2	17,033
964,7	19,776
965,1	20,49
965,5	13,89
965,9	16,262
966,3	16,29
966,8	16,319
967,2	15,605
967,6	12,262
968	11,376
968,4	14,462
968,9	17,348
969,3	24,662
969,7	17,948
970,1	15,605
970,5	14,233
971	17,719
971,4	17,376
971,8	14,405
972,2	8,919
972,6	12,262
973,1	16,976
973,5	18,348
973,9	18,605
974,3	21,948
974,7	26,348
975,2	27,405
975,6	29,005
976	27,376
976,4	25,205
976,8	23,176
977,3	16,29
977,7	14,348
978,1	13,233
978,5	11,605
978,9	8,69
979,4	12,376
979,8	10,605
980,2	12,033
980,6	6,948
981	9,062
981,5	5,519
981,9	5,176
982,3	6,062
982,7	7,033
983,1	5,005
983,6	6,976
984	6,976
984,4	12,833
984,8	18,29
985,2	15,262
985,6	12,319
986,1	14,176
986,5	17,433
986,9	10,862
987,3	11,233
987,7	8,205
988,2	10,29
988,6	12,519
989	14,862
989,4	12,462
989,8	14,519
990,3	12,062
990,7	10,662
991,1	9,89
991,5	14,005
991,9	13,605
992,3	15,605
992,8	21,776
993,2	20,605
993,6	23,776
994	27,119
994,4	26,633
994,9	26,948
995,3	25,633
995,7	21,519
996,1	18,233
996,5	18,748
996,9	15,49
997,4	14,262
997,8	8,376
998,2	7,89
998,6	1,805
999	5,576
999,5	4,748
999,9	3,233
1000,3	-1,595
1000,7	4,462
1001,1	4,09
1001,5	9,09
1002	13,062
1002,4	12,805
1002,8	16,462
1003,2	20,405
1003,6	23,005
1004	20,519
1004,5	17,919
1004,9	16,633
1005,3	14,576
1005,7	15,719
1006,1	11,319
1006,6	6,719
1007	11,976
1007,4	12,719
1007,8	11,433
1008,2	6,49
1008,6	4,948
1009,1	7,262
1009,5	8,376
1009,9	4,919
1010,3	5,862
1010,7	2,976
1011,1	6,748
1011,6	4,233
1012	4,776
1012,4	5,862
1012,8	5,433
1013,2	10,89
1013,6	16,09
1014,1	16,662
1014,5	17,033
1014,9	16,976
1015,3	13,005
1015,7	16,176
1016,1	11,519
1016,6	9,833
1017	12,805
1017,4	13,433
1017,8	15,662
1018,2	16,719
1018,6	13,29
1019,1	15,233
1019,5	12,233
1019,9	8,776
1020,3	9,376
1020,7	10,262
1021,1	11,462
1021,6	14,605
1022	14,49
1022,4	16,319
1022,8	18,405
1023,2	18,176
1023,6	16,462
1024,1	19,319
1024,5	20,319
1024,9	17,033
1025,3	18,176
1025,7	18,405
1026,1	21,833
1026,6	26,176
1027	23,748
1027,4	24,033
1027,8	25,919
1028,2	23,062
1028,6	24,233
1029	21,09
1029,5	16,919
1029,9	15,433
1030,3	10,033
1030,7	11,148
1031,1	15,405
1031,5	11,89
1032	10,805
1032,4	8,662
1032,8	13,519
1033,2	15,205
1033,6	13,005
1034	9,576
1034,4	12,862
1034,9	16,005
1035,3	12,548
1035,7	11,176
1036,1	10,976
1036,5	9,062
1036,9	12,433
1037,4	12,919
1037,8	7,748
1038,2	11,29
1038,6	11,148
1039	17,433
1039,4	26,776
1039,8	21,462
1040,3	19,548
1040,7	22,119
1041,1	22,176
1041,5	19,348
1041,9	12,719
1042,3	7,976
1042,7	11,776
1043,2	10,09
1043,6	7,29
1044	6,462
1044,4	6,633
1044,8	8,233
1045,2	5,062
1045,6	7,119
1046,1	9,09
1046,5	9,348
1046,9	9,462
1047,3	12,205
1047,7	11,005
1048,1	7,29
1048,5	3,433
1049	1,919
1049,4	9,748
1049,8	8,319
1050,2	7,405
1050,6	13,805
1051	17,805
1051,4	22,205
1051,9	24,719
1052,3	22,262
1052,7	27,519
1053,1	22,89
1053,5	19,405
1053,9	19,519
1054,3	16,205
1054,8	19,005
1055,2	19,49
1055,6	24,805
1056	26,062
1056,4	23,519
1056,8	22,69
1057,2	17,862
1057,6	10,148
1058,1	6,262
1058,5	-4,138
1058,9	-0,281
1059,3	0,49
1059,7	3,405
1060,1	11,09
1060,5	14,119
1061	17,376
1061,4	16,09
1061,8	16,719
1062,2	15,633
1062,6	16,519
1063	14,033
1063,4	11,748
1063,8	10,29
1064,3	10,29
1064,7	11,119
1065,1	12,776
1065,5	9,976
1065,9	8,49
1066,3	9,262
1066,7	4,062
1067,1	5,09
1067,6	7,148
1068	2,405
1068,4	4,69
1068,8	10,348
1069,2	8,519
1069,6	12,405
1070	16,262
1070,4	9,748
1070,9	12,376
1071,3	11,862
1071,7	5,062
1072,1	11,233
1072,5	9,319
1072,9	9,433
1073,3	13,319
1073,7	12,148
1074,2	13,719
1074,6	17,405
1075	12,005
1075,4	13,662
1075,8	16,49
1076,2	16,262
1076,6	21,49
1077	20,605
1077,5	24,005
1077,9	26,462
1078,3	25,662
1078,7	21,262
1079,1	22,148
1079,5	20,148
1079,9	17,833
1080,3	14,976
1080,7	17,062
1081,2	20,576
1081,6	17,948
1082	15,033
1082,4	17,919
1082,8	20,548
1083,2	20,919
1083,6	21,262
1084	18,605
1084,5	22,405
1084,9	16,833
1085,3	10,776
1085,7	10,262
1086,1	6,633
1086,5	5,89
1086,9	9,005
1087,3	8,519
1087,7	15,09
1088,2	14,948
1088,6	11,605
1089	13,576
1089,4	11,005
1089,8	11,69
1090,2	10,233
1090,6	9,948
1091	18,633
1091,4	24,205
1091,9	22,49
1092,3	25,062
1092,7	21,405
1093,1	24,376
1093,5	23,776
1093,9	15,033
1094,3	13,805
1094,7	12,776
1095,1	13,148
1095,5	14,805
1096	9,148
1096,4	6,319
1096,8	7,148
1097,2	2,776
1097,6	9,719
1098	4,948
1098,4	4,405
1098,8	8,776
1099,2	18,405
1099,6	20,69
1100,1	22,376
1100,5	16,776
1100,9	17,405
1101,3	14,719
1101,7	11,948
1102,1	4,405
1102,5	4,376
1102,9	4,49
1103,3	5,148
1103,7	7,319
1104,2	12,89
1104,6	16,49
1105	16,662
1105,4	16,919
1105,8	15,405
1106,2	13,69
1106,6	11,833
1107	7,262
1107,4	4,833
1107,8	3,793
1108,3	-0,267
