Data from Subt2_250.txt Node
Date: Sat Aug 26 18:58:38 MSK 2023
User: vat
Spectrometer: MAYP114033
Trigger mode: 0
Integration Time (sec): 1,000000E0
Scans to average: 5
Electric dark correction enabled: true
Nonlinearity correction enabled: false
Boxcar width: 3
XAxis mode: Wavelengths
Number of Pixels in Spectrum: 2068
>>>>>Begin Spectral Data<<<<<
199,4	0,05
199,9	3,16
200,4	3,867
200,8	4,314
201,3	5,171
201,8	5,571
202,2	4,886
202,7	6,886
203,2	4,714
203,6	3,629
204,1	1,429
204,6	0,457
205	3,114
205,5	3,571
206	0,629
206,4	-0,171
206,9	-2,514
207,4	0,371
207,8	2,171
208,3	0,486
208,8	4,457
209,2	8,629
209,7	8,657
210,2	11,286
210,6	7,943
211,1	8,286
211,5	2,829
212	-2,971
212,5	-3,286
212,9	-3,886
213,4	-2,2
213,9	1
214,3	-1,2
214,8	4,343
215,3	6,171
215,7	8
216,2	13,2
216,7	10,543
217,1	9,486
217,6	11,743
218,1	7,229
218,5	5,657
219	-6,343
219,5	-5,429
219,9	-6,114
220,4	2,314
220,9	1,771
221,3	4,429
221,8	7,429
222,3	17,257
222,7	14,457
223,2	12,543
223,6	2,6
224,1	2
224,6	8,857
225	8,143
225,5	6,2
226	5,829
226,4	9,057
226,9	10,943
227,4	10,914
227,8	-0,857
228,3	-3,943
228,8	-2,143
229,2	0,486
229,7	0,143
230,2	-2,514
230,6	-0,057
231,1	11,543
231,5	14,8
232	10,371
232,5	8,457
232,9	10,314
233,4	11,486
233,9	6,114
234,3	1,143
234,8	1,057
235,3	2,943
235,7	3,543
236,2	6,229
236,7	8,857
237,1	15,771
237,6	12,114
238,1	10,371
238,5	8,571
239	9,143
239,4	10,114
239,9	4,886
240,4	-0,143
240,8	6,743
241,3	4,457
241,8	7,971
242,2	6,257
242,7	1,571
243,2	6,857
243,6	4,943
244,1	6,571
244,6	11,657
245	9,257
245,5	10,971
245,9	9,086
246,4	4,8
246,9	9,8
247,3	5,743
247,8	6,371
248,3	13,6
248,7	11,857
249,2	14,914
249,7	19
250,1	17,6
250,6	14,886
251	16,686
251,5	13,514
252	12,457
252,4	13,914
252,9	8,543
253,4	5,086
253,8	3,8
254,3	0,086
254,8	-1,6
255,2	-3,943
255,7	-6,914
256,1	-0,143
256,6	2,543
257,1	8,371
257,5	6,2
258	5,714
258,5	9,514
258,9	10,714
259,4	6,829
259,9	6,743
260,3	1,857
260,8	-1,857
261,2	-1,8
261,7	-2,829
262,2	-8,686
262,6	-7,686
263,1	-7,029
263,6	-5,829
264	5,486
264,5	7,629
264,9	10,286
265,4	17,143
265,9	18,771
266,3	21,629
266,8	24,714
267,3	19,829
267,7	14,657
268,2	10,971
268,7	7,514
269,1	4,543
269,6	2,429
270	1,314
270,5	2,8
271	7,571
271,4	8,771
271,9	7,857
272,4	12,714
272,8	16,286
273,3	11,914
273,7	11,343
274,2	9,2
274,7	7,8
275,1	10,743
275,6	7,343
276,1	0,057
276,5	5,114
277	3,114
277,4	2,829
277,9	7,971
278,4	6,514
278,8	9,429
279,3	16
279,8	15
280,2	16,857
280,7	19,829
281,1	12,429
281,6	13,029
282,1	11,886
282,5	8,829
283	7,314
283,4	7
283,9	6,629
284,4	13,4
284,8	12,486
285,3	10,543
285,8	9,686
286,2	11,257
286,7	10,657
287,1	6,714
287,6	4,229
288,1	5,657
288,5	7,771
289	6,714
289,5	8,457
289,9	7,971
290,4	12,514
290,8	10,4
291,3	12,657
291,8	12,857
292,2	12,943
292,7	13,286
293,1	13,714
293,6	13,029
294,1	15
294,5	12,486
295	15
295,5	12,629
295,9	12,057
296,4	7,714
296,8	7,257
297,3	3,857
297,8	0,229
298,2	-4,457
298,7	0,086
299,1	0,029
299,6	1,029
300,1	0,343
300,5	5,257
301	9,571
301,5	12,143
301,9	10,343
302,4	1,629
302,8	5,029
303,3	2,286
303,8	-4,486
304,2	-6,714
304,7	-9,371
305,1	-12,286
305,6	-8,286
306,1	-4,571
306,5	-0,829
307	6,886
307,4	11,057
307,9	12,143
308,4	13,6
308,8	11,857
309,3	11,971
309,8	14,086
310,2	11,8
310,7	8,857
311,1	7,857
311,6	8,571
312,1	10,286
312,5	7,743
313	4,857
313,4	2,257
313,9	1,171
314,4	0,229
314,8	1,2
315,3	3,8
315,7	-1,771
316,2	-4,714
316,7	-0,229
317,1	8,171
317,6	11,829
318	13,286
318,5	12,171
319	15,343
319,4	20,029
319,9	19,429
320,3	13,771
320,8	8,714
321,3	9,429
321,7	11,314
322,2	12,457
322,6	9,4
323,1	4,457
323,6	2,029
324	3,457
324,5	-0,657
324,9	1,286
325,4	2,086
325,9	2,857
326,3	7,943
326,8	10,543
327,2	9,257
327,7	13,571
328,2	9,429
328,6	5,114
329,1	0,771
329,5	-1,114
330	-2,743
330,5	0,686
330,9	5,171
331,4	8,6
331,8	12,114
332,3	17,743
332,8	22,543
333,2	20,629
333,7	20,8
334,1	13,657
334,6	10,743
335,1	6,914
335,5	5,2
336	0,4
336,4	5,971
336,9	8,143
337,4	9,971
337,8	12,8
338,3	17,029
338,7	17,714
339,2	15,714
339,7	16,571
340,1	13,914
340,6	12,914
341	11,114
341,5	9,2
342	7,743
342,4	5,229
342,9	0,457
343,3	0,286
343,8	-0,486
344,2	1,486
344,7	6,257
345,2	5,829
345,6	9,457
346,1	11,657
346,5	10,543
347	8,257
347,5	5,171
347,9	6,286
348,4	8,486
348,8	12,543
349,3	12,286
349,8	13,886
350,2	21
350,7	19,829
351,1	17,029
351,6	18,829
352	18,886
352,5	20,914
353	29,829
353,4	30,343
353,9	41,143
354,3	52,143
354,8	58,514
355,3	73,914
355,7	90,771
356,2	102,571
356,6	123,514
357,1	143,943
357,5	166,343
358	196,857
358,5	222,914
358,9	256,571
359,4	296,2
359,8	337,886
360,3	390,371
360,8	439,4
361,2	499,943
361,7	573,543
362,1	652
362,6	734,629
363	818,743
363,5	912,314
364	1011,314
364,4	1110,971
364,9	1202,829
365,3	1294,657
365,8	1383,429
366,3	1471,571
366,7	1543,971
367,2	1613,2
367,6	1664,343
368,1	1710,857
368,5	1737,771
369	1753,057
369,5	1753,886
369,9	1738,6
370,4	1712
370,8	1678,343
371,3	1622,857
371,7	1568,829
372,2	1501,543
372,7	1431,457
373,1	1356,371
373,6	1277,943
374	1196,229
374,5	1121,886
374,9	1040,286
375,4	966,914
375,9	894,371
376,3	824,686
376,8	753,4
377,2	695,857
377,7	633,057
378,2	579,6
378,6	531,657
379,1	483,8
379,5	447,086
380	419,8
380,4	382
380,9	351,886
381,4	320,171
381,8	294,543
382,3	276,114
382,7	252,086
383,2	232,057
383,6	215,343
384,1	203,229
384,6	198,286
385	181,543
385,5	167,171
385,9	158,714
386,4	147,629
386,8	140
387,3	127,171
387,7	114,914
388,2	109,4
388,7	105,686
389,1	99,429
389,6	92,114
390	87,171
390,5	87,286
390,9	84,029
391,4	80,114
391,9	73,743
392,3	69,057
392,8	60,486
393,2	53,2
393,7	48,114
394,1	43,829
394,6	43,829
395,1	45,886
395,5	43,057
396	44,829
396,4	46,086
396,9	44,6
397,3	50,829
397,8	50,457
398,2	44,914
398,7	42,657
399,2	40,714
399,6	41,114
400,1	41
400,5	30,686
401	29,771
401,4	24,086
401,9	27,686
402,4	30,771
402,8	31,371
403,3	34,971
403,7	36,286
404,2	33,771
404,6	42,086
405,1	39,2
405,5	37,771
406	36,171
406,5	33,914
406,9	37,657
407,4	38,629
407,8	37,4
408,3	40,743
408,7	37,343
409,2	37,657
409,6	39,486
410,1	39,629
410,6	40,2
411	41,657
411,5	38,4
411,9	43,914
412,4	49,543
412,8	52,029
413,3	51,114
413,7	53,686
414,2	55,829
414,7	62,2
415,1	70,114
415,6	72,829
416	73,543
416,5	79,829
416,9	78,571
417,4	80,771
417,8	88,114
418,3	86,4
418,8	83,571
419,2	84,257
419,7	87,229
420,1	90,4
420,6	91,486
421	87,8
421,5	91,114
421,9	95,743
422,4	100,2
422,8	97,8
423,3	99,029
423,8	99,6
424,2	97,4
424,7	95,029
425,1	93,4
425,6	93,171
426	91,314
426,5	95,857
426,9	96,514
427,4	99,571
427,9	95,029
428,3	97,829
428,8	94,171
429,2	94,486
429,7	90,314
430,1	86,514
430,6	80,657
431	87,943
431,5	85,029
431,9	87,057
432,4	87
432,8	93,771
433,3	100,429
433,8	108,4
434,2	111,114
434,7	114,743
435,1	118,2
435,6	123,314
436	123,714
436,5	129,886
436,9	131,743
437,4	132,943
437,8	136,343
438,3	142,743
438,8	147,486
439,2	151,829
439,7	156,657
440,1	163,629
440,6	175,829
441	181,114
441,5	186,257
441,9	196,4
442,4	201,286
442,8	204,114
443,3	212,543
443,7	216,543
444,2	229,057
444,7	238,886
445,1	250,2
445,6	259,943
446	273,943
446,5	280,571
446,9	284,2
447,4	289,629
447,8	300,571
448,3	312,514
448,7	326,486
449,2	338,771
449,6	361,114
450,1	378,314
450,6	397,686
451	411,286
451,5	426,286
451,9	442,2
452,4	460,657
452,8	468,686
453,3	491,314
453,7	503,943
454,2	522,714
454,6	533,914
455,1	552,857
455,5	565,886
456	588,657
456,4	601,429
456,9	625,714
457,3	647,229
457,8	669,057
458,3	691,029
458,7	713,657
459,2	733,6
459,6	756,829
460,1	780,086
460,5	797,114
461	825,514
461,4	844,8
461,9	866,4
462,3	890,229
462,8	917,457
463,2	937,543
463,7	967,771
464,1	992,629
464,6	1021,743
465	1050,886
465,5	1076,257
466	1099,571
466,4	1129,029
466,9	1157,857
467,3	1185,4
467,8	1211,857
468,2	1239,571
468,7	1269,829
469,1	1307,371
469,6	1335,086
470	1362,343
470,5	1390,086
470,9	1424,257
471,4	1457,114
471,8	1488,514
472,3	1511,971
472,7	1544,714
473,2	1569,857
473,6	1593,914
474,1	1618,514
474,5	1643,971
475	1673,057
475,4	1702,4
475,9	1730,2
476,4	1756,829
476,8	1794,457
477,3	1821,343
477,7	1852,2
478,2	1877,8
478,6	1898,771
479,1	1919,429
479,5	1952,657
480	1971,486
480,4	1999,057
480,9	2017,571
481,3	2037,171
481,8	2067,257
482,2	2089,514
482,7	2108,314
483,1	2134,771
483,6	2156,171
484	2181,857
484,5	2210,371
484,9	2235,571
485,4	2263,971
485,8	2287,743
486,3	2305,571
486,7	2324,971
487,2	2339,086
487,6	2352,914
488,1	2365,086
488,5	2380,171
489	2398,6
489,4	2415,829
489,9	2427,886
490,4	2450,314
490,8	2468,914
491,3	2495,057
491,7	2507,457
492,2	2523,657
492,6	2534,571
493,1	2556,857
493,5	2557,657
494	2563,6
494,4	2566,143
494,9	2579,114
495,3	2592,114
495,8	2605,829
496,2	2614,8
496,7	2635,057
497,1	2654,086
497,6	2665,2
498	2682,857
498,5	2691,257
498,9	2701,029
499,4	2701,571
499,8	2716,029
500,3	2724,571
500,7	2730,343
501,2	2728,114
501,6	2730
502,1	2737,629
502,5	2754,657
503	2758,714
503,4	2762,657
503,9	2765,114
504,3	2777
504,8	2786,971
505,2	2790,771
505,7	2792,029
506,1	2801,429
506,6	2807,2
507	2812,486
507,5	2822,6
507,9	2829,343
508,4	2838,743
508,8	2842,857
509,3	2843,429
509,7	2849,2
510,2	2857,171
510,6	2854,029
511,1	2861,114
511,5	2866,6
512	2877,486
512,4	2880,343
512,9	2882,314
513,3	2884,229
513,8	2891,571
514,2	2893,971
514,7	2897,857
515,1	2899,829
515,6	2907,371
516	2918,4
516,5	2932,371
516,9	2939,171
517,4	2944,371
517,8	2951,857
518,3	2962,886
518,7	2967,229
519,2	2967,086
519,6	2969,171
520,1	2971,543
520,5	2979,914
521	2978,457
521,4	2979,086
521,9	2984,343
522,3	2986,857
522,8	2989,171
523,2	2996,171
523,7	2992,257
524,1	2999,6
524,6	3009,829
525	3013,314
525,5	3026,686
525,9	3040,286
526,4	3043,4
526,8	3055,714
527,3	3064,514
527,7	3065
528,2	3071,743
528,6	3071,771
529,1	3074,686
529,5	3085,4
530	3087,971
530,4	3092,971
530,9	3102,657
531,3	3110,486
531,8	3120,4
532,2	3133,086
532,6	3141,829
533,1	3151,743
533,5	3161,514
534	3166,2
534,4	3177,2
534,9	3188,743
535,3	3189,057
535,8	3194,829
536,2	3206,143
536,7	3214,657
537,1	3224,571
537,6	3234,029
538	3239,371
538,5	3247,086
538,9	3251,314
539,4	3256,143
539,8	3264,686
540,3	3277,8
540,7	3278,543
541,2	3284,286
541,6	3296,257
542,1	3308,257
542,5	3318,657
543	3322,2
543,4	3322,257
543,9	3338,943
544,3	3347,914
544,8	3352,143
545,2	3354,029
545,7	3361,314
546,1	3369,086
546,5	3384,886
547	3387,314
547,4	3397,257
547,9	3411,257
548,3	3424,257
548,8	3437,171
549,2	3445,543
549,7	3450,6
550,1	3463,143
550,6	3469,771
551	3478,543
551,5	3486,571
551,9	3490,143
552,4	3503,657
552,8	3507,057
553,3	3507,857
553,7	3515,429
554,2	3516,171
554,6	3523,686
555,1	3531,171
555,5	3529,257
555,9	3541,8
556,4	3548,371
556,8	3551,857
557,3	3562,286
557,7	3568,429
558,2	3573,6
558,6	3587,829
559,1	3589,314
559,5	3598,943
560	3603,743
560,4	3607
560,9	3613,943
561,3	3615,229
561,8	3613,086
562,2	3617,171
562,7	3619,943
563,1	3627,286
563,6	3630,514
564	3638,2
564,4	3643,6
564,9	3650,657
565,3	3652,057
565,8	3656,2
566,2	3663,486
566,7	3669,657
567,1	3667,686
567,6	3668,143
568	3674,629
568,5	3678,114
568,9	3680,4
569,4	3680,857
569,8	3678,4
570,3	3680
570,7	3681,229
571,1	3679,114
571,6	3680,429
572	3686,029
572,5	3690,429
572,9	3690,229
573,4	3692,829
573,8	3699,457
574,3	3697,857
574,7	3700,029
575,2	3696
575,6	3696,629
576,1	3704,314
576,5	3704,286
576,9	3693,457
577,4	3688,829
577,8	3683,257
578,3	3677,486
578,7	3673,629
579,2	3670,829
579,6	3665,571
580,1	3664,2
580,5	3663,371
581	3664,543
581,4	3663,914
581,9	3658,057
582,3	3649,086
582,7	3643,429
583,2	3639,514
583,6	3637,171
584,1	3630,486
584,5	3623
585	3621,486
585,4	3612,257
585,9	3605,714
586,3	3607,314
586,8	3602,2
587,2	3595,829
587,6	3596,886
588,1	3585,714
588,5	3588,029
589	3587,114
589,4	3579,657
589,9	3573,114
590,3	3568,886
590,8	3564,4
591,2	3561,343
591,7	3552,8
592,1	3545,229
592,5	3538,714
593	3533,229
593,4	3525,343
593,9	3508,857
594,3	3509,086
594,8	3499,343
595,2	3492,857
595,7	3488,714
596,1	3488,857
596,6	3483,429
597	3483,229
597,4	3474,257
597,9	3470,657
598,3	3467,257
598,8	3461,714
599,2	3449,743
599,7	3448,8
600,1	3436,486
600,6	3419,429
601	3409,514
601,4	3403,886
601,9	3394,286
602,3	3385,971
602,8	3379,143
603,2	3378,257
603,7	3371,371
604,1	3371,086
604,6	3358,314
605	3343,229
605,4	3334,629
605,9	3318,171
606,3	3303,886
606,8	3292,657
607,2	3279,743
607,7	3268,657
608,1	3263,171
608,6	3254,914
609	3254,057
609,4	3249,657
609,9	3242,2
610,3	3232,171
610,8	3224,771
611,2	3215,743
611,7	3207,286
612,1	3190,543
612,6	3181,114
613	3172,6
613,4	3165,6
613,9	3154,829
614,3	3142,057
614,8	3129,543
615,2	3114,743
615,7	3103,829
616,1	3096,143
616,6	3074,829
617	3061,743
617,4	3055,371
617,9	3044,343
618,3	3032,229
618,8	3017,829
619,2	3000,371
619,7	2991,971
620,1	2978,4
620,5	2964,229
621	2945
621,4	2940,8
621,9	2926,8
622,3	2914,6
622,8	2902,2
623,2	2888,714
623,6	2875,086
624,1	2872,943
624,5	2859,2
625	2850,4
625,4	2840
625,9	2826,029
626,3	2818,2
626,8	2804,6
627,2	2787,171
627,6	2767,4
628,1	2747,886
628,5	2734,114
629	2715,229
629,4	2697,857
629,9	2682,286
630,3	2666
630,7	2653,343
631,2	2647,086
631,6	2636,886
632,1	2628,429
632,5	2619,4
633	2611,971
633,4	2598,343
633,8	2583,914
634,3	2566,857
634,7	2549,971
635,2	2537,886
635,6	2524,657
636,1	2507,4
636,5	2494,886
636,9	2474,286
637,4	2458,686
637,8	2444,029
638,3	2425,771
638,7	2408,743
639,2	2394,714
639,6	2379,457
640	2374,2
640,5	2362,514
640,9	2349,6
641,4	2343,343
641,8	2329,371
642,2	2314,571
642,7	2313,2
643,1	2307,714
643,6	2296,771
644	2289,257
644,5	2276,371
644,9	2268,829
645,3	2258,771
645,8	2236,571
646,2	2224,457
646,7	2213,229
647,1	2203,143
647,6	2191,029
648	2178,543
648,4	2163,429
648,9	2161,886
649,3	2146,714
649,8	2140,457
650,2	2124,971
650,6	2118,971
651,1	2108,914
651,5	2108,4
652	2089,286
652,4	2072,314
652,9	2057,857
653,3	2044,2
653,7	2025,343
654,2	2011,829
654,6	1993
655,1	1984,4
655,5	1982,629
655,9	1968,257
656,4	1965,029
656,8	1954,629
657,3	1943,2
657,7	1940,086
658,2	1929,943
658,6	1915,514
659	1906,057
659,5	1891,514
659,9	1883,914
660,4	1876,2
660,8	1858,8
661,2	1846,914
661,7	1841,857
662,1	1827,657
662,6	1818,486
663	1807,257
663,4	1791,457
663,9	1781,657
664,3	1769,657
664,8	1752,857
665,2	1742,029
665,6	1729,914
666,1	1719,686
666,5	1708,943
667	1694,914
667,4	1678,971
667,9	1669,686
668,3	1659,686
668,7	1646,829
669,2	1637,457
669,6	1629,886
670,1	1623,714
670,5	1614,6
670,9	1601,914
671,4	1590,886
671,8	1579,457
672,3	1569,543
672,7	1559,6
673,1	1546,286
673,6	1533,571
674	1525,286
674,5	1517
674,9	1502,486
675,3	1487,4
675,8	1477,629
676,2	1472,029
676,7	1461,314
677,1	1448,943
677,5	1435,771
678	1430,229
678,4	1423,229
678,9	1412,086
679,3	1400,257
679,7	1394,714
680,2	1379,629
680,6	1370,6
681,1	1362,371
681,5	1354,343
681,9	1347,4
682,4	1339,4
682,8	1331,371
683,3	1330,8
683,7	1328,886
684,1	1320,629
684,6	1310,629
685	1300,543
685,5	1285,886
685,9	1277,114
686,3	1261,514
686,8	1248,2
687,2	1239,6
687,7	1227,143
688,1	1211,114
688,5	1206,086
689	1201,743
689,4	1194,6
689,9	1184,857
690,3	1172,4
690,7	1168,229
691,2	1169,229
691,6	1162,429
692	1151,686
692,5	1148,829
692,9	1141,6
693,4	1139,657
693,8	1129,2
694,2	1119,657
694,7	1112,286
695,1	1103,171
695,6	1091,857
696	1086,457
696,4	1077,429
696,9	1070,571
697,3	1056,057
697,8	1050,371
698,2	1042,629
698,6	1039,343
699,1	1033,714
699,5	1027,686
699,9	1024,457
700,4	1021,286
700,8	1012,486
701,3	1009,286
701,7	999,086
702,1	988,086
702,6	979,457
703	973,6
703,5	971,2
703,9	966,371
704,3	961,229
704,8	955,886
705,2	954,429
705,6	947,257
706,1	936,4
706,5	925,914
707	918,8
707,4	915,914
707,8	909,886
708,3	904,629
708,7	897,6
709,2	893,057
709,6	887,6
710	884,4
710,5	868,029
710,9	863,143
711,3	853,257
711,8	851,143
712,2	846,771
712,7	844,029
713,1	835,8
713,5	835
714	829,714
714,4	819,2
714,8	814,286
715,3	803,943
715,7	792,257
716,2	784,914
716,6	778,286
717	771,743
717,5	771,943
717,9	760
718,3	754,886
718,8	750,486
719,2	742,114
719,7	734,743
720,1	731,686
720,5	728,714
721	727,314
721,4	722,743
721,8	719,943
722,3	715,086
722,7	712,229
723,2	703,686
723,6	690,114
724	682,714
724,5	679,629
724,9	672,686
725,3	670,2
725,8	663,514
726,2	664,343
726,7	664,257
727,1	658,4
727,5	654,857
728	648,943
728,4	643,829
728,8	639,486
729,3	629,629
729,7	622,886
730,1	622,686
730,6	618,8
731	617,629
731,5	609,829
731,9	607,314
732,3	606,971
732,8	603,857
733,2	598,657
733,6	594,8
734,1	591,714
734,5	592,343
734,9	587,714
735,4	583,543
735,8	574,771
736,3	574,714
736,7	566,943
737,1	566,629
737,6	563,429
738	557,743
738,4	551,086
738,9	555,086
739,3	547,514
739,7	546,314
740,2	539,314
740,6	539,086
741,1	538,571
741,5	533,114
741,9	529,6
742,4	531,486
742,8	529,571
743,2	529,6
743,7	517,6
744,1	513,571
744,5	511,771
745	507,714
745,4	498,914
745,8	495,743
746,3	489,086
746,7	488,314
747,2	485,171
747,6	485,543
748	488,486
748,5	489,4
748,9	480,457
749,3	472,714
749,8	473,086
750,2	469,829
750,6	463,143
751,1	455,086
751,5	450,457
751,9	449,371
752,4	448,914
752,8	441,943
753,3	439,943
753,7	439,486
754,1	429,429
754,6	421,486
755	418,057
755,4	417,486
755,9	414
756,3	409,171
756,7	407,114
757,2	409,714
757,6	410,371
758	409,657
758,5	404
758,9	405,971
759,3	406,857
759,8	402,857
760,2	400,057
760,6	396,829
761,1	387,2
761,5	388,314
761,9	383,571
762,4	372,543
762,8	368,714
763,3	361,457
763,7	357,943
764,1	363,657
764,6	359,171
765	358,314
765,4	362,514
765,9	359,4
766,3	361,057
766,7	357,314
767,2	352,029
767,6	351,857
768	346,914
768,5	341,343
768,9	343,086
769,3	343,829
769,8	343,829
770,2	348,343
770,6	343,8
771,1	347,257
771,5	348,8
771,9	342,457
772,4	342
772,8	336,171
773,2	330,714
773,7	327,314
774,1	323,257
774,5	314,657
775	313,171
775,4	306,886
775,8	306,6
776,3	303,343
776,7	303,086
777,1	299,371
777,6	303,343
778	301,6
778,4	297,514
778,9	298,029
779,3	295,743
779,7	296,086
780,2	295,629
780,6	288,171
781	281,486
781,5	277,4
781,9	273,686
782,3	268,571
782,8	267,6
783,2	260,914
783,6	265,257
784,1	263,543
784,5	266,057
784,9	262,486
785,4	264,714
785,8	259,286
786,2	262,343
786,7	259,514
787,1	259,543
787,5	256,057
788	257,971
788,4	258,114
788,8	258,543
789,3	253,971
789,7	255,029
790,1	256,086
790,6	254,886
791	246,229
791,4	244,057
791,9	234,914
792,3	232,429
792,7	226,629
793,2	217,971
793,6	219,343
794	222,371
794,5	213,771
794,9	218,171
795,3	215,171
795,8	213,486
796,2	218,229
796,6	216,286
797,1	216,714
797,5	217,229
797,9	213,857
798,4	211,8
798,8	210,743
799,2	208,286
799,7	208,543
800,1	204,514
800,5	205,486
801	207,657
801,4	205,829
801,8	202,143
802,2	199,429
802,7	190,514
803,1	191,2
803,5	186,514
804	178,314
804,4	181,857
804,8	182,971
805,3	186,457
805,7	188,429
806,1	185,314
806,6	186,4
807	188,171
807,4	180,829
807,9	176,714
808,3	173,6
808,7	172,886
809,2	173,6
809,6	174,857
810	176,057
810,4	179,857
810,9	179,714
811,3	178,086
811,7	178,371
812,2	180,114
812,6	174,029
813	175,229
813,5	171,257
813,9	170,771
814,3	166,771
814,8	165,029
815,2	158,686
815,6	160
816,1	155,171
816,5	154,571
816,9	154,057
817,3	154,371
817,8	156,886
818,2	156,571
818,6	151,971
819,1	150,086
819,5	148,257
819,9	149,171
820,4	144,286
820,8	137,257
821,2	128,314
821,7	129,686
822,1	131,314
822,5	135,943
822,9	131,257
823,4	130,6
823,8	134,743
824,2	143,057
824,7	138,8
825,1	131,886
825,5	125,229
826	122,886
826,4	122,914
826,8	118,4
827,3	116,971
827,7	119,914
828,1	121,686
828,5	120,714
829	117,114
829,4	117,8
829,8	113,114
830,3	112,543
830,7	108,143
831,1	105,829
831,6	103,457
832	104,914
832,4	105,029
832,8	105,314
833,3	101,943
833,7	102,571
834,1	101,314
834,6	100,714
835	102,171
835,4	104,143
835,8	102,686
836,3	102,457
836,7	101,429
837,1	100,971
837,6	105,829
838	103,171
838,4	97,629
838,9	98,114
839,3	95,371
839,7	99,457
840,1	96,629
840,6	94,914
841	97,4
841,4	101,143
841,9	100,286
842,3	103,2
842,7	99,429
843,1	100,429
843,6	97,171
844	93,543
844,4	91,6
844,9	93,886
845,3	92,257
845,7	91,2
846,2	88,114
846,6	88,343
847	91,343
847,4	91,543
847,9	89,2
848,3	88,514
848,7	86,4
849,2	88,486
849,6	81,486
850	81,686
850,4	80,829
850,9	80,743
851,3	80,686
851,7	82,657
852,2	83,171
852,6	89,143
853	87,457
853,4	83,971
853,9	78,914
854,3	76,971
854,7	77,886
855,2	74,714
855,6	75,543
856	72,857
856,4	70,629
856,9	73,286
857,3	71,086
857,7	70,457
858,2	74,857
858,6	71,343
859	73,029
859,4	74,086
859,9	71
860,3	72,857
860,7	69,571
861,1	68,257
861,6	64,857
862	63,086
862,4	61,229
862,9	61,2
863,3	60,629
863,7	61,229
864,1	61,029
864,6	60,543
865	59,343
865,4	61,543
865,9	67,257
866,3	64,686
866,7	62,829
867,1	54,743
867,6	58,657
868	55,143
868,4	52,286
868,8	47,457
869,3	44,4
869,7	47,943
870,1	50,371
870,6	46,571
871	-26,2
871,4	-23,886
871,8	-31,343
872,3	-25,086
872,7	-27,857
873,1	-27,686
873,5	-22,314
874	52,4
874,4	52,829
874,8	55,4
875,3	53,629
875,7	51,629
876,1	54,229
876,5	49,686
877	48,057
877,4	44,229
877,8	49,229
878,2	55,429
878,7	57,743
879,1	58,114
879,5	60,057
879,9	63,286
880,4	63,114
880,8	62,971
881,2	53,371
881,7	52
882,1	49,886
882,5	47,2
882,9	43,486
883,4	41,171
883,8	40,886
884,2	40,686
884,6	38,6
885,1	42,971
885,5	44,543
885,9	44,686
886,3	51,829
886,8	47,886
887,2	46,057
887,6	47,4
888	43,8
888,5	44,143
888,9	43,457
889,3	36,486
889,8	36,371
890,2	38,857
890,6	35,629
891	35,8
891,5	31,486
891,9	32,886
892,3	34,4
892,7	35,314
893,2	36,771
893,6	39
894	36,829
894,4	37,686
894,9	36,229
895,3	34,486
895,7	36,143
896,1	29,714
896,6	29,114
897	32
897,4	36,286
897,8	40,686
898,3	45,114
898,7	40,629
899,1	43,857
899,5	39,057
900	31,2
900,4	27,514
900,8	20,314
901,2	16,686
901,7	18,029
902,1	20,886
902,5	23,257
902,9	27,486
903,4	29,743
903,8	32,057
904,2	31,8
904,6	36,143
905,1	32,629
905,5	36,857
905,9	40,571
906,3	40,229
906,8	41,8
907,2	39,686
907,6	37,486
908	39,914
908,5	34,429
908,9	27,229
909,3	27
909,7	23,229
910,2	23,971
910,6	28,171
911	20,143
911,4	23,343
911,9	25
912,3	21,743
912,7	24,343
913,1	26,714
913,6	20
914	25,771
914,4	25,314
914,8	28,343
915,3	26,657
915,7	29,886
916,1	29,571
916,5	30,714
916,9	29,486
917,4	28,314
917,8	29,686
918,2	29
918,6	22
919,1	23,657
919,5	25,686
919,9	28,286
920,3	30,429
920,8	27,2
921,2	25,771
921,6	29,686
922	27,171
922,5	24,086
922,9	26,571
923,3	23,514
923,7	22,829
924,2	24,6
924,6	24,829
925	26,714
925,4	27,171
925,8	21,286
926,3	21,486
926,7	18,771
927,1	20,143
927,5	19,629
928	18,743
928,4	17,371
928,8	20,143
929,2	19,886
929,7	24,743
930,1	23,286
930,5	23,171
930,9	23,143
931,3	23,143
931,8	23,057
932,2	23,314
932,6	18,629
933	13,857
933,5	14,143
933,9	15,6
934,3	15,943
934,7	15,114
935,2	14,371
935,6	15,429
936	22,8
936,4	22,686
936,8	20,571
937,3	18,857
937,7	19,714
938,1	22,629
938,5	17,571
939	13,571
939,4	12,257
939,8	10,257
940,2	13,571
940,6	13,6
941,1	10,8
941,5	20,457
941,9	23,886
942,3	22
942,8	21,914
943,2	22,457
943,6	18,086
944	20,371
944,4	14,371
944,9	13,829
945,3	12,6
945,7	7,857
946,1	0,771
946,6	-1,914
947	-6,429
947,4	-1,571
947,8	-4,343
948,2	-1,829
948,7	3,771
949,1	7,486
949,5	15,914
949,9	20,571
950,3	18,086
950,8	20,571
951,2	16,514
951,6	16,543
952	21,971
952,5	16,057
952,9	14,6
953,3	15,314
953,7	11,914
954,1	16,286
954,6	19,314
955	15,571
955,4	17,314
955,8	19,571
956,2	18,257
956,7	20,457
957,1	19,971
957,5	17,429
957,9	18,886
958,3	18,829
958,8	14,6
959,2	18,429
959,6	16,514
960	14,514
960,5	18,057
960,9	13,8
961,3	10,971
961,7	10,886
962,1	6,171
962,6	8,857
963	9,143
963,4	2,914
963,8	4,514
964,2	6,857
964,7	6,857
965,1	11,057
965,5	12
965,9	11,771
966,3	14,686
966,8	15,571
967,2	14,8
967,6	17,543
968	11,657
968,4	10,4
968,9	12,486
969,3	12,314
969,7	7,743
970,1	12,714
970,5	8,686
971	15,286
971,4	13,914
971,8	12,286
972,2	11,429
972,6	12,829
973,1	9,914
973,5	13,114
973,9	10,8
974,3	9,629
974,7	14,143
975,2	16,2
975,6	19,6
976	20,857
976,4	17,629
976,8	19,571
977,3	20,314
977,7	17,486
978,1	19,257
978,5	14,657
978,9	11,343
979,4	10,629
979,8	7,057
980,2	8,6
980,6	3,057
981	1,743
981,5	7,086
981,9	7,114
982,3	9,657
982,7	6
983,1	2,686
983,6	7,4
984	8,257
984,4	8,257
984,8	11,029
985,2	12,457
985,6	13,714
986,1	16,029
986,5	17,629
986,9	12,029
987,3	9,571
987,7	6,286
988,2	0,086
988,6	4,857
989	3,486
989,4	-1,057
989,8	3,543
990,3	2,114
990,7	0,571
991,1	6,743
991,5	6,657
991,9	9,629
992,3	13,771
992,8	14,371
993,2	13,429
993,6	17,829
994	17,171
994,4	14,514
994,9	9,771
995,3	7,257
995,7	6,257
996,1	6,086
996,5	6
996,9	5,4
997,4	6,6
997,8	7,657
998,2	8,029
998,6	-1,571
999	0,514
999,5	-3,371
999,9	-2,257
1000,3	-4,114
1000,7	-4,114
1001,1	-2,657
1001,5	3,771
1002	6,486
1002,4	9,371
1002,8	8,743
1003,2	10,143
1003,6	12,429
1004	10,743
1004,5	9,029
1004,9	7,543
1005,3	1,543
1005,7	0,057
1006,1	-2,4
1006,6	-3,429
1007	-0,971
1007,4	-1,2
1007,8	-3,629
1008,2	-0,829
1008,6	0,686
1009,1	-0,114
1009,5	5,057
1009,9	5,057
1010,3	11,371
1010,7	13,8
1011,1	15,571
1011,6	15,629
1012	21,629
1012,4	17,914
1012,8	14,714
1013,2	16,914
1013,6	15,4
1014,1	17,057
1014,5	17,743
1014,9	13,429
1015,3	11,886
1015,7	12,714
1016,1	9,943
1016,6	8,686
1017	10,771
1017,4	9,229
1017,8	8,771
1018,2	14,343
1018,6	10
1019,1	7,6
1019,5	11,143
1019,9	3,971
1020,3	7,686
1020,7	10,514
1021,1	5,514
1021,6	8,229
1022	9,943
1022,4	11,229
1022,8	17,6
1023,2	12,943
1023,6	9,286
1024,1	16,429
1024,5	20,229
1024,9	16,486
1025,3	16,257
1025,7	16,371
1026,1	21,914
1026,6	26,6
1027	24
1027,4	24,114
1027,8	26,886
1028,2	27,114
1028,6	29,2
1029	23,657
1029,5	27,914
1029,9	22,914
1030,3	18,6
1030,7	17,771
1031,1	16,257
1031,5	8,114
1032	8,2
1032,4	0,514
1032,8	3,314
1033,2	9,286
1033,6	8,857
1034	7,971
1034,4	11,486
1034,9	13,829
1035,3	13,343
1035,7	12,943
1036,1	6,8
1036,5	3,257
1036,9	4,971
1037,4	6,771
1037,8	2,686
1038,2	4,4
1038,6	2,8
1039	7,086
1039,4	15,086
1039,8	8,257
1040,3	12,286
1040,7	14,257
1041,1	15,6
1041,5	18,429
1041,9	15,143
1042,3	11,4
1042,7	17,4
1043,2	10,429
1043,6	9,943
1044	8,371
1044,4	7,914
1044,8	10,971
1045,2	10,543
1045,6	10,629
1046,1	10,371
1046,5	13,8
1046,9	12,686
1047,3	10,857
1047,7	7,857
1048,1	4,914
1048,5	3,314
1049	8,6
1049,4	8,571
1049,8	10,886
1050,2	12,571
1050,6	18,857
1051	21,743
1051,4	20,143
1051,9	15,171
1052,3	17,571
1052,7	17,886
1053,1	20,571
1053,5	20,343
1053,9	21,486
1054,3	22,343
1054,8	29,4
1055,2	27,857
1055,6	30,086
1056	25,343
1056,4	21,286
1056,8	20,543
1057,2	21,171
1057,6	15,286
1058,1	14,6
1058,5	8,343
1058,9	12,171
1059,3	14,6
1059,7	15,029
1060,1	18,714
1060,5	16,4
1061	18,714
1061,4	18,257
1061,8	17,543
1062,2	12,943
1062,6	14,829
1063	10,2
1063,4	13,514
1063,8	8,257
1064,3	5,543
1064,7	6,114
1065,1	6,429
1065,5	1,829
1065,9	3,657
1066,3	2,857
1066,7	-2,686
1067,1	1,857
1067,6	2,8
1068	4,8
1068,4	6,571
1068,8	9,629
1069,2	10,886
1069,6	17,371
1070	19,171
1070,4	15,343
1070,9	14,8
1071,3	12,686
1071,7	9,571
1072,1	9,057
1072,5	5,971
1072,9	4,943
1073,3	5,429
1073,7	6,657
1074,2	7,857
1074,6	10,514
1075	10,086
1075,4	12,371
1075,8	13,886
1076,2	13,114
1076,6	16,086
1077	18,171
1077,5	17,257
1077,9	16,371
1078,3	15,771
1078,7	16,886
1079,1	14,971
1079,5	10,343
1079,9	10,8
1080,3	5,257
1080,7	6,029
1081,2	13,257
1081,6	9,314
1082	12,314
1082,4	17,086
1082,8	12,8
1083,2	20,343
1083,6	18,857
1084	15,914
1084,5	17,371
1084,9	15,429
1085,3	7,743
1085,7	9,4
1086,1	4,229
1086,5	5,286
1086,9	4,886
1087,3	6,286
1087,7	5,771
1088,2	6,829
1088,6	6,286
1089	7,257
1089,4	7,4
1089,8	5,829
1090,2	1,429
1090,6	4,086
1091	7,514
1091,4	11,714
1091,9	15,114
1092,3	16,886
1092,7	11,457
1093,1	20,857
1093,5	18,486
1093,9	21,257
1094,3	18,943
1094,7	15,8
1095,1	18,114
1095,5	21,943
1096	12,371
1096,4	17,171
1096,8	13,314
1097,2	13,486
1097,6	18,571
1098	16,286
1098,4	16,943
1098,8	22,743
1099,2	22,2
1099,6	19,914
1100,1	14,943
1100,5	8,514
1100,9	7,771
1101,3	8,343
1101,7	2,943
1102,1	0,4
1102,5	5,257
1102,9	13,629
1103,3	15,486
1103,7	16,343
1104,2	14,714
1104,6	16,829
1105	12,571
1105,4	11,514
1105,8	5,6
1106,2	3,771
1106,6	1,057
1107	0,686
1107,4	0,267
1107,8	3,64
1108,3	-0,75
