Data from Subt2_321.txt Node
Date: Sat Aug 26 19:17:58 MSK 2023
User: vat
Spectrometer: MAYP114033
Trigger mode: 0
Integration Time (sec): 1,000000E0
Scans to average: 5
Electric dark correction enabled: true
Nonlinearity correction enabled: false
Boxcar width: 3
XAxis mode: Wavelengths
Number of Pixels in Spectrum: 2068
>>>>>Begin Spectral Data<<<<<
199,4	0,133
199,9	0,373
200,4	-1,033
200,8	-0,581
201,3	0,619
201,8	2,99
202,2	1,219
202,7	6,79
203,2	6,59
203,6	7,105
204,1	5,19
204,6	2,676
205	4,448
205,5	5,819
206	1,648
206,4	5,305
206,9	3,419
207,4	7,533
207,8	8,19
208,3	5,162
208,8	4,99
209,2	4,076
209,7	1,419
210,2	6,305
210,6	7,819
211,1	11,076
211,5	6,048
212	6,276
212,5	5,505
212,9	2,819
213,4	0,819
213,9	-3,552
214,3	-4,381
214,8	1,619
215,3	-0,981
215,7	2,648
216,2	4,333
216,7	5,733
217,1	7,248
217,6	9,848
218,1	6,076
218,5	7,048
219	0,79
219,5	3,305
219,9	1,476
220,4	5,076
220,9	3,219
221,3	11,19
221,8	12,448
222,3	19,59
222,7	17,219
223,2	18,819
223,6	16,419
224,1	17,419
224,6	13,362
225	11,705
225,5	6,676
226	7,962
226,4	9,105
226,9	9,962
227,4	12,219
227,8	8,59
228,3	7,505
228,8	11,476
229,2	17,248
229,7	14,333
230,2	14,048
230,6	16,048
231,1	22,248
231,5	26,905
232	26,105
232,5	17,419
232,9	19,419
233,4	22,848
233,9	12,762
234,3	9,79
234,8	9,419
235,3	8,305
235,7	13,476
236,2	14,448
236,7	10,99
237,1	15,105
237,6	15,505
238,1	13,733
238,5	7,448
239	5,39
239,4	4,533
239,9	2,362
240,4	2,676
240,8	-1,238
241,3	-2,495
241,8	1,648
242,2	4,619
242,7	2,848
243,2	3,562
243,6	2,219
244,1	8,19
244,6	14,876
245	16,619
245,5	12,619
245,9	9,59
246,4	11,905
246,9	13,39
247,3	11,533
247,8	9,133
248,3	11,19
248,7	13,419
249,2	18,448
249,7	14,505
250,1	13,048
250,6	10,19
251	11,876
251,5	9,99
252	9,876
252,4	9,505
252,9	7,362
253,4	5,276
253,8	6,105
254,3	5,39
254,8	6,505
255,2	2,105
255,7	-1,552
256,1	4,362
256,6	8,219
257,1	10,905
257,5	7,79
258	8,048
258,5	13,105
258,9	15,419
259,4	12,505
259,9	10,905
260,3	8,619
260,8	6,762
261,2	7,362
261,7	10,248
262,2	8,848
262,6	7,533
263,1	12,533
263,6	14,59
264	20,362
264,5	18,905
264,9	13,619
265,4	16,562
265,9	16,39
266,3	13,848
266,8	15,19
267,3	13,305
267,7	13,219
268,2	12,448
268,7	16,362
269,1	19,019
269,6	15,448
270	17,962
270,5	16,705
271	17,705
271,4	18,79
271,9	11,248
272,4	15,276
272,8	16,476
273,3	8,819
273,7	10,962
274,2	6,048
274,7	7,705
275,1	11,876
275,6	11,505
276,1	10,476
276,5	17,305
277	13,705
277,4	19,133
277,9	20,705
278,4	18,848
278,8	16,419
279,3	14,505
279,8	10,905
280,2	12,105
280,7	9,819
281,1	4,219
281,6	2,79
282,1	0,99
282,5	5,39
283	5,648
283,4	3,505
283,9	5,562
284,4	9,476
284,8	13,276
285,3	13,362
285,8	13,676
286,2	10,733
286,7	13,533
287,1	14,448
287,6	14,448
288,1	11,905
288,5	12,419
289	11,048
289,5	16,133
289,9	14,79
290,4	17,419
290,8	14,362
291,3	14,648
291,8	19,219
292,2	17,676
292,7	17,133
293,1	18,248
293,6	15,59
294,1	17,305
294,5	19,305
295	15,59
295,5	13,676
295,9	13,019
296,4	9,105
296,8	4,533
297,3	6,39
297,8	1,933
298,2	-4,667
298,7	3,105
299,1	2,419
299,6	3,048
300,1	8,79
300,5	8,105
301	8,59
301,5	16,419
301,9	10,79
302,4	8,819
302,8	12,59
303,3	8,59
303,8	4,133
304,2	8,733
304,7	6,562
305,1	4,705
305,6	11,819
306,1	16,162
306,5	19,962
307	27,962
307,4	26,79
307,9	25,619
308,4	23,905
308,8	13,133
309,3	6,505
309,8	3,476
310,2	3,419
310,7	-0,924
311,1	-0,352
311,6	6,076
312,1	12,819
312,5	16,99
313	18,79
313,4	13,705
313,9	18,562
314,4	18,19
314,8	12,476
315,3	7,305
315,7	5,048
316,2	2,448
316,7	2,419
317,1	2,962
317,6	3,019
318	7,819
318,5	9,419
319	5,762
319,4	6,962
319,9	12,476
320,3	13,219
320,8	11,562
321,3	13,448
321,7	15,476
322,2	15,79
322,6	16,933
323,1	10,133
323,6	7,19
324	8,362
324,5	4,476
324,9	6,733
325,4	10,105
325,9	10,333
326,3	14,219
326,8	19,105
327,2	17,79
327,7	19,162
328,2	17,333
328,6	18,905
329,1	14,79
329,5	13,533
330	9,419
330,5	11,905
330,9	14,648
331,4	11,476
331,8	8,819
332,3	11,762
332,8	10,905
333,2	12,733
333,7	13,819
334,1	12,562
334,6	9,962
335,1	8,705
335,5	8,876
336	7,333
336,4	4,505
336,9	10,733
337,4	11,476
337,8	15,962
338,3	20,562
338,7	21,79
339,2	21,905
339,7	26,562
340,1	19,476
340,6	18,362
341	16,59
341,5	15,533
342	12,848
342,4	13,419
342,9	7,819
343,3	8,79
343,8	8,533
344,2	12,448
344,7	14,076
345,2	13,448
345,6	14,39
346,1	18,305
346,5	14,162
347	13,562
347,5	10,133
347,9	9,905
348,4	13,933
348,8	15,819
349,3	16,476
349,8	22,933
350,2	30,19
350,7	29,59
351,1	32,19
351,6	37,305
352	38,876
352,5	41,133
353	45,962
353,4	47,362
353,9	59,648
354,3	70,133
354,8	76,876
355,3	97,019
355,7	120,048
356,2	145,39
356,6	172,533
357,1	204,819
357,5	237,019
358	281,276
358,5	317,305
358,9	361,048
359,4	409,676
359,8	470,533
360,3	541,733
360,8	615,505
361,2	696,619
361,7	792,133
362,1	904,533
362,6	1022,333
363	1142,219
363,5	1264,962
364	1405,819
364,4	1545,105
364,9	1691,333
365,3	1824,39
365,8	1951,562
366,3	2072,333
366,7	2184,59
367,2	2282,562
367,6	2360,905
368,1	2417,162
368,5	2455,076
369	2480,448
369,5	2481,933
369,9	2462,79
370,4	2427,562
370,8	2373,39
371,3	2306,39
371,7	2222,076
372,2	2118,99
372,7	2022,79
373,1	1920,105
373,6	1800,162
374	1690,019
374,5	1576,876
374,9	1470,819
375,4	1375,905
375,9	1273,533
376,3	1173,533
376,8	1083,705
377,2	998,619
377,7	917,533
378,2	839,562
378,6	769,133
379,1	701,99
379,5	647,162
380	598,305
380,4	547,819
380,9	505,448
381,4	464,39
381,8	430,362
382,3	403,39
382,7	374,419
383,2	348,99
383,6	324,219
384,1	300,333
384,6	285,076
385	261,048
385,5	241,648
385,9	223,419
386,4	205,905
386,8	195,476
387,3	183,305
387,7	171,162
388,2	161,762
388,7	152,848
389,1	141,876
389,6	131,79
390	123,705
390,5	122,476
390,9	115,905
391,4	111,162
391,9	102,676
392,3	99,162
392,8	92,448
393,2	87,505
393,7	77,962
394,1	73,162
394,6	70,448
395,1	70,962
395,5	66,79
396	69,476
396,4	67,248
396,9	68,305
397,3	69,962
397,8	67,705
398,2	64,59
398,7	61,762
399,2	60,105
399,6	58,19
400,1	52,562
400,5	46,276
401	42,933
401,4	36,733
401,9	42,019
402,4	43,048
402,8	39,248
403,3	44,733
403,7	43,39
404,2	44,962
404,6	49,619
405,1	44,019
405,5	36,762
406	39,219
406,5	32,59
406,9	36,076
407,4	37,848
407,8	38,933
408,3	42,533
408,7	44,362
409,2	46,305
409,6	50,99
410,1	52,419
410,6	53,333
411	52,676
411,5	53,79
411,9	57,105
412,4	58,533
412,8	60,619
413,3	58,533
413,7	60,362
414,2	58,333
414,7	63,762
415,1	74,333
415,6	75,562
416	78,276
416,5	82,648
416,9	82,619
417,4	90,819
417,8	91,819
418,3	87,79
418,8	90,705
419,2	88,419
419,7	93,533
420,1	95,562
420,6	92,648
421	89,99
421,5	91,448
421,9	92,39
422,4	95,105
422,8	94,533
423,3	92,162
423,8	91,248
424,2	89,962
424,7	85,533
425,1	83,676
425,6	81,733
426	78,933
426,5	83,562
426,9	87,048
427,4	86,133
427,9	81,59
428,3	84,448
428,8	83,762
429,2	80,076
429,7	75,619
430,1	72,819
430,6	74,562
431	77,333
431,5	73,019
431,9	69,648
432,4	74,619
432,8	77,419
433,3	75,933
433,8	73,99
434,2	78,39
434,7	81,876
435,1	86,448
435,6	88,419
436	88,733
436,5	94,162
436,9	92,048
437,4	90,019
437,8	88,19
438,3	91,419
438,8	88,59
439,2	87,733
439,7	91,362
440,1	100,333
440,6	110,162
441	111,105
441,5	113,676
441,9	121,648
442,4	123,362
442,8	123,933
443,3	124,79
443,7	121,419
444,2	129,533
444,7	131,676
445,1	134,076
445,6	141,705
446	148,59
446,5	149,105
446,9	151,762
447,4	154,105
447,8	162,333
448,3	169,019
448,7	174,533
449,2	177,848
449,6	189,819
450,1	194,905
450,6	209,962
451	215,676
451,5	222,99
451,9	233,019
452,4	247,39
452,8	252,99
453,3	270,648
453,7	272,79
454,2	286,419
454,6	298,19
455,1	303,733
455,5	306,733
456	325,733
456,4	326,762
456,9	336,705
457,3	340,305
457,8	341,105
458,3	354,276
458,7	364,333
459,2	369,476
459,6	382,962
460,1	397,419
460,5	407,562
461	427,448
461,4	436,076
461,9	448,533
462,3	459,476
462,8	473,848
463,2	479,848
463,7	495,133
464,1	512,076
464,6	531,276
465	546,933
465,5	560,305
466	573,419
466,4	586,533
466,9	602,076
467,3	607,79
467,8	618,505
468,2	633,933
468,7	650,876
469,1	669,59
469,6	693,248
470	709,019
470,5	727,99
470,9	742,333
471,4	750,476
471,8	766,39
472,3	782,248
472,7	796,619
473,2	803,99
473,6	815,933
474,1	833,448
474,5	850,305
475	863,762
475,4	875,705
475,9	888,219
476,4	908,476
476,8	927,505
477,3	939,733
477,7	963,705
478,2	979,305
478,6	991,248
479,1	1001,848
479,5	1014,619
480	1024,59
480,4	1042,048
480,9	1050,333
481,3	1057,762
481,8	1074,59
482,2	1085,619
482,7	1096,79
483,1	1107,733
483,6	1114,019
484	1120,505
484,5	1141,476
484,9	1149,762
485,4	1165,962
485,8	1171,79
486,3	1182,505
486,7	1195,533
487,2	1207,562
487,6	1209,39
488,1	1217,39
488,5	1220,562
489	1239,105
489,4	1253,562
489,9	1256,876
490,4	1263,419
490,8	1272,19
491,3	1279,562
491,7	1287,59
492,2	1286,819
492,6	1290,619
493,1	1297,076
493,5	1301,248
494	1300,933
494,4	1303,762
494,9	1308,19
495,3	1316,533
495,8	1312,19
496,2	1317,733
496,7	1320,019
497,1	1328,819
497,6	1332,219
498	1337,133
498,5	1342,562
498,9	1345,333
499,4	1344,162
499,8	1352,733
500,3	1356,59
500,7	1356,676
501,2	1355,876
501,6	1350,762
502,1	1359,019
502,5	1365,133
503	1364,476
503,4	1361,133
503,9	1361,562
504,3	1365,705
504,8	1369,476
505,2	1366,505
505,7	1363,819
506,1	1363,362
506,6	1362,848
507	1362,333
507,5	1363,248
507,9	1363,248
508,4	1361,105
508,8	1361,848
509,3	1361,562
509,7	1365,362
510,2	1368,533
510,6	1362,162
511,1	1362,162
511,5	1362,848
512	1363,305
512,4	1365,419
512,9	1363,419
513,3	1364,819
513,8	1364,162
514,2	1363,476
514,7	1364,705
515,1	1364,619
515,6	1360,819
516	1357,99
516,5	1361,133
516,9	1361,648
517,4	1367,99
517,8	1370,162
518,3	1366,762
518,7	1369,362
519,2	1371,105
519,6	1370,733
520,1	1375,79
520,5	1371,476
521	1368,019
521,4	1370,562
521,9	1373,476
522,3	1374,219
522,8	1368,076
523,2	1369,162
523,7	1367,333
524,1	1366,676
524,6	1367,105
525	1363,676
525,5	1359,105
525,9	1364,705
526,4	1359,619
526,8	1361,419
527,3	1364,505
527,7	1366,219
528,2	1365,59
528,6	1375,448
529,1	1372,019
529,5	1381,133
530	1378,733
530,4	1381,219
530,9	1386,305
531,3	1390,705
531,8	1392,333
532,2	1397,733
532,6	1396,19
533,1	1402,705
533,5	1402,162
534	1399,048
534,4	1401,676
534,9	1399,419
535,3	1399,105
535,8	1401,076
536,2	1403,733
536,7	1405,276
537,1	1412,733
537,6	1417,333
538	1423,305
538,5	1430,105
538,9	1432,39
539,4	1440,019
539,8	1449,248
540,3	1454,705
540,7	1456,248
541,2	1452,648
541,6	1454,762
542,1	1460,733
542,5	1464,19
543	1464,59
543,4	1458,59
543,9	1463,419
544,3	1474,133
544,8	1468,762
545,2	1471,19
545,7	1471,733
546,1	1477,076
546,5	1488,019
547	1488,476
547,4	1492,476
547,9	1497,676
548,3	1501,162
548,8	1503,162
549,2	1501,762
549,7	1499,733
550,1	1505,39
550,6	1504,276
551	1511,305
551,5	1507,905
551,9	1505,276
552,4	1510,905
552,8	1514,276
553,3	1512,305
553,7	1506,733
554,2	1511,59
554,6	1517,19
555,1	1523,876
555,5	1520,19
555,9	1524,876
556,4	1526,248
556,8	1532,476
557,3	1534,99
557,7	1540,219
558,2	1538,819
558,6	1551,39
559,1	1553,305
559,5	1556,876
560	1565,362
560,4	1571,105
560,9	1572,962
561,3	1575,533
561,8	1573,705
562,2	1572,305
562,7	1577,219
563,1	1579,219
563,6	1574,562
564	1575,962
564,4	1580,305
564,9	1579,162
565,3	1579,533
565,8	1578,762
566,2	1579,362
566,7	1588,419
567,1	1589,276
567,6	1592,19
568	1594,048
568,5	1595,733
568,9	1593,076
569,4	1597,248
569,8	1588,133
570,3	1582,39
570,7	1577,219
571,1	1579,676
571,6	1584,333
572	1591,876
572,5	1591,39
572,9	1594,305
573,4	1600,676
573,8	1605,39
574,3	1604,333
574,7	1603,448
575,2	1598,219
575,6	1593,076
576,1	1597,419
576,5	1601,505
576,9	1593,733
577,4	1587,419
577,8	1583,39
578,3	1585,276
578,7	1584,248
579,2	1584,219
579,6	1573,162
580,1	1578,276
580,5	1583,619
581	1586,448
581,4	1587,819
581,9	1584,99
582,3	1578,39
582,7	1582,305
583,2	1581,333
583,6	1581,59
584,1	1581,933
584,5	1573,219
585	1572,876
585,4	1567,505
585,9	1562,762
586,3	1562,162
586,8	1559,448
587,2	1551,962
587,6	1557,248
588,1	1559,819
588,5	1565,933
589	1567,848
589,4	1558,476
589,9	1554,533
590,3	1551,019
590,8	1546,676
591,2	1542,762
591,7	1542,762
592,1	1540,276
592,5	1543,876
593	1544,79
593,4	1546,476
593,9	1542,933
594,3	1539,648
594,8	1529,876
595,2	1523,476
595,7	1521,162
596,1	1512,648
596,6	1508,048
597	1503,819
597,4	1501,162
597,9	1498,419
598,3	1502,876
598,8	1501,505
599,2	1499,99
599,7	1501,619
600,1	1500,648
600,6	1499,419
601	1497,905
601,4	1494,019
601,9	1493,219
602,3	1492,133
602,8	1487,019
603,2	1481,876
603,7	1476,076
604,1	1472,162
604,6	1468,219
605	1455,848
605,4	1450,876
605,9	1446,79
606,3	1439,99
606,8	1438,162
607,2	1432,705
607,7	1421,105
608,1	1423,419
608,6	1426,048
609	1425,448
609,4	1426,79
609,9	1418,333
610,3	1418,448
610,8	1418,648
611,2	1411,733
611,7	1399,962
612,1	1391,99
612,6	1386,076
613	1386,562
613,4	1381,076
613,9	1377,933
614,3	1373,162
614,8	1368,933
615,2	1360,848
615,7	1361,562
616,1	1359,562
616,6	1351,19
617	1344,733
617,4	1343,19
617,9	1341,99
618,3	1340,676
618,8	1331,876
619,2	1320,962
619,7	1318,79
620,1	1313,448
620,5	1307,962
621	1301,105
621,4	1294,676
621,9	1292,162
622,3	1288,276
622,8	1280,876
623,2	1272,276
623,6	1266,676
624,1	1259,962
624,5	1256,39
625	1249,762
625,4	1242,533
625,9	1239,333
626,3	1237,733
626,8	1232,19
627,2	1225,648
627,6	1216,162
628,1	1206,219
628,5	1204,619
629	1191,819
629,4	1187,505
629,9	1180,219
630,3	1175,505
630,7	1171,59
631,2	1166,362
631,6	1155,933
632,1	1156,819
632,5	1154,876
633	1152,248
633,4	1147,705
633,8	1140,705
634,3	1136,819
634,7	1133,848
635,2	1127,962
635,6	1119,619
636,1	1111,933
636,5	1105,105
636,9	1098,248
637,4	1094,448
637,8	1085,819
638,3	1075,733
638,7	1069,133
639,2	1059,362
639,6	1056,276
640	1056,248
640,5	1052,133
640,9	1048,448
641,4	1048,762
641,8	1044,362
642,2	1039,305
642,7	1040,476
643,1	1037,048
643,6	1026,819
644	1027,962
644,5	1027,933
644,9	1026,219
645,3	1026,076
645,8	1011,276
646,2	1004,933
646,7	1003,962
647,1	996,59
647,6	988,019
648	979,733
648,4	976,419
648,9	976,59
649,3	966,99
649,8	963,933
650,2	954,99
650,6	947,362
651,1	941,362
651,5	941,505
652	936,105
652,4	934,533
652,9	928,419
653,3	927,276
653,7	921,105
654,2	920,248
654,6	907,648
655,1	902,505
655,5	897,476
655,9	895,619
656,4	890,848
656,8	890,076
657,3	882,705
657,7	881,305
658,2	876,562
658,6	873,448
659	865,162
659,5	856,705
659,9	850,562
660,4	851,848
660,8	843,648
661,2	836,933
661,7	831,59
662,1	827,619
662,6	825,676
663	819,476
663,4	808,076
663,9	803,362
664,3	798,79
664,8	790,905
665,2	782,619
665,6	775,076
666,1	774,79
666,5	771,019
667	767,905
667,4	763,705
667,9	764,505
668,3	759,562
668,7	757,019
669,2	750,533
669,6	744,99
670,1	742,248
670,5	737,362
670,9	730,562
671,4	725,362
671,8	717,762
672,3	718,305
672,7	715,79
673,1	706,39
673,6	703,133
674	700,562
674,5	697,962
674,9	692,59
675,3	683,476
675,8	679,533
676,2	677,019
676,7	669,048
677,1	666,333
677,5	661,419
678	656,99
678,4	654,676
678,9	650,076
679,3	647,133
679,7	644,933
680,2	635,876
680,6	631,419
681,1	634,848
681,5	632,848
681,9	627,362
682,4	626,39
682,8	625,419
683,3	626,076
683,7	625,705
684,1	619,362
684,6	615,162
685	611,076
685,5	606,219
685,9	596,933
686,3	587,219
686,8	581,162
687,2	575,448
687,7	565,333
688,1	557,419
688,5	555,705
689	558,162
689,4	554,248
689,9	549,99
690,3	546,733
690,7	543,733
691,2	545,019
691,6	541,133
692	536,448
692,5	535,762
692,9	531,933
693,4	529,448
693,8	528,533
694,2	526,19
694,7	520,39
695,1	514,59
695,6	514,79
696	517,362
696,4	514,105
696,9	508,076
697,3	502,248
697,8	500,19
698,2	495,562
698,6	488,79
699,1	483,476
699,5	483,733
699,9	478,905
700,4	475,676
700,8	472,533
701,3	475,876
701,7	471,648
702,1	464,248
702,6	457,219
703	461,276
703,5	459,305
703,9	452,848
704,3	449,676
704,8	443,733
705,2	443,19
705,6	446,476
706,1	441,219
706,5	438,219
707	439,305
707,4	436,419
707,8	435,562
708,3	435,448
708,7	429,048
709,2	422,933
709,6	421,79
710	421,505
710,5	414,733
710,9	415,448
711,3	412,305
711,8	408,933
712,2	410,705
712,7	408,676
713,1	405,876
713,5	406,933
714	404,705
714,4	399,876
714,8	398,248
715,3	393,79
715,7	391,505
716,2	381,99
716,6	380,048
717	378,476
717,5	375,733
717,9	375,79
718,3	372,162
718,8	365,019
719,2	366,133
719,7	360,848
720,1	361,533
720,5	363,448
721	354,99
721,4	355,848
721,8	360,59
722,3	358,733
722,7	357,79
723,2	346,019
723,6	335,19
724	332,448
724,5	327,876
724,9	324,248
725,3	319,648
725,8	318,848
726,2	321,705
726,7	321,419
727,1	322,448
727,5	322,133
728	313,762
728,4	312,99
728,8	310,333
729,3	308,733
729,7	310,79
730,1	309,648
730,6	308,762
731	310,333
731,5	307,99
731,9	304,39
732,3	303,019
732,8	300,19
733,2	298,19
733,6	294,362
734,1	296,619
734,5	297,019
734,9	299,219
735,4	297,305
735,8	293,933
736,3	293,362
736,7	290,162
737,1	284,533
737,6	282,905
738	277,79
738,4	274,905
738,9	274,533
739,3	273,848
739,7	274,705
740,2	271,505
740,6	270,99
741,1	273,933
741,5	269,733
741,9	271,105
742,4	271,476
742,8	269,133
743,2	273,39
743,7	266,105
744,1	259,79
744,5	261,362
745	255,476
745,4	249,448
745,8	253,048
746,3	248,419
746,7	249,019
747,2	250,076
747,6	252,133
748	254,876
748,5	255,933
748,9	246,105
749,3	242,962
749,8	244,99
750,2	237,705
750,6	231,762
751,1	231,362
751,5	225,762
751,9	227,648
752,4	229,819
752,8	230,39
753,3	233,39
753,7	234,505
754,1	228,733
754,6	227,019
755	225,419
755,4	219,733
755,9	214,79
756,3	213,076
756,7	210,362
757,2	211,905
757,6	214,248
758	214,276
758,5	214,505
758,9	214,476
759,3	212,762
759,8	209,505
760,2	207,076
760,6	206,505
761,1	201,133
761,5	199,59
761,9	195,619
762,4	197,419
762,8	194,762
763,3	193,476
763,7	193,876
764,1	195,533
764,6	198,79
765	199,876
765,4	197,419
765,9	200,419
766,3	202,762
766,7	199,648
767,2	200,333
767,6	199,162
768	195,076
768,5	190,99
768,9	189,248
769,3	184,305
769,8	178,619
770,2	176,876
770,6	171,619
771,1	174,162
771,5	172,762
771,9	173,362
772,4	177,076
772,8	175,505
773,2	174,019
773,7	172,162
774,1	169,162
774,5	167,762
775	161,648
775,4	161,162
775,8	160,876
776,3	160,305
776,7	160,105
777,1	160,733
777,6	161,99
778	168,219
778,4	161,933
778,9	162,333
779,3	162,419
779,7	164,133
780,2	161,276
780,6	160,59
781	156,99
781,5	153,705
781,9	154,79
782,3	151,619
782,8	150,048
783,2	149,99
783,6	152,905
784,1	152,819
784,5	155,39
784,9	151,048
785,4	152,448
785,8	154,305
786,2	152,962
786,7	147,819
787,1	142,676
787,5	141,619
788	144,39
788,4	141,533
788,8	138,019
789,3	137,448
789,7	138,733
790,1	141,562
790,6	141,705
791	138,333
791,4	140,133
791,9	136,99
792,3	130,219
792,7	129,905
793,2	123,876
793,6	122,019
794	123,276
794,5	115,79
794,9	116,676
795,3	121,448
795,8	116,076
796,2	119,733
796,6	118,305
797,1	114,39
797,5	116,533
797,9	112,448
798,4	109,79
798,8	113,048
799,2	109,248
799,7	109,333
800,1	112,133
800,5	113,076
801	115,762
801,4	111,476
801,8	106,676
802,2	107,533
802,7	107,648
803,1	106,876
803,5	109,133
804	108,733
804,4	111,648
804,8	113,819
805,3	116,133
805,7	115,905
806,1	113,819
806,6	110,048
807	110,619
807,4	110,733
807,9	106,305
808,3	102,59
808,7	100,79
809,2	103,533
809,6	108,276
810	105,562
810,4	104,762
810,9	105,905
811,3	108,733
811,7	107,619
812,2	106,905
812,6	98,876
813	100,276
813,5	99,762
813,9	97,99
814,3	93,448
814,8	94,305
815,2	88,533
815,6	91,219
816,1	89,59
816,5	91,648
816,9	94,019
817,3	96,048
817,8	96,876
818,2	99,019
818,6	96,419
819,1	91,305
819,5	87,99
819,9	88,733
820,4	85,962
820,8	81,99
821,2	79,333
821,7	80,276
822,1	85,19
822,5	88,99
822,9	84,305
823,4	85,076
823,8	87,733
824,2	89,533
824,7	83,533
825,1	79,362
825,5	73,076
826	72,419
826,4	73,676
826,8	70,705
827,3	70,99
827,7	74,048
828,1	75,476
828,5	74,305
829	70,848
829,4	68,505
829,8	63,019
830,3	60,905
830,7	60,305
831,1	58,076
831,6	60,933
832	67,333
832,4	64,819
832,8	69,333
833,3	70,819
833,7	66,276
834,1	66,99
834,6	65,448
835	62,076
835,4	63,933
835,8	60,533
836,3	59,648
836,7	66,562
837,1	62,533
837,6	64,619
838	62,076
838,4	63,105
838,9	65,476
839,3	63,248
839,7	59,733
840,1	60,19
840,6	59,648
841	59,162
841,4	58,362
841,9	61,019
842,3	61,362
842,7	60,762
843,1	60,876
843,6	63,248
844	66,99
844,4	69,819
844,9	68,99
845,3	67,248
845,7	65,562
846,2	65,162
846,6	59,276
847	58,162
847,4	56,019
847,9	51,848
848,3	52,933
848,7	52,905
849,2	57,133
849,6	52,962
850	58,076
850,4	55,876
850,9	56,19
851,3	57,419
851,7	63,305
852,2	53,562
852,6	63,133
853	57,648
853,4	56,819
853,9	55,876
854,3	53,419
854,7	49,248
855,2	52,39
855,6	46,276
856	44,59
856,4	40,276
856,9	40,248
857,3	42,19
857,7	44,705
858,2	51,905
858,6	53,419
859	53,933
859,4	54,533
859,9	52,162
860,3	47,962
860,7	44,819
861,1	44,248
861,6	41,019
862	43,533
862,4	39,39
862,9	40,276
863,3	42,533
863,7	39,105
864,1	38,59
864,6	37,505
865	32,99
865,4	41,39
865,9	45,19
866,3	42,048
866,7	44,933
867,1	41,333
867,6	44,076
868	44,248
868,4	39,933
868,8	36,733
869,3	39,648
869,7	41,933
870,1	37,39
870,6	33,505
871	15,676
871,4	19,048
871,8	17,333
872,3	18,019
872,7	14,648
873,1	16,419
873,5	22,333
874	41,19
874,4	44,076
874,8	41,162
875,3	41,99
875,7	40,99
876,1	42,876
876,5	36,819
877	32,419
877,4	24,933
877,8	29,676
878,2	37,305
878,7	38,505
879,1	37,562
879,5	41,133
879,9	45,019
880,4	46,333
880,8	43,219
881,2	33,733
881,7	35,59
882,1	32,39
882,5	32,876
882,9	31,476
883,4	30,219
883,8	35,419
884,2	33,819
884,6	28,705
885,1	33,133
885,5	32,733
885,9	31,505
886,3	33,79
886,8	29,905
887,2	30,419
887,6	33,419
888	31,276
888,5	30,448
888,9	31,248
889,3	28,848
889,8	28,305
890,2	28,162
890,6	23,619
891	27,419
891,5	25,648
891,9	26,533
892,3	32,448
892,7	34,59
893,2	34,076
893,6	37,819
894	36,619
894,4	36,19
894,9	36,819
895,3	33,648
895,7	35,248
896,1	31,076
896,6	30,676
897	33,505
897,4	39,276
897,8	40,933
898,3	39,419
898,7	36,676
899,1	39,276
899,5	40,219
900	31,933
900,4	25,162
900,8	19,533
901,2	17,048
901,7	12,533
902,1	15,19
902,5	13,733
902,9	16,248
903,4	20,762
903,8	22,476
904,2	24,562
904,6	30,848
905,1	25,762
905,5	28,505
905,9	32,076
906,3	30,619
906,8	31,848
907,2	32,133
907,6	28,819
908	35,476
908,5	31,848
908,9	27,248
909,3	27,962
909,7	29,133
910,2	28,448
910,6	30,733
911	24,562
911,4	27,79
911,9	27,19
912,3	25,305
912,7	25,562
913,1	28,676
913,6	25,333
914	29,762
914,4	28,105
914,8	29,819
915,3	27,762
915,7	26,79
916,1	24,419
916,5	28,562
916,9	25,133
917,4	22,99
917,8	26,933
918,2	25,59
918,6	23,905
919,1	22,333
919,5	19,048
919,9	18,705
920,3	18,476
920,8	13,219
921,2	13,133
921,6	8,162
922	10,619
922,5	11,219
922,9	13,562
923,3	10,848
923,7	10,105
924,2	9,39
924,6	18,848
925	19,419
925,4	15,619
925,8	11,905
926,3	16,333
926,7	17,819
927,1	24,876
927,5	22,076
928	19,819
928,4	21,448
928,8	25,305
929,2	21,19
929,7	19,648
930,1	16,105
930,5	16,305
930,9	16,105
931,3	16,79
931,8	17,476
932,2	23,733
932,6	25,733
933	17,305
933,5	15,162
933,9	18,19
934,3	21,562
934,7	17,533
935,2	14,79
935,6	14,162
936	24,79
936,4	24,505
936,8	24,505
937,3	21,819
937,7	24,762
938,1	29,619
938,5	26,676
939	26,505
939,4	28,105
939,8	20,762
940,2	18,905
940,6	18,476
941,1	15,076
941,5	21,076
941,9	13,99
942,3	13,248
942,8	16,39
943,2	17,99
943,6	13,533
944	12,219
944,4	7,848
944,9	9,619
945,3	9,048
945,7	5,79
946,1	2,99
946,6	6,562
947	7,59
947,4	11,705
947,8	13,619
948,2	12,533
948,7	16,705
949,1	23,419
949,5	29,905
949,9	26,533
950,3	23,79
950,8	22,705
951,2	21,705
951,6	17,99
952	16,79
952,5	9,562
952,9	7,848
953,3	9,619
953,7	9,848
954,1	14,476
954,6	20,562
955	23,333
955,4	24,533
955,8	33,248
956,2	30,276
956,7	31,876
957,1	25,59
957,5	25,505
957,9	20,133
958,3	17,276
958,8	13,076
959,2	18,39
959,6	21,076
960	23,933
960,5	24,048
960,9	27,39
961,3	27,362
961,7	23,362
962,1	21,276
962,6	22,533
963	22,59
963,4	13,705
963,8	11,676
964,2	16,79
964,7	20,39
965,1	20,419
965,5	14,219
965,9	12,562
966,3	17,076
966,8	17,105
967,2	14,533
967,6	12,248
968	7,133
968,4	7,533
968,9	7,048
969,3	10,333
969,7	6,99
970,1	6,562
970,5	6,79
971	11,705
971,4	12,819
971,8	13,562
972,2	13,733
972,6	17,362
973,1	17,476
973,5	15,962
973,9	18,105
974,3	18,648
974,7	23,762
975,2	26,476
975,6	26,248
976	26,99
976,4	23,79
976,8	20,333
977,3	17,019
977,7	11,105
978,1	9,048
978,5	6,905
978,9	1,59
979,4	1,648
979,8	-2,695
980,2	-1,267
980,6	2,19
981	3,162
981,5	2,876
981,9	7,076
982,3	12,876
982,7	17,305
983,1	17,162
983,6	18,876
984	14,533
984,4	12,505
984,8	13,276
985,2	16,019
985,6	12,962
986,1	13,819
986,5	10,305
986,9	6,676
987,3	7,933
987,7	9,648
988,2	2,962
988,6	4,819
989	7,305
989,4	9,59
989,8	11,476
990,3	15,248
990,7	12,448
991,1	15,076
991,5	21,419
991,9	26,276
992,3	27,19
992,8	30,276
993,2	25,276
993,6	26,648
994	30,619
994,4	25,076
994,9	15,876
995,3	13,905
995,7	12,248
996,1	14,19
996,5	12,019
996,9	6,248
997,4	8,676
997,8	5,476
998,2	2,705
998,6	-4,495
999	-2,81
999,5	-1,895
999,9	-0,267
1000,3	-4,238
1000,7	4,848
1001,1	9,676
1001,5	15,562
1002	16,562
1002,4	18,533
1002,8	19,076
1003,2	23,648
1003,6	22,419
1004	23,305
1004,5	25,533
1004,9	26,762
1005,3	21,305
1005,7	25,733
1006,1	19,933
1006,6	16,476
1007	12,99
1007,4	10,276
1007,8	7,333
1008,2	7,048
1008,6	4,79
1009,1	9,305
1009,5	9,533
1009,9	9,99
1010,3	12,333
1010,7	12,048
1011,1	13,305
1011,6	12,705
1012	13,048
1012,4	11,19
1012,8	11,648
1013,2	17,248
1013,6	17,362
1014,1	20,333
1014,5	19,905
1014,9	19,19
1015,3	22,905
1015,7	19,59
1016,1	14,048
1016,6	13,533
1017	14,962
1017,4	16,419
1017,8	13,048
1018,2	13,105
1018,6	12,619
1019,1	12,219
1019,5	10,476
1019,9	5,648
1020,3	8,162
1020,7	10,876
1021,1	5,59
1021,6	6,133
1022	9,676
1022,4	12,562
1022,8	19,076
1023,2	10,705
1023,6	9,276
1024,1	19,905
1024,5	23,39
1024,9	16,733
1025,3	16,876
1025,7	11,79
1026,1	14,762
1026,6	15,305
1027	8,848
1027,4	8,19
1027,8	9,419
1028,2	7,305
1028,6	12,619
1029	13,733
1029,5	18,048
1029,9	18,305
1030,3	16,276
1030,7	21,505
1031,1	23,848
1031,5	17,276
1032	17,505
1032,4	15,39
1032,8	15,733
1033,2	19,276
1033,6	14,676
1034	11,448
1034,4	10,933
1034,9	15,219
1035,3	13,19
1035,7	15,533
1036,1	12,305
1036,5	12,333
1036,9	15,533
1037,4	23,648
1037,8	16,19
1038,2	16,333
1038,6	16,505
1039	21,162
1039,4	28,905
1039,8	25,39
1040,3	22,505
1040,7	23,905
1041,1	25,19
1041,5	21,076
1041,9	18,105
1042,3	15,362
1042,7	21,105
1043,2	17,619
1043,6	17,876
1044	18,533
1044,4	18,962
1044,8	21,419
1045,2	18,962
1045,6	18,133
1046,1	20,105
1046,5	19,048
1046,9	17,105
1047,3	17,076
1047,7	13,219
1048,1	11,79
1048,5	9,019
1049	12,448
1049,4	16,219
1049,8	13,762
1050,2	13,419
1050,6	18,219
1051	20,905
1051,4	20,362
1051,9	16,733
1052,3	19,905
1052,7	24,79
1053,1	27,133
1053,5	25,019
1053,9	22,476
1054,3	23,505
1054,8	27,076
1055,2	25,39
1055,6	24,819
1056	23,362
1056,4	21,99
1056,8	24,79
1057,2	19,733
1057,6	13,819
1058,1	7,933
1058,5	5,133
1058,9	8,048
1059,3	13,076
1059,7	10,219
1060,1	15,533
1060,5	17,933
1061	23,676
1061,4	26,448
1061,8	28,105
1062,2	21,562
1062,6	24,19
1063	26,248
1063,4	27,019
1063,8	25,162
1064,3	17,39
1064,7	11,905
1065,1	16,676
1065,5	10,733
1065,9	8,019
1066,3	5,476
1066,7	1,819
1067,1	3,333
1067,6	5,333
1068	-0,924
1068,4	5,276
1068,8	7,276
1069,2	8,362
1069,6	10,905
1070	16,619
1070,4	20,276
1070,9	21,076
1071,3	18,162
1071,7	14,219
1072,1	15,59
1072,5	14,648
1072,9	9,39
1073,3	9,19
1073,7	8,933
1074,2	10,619
1074,6	17,562
1075	15,533
1075,4	17,448
1075,8	25,19
1076,2	25,276
1076,6	27,248
1077	24,19
1077,5	21,819
1077,9	21,648
1078,3	19,619
1078,7	14,105
1079,1	10,048
1079,5	7,362
1079,9	12,048
1080,3	12,048
1080,7	13,762
1081,2	16,648
1081,6	17,676
1082	13,705
1082,4	20,705
1082,8	16,762
1083,2	13,905
1083,6	12,905
1084	9,105
1084,5	11,362
1084,9	12,99
1085,3	4,105
1085,7	8,59
1086,1	9,333
1086,5	14,019
1086,9	17,705
1087,3	16,105
1087,7	18,333
1088,2	24,362
1088,6	19,733
1089	18,876
1089,4	13,619
1089,8	15,105
1090,2	13,305
1090,6	14,533
1091	15,219
1091,4	17,676
1091,9	16,619
1092,3	17,39
1092,7	9,962
1093,1	13,39
1093,5	13,505
1093,9	9,219
1094,3	12,562
1094,7	14,133
1095,1	15,705
1095,5	20,19
1096	13,933
1096,4	14,419
1096,8	16,276
1097,2	11,619
1097,6	14,933
1098	14,876
1098,4	16,533
1098,8	20,476
1099,2	22,733
1099,6	22,048
1100,1	22,248
1100,5	15,762
1100,9	14,105
1101,3	13,762
1101,7	13,533
1102,1	10,619
1102,5	14,419
1102,9	14,819
1103,3	22,076
1103,7	22,933
1104,2	18,533
1104,6	18,048
1105	15,762
1105,4	13,648
1105,8	11,048
1106,2	5,533
1106,6	3,19
1107	3,819
1107,4	3,067
1107,8	2,853
1108,3	-0,917
