Data from Subt2_030.txt Node
Date: Sat Aug 26 16:20:39 MSK 2023
User: vat
Spectrometer: MAYP114033
Trigger mode: 0
Integration Time (sec): 1,000000E0
Scans to average: 5
Electric dark correction enabled: true
Nonlinearity correction enabled: false
Boxcar width: 3
XAxis mode: Wavelengths
Number of Pixels in Spectrum: 2068
>>>>>Begin Spectral Data<<<<<
199,4	-0,083
199,9	-0,593
200,4	-2,7
200,8	-3,605
201,3	-2,319
201,8	-0,833
202,2	-0,462
202,7	1,024
203,2	-1,148
203,6	1,138
204,1	3,281
204,6	4,252
205	4,71
205,5	1,967
206	-0,319
206,4	4,624
206,9	4,195
207,4	7,081
207,8	3,367
208,3	3,824
208,8	7,852
209,2	10,167
209,7	7,71
210,2	11,538
210,6	9,995
211,1	9,938
211,5	6,51
212	3,395
212,5	-2,205
212,9	-0,348
213,4	-3,805
213,9	-5,662
214,3	-3,376
214,8	-0,29
215,3	-0,433
215,7	3,224
216,2	3,024
216,7	3,424
217,1	2,481
217,6	-0,319
218,1	-2,205
218,5	2,395
219	10,481
219,5	8,852
219,9	10,081
220,4	8,881
220,9	11,881
221,3	15,852
221,8	10,852
222,3	3,767
222,7	6,91
223,2	8,224
223,6	12,052
224,1	8,967
224,6	8,595
225	9,281
225,5	12,252
226	10,024
226,4	9,252
226,9	5,281
227,4	8,281
227,8	7,51
228,3	11,795
228,8	6,824
229,2	4,567
229,7	3,31
230,2	7,052
230,6	5,167
231,1	4,367
231,5	4,595
232	11,024
232,5	12,024
232,9	11,367
233,4	14,052
233,9	16,024
234,3	15,367
234,8	11,881
235,3	7,338
235,7	14,252
236,2	12,91
236,7	10,852
237,1	11,795
237,6	10,31
238,1	10,167
238,5	11,767
239	2,624
239,4	6,424
239,9	6,252
240,4	7,167
240,8	7,024
241,3	8,538
241,8	7,967
242,2	8,967
242,7	7,995
243,2	4,195
243,6	5,167
244,1	4,281
244,6	1,252
245	1,852
245,5	3,624
245,9	0,852
246,4	1,624
246,9	0,595
247,3	3,995
247,8	5,138
248,3	3,11
248,7	8,51
249,2	6,424
249,7	6,224
250,1	0,252
250,6	-4,176
251	-2,062
251,5	-4,405
252	-8,29
252,4	-2,376
252,9	1,567
253,4	2,424
253,8	5,71
254,3	1,967
254,8	4,424
255,2	-0,09
255,7	-0,976
256,1	-5,205
256,6	-3,205
257,1	-3,948
257,5	1,195
258	0,167
258,5	3,767
258,9	3,91
259,4	5,138
259,9	8,852
260,3	9,967
260,8	7,624
261,2	15,395
261,7	16,195
262,2	13,738
262,6	10,567
263,1	6,195
263,6	8,567
264	6,852
264,5	4,424
264,9	5,567
265,4	8,338
265,9	11,967
266,3	16,567
266,8	11,995
267,3	14,424
267,7	12,481
268,2	7,252
268,7	1,224
269,1	3,424
269,6	0,738
270	5,367
270,5	4,481
271	5,881
271,4	5,167
271,9	10,767
272,4	6,51
272,8	5,138
273,3	-0,033
273,7	-2,262
274,2	-7,433
274,7	-2,662
275,1	-6,176
275,6	-1,69
276,1	1,738
276,5	2,595
277	7,538
277,4	11,31
277,9	9,224
278,4	11,567
278,8	10,338
279,3	7,652
279,8	9,538
280,2	6,31
280,7	-0,662
281,1	1,052
281,6	-0,205
282,1	0,338
282,5	3,595
283	1,738
283,4	3,281
283,9	5,31
284,4	5,052
284,8	6,738
285,3	1,91
285,8	-4,09
286,2	-5,519
286,7	-8,319
287,1	-7,462
287,6	-6,548
288,1	-8,805
288,5	-3,205
289	-0,205
289,5	0,681
289,9	-0,09
290,4	-0,433
290,8	2,481
291,3	-0,319
291,8	-0,148
292,2	3,195
292,7	3,424
293,1	4,481
293,6	9,224
294,1	6,652
294,5	12,452
295	10,452
295,5	9,567
295,9	12,71
296,4	14,795
296,8	11,938
297,3	11,938
297,8	12,71
298,2	8,995
298,7	6,71
299,1	5,91
299,6	2,538
300,1	3,452
300,5	5,967
301	7,11
301,5	9,938
301,9	10,252
302,4	8,081
302,8	10,11
303,3	8,51
303,8	4,367
304,2	-1,033
304,7	-3,033
305,1	-4,09
305,6	-3,805
306,1	0,424
306,5	3,224
307	0,481
307,4	-2,033
307,9	3,052
308,4	4,967
308,8	12,224
309,3	8,452
309,8	7,767
310,2	9,281
310,7	19,71
311,1	14,738
311,6	12,11
312,1	7,281
312,5	5,91
313	2,452
313,4	2,795
313,9	1,938
314,4	1,738
314,8	2,567
315,3	3,91
315,7	4,224
316,2	5,624
316,7	6,567
317,1	1,91
317,6	3,052
318	8,338
318,5	7,624
319	10,367
319,4	13,738
319,9	12,224
320,3	17,138
320,8	19,024
321,3	13,852
321,7	12,081
322,2	11,881
322,6	7,31
323,1	8,052
323,6	1,938
324	-0,005
324,5	1,31
324,9	4,51
325,4	4,881
325,9	10,081
326,3	12,881
326,8	13,424
327,2	14,624
327,7	16,224
328,2	14,052
328,6	12,281
329,1	10,424
329,5	8,681
330	7,052
330,5	5,195
330,9	3,51
331,4	2,967
331,8	10,024
332,3	11,51
332,8	11,424
333,2	14,052
333,7	16,081
334,1	16,338
334,6	17,452
335,1	8,024
335,5	7,852
336	2,024
336,4	2,11
336,9	4,167
337,4	2,681
337,8	1,938
338,3	5,624
338,7	4,881
339,2	10,91
339,7	11,281
340,1	10,967
340,6	9,595
341	14,11
341,5	14,367
342	13,252
342,4	10,11
342,9	8,31
343,3	4,281
343,8	7,052
344,2	4,367
344,7	4,71
345,2	4,738
345,6	10,681
346,1	12,395
346,5	17,252
347	17,138
347,5	10,595
347,9	9,281
348,4	10,538
348,8	5,481
349,3	5,624
349,8	7,938
350,2	6,967
350,7	12,31
351,1	11,338
351,6	11,71
352	23,538
352,5	28,367
353	33,424
353,4	44,795
353,9	55,567
354,3	70,481
354,8	84,452
355,3	98,538
355,7	117,195
356,2	134,852
356,6	155,681
357,1	177,567
357,5	205,538
358	241,652
358,5	278,195
358,9	320,452
359,4	376,11
359,8	429,767
360,3	493,31
360,8	567,624
361,2	649,824
361,7	734,681
362,1	834,195
362,6	937,652
363	1052,081
363,5	1181,481
364	1305,424
364,4	1429,795
364,9	1556,881
365,3	1679,195
365,8	1791,738
366,3	1907,195
366,7	2000,338
367,2	2086,538
367,6	2155,795
368,1	2208,538
368,5	2240,052
369	2260,881
369,5	2259,195
369,9	2236,652
370,4	2195,452
370,8	2137,767
371,3	2076,71
371,7	1999,424
372,2	1907,91
372,7	1802,024
373,1	1707,024
373,6	1605,138
374	1506,252
374,5	1398,081
374,9	1299,91
375,4	1200,081
375,9	1113,481
376,3	1023,11
376,8	940,424
377,2	864,595
377,7	795,567
378,2	728,252
378,6	669,452
379,1	611,652
379,5	560,195
380	516,652
380,4	473,767
380,9	437,195
381,4	404,338
381,8	372,624
382,3	344,081
382,7	315,738
383,2	289,481
383,6	269,538
384,1	248,338
384,6	227,881
385	215,452
385,5	203,652
385,9	192,967
386,4	183,367
386,8	173,167
387,3	164,167
387,7	156,11
388,2	147,252
388,7	138,367
389,1	128,624
389,6	118,938
390	107,481
390,5	96,567
390,9	91,395
391,4	87,738
391,9	80,452
392,3	73,538
392,8	70,081
393,2	64,967
393,7	67,31
394,1	65,424
394,6	60,052
395,1	60,338
395,5	60,281
396	57,167
396,4	58,595
396,9	53,11
397,3	49,452
397,8	49,367
398,2	45,224
398,7	41,11
399,2	38,338
399,6	39,767
400,1	36,995
400,5	36,71
401	37,195
401,4	39,881
401,9	43,652
402,4	49,395
402,8	45,938
403,3	47,424
403,7	49,052
404,2	47,852
404,6	45,71
405,1	48,195
405,5	45,395
406	45,395
406,5	49,167
406,9	48,281
407,4	52,567
407,8	55,967
408,3	59,795
408,7	70,795
409,2	76,595
409,6	81,338
410,1	93,652
410,6	98,538
411	107,967
411,5	114,567
411,9	115,967
412,4	125,51
412,8	133,224
413,3	137,481
413,7	148,138
414,2	161,538
414,7	178,938
415,1	190,138
415,6	204,91
416	218,881
416,5	234,852
416,9	249,767
417,4	262,91
417,8	270,681
418,3	291,224
418,8	302,681
419,2	321,852
419,7	340,567
420,1	355,252
420,6	373,481
421	398,71
421,5	420,795
421,9	449,767
422,4	472,024
422,8	497,71
423,3	527,795
423,8	563,052
424,2	593,024
424,7	622,224
425,1	651,081
425,6	691,681
426	727,481
426,5	763,595
426,9	797,681
427,4	835,824
427,9	879,252
428,3	925,91
428,8	972,767
429,2	1021,881
429,7	1074,167
430,1	1130,138
430,6	1190,681
431	1252,481
431,5	1319,652
431,9	1379,567
432,4	1451,024
432,8	1530,595
433,3	1609,795
433,8	1691,995
434,2	1777,11
434,7	1853,71
435,1	1950,31
435,6	2048,767
436	2151,881
436,5	2257,481
436,9	2366,281
437,4	2488,167
437,8	2612,967
438,3	2740,767
438,8	2859,195
439,2	2984,167
439,7	3118,367
440,1	3261,138
440,6	3403,138
441	3562,195
441,5	3717,252
441,9	3888,395
442,4	4064,424
442,8	4239,424
443,3	4414,11
443,7	4596,11
444,2	4786,052
444,7	4985,081
445,1	5189,795
445,6	5392,338
446	5607,281
446,5	5828,538
446,9	6049,481
447,4	6281,024
447,8	6512,367
448,3	6748,652
448,7	6995,167
449,2	7245,395
449,6	7501,024
450,1	7771,795
450,6	8036,51
451	8298,51
451,5	8576,481
451,9	8856,595
452,4	9142,424
452,8	9435,681
453,3	9723,395
453,7	10022,31
454,2	10337,395
454,6	10648,567
455,1	10963,281
455,5	11281,824
456	11593,424
456,4	11917,024
456,9	12238,567
457,3	12572,138
457,8	12911,452
458,3	13247,224
458,7	13584,252
459,2	13936,595
459,6	14289,081
460,1	14640,938
460,5	14987,195
461	15332,624
461,4	15697,881
461,9	16053,081
462,3	16404,738
462,8	16751,424
463,2	17114,31
463,7	17473,938
464,1	17821,71
464,6	18169,995
465	18515,881
465,5	18868,652
466	19227,224
466,4	19569,652
466,9	19919,938
467,3	20261,338
467,8	20591,195
468,2	20933,938
468,7	21276,224
469,1	21601,31
469,6	21924,11
470	22233,624
470,5	22571,024
470,9	22890,824
471,4	23204,881
471,8	23497,681
472,3	23794,852
472,7	24106,652
473,2	24404,224
473,6	24686,91
474,1	24960,538
474,5	25233,052
475	25529,11
475,4	25808,081
475,9	26073,767
476,4	26330,938
476,8	26573,167
477,3	26828,081
477,7	27075,595
478,2	27280,624
478,6	27484,738
479,1	27665,281
479,5	27857,91
480	28050,481
480,4	28207,91
480,9	28357,595
481,3	28512,624
481,8	28670,852
482,2	28814,938
482,7	28953,338
483,1	29078,938
483,6	29206,052
484	29317,938
484,5	29411,338
484,9	29493,167
485,4	29579,11
485,8	29635,91
486,3	29691,681
486,7	29744,538
487,2	29812,138
487,6	29866,881
488,1	29915,795
488,5	29947,338
489	29975,738
489,4	29987,51
489,9	29994,681
490,4	29961,824
490,8	29948,967
491,3	29905,567
491,7	29863,567
492,2	29818,452
492,6	29764,081
493,1	29701,395
493,5	29627,852
494	29548,081
494,4	29471,338
494,9	29395,881
495,3	29302,852
495,8	29206,024
496,2	29113,738
496,7	29005,052
497,1	28892,795
497,6	28787,681
498	28663,852
498,5	28548,538
498,9	28419,881
499,4	28275,51
499,8	28160,595
500,3	28020,51
500,7	27875,852
501,2	27732,252
501,6	27581,51
502,1	27438,824
502,5	27297,052
503	27143,681
503,4	26983,967
503,9	26833,167
504,3	26655,424
504,8	26477,367
505,2	26297,538
505,7	26110,738
506,1	25918,281
506,6	25730,852
507	25522,224
507,5	25336,967
507,9	25163,938
508,4	24968,452
508,8	24758,967
509,3	24571,795
509,7	24368,024
510,2	24165,224
510,6	23963,938
511,1	23750,195
511,5	23541,338
512	23343,852
512,4	23128,338
512,9	22920,252
513,3	22721,824
513,8	22504,11
514,2	22288,71
514,7	22077,538
515,1	21869,11
515,6	21653,338
516	21444,338
516,5	21219,195
516,9	21003,824
517,4	20785,024
517,8	20571,424
518,3	20357,71
518,7	20143,367
519,2	19935,424
519,6	19726,91
520,1	19518,767
520,5	19315,31
521	19101,195
521,4	18893,367
521,9	18691,795
522,3	18479,624
522,8	18287,995
523,2	18085,167
523,7	17882,452
524,1	17689,967
524,6	17487,367
525	17288,995
525,5	17093,367
525,9	16893,967
526,4	16701,367
526,8	16515,138
527,3	16325,51
527,7	16142,681
528,2	15956,338
528,6	15783,167
529,1	15599,624
529,5	15420,052
530	15249,624
530,4	15082,338
530,9	14918,367
531,3	14753,367
531,8	14586,852
532,2	14416,11
532,6	14253,681
533,1	14069,281
533,5	13903,252
534	13743,138
534,4	13582,91
534,9	13427,652
535,3	13281,967
535,8	13134,481
536,2	12998,967
536,7	12855,995
537,1	12709,481
537,6	12563,424
538	12414,652
538,5	12269,538
538,9	12128,367
539,4	11989,31
539,8	11840,51
540,3	11707,281
540,7	11574,852
541,2	11439,852
541,6	11308,567
542,1	11180,31
542,5	11058,538
543	10943,852
543,4	10822,567
543,9	10691,881
544,3	10576,624
544,8	10452,395
545,2	10338,481
545,7	10216,938
546,1	10097,624
546,5	9985,024
547	9881,738
547,4	9775,024
547,9	9666,481
548,3	9563,567
548,8	9459,024
549,2	9367,338
549,7	9268,71
550,1	9170,081
550,6	9064,852
551	8976,252
551,5	8881,681
551,9	8790,881
552,4	8692,195
552,8	8597,624
553,3	8510,167
553,7	8422,91
554,2	8339,281
554,6	8250,795
555,1	8172,824
555,5	8094,195
555,9	8009,395
556,4	7933,252
556,8	7856,481
557,3	7777,938
557,7	7709,624
558,2	7624,824
558,6	7547,138
559,1	7479,567
559,5	7410,195
560	7346,995
560,4	7275,995
560,9	7209,424
561,3	7142,252
561,8	7080,824
562,2	7005,252
562,7	6928,795
563,1	6852,652
563,6	6786,567
564	6720,31
564,4	6661,681
564,9	6587,567
565,3	6534,224
565,8	6478,31
566,2	6426,452
566,7	6370,252
567,1	6309,652
567,6	6248,681
568	6199,91
568,5	6134,824
568,9	6083,281
569,4	6028,767
569,8	5973,138
570,3	5919,91
570,7	5864,11
571,1	5807,452
571,6	5765,71
572	5717,195
572,5	5662,881
572,9	5615,281
573,4	5561,91
573,8	5519,195
574,3	5478,424
574,7	5427,367
575,2	5374,081
575,6	5332,024
576,1	5288,481
576,5	5239,652
576,9	5194,795
577,4	5143,738
577,8	5099,11
578,3	5050,31
578,7	5005,681
579,2	4958,852
579,6	4930,052
580,1	4883,424
580,5	4846,824
581	4803,824
581,4	4771,281
581,9	4734,138
582,3	4691,538
582,7	4644,995
583,2	4600,681
583,6	4558,767
584,1	4519,967
584,5	4483,252
585	4438,338
585,4	4401,624
585,9	4364,91
586,3	4333,567
586,8	4294,395
587,2	4258,081
587,6	4213,852
588,1	4184,595
588,5	4151,167
589	4112,11
589,4	4077,824
589,9	4047,767
590,3	4015,995
590,8	3995,11
591,2	3965,852
591,7	3938,224
592,1	3907,367
592,5	3882,138
593	3856,138
593,4	3824,824
593,9	3791,824
594,3	3756,767
594,8	3732,138
595,2	3711,938
595,7	3684,052
596,1	3656,252
596,6	3638,11
597	3615,338
597,4	3593,767
597,9	3565,938
598,3	3543,281
598,8	3519,938
599,2	3494,652
599,7	3469,052
600,1	3445,252
600,6	3420,624
601	3398,138
601,4	3371,652
601,9	3344,024
602,3	3319,081
602,8	3292,081
603,2	3270,052
603,7	3246,538
604,1	3226,795
604,6	3199,195
605	3176,767
605,4	3158,681
605,9	3132,595
606,3	3108,252
606,8	3083,395
607,2	3058,31
607,7	3043,452
608,1	3024,252
608,6	2999,51
609	2985,881
609,4	2965,91
609,9	2949,795
610,3	2930,938
610,8	2910,652
611,2	2892,51
611,7	2873,824
612,1	2848,995
612,6	2832,195
613	2811,681
613,4	2790,595
613,9	2769,481
614,3	2748,138
614,8	2721,71
615,2	2707,052
615,7	2684,167
616,1	2667,881
616,6	2647,938
617	2625,081
617,4	2604,138
617,9	2589,681
618,3	2567,052
618,8	2547,081
619,2	2525,51
619,7	2507,395
620,1	2493,652
620,5	2482,652
621	2469,138
621,4	2453,852
621,9	2435,395
622,3	2425,938
622,8	2403,652
623,2	2382,938
623,6	2356,281
624,1	2340,681
624,5	2326,395
625	2308,11
625,4	2287,681
625,9	2278,767
626,3	2261,138
626,8	2255,681
627,2	2237,252
627,6	2218,795
628,1	2203,452
628,5	2181,995
629	2158,452
629,4	2138,738
629,9	2116,252
630,3	2097,995
630,7	2082,938
631,2	2069,767
631,6	2058,167
632,1	2044,252
632,5	2035,281
633	2018,852
633,4	2005,138
633,8	1991,31
634,3	1975,538
634,7	1957,252
635,2	1945,795
635,6	1929,91
636,1	1920,938
636,5	1904,51
636,9	1888,995
637,4	1878,052
637,8	1862,424
638,3	1844,652
638,7	1831,11
639,2	1815,652
639,6	1807,138
640	1791,824
640,5	1775,652
640,9	1764,11
641,4	1754,138
641,8	1742,624
642,2	1733,91
642,7	1717,624
643,1	1714,024
643,6	1703,167
644	1700,852
644,5	1692,824
644,9	1684,367
645,3	1672,681
645,8	1664,795
646,2	1652,938
646,7	1641,481
647,1	1622,081
647,6	1609,567
648	1593,567
648,4	1579,595
648,9	1570,281
649,3	1560,052
649,8	1554,281
650,2	1544,881
650,6	1535,881
651,1	1532,795
651,5	1524,452
652	1511,51
652,4	1495,31
652,9	1488,852
653,3	1482,338
653,7	1469,795
654,2	1460,338
654,6	1444,624
655,1	1431,452
655,5	1421,624
655,9	1407,538
656,4	1392,167
656,8	1382,367
657,3	1370,138
657,7	1359,538
658,2	1356,081
658,6	1344,31
659	1329,967
659,5	1325,024
659,9	1316,395
660,4	1302,795
660,8	1305,795
661,2	1294,252
661,7	1287,767
662,1	1281,252
662,6	1266,824
663	1262,195
663,4	1256,11
663,9	1237,024
664,3	1229,624
664,8	1220,738
665,2	1208,138
665,6	1204,081
666,1	1189,652
666,5	1179,252
667	1168,567
667,4	1156,767
667,9	1144,995
668,3	1141,852
668,7	1133,938
669,2	1126,224
669,6	1118,652
670,1	1117,081
670,5	1109,11
670,9	1109,281
671,4	1097,881
671,8	1086,281
672,3	1081,567
672,7	1070,567
673,1	1059,51
673,6	1051,595
674	1041,11
674,5	1037,138
674,9	1035,11
675,3	1024,652
675,8	1021,081
676,2	1018,481
676,7	1013,281
677,1	1003,452
677,5	994,424
678	989,338
678,4	985,024
678,9	974,338
679,3	961,367
679,7	951,91
680,2	951,51
680,6	941,11
681,1	928,824
681,5	921,167
681,9	916,681
682,4	917,538
682,8	908,567
683,3	893,452
683,7	888,767
684,1	878,967
684,6	871,424
685	863,138
685,5	849,424
685,9	849,195
686,3	846,538
686,8	838,738
687,2	835,995
687,7	829,452
688,1	827,652
688,5	824,11
689	818,71
689,4	816,567
689,9	812,452
690,3	810,138
690,7	803,624
691,2	798,081
691,6	793,281
692	784,852
692,5	774,51
692,9	769,281
693,4	760,452
693,8	757,31
694,2	747,11
694,7	743,567
695,1	739,338
695,6	730,995
696	725,795
696,4	718,052
696,9	711,452
697,3	707,938
697,8	696,395
698,2	687,424
698,6	689,795
699,1	682,795
699,5	685,252
699,9	680,081
700,4	674,024
700,8	673,538
701,3	672,652
701,7	661,395
702,1	655,252
702,6	645,367
703	637,224
703,5	635,624
703,9	629,367
704,3	625,138
704,8	627,11
705,2	625,31
705,6	612,567
706,1	616,652
706,5	612,367
707	609,252
707,4	604,252
707,8	597,395
708,3	591,881
708,7	598,395
709,2	587,538
709,6	580,738
710	572,167
710,5	568,967
710,9	561,538
711,3	560,024
711,8	551,938
712,2	550,824
712,7	549,71
713,1	549,967
713,5	543,738
714	543,71
714,4	535,852
714,8	534,452
715,3	528,938
715,7	518,767
716,2	514,224
716,6	512,11
717	505,652
717,5	505,624
717,9	495,367
718,3	491,424
718,8	492,395
719,2	488,395
719,7	489,338
720,1	484,31
720,5	478,938
721	477,738
721,4	478,881
721,8	479,738
722,3	472,452
722,7	459,71
723,2	457,195
723,6	453,224
724	451,852
724,5	440,995
724,9	429,881
725,3	426,595
725,8	425,367
726,2	419,252
726,7	419,338
727,1	413,71
727,5	414,681
728	417,824
728,4	419,081
728,8	417,824
729,3	419,338
729,7	412,367
730,1	409,824
730,6	404,281
731	401,424
731,5	399,081
731,9	399,824
732,3	399,938
732,8	398,281
733,2	397,167
733,6	398,281
734,1	393,51
734,5	384,91
734,9	381,081
735,4	377,824
735,8	376,938
736,3	373,281
736,7	366,481
737,1	365,567
737,6	367,195
738	363,652
738,4	361,338
738,9	363,281
739,3	357,395
739,7	357,538
740,2	352,252
740,6	352,167
741,1	350,567
741,5	346,138
741,9	336,024
742,4	335,738
742,8	340,338
743,2	342,995
743,7	339,395
744,1	335,767
744,5	335,767
745	335,91
745,4	335,481
745,8	326,738
746,3	318,252
746,7	316,424
747,2	317,11
747,6	308,681
748	309,167
748,5	308,052
748,9	305,481
749,3	310,824
749,8	306,11
750,2	300,681
750,6	300,738
751,1	298,852
751,5	292,567
751,9	289,024
752,4	282,424
752,8	280,481
753,3	278,71
753,7	278,938
754,1	275,195
754,6	276,767
755	276,567
755,4	274,395
755,9	277,167
756,3	271,395
756,7	267,881
757,2	268,224
757,6	266,824
758	262,11
758,5	259,795
758,9	255,481
759,3	258,252
759,8	260,281
760,2	257,738
760,6	257,738
761,1	258,652
761,5	258,852
761,9	257,024
762,4	255,452
762,8	250,338
763,3	247,281
763,7	242,024
764,1	238,367
764,6	236,967
765	230,624
765,4	228,738
765,9	225,081
766,3	221,681
766,7	223,024
767,2	227,252
767,6	222,31
768	225,624
768,5	222,367
768,9	219,567
769,3	220,538
769,8	220,738
770,2	223,538
770,6	224,595
771,1	227,624
771,5	228,967
771,9	232,424
772,4	237,51
772,8	235,738
773,2	225,938
773,7	224,91
774,1	222,081
774,5	219,767
775	212,881
775,4	204,195
775,8	202,195
776,3	201,11
776,7	203,424
777,1	202,167
777,6	199,738
778	202,024
778,4	199,824
778,9	195,367
779,3	195,824
779,7	188,224
780,2	184,51
780,6	184,31
781	186,195
781,5	188,167
781,9	191,338
782,3	188,281
782,8	186,738
783,2	184,281
783,6	176,31
784,1	177,91
784,5	173,452
784,9	173,938
785,4	176,395
785,8	175,938
786,2	173,195
786,7	178,795
787,1	173,624
787,5	174,538
788	170,052
788,4	165,167
788,8	163,567
789,3	163,51
789,7	163,824
790,1	163,967
790,6	161,481
791	163,852
791,4	161,424
791,9	162,367
792,3	162,652
792,7	163,51
793,2	157,024
793,6	159,281
794	153,652
794,5	156,052
794,9	157,481
795,3	155,338
795,8	149,252
796,2	151,567
796,6	143,424
797,1	143,31
797,5	142,881
797,9	137,681
798,4	138,51
798,8	137,967
799,2	138,452
799,7	146,024
800,1	141,481
800,5	139,71
801	139,795
801,4	133,681
801,8	135,281
802,2	135,224
802,7	129,538
803,1	134,424
803,5	135,824
804	133,852
804,4	134,138
804,8	132,31
805,3	125,395
805,7	127,167
806,1	125,71
806,6	122,567
807	123,767
807,4	123,424
807,9	122,91
808,3	121,567
808,7	116,538
809,2	112,367
809,6	112,338
810	110,91
810,4	114,91
810,9	109,738
811,3	114,167
811,7	113,081
812,2	117,567
812,6	115,167
813	117,624
813,5	116,081
813,9	117,938
814,3	114,11
814,8	117,167
815,2	112,024
815,6	108,024
816,1	106,91
816,5	106,367
816,9	106,224
817,3	105,281
817,8	106,967
818,2	102,452
818,6	102,11
819,1	99,167
819,5	95,138
819,9	90,424
820,4	90,081
820,8	83,424
821,2	88,167
821,7	88,738
822,1	87,738
822,5	87,281
822,9	91,167
823,4	91,024
823,8	94,338
824,2	91,71
824,7	96,995
825,1	98,424
825,5	102,081
826	102,795
826,4	104,224
826,8	104,795
827,3	110,938
827,7	108,767
828,1	108,481
828,5	107,195
829	100,881
829,4	102,51
829,8	93,91
830,3	89,91
830,7	80,738
831,1	75,567
831,6	70,138
832	69,881
832,4	65,338
832,8	67,795
833,3	61,481
833,7	68,481
834,1	68,738
834,6	66,71
835	71,024
835,4	75,795
835,8	72,767
836,3	73,852
836,7	66,538
837,1	64,424
837,6	65,338
838	58,081
838,4	49,167
838,9	56,71
839,3	58,852
839,7	64,481
840,1	63,281
840,6	68,51
841	70,424
841,4	70,795
841,9	65,767
842,3	63,795
842,7	62,938
843,1	69,538
843,6	66,452
844	66,595
844,4	69,31
844,9	70,452
845,3	68,052
845,7	68,652
846,2	64,252
846,6	60,938
847	58,338
847,4	59,824
847,9	55,281
848,3	57,624
848,7	55,424
849,2	53,338
849,6	56,681
850	58,481
850,4	59,138
850,9	62,452
851,3	58,11
851,7	58,71
852,2	55,51
852,6	52,824
853	57,338
853,4	57,681
853,9	54,281
854,3	57,852
854,7	52,824
855,2	55,138
855,6	51,452
856	42,424
856,4	37,681
856,9	38,252
857,3	34,367
857,7	38,481
858,2	40,938
858,6	48,91
859	49,624
859,4	48,995
859,9	48,224
860,3	51,11
860,7	47,51
861,1	48,595
861,6	42,481
862	45,052
862,4	43,11
862,9	43,738
863,3	42,881
863,7	41,795
864,1	37,281
864,6	36,71
865	38,538
865,4	39,195
865,9	36,938
866,3	34,424
866,7	40,31
867,1	42,995
867,6	43,252
868	43,31
868,4	43,395
868,8	47,367
869,3	48,767
869,7	43,881
870,1	44,624
870,6	42,195
871	48,767
871,4	45,681
871,8	40,652
872,3	42,967
872,7	42,338
873,1	40,652
873,5	46,424
874	36,367
874,4	36,11
874,8	36,852
875,3	33,167
875,7	34,224
876,1	31,481
876,5	32,824
877	33,595
877,4	35,51
877,8	39,767
878,2	40,395
878,7	43,881
879,1	44,91
879,5	41,052
879,9	43,51
880,4	40,795
880,8	39,481
881,2	40,624
881,7	41,052
882,1	38,71
882,5	35,024
882,9	30,652
883,4	35,881
883,8	35,31
884,2	33,538
884,6	25,195
885,1	29,681
885,5	34,767
885,9	38,252
886,3	35,367
886,8	31,395
887,2	28,624
887,6	28,995
888	23,767
888,5	19,024
888,9	18,881
889,3	16,224
889,8	16,91
890,2	16,881
890,6	17,852
891	18,852
891,5	20,281
891,9	23,052
892,3	23,538
892,7	23,367
893,2	25,081
893,6	24,681
894	23,024
894,4	21,767
894,9	16,71
895,3	17,681
895,7	19,338
896,1	24,281
896,6	25,31
897	27,138
897,4	25,395
897,8	26,195
898,3	28,281
898,7	26,795
899,1	19,938
899,5	16,824
900	18,624
900,4	17,624
900,8	15,795
901,2	12,167
901,7	10,967
902,1	14,11
902,5	19,567
902,9	20,167
903,4	23,538
903,8	19,224
904,2	21,767
904,6	19,624
905,1	22,767
905,5	18,881
905,9	18,538
906,3	17,967
906,8	22,195
907,2	18,538
907,6	23,824
908	17,681
908,5	19,652
908,9	16,195
909,3	15,767
909,7	14,938
910,2	13,424
910,6	13,138
911	14,852
911,4	14,395
911,9	15,31
912,3	16,367
912,7	16,681
913,1	15,167
913,6	15,967
914	12,995
914,4	8,424
914,8	10,31
915,3	7,51
915,7	4,195
916,1	7,595
916,5	4,681
916,9	5,852
917,4	8,91
917,8	5,51
918,2	4,052
918,6	8,91
919,1	11,595
919,5	14,481
919,9	14,995
920,3	13,31
920,8	12,567
921,2	17,852
921,6	14,052
922	11,167
922,5	8,795
922,9	7,167
923,3	13,995
923,7	12,452
924,2	6,538
924,6	8,31
925	8,338
925,4	7,824
925,8	8,224
926,3	5,538
926,7	9,681
927,1	14,281
927,5	15,538
928	16,252
928,4	14,852
928,8	21,767
929,2	22,767
929,7	19,195
930,1	15,538
930,5	13,881
930,9	14,795
931,3	14,681
931,8	9,081
932,2	3,252
932,6	5,881
933	4,052
933,5	4,367
933,9	4,281
934,3	2,995
934,7	4,481
935,2	11,224
935,6	11,624
936	13,252
936,4	12,367
936,8	11,11
937,3	12,995
937,7	10,624
938,1	-0,062
938,5	0,852
939	2,824
939,4	2,71
939,8	4,395
940,2	3,681
940,6	2,281
941,1	11,424
941,5	10,538
941,9	8,481
942,3	6,11
942,8	4,881
943,2	3,967
943,6	7,281
944	3,824
944,4	-2,49
944,9	-1,033
945,3	1,652
945,7	2,567
946,1	1,138
946,6	1,224
947	3,452
947,4	9,052
947,8	10,167
948,2	8,481
948,7	8,481
949,1	11,995
949,5	11,938
949,9	14,224
950,3	14,395
950,8	10,852
951,2	13,567
951,6	16,11
952	12,71
952,5	10,224
952,9	1,967
953,3	-0,69
953,7	1,938
954,1	-0,119
954,6	-3,433
955	-0,605
955,4	-1,405
955,8	5,338
956,2	4,967
956,7	5,138
957,1	8,281
957,5	5,852
957,9	8,91
958,3	7,738
958,8	8,31
959,2	10,624
959,6	7,51
960	4,595
960,5	6,538
960,9	-0,576
961,3	2,138
961,7	-1,548
962,1	-2,919
962,6	-0,062
963	-0,776
963,4	1,195
963,8	2,31
964,2	0,11
964,7	-2,49
965,1	0,538
965,5	1,31
965,9	1,767
966,3	0,338
966,8	1,481
967,2	6,824
967,6	12,052
968	9,624
968,4	8,624
968,9	13,881
969,3	11,824
969,7	10,481
970,1	9,138
970,5	6,452
971	2,138
971,4	5,91
971,8	2,824
972,2	7,967
972,6	10,995
973,1	8,452
973,5	7,367
973,9	9,395
974,3	5,31
974,7	3,081
975,2	-6,69
975,6	-12,49
976	-8,062
976,4	-5,576
976,8	-0,005
977,3	-2,633
977,7	-4,09
978,1	-2,176
978,5	3,481
978,9	-0,719
979,4	-3,205
979,8	-7,69
980,2	-7,005
980,6	-4,148
981	1,281
981,5	1,452
981,9	-1,062
982,3	-1,09
982,7	-1,348
983,1	4,567
983,6	6,195
984	5,567
984,4	5,195
984,8	7,767
985,2	6,281
985,6	6,938
986,1	4,195
986,5	-2,062
986,9	-1,233
987,3	-1,005
987,7	1,167
988,2	6,281
988,6	4,024
989	4,281
989,4	10,681
989,8	8,024
990,3	6,481
990,7	2,31
991,1	-1,548
991,5	1,195
991,9	3,224
992,3	-2,833
992,8	1,11
993,2	4,967
993,6	7,538
994	6,567
994,4	7,167
994,9	6,252
995,3	9,281
995,7	6,881
996,1	3,91
996,5	2,824
996,9	2,595
997,4	3,795
997,8	-0,519
998,2	2,31
998,6	1,795
999	-1,005
999,5	-0,462
999,9	3,395
1000,3	6,767
1000,7	7,252
1001,1	4,938
1001,5	1,252
1002	1,995
1002,4	2,995
1002,8	3,395
1003,2	-1,376
1003,6	3,567
1004	4,538
1004,5	5,567
1004,9	7,767
1005,3	4,71
1005,7	-1,148
1006,1	-4,548
1006,6	-7,776
1007	-6,719
1007,4	-0,948
1007,8	-0,462
1008,2	-0,605
1008,6	2,31
1009,1	1,167
1009,5	6,338
1009,9	9,052
1010,3	7,852
1010,7	7,338
1011,1	11,452
1011,6	11,367
1012	12,338
1012,4	9,167
1012,8	1,738
1013,2	0,424
1013,6	3,052
1014,1	1,338
1014,5	2,738
1014,9	8,967
1015,3	3,281
1015,7	2,91
1016,1	2,738
1016,6	1,11
1017	4,367
1017,4	2,738
1017,8	-6,119
1018,2	-6,348
1018,6	2,881
1019,1	2,967
1019,5	7,11
1019,9	6,167
1020,3	9,167
1020,7	14,91
1021,1	18,167
1021,6	8,738
1022	7,452
1022,4	5,424
1022,8	2,71
1023,2	0,395
1023,6	-2,519
1024,1	1,595
1024,5	3,138
1024,9	6,71
1025,3	3,31
1025,7	5,538
1026,1	6,824
1026,6	11,024
1027	6,852
1027,4	11,967
1027,8	10,624
1028,2	11,281
1028,6	9,881
1029	7,281
1029,5	7,252
1029,9	6,595
1030,3	5,338
1030,7	0,824
1031,1	-3,205
1031,5	-5,148
1032	-0,633
1032,4	-1,205
1032,8	-3,205
1033,2	-3,119
1033,6	4,138
1034	7,767
1034,4	16,052
1034,9	13,052
1035,3	13,538
1035,7	14,881
1036,1	12,624
1036,5	6,538
1036,9	7,138
1037,4	0,681
1037,8	-1,09
1038,2	-8,262
1038,6	-11,176
1039	-13,405
1039,4	-13,119
1039,8	-16,376
1040,3	-14,49
1040,7	-18,519
1041,1	-11,919
1041,5	-9,433
1041,9	-7,748
1042,3	-6,176
1042,7	-0,805
1043,2	-2,376
1043,6	5,224
1044	4,395
1044,4	3,652
1044,8	4,252
1045,2	4,91
1045,6	1,824
1046,1	3,624
1046,5	3,652
1046,9	3,681
1047,3	7,224
1047,7	7,567
1048,1	8,967
1048,5	10,281
1049	7,395
1049,4	7,024
1049,8	9,081
1050,2	7,51
1050,6	10,052
1051	13,624
1051,4	13,252
1051,9	16,51
1052,3	8,767
1052,7	6,881
1053,1	6,995
1053,5	5,652
1053,9	-5,433
1054,3	-7,919
1054,8	-5,062
1055,2	2,11
1055,6	7,081
1056	6,567
1056,4	7,195
1056,8	12,481
1057,2	14,995
1057,6	11,081
1058,1	11,681
1058,5	4,31
1058,9	9,024
1059,3	7,31
1059,7	2,795
1060,1	-0,862
1060,5	-2,776
1061	-8,09
1061,4	-0,433
1061,8	-8,29
1062,2	-9,405
1062,6	-5,919
1063	-4,69
1063,4	-6,49
1063,8	-2,605
1064,3	-9,176
1064,7	-8,576
1065,1	-9,919
1065,5	-5,29
1065,9	-1,89
1066,3	-5,176
1066,7	-5,976
1067,1	-7,662
1067,6	-5,548
1068	-5,919
1068,4	-6,49
1068,8	-9,319
1069,2	-7,862
1069,6	-5,433
1070	0,424
1070,4	2,567
1070,9	3,681
1071,3	0,767
1071,7	3,081
1072,1	9,595
1072,5	12,738
1072,9	15,681
1073,3	17,967
1073,7	17,624
1074,2	21,252
1074,6	20,052
1075	18,767
1075,4	12,395
1075,8	6,395
1076,2	3,424
1076,6	4,138
1077	-4,119
1077,5	-2,319
1077,9	-2,376
1078,3	-3,29
1078,7	-2,89
1079,1	0,281
1079,5	-1,205
1079,9	4,738
1080,3	7,224
1080,7	9,395
1081,2	12,595
1081,6	13,938
1082	9,481
1082,4	7,967
1082,8	5,652
1083,2	-1,69
1083,6	-4,662
1084	-8,919
1084,5	-8,49
1084,9	-9,29
1085,3	-8,433
1085,7	-9,862
1086,1	-9,548
1086,5	-9,376
1086,9	-2,605
1087,3	-3,89
1087,7	-0,29
1088,2	0,624
1088,6	-0,376
1089	-2,319
1089,4	-2,405
1089,8	-2,176
1090,2	-4,948
1090,6	-7,748
1091	-2,319
1091,4	2,795
1091,9	9,424
1092,3	9,567
1092,7	6,11
1093,1	6,71
1093,5	3,738
1093,9	4,281
1094,3	3,881
1094,7	-0,433
1095,1	-2,376
1095,5	-2,005
1096	-4,833
1096,4	1,452
1096,8	-5,09
1097,2	-5,748
1097,6	-5,805
1098	-5,033
1098,4	-3,805
1098,8	1,824
1099,2	-3,062
1099,6	2,252
1100,1	2,567
1100,5	5,881
1100,9	5,224
1101,3	5,938
1101,7	9,71
1102,1	11,824
1102,5	8,452
1102,9	4,51
1103,3	2,452
1103,7	3,252
1104,2	2,681
1104,6	-1,376
1105	0,51
1105,4	0,938
1105,8	3,795
1106,2	5,024
1106,6	4,481
1107	2,652
1107,4	1,533
1107,8	0,127
1108,3	-0,033
