Data from Subt2_187.txt Node
Date: Sat Aug 26 18:41:38 MSK 2023
User: vat
Spectrometer: MAYP114033
Trigger mode: 0
Integration Time (sec): 1,000000E0
Scans to average: 5
Electric dark correction enabled: true
Nonlinearity correction enabled: false
Boxcar width: 3
XAxis mode: Wavelengths
Number of Pixels in Spectrum: 2068
>>>>>Begin Spectral Data<<<<<
199,4	-0,083
199,9	1,107
200,4	0,767
200,8	2,667
201,3	2,638
201,8	3,067
202,2	1,61
202,7	4,467
203,2	2,295
203,6	-0,248
204,1	-1,533
204,6	-2,648
205	-2,276
205,5	-2,076
206	-5,933
206,4	-4,476
206,9	-1,79
207,4	-2,305
207,8	-3,105
208,3	-0,905
208,8	-1,019
209,2	0,752
209,7	3,438
210,2	5,038
210,6	5,352
211,1	4,838
211,5	0,638
212	3,152
212,5	2,695
212,9	-0,476
213,4	-2,99
213,9	-5,533
214,3	-1,076
214,8	4,581
215,3	1,638
215,7	2,267
216,2	4,838
216,7	6,01
217,1	6,981
217,6	5,095
218,1	0,724
218,5	-1,59
219	-7,248
219,5	-8,162
219,9	-11,876
220,4	-4,733
220,9	-5,533
221,3	-7,533
221,8	-2,79
222,3	0,352
222,7	-0,076
223,2	3,924
223,6	-0,848
224,1	0,01
224,6	3,124
225	-4,99
225,5	-1,562
226	0,21
226,4	2,381
226,9	1,41
227,4	2,381
227,8	-1,762
228,3	2,667
228,8	2,667
229,2	3,81
229,7	0,695
230,2	4,695
230,6	3,61
231,1	13,581
231,5	18,095
232	17,152
232,5	14,124
232,9	18,01
233,4	18,695
233,9	19,581
234,3	13,267
234,8	9,752
235,3	7,695
235,7	5,581
236,2	6,095
236,7	3,381
237,1	3,21
237,6	-0,019
238,1	3,01
238,5	0,61
239	5,152
239,4	6,952
239,9	3,438
240,4	4,695
240,8	9,267
241,3	4,01
241,8	8,667
242,2	6,152
242,7	1,781
243,2	6,924
243,6	5,01
244,1	7,381
244,6	10,552
245	7,124
245,5	7,41
245,9	2,21
246,4	1,41
246,9	2,924
247,3	-2,248
247,8	0,152
248,3	1,467
248,7	4,838
249,2	9,467
249,7	5,724
250,1	5,324
250,6	5,495
251	5,838
251,5	6,981
252	2,352
252,4	2,495
252,9	1,152
253,4	-0,79
253,8	0,152
254,3	-0,762
254,8	-0,848
255,2	-1,19
255,7	-3,876
256,1	-0,79
256,6	-0,562
257,1	-1,619
257,5	-2,99
258	-3,162
258,5	-4,79
258,9	-4,619
259,4	-6,248
259,9	-4,819
260,3	-5,105
260,8	-6,162
261,2	-5,105
261,7	1,895
262,2	1,181
262,6	0,324
263,1	1,752
263,6	5,238
264	10,638
264,5	12,267
264,9	8,295
265,4	10,352
265,9	12,552
266,3	16,495
266,8	15,21
267,3	8,552
267,7	6,695
268,2	10,524
268,7	13,752
269,1	10,038
269,6	3,81
270	3,095
270,5	1,667
271	2,981
271,4	2,295
271,9	-4,076
272,4	1,495
272,8	-0,305
273,3	-0,076
273,7	3,981
274,2	0,324
274,7	-3,162
275,1	2,381
275,6	0,952
276,1	0,952
276,5	3,524
277	3,181
277,4	5,295
277,9	8,695
278,4	6,667
278,8	10,352
279,3	15,981
279,8	14,038
280,2	13,467
280,7	15,895
281,1	10,952
281,6	8,924
282,1	5,352
282,5	3,381
283	-2,105
283,4	-0,162
283,9	-2,762
284,4	0,01
284,8	2,267
285,3	-1,733
285,8	-0,133
286,2	5,638
286,7	-0,048
287,1	-1,19
287,6	-2,219
288,1	-3,39
288,5	5,381
289	-2,39
289,5	-1,248
289,9	0,81
290,4	4,152
290,8	4,124
291,3	3,324
291,8	-2,048
292,2	1,181
292,7	4,524
293,1	8,381
293,6	7,895
294,1	10,61
294,5	14,41
295	14,41
295,5	17,238
295,9	12,581
296,4	9,81
296,8	7,152
297,3	6,095
297,8	-0,59
298,2	-1,305
298,7	-2,305
299,1	-0,99
299,6	-5,562
300,1	-3,219
300,5	-2,99
301	4,724
301,5	9,324
301,9	9,495
302,4	7,495
302,8	13,495
303,3	11,295
303,8	8,267
304,2	5,952
304,7	-0,105
305,1	-2,819
305,6	1,124
306,1	7,21
306,5	11,238
307	14,124
307,4	14,81
307,9	14,067
308,4	12,095
308,8	1,667
309,3	-2,048
309,8	-6,733
310,2	-7,19
310,7	-10,59
311,1	-10,362
311,6	-9,876
312,1	-3,133
312,5	-1,505
313	2,724
313,4	0,867
313,9	1,21
314,4	0,438
314,8	1,067
315,3	1,21
315,7	-4,562
316,2	-8,59
316,7	-9,019
317,1	-3,705
317,6	1,324
318	7,695
318,5	4,638
319	5,838
319,4	11,181
319,9	17,838
320,3	14,552
320,8	13,095
321,3	12,924
321,7	22,352
322,2	19,867
322,6	15,038
323,1	7,638
323,6	6,895
324	5,01
324,5	2,952
324,9	-2,533
325,4	0,524
325,9	8,21
326,3	10,352
326,8	13,752
327,2	10,038
327,7	9,067
328,2	6,952
328,6	11,181
329,1	2,981
329,5	5,438
330	1,038
330,5	8,381
330,9	9,581
331,4	9,524
331,8	2,981
332,3	11,667
332,8	9,752
333,2	11,61
333,7	8,324
334,1	7,695
334,6	5,21
335,1	3,581
335,5	-0,762
336	-2,248
336,4	-1,305
336,9	5,952
337,4	9,667
337,8	16,21
338,3	21,81
338,7	20,924
339,2	20,238
339,7	22,41
340,1	16,467
340,6	15,181
341	5,981
341,5	1,467
342	-1,819
342,4	-2,305
342,9	-5,019
343,3	-6,79
343,8	-10,105
344,2	-2,819
344,7	2,695
345,2	5,124
345,6	7,01
346,1	11,667
346,5	11,467
347	9,324
347,5	10,152
347,9	7,324
348,4	6,867
348,8	7,381
349,3	5,295
349,8	8,295
350,2	17,952
350,7	14,867
351,1	17,752
351,6	21,124
352	26,581
352,5	30,067
353	39,952
353,4	42,381
353,9	52,61
354,3	64,524
354,8	78,181
355,3	95,752
355,7	113,267
356,2	131,61
356,6	157,524
357,1	185,638
357,5	220,552
358	258,038
358,5	296,895
358,9	345,924
359,4	403,495
359,8	462,638
360,3	537,238
360,8	609,924
361,2	696,895
361,7	796,124
362,1	901,381
362,6	1015,01
363	1136,667
363,5	1264,295
364	1409,695
364,4	1548,924
364,9	1688,238
365,3	1826,724
365,8	1961,352
366,3	2086,124
366,7	2195,695
367,2	2288,238
367,6	2368,724
368,1	2432,581
368,5	2474,324
369	2492,581
369,5	2502,324
369,9	2490,895
370,4	2454,295
370,8	2405,581
371,3	2335,61
371,7	2256,095
372,2	2158,381
372,7	2053,752
373,1	1941,638
373,6	1824,552
374	1706,667
374,5	1593,381
374,9	1480,724
375,4	1375,324
375,9	1268,61
376,3	1170,352
376,8	1079,41
377,2	995,695
377,7	906,524
378,2	829,381
378,6	760,924
379,1	698,095
379,5	641,61
380	592,838
380,4	539,267
380,9	500,124
381,4	457,61
381,8	427,867
382,3	399,438
382,7	371,267
383,2	345,152
383,6	319,095
384,1	301,552
384,6	286,152
385	259,095
385,5	237,695
385,9	220,381
386,4	202,21
386,8	193,438
387,3	174,81
387,7	162,752
388,2	155,41
388,7	146,552
389,1	135,41
389,6	126,781
390	116,295
390,5	112,495
390,9	104,524
391,4	95,524
391,9	85,238
392,3	80,295
392,8	73,295
393,2	67,495
393,7	62,752
394,1	57,667
394,6	56,324
395,1	58,581
395,5	53,267
396	53,952
396,4	55,752
396,9	51,238
397,3	51,324
397,8	51,895
398,2	49,667
398,7	53,638
399,2	53,181
399,6	48,924
400,1	51,381
400,5	49,524
401	49,981
401,4	45,952
401,9	46,781
402,4	49,924
402,8	48,181
403,3	52,324
403,7	53,381
404,2	53,038
404,6	53,724
405,1	50,981
405,5	48,067
406	49,352
406,5	45,667
406,9	47,981
407,4	46,438
407,8	50,124
408,3	53,152
408,7	54,895
409,2	62,838
409,6	69,267
410,1	74,838
410,6	83,581
411	92,81
411,5	97,181
411,9	103,21
412,4	108,181
412,8	113,381
413,3	117,124
413,7	119,581
414,2	117,638
414,7	131,238
415,1	141,895
415,6	149,467
416	156,324
416,5	165,667
416,9	177,552
417,4	193,067
417,8	204,381
418,3	214,495
418,8	229,438
419,2	241,21
419,7	253,552
420,1	264,895
420,6	274,867
421	278,181
421,5	288,21
421,9	298,495
422,4	315,924
422,8	329,752
423,3	343,467
423,8	360,124
424,2	377,724
424,7	395,895
425,1	411,21
425,6	430,095
426	449,181
426,5	472,038
426,9	494,638
427,4	517,438
427,9	538,695
428,3	568,438
428,8	591,867
429,2	615,21
429,7	642,124
430,1	669,467
430,6	701,61
431	737,41
431,5	771,41
431,9	805,41
432,4	848,838
432,8	890,924
433,3	936,467
433,8	979,295
434,2	1023,495
434,7	1068,752
435,1	1122,01
435,6	1173,21
436	1230,095
436,5	1286,41
436,9	1344,495
437,4	1406,095
437,8	1472,524
438,3	1530,781
438,8	1600,724
439,2	1669,095
439,7	1741,695
440,1	1823,038
440,6	1912,381
441	1992,238
441,5	2084,981
441,9	2174,381
442,4	2257,581
442,8	2348,324
443,3	2440,724
443,7	2532,352
444,2	2637,952
444,7	2739,524
445,1	2846,981
445,6	2960,724
446	3070,438
446,5	3182,781
446,9	3296,495
447,4	3417,352
447,8	3540,838
448,3	3666,667
448,7	3801,324
449,2	3943,067
449,6	4085,895
450,1	4227,838
450,6	4372,124
451	4516,81
451,5	4666,581
451,9	4817,324
452,4	4976,238
452,8	5133,095
453,3	5293,524
453,7	5453,981
454,2	5623,495
454,6	5789,781
455,1	5961,61
455,5	6122,552
456	6294,41
456,4	6467,295
456,9	6640,724
457,3	6826,524
457,8	6995,581
458,3	7175,038
458,7	7361,924
459,2	7551,295
459,6	7742,381
460,1	7935,495
460,5	8114,295
461	8315,695
461,4	8504,267
461,9	8697,524
462,3	8894,21
462,8	9089,952
463,2	9283,267
463,7	9480,81
464,1	9681,124
464,6	9883,381
465	10086,152
465,5	10287,524
466	10485,438
466,4	10676,41
466,9	10882,238
467,3	11078,495
467,8	11279,381
468,2	11464,01
468,7	11648,81
469,1	11842,267
469,6	12041,981
470	12225,781
470,5	12412,181
470,9	12588,638
471,4	12770,952
471,8	12942,838
472,3	13121,61
472,7	13289,124
473,2	13453,124
473,6	13617,438
474,1	13781,952
474,5	13949,21
475	14111,267
475,4	14262,067
475,9	14421,752
476,4	14580,61
476,8	14723,667
477,3	14871,124
477,7	15012,924
478,2	15151,581
478,6	15287,838
479,1	15411,638
479,5	15530,381
480	15643,238
480,4	15738,981
480,9	15835,238
481,3	15934,895
481,8	16022,781
482,2	16096,695
482,7	16180,581
483,1	16261,267
483,6	16340,524
484	16410,352
484,5	16475,581
484,9	16527,924
485,4	16595,21
485,8	16627,438
486,3	16667,124
486,7	16710,181
487,2	16748,752
487,6	16770,867
488,1	16790,638
488,5	16791,695
489	16810,667
489,4	16825,124
489,9	16814,21
490,4	16798,981
490,8	16800,638
491,3	16803,152
491,7	16787,01
492,2	16768,895
492,6	16742,61
493,1	16716,01
493,5	16672,152
494	16609,81
494,4	16545,495
494,9	16501,238
495,3	16451,01
495,8	16388,924
496,2	16338,495
496,7	16280,238
497,1	16221,381
497,6	16162,81
498	16098,81
498,5	16020,895
498,9	15947,638
499,4	15868,324
499,8	15797,21
500,3	15721,895
500,7	15644,152
501,2	15553,467
501,6	15459,724
502,1	15366,381
502,5	15278,467
503	15181,61
503,4	15085,781
503,9	14977,41
504,3	14884,895
504,8	14786,61
505,2	14685,238
505,7	14566,638
506,1	14475,324
506,6	14359,781
507	14248,924
507,5	14136,781
507,9	14027,238
508,4	13906,924
508,8	13799,438
509,3	13676,095
509,7	13558,238
510,2	13442,981
510,6	13325,352
511,1	13206,21
511,5	13091,438
512	12968,952
512,4	12844,781
512,9	12722,895
513,3	12601,781
513,8	12475,067
514,2	12349,124
514,7	12228,667
515,1	12108,638
515,6	11990,324
516	11867,41
516,5	11743,467
516,9	11619,267
517,4	11509,238
517,8	11380,381
518,3	11260,095
518,7	11138,724
519,2	11023,495
519,6	10909,552
520,1	10796,467
520,5	10668,61
521	10544,895
521,4	10427,495
521,9	10311,61
522,3	10201,438
522,8	10084,781
523,2	9969,867
523,7	9863,067
524,1	9768,324
524,6	9660,438
525	9540,895
525,5	9437,181
525,9	9329,724
526,4	9214,981
526,8	9112,81
527,3	9007,552
527,7	8899,667
528,2	8815,324
528,6	8710,181
529,1	8619,152
529,5	8534,01
530	8433,952
530,4	8339,895
530,9	8248,038
531,3	8147,438
531,8	8063,695
532,2	7969,524
532,6	7879,81
533,1	7792,695
533,5	7707,867
534	7620,438
534,4	7539,724
534,9	7453,781
535,3	7370,495
535,8	7282,524
536,2	7203,638
536,7	7122,552
537,1	7043,095
537,6	6961,638
538	6884,438
538,5	6819,467
538,9	6747,724
539,4	6675,752
539,8	6607,152
540,3	6539,924
540,7	6467,267
541,2	6397,181
541,6	6326,352
542,1	6267,41
542,5	6202,524
543	6132,238
543,4	6071,41
543,9	6013,581
544,3	5953,438
544,8	5885,724
545,2	5818,095
545,7	5757,952
546,1	5705,667
546,5	5649,238
547	5589,667
547,4	5532,552
547,9	5474,438
548,3	5429,838
548,8	5371,295
549,2	5319,152
549,7	5267,152
550,1	5223,467
550,6	5176,581
551	5129,752
551,5	5078,438
551,9	5034,724
552,4	4989,781
552,8	4945,41
553,3	4897,067
553,7	4849,21
554,2	4812,381
554,6	4766,781
555,1	4727,781
555,5	4685,095
555,9	4643,552
556,4	4602,752
556,8	4560,81
557,3	4522,438
557,7	4479,667
558,2	4443,467
558,6	4409,124
559,1	4368,295
559,5	4328,295
560	4298,01
560,4	4260,267
560,9	4232,41
561,3	4190,638
561,8	4151,552
562,2	4122,267
562,7	4084,838
563,1	4050,867
563,6	4012,295
564	3974,238
564,4	3948,695
564,9	3919,495
565,3	3888,324
565,8	3868,181
566,2	3836,81
566,7	3814,01
567,1	3787,067
567,6	3757,81
568	3727,267
568,5	3703,152
568,9	3674,552
569,4	3644,552
569,8	3614,524
570,3	3587,152
570,7	3558,124
571,1	3532,352
571,6	3503,038
572	3481,381
572,5	3461,867
572,9	3435,781
573,4	3415,895
573,8	3394,295
574,3	3366,095
574,7	3336,667
575,2	3304,124
575,6	3279,095
576,1	3262,238
576,5	3235,41
576,9	3207,324
577,4	3182,752
577,8	3162,952
578,3	3143,067
578,7	3115,981
579,2	3092,752
579,6	3066,01
580,1	3042,038
580,5	3028,295
581	3008,552
581,4	2983,495
581,9	2964,438
582,3	2939,895
582,7	2925,667
583,2	2907,067
583,6	2887,724
584,1	2872,981
584,5	2854,01
585	2837,867
585,4	2813,667
585,9	2793,895
586,3	2778,238
586,8	2757,61
587,2	2732,181
587,6	2722,638
588,1	2708,238
588,5	2698,238
589	2678,695
589,4	2657,467
589,9	2637,324
590,3	2623,01
590,8	2605,238
591,2	2587,495
591,7	2572,581
592,1	2559,124
592,5	2555,61
593	2541,667
593,4	2525,352
593,9	2510,667
594,3	2484,838
594,8	2468,295
595,2	2453,067
595,7	2425,552
596,1	2412,81
596,6	2399,81
597	2381,438
597,4	2380,324
597,9	2364,295
598,3	2355,752
598,8	2350,352
599,2	2337,067
599,7	2323,524
600,1	2312,381
600,6	2293,438
601	2281,61
601,4	2272,524
601,9	2264,495
602,3	2252,867
602,8	2244,61
603,2	2231,41
603,7	2220,952
604,1	2209,21
604,6	2193,924
605	2169,324
605,4	2162,41
605,9	2142,638
606,3	2128,438
606,8	2111,21
607,2	2090,21
607,7	2066,095
608,1	2060,267
608,6	2046,752
609	2042,581
609,4	2037,181
609,9	2028,838
610,3	2025,267
610,8	2019,924
611,2	2007,781
611,7	1988,638
612,1	1974,067
612,6	1963,01
613	1955,152
613,4	1946,095
613,9	1935,352
614,3	1920,067
614,8	1911,638
615,2	1897,238
615,7	1881,81
616,1	1867,838
616,6	1850,838
617	1838,695
617,4	1832,467
617,9	1821,952
618,3	1814,467
618,8	1807,352
619,2	1795,295
619,7	1790,267
620,1	1780,667
620,5	1768,867
621	1758,124
621,4	1748,267
621,9	1731,381
622,3	1718,867
622,8	1701,981
623,2	1691,724
623,6	1682,838
624,1	1674,41
624,5	1665,238
625	1661,867
625,4	1650,61
625,9	1645,724
626,3	1632,324
626,8	1619,267
627,2	1604,981
627,6	1586,267
628,1	1568,81
628,5	1563,981
629	1554,067
629,4	1544,581
629,9	1533,724
630,3	1528,638
630,7	1523,267
631,2	1518,267
631,6	1507,267
632,1	1495,895
632,5	1489,152
633	1475,095
633,4	1460,01
633,8	1448,638
634,3	1437,867
634,7	1426,895
635,2	1414,581
635,6	1405,952
636,1	1402,238
636,5	1390,81
636,9	1381,038
637,4	1370,952
637,8	1359,752
638,3	1352,095
638,7	1340,781
639,2	1329,21
639,6	1325,438
640	1318,295
640,5	1313,81
640,9	1309,267
641,4	1299,467
641,8	1297,381
642,2	1292,781
642,7	1290,038
643,1	1284,381
643,6	1275,067
644	1268,295
644,5	1267,381
644,9	1251,21
645,3	1241,895
645,8	1224,752
646,2	1214,867
646,7	1204,724
647,1	1191,038
647,6	1181,667
648	1177,838
648,4	1168,467
648,9	1164,667
649,3	1154,752
649,8	1151,352
650,2	1145,695
650,6	1136,067
651,1	1129,495
651,5	1126,467
652	1124,295
652,4	1114,01
652,9	1105,81
653,3	1100,552
653,7	1093,01
654,2	1085,524
654,6	1075,381
655,1	1067,581
655,5	1073,638
655,9	1062,895
656,4	1054,924
656,8	1046,295
657,3	1039,952
657,7	1038,21
658,2	1026,095
658,6	1010,838
659	1005,295
659,5	998,924
659,9	991,724
660,4	983,895
660,8	972,152
661,2	963,724
661,7	963,41
662,1	954,838
662,6	949,181
663	947,095
663,4	941,467
663,9	934,01
664,3	928,724
664,8	914,124
665,2	908,838
665,6	901,324
666,1	894,838
666,5	887,067
667	879,467
667,4	872,324
667,9	870,495
668,3	862,438
668,7	856,638
669,2	852,552
669,6	847,152
670,1	845,124
670,5	840,267
670,9	835,295
671,4	831,781
671,8	825,838
672,3	821,181
672,7	814,781
673,1	803,41
673,6	795,067
674	790,695
674,5	781,638
674,9	773,752
675,3	761,067
675,8	755,752
676,2	751,352
676,7	745,381
677,1	738,01
677,5	732,724
678	729,152
678,4	727,781
678,9	723,324
679,3	722,238
679,7	721,467
680,2	713,61
680,6	708,667
681,1	705,61
681,5	701,61
681,9	697,667
682,4	693,895
682,8	687,981
683,3	685,81
683,7	681,952
684,1	677,21
684,6	669,924
685	660,895
685,5	654,924
685,9	645,581
686,3	640,181
686,8	640,381
687,2	632,01
687,7	623,067
688,1	617,495
688,5	610,495
689	609,667
689,4	604,152
689,9	598,124
690,3	592,552
690,7	595,41
691,2	594,41
691,6	593,267
692	593,61
692,5	593,952
692,9	588,21
693,4	586,952
693,8	580,695
694,2	578,124
694,7	570,467
695,1	559,581
695,6	554,095
696	552,895
696,4	547,495
696,9	541,552
697,3	537,381
697,8	533,838
698,2	535,524
698,6	530,581
699,1	523,295
699,5	524,038
699,9	518,61
700,4	510,752
700,8	510,867
701,3	506,781
701,7	501,695
702,1	499,41
702,6	492,295
703	494,752
703,5	492,295
703,9	484,695
704,3	483,21
704,8	480,067
705,2	475,295
705,6	472,295
706,1	461,638
706,5	458,724
707	458,21
707,4	453,01
707,8	446,667
708,3	444,581
708,7	440,924
709,2	442,267
709,6	437,524
710	436,981
710,5	431,552
710,9	430,895
711,3	428,324
711,8	425,495
712,2	420,838
712,7	419,638
713,1	416,552
713,5	417,552
714	413,981
714,4	409,838
714,8	405,895
715,3	398,381
715,7	393,467
716,2	385,638
716,6	381,638
717	376,095
717,5	370,638
717,9	373,124
718,3	375,924
718,8	378,581
719,2	375,267
719,7	371,324
720,1	371,038
720,5	375,781
721	365,924
721,4	360,581
721,8	358,152
722,3	354,295
722,7	352,781
723,2	345,895
723,6	334,01
724	338,124
724,5	335,381
724,9	327,867
725,3	331,324
725,8	323,41
726,2	325,895
726,7	325,267
727,1	320,867
727,5	319,495
728	315,552
728,4	309,895
728,8	310,781
729,3	306,552
729,7	304,581
730,1	302,352
730,6	300,952
731	299,495
731,5	296,438
731,9	294,838
732,3	298,238
732,8	297,952
733,2	294,61
733,6	291,867
734,1	292,952
734,5	292,01
734,9	291,067
735,4	286,21
735,8	281,41
736,3	283,695
736,7	280,524
737,1	277,924
737,6	271,352
738	268,552
738,4	264,61
738,9	267,895
739,3	263,895
739,7	264,981
740,2	263,867
740,6	271,067
741,1	273,581
741,5	270,067
741,9	264,61
742,4	263,667
742,8	262,724
743,2	260,81
743,7	253,295
744,1	244,124
744,5	244,01
745	239,581
745,4	236,81
745,8	232,952
746,3	232,838
746,7	231,752
747,2	236,267
747,6	239,981
748	244,838
748,5	245,895
748,9	243,981
749,3	243,695
749,8	242,61
750,2	240,438
750,6	236,638
751,1	236,981
751,5	232,752
751,9	235,21
752,4	233,981
752,8	236,781
753,3	230,781
753,7	229,838
754,1	224,038
754,6	219,067
755	213,352
755,4	210,238
755,9	204,01
756,3	204,381
756,7	199,581
757,2	203,895
757,6	205,81
758	204,895
758,5	200,095
758,9	197,667
759,3	198,467
759,8	195,838
760,2	190,524
760,6	186,467
761,1	184,781
761,5	184,838
761,9	186,267
762,4	178,61
762,8	183,238
763,3	179,781
763,7	181,41
764,1	180,295
764,6	180,381
765	180,095
765,4	185,181
765,9	183,01
766,3	182,381
766,7	180,924
767,2	180,067
767,6	183,01
768	176,781
768,5	173,924
768,9	169,152
769,3	167,41
769,8	162,467
770,2	164,41
770,6	158,038
771,1	165,238
771,5	165,467
771,9	168,867
772,4	169,724
772,8	171,41
773,2	169,838
773,7	171,352
774,1	166,638
774,5	160,095
775	155,81
775,4	157,21
775,8	157,21
776,3	152,752
776,7	147,152
777,1	144,867
777,6	148,867
778	151,095
778,4	145,867
778,9	146,295
779,3	144,895
779,7	146,724
780,2	146,981
780,6	146,352
781	139,867
781,5	140,324
781,9	134,152
782,3	134,324
782,8	135,124
783,2	133,01
783,6	134,495
784,1	136,61
784,5	134,552
784,9	137,781
785,4	137,61
785,8	138,895
786,2	141,895
786,7	137,895
787,1	135,495
787,5	138,152
788	137,095
788,4	136,381
788,8	133,21
789,3	126,267
789,7	128,61
790,1	129,41
790,6	128,067
791	124,581
791,4	125,324
791,9	120,01
792,3	118,924
792,7	120,581
793,2	114,238
793,6	112,695
794	115,124
794,5	110,295
794,9	114,152
795,3	118,495
795,8	112,01
796,2	117,438
796,6	116,895
797,1	115,581
797,5	118,21
797,9	112,867
798,4	111,581
798,8	111,781
799,2	109,552
799,7	108,981
800,1	107,352
800,5	106,695
801	112,324
801,4	106,267
801,8	103,638
802,2	105,552
802,7	101,695
803,1	100,638
803,5	100,895
804	96,61
804,4	100,867
804,8	102,667
805,3	99,038
805,7	101,724
806,1	100,752
806,6	100,467
807	102,41
807,4	98,238
807,9	93,924
808,3	94,152
808,7	91,01
809,2	91,667
809,6	92,81
810	93,238
810,4	94,581
810,9	95,552
811,3	93,981
811,7	97,552
812,2	98,467
812,6	94,695
813	91,667
813,5	94,581
813,9	92,581
814,3	92,981
814,8	87,295
815,2	82,981
815,6	79,495
816,1	77,81
816,5	78,352
816,9	77,267
817,3	76,438
817,8	84,038
818,2	83,952
818,6	83,952
819,1	81,495
819,5	76,267
819,9	78,924
820,4	79,038
820,8	73,324
821,2	71,124
821,7	74,181
822,1	80,524
822,5	86,181
822,9	85,895
823,4	82,324
823,8	82,152
824,2	87,495
824,7	81,181
825,1	72,495
825,5	63,781
826	59,781
826,4	61,238
826,8	58,552
827,3	58,752
827,7	59,752
828,1	61,667
828,5	62,495
829	59,352
829,4	59,01
829,8	56,838
830,3	53,295
830,7	55,495
831,1	58,495
831,6	61,438
832	67,552
832,4	64,924
832,8	67,181
833,3	65,895
833,7	63,352
834,1	58,981
834,6	56,238
835	55,267
835,4	61,41
835,8	56,724
836,3	56,981
836,7	58,238
837,1	57,581
837,6	58,21
838	56,01
838,4	50,838
838,9	53,695
839,3	52,438
839,7	54,038
840,1	51,438
840,6	52,238
841	49,495
841,4	45,695
841,9	51,067
842,3	50,667
842,7	49,352
843,1	50,124
843,6	51,438
844	54,61
844,4	64,552
844,9	62,152
845,3	60,21
845,7	58,924
846,2	57,438
846,6	51,667
847	53,21
847,4	48,61
847,9	47,467
848,3	51,095
848,7	49,638
849,2	52,01
849,6	49,667
850	48,924
850,4	48,352
850,9	46,495
851,3	40,324
851,7	44,067
852,2	39,952
852,6	43,41
853	41,038
853,4	40,181
853,9	34,781
854,3	38,581
854,7	36,295
855,2	38,01
855,6	38,952
856	34,238
856,4	30,41
856,9	33,524
857,3	32,724
857,7	34,581
858,2	41,552
858,6	38,581
859	40,952
859,4	44,41
859,9	42,495
860,3	42,981
860,7	39,21
861,1	35,61
861,6	36,267
862	35,952
862,4	30,552
862,9	33,81
863,3	32,267
863,7	31,352
864,1	31,295
864,6	28,524
865	30,781
865,4	37,61
865,9	38,438
866,3	34,524
866,7	35,295
867,1	29,41
867,6	33,781
868	33,067
868,4	27,867
868,8	28,324
869,3	32,01
869,7	34,981
870,1	36,895
870,6	33,067
871	-31,905
871,4	-27,39
871,8	-32,59
872,3	-29,162
872,7	-31,448
873,1	-28,99
873,5	-26,505
874	34,467
874,4	32,381
874,8	34,267
875,3	30,152
875,7	27,781
876,1	26,352
876,5	27,295
877	30,752
877,4	25,581
877,8	26,124
878,2	27,895
878,7	30,124
879,1	27,867
879,5	26,095
879,9	28,952
880,4	33,181
880,8	31,895
881,2	28,667
881,7	24,61
882,1	26,01
882,5	23,61
882,9	18,181
883,4	15,61
883,8	15,095
884,2	12,495
884,6	14,238
885,1	16,352
885,5	21,067
885,9	22,095
886,3	27,438
886,8	24,895
887,2	27,038
887,6	23,095
888	21,438
888,5	15,781
888,9	11,581
889,3	6,61
889,8	6,952
890,2	6,867
890,6	6,781
891	8,067
891,5	10,467
891,9	15,438
892,3	13,924
892,7	16,781
893,2	18,752
893,6	19,067
894	16,838
894,4	14,267
894,9	13,838
895,3	15,581
895,7	16,352
896,1	16,152
896,6	19,61
897	20,724
897,4	27,238
897,8	28,381
898,3	28,095
898,7	24,038
899,1	22,267
899,5	19,467
900	12,324
900,4	6,695
900,8	-0,962
901,2	-5,105
901,7	-5,333
902,1	-4,162
902,5	-1,076
902,9	1,638
903,4	4,724
903,8	10,552
904,2	13,81
904,6	16,267
905,1	15,81
905,5	15,124
905,9	20,667
906,3	20,667
906,8	20,924
907,2	22,695
907,6	22,124
908	21,895
908,5	17,352
908,9	12,381
909,3	10,667
909,7	10,381
910,2	11,581
910,6	14,924
911	13,381
911,4	19,067
911,9	18,867
912,3	19,581
912,7	20,81
913,1	20,41
913,6	15,152
914	15,61
914,4	7,238
914,8	9,638
915,3	6,21
915,7	7,295
916,1	1,667
916,5	5,295
916,9	4,467
917,4	12,267
917,8	11,781
918,2	12,495
918,6	7,067
919,1	6,724
919,5	6,295
919,9	7,924
920,3	4,267
920,8	2,638
921,2	2,667
921,6	2,981
922	6,724
922,5	4,381
922,9	4,981
923,3	4,381
923,7	6,61
924,2	2,81
924,6	4,324
925	7,524
925,4	6,752
925,8	4,895
926,3	6,838
926,7	5,695
927,1	8,324
927,5	9,324
928	4,924
928,4	3,524
928,8	5,495
929,2	1,838
929,7	1,524
930,1	4,038
930,5	1,695
930,9	6,867
931,3	8,01
931,8	9,667
932,2	14,124
932,6	12,238
933	6,524
933,5	9,495
933,9	6,352
934,3	12,381
934,7	7,838
935,2	7,552
935,6	6,752
936	8,638
936,4	6,324
936,8	5,324
937,3	1,295
937,7	5,638
938,1	7,41
938,5	7,381
939	12,581
939,4	14,495
939,8	12,124
940,2	12,867
940,6	12,581
941,1	11,61
941,5	18,895
941,9	13,038
942,3	11,552
942,8	13,781
943,2	11,238
943,6	7,438
944	10,038
944,4	7,41
944,9	5,838
945,3	5,01
945,7	2,638
946,1	0,952
946,6	0,867
947	-2,105
947,4	-1,219
947,8	3,524
948,2	3,667
948,7	7,067
949,1	6,924
949,5	13,438
949,9	13,267
950,3	9,352
950,8	3,981
951,2	3,124
951,6	-3,905
952	1,124
952,5	-2,248
952,9	-4,448
953,3	-2,99
953,7	-3,019
954,1	-0,562
954,6	7,095
955	5,695
955,4	2,21
955,8	10,781
956,2	14,381
956,7	21,381
957,1	17,095
957,5	17,724
957,9	18,067
958,3	18,095
958,8	12,524
959,2	13,352
959,6	12,581
960	12,181
960,5	15,467
960,9	15,552
961,3	13,352
961,7	9,952
962,1	7,267
962,6	7,238
963	10,838
963,4	-0,476
963,8	-3,562
964,2	-0,905
964,7	2,61
965,1	3,524
965,5	4,524
965,9	4,067
966,3	11,181
966,8	15,924
967,2	18,324
967,6	13,467
968	8,524
968,4	5,752
968,9	6,067
969,3	6,181
969,7	-2,79
970,1	-0,733
970,5	2,724
971	5,095
971,4	5,41
971,8	2,295
972,2	1,61
972,6	6,267
973,1	-0,448
973,5	-1,819
973,9	-1,19
974,3	-2,533
974,7	4,41
975,2	6,152
975,6	5,867
976	9,152
976,4	5,895
976,8	5,324
977,3	6,438
977,7	-1,162
978,1	-5,733
978,5	-4,905
978,9	-7,848
979,4	-4,219
979,8	-5,505
980,2	-5,19
980,6	-4,476
981	-1,962
981,5	-1,705
981,9	2,638
982,3	0,695
982,7	0,81
983,1	-2,105
983,6	1,667
984	5,181
984,4	5,495
984,8	2,352
985,2	4,21
985,6	2,695
986,1	6,067
986,5	4,895
986,9	-5,076
987,3	-3,848
987,7	-1,676
988,2	-2,933
988,6	0,01
989	-2,39
989,4	-1,105
989,8	5,095
990,3	4,124
990,7	2,838
991,1	7,61
991,5	8,038
991,9	13,552
992,3	12,695
992,8	13,124
993,2	12,467
993,6	12,238
994	10,581
994,4	13,381
994,9	9,667
995,3	8,41
995,7	6,61
996,1	4,352
996,5	7,41
996,9	5,038
997,4	1,352
997,8	-3,219
998,2	-1,505
998,6	-6,562
999	-3,848
999,5	-7,733
999,9	-8,619
1000,3	-6,162
1000,7	-2,79
1001,1	-3,019
1001,5	2,352
1002	7,295
1002,4	7,238
1002,8	8,981
1003,2	11,724
1003,6	13,324
1004	16,41
1004,5	11,81
1004,9	3,838
1005,3	3,867
1005,7	0,324
1006,1	-6,219
1006,6	-6,419
1007	-8,219
1007,4	-5,39
1007,8	-4,448
1008,2	-6,19
1008,6	1,695
1009,1	1,152
1009,5	2,324
1009,9	1,695
1010,3	3,21
1010,7	3,695
1011,1	6,924
1011,6	-1,133
1012	4,524
1012,4	4,124
1012,8	0,267
1013,2	4,838
1013,6	8,467
1014,1	10,352
1014,5	13,952
1014,9	9,352
1015,3	5,181
1015,7	8,952
1016,1	5,752
1016,6	3,267
1017	1,838
1017,4	2,038
1017,8	2,352
1018,2	4,895
1018,6	-0,99
1019,1	-0,762
1019,5	-2,562
1019,9	-6,133
1020,3	-3,762
1020,7	-4,533
1021,1	-3,676
1021,6	1,41
1022	2,324
1022,4	6,467
1022,8	10,981
1023,2	10,524
1023,6	13,838
1024,1	18,867
1024,5	16,295
1024,9	13,41
1025,3	16,095
1025,7	11,867
1026,1	11,267
1026,6	7,381
1027	2,381
1027,4	7,324
1027,8	6,095
1028,2	0,695
1028,6	6,181
1029	3,81
1029,5	5,838
1029,9	5,095
1030,3	4,01
1030,7	5,895
1031,1	7,981
1031,5	2,867
1032	2,752
1032,4	0,781
1032,8	0,552
1033,2	-2,905
1033,6	-3,619
1034	-6,562
1034,4	-2,648
1034,9	2,324
1035,3	1,381
1035,7	2,067
1036,1	1,152
1036,5	1,295
1036,9	1,61
1037,4	4,067
1037,8	-6,019
1038,2	-4,99
1038,6	-6,848
1039	-1,476
1039,4	1,267
1039,8	-2,39
1040,3	-5,59
1040,7	-1,248
1041,1	1,21
1041,5	1,924
1041,9	-2,876
1042,3	-6,219
1042,7	0,41
1043,2	1,21
1043,6	1,295
1044	2,01
1044,4	1,41
1044,8	3,581
1045,2	1,438
1045,6	-1,133
1046,1	-3,133
1046,5	-3,79
1046,9	-9,99
1047,3	-8,933
1047,7	-10,848
1048,1	-7,648
1048,5	-8,648
1049	-6,762
1049,4	-2,705
1049,8	2,81
1050,2	4,152
1050,6	9,152
1051	10,981
1051,4	11,752
1051,9	11,895
1052,3	19,524
1052,7	20,152
1053,1	19,267
1053,5	17,81
1053,9	9,667
1054,3	14,952
1054,8	18,352
1055,2	13,067
1055,6	15,581
1056	13,638
1056,4	10,01
1056,8	16,438
1057,2	11,152
1057,6	7,067
1058,1	0,81
1058,5	-7,248
1058,9	-3,133
1059,3	-3,733
1059,7	-2,762
1060,1	-3,305
1060,5	-5,876
1061	-5,362
1061,4	-1,933
1061,8	-5,933
1062,2	-3,248
1062,6	-5,248
1063	-0,362
1063,4	-0,162
1063,8	0,867
1064,3	-0,333
1064,7	2,895
1065,1	1,124
1065,5	1,838
1065,9	-4,819
1066,3	-2,705
1066,7	-2,333
1067,1	-3,905
1067,6	-3,276
1068	-3,276
1068,4	-1,133
1068,8	3,41
1069,2	4,981
1069,6	5,724
1070	11,324
1070,4	9,267
1070,9	8,924
1071,3	2,924
1071,7	-1,248
1072,1	-3,133
1072,5	-6,248
1072,9	-8,248
1073,3	-6,533
1073,7	-8,476
1074,2	-7,59
1074,6	-5,876
1075	-6,933
1075,4	-7,676
1075,8	-8,648
1076,2	-11,162
1076,6	-7,79
1077	-4,819
1077,5	-3,19
1077,9	-6,562
1078,3	-3,019
1078,7	-1,105
1079,1	0,61
1079,5	-3,162
1079,9	-1,505
1080,3	-2,219
1080,7	5,524
1081,2	7,41
1081,6	3,867
1082	-0,305
1082,4	8,01
1082,8	8,267
1083,2	7,695
1083,6	5,752
1084	2,352
1084,5	4,524
1084,9	7,581
1085,3	0,781
1085,7	-2,162
1086,1	-1,848
1086,5	0,81
1086,9	2,781
1087,3	3,038
1087,7	5,924
1088,2	8,238
1088,6	9,952
1089	14,352
1089,4	9,981
1089,8	10,981
1090,2	9,838
1090,6	7,267
1091	7,867
1091,4	5,495
1091,9	1,895
1092,3	3,324
1092,7	-0,648
1093,1	3,41
1093,5	2,181
1093,9	0,095
1094,3	7,067
1094,7	3,41
1095,1	0,381
1095,5	2,381
1096	-2,419
1096,4	-1,733
1096,8	-1,048
1097,2	-6,876
1097,6	0,352
1098	2,981
1098,4	6,038
1098,8	8,61
1099,2	15,638
1099,6	17,038
1100,1	17,781
1100,5	11,267
1100,9	9,381
1101,3	6,467
1101,7	4,667
1102,1	-2,133
1102,5	-0,905
1102,9	0,238
1103,3	5,952
1103,7	7,21
1104,2	8,038
1104,6	8,467
1105	6,695
1105,4	6,467
1105,8	4,41
1106,2	0,781
1106,6	-0,048
1107	-0,276
1107,4	-0,4
1107,8	2,027
1108,3	-0,683
