Data from Subt2_170.txt Node
Date: Sat Aug 26 18:35:43 MSK 2023
User: vat
Spectrometer: MAYP114033
Trigger mode: 0
Integration Time (sec): 1,000000E0
Scans to average: 5
Electric dark correction enabled: true
Nonlinearity correction enabled: false
Boxcar width: 3
XAxis mode: Wavelengths
Number of Pixels in Spectrum: 2068
>>>>>Begin Spectral Data<<<<<
199,4	-1,017
199,9	0,273
200,4	-1,933
200,8	-1,91
201,3	-3,081
201,8	-2,052
202,2	-4,281
202,7	-2,081
203,2	-2,738
203,6	-5,167
204,1	-4,71
204,6	-4,081
205	-3,71
205,5	-1,567
206	-4,052
206,4	-5,367
206,9	0,033
207,4	-0,881
207,8	-0,481
208,3	-3,852
208,8	-6,024
209,2	-2,738
209,7	-0,91
210,2	-2,338
210,6	2,519
211,1	4,262
211,5	3,005
212	5,29
212,5	4,805
212,9	1,376
213,4	3,719
213,9	-1,395
214,3	-1,938
214,8	3,662
215,3	2,005
215,7	0,633
216,2	2,833
216,7	4,262
217,1	4,833
217,6	3,748
218,1	-2,367
218,5	-1,824
219	-5,595
219,5	-2,281
219,9	-5,51
220,4	1,09
220,9	2,405
221,3	6,49
221,8	9,119
222,3	11,833
222,7	10,69
223,2	13,09
223,6	6,148
224,1	3,948
224,6	7,776
225	3,176
225,5	3,519
226	-0,11
226,4	-0,824
226,9	-0,195
227,4	1,976
227,8	-6,881
228,3	-7,938
228,8	-10,195
229,2	-8,224
229,7	-11,167
230,2	-11,967
230,6	-10,795
231,1	-0,424
231,5	3,948
232	6,376
232,5	6,176
232,9	9,348
233,4	10,205
233,9	6,776
234,3	1,805
234,8	-0,967
235,3	-0,395
235,7	1,062
236,2	-3,252
236,7	-2,795
237,1	0,033
237,6	-2,395
238,1	0,89
238,5	-0,967
239	-1,052
239,4	6,262
239,9	6,976
240,4	4,976
240,8	7,805
241,3	3,919
241,8	0,605
242,2	-4,967
242,7	-12,91
243,2	-13,31
243,6	-15,138
244,1	-15,138
244,6	-11,167
245	-7,595
245,5	-0,367
245,9	1,576
246,4	-1,595
246,9	2,576
247,3	4,405
247,8	5,405
248,3	9,348
248,7	8,062
249,2	7,09
249,7	8,776
250,1	8,233
250,6	8,033
251	6,776
251,5	2,776
252	0,805
252,4	8,119
252,9	5,805
253,4	3,148
253,8	-0,681
254,3	0,176
254,8	-0,71
255,2	-3,252
255,7	-9,338
256,1	-7,824
256,6	-6,424
257,1	-4,424
257,5	-10,395
258	-9,452
258,5	-8,424
258,9	-4,31
259,4	-3,71
259,9	-1,395
260,3	-2,138
260,8	1,348
261,2	0,433
261,7	4,89
262,2	0,29
262,6	-0,51
263,1	-0,567
263,6	3,09
264	4,805
264,5	6,976
264,9	4,605
265,4	6,376
265,9	7,662
266,3	6,29
266,8	3,919
267,3	2,776
267,7	1,29
268,2	2,148
268,7	3,719
269,1	2,433
269,6	1,005
270	4,319
270,5	-0,138
271	2,005
271,4	2,462
271,9	-5,967
272,4	-2,71
272,8	-1,91
273,3	-10,538
273,7	-3,167
274,2	-4,881
274,7	-6,624
275,1	0,29
275,6	0,49
276,1	-1,652
276,5	5,29
277	4,119
277,4	4,176
277,9	9,405
278,4	9,405
278,8	8,205
279,3	13,033
279,8	11,862
280,2	13,176
280,7	17,09
281,1	11,262
281,6	9,348
282,1	8,262
282,5	5,805
283	5,033
283,4	4,205
283,9	3,605
284,4	7,69
284,8	11,148
285,3	11,205
285,8	12,462
286,2	9,548
286,7	5,005
287,1	-1,424
287,6	-2,138
288,1	-5,91
288,5	-4,538
289	-7,11
289,5	-3,481
289,9	-6,538
290,4	0,948
290,8	-3,195
291,3	-4,452
291,8	-4,624
292,2	-1,795
292,7	-2,138
293,1	4,405
293,6	0,948
294,1	0,662
294,5	3,748
295	3,576
295,5	0,633
295,9	-0,424
296,4	-4,024
296,8	-5,11
297,3	-3,51
297,8	-8,652
298,2	-10,452
298,7	-9,052
299,1	-8,538
299,6	-10,852
300,1	-6,567
300,5	-5,281
301	0,176
301,5	4,976
301,9	3,262
302,4	2,033
302,8	5,233
303,3	2,633
303,8	-2,252
304,2	-4,281
304,7	-6,91
305,1	-11,824
305,6	-10,51
306,1	-5,281
306,5	-3,938
307	1,319
307,4	2,89
307,9	3,89
308,4	8,29
308,8	3,205
309,3	-3,567
309,8	-6,481
310,2	-7,052
310,7	-7,595
311,1	-11,938
311,6	-9,681
312,1	-4,052
312,5	0,205
313	1,376
313,4	1,405
313,9	0,662
314,4	1,833
314,8	-0,052
315,3	-2,51
315,7	-9,824
316,2	-13,51
316,7	-12,938
317,1	-7,967
317,6	-4,738
318	1,176
318,5	0,176
319	6,919
319,4	11,805
319,9	15,49
320,3	13,49
320,8	8,348
321,3	5,29
321,7	6,062
322,2	3,605
322,6	4,976
323,1	1,005
323,6	-0,252
324	2,033
324,5	-1,452
324,9	-1,652
325,4	0,976
325,9	0,69
326,3	1,005
326,8	4,29
327,2	-0,424
327,7	-0,281
328,2	0,748
328,6	-2,024
329,1	-7,738
329,5	-8,824
330	-13,938
330,5	-8,967
330,9	-5,195
331,4	-3,938
331,8	-7,167
332,3	-3,71
332,8	-2,881
333,2	-1,224
333,7	-1,424
334,1	-4,852
334,6	-11,738
335,1	-11,224
335,5	-9,71
336	-9,167
336,4	-7,681
336,9	-1,71
337,4	2,776
337,8	8,976
338,3	12,776
338,7	12,319
339,2	10,462
339,7	10,29
340,1	5,062
340,6	3,176
341	1,119
341,5	-1,624
342	-4,024
342,4	-2,995
342,9	-4,424
343,3	-3,595
343,8	-3,252
344,2	-1,852
344,7	9,233
345,2	7,862
345,6	4,348
346,1	3,119
346,5	-1,195
347	-4,71
347,5	-6,567
347,9	-11,852
348,4	-13,452
348,8	-9,338
349,3	-3,395
349,8	5,348
350,2	14,376
350,7	15,29
351,1	13,576
351,6	23,005
352	28,948
352,5	27,805
353	29,605
353,4	30,405
353,9	37,376
354,3	47,633
354,8	51,348
355,3	60,719
355,7	75,376
356,2	89,262
356,6	106,033
357,1	125,948
357,5	148,576
358	178,433
358,5	206,033
358,9	232,548
359,4	264,319
359,8	300,976
360,3	352,29
360,8	396,49
361,2	449,148
361,7	507,29
362,1	585,176
362,6	662,233
363	741,09
363,5	817,69
364	915,862
364,4	1006,776
364,9	1098,433
365,3	1182,662
365,8	1265,862
366,3	1348,29
366,7	1423,719
367,2	1481,462
367,6	1536,605
368,1	1585,976
368,5	1609,862
369	1625,49
369,5	1629,376
369,9	1620,09
370,4	1596,805
370,8	1558,805
371,3	1505,062
371,7	1455,69
372,2	1396,033
372,7	1325,119
373,1	1252,433
373,6	1180,49
374	1108,29
374,5	1039,005
374,9	966,805
375,4	899,062
375,9	834,576
376,3	770,548
376,8	706,433
377,2	652,176
377,7	593,919
378,2	541,662
378,6	494,805
379,1	451,205
379,5	417,833
380	386,176
380,4	349,005
380,9	318,233
381,4	288,09
381,8	262,148
382,3	246,233
382,7	224,005
383,2	209,262
383,6	195,662
384,1	185,605
384,6	179,433
385	168,233
385,5	154,205
385,9	141,376
386,4	126,433
386,8	120,805
387,3	111,548
387,7	104,405
388,2	98,633
388,7	88,948
389,1	82,262
389,6	80,805
390	74,033
390,5	67,833
390,9	62,833
391,4	58,576
391,9	55,319
392,3	53,233
392,8	46,833
393,2	39,662
393,7	38,005
394,1	33,319
394,6	31,148
395,1	33,833
395,5	31,49
396	33,776
396,4	36,119
396,9	35,433
397,3	36,405
397,8	37,976
398,2	36,69
398,7	34,148
399,2	35,405
399,6	30,348
400,1	28,662
400,5	24,119
401	21,205
401,4	18,233
401,9	23,062
402,4	19,776
402,8	18,548
403,3	20,29
403,7	18,348
404,2	23,205
404,6	22,576
405,1	19,833
405,5	19,948
406	20,89
406,5	18,919
406,9	23,119
407,4	18,062
407,8	22,348
408,3	26,719
408,7	21,805
409,2	30,519
409,6	38,862
410,1	41,148
410,6	46,948
411	45,319
411,5	47,119
411,9	52,519
412,4	51,062
412,8	49,976
413,3	55,405
413,7	52,948
414,2	54,462
414,7	56,605
415,1	64,405
415,6	71,09
416	74,462
416,5	75,862
416,9	78,833
417,4	83,976
417,8	87,405
418,3	90,519
418,8	92,348
419,2	91,033
419,7	93,205
420,1	102,176
420,6	105,433
421	106,605
421,5	106,176
421,9	106,833
422,4	112,919
422,8	114,69
423,3	109,376
423,8	109,919
424,2	106,09
424,7	103,833
425,1	104,005
425,6	109,805
426	106,719
426,5	110,005
426,9	115,09
427,4	121,376
427,9	122,519
428,3	125,633
428,8	123,405
429,2	129,09
429,7	130,833
430,1	128,49
430,6	133,576
431	138,605
431,5	143,719
431,9	140,405
432,4	146,148
432,8	156,119
433,3	163,233
433,8	166,433
434,2	174,319
434,7	179,433
435,1	193,89
435,6	199,833
436	204,376
436,5	212,948
436,9	218,576
437,4	223,919
437,8	229,805
438,3	239,005
438,8	246,89
439,2	251,233
439,7	263,548
440,1	276,319
440,6	290,719
441	303,662
441,5	315,119
441,9	329,576
442,4	343,062
442,8	351,633
443,3	365,262
443,7	383,919
444,2	403,633
444,7	418,833
445,1	437,005
445,6	458,033
446	480,262
446,5	493,662
446,9	506,833
447,4	519,348
447,8	536,719
448,3	559,033
448,7	580,748
449,2	603,376
449,6	635,176
450,1	652,862
450,6	679,833
451	707,805
451,5	726,433
451,9	753,833
452,4	779,89
452,8	798,29
453,3	831,976
453,7	852,405
454,2	880,833
454,6	909,833
455,1	930,776
455,5	953,49
456	989,176
456,4	1010,919
456,9	1043,719
457,3	1066,148
457,8	1088,09
458,3	1124,69
458,7	1154,119
459,2	1180,748
459,6	1211,89
460,1	1248,862
460,5	1279,462
461	1324,49
461,4	1353,005
461,9	1384,205
462,3	1417,576
462,8	1453,176
463,2	1482,69
463,7	1521,233
464,1	1550,862
464,6	1585,49
465	1622,376
465,5	1657,548
466	1693,976
466,4	1726,348
466,9	1762,462
467,3	1793,862
467,8	1832,005
468,2	1866,833
468,7	1901,433
469,1	1940,605
469,6	1970,119
470	1999,519
470,5	2029,862
470,9	2056,205
471,4	2086,119
471,8	2117,233
472,3	2144,833
472,7	2183,748
473,2	2213,49
473,6	2243,376
474,1	2278,319
474,5	2313,69
475	2340,719
475,4	2363,748
475,9	2389,319
476,4	2418,09
476,8	2451,776
477,3	2474,176
477,7	2497,005
478,2	2526,062
478,6	2552,548
479,1	2573,405
479,5	2594,776
480	2614,948
480,4	2639,719
480,9	2655,633
481,3	2672,005
481,8	2689,062
482,2	2701,948
482,7	2719,748
483,1	2736,148
483,6	2746,948
484	2759,748
484,5	2769,719
484,9	2782,233
485,4	2795,548
485,8	2802,633
486,3	2805,719
486,7	2813,548
487,2	2822,319
487,6	2826,319
488,1	2829,033
488,5	2833,29
489	2844,433
489,4	2848,09
489,9	2850,29
490,4	2853,319
490,8	2857,376
491,3	2863,519
491,7	2862,176
492,2	2852,976
492,6	2854,176
493,1	2854,776
493,5	2843,376
494	2831,49
494,4	2820,29
494,9	2812,348
495,3	2807,748
495,8	2795,49
496,2	2786,09
496,7	2779,519
497,1	2779,176
497,6	2773,09
498	2766,976
498,5	2760,776
498,9	2748,633
499,4	2729,148
499,8	2723,062
500,3	2709,776
500,7	2692,09
501,2	2671,833
501,6	2647,719
502,1	2637,69
502,5	2627,433
503	2609,148
503,4	2587,176
503,9	2567,233
504,3	2553,976
504,8	2537,69
505,2	2520,176
505,7	2498,89
506,1	2479,348
506,6	2460,49
507	2439,948
507,5	2424,462
507,9	2401,205
508,4	2378,433
508,8	2358,69
509,3	2334,776
509,7	2318,033
510,2	2304,89
510,6	2279,862
511,1	2262,805
511,5	2237,148
512	2221,462
512,4	2205,348
512,9	2177,405
513,3	2156,233
513,8	2133,148
514,2	2113,69
514,7	2099,805
515,1	2071,119
515,6	2049,405
516	2021,862
516,5	2002,033
516,9	1987,005
517,4	1966,576
517,8	1943,776
518,3	1921,09
518,7	1897,433
519,2	1884,633
519,6	1857,033
520,1	1831,976
520,5	1809,662
521	1782,376
521,4	1764,633
521,9	1744,376
522,3	1725,319
522,8	1704,662
523,2	1685,176
523,7	1663,748
524,1	1649,49
524,6	1630,348
525	1608,662
525,5	1586,576
525,9	1572,948
526,4	1552,319
526,8	1532,576
527,3	1513,662
527,7	1498,748
528,2	1486,29
528,6	1471,748
529,1	1451,005
529,5	1439,748
530	1425,205
530,4	1408,576
530,9	1389,005
531,3	1368,319
531,8	1352,519
532,2	1342,233
532,6	1322,29
533,1	1306,376
533,5	1292,119
534	1275,69
534,4	1262,89
534,9	1251,148
535,3	1232,919
535,8	1218,49
536,2	1204,319
536,7	1190,662
537,1	1179,89
537,6	1162,033
538	1147,119
538,5	1132,976
538,9	1116,29
539,4	1106,719
539,8	1090,405
540,3	1075,119
540,7	1067,405
541,2	1049,005
541,6	1034,09
542,1	1025,49
542,5	1010,233
543	997,576
543,4	988,262
543,9	971,519
544,3	967,576
544,8	957,748
545,2	946,748
545,7	933,29
546,1	924,719
546,5	915,948
547	909,233
547,4	895,119
547,9	882,519
548,3	874,176
548,8	870,005
549,2	858,748
549,7	849,633
550,1	847,662
550,6	842,662
551	841,833
551,5	832,49
551,9	818,69
552,4	815,776
552,8	802,205
553,3	788,29
553,7	774,09
554,2	764,748
554,6	756,462
555,1	755,605
555,5	745,833
555,9	743,205
556,4	735,519
556,8	730,862
557,3	729,09
557,7	724,548
558,2	712,948
558,6	709,833
559,1	701,662
559,5	695,948
560	690,89
560,4	679,719
560,9	673,405
561,3	668,205
561,8	656,319
562,2	652,662
562,7	649,919
563,1	650,433
563,6	641,605
564	635,548
564,4	626,719
564,9	622,662
565,3	613,548
565,8	602,405
566,2	593,433
566,7	592,433
567,1	583,519
567,6	580,29
568	577,405
568,5	576,519
568,9	573,462
569,4	567,405
569,8	560,805
570,3	558,976
570,7	553,662
571,1	547,176
571,6	539,776
572	538,033
572,5	535,262
572,9	529,233
573,4	528,49
573,8	530,033
574,3	527,062
574,7	524,805
575,2	516,519
575,6	507,776
576,1	511,662
576,5	510,348
576,9	502,005
577,4	499,233
577,8	490,919
578,3	488,376
578,7	485,462
579,2	479,833
579,6	468,776
580,1	466,862
580,5	464,005
581	467,376
581,4	463,49
581,9	459,033
582,3	449,148
582,7	449,662
583,2	443,005
583,6	442,519
584,1	439,576
584,5	436,405
585	435,49
585,4	430,662
585,9	426,29
586,3	427,548
586,8	425,748
587,2	418,576
587,6	420,748
588,1	420,348
588,5	419,919
589	415,348
589,4	416,49
589,9	410,233
590,3	410,119
590,8	408,262
591,2	408,462
591,7	409,919
592,1	409,005
592,5	399,433
593	395,405
593,4	389,919
593,9	382,719
594,3	377,633
594,8	369,462
595,2	369,005
595,7	369,976
596,1	367,805
596,6	368,29
597	370,262
597,4	372,119
597,9	375,29
598,3	375,176
598,8	375,976
599,2	373,719
599,7	370,776
600,1	364,89
600,6	356,005
601	358,348
601,4	358,233
601,9	355,205
602,3	352,919
602,8	353,119
603,2	350,576
603,7	350,062
604,1	341,862
604,6	334,433
605	326,262
605,4	329,148
605,9	327,033
606,3	322,148
606,8	314,89
607,2	315,205
607,7	310,348
608,1	313,005
608,6	309,233
609	309,862
609,4	313,262
609,9	316,348
610,3	315,348
610,8	314,233
611,2	311,405
611,7	305,205
612,1	300,319
612,6	298,548
613	303,205
613,4	299,033
613,9	299,148
614,3	296,719
614,8	300,462
615,2	295,233
615,7	298,205
616,1	291,233
616,6	282,948
617	279,033
617,4	279,376
617,9	279,548
618,3	280,09
618,8	276,433
619,2	271,662
619,7	280,776
620,1	280,319
620,5	281,776
621	273,805
621,4	273,519
621,9	271,176
622,3	270,176
622,8	266,976
623,2	266,833
623,6	262,833
624,1	265,29
624,5	261,376
625	258,033
625,4	259,119
625,9	253,719
626,3	250,148
626,8	244,69
627,2	242,862
627,6	236,89
628,1	232,49
628,5	235,462
629	231,376
629,4	233,348
629,9	234,405
630,3	227,833
630,7	232,148
631,2	235,005
631,6	227,49
632,1	230,519
632,5	226,948
633	226,462
633,4	230,805
633,8	229,405
634,3	226,348
634,7	225,376
635,2	219,805
635,6	221,405
636,1	217,948
636,5	211,148
636,9	204,833
637,4	202,462
637,8	201,576
638,3	204,176
638,7	201,976
639,2	201,205
639,6	206,062
640	204,005
640,5	205,319
640,9	204,662
641,4	205,89
641,8	205,119
642,2	208,433
642,7	209,09
643,1	214,233
643,6	210,205
644	210,319
644,5	207,148
644,9	206,548
645,3	202,633
645,8	191,605
646,2	195,062
646,7	195,29
647,1	192,919
647,6	194,976
648	194,805
648,4	190,29
648,9	195,919
649,3	187,862
649,8	188,976
650,2	189,49
650,6	185,29
651,1	178,919
651,5	183,462
652	178,776
652,4	177,776
652,9	179,205
653,3	173,805
653,7	173,719
654,2	178,462
654,6	174,576
655,1	180,005
655,5	185,576
655,9	179,176
656,4	182,005
656,8	178,433
657,3	176,576
657,7	181,062
658,2	174,062
658,6	166,748
659	167,09
659,5	162,719
659,9	164,976
660,4	163,09
660,8	156,662
661,2	156,005
661,7	157,976
662,1	155,69
662,6	157,09
663	156,148
663,4	153,033
663,9	156,462
664,3	155,948
664,8	152,576
665,2	150,862
665,6	149,119
666,1	147,433
666,5	146,119
667	140,148
667,4	138,29
667,9	134,976
668,3	134,833
668,7	131,862
669,2	130,69
669,6	130,662
670,1	131,262
670,5	128,176
670,9	130,376
671,4	131,262
671,8	137,833
672,3	139,233
672,7	140,462
673,1	136,233
673,6	137,062
674	138,062
674,5	136,033
674,9	128,862
675,3	123,633
675,8	123,376
676,2	123,919
676,7	123,976
677,1	121,719
677,5	118,633
678	116,548
678,4	120,69
678,9	117,719
679,3	119,148
679,7	120,119
680,2	116,062
680,6	116,976
681,1	120,576
681,5	119,262
681,9	121,805
682,4	121,748
682,8	122,233
683,3	128,09
683,7	130,062
684,1	127,833
684,6	125,148
685	121,633
685,5	115,976
685,9	113,748
686,3	106,005
686,8	103,919
687,2	105,205
687,7	100,548
688,1	96,29
688,5	98,119
689	96,69
689,4	98,519
689,9	96,576
690,3	91,348
690,7	95,576
691,2	99,376
691,6	98,748
692	100,89
692,5	100,033
692,9	97,576
693,4	97,376
693,8	94,148
694,2	90,919
694,7	86,605
695,1	82,919
695,6	83,69
696	86,719
696,4	86,919
696,9	84,205
697,3	81,548
697,8	85,548
698,2	82,776
698,6	85,69
699,1	85,719
699,5	86,948
699,9	88,576
700,4	86,976
700,8	88,719
701,3	91,119
701,7	85,433
702,1	81,919
702,6	81,462
703	80,433
703,5	83,919
703,9	80,462
704,3	80,462
704,8	79,262
705,2	79,262
705,6	78,805
706,1	80,176
706,5	76,462
707	77,376
707,4	77,69
707,8	78,148
708,3	81,49
708,7	79,462
709,2	75,605
709,6	76,005
710	79,319
710,5	77,633
710,9	79,605
711,3	73,89
711,8	74,748
712,2	78,29
712,7	80,119
713,1	75,976
713,5	74,348
714	73,49
714,4	73,09
714,8	70,662
715,3	69,49
715,7	72,033
716,2	69,748
716,6	71,462
717	68,748
717,5	68,09
717,9	71,462
718,3	68,833
718,8	63,062
719,2	63,319
719,7	65,862
720,1	66,405
720,5	72,376
721	68,948
721,4	68,605
721,8	72,976
722,3	68,005
722,7	68,033
723,2	65,29
723,6	57,148
724	56,348
724,5	56,005
724,9	52,89
725,3	56,49
725,8	53,633
726,2	53,548
726,7	56,948
727,1	55,519
727,5	56,748
728	52,205
728,4	53,519
728,8	52,519
729,3	52,119
729,7	49,633
730,1	50,433
730,6	51,462
731	53,376
731,5	51,519
731,9	47,805
732,3	46,262
732,8	50,69
733,2	55,319
733,6	52,662
734,1	56,348
734,5	53,405
734,9	56,176
735,4	58,919
735,8	51,176
736,3	48,433
736,7	49,548
737,1	48,462
737,6	52,205
738	48,348
738,4	47,519
738,9	51,719
739,3	52,09
739,7	52,233
740,2	48,376
740,6	51,233
741,1	56,862
741,5	53,633
741,9	49,233
742,4	50,062
742,8	49,062
743,2	50,662
743,7	46,376
744,1	36,805
744,5	37,233
745	40,262
745,4	35,176
745,8	34,948
746,3	35,405
746,7	31,919
747,2	38,69
747,6	41,49
748	45,548
748,5	50,548
748,9	51,748
749,3	51,348
749,8	52,433
750,2	51,09
750,6	47,862
751,1	45,776
751,5	40,605
751,9	40,29
752,4	39,633
752,8	42,405
753,3	41,348
753,7	47,576
754,1	44,29
754,6	45,433
755	43,833
755,4	43,433
755,9	38,348
756,3	37,633
756,7	32,49
757,2	34,862
757,6	35,433
758	32,948
758,5	32,262
758,9	33,548
759,3	35,148
759,8	35,833
760,2	35,548
760,6	33,29
761,1	34,748
761,5	34,833
761,9	33,462
762,4	31,49
762,8	33,748
763,3	29,319
763,7	29,548
764,1	30,09
764,6	30,405
765	35,005
765,4	36,148
765,9	33,805
766,3	36,205
766,7	34,376
767,2	32,748
767,6	35,776
768	30,748
768,5	27,89
768,9	30,462
769,3	29,176
769,8	30,033
770,2	31,633
770,6	28,605
771,1	32,776
771,5	35,005
771,9	31,748
772,4	37,319
772,8	36,462
773,2	39,09
773,7	38,49
774,1	39,662
774,5	36,833
775	34,148
775,4	29,005
775,8	29,262
776,3	25,233
776,7	23,319
777,1	21,662
777,6	23,462
778	29,233
778,4	27,805
778,9	30,205
779,3	28,348
779,7	31,462
780,2	31,976
780,6	34,548
781	30,719
781,5	30,633
781,9	28,69
782,3	24,833
782,8	24,148
783,2	22,69
783,6	25,576
784,1	24,805
784,5	24,09
784,9	21,548
785,4	26,576
785,8	26,776
786,2	26,205
786,7	20,519
787,1	16,976
787,5	20,405
788	24,833
788,4	26,433
788,8	23,519
789,3	24,719
789,7	25,548
790,1	29,433
790,6	29,376
791	27,662
791,4	31,005
791,9	28,348
792,3	23,233
792,7	28,976
793,2	23,062
793,6	19,576
794	21,033
794,5	11,348
794,9	14,062
795,3	18,748
795,8	9,719
796,2	12,69
796,6	17,433
797,1	15,09
797,5	17,69
797,9	17,69
798,4	17,633
798,8	22,005
799,2	21,548
799,7	18,976
800,1	20,062
800,5	18,005
801	21,09
801,4	16,205
801,8	15,662
802,2	19,519
802,7	15,548
803,1	14,69
803,5	16,833
804	10,862
804,4	13,005
804,8	9,948
805,3	12,205
805,7	13,233
806,1	10,119
806,6	9,976
807	14,519
807,4	13,919
807,9	11,719
808,3	10,862
808,7	16,033
809,2	22,433
809,6	29,348
810	28,29
810,4	31,262
810,9	33,919
811,3	35,119
811,7	29,833
812,2	30,233
812,6	24,69
813	26,862
813,5	26,376
813,9	26,833
814,3	25,405
814,8	28,805
815,2	24,205
815,6	25,29
816,1	26,976
816,5	26,748
816,9	27,176
817,3	22,033
817,8	26,719
818,2	25,062
818,6	19,805
819,1	15,09
819,5	11,319
819,9	9,09
820,4	16,033
820,8	8,748
821,2	4,805
821,7	10,119
822,1	12,719
822,5	19,519
822,9	21,519
823,4	16,462
823,8	22,89
824,2	29,205
824,7	25,119
825,1	21,148
825,5	14,862
826	14,062
826,4	14,662
826,8	8,633
827,3	9,033
827,7	9,09
828,1	9,719
828,5	10,948
829	7,662
829,4	9,348
829,8	2,719
830,3	4,062
830,7	3,976
831,1	5,062
831,6	5,69
832	8,033
832,4	5,833
832,8	14,662
833,3	10,405
833,7	8,49
834,1	3,519
834,6	2,348
835	3,719
835,4	2,776
835,8	-3,91
836,3	-2,481
836,7	0,976
837,1	8,69
837,6	11,205
838	9,405
838,4	8,976
838,9	12,233
839,3	10,805
839,7	11,605
840,1	2,805
840,6	5,033
841	4,519
841,4	5,405
841,9	9,205
842,3	8,348
842,7	7,233
843,1	13,89
843,6	11,319
844	14,09
844,4	18,776
844,9	21,548
845,3	26,576
845,7	27,148
846,2	24,176
846,6	18,09
847	16,148
847,4	17,376
847,9	14,119
848,3	11,862
848,7	11,319
849,2	9,148
849,6	14,062
850	18,548
850,4	15,519
850,9	17,376
851,3	21,376
851,7	22,033
852,2	23,976
852,6	26,233
853	23,062
853,4	22,605
853,9	17,833
854,3	16,033
854,7	17,89
855,2	19,148
855,6	17,348
856	15,89
856,4	12,376
856,9	14,948
857,3	11,148
857,7	11,319
858,2	18,148
858,6	18,519
859	18,576
859,4	18,576
859,9	14,376
860,3	12,462
860,7	9,805
861,1	3,348
861,6	0,576
862	1,919
862,4	2,319
862,9	5,49
863,3	6,29
863,7	6,319
864,1	10,776
864,6	8,005
865	5,462
865,4	5,805
865,9	6,29
866,3	2,976
866,7	3,119
867,1	-0,91
867,6	3,862
868	4,233
868,4	4,005
868,8	5,405
869,3	7,976
869,7	13,176
870,1	10,719
870,6	6,862
871	-46,824
871,4	-42,167
871,8	-46,652
872,3	-43,224
872,7	-46,71
873,1	-45,224
873,5	-42,081
874	10,376
874,4	7,776
874,8	8,29
875,3	9,49
875,7	11,148
876,1	12,576
876,5	13,119
877	17,233
877,4	16,205
877,8	19,433
878,2	21,605
878,7	19,976
879,1	18,976
879,5	19,376
879,9	18,833
880,4	17,519
880,8	16,976
881,2	11,89
881,7	9,976
882,1	10,919
882,5	8,376
882,9	6,976
883,4	5,433
883,8	4,862
884,2	4,919
884,6	1,748
885,1	1,49
885,5	1,633
885,9	0,348
886,3	2,233
886,8	0,576
887,2	-1,11
887,6	1,233
888	-2,081
888,5	0,433
888,9	0,719
889,3	-1,452
889,8	-0,424
890,2	-0,024
890,6	-3,424
891	-0,281
891,5	-3,167
891,9	-0,51
892,3	1,119
892,7	2,09
893,2	4,348
893,6	6,005
894	8,49
894,4	6,919
894,9	6,948
895,3	8,09
895,7	7,633
896,1	5,205
896,6	4,833
897	1,605
897,4	8,548
897,8	7,348
898,3	6,833
898,7	1,205
899,1	2,462
899,5	2,519
900	-4,795
900,4	-5,71
900,8	-8,51
901,2	-9,767
901,7	-6,624
902,1	-3,852
902,5	0,919
902,9	5,976
903,4	1,49
903,8	4,519
904,2	2,519
904,6	7,205
905,1	3,89
905,5	2,805
905,9	7,148
906,3	11,49
906,8	13,205
907,2	16,405
907,6	14,176
908	16,919
908,5	12,462
908,9	7,89
909,3	4,776
909,7	4,262
910,2	3,005
910,6	5,605
911	-1,167
911,4	3,005
911,9	1,119
912,3	2,205
912,7	4,776
913,1	8,49
913,6	2,148
914	9,919
914,4	4,176
914,8	8,519
915,3	5,605
915,7	-0,938
916,1	-3,767
916,5	-0,967
916,9	-4,852
917,4	-4,138
917,8	-2,767
918,2	-2,224
918,6	-2,281
919,1	-0,51
919,5	-0,681
919,9	4,29
920,3	7,376
920,8	5,69
921,2	4,919
921,6	3,576
922	2,833
922,5	4,005
922,9	-0,538
923,3	-2,881
923,7	-4,395
924,2	-2,167
924,6	-0,51
925	0,205
925,4	-1,624
925,8	1,033
926,3	3,89
926,7	4,348
927,1	7,233
927,5	10,09
928	10,29
928,4	11,09
928,8	9,205
929,2	7,633
929,7	6,033
930,1	1,976
930,5	0,033
930,9	1,576
931,3	-0,652
931,8	-1,51
932,2	-0,852
932,6	1,033
933	-2,881
933,5	-0,995
933,9	-4,767
934,3	-3,738
934,7	-4,224
935,2	-1,481
935,6	-3,681
936	0,576
936,4	-0,51
936,8	1,176
937,3	1,462
937,7	6,09
938,1	10,319
938,5	7,833
939	9,262
939,4	7,69
939,8	3,748
940,2	4,119
940,6	3,633
941,1	-4,481
941,5	1,919
941,9	-3,024
942,3	-2,252
942,8	-2,624
943,2	-3,11
943,6	-10,024
944	-7,91
944,4	-9,424
944,9	-7,481
945,3	-8,767
945,7	-7,852
946,1	-7,281
946,6	-5,11
947	-7,995
947,4	-3,767
947,8	-1,71
948,2	-2,252
948,7	-1,795
949,1	0,919
949,5	5,748
949,9	8,89
950,3	7,633
950,8	9,262
951,2	9,09
951,6	7,748
952	7,976
952,5	1,405
952,9	2,262
953,3	0,405
953,7	-0,481
954,1	6,719
954,6	7,633
955	11,433
955,4	11,605
955,8	9,833
956,2	10,405
956,7	10,69
957,1	1,805
957,5	4,062
957,9	-2,481
958,3	-0,252
958,8	-1,167
959,2	-2,795
959,6	-3,224
960	-2,338
960,5	-1,367
960,9	1,748
961,3	-2,624
961,7	-2,338
962,1	-0,424
962,6	1,376
963	0,976
963,4	-0,795
963,8	-0,195
964,2	6,148
964,7	7,662
965,1	6,633
965,5	3,862
965,9	7,005
966,3	9,719
966,8	5,233
967,2	2,748
967,6	0,976
968	0,519
968,4	1,033
968,9	-1,424
969,3	0,576
969,7	-2,081
970,1	-3,081
970,5	-3,395
971	-0,11
971,4	1,119
971,8	5,576
972,2	2,948
972,6	6,49
973,1	9,433
973,5	9,376
973,9	7,576
974,3	4,033
974,7	11,033
975,2	14,262
975,6	14,433
976	15,09
976,4	14,29
976,8	15,29
977,3	12,862
977,7	2,262
978,1	-1,881
978,5	-6,252
978,9	-6,567
979,4	-7,424
979,8	-11,052
980,2	-7,081
980,6	-7,338
981	-2,252
981,5	-0,395
981,9	-2,024
982,3	1,805
982,7	2,976
983,1	1,233
983,6	3,633
984	-1,738
984,4	0,29
984,8	-1,338
985,2	-1,452
985,6	-4,31
986,1	-0,338
986,5	0,29
986,9	-1,51
987,3	2,462
987,7	4,005
988,2	4,062
988,6	6,49
989	3,919
989,4	1,376
989,8	2,319
990,3	-3,424
990,7	-2,91
991,1	-6,624
991,5	-4,081
991,9	-2,11
992,3	1,433
992,8	4,633
993,2	7,519
993,6	7,29
994	10,833
994,4	9,89
994,9	7,862
995,3	2,833
995,7	3,29
996,1	3,919
996,5	5,09
996,9	-0,567
997,4	0,89
997,8	-0,367
998,2	-1,538
998,6	-11,738
999	-10,367
999,5	-11,824
999,9	-7,938
1000,3	-7,195
1000,7	-4,481
1001,1	-1,624
1001,5	9,09
1002	5,919
1002,4	7,119
1002,8	5,605
1003,2	1,376
1003,6	2,005
1004	4,348
1004,5	-3,852
1004,9	-1,167
1005,3	-4,51
1005,7	-4,052
1006,1	-4,567
1006,6	-7,824
1007	-9,224
1007,4	-6,252
1007,8	-9,71
1008,2	-12,624
1008,6	-8,652
1009,1	-8,51
1009,5	-5,938
1009,9	-1,938
1010,3	0,748
1010,7	4,119
1011,1	8,948
1011,6	8,062
1012	9,662
1012,4	5,948
1012,8	3,519
1013,2	5,005
1013,6	2,09
1014,1	4,29
1014,5	3,948
1014,9	3,148
1015,3	1,805
1015,7	4,319
1016,1	3,319
1016,6	1,348
1017	0,805
1017,4	3,805
1017,8	3,548
1018,2	9,148
1018,6	-0,11
1019,1	1,09
1019,5	5,976
1019,9	1,919
1020,3	-0,624
1020,7	-0,51
1021,1	-5,167
1021,6	0,862
1022	1,69
1022,4	-2,338
1022,8	3,062
1023,2	1,29
1023,6	3,29
1024,1	10,233
1024,5	9,405
1024,9	5,033
1025,3	7,119
1025,7	5,462
1026,1	6,633
1026,6	5,119
1027	2,148
1027,4	4,062
1027,8	2,776
1028,2	-1,51
1028,6	2,119
1029	0,433
1029,5	6,005
1029,9	6,833
1030,3	2,548
1030,7	6,205
1031,1	10,948
1031,5	5,29
1032	8,148
1032,4	2,776
1032,8	2,433
1033,2	6,89
1033,6	2,405
1034	3,833
1034,4	6,09
1034,9	6,319
1035,3	2,862
1035,7	-0,31
1036,1	-1,138
1036,5	-1,452
1036,9	-2,452
1037,4	-1,338
1037,8	-7,881
1038,2	-2,081
1038,6	-0,281
1039	-0,195
1039,4	7,405
1039,8	1,233
1040,3	2,148
1040,7	3,805
1041,1	5,233
1041,5	7,805
1041,9	5,776
1042,3	3,576
1042,7	7,919
1043,2	5,919
1043,6	5,89
1044	2,49
1044,4	-0,452
1044,8	6,976
1045,2	3,776
1045,6	5,176
1046,1	6,69
1046,5	10,69
1046,9	10,862
1047,3	10,633
1047,7	2,29
1048,1	2,49
1048,5	-0,881
1049	0,205
1049,4	1,919
1049,8	0,005
1050,2	2,662
1050,6	5,005
1051	3,033
1051,4	4,205
1051,9	-2,852
1052,3	2,233
1052,7	4,376
1053,1	0,119
1053,5	3,005
1053,9	6,976
1054,3	4,405
1054,8	13,89
1055,2	8,319
1055,6	5,033
1056	8,976
1056,4	8,976
1056,8	9,376
1057,2	12,662
1057,6	6,29
1058,1	4,29
1058,5	3,005
1058,9	2,919
1059,3	0,976
1059,7	2,205
1060,1	1,319
1060,5	3,29
1061	6,719
1061,4	11,433
1061,8	14,119
1062,2	12,633
1062,6	9,862
1063	10,833
1063,4	8,233
1063,8	6,033
1064,3	-1,367
1064,7	-4,081
1065,1	-0,852
1065,5	-2,538
1065,9	-2,967
1066,3	-7,252
1066,7	-13,71
1067,1	-10,795
1067,6	-8,51
1068	-15,51
1068,4	-13,595
1068,8	-13,452
1069,2	-5,367
1069,6	-0,338
1070	6,69
1070,4	3,89
1070,9	6,376
1071,3	6,519
1071,7	6,833
1072,1	4,919
1072,5	3,348
1072,9	-2,767
1073,3	-3,824
1073,7	-3,538
1074,2	-3,024
1074,6	-1,995
1075	-1,767
1075,4	-1,138
1075,8	3,005
1076,2	5,033
1076,6	4,633
1077	1,833
1077,5	2,633
1077,9	2,005
1078,3	3,119
1078,7	3,633
1079,1	-0,452
1079,5	1,69
1079,9	4,148
1080,3	2,548
1080,7	1,519
1081,2	5,205
1081,6	1,405
1082	1,405
1082,4	8,233
1082,8	6,519
1083,2	6,605
1083,6	9,405
1084	6,005
1084,5	7,262
1084,9	7,776
1085,3	-4,681
1085,7	-1,738
1086,1	-2,024
1086,5	-4,11
1086,9	-3,681
1087,3	-2,224
1087,7	-0,252
1088,2	5,605
1088,6	3,348
1089	7,29
1089,4	6,89
1089,8	7,462
1090,2	3,805
1090,6	2,89
1091	3,005
1091,4	3,205
1091,9	0,49
1092,3	0,29
1092,7	-1,51
1093,1	3,005
1093,5	2,976
1093,9	0,948
1094,3	6,148
1094,7	1,862
1095,1	4,262
1095,5	6,662
1096	2,662
1096,4	5,033
1096,8	6,719
1097,2	4,719
1097,6	10,119
1098	10,433
1098,4	11,319
1098,8	13,833
1099,2	15,776
1099,6	14,748
1100,1	8,919
1100,5	4,805
1100,9	2,576
1101,3	-0,967
1101,7	-2,967
1102,1	-6,081
1102,5	-4,938
1102,9	-2,424
1103,3	3,576
1103,7	4,319
1104,2	2,062
1104,6	4,519
1105	2,633
1105,4	2,033
1105,8	1,69
1106,2	-2,624
1106,6	-3,195
1107	0,005
1107,4	-1,433
1107,8	0,273
1108,3	-0,167
