Data from Subt2_150.txt Node
Date: Sat Aug 26 18:30:53 MSK 2023
User: vat
Spectrometer: MAYP114033
Trigger mode: 0
Integration Time (sec): 1,000000E0
Scans to average: 5
Electric dark correction enabled: true
Nonlinearity correction enabled: false
Boxcar width: 3
XAxis mode: Wavelengths
Number of Pixels in Spectrum: 2068
>>>>>Begin Spectral Data<<<<<
199,4	0,033
199,9	1,213
200,4	0,8
200,8	0,476
201,3	-0,552
201,8	-0,324
202,2	-3,181
202,7	2,048
203,2	0,876
203,6	0,933
204,1	3,705
204,6	5,419
205	7,762
205,5	12,019
206	7,562
206,4	8,333
206,9	9,276
207,4	6,648
207,8	3,048
208,3	1,59
208,8	1,39
209,2	1,39
209,7	0,933
210,2	-0,124
210,6	1,019
211,1	4,133
211,5	1,076
212	2,133
212,5	0,162
212,9	-3,552
213,4	-4,067
213,9	-6,581
214,3	-7,181
214,8	-0,924
215,3	-4,81
215,7	1,362
216,2	6,39
216,7	6,619
217,1	7,019
217,6	10,162
218,1	9,105
218,5	7,019
219	-3,295
219,5	-3,038
219,9	-5,61
220,4	0,305
220,9	-1,981
221,3	-6,581
221,8	-4,81
222,3	0,876
222,7	1,676
223,2	4,648
223,6	-1,381
224,1	-2,752
224,6	0,533
225	-0,352
225,5	-2,438
226	-5,838
226,4	-5,581
226,9	-3,067
227,4	-4,181
227,8	-11,667
228,3	-7,752
228,8	-7,724
229,2	-3,61
229,7	-7,467
230,2	-6,381
230,6	-1,895
231,1	10,533
231,5	6,505
232	4,733
232,5	4,248
232,9	9,133
233,4	6,733
233,9	1,019
234,3	-5,724
234,8	-2,467
235,3	-1,61
235,7	-1,781
236,2	-2,124
236,7	-0,638
237,1	4,848
237,6	-0,095
238,1	-2,295
238,5	-2,981
239	-3,638
239,4	-0,667
239,9	-2,324
240,4	-4,781
240,8	4,905
241,3	4,305
241,8	3,019
242,2	-0,61
242,7	-4,952
243,2	-1,467
243,6	-4,581
244,1	-7,41
244,6	-0,781
245	3,19
245,5	1,705
245,9	-2,695
246,4	-3,067
246,9	1,933
247,3	-0,724
247,8	-4,752
248,3	-2,952
248,7	1,99
249,2	9,562
249,7	1,99
250,1	2,219
250,6	6,448
251	8,99
251,5	10,219
252	15,333
252,4	14,248
252,9	15,276
253,4	9,105
253,8	2,562
254,3	-0,152
254,8	-5,495
255,2	-15,895
255,7	-16,41
256,1	-12,838
256,6	-5,095
257,1	-1,61
257,5	-4,724
258	-4,838
258,5	0,162
258,9	0,962
259,4	-0,41
259,9	-3,524
260,3	-4,267
260,8	-4,467
261,2	-1,667
261,7	-3,181
262,2	-10,61
262,6	-10,267
263,1	-7,438
263,6	-7,752
264	-5,667
264,5	-2,267
264,9	-5,152
265,4	2,762
265,9	1,705
266,3	1,505
266,8	3,79
267,3	2,676
267,7	0,79
268,2	2,876
268,7	0,362
269,1	2,533
269,6	-1,21
270	2,905
270,5	1,448
271	2,276
271,4	5,276
271,9	5,533
272,4	8,105
272,8	8,39
273,3	-1,724
273,7	0,762
274,2	-0,667
274,7	-3,21
275,1	-2,552
275,6	-3,752
276,1	-4,067
276,5	1,819
277	-0,438
277,4	-0,467
277,9	0,419
278,4	2,876
278,8	3,133
279,3	8,79
279,8	11,248
280,2	15,39
280,7	18,733
281,1	16,733
281,6	13,99
282,1	13,79
282,5	9,733
283	6,505
283,4	5,362
283,9	-1,238
284,4	2,448
284,8	3,59
285,3	0,105
285,8	-0,41
286,2	-3,867
286,7	-1,295
287,1	-0,838
287,6	-2,295
288,1	-7,867
288,5	-3,867
289	-2,038
289,5	3,562
289,9	-1,495
290,4	-0,924
290,8	-1,781
291,3	2,505
291,8	5,019
292,2	1,162
292,7	2,962
293,1	5,076
293,6	11,276
294,1	13,99
294,5	16,676
295	13,619
295,5	15,476
295,9	13,048
296,4	10,362
296,8	6,505
297,3	3,933
297,8	-5,495
298,2	-10,181
298,7	-6,981
299,1	-6,781
299,6	-5,438
300,1	-1,952
300,5	-0,352
301	3,705
301,5	10,333
301,9	3,905
302,4	-0,181
302,8	2,905
303,3	-3,467
303,8	-9,381
304,2	-7,524
304,7	-11,238
305,1	-12,067
305,6	-8,895
306,1	-6,095
306,5	-1,41
307	8,876
307,4	11,419
307,9	11,933
308,4	15,676
308,8	12,276
309,3	4,99
309,8	3,819
310,2	-0,067
310,7	-3,724
311,1	-3,238
311,6	-2,61
312,1	4,905
312,5	11,905
313	11,705
313,4	12,048
313,9	12,848
314,4	14,39
314,8	11,448
315,3	6,819
315,7	-1,552
316,2	-7,095
316,7	-10,467
317,1	-6,067
317,6	-7,352
318	-0,41
318,5	-2,267
319	4,219
319,4	10,419
319,9	16,448
320,3	14,276
320,8	12,533
321,3	8,962
321,7	9,533
322,2	6,133
322,6	6,39
323,1	3,448
323,6	0,59
324	1,648
324,5	1,076
324,9	-0,067
325,4	-1,095
325,9	-3,152
326,3	-0,981
326,8	1,705
327,2	-3,038
327,7	-1,867
328,2	1,305
328,6	6,105
329,1	4,019
329,5	0,676
330	-1,181
330,5	5,39
330,9	7,933
331,4	8,248
331,8	7,562
332,3	9,676
332,8	13,219
333,2	12,619
333,7	11,105
334,1	9,533
334,6	6,648
335,1	1,962
335,5	3,819
336	-1,295
336,4	0,762
336,9	8,59
337,4	9,248
337,8	6,876
338,3	8,419
338,7	7,619
339,2	6,905
339,7	7,562
340,1	-1,41
340,6	-3,552
341	-2,324
341,5	1,019
342	-1,381
342,4	-1,21
342,9	-2,152
343,3	-2,495
343,8	-3,067
344,2	1,162
344,7	0,762
345,2	-0,095
345,6	1,333
346,1	2,305
346,5	-3,81
347	-5,038
347,5	-9,838
347,9	-6,867
348,4	-4,924
348,8	-3,781
349,3	-0,724
349,8	6,419
350,2	12,933
350,7	13,562
351,1	9,448
351,6	13,99
352	17,048
352,5	18,048
353	23,99
353,4	22,219
353,9	30,133
354,3	40,219
354,8	44,39
355,3	54,59
355,7	67,419
356,2	80,133
356,6	101,562
357,1	121,79
357,5	140,019
358	169,305
358,5	194,019
358,9	222,533
359,4	255,219
359,8	287,305
360,3	334,733
360,8	379,933
361,2	430,99
361,7	491,933
362,1	559,962
362,6	634,648
363	715,705
363,5	792,562
364	884,162
364,4	969,59
364,9	1059,248
365,3	1145,105
365,8	1225,048
366,3	1301,105
366,7	1368,105
367,2	1424,676
367,6	1474,39
368,1	1513,676
368,5	1536,476
369	1551,419
369,5	1556,733
369,9	1547,876
370,4	1526,676
370,8	1499,419
371,3	1451,619
371,7	1402,19
372,2	1341,676
372,7	1271,333
373,1	1203,476
373,6	1134,619
374	1064,333
374,5	993,933
374,9	927,533
375,4	864,505
375,9	802,19
376,3	741,476
376,8	680,19
377,2	624,905
377,7	574,476
378,2	525,533
378,6	480,648
379,1	439,048
379,5	406,105
380	381,048
380,4	347,39
380,9	314,59
381,4	283,59
381,8	264,333
382,3	248,676
382,7	228,59
383,2	207,962
383,6	193,876
384,1	183,79
384,6	173,762
385	157,762
385,5	144,048
385,9	132,048
386,4	121,276
386,8	113,533
387,3	108,19
387,7	101,39
388,2	95,305
388,7	86,59
389,1	79,419
389,6	74,619
390	69,019
390,5	65,648
390,9	63,905
391,4	61,533
391,9	60,048
392,3	58,705
392,8	56,019
393,2	49,219
393,7	46,476
394,1	41,305
394,6	37,305
395,1	39,733
395,5	35,248
396	30,419
396,4	32,105
396,9	30,962
397,3	33,076
397,8	35,848
398,2	32,362
398,7	35,162
399,2	36,762
399,6	35,705
400,1	32,19
400,5	26,676
401	21,248
401,4	20,562
401,9	21,39
402,4	21,448
402,8	18,648
403,3	25,248
403,7	25,19
404,2	28,762
404,6	30,333
405,1	28,162
405,5	30,105
406	32,848
406,5	27,476
406,9	32,676
407,4	29,819
407,8	33,419
408,3	39,79
408,7	38,448
409,2	45,676
409,6	50,676
410,1	57,276
410,6	68,762
411	74,219
411,5	71,905
411,9	77,39
412,4	77,648
412,8	81,105
413,3	82,048
413,7	81,705
414,2	80,648
414,7	90,619
415,1	99,962
415,6	108,19
416	118,019
416,5	124,79
416,9	130,533
417,4	140,705
417,8	150,476
418,3	159,476
418,8	169,219
419,2	178,19
419,7	187,19
420,1	199,219
420,6	209,933
421	215,762
421,5	227,448
421,9	239,933
422,4	248,905
422,8	259,162
423,3	264,876
423,8	272,133
424,2	284,99
424,7	292,248
425,1	302,448
425,6	319,705
426	336,248
426,5	358,133
426,9	377,105
427,4	390,933
427,9	407,019
428,3	424,162
428,8	437,076
429,2	454,819
429,7	471,848
430,1	490,162
430,6	514,848
431	538,333
431,5	564,162
431,9	587,676
432,4	612,39
432,8	644,505
433,3	676,648
433,8	708,19
434,2	742,762
434,7	778,733
435,1	818,59
435,6	860,619
436	902,19
436,5	948,99
436,9	989,419
437,4	1036,19
437,8	1078,848
438,3	1123,248
438,8	1172,648
439,2	1225,905
439,7	1278,59
440,1	1340,362
440,6	1404,819
441	1467,19
441,5	1535,219
441,9	1600,048
442,4	1661,676
442,8	1729,533
443,3	1804,419
443,7	1878,248
444,2	1963,733
444,7	2047,705
445,1	2130,19
445,6	2218,019
446	2308,19
446,5	2390,333
446,9	2471,819
447,4	2555,505
447,8	2652,219
448,3	2753,219
448,7	2853,505
449,2	2955,533
449,6	3073,476
450,1	3184,562
450,6	3303,876
451	3412,105
451,5	3524,19
451,9	3641,733
452,4	3760,105
452,8	3869,79
453,3	3991,648
453,7	4111,59
454,2	4240,476
454,6	4367,305
455,1	4490,219
455,5	4614,305
456	4747,333
456,4	4872,905
456,9	5006,505
457,3	5133,019
457,8	5265,533
458,3	5403,533
458,7	5549,933
459,2	5693,333
459,6	5845,019
460,1	5997,133
460,5	6149,362
461	6304,99
461,4	6445,648
461,9	6585,962
462,3	6736,448
462,8	6880,848
463,2	7019,219
463,7	7165,99
464,1	7313,733
464,6	7475,276
465	7622,933
465,5	7762,905
466	7907,705
466,4	8052,619
466,9	8197,848
467,3	8344,019
467,8	8492,219
468,2	8637,533
468,7	8778,476
469,1	8927,105
469,6	9065,762
470	9211,419
470,5	9341,048
470,9	9476,933
471,4	9613,819
471,8	9744,305
472,3	9874,419
472,7	10004,762
473,2	10120,619
473,6	10245,533
474,1	10367,076
474,5	10484,733
475	10608,219
475,4	10716,676
475,9	10829,19
476,4	10931,019
476,8	11034,533
477,3	11120,562
477,7	11223,219
478,2	11324,562
478,6	11430,762
479,1	11513,848
479,5	11614,276
480	11693,048
480,4	11787,648
480,9	11858,076
481,3	11921,39
481,8	11975,79
482,2	12041,505
482,7	12105,619
483,1	12168,448
483,6	12213,105
484	12263,819
484,5	12318,933
484,9	12361,19
485,4	12403,476
485,8	12424,533
486,3	12458,762
486,7	12489,562
487,2	12516,333
487,6	12529,819
488,1	12554,419
488,5	12565,362
489	12583,105
489,4	12584,105
489,9	12573,876
490,4	12579,79
490,8	12573,105
491,3	12567,219
491,7	12553,133
492,2	12536,019
492,6	12510,362
493,1	12492,305
493,5	12445,705
494	12416,19
494,4	12376,39
494,9	12339,505
495,3	12305,962
495,8	12283,733
496,2	12246,219
496,7	12201,448
497,1	12162,962
497,6	12116,762
498	12074,733
498,5	12022,905
498,9	11955,99
499,4	11904,448
499,8	11855,305
500,3	11793,476
500,7	11733,362
501,2	11671,048
501,6	11604,476
502,1	11551,476
502,5	11482,59
503	11422,39
503,4	11348,248
503,9	11279,59
504,3	11209,019
504,8	11141,962
505,2	11065,333
505,7	10986,419
506,1	10906,133
506,6	10827,19
507	10739,905
507,5	10656,019
507,9	10564,648
508,4	10470,248
508,8	10390,162
509,3	10305,562
509,7	10225,933
510,2	10146,648
510,6	10055,876
511,1	9971,876
511,5	9895,276
512	9808,133
512,4	9716,705
512,9	9628,248
513,3	9536,048
513,8	9442,905
514,2	9347,762
514,7	9243,819
515,1	9155,162
515,6	9067,962
516	8963,59
516,5	8871,362
516,9	8784,562
517,4	8697,819
517,8	8615,162
518,3	8519,99
518,7	8427,848
519,2	8342,59
519,6	8253,276
520,1	8169,162
520,5	8075,905
521	7981,619
521,4	7897,505
521,9	7809,705
522,3	7729,676
522,8	7644,876
523,2	7556,933
523,7	7476,019
524,1	7395,105
524,6	7304,019
525	7222,076
525,5	7133,105
525,9	7051,019
526,4	6965,39
526,8	6893,133
527,3	6815,933
527,7	6745,676
528,2	6673,162
528,6	6591,733
529,1	6518,076
529,5	6449,876
530	6369,962
530,4	6297,248
530,9	6216,79
531,3	6134,076
531,8	6069,39
532,2	5999,933
532,6	5923,39
533,1	5849,562
533,5	5782,19
534	5717,248
534,4	5652,905
534,9	5594,048
535,3	5527,676
535,8	5468,933
536,2	5413,848
536,7	5349,505
537,1	5288,133
537,6	5230,305
538	5168,133
538,5	5105,505
538,9	5041,819
539,4	4979,676
539,8	4923,848
540,3	4878,276
540,7	4822,362
541,2	4763,305
541,6	4716,733
542,1	4667,562
542,5	4613,048
543	4568,076
543,4	4514,076
543,9	4470,419
544,3	4428,705
544,8	4376,762
545,2	4334,076
545,7	4293,048
546,1	4249,133
546,5	4199,648
547	4153,476
547,4	4109,019
547,9	4061,133
548,3	4014,733
548,8	3973,19
549,2	3921,248
549,7	3880,962
550,1	3837,019
550,6	3792,705
551	3756,048
551,5	3714,505
551,9	3670,848
552,4	3636,133
552,8	3600,248
553,3	3566,79
553,7	3533,705
554,2	3502,876
554,6	3465,448
555,1	3432,676
555,5	3395,562
555,9	3361,905
556,4	3323,933
556,8	3289,448
557,3	3257,762
557,7	3231,19
558,2	3197,333
558,6	3177,448
559,1	3147,476
559,5	3118,933
560	3085,448
560,4	3057,933
560,9	3024,362
561,3	2995,619
561,8	2959,076
562,2	2932,076
562,7	2905,219
563,1	2884,162
563,6	2852,219
564	2825,648
564,4	2802,333
564,9	2776,933
565,3	2747,448
565,8	2720,076
566,2	2698,848
566,7	2674,59
567,1	2657,19
567,6	2635,79
568	2611,39
568,5	2589,505
568,9	2569,59
569,4	2545,162
569,8	2524,076
570,3	2499,505
570,7	2472,305
571,1	2456,133
571,6	2438,505
572	2416,219
572,5	2393,648
572,9	2369,448
573,4	2347,533
573,8	2334,019
574,3	2311,162
574,7	2288,905
575,2	2267,648
575,6	2244,762
576,1	2228,619
576,5	2216,305
576,9	2191,276
577,4	2172,219
577,8	2150,705
578,3	2135,933
578,7	2116,276
579,2	2105,048
579,6	2084,162
580,1	2072,248
580,5	2059,19
581	2047,99
581,4	2032,762
581,9	2019,476
582,3	1995,905
582,7	1981,133
583,2	1965,39
583,6	1951,619
584,1	1932,933
584,5	1913,79
585	1901,39
585,4	1884,248
585,9	1865,076
586,3	1855,019
586,8	1838,676
587,2	1823,648
587,6	1817,59
588,1	1802,076
588,5	1790,99
589	1781,248
589,4	1760,448
589,9	1742,048
590,3	1732,162
590,8	1711,419
591,2	1699,305
591,7	1692,705
592,1	1680,648
592,5	1669,048
593	1656,448
593,4	1641,105
593,9	1631,019
594,3	1614,419
594,8	1599,133
595,2	1584,39
595,7	1575,19
596,1	1568,019
596,6	1553,79
597	1544,99
597,4	1540,79
597,9	1531,962
598,3	1530,219
598,8	1519,876
599,2	1505,276
599,7	1500,905
600,1	1489,076
600,6	1478,79
601	1465,476
601,4	1456,476
601,9	1450,019
602,3	1441,676
602,8	1433,619
603,2	1426,076
603,7	1414,219
604,1	1405,276
604,6	1391,59
605	1372,762
605,4	1369,648
605,9	1356,019
606,3	1341,505
606,8	1328,905
607,2	1319,133
607,7	1310,305
608,1	1309,305
608,6	1303,019
609	1300,676
609,4	1294,59
609,9	1286,419
610,3	1280,705
610,8	1267,79
611,2	1256,133
611,7	1237,305
612,1	1224,733
612,6	1219,333
613	1215,733
613,4	1207,305
613,9	1198,962
614,3	1194,048
614,8	1190,476
615,2	1179,933
615,7	1171,705
616,1	1162,19
616,6	1149,733
617	1144,048
617,4	1137,905
617,9	1134,99
618,3	1135,448
618,8	1125,905
619,2	1121,505
619,7	1117,505
620,1	1109,019
620,5	1100,419
621	1085,448
621,4	1075,19
621,9	1067,19
622,3	1055,276
622,8	1045,305
623,2	1040,59
623,6	1031,019
624,1	1029,105
624,5	1021,562
625	1025,562
625,4	1020,905
625,9	1017,905
626,3	1012,505
626,8	1006,448
627,2	1000,819
627,6	984,762
628,1	970,305
628,5	965,476
629	957,076
629,4	947,476
629,9	939,048
630,3	925,876
630,7	927,39
631,2	925,619
631,6	918,876
632,1	914,219
632,5	913,505
633	908,419
633,4	907,305
633,8	899,619
634,3	887,476
634,7	879,105
635,2	867,019
635,6	857,819
636,1	855,905
636,5	843,476
636,9	838,39
637,4	834,048
637,8	825,676
638,3	818,048
638,7	811,448
639,2	797,819
639,6	798,905
640	791,476
640,5	788,219
640,9	787,505
641,4	784,905
641,8	783,676
642,2	783,219
642,7	779,905
643,1	779,505
643,6	774,905
644	768,105
644,5	766,019
644,9	757,619
645,3	749,933
645,8	739,19
646,2	734,276
646,7	727,505
647,1	722,219
647,6	718,819
648	716,105
648,4	708,419
648,9	711,876
649,3	703,248
649,8	697,848
650,2	699,362
650,6	695,133
651,1	686,19
651,5	687,162
652	677,048
652,4	670,562
652,9	667,733
653,3	656,105
653,7	647,162
654,2	642,448
654,6	635,733
655,1	638,248
655,5	639,39
655,9	633,448
656,4	634,362
656,8	633,79
657,3	631,276
657,7	634,476
658,2	623,99
658,6	619,19
659	614,133
659,5	604,39
659,9	600,076
660,4	601,933
660,8	594,133
661,2	589,59
661,7	586,733
662,1	583,619
662,6	583,562
663	578,133
663,4	569,162
663,9	563,533
664,3	558,248
664,8	551,162
665,2	546,648
665,6	541,276
666,1	540,562
666,5	534,705
667	530,533
667,4	526,305
667,9	526,676
668,3	522,676
668,7	520,39
669,2	516,762
669,6	516,419
670,1	516,505
670,5	515,448
670,9	511,076
671,4	507,933
671,8	505,505
672,3	504,676
672,7	497,905
673,1	488,419
673,6	483,819
674	481,99
674,5	479,333
674,9	473,076
675,3	467,419
675,8	466,076
676,2	461,619
676,7	456,819
677,1	450,505
677,5	443,99
678	441,819
678,4	440,305
678,9	438,048
679,3	439,362
679,7	439,048
680,2	430,19
680,6	429,305
681,1	425,162
681,5	422,476
681,9	421,162
682,4	414,762
682,8	412,362
683,3	418,305
683,7	418,248
684,1	418,362
684,6	412,762
685	406,362
685,5	406,219
685,9	401,362
686,3	395,876
686,8	389,848
687,2	389,505
687,7	383,248
688,1	379,59
688,5	377,562
689	375,848
689,4	372,676
689,9	371,162
690,3	362,876
690,7	365,905
691,2	363,076
691,6	358,905
692	359,59
692,5	354,362
692,9	352,219
693,4	349,562
693,8	345,305
694,2	347,505
694,7	344,219
695,1	335,79
695,6	335,619
696	335,276
696,4	333,933
696,9	326,676
697,3	319,162
697,8	318,705
698,2	312,876
698,6	314,305
699,1	308,162
699,5	308,076
699,9	308,19
700,4	307,048
700,8	305,362
701,3	309,933
701,7	300,019
702,1	297,648
702,6	292,162
703	293,762
703,5	293,048
703,9	288,162
704,3	286,076
704,8	285,676
705,2	285,362
705,6	287,533
706,1	282,59
706,5	276,362
707	276,733
707,4	273,19
707,8	269,419
708,3	267,876
708,7	265,562
709,2	265,819
709,6	266,105
710	268,162
710,5	267,933
710,9	271,19
711,3	270,848
711,8	267,505
712,2	261,619
712,7	260,905
713,1	258,019
713,5	257,876
714	253,105
714,4	246,133
714,8	247,933
715,3	244,733
715,7	243,019
716,2	235,962
716,6	231,219
717	228,905
717,5	226,676
717,9	223,733
718,3	222,276
718,8	222,076
719,2	223,105
719,7	221,019
720,1	221,276
720,5	226,019
721	218,248
721,4	220,305
721,8	222,59
722,3	219,876
722,7	221,333
723,2	217,533
723,6	209,162
724	207,79
724,5	204,448
724,9	197,39
725,3	195,476
725,8	189,39
726,2	187,105
726,7	188,076
727,1	191,99
727,5	193,133
728	192,505
728,4	188,848
728,8	187,305
729,3	187,419
729,7	184,762
730,1	178,705
730,6	178,048
731	172,419
731,5	173,762
731,9	172,733
732,3	173,219
732,8	175,819
733,2	174,848
733,6	173,505
734,1	178,79
734,5	176,905
734,9	179,705
735,4	182,19
735,8	176,333
736,3	178,876
736,7	176,533
737,1	175,105
737,6	170,933
738	170,476
738,4	164,505
738,9	165,476
739,3	160,676
739,7	157,105
740,2	153,133
740,6	159,79
741,1	161,362
741,5	156,305
741,9	158,105
742,4	161,19
742,8	164,019
743,2	163,248
743,7	156,333
744,1	149,905
744,5	152,819
745	147,876
745,4	143,79
745,8	140,248
746,3	138,619
746,7	139,99
747,2	137,619
747,6	140,59
748	141,476
748,5	143,362
748,9	139,505
749,3	140,619
749,8	139,276
750,2	139,505
750,6	136,505
751,1	137,733
751,5	137,219
751,9	141,19
752,4	142,619
752,8	141,99
753,3	141,733
753,7	144,419
754,1	141,105
754,6	136,762
755	136,79
755,4	136,848
755,9	138,248
756,3	137,076
756,7	130,076
757,2	129,248
757,6	130,076
758	127,905
758,5	121,048
758,9	119,419
759,3	121,105
759,8	126,248
760,2	125,733
760,6	124,905
761,1	122,648
761,5	123,676
761,9	121,505
762,4	118,562
762,8	114,933
763,3	111,819
763,7	111,819
764,1	111,362
764,6	112,762
765	115,59
765,4	117,105
765,9	117,733
766,3	120,19
766,7	118,333
767,2	119,133
767,6	120,79
768	120,076
768,5	116,133
768,9	115,076
769,3	113,219
769,8	112,276
770,2	112,219
770,6	104,962
771,1	104,162
771,5	101,819
771,9	103,248
772,4	105,962
772,8	105,19
773,2	103,99
773,7	106,848
774,1	104,705
774,5	103,076
775	97,705
775,4	94,733
775,8	92,733
776,3	93,248
776,7	90,019
777,1	89,848
777,6	93,219
778	95,133
778,4	95,333
778,9	96,39
779,3	95,762
779,7	97,505
780,2	97,705
780,6	98,105
781	94,19
781,5	92,619
781,9	93,162
782,3	90,476
782,8	93,39
783,2	93,848
783,6	94,876
784,1	96,476
784,5	96,333
784,9	95,333
785,4	97,019
785,8	95,905
786,2	92,448
786,7	91,162
787,1	88,648
787,5	88,962
788	89,39
788,4	90,248
788,8	85,962
789,3	83,305
789,7	81,933
790,1	81,276
790,6	82,333
791	75,876
791,4	76,133
791,9	71,448
792,3	72,076
792,7	75,962
793,2	75,048
793,6	70,305
794	71,79
794,5	68,162
794,9	74,59
795,3	76,59
795,8	71,476
796,2	70,219
796,6	72,448
797,1	75,305
797,5	70,676
797,9	65,533
798,4	60,076
798,8	57,533
799,2	58,419
799,7	57,848
800,1	55,648
800,5	60,39
801	65,362
801,4	65,048
801,8	64,619
802,2	65,79
802,7	60,419
803,1	61,505
803,5	57,648
804	54,505
804,4	55,676
804,8	57,219
805,3	57,419
805,7	61,762
806,1	61,219
806,6	65,705
807	67,105
807,4	68,79
807,9	64,362
808,3	64,162
808,7	65,962
809,2	68,333
809,6	63,762
810	59,048
810,4	56,39
810,9	59,219
811,3	60,933
811,7	58,448
812,2	62,762
812,6	63,562
813	66,276
813,5	66,419
813,9	66,105
814,3	59,248
814,8	57,105
815,2	47,019
815,6	50,019
816,1	53,676
816,5	54,562
816,9	54,048
817,3	56,276
817,8	62,619
818,2	63,248
818,6	54,705
819,1	49,733
819,5	44,105
819,9	41,733
820,4	41,476
820,8	37,419
821,2	38,105
821,7	44,962
822,1	43,676
822,5	52,019
822,9	53,248
823,4	54,533
823,8	56,905
824,2	60,819
824,7	57,076
825,1	54,305
825,5	47,39
826	45,333
826,4	46,619
826,8	44,533
827,3	42,419
827,7	41,333
828,1	42,848
828,5	43,533
829	44,048
829,4	39,733
829,8	29,733
830,3	28,019
830,7	32,105
831,1	34,105
831,6	36,448
832	37,99
832,4	40,133
832,8	44,133
833,3	39,305
833,7	32,962
834,1	30,619
834,6	30,419
835	30,39
835,4	29,248
835,8	27,905
836,3	29,99
836,7	34,848
837,1	37,162
837,6	35,962
838	35,362
838,4	36,048
838,9	36,076
839,3	36,648
839,7	35,905
840,1	32,105
840,6	29,59
841	27,848
841,4	25,276
841,9	28,39
842,3	25,505
842,7	25,362
843,1	27,248
843,6	32,048
844	35,39
844,4	35,248
844,9	32,933
845,3	31,19
845,7	25,619
846,2	24,076
846,6	18,676
847	15,419
847,4	16,962
847,9	19,248
848,3	21,219
848,7	26,648
849,2	30,048
849,6	27,248
850	30,619
850,4	30,905
850,9	32,219
851,3	36,105
851,7	34,019
852,2	29,905
852,6	39,762
853	36,676
853,4	35,162
853,9	30,705
854,3	30,476
854,7	29,076
855,2	28,19
855,6	22,105
856	21,99
856,4	20,876
856,9	21,105
857,3	17,905
857,7	22,562
858,2	26,133
858,6	27,933
859	27,79
859,4	28,448
859,9	26,105
860,3	24,933
860,7	22,19
861,1	22,305
861,6	18,533
862	20,619
862,4	18,076
862,9	22,276
863,3	22,762
863,7	20,876
864,1	19,819
864,6	21,305
865	20,162
865,4	21,419
865,9	20,476
866,3	20,162
866,7	20,39
867,1	20,648
867,6	19,933
868	15,733
868,4	14,19
868,8	12,533
869,3	9,39
869,7	10,933
870,1	3,762
870,6	1,276
871	6,419
871,4	11,819
871,8	7,99
872,3	13,79
872,7	12,076
873,1	17,505
873,5	18,619
874	15,048
874,4	11,105
874,8	12,962
875,3	13,876
875,7	11,676
876,1	14,019
876,5	15,076
877	12,705
877,4	10,99
877,8	16,362
878,2	18,162
878,7	21,162
879,1	19,733
879,5	22,476
879,9	27,276
880,4	30,39
880,8	28,362
881,2	23,39
881,7	20,419
882,1	19,505
882,5	13,962
882,9	9,648
883,4	6,876
883,8	8,305
884,2	7,39
884,6	10,39
885,1	9,676
885,5	14,476
885,9	17,019
886,3	21,276
886,8	19,705
887,2	20,248
887,6	20,99
888	20,876
888,5	17,248
888,9	16,276
889,3	11,133
889,8	12,333
890,2	12,39
890,6	7,733
891	7,048
891,5	9,448
891,9	9,133
892,3	16,19
892,7	16,59
893,2	17,676
893,6	19,533
894	19,733
894,4	17,048
894,9	14,933
895,3	9,505
895,7	11,762
896,1	10,133
896,6	9,19
897	14,076
897,4	18,219
897,8	22,219
898,3	23,99
898,7	15,39
899,1	11,962
899,5	11,248
900	4,762
900,4	1,819
900,8	-4,267
901,2	-6,838
901,7	-4,724
902,1	-2,095
902,5	3,333
902,9	5,362
903,4	5,819
903,8	11,762
904,2	10,276
904,6	12,848
905,1	16,133
905,5	13,162
905,9	13,676
906,3	17,39
906,8	21,105
907,2	25,305
907,6	23,419
908	24,076
908,5	22,248
908,9	18,39
909,3	14,762
909,7	12,419
910,2	8,848
910,6	13,333
911	8,562
911,4	9,248
911,9	9,648
912,3	7,533
912,7	8,276
913,1	12,648
913,6	6,248
914	10,39
914,4	8,933
914,8	8,59
915,3	9,419
915,7	6,19
916,1	0,333
916,5	0,562
916,9	-2,781
917,4	-3,638
917,8	-3,952
918,2	-9,781
918,6	-12,01
919,1	-10,352
919,5	-7,867
919,9	-8,81
920,3	-9,867
920,8	-9,695
921,2	-2,695
921,6	-1,124
922	-1,724
922,5	-4,238
922,9	0,39
923,3	0,276
923,7	3,105
924,2	-1,181
924,6	-1,095
925	3,276
925,4	3,848
925,8	1,733
926,3	6,476
926,7	6,276
927,1	8,619
927,5	6,705
928	1,933
928,4	0,333
928,8	2,648
929,2	-2,61
929,7	-1,41
930,1	2,105
930,5	5,962
930,9	9,305
931,3	14,048
931,8	15,362
932,2	19,048
932,6	12,676
933	1,533
933,5	-0,695
933,9	-0,381
934,3	-0,495
934,7	-6,095
935,2	-6,581
935,6	0,39
936	8,562
936,4	7,305
936,8	5,562
937,3	1,19
937,7	4,248
938,1	8,562
938,5	-0,181
939	-4,524
939,4	-1,552
939,8	-2,267
940,2	1,59
940,6	1,476
941,1	-3,924
941,5	4,419
941,9	6,562
942,3	4,962
942,8	5,448
943,2	2,076
943,6	1,79
944	4,19
944,4	3,648
944,9	3,762
945,3	2,048
945,7	-1,752
946,1	0,362
946,6	-3,524
947	-4,952
947,4	-3,238
947,8	-2,524
948,2	-3,324
948,7	0,533
949,1	-1,152
949,5	5,476
949,9	6,133
950,3	2,362
950,8	0,819
951,2	1,59
951,6	-1,581
952	4,19
952,5	-4,924
952,9	-6,467
953,3	-5,124
953,7	-3,038
954,1	-1,695
954,6	3,676
955	-0,181
955,4	2,59
955,8	6,648
956,2	7,848
956,7	7,133
957,1	6,019
957,5	5,619
957,9	5,619
958,3	6,676
958,8	2,905
959,2	4,99
959,6	7,99
960	7,419
960,5	8,533
960,9	7,762
961,3	6,733
961,7	8,048
962,1	2,876
962,6	0,905
963	1,619
963,4	-3,695
963,8	-1,495
964,2	0,019
964,7	1,076
965,1	3,19
965,5	3,105
965,9	1,705
966,3	6,505
966,8	6,276
967,2	6,362
967,6	2,276
968	-2,267
968,4	1,133
968,9	5,076
969,3	6,105
969,7	4,39
970,1	5,305
970,5	9,505
971	17,162
971,4	13,848
971,8	12,419
972,2	10,476
972,6	8,333
973,1	8,19
973,5	6,019
973,9	4,676
974,3	5,905
974,7	8,905
975,2	8,276
975,6	9,19
976	10,305
976,4	7,276
976,8	6,533
977,3	2,848
977,7	-1,01
978,1	-4,724
978,5	-5,038
978,9	-10,067
979,4	-6,867
979,8	-9,267
980,2	-5,095
980,6	-7,667
981	-1,21
981,5	0,19
981,9	0,876
982,3	2,876
982,7	5,133
983,1	0,133
983,6	3,133
984	-2,467
984,4	-0,695
984,8	-0,581
985,2	-1,895
985,6	-8,867
986,1	-5,267
986,5	-6,152
986,9	-7,981
987,3	-7,01
987,7	-5,067
988,2	-8,324
988,6	-1,495
989	0,419
989,4	-1,467
989,8	2,876
990,3	-1,524
990,7	-3,781
991,1	0,705
991,5	1,962
991,9	0,219
992,3	5,933
992,8	10,048
993,2	11,448
993,6	13,39
994	14,762
994,4	14,676
994,9	17,562
995,3	13,162
995,7	10,562
996,1	14,619
996,5	16,276
996,9	9,705
997,4	9,705
997,8	2,362
998,2	2,905
998,6	-5,924
999	-9,552
999,5	-13,038
999,9	-8,295
1000,3	-11,552
1000,7	-6,467
1001,1	-4,895
1001,5	6,848
1002	9,59
1002,4	16,219
1002,8	14,219
1003,2	14,048
1003,6	14,99
1004	20,448
1004,5	13,248
1004,9	12,048
1005,3	4,448
1005,7	7,39
1006,1	6,19
1006,6	4,333
1007	-1,924
1007,4	-1,838
1007,8	-3,152
1008,2	-2,924
1008,6	-3,895
1009,1	-1,952
1009,5	0,505
1009,9	3,305
1010,3	6,905
1010,7	7,79
1011,1	11,333
1011,6	12,705
1012	16,819
1012,4	14,333
1012,8	10,876
1013,2	12,476
1013,6	11,619
1014,1	11,819
1014,5	11,79
1014,9	3,505
1015,3	2,905
1015,7	5,076
1016,1	2,133
1016,6	2,562
1017	3,048
1017,4	-1,41
1017,8	4,133
1018,2	6,876
1018,6	1,99
1019,1	-0,038
1019,5	0,39
1019,9	-1,238
1020,3	0,762
1020,7	1,505
1021,1	-3,352
1021,6	3,876
1022	8,248
1022,4	7,533
1022,8	7,505
1023,2	7,076
1023,6	1,476
1024,1	13,619
1024,5	11,476
1024,9	4,933
1025,3	3,99
1025,7	5,076
1026,1	7,562
1026,6	9,133
1027	-1,695
1027,4	-3,552
1027,8	-0,867
1028,2	-4,524
1028,6	-2,495
1029	-4,695
1029,5	1,048
1029,9	0,305
1030,3	-5,238
1030,7	-5,552
1031,1	-0,124
1031,5	-3,067
1032	-3,895
1032,4	-7,438
1032,8	-4,838
1033,2	0,419
1033,6	0,39
1034	-0,552
1034,4	-3,238
1034,9	-1,324
1035,3	-1,724
1035,7	-2,067
1036,1	-7,838
1036,5	-10,867
1036,9	-12,924
1037,4	-6,495
1037,8	-12,638
1038,2	-11,152
1038,6	-12,438
1039	-4,067
1039,4	2,162
1039,8	-0,667
1040,3	-0,724
1040,7	1,79
1041,1	-0,21
1041,5	-1,667
1041,9	-2,238
1042,3	-4,41
1042,7	3,848
1043,2	1,476
1043,6	-0,095
1044	-0,495
1044,4	4,333
1044,8	2,762
1045,2	2,905
1045,6	-0,267
1046,1	-4,695
1046,5	-1,61
1046,9	-2,81
1047,3	-4,267
1047,7	-8,467
1048,1	-11,895
1048,5	-11,781
1049	-10,638
1049,4	-8,667
1049,8	-7,438
1050,2	-7,152
1050,6	1,705
1051	6,162
1051,4	8,105
1051,9	5,562
1052,3	13,305
1052,7	16,248
1053,1	12,79
1053,5	12,648
1053,9	11,333
1054,3	9,219
1054,8	22,219
1055,2	14,619
1055,6	14,505
1056	12,676
1056,4	4,876
1056,8	3,019
1057,2	3,762
1057,6	-5,752
1058,1	-5,495
1058,5	-8,352
1058,9	-3,695
1059,3	3,19
1059,7	4,933
1060,1	7,419
1060,5	10,705
1061	9,905
1061,4	9,819
1061,8	8,562
1062,2	3,848
1062,6	7,962
1063	6,19
1063,4	1,876
1063,8	0,333
1064,3	-0,152
1064,7	0,162
1065,1	1,076
1065,5	-4,552
1065,9	-7,638
1066,3	-5,324
1066,7	-9,324
1067,1	-11,152
1067,6	-5,524
1068	-9,352
1068,4	-8,352
1068,8	-1,981
1069,2	-3,467
1069,6	-1,067
1070	4,676
1070,4	-1,295
1070,9	-0,067
1071,3	0,076
1071,7	-4,267
1072,1	-3,067
1072,5	-1,324
1072,9	-3,524
1073,3	-1,667
1073,7	2,505
1074,2	3,848
1074,6	3,505
1075	5,848
1075,4	7,333
1075,8	8,962
1076,2	6,79
1076,6	6,448
1077	8,676
1077,5	13,733
1077,9	10,476
1078,3	11,59
1078,7	8,848
1079,1	10,248
1079,5	7,305
1079,9	7,076
1080,3	0,905
1080,7	-1,01
1081,2	2,076
1081,6	0,619
1082	-4,667
1082,4	1,533
1082,8	-1,295
1083,2	-0,41
1083,6	3,79
1084	-2,552
1084,5	-2,381
1084,9	1,219
1085,3	-4,895
1085,7	-0,724
1086,1	-1,267
1086,5	-1,238
1086,9	4,79
1087,3	8,19
1087,7	8,933
1088,2	11,648
1088,6	7,048
1089	9,505
1089,4	9,105
1089,8	3,076
1090,2	-2,01
1090,6	-0,895
1091	-1,552
1091,4	1,19
1091,9	-3,895
1092,3	-3,238
1092,7	-5,581
1093,1	-2,867
1093,5	-4,038
1093,9	-4,781
1094,3	-3,752
1094,7	-2,181
1095,1	-0,981
1095,5	1,733
1096	0,133
1096,4	0,562
1096,8	0,505
1097,2	-1,038
1097,6	5,619
1098	2,676
1098,4	6,705
1098,8	10,476
1099,2	17,676
1099,6	17,819
1100,1	13,419
1100,5	6,305
1100,9	6,962
1101,3	4,648
1101,7	1,505
1102,1	-4,781
1102,5	-4,095
1102,9	0,733
1103,3	4,59
1103,7	4,419
1104,2	2,619
1104,6	-0,495
1105	-2,781
1105,4	-2,524
1105,8	-4,61
1106,2	-6,838
1106,6	-7,124
1107	-6,038
1107,4	-1,633
1107,8	0,573
1108,3	-0,767
