Data from Subt2_003.txt Node
Date: Sat Aug 26 16:10:19 MSK 2023
User: vat
Spectrometer: MAYP114033
Trigger mode: 0
Integration Time (sec): 1,000000E0
Scans to average: 5
Electric dark correction enabled: true
Nonlinearity correction enabled: false
Boxcar width: 3
XAxis mode: Wavelengths
Number of Pixels in Spectrum: 2068
>>>>>Begin Spectral Data<<<<<
199,4	-1,033
199,9	0,647
200,4	0,833
200,8	-0,49
201,3	-0,376
201,8	0,224
202,2	-1,348
202,7	-1,233
203,2	-0,148
203,6	4,452
204,1	6,624
204,6	5,681
205	7,195
205,5	8,652
206	7,795
206,4	0,367
206,9	-4,176
207,4	-4,662
207,8	-1,519
208,3	-4,262
208,8	-2,29
209,2	-0,033
209,7	5,081
210,2	5,081
210,6	3,852
211,1	6,538
211,5	5,852
212	7,395
212,5	6,31
212,9	11,395
213,4	10,338
213,9	12,11
214,3	6,224
214,8	10,91
215,3	10,338
215,7	13,481
216,2	9,938
216,7	10,71
217,1	9,852
217,6	6,252
218,1	0,995
218,5	-2,948
219	-10,433
219,5	-6,748
219,9	-5,605
220,4	-3,433
220,9	-1,719
221,3	2,767
221,8	1,367
222,3	9,481
222,7	5,567
223,2	6,452
223,6	5,567
224,1	8,681
224,6	6,052
225	11,31
225,5	10,195
226	9,195
226,4	9,738
226,9	11,081
227,4	12,31
227,8	14,738
228,3	14,51
228,8	15,395
229,2	15,595
229,7	10,91
230,2	9,138
230,6	8,452
231,1	10,995
231,5	14,338
232	11,881
232,5	12,738
232,9	17,738
233,4	17,738
233,9	18,567
234,3	12,71
234,8	8,224
235,3	11,338
235,7	8,224
236,2	3,595
236,7	1,995
237,1	-1,033
237,6	0,824
238,1	-1,49
238,5	-3,633
239	4,167
239,4	9,31
239,9	5,31
240,4	9,081
240,8	7,652
241,3	10,31
241,8	4,795
242,2	0,824
242,7	1,481
243,2	7,052
243,6	5,424
244,1	1,624
244,6	0,395
245	-0,662
245,5	-1,319
245,9	-2,29
246,4	-0,69
246,9	-1,148
247,3	3,11
247,8	5,824
248,3	8,395
248,7	9,195
249,2	4,995
249,7	5,681
250,1	7,024
250,6	6,938
251	3,424
251,5	8,681
252	7,567
252,4	12,024
252,9	5,767
253,4	6,252
253,8	5,852
254,3	5,252
254,8	1,738
255,2	-0,376
255,7	-6,09
256,1	-0,033
256,6	-2,662
257,1	-0,348
257,5	-1,576
258	-0,376
258,5	0,995
258,9	1,31
259,4	-3,262
259,9	-0,919
260,3	-1,29
260,8	3,824
261,2	3,195
261,7	1,91
262,2	5,795
262,6	7,081
263,1	4,595
263,6	3,538
264	0,624
264,5	4,081
264,9	7,452
265,4	5,567
265,9	8,081
266,3	10,567
266,8	11,224
267,3	10,338
267,7	8,195
268,2	6,652
268,7	7,681
269,1	5,195
269,6	0,167
270	-0,948
270,5	-0,319
271	-1,176
271,4	-0,29
271,9	1,252
272,4	-0,062
272,8	9,71
273,3	9,338
273,7	11,681
274,2	8,938
274,7	9,11
275,1	8,624
275,6	8,624
276,1	6,31
276,5	6,138
277	2,71
277,4	5,167
277,9	5,281
278,4	4,452
278,8	7,995
279,3	5,424
279,8	7,11
280,2	10,367
280,7	10,824
281,1	9,71
281,6	9,052
282,1	6,481
282,5	4,652
283	9,138
283,4	4,395
283,9	3,538
284,4	3,167
284,8	3,367
285,3	3,538
285,8	5,138
286,2	-4,49
286,7	-6,005
287,1	-3,376
287,6	-5,29
288,1	-6,119
288,5	-3,119
289	-3,948
289,5	2,281
289,9	6,881
290,4	2,395
290,8	5,881
291,3	5,652
291,8	4,681
292,2	10,624
292,7	8,081
293,1	12,967
293,6	18,224
294,1	17,224
294,5	16,767
295	13,167
295,5	4,424
295,9	3,138
296,4	-4,033
296,8	-2,633
297,3	-2,719
297,8	-5,319
298,2	-3,09
298,7	2,51
299,1	5,624
299,6	9,71
300,1	4,052
300,5	7,138
301	7,795
301,5	10,938
301,9	10,681
302,4	11,11
302,8	12,081
303,3	11,938
303,8	8,367
304,2	15,395
304,7	13,338
305,1	9,881
305,6	8,481
306,1	5,595
306,5	5,338
307	2,195
307,4	-2,948
307,9	-1,033
308,4	-2,119
308,8	3,681
309,3	3,852
309,8	10,195
310,2	10,767
310,7	12,824
311,1	11,681
311,6	11,081
312,1	5,881
312,5	5,31
313	2,395
313,4	5,167
313,9	1,31
314,4	3,71
314,8	8,052
315,3	7,567
315,7	10,567
316,2	11,31
316,7	9,91
317,1	16,51
317,6	15,052
318	13,024
318,5	13,738
319	12,538
319,4	6,881
319,9	3,31
320,3	1,195
320,8	1,052
321,3	0,824
321,7	-1,49
322,2	-2,919
322,6	0,881
323,1	5,367
323,6	6,395
324	1,081
324,5	2,91
324,9	6,424
325,4	7,91
325,9	6,738
326,3	4,081
326,8	0,052
327,2	2,51
327,7	-3,348
328,2	-9,033
328,6	-7,548
329,1	-5,433
329,5	0,281
330	-0,89
330,5	2,767
330,9	7,967
331,4	13,138
331,8	12,595
332,3	10,081
332,8	6,024
333,2	5,252
333,7	4,824
334,1	1,91
334,6	1,424
335,1	-5,005
335,5	-6,433
336	-7,89
336,4	-2,119
336,9	-5,233
337,4	-0,833
337,8	2,738
338,3	3,795
338,7	9,51
339,2	8,31
339,7	7,424
340,1	10,252
340,6	4,281
341	-1,833
341,5	2,481
342	1,995
342,4	10,31
342,9	11,595
343,3	10,51
343,8	14,795
344,2	16,252
344,7	14,681
345,2	16,081
345,6	9,681
346,1	4,738
346,5	2,338
347	3,224
347,5	1,167
347,9	5,195
348,4	1,052
348,8	3,767
349,3	7,652
349,8	10,538
350,2	12,338
350,7	21,71
351,1	20,395
351,6	26,395
352	33,538
352,5	41,652
353	49,967
353,4	57,738
353,9	61,481
354,3	84,481
354,8	100,738
355,3	119,71
355,7	138,995
356,2	166,938
356,6	197,995
357,1	235,338
357,5	269,51
358	316,995
358,5	369,967
358,9	435,71
359,4	502,51
359,8	579,452
360,3	668,71
360,8	761,767
361,2	868,252
361,7	987,395
362,1	1116,681
362,6	1261,424
363	1413,624
363,5	1575,395
364	1751,538
364,4	1924,195
364,9	2099,31
365,3	2271,481
365,8	2433,795
366,3	2593,281
366,7	2734,567
367,2	2853,338
367,6	2957,338
368,1	3032,738
368,5	3075,967
369	3101,195
369,5	3095,681
369,9	3069,167
370,4	3014,052
370,8	2938,767
371,3	2853,91
371,7	2757,167
372,2	2640,424
372,7	2515,91
373,1	2383,224
373,6	2247,852
374	2115,624
374,5	1975,681
374,9	1836,367
375,4	1713,195
375,9	1585,081
376,3	1463,138
376,8	1351,595
377,2	1239,167
377,7	1138,452
378,2	1048,138
378,6	955,481
379,1	881,71
379,5	809,738
380	743,224
380,4	684,167
380,9	627,024
381,4	572,567
381,8	520,681
382,3	475,252
382,7	438,538
383,2	407,338
383,6	377,224
384,1	351,481
384,6	328,595
385	311,538
385,5	290,852
385,9	270,252
386,4	248,31
386,8	226,824
387,3	211,024
387,7	195,938
388,2	178,567
388,7	165,424
389,1	153,51
389,6	146,138
390	139,995
390,5	133,452
390,9	126,31
391,4	119,481
391,9	113,11
392,3	105,852
392,8	96,652
393,2	87,31
393,7	75,481
394,1	70,767
394,6	67,538
395,1	60,224
395,5	58,71
396	55,452
396,4	53,91
396,9	51,767
397,3	50,624
397,8	49,024
398,2	47,967
398,7	41,052
399,2	42,881
399,6	38,252
400,1	39,938
400,5	37,424
401	34,652
401,4	34,167
401,9	41,767
402,4	39,852
402,8	43,91
403,3	42,967
403,7	47,824
404,2	54,967
404,6	57,024
405,1	56,224
405,5	60,824
406	58,624
406,5	63,681
406,9	64,767
407,4	60,71
407,8	65,51
408,3	66,138
408,7	67,652
409,2	80,481
409,6	83,967
410,1	85,624
410,6	93,338
411	98,595
411,5	103,795
411,9	113,652
412,4	120,138
412,8	124,481
413,3	132,167
413,7	136,052
414,2	147,681
414,7	157,624
415,1	157,31
415,6	164,967
416	176,11
416,5	188,681
416,9	201,91
417,4	206,595
417,8	216,824
418,3	237,91
418,8	249,224
419,2	262,738
419,7	271,795
420,1	287,224
420,6	306,681
421	319,195
421,5	326,395
421,9	336,167
422,4	346,395
422,8	363,824
423,3	378,338
423,8	391,481
424,2	408,224
424,7	429,31
425,1	449,995
425,6	470,024
426	492,595
426,5	520,167
426,9	542,652
427,4	572,995
427,9	599,167
428,3	632,424
428,8	668,538
429,2	700,224
429,7	731,681
430,1	768,224
430,6	802,681
431	841,881
431,5	879,71
431,9	919,481
432,4	962,252
432,8	1005,281
433,3	1046,967
433,8	1096,367
434,2	1144,824
434,7	1200,395
435,1	1266,31
435,6	1326,538
436	1390,852
436,5	1463,024
436,9	1531,452
437,4	1605,567
437,8	1678,481
438,3	1750,738
438,8	1832,281
439,2	1912,567
439,7	1997,11
440,1	2081,31
440,6	2171,881
441	2266,91
441,5	2358,681
441,9	2459,367
442,4	2562,081
442,8	2677,281
443,3	2794,138
443,7	2910,11
444,2	3023,681
444,7	3148,852
445,1	3273,71
445,6	3410,395
446	3531,938
446,5	3668,824
446,9	3810,481
447,4	3954,767
447,8	4100,852
448,3	4244,481
448,7	4390,167
449,2	4551,995
449,6	4702,024
450,1	4862,081
450,6	5032,195
451	5196,081
451,5	5378,424
451,9	5566,967
452,4	5746,881
452,8	5942,395
453,3	6135,595
453,7	6326,252
454,2	6531,51
454,6	6730,367
455,1	6921,195
455,5	7121,081
456	7321,081
456,4	7524,624
456,9	7738,367
457,3	7950,395
457,8	8162,738
458,3	8381,51
458,7	8606,938
459,2	8830,852
459,6	9058,767
460,1	9286,281
460,5	9512,967
461	9747,081
461,4	9986,452
461,9	10227,424
462,3	10465,824
462,8	10702,995
463,2	10939,824
463,7	11183,738
464,1	11414,852
464,6	11640,624
465	11866,167
465,5	12097,281
466	12332,395
466,4	12563,167
466,9	12782,51
467,3	13019,138
467,8	13270,624
468,2	13506,167
468,7	13744,424
469,1	13972,338
469,6	14199,252
470	14434,31
470,5	14660,081
470,9	14871,11
471,4	15093,51
471,8	15310,195
472,3	15530,51
472,7	15746,681
473,2	15961,481
473,6	16165,71
474,1	16365,881
474,5	16568,338
475	16764,824
475,4	16953,052
475,9	17134,938
476,4	17316,938
476,8	17494,424
477,3	17658,995
477,7	17825,338
478,2	17979,195
478,6	18134,224
479,1	18293,71
479,5	18430,481
480	18569,595
480,4	18713,167
480,9	18829,91
481,3	18961,424
481,8	19080,91
482,2	19181,567
482,7	19294,081
483,1	19406,681
483,6	19487,281
484	19573,938
484,5	19646,881
484,9	19723,481
485,4	19791,595
485,8	19845,652
486,3	19880,738
486,7	19943,395
487,2	19981,195
487,6	20016,424
488,1	20040,852
488,5	20067,652
489	20081,395
489,4	20096,795
489,9	20094,595
490,4	20099,967
490,8	20094,138
491,3	20082,995
491,7	20061,138
492,2	20039,31
492,6	20013,51
493,1	19972,681
493,5	19930,767
494	19881,338
494,4	19819,824
494,9	19761,424
495,3	19702,252
495,8	19634,481
496,2	19581,052
496,7	19502,31
497,1	19432,824
497,6	19356,767
498	19279,481
498,5	19193,31
498,9	19095,195
499,4	18995,595
499,8	18918,424
500,3	18819,881
500,7	18721,767
501,2	18616,824
501,6	18514,967
502,1	18420,452
502,5	18318,71
503	18209,538
503,4	18100,852
503,9	17990,995
504,3	17875,31
504,8	17759,138
505,2	17639,224
505,7	17520,995
506,1	17388,367
506,6	17248,252
507	17127,767
507,5	16995,195
507,9	16854,767
508,4	16714,967
508,8	16564,024
509,3	16431,452
509,7	16313,71
510,2	16165,167
510,6	16033,795
511,1	15898,681
511,5	15760,167
512	15614,738
512,4	15463,052
512,9	15297,681
513,3	15152,824
513,8	15002,281
514,2	14858,51
514,7	14703,167
515,1	14570,938
515,6	14420,567
516	14281,11
516,5	14136,881
516,9	13987,167
517,4	13845,024
517,8	13706,738
518,3	13564,052
518,7	13427,538
519,2	13287,624
519,6	13141,195
520,1	13011,938
520,5	12863,71
521	12728,081
521,4	12587,252
521,9	12448,252
522,3	12321,624
522,8	12191,481
523,2	12048,938
523,7	11922,567
524,1	11790,51
524,6	11649,081
525	11518,481
525,5	11378,052
525,9	11242,595
526,4	11112,824
526,8	10985,852
527,3	10867,31
527,7	10757,595
528,2	10644,481
528,6	10540,91
529,1	10423,71
529,5	10318,31
530	10204,367
530,4	10087,224
530,9	9961,738
531,3	9844,652
531,8	9720,452
532,2	9619,538
532,6	9509,081
533,1	9402,281
533,5	9293,795
534	9211,252
534,4	9115,11
534,9	9021,024
535,3	8919,595
535,8	8822,224
536,2	8729,681
536,7	8642,795
537,1	8542,567
537,6	8455,738
538	8361,652
538,5	8274,824
538,9	8186,995
539,4	8095,452
539,8	8008,452
540,3	7922,281
540,7	7832,395
541,2	7755,195
541,6	7666,395
542,1	7585,738
542,5	7511,681
543	7427,081
543,4	7346,624
543,9	7275,252
544,3	7196,738
544,8	7132,081
545,2	7062,424
545,7	6994,938
546,1	6934,51
546,5	6870,138
547	6797,052
547,4	6728,652
547,9	6657,51
548,3	6589,624
548,8	6513,195
549,2	6444,567
549,7	6377,167
550,1	6323,081
550,6	6265,367
551	6214,395
551,5	6155,681
551,9	6110,624
552,4	6050,11
552,8	6002,652
553,3	5942,738
553,7	5890,024
554,2	5835,424
554,6	5790,424
555,1	5726,881
555,5	5683,338
555,9	5635,71
556,4	5591,252
556,8	5543,824
557,3	5493,681
557,7	5447,224
558,2	5408,424
558,6	5360,767
559,1	5309,252
559,5	5264,281
560	5227,395
560,4	5185,11
560,9	5145,195
561,3	5106,138
561,8	5070,138
562,2	5030,824
562,7	4992,195
563,1	4950,652
563,6	4919,024
564	4878,452
564,4	4841,995
564,9	4801,281
565,3	4770,081
565,8	4736,91
566,2	4702,71
566,7	4657,481
567,1	4624,538
567,6	4584,281
568	4547,967
568,5	4509,224
568,9	4471,567
569,4	4435,595
569,8	4405,91
570,3	4362,481
570,7	4338,195
571,1	4313,538
571,6	4283,081
572	4252,281
572,5	4221,052
572,9	4193,31
573,4	4168,767
573,8	4135,195
574,3	4107,91
574,7	4083,938
575,2	4057,167
575,6	4029,424
576,1	4006,967
576,5	3979,538
576,9	3955,31
577,4	3926,795
577,8	3895,081
578,3	3873,767
578,7	3842,367
579,2	3810,167
579,6	3787,538
580,1	3762,767
580,5	3735,224
581	3710,881
581,4	3682,967
581,9	3656,567
582,3	3627,452
582,7	3600,052
583,2	3565,852
583,6	3542,195
584,1	3516,51
584,5	3486,11
585	3469,967
585,4	3449,281
585,9	3428,652
586,3	3412,481
586,8	3392,224
587,2	3367,31
587,6	3347,31
588,1	3327,052
588,5	3308,338
589	3280,567
589,4	3256,252
589,9	3235,595
590,3	3222,795
590,8	3201,681
591,2	3179,938
591,7	3160,767
592,1	3149,424
592,5	3133,081
593	3105,081
593,4	3084,51
593,9	3069,881
594,3	3051,995
594,8	3030,538
595,2	3011,881
595,7	2996,195
596,1	2989,138
596,6	2975,738
597	2962,167
597,4	2946,595
597,9	2929,938
598,3	2918,024
598,8	2902,424
599,2	2884,481
599,7	2869,567
600,1	2843,452
600,6	2828,538
601	2822,967
601,4	2807,081
601,9	2785,281
602,3	2767,938
602,8	2748,595
603,2	2744,481
603,7	2730,31
604,1	2706,11
604,6	2688,424
605	2678,11
605,4	2661,595
605,9	2650,167
606,3	2630,31
606,8	2615,167
607,2	2610,595
607,7	2598,338
608,1	2586,967
608,6	2578,995
609	2559,767
609,4	2544,138
609,9	2533,881
610,3	2515,11
610,8	2499,195
611,2	2484,824
611,7	2466,995
612,1	2452,767
612,6	2441,795
613	2422,195
613,4	2404,881
613,9	2392,624
614,3	2375,767
614,8	2363,367
615,2	2351,367
615,7	2333,681
616,1	2315,738
616,6	2303,795
617	2286,31
617,4	2270,938
617,9	2257,767
618,3	2242,481
618,8	2228,367
619,2	2218,395
619,7	2207,795
620,1	2193,081
620,5	2177,195
621	2159,281
621,4	2148,452
621,9	2137,052
622,3	2127,052
622,8	2111,51
623,2	2099,51
623,6	2092,252
624,1	2080,595
624,5	2065,31
625	2056,281
625,4	2041,452
625,9	2024,51
626,3	2009,395
626,8	1998,024
627,2	1982,71
627,6	1970,195
628,1	1955,138
628,5	1942,738
629	1930,51
629,4	1922,824
629,9	1910,938
630,3	1900,452
630,7	1886,138
631,2	1870,71
631,6	1855,995
632,1	1842,481
632,5	1829,281
633	1814,995
633,4	1805,967
633,8	1795,452
634,3	1775,51
634,7	1763,195
635,2	1755,51
635,6	1743,795
636,1	1730,538
636,5	1715,11
636,9	1702,252
637,4	1697,91
637,8	1691,681
638,3	1676,824
638,7	1664,595
639,2	1651,538
639,6	1642,852
640	1639,567
640,5	1631,681
640,9	1619,795
641,4	1608,91
641,8	1599,224
642,2	1593,31
642,7	1588,967
643,1	1573,852
643,6	1565,738
644	1553,024
644,5	1546,11
644,9	1540,795
645,3	1529,824
645,8	1515,681
646,2	1507,452
646,7	1500,567
647,1	1492,967
647,6	1485,624
648	1470,252
648,4	1462,624
648,9	1458,224
649,3	1448,424
649,8	1432,595
650,2	1425,852
650,6	1417,281
651,1	1417,167
651,5	1402,624
652	1390,681
652,4	1382,767
652,9	1381,138
653,3	1367,881
653,7	1361,624
654,2	1349,624
654,6	1344,081
655,1	1330,738
655,5	1321,31
655,9	1306,681
656,4	1302,71
656,8	1293,167
657,3	1280,567
657,7	1272,652
658,2	1269,881
658,6	1262,052
659	1256,395
659,5	1241,71
659,9	1231,967
660,4	1227,11
660,8	1220,31
661,2	1205,252
661,7	1196,995
662,1	1189,71
662,6	1183,595
663	1176,367
663,4	1167,395
663,9	1159,281
664,3	1157,31
664,8	1150,71
665,2	1139,595
665,6	1135,938
666,1	1129,538
666,5	1117,91
667	1108,11
667,4	1100,252
667,9	1086,138
668,3	1081,052
668,7	1071,31
669,2	1059,567
669,6	1056,51
670,1	1051,395
670,5	1037,052
670,9	1030,852
671,4	1024,881
671,8	1016,052
672,3	1012,11
672,7	1003,138
673,1	991,51
673,6	988,51
674	983,367
674,5	973,138
674,9	969,824
675,3	959,595
675,8	951,967
676,2	949,881
676,7	942,481
677,1	932,424
677,5	924,71
678	914,567
678,4	906,738
678,9	901,338
679,3	890,252
679,7	887,052
680,2	882,881
680,6	876,338
681,1	873,738
681,5	868,252
681,9	861,624
682,4	856,081
682,8	847,424
683,3	843,51
683,7	840,367
684,1	833,795
684,6	828,11
685	822,31
685,5	820,71
685,9	814,824
686,3	806,11
686,8	797,595
687,2	794,538
687,7	789,595
688,1	780,652
688,5	773,081
689	768,481
689,4	764,367
689,9	765,11
690,3	754,538
690,7	747,224
691,2	745,681
691,6	738,567
692	733,795
692,5	728,995
692,9	715,224
693,4	711,252
693,8	705,252
694,2	702,052
694,7	701,452
695,1	692,624
695,6	688,395
696	688,652
696,4	681,738
696,9	684,052
697,3	673,852
697,8	671,967
698,2	669,252
698,6	666,167
699,1	662,538
699,5	658,824
699,9	655,081
700,4	653,367
700,8	645,224
701,3	638,881
701,7	630,91
702,1	624,71
702,6	619,824
703	609,081
703,5	604,567
703,9	598,367
704,3	594,51
704,8	589,852
705,2	585,538
705,6	577,11
706,1	575,595
706,5	571,567
707	567,652
707,4	563,995
707,8	561,567
708,3	553,51
708,7	552,424
709,2	545,138
709,6	543,424
710	541,71
710,5	539,11
710,9	537,767
711,3	534,395
711,8	536,167
712,2	536,167
712,7	527,367
713,1	521,795
713,5	517,91
714	512,195
714,4	506,51
714,8	498,081
715,3	494,481
715,7	489,081
716,2	481,995
716,6	475,852
717	467,11
717,5	465,052
717,9	462,052
718,3	454,224
718,8	454,081
719,2	449,452
719,7	451,395
720,1	449,052
720,5	448,767
721	443,167
721,4	438,224
721,8	435,024
722,3	434,11
722,7	424,595
723,2	420,567
723,6	415,681
724	413,51
724,5	407,681
724,9	399,51
725,3	394,795
725,8	391,938
726,2	391,138
726,7	388,081
727,1	384,881
727,5	384,652
728	380,252
728,4	377,138
728,8	373,738
729,3	374,681
729,7	369,681
730,1	371,31
730,6	368,767
731	369,024
731,5	372,052
731,9	373,595
732,3	364,395
732,8	365,11
733,2	360,595
733,6	360,138
734,1	361,681
734,5	352,11
734,9	347,767
735,4	344,738
735,8	336,167
736,3	331,138
736,7	332,624
737,1	330,195
737,6	329,024
738	326,881
738,4	328,367
738,9	336,995
739,3	336,338
739,7	333,167
740,2	333,91
740,6	334,967
741,1	333,252
741,5	328,738
741,9	318,795
742,4	314,281
742,8	307,167
743,2	300,224
743,7	300,567
744,1	300,938
744,5	300,967
745	307,195
745,4	306,424
745,8	309,224
746,3	309,024
746,7	306,681
747,2	295,938
747,6	296,138
748	288,51
748,5	284,51
748,9	282,224
749,3	280,624
749,8	276,281
750,2	276,652
750,6	277,967
751,1	277,281
751,5	279,252
751,9	275,995
752,4	272,195
752,8	267,024
753,3	269,195
753,7	264,967
754,1	261,538
754,6	260,167
755	261,138
755,4	256,51
755,9	262,024
756,3	261,367
756,7	263,624
757,2	265,824
757,6	262,824
758	257,195
758,5	262,481
758,9	256,824
759,3	253,338
759,8	245,881
760,2	243,138
760,6	239,881
761,1	237,081
761,5	233,51
761,9	228,852
762,4	227,824
762,8	228,967
763,3	228,71
763,7	224,167
764,1	226,452
764,6	221,081
765	225,452
765,4	226,424
765,9	218,71
766,3	212,652
766,7	215,51
767,2	214,567
767,6	219,595
768	216,995
768,5	212,852
768,9	212,995
769,3	219,824
769,8	219,281
770,2	213,71
770,6	205,852
771,1	205,252
771,5	203,881
771,9	205,481
772,4	199,31
772,8	193,938
773,2	197,938
773,7	201,024
774,1	195,024
774,5	191,624
775	190,967
775,4	188,91
775,8	193,995
776,3	192,281
776,7	187,538
777,1	191,824
777,6	188,938
778	184,795
778,4	176,595
778,9	175,624
779,3	174,167
779,7	175,795
780,2	173,424
780,6	178,195
781	178,852
781,5	183,281
781,9	175,71
782,3	174,652
782,8	174,652
783,2	173,138
783,6	178,452
784,1	175,595
784,5	174,852
784,9	176,681
785,4	172,195
785,8	174,967
786,2	173,424
786,7	164,767
787,1	163,567
787,5	160,452
788	157,052
788,4	155,881
788,8	149,995
789,3	151,881
789,7	152,795
790,1	150,938
790,6	150,167
791	151,481
791,4	149,538
791,9	148,652
792,3	143,652
792,7	138,252
793,2	138,91
793,6	144,11
794	142,852
794,5	145,824
794,9	143,51
795,3	143,795
795,8	146,938
796,2	147,567
796,6	142,167
797,1	147,424
797,5	145,081
797,9	144,51
798,4	142,167
798,8	139,938
799,2	138,367
799,7	141,71
800,1	137,51
800,5	133,338
801	128,11
801,4	126,252
801,8	124,595
802,2	126,738
802,7	124,395
803,1	119,11
803,5	120,595
804	125,252
804,4	125,938
804,8	125,767
805,3	123,452
805,7	118,052
806,1	117,852
806,6	118,167
807	118,367
807,4	116,51
807,9	111,395
808,3	106,252
808,7	104,224
809,2	104,681
809,6	100,881
810	104,395
810,4	103,51
810,9	107,767
811,3	105,967
811,7	107,252
812,2	112,138
812,6	112,481
813	105,424
813,5	103,024
813,9	102,367
814,3	104,824
814,8	106,624
815,2	102,252
815,6	103,338
816,1	104,31
816,5	109,424
816,9	104,252
817,3	100,624
817,8	100,224
818,2	99,338
818,6	95,624
819,1	93,681
819,5	89,938
819,9	90,367
820,4	93,624
820,8	93,595
821,2	87,824
821,7	85,938
822,1	85,31
822,5	85,338
822,9	87,852
823,4	85,852
823,8	84,881
824,2	84,652
824,7	82,738
825,1	82,938
825,5	79,595
826	79,367
826,4	77,31
826,8	71,138
827,3	72,452
827,7	76,11
828,1	75,824
828,5	73,852
829	69,51
829,4	71,938
829,8	77,595
830,3	75,824
830,7	73,424
831,1	70,167
831,6	72,567
832	72,424
832,4	71,91
832,8	68,824
833,3	71,51
833,7	70,652
834,1	71,138
834,6	72,252
835	71,681
835,4	71,652
835,8	69,967
836,3	64,91
836,7	63,11
837,1	59,881
837,6	54,11
838	54,624
838,4	49,738
838,9	50,31
839,3	55,452
839,7	60,31
840,1	64,395
840,6	66,024
841	63,824
841,4	65,995
841,9	63,11
842,3	65,995
842,7	63,767
843,1	60,281
843,6	61,995
844	67,795
844,4	64,824
844,9	66,424
845,3	58,595
845,7	60,452
846,2	57,824
846,6	56,967
847	52,138
847,4	52,138
847,9	50,852
848,3	53,252
848,7	50,167
849,2	52,538
849,6	51,052
850	49,595
850,4	50,738
850,9	53,71
851,3	49,681
851,7	52,138
852,2	52,967
852,6	51,767
853	51,824
853,4	47,595
853,9	47,71
854,3	50,11
854,7	45,052
855,2	42,224
855,6	42,367
856	45,938
856,4	48,595
856,9	47,71
857,3	47,852
857,7	48,31
858,2	44,652
858,6	46,167
859	41,424
859,4	41,452
859,9	37,195
860,3	35,824
860,7	36,167
861,1	39,167
861,6	36,424
862	42,138
862,4	43,167
862,9	41,538
863,3	41,081
863,7	41,024
864,1	43,538
864,6	45,652
865	41,338
865,4	37,51
865,9	41,195
866,3	42,024
866,7	41,195
867,1	40,967
867,6	34,624
868	26,71
868,4	25,795
868,8	25,338
869,3	26,624
869,7	27,738
870,1	23,281
870,6	25,081
871	61,424
871,4	65,624
871,8	62,224
872,3	57,424
872,7	54,167
873,1	55,51
873,5	56,252
874	24,452
874,4	24,024
874,8	25,367
875,3	28,51
875,7	27,024
876,1	27,224
876,5	28,452
877	30,681
877,4	31,138
877,8	26,281
878,2	23,052
878,7	29,281
879,1	31,767
879,5	30,024
879,9	24,824
880,4	25,824
880,8	33,938
881,2	35,624
881,7	31,538
882,1	31,881
882,5	36,538
882,9	43,595
883,4	39,052
883,8	33,395
884,2	34,881
884,6	33,024
885,1	26,824
885,5	25,252
885,9	25,681
886,3	24,624
886,8	26,024
887,2	19,91
887,6	20,481
888	23,51
888,5	20,11
888,9	17,338
889,3	23,481
889,8	24,11
890,2	26,938
890,6	27,595
891	28,595
891,5	24,452
891,9	20,252
892,3	12,681
892,7	10,11
893,2	11,738
893,6	9,91
894	5,681
894,4	12,881
894,9	12,338
895,3	14,338
895,7	14,452
896,1	13,281
896,6	13,51
897	16,852
897,4	9,71
897,8	17,31
898,3	14,338
898,7	12,681
899,1	9,767
899,5	13,995
900	15,938
900,4	19,424
900,8	14,795
901,2	19,652
901,7	23,595
902,1	28,738
902,5	27,11
902,9	22,738
903,4	21,852
903,8	21,481
904,2	16,195
904,6	17,995
905,1	15,424
905,5	17,024
905,9	19,395
906,3	16,652
906,8	15,767
907,2	18,338
907,6	12,338
908	11,195
908,5	7,367
908,9	4,51
909,3	8,795
909,7	8,71
910,2	11,738
910,6	16,195
911	21,31
911,4	17,738
911,9	19,052
912,3	18,652
912,7	19,081
913,1	17,881
913,6	19,452
914	16,052
914,4	17,91
914,8	18,452
915,3	18,138
915,7	16,938
916,1	21,167
916,5	14,138
916,9	19,51
917,4	18,681
917,8	14,595
918,2	16,224
918,6	20,852
919,1	11,767
919,5	15,852
919,9	8,538
920,3	10,024
920,8	14,281
921,2	13,224
921,6	13,31
922	16,91
922,5	16,252
922,9	18,795
923,3	21,395
923,7	20,995
924,2	20,452
924,6	15,967
925	19,595
925,4	18,681
925,8	17,481
926,3	15,652
926,7	15,767
927,1	15,967
927,5	16,624
928	14,51
928,4	16,967
928,8	15,11
929,2	20,91
929,7	18,367
930,1	13,652
930,5	14,795
930,9	15,538
931,3	10,795
931,8	11,881
932,2	7,538
932,6	9,281
933	13,795
933,5	9,681
933,9	9,31
934,3	6,652
934,7	3,624
935,2	0,795
935,6	-0,633
936	3,795
936,4	9,224
936,8	7,481
937,3	15,681
937,7	14,195
938,1	15,995
938,5	10,195
939	7,824
939,4	6,195
939,8	11,224
940,2	6,452
940,6	7,967
941,1	4,51
941,5	13,252
941,9	8,252
942,3	6,31
942,8	-0,548
943,2	2,71
943,6	4,081
944	4,538
944,4	1,738
944,9	1,424
945,3	2,252
945,7	6,852
946,1	0,595
946,6	5,538
947	6,31
947,4	6,138
947,8	4,91
948,2	4,51
948,7	1,367
949,1	5,281
949,5	0,195
949,9	2,281
950,3	0,881
950,8	1,424
951,2	4,367
951,6	8,081
952	5,281
952,5	5,052
952,9	4,224
953,3	2,081
953,7	1,91
954,1	-0,69
954,6	-7,348
955	-2,29
955,4	0,481
955,8	-3,062
956,2	-1,919
956,7	0,995
957,1	-0,605
957,5	1,024
957,9	-3,148
958,3	-7,605
958,8	-4,719
959,2	-2,49
959,6	-1,262
960	5,51
960,5	6,024
960,9	10,452
961,3	12,71
961,7	11,31
962,1	8,881
962,6	6,252
963	1,538
963,4	4,138
963,8	-0,262
964,2	-1,033
964,7	0,681
965,1	6,567
965,5	6,138
965,9	3,767
966,3	1,938
966,8	6,738
967,2	8,852
967,6	11,481
968	7,595
968,4	8,567
968,9	9,452
969,3	8,281
969,7	3,938
970,1	4,995
970,5	2,852
971	-0,005
971,4	0,824
971,8	1,881
972,2	1,967
972,6	6,595
973,1	6,081
973,5	4,881
973,9	8,024
974,3	9,252
974,7	4,538
975,2	4,51
975,6	2,852
976	-3,433
976,4	-1,348
976,8	0,224
977,3	-0,119
977,7	1,995
978,1	1,481
978,5	-1,576
978,9	-1,233
979,4	-2,262
979,8	-4,348
980,2	-3,576
980,6	-4,119
981	-5,69
981,5	-10,519
981,9	-5,033
982,3	-6,033
982,7	-9,49
983,1	-10,89
983,6	-10,662
984	-12,376
984,4	-1,033
984,8	-1,519
985,2	-0,633
985,6	0,138
986,1	-3,09
986,5	-2,976
986,9	-2,319
987,3	-2,576
987,7	-1,69
988,2	-5,919
988,6	-1,176
989	0,338
989,4	3,595
989,8	7,624
990,3	2,652
990,7	4,281
991,1	7,195
991,5	7,995
991,9	8,852
992,3	9,052
992,8	7,624
993,2	6,481
993,6	3,624
994	6,052
994,4	6,167
994,9	5,652
995,3	7,395
995,7	12,195
996,1	13,652
996,5	11,795
996,9	14,252
997,4	9,338
997,8	11,681
998,2	5,195
998,6	-3,29
999	-5,976
999,5	-7,633
999,9	-11,148
1000,3	-12,49
1000,7	-15,89
1001,1	-12,833
1001,5	-12,49
1002	-14,748
1002,4	-15,319
1002,8	-16,548
1003,2	-16,748
1003,6	-12,576
1004	-11,033
1004,5	-7,405
1004,9	-1,548
1005,3	-1,919
1005,7	-2,719
1006,1	1,938
1006,6	0,338
1007	-2,662
1007,4	-3,462
1007,8	-1,548
1008,2	6,767
1008,6	9,024
1009,1	10,11
1009,5	11,567
1009,9	11,252
1010,3	11,338
1010,7	11,938
1011,1	4,024
1011,6	7,71
1012	8,481
1012,4	6,852
1012,8	7,024
1013,2	5,995
1013,6	3,967
1014,1	5,024
1014,5	1,31
1014,9	0,367
1015,3	1,767
1015,7	1,281
1016,1	-0,262
1016,6	-0,433
1017	4,767
1017,4	3,51
1017,8	2,852
1018,2	-3,09
1018,6	0,138
1019,1	3,71
1019,5	6,395
1019,9	6,252
1020,3	3,91
1020,7	-0,919
1021,1	-1,376
1021,6	0,595
1022	4,224
1022,4	-2,033
1022,8	-8,919
1023,2	-2,719
1023,6	1,338
1024,1	2,767
1024,5	-0,29
1024,9	-5,805
1025,3	-3,605
1025,7	-1,29
1026,1	-0,233
1026,6	-0,49
1027	1,195
1027,4	-1,348
1027,8	-0,005
1028,2	3,738
1028,6	4,91
1029	-1,89
1029,5	-5,548
1029,9	-10,033
1030,3	-8,862
1030,7	-10,662
1031,1	-13,776
1031,5	-16,462
1032	-14,033
1032,4	-7,748
1032,8	-1,376
1033,2	0,852
1033,6	2,081
1034	4,11
1034,4	7,71
1034,9	10,767
1035,3	9,424
1035,7	11,252
1036,1	13,852
1036,5	16,738
1036,9	14,11
1037,4	14,51
1037,8	11,281
1038,2	12,738
1038,6	11,338
1039	3,052
1039,4	3,681
1039,8	6,852
1040,3	5,51
1040,7	3,081
1041,1	-1,29
1041,5	-2,433
1041,9	5,395
1042,3	4,367
1042,7	3,052
1043,2	6,395
1043,6	7,024
1044	7,91
1044,4	11,595
1044,8	9,71
1045,2	7,481
1045,6	6,281
1046,1	1,824
1046,5	5,767
1046,9	5,224
1047,3	2,51
1047,7	3,595
1048,1	0,795
1048,5	0,052
1049	5,052
1049,4	5,938
1049,8	3,11
1050,2	2,852
1050,6	0,195
1051	5,995
1051,4	7,624
1051,9	0,91
1052,3	1,424
1052,7	5,195
1053,1	5,281
1053,5	2,881
1053,9	-1,976
1054,3	-1,062
1054,8	9,91
1055,2	9,681
1055,6	9,595
1056	8,024
1056,4	12,91
1056,8	14,967
1057,2	10,767
1057,6	-2,062
1058,1	-3,205
1058,5	0,11
1058,9	4,938
1059,3	3,681
1059,7	4,281
1060,1	9,052
1060,5	16,738
1061	13,138
1061,4	11,138
1061,8	9,281
1062,2	6,567
1062,6	2,595
1063	-2,176
1063,4	-6,776
1063,8	-3,405
1064,3	-5,376
1064,7	-5,405
1065,1	-4,548
1065,5	0,881
1065,9	1,71
1066,3	7,138
1066,7	4,652
1067,1	4,11
1067,6	2,281
1068	1,938
1068,4	2,567
1068,8	3,624
1069,2	2,51
1069,6	4,31
1070	4,224
1070,4	2,795
1070,9	2,424
1071,3	3,91
1071,7	4,967
1072,1	5,995
1072,5	4,281
1072,9	9,252
1073,3	7,995
1073,7	6,081
1074,2	0,824
1074,6	-0,548
1075	0,424
1075,4	5,91
1075,8	1,71
1076,2	7,395
1076,6	11,852
1077	11,281
1077,5	13,852
1077,9	11,31
1078,3	6,881
1078,7	5,71
1079,1	1,281
1079,5	2,481
1079,9	4,51
1080,3	0,852
1080,7	-0,119
1081,2	-0,833
1081,6	2,824
1082	4,395
1082,4	1,224
1082,8	1,224
1083,2	-1,69
1083,6	-2,233
1084	-2,919
1084,5	-4,348
1084,9	-6,862
1085,3	-6,148
1085,7	-6,233
1086,1	-0,919
1086,5	-5,005
1086,9	-0,433
1087,3	0,71
1087,7	0,138
1088,2	2,081
1088,6	0,938
1089	1,081
1089,4	3,967
1089,8	1,71
1090,2	-4,062
1090,6	-0,433
1091	0,424
1091,4	-2,205
1091,9	-3,005
1092,3	1,052
1092,7	-1,405
1093,1	8,681
1093,5	6,852
1093,9	3,652
1094,3	8,052
1094,7	7,224
1095,1	7,252
1095,5	8,91
1096	6,938
1096,4	9,195
1096,8	11,51
1097,2	12,681
1097,6	12,967
1098	9,252
1098,4	7,624
1098,8	1,281
1099,2	-3,719
1099,6	-3,09
1100,1	-2,176
1100,5	-3,233
1100,9	-2,262
1101,3	-1,09
1101,7	3,567
1102,1	7,595
1102,5	6,738
1102,9	7,367
1103,3	5,881
1103,7	6,681
1104,2	7,252
1104,6	3,967
1105	6,424
1105,4	3,881
1105,8	0,51
1106,2	3,052
1106,6	1,91
1107	1,652
1107,4	3,033
1107,8	-0,713
1108,3	0,417
