Data from Subt2_160.txt Node
Date: Sat Aug 26 18:33:23 MSK 2023
User: vat
Spectrometer: MAYP114033
Trigger mode: 0
Integration Time (sec): 1,000000E0
Scans to average: 5
Electric dark correction enabled: true
Nonlinearity correction enabled: false
Boxcar width: 3
XAxis mode: Wavelengths
Number of Pixels in Spectrum: 2068
>>>>>Begin Spectral Data<<<<<
199,4	-0,033
199,9	-0,073
200,4	-3,9
200,8	-2,319
201,3	-4,862
201,8	-1,948
202,2	-6,176
202,7	-1,948
203,2	-3,348
203,6	-1,033
204,1	-5,005
204,6	-4,205
205	-5,205
205,5	0,052
206	-4,405
206,4	-3,233
206,9	-3,433
207,4	-0,548
207,8	-0,09
208,3	-0,776
208,8	-5,148
209,2	-7,005
209,7	-7,605
210,2	-4,776
210,6	-2,662
211,1	-0,776
211,5	-5,119
212	0,395
212,5	1,795
212,9	0,881
213,4	-1,633
213,9	-6,89
214,3	-8,176
214,8	-1,405
215,3	-6,405
215,7	-2,548
216,2	2,452
216,7	6,71
217,1	7,538
217,6	11,424
218,1	9,71
218,5	12,167
219	2,852
219,5	1,452
219,9	-6,748
220,4	2,71
220,9	-1,548
221,3	-2,262
221,8	-0,919
222,3	5,195
222,7	6,567
223,2	11,11
223,6	2,452
224,1	4,91
224,6	7,281
225	5,224
225,5	5,91
226	0,681
226,4	3,995
226,9	8,052
227,4	5,024
227,8	-4,062
228,3	-2,748
228,8	-2,805
229,2	-1,09
229,7	-7,49
230,2	-9,89
230,6	-2,376
231,1	7,395
231,5	5,224
232	6,424
232,5	5,71
232,9	12,167
233,4	14,052
233,9	7,338
234,3	3,224
234,8	4,195
235,3	-1,862
235,7	1,567
236,2	-5,376
236,7	-8,748
237,1	-8,119
237,6	-7,548
238,1	-10,805
238,5	-6,376
239	-9,49
239,4	-0,519
239,9	-3,319
240,4	0,052
240,8	3,51
241,3	7,167
241,8	3,595
242,2	4,424
242,7	-3,09
243,2	2,052
243,6	-0,69
244,1	-1,519
244,6	-0,948
245	4,538
245,5	4,167
245,9	3,624
246,4	5,024
246,9	4,624
247,3	4,795
247,8	5,338
248,3	4,138
248,7	5,224
249,2	7,824
249,7	7,281
250,1	9,252
250,6	7,252
251	5,338
251,5	3,652
252	3,91
252,4	7,31
252,9	2,138
253,4	0,71
253,8	-3,919
254,3	0,51
254,8	0,881
255,2	2,281
255,7	-3,29
256,1	-0,662
256,6	-0,605
257,1	2,367
257,5	-4,805
258	-3,005
258,5	-7,462
258,9	-5,948
259,4	-2,176
259,9	1,367
260,3	-1,262
260,8	1,195
261,2	-0,233
261,7	3,367
262,2	0,681
262,6	-2,89
263,1	-5,919
263,6	-2,519
264	-0,062
264,5	3,681
264,9	0,224
265,4	7,567
265,9	8,252
266,3	9,167
266,8	9,91
267,3	8,51
267,7	6,024
268,2	10,595
268,7	8,367
269,1	4,452
269,6	0,281
270	2,738
270,5	1,252
271	-1,033
271,4	-1,833
271,9	-6,262
272,4	0,281
272,8	3,91
273,3	-3,119
273,7	0,995
274,2	6,652
274,7	4,024
275,1	6,624
275,6	5,052
276,1	0,938
276,5	5,967
277	-0,29
277,4	-3,119
277,9	-0,862
278,4	2,11
278,8	3,052
279,3	6,852
279,8	5,881
280,2	8,595
280,7	9,481
281,1	6,681
281,6	1,281
282,1	0,881
282,5	0,224
283	-0,548
283,4	-2,176
283,9	-1,805
284,4	2,795
284,8	7,481
285,3	5,281
285,8	4,795
286,2	3,995
286,7	4,538
287,1	0,51
287,6	0,967
288,1	-5,062
288,5	-3,462
289	-7,976
289,5	-10,062
289,9	-10,948
290,4	-8,348
290,8	-14,176
291,3	-12,805
291,8	-12,976
292,2	-6,919
292,7	-2,605
293,1	0,452
293,6	0,195
294,1	1,967
294,5	4,224
295	4,024
295,5	2,281
295,9	5,167
296,4	1,681
296,8	-0,662
297,3	-1,49
297,8	-7,233
298,2	-11,49
298,7	-7,148
299,1	-12,462
299,6	-9,633
300,1	-6,233
300,5	-0,405
301	7,11
301,5	12,652
301,9	5,767
302,4	4,881
302,8	4,252
303,3	-0,09
303,8	-7,69
304,2	-10,09
304,7	-9,89
305,1	-10,29
305,6	-8,148
306,1	-5,262
306,5	-3,005
307	-0,176
307,4	3,967
307,9	3,51
308,4	4,795
308,8	0,138
309,3	-0,69
309,8	-1,948
310,2	0,452
310,7	-3,519
311,1	-6,805
311,6	-4,49
312,1	1,624
312,5	0,052
313	5,338
313,4	2,395
313,9	2,71
314,4	1,824
314,8	-2,262
315,3	-3,348
315,7	-6,919
316,2	-10,462
316,7	-12,49
317,1	-5,348
317,6	-0,348
318	6,624
318,5	4,938
319	10,852
319,4	13,824
319,9	19,452
320,3	12,081
320,8	9,452
321,3	7,681
321,7	13,167
322,2	12,024
322,6	12,681
323,1	11,567
323,6	13,081
324	7,995
324,5	8,224
324,9	5,995
325,4	3,024
325,9	1,338
326,3	3,281
326,8	4,195
327,2	7,967
327,7	5,738
328,2	2,11
328,6	5,595
329,1	1,481
329,5	-3,005
330	-4,205
330,5	-1,776
330,9	-1,062
331,4	0,224
331,8	-0,233
332,3	5,652
332,8	8,681
333,2	7,081
333,7	11,395
334,1	10,567
334,6	8,081
335,1	3,91
335,5	2,538
336	-2,548
336,4	1,995
336,9	-1,033
337,4	3,11
337,8	4,738
338,3	4,51
338,7	3,967
339,2	3,795
339,7	3,595
340,1	-0,976
340,6	-3,805
341	-5,062
341,5	-3,005
342	-9,119
342,4	-8,405
342,9	-11,519
343,3	-9,262
343,8	-9,605
344,2	-9,719
344,7	-5,49
345,2	-3,005
345,6	-1,719
346,1	0,995
346,5	-7,976
347	-8,205
347,5	-7,748
347,9	-2,805
348,4	1,167
348,8	2,995
349,3	1,624
349,8	10,91
350,2	16,138
350,7	17,338
351,1	12,995
351,6	15,71
352	20,224
352,5	24,424
353	31,224
353,4	30,452
353,9	37,71
354,3	46,881
354,8	53,995
355,3	65,652
355,7	81,052
356,2	97,681
356,6	117,281
357,1	143,824
357,5	167,567
358	200,424
358,5	229,081
358,9	261,11
359,4	301,081
359,8	348,138
360,3	398,51
360,8	451,338
361,2	511,081
361,7	582,252
362,1	665,338
362,6	748,367
363	838,281
363,5	935,452
364	1041,167
364,4	1143,995
364,9	1250,738
365,3	1349,367
365,8	1449,824
366,3	1543,91
366,7	1622,681
367,2	1693,367
367,6	1751,538
368,1	1800,967
368,5	1829,567
369	1838,252
369,5	1838,852
369,9	1830,052
370,4	1799,71
370,8	1761,652
371,3	1705,31
371,7	1643,052
372,2	1576,424
372,7	1501,338
373,1	1419,567
373,6	1342,338
374	1259,624
374,5	1173,595
374,9	1095,424
375,4	1015,738
375,9	936,367
376,3	857,024
376,8	782,138
377,2	717,538
377,7	658,481
378,2	600,538
378,6	551,824
379,1	505,652
379,5	470,481
380	437,71
380,4	397,881
380,9	360,138
381,4	331,71
381,8	306,252
382,3	286,967
382,7	265,567
383,2	249,224
383,6	232,967
384,1	221,081
384,6	205,681
385	186,252
385,5	173,138
385,9	158,824
386,4	142,567
386,8	138,367
387,3	130,395
387,7	123,11
388,2	122,71
388,7	110,167
389,1	100,567
389,6	94,252
390	83,31
390,5	79,481
390,9	75,71
391,4	69,31
391,9	63,995
392,3	65,995
392,8	58,938
393,2	54,681
393,7	52,281
394,1	45,567
394,6	38,281
395,1	40,852
395,5	35,824
396	37,624
396,4	37,081
396,9	35,681
397,3	37,995
397,8	42,71
398,2	37,91
398,7	38,652
399,2	41,395
399,6	42,195
400,1	38,595
400,5	33,167
401	30,538
401,4	27,624
401,9	28,652
402,4	25,195
402,8	19,738
403,3	23,652
403,7	25,652
404,2	25,224
404,6	31,624
405,1	28,91
405,5	26,11
406	28,195
406,5	22,224
406,9	23,081
407,4	21,395
407,8	20,71
408,3	22,167
408,7	24,538
409,2	30,395
409,6	37,624
410,1	40,024
410,6	47,195
411	50,824
411,5	52,195
411,9	59,167
412,4	58,824
412,8	63,852
413,3	67,31
413,7	68,081
414,2	64,024
414,7	69,252
415,1	73,195
415,6	76,967
416	75,824
416,5	76,452
416,9	80,138
417,4	89,138
417,8	97,567
418,3	102,367
418,8	110,224
419,2	114,652
419,7	121,224
420,1	128,538
420,6	130,995
421	127,052
421,5	131,252
421,9	132,681
422,4	137,31
422,8	142,281
423,3	146,252
423,8	152,938
424,2	160,824
424,7	164,71
425,1	172,11
425,6	184,167
426	192,281
426,5	200,481
426,9	213,138
427,4	214,824
427,9	217,081
428,3	222,424
428,8	218,938
429,2	226,024
429,7	229,567
430,1	233,91
430,6	249,824
431	262,538
431,5	275,995
431,9	288,424
432,4	300,138
432,8	315,738
433,3	333,881
433,8	344,681
434,2	361,995
434,7	381,424
435,1	403,281
435,6	424,824
436	439,367
436,5	455,052
436,9	475,681
437,4	493,852
437,8	509,395
438,3	529,938
438,8	544,595
439,2	570,252
439,7	593,252
440,1	619,652
440,6	650,938
441	677,167
441,5	710,367
441,9	748,338
442,4	777,138
442,8	809,11
443,3	844,138
443,7	872,681
444,2	910,052
444,7	941,31
445,1	978,024
445,6	1020,681
446	1059,824
446,5	1094,824
446,9	1131,167
447,4	1175,138
447,8	1226,281
448,3	1269,31
448,7	1313,11
449,2	1361,395
449,6	1416,595
450,1	1466,11
450,6	1514,338
451	1557,31
451,5	1612,738
451,9	1670,281
452,4	1726,167
452,8	1777,481
453,3	1842,081
453,7	1901,424
454,2	1966,11
454,6	2024,767
455,1	2085,71
455,5	2141,738
456	2205,338
456,4	2264,538
456,9	2331,167
457,3	2391,195
457,8	2446,481
458,3	2511,252
458,7	2577,795
459,2	2644,795
459,6	2714,624
460,1	2779,395
460,5	2843,824
461	2925,167
461,4	2991,91
461,9	3067,738
462,3	3138,91
462,8	3207,71
463,2	3277,738
463,7	3351,624
464,1	3421,167
464,6	3491,795
465	3560,795
465,5	3629,624
466	3702,538
466,4	3768,567
466,9	3843,91
467,3	3909,195
467,8	3983,995
468,2	4054,738
468,7	4130,281
469,1	4197,567
469,6	4269,31
470	4332,138
470,5	4398,481
470,9	4455,252
471,4	4516,024
471,8	4579,767
472,3	4645,681
472,7	4711,338
473,2	4772,852
473,6	4834,652
474,1	4904,452
474,5	4968,481
475	5025,281
475,4	5088,167
475,9	5142,11
476,4	5198,71
476,8	5259,91
477,3	5304,538
477,7	5357,395
478,2	5401,51
478,6	5444,481
479,1	5490,652
479,5	5533,452
480	5569,91
480,4	5614,11
480,9	5644,595
481,3	5677,052
481,8	5707,481
482,2	5738,11
482,7	5768,052
483,1	5797,567
483,6	5818,938
484	5847,538
484,5	5879,024
484,9	5908,681
485,4	5938,424
485,8	5962,481
486,3	5982,167
486,7	5997,224
487,2	6011,138
487,6	6026,71
488,1	6029,024
488,5	6026,195
489	6033,167
489,4	6033,31
489,9	6040,767
490,4	6041,967
490,8	6033,595
491,3	6032,367
491,7	6028,624
492,2	6028,395
492,6	6023,738
493,1	6006,91
493,5	5987,195
494	5976,824
494,4	5958,138
494,9	5949,567
495,3	5923,938
495,8	5902,881
496,2	5893,31
496,7	5874,538
497,1	5851,081
497,6	5841,138
498	5817,367
498,5	5795,081
498,9	5766,624
499,4	5731,024
499,8	5713,195
500,3	5690,11
500,7	5654,195
501,2	5613,167
501,6	5579,024
502,1	5550,767
502,5	5533,052
503	5494,481
503,4	5456,767
503,9	5414,852
504,3	5389,824
504,8	5355,424
505,2	5316,224
505,7	5267,252
506,1	5237,681
506,6	5203,738
507	5165,281
507,5	5116,538
507,9	5076,424
508,4	5032,224
508,8	4992,995
509,3	4946,452
509,7	4902,681
510,2	4866,195
510,6	4825,881
511,1	4785,881
511,5	4742,195
512	4702,567
512,4	4661,31
512,9	4610,595
513,3	4568,795
513,8	4528,538
514,2	4477,31
514,7	4433,995
515,1	4390,767
515,6	4343,824
516	4301,995
516,5	4256,11
516,9	4208,481
517,4	4164,967
517,8	4127,367
518,3	4080,938
518,7	4035,538
519,2	3995,652
519,6	3953,224
520,1	3913,538
520,5	3873,224
521	3827,195
521,4	3785,681
521,9	3746,024
522,3	3699,452
522,8	3649,367
523,2	3604,681
523,7	3564,681
524,1	3525,052
524,6	3485,452
525	3437,938
525,5	3399,481
525,9	3367,367
526,4	3325,51
526,8	3286,167
527,3	3253,681
527,7	3213,738
528,2	3182,052
528,6	3142,538
529,1	3110,624
529,5	3082,224
530	3042,224
530,4	2998,252
530,9	2960,452
531,3	2930,881
531,8	2898,424
532,2	2860,424
532,6	2827,738
533,1	2793,738
533,5	2766,195
534	2734,052
534,4	2695,51
534,9	2660,481
535,3	2623,052
535,8	2587,938
536,2	2562,967
536,7	2526,824
537,1	2499,71
537,6	2472,338
538	2443,367
538,5	2417,71
538,9	2385,367
539,4	2359,881
539,8	2339,252
540,3	2319,567
540,7	2288,767
541,2	2263,281
541,6	2239,167
542,1	2220,338
542,5	2193,881
543	2166,024
543,4	2134,538
543,9	2116,967
544,3	2099,11
544,8	2072,167
545,2	2050,652
545,7	2032,338
546,1	2012,767
546,5	1990,024
547	1967,367
547,4	1948,052
547,9	1932,338
548,3	1913,824
548,8	1889,167
549,2	1867,424
549,7	1847,11
550,1	1833,338
550,6	1811,795
551	1794,252
551,5	1771,338
551,9	1751,595
552,4	1732,367
552,8	1719,224
553,3	1691,338
553,7	1670,767
554,2	1656,91
554,6	1640,967
555,1	1625,738
555,5	1610,681
555,9	1592,224
556,4	1578,595
556,8	1569,252
557,3	1550,51
557,7	1535,71
558,2	1516,595
558,6	1503,367
559,1	1489,852
559,5	1475,11
560	1461,081
560,4	1447,91
560,9	1435,652
561,3	1426,11
561,8	1414,024
562,2	1403,31
562,7	1399,31
563,1	1385,367
563,6	1369,424
564	1354,652
564,4	1344,767
564,9	1337,281
565,3	1323,395
565,8	1305,967
566,2	1290,652
566,7	1285,71
567,1	1280,252
567,6	1270,995
568	1256,681
568,5	1241,91
568,9	1228,024
569,4	1223,224
569,8	1210,024
570,3	1197,567
570,7	1180,024
571,1	1172,852
571,6	1167,052
572	1167,338
572,5	1158,452
572,9	1150,567
573,4	1139,852
573,8	1137,767
574,3	1123,195
574,7	1112,681
575,2	1093,11
575,6	1077,224
576,1	1065,538
576,5	1059,767
576,9	1046,681
577,4	1034,51
577,8	1025,767
578,3	1022,195
578,7	1014,31
579,2	1012,624
579,6	1000,052
580,1	992,795
580,5	990,967
581	984,595
581,4	976,138
581,9	970,452
582,3	957,938
582,7	953,252
583,2	947,567
583,6	942,395
584,1	939,081
584,5	933,567
585	928,51
585,4	916,024
585,9	904,367
586,3	898,624
586,8	890,281
587,2	880,91
587,6	878,967
588,1	879,024
588,5	877,91
589	873,31
589,4	864,081
589,9	857,51
590,3	849,024
590,8	840,967
591,2	829,052
591,7	826,824
592,1	826,281
592,5	823,51
593	819,852
593,4	814,11
593,9	805,967
594,3	798,995
594,8	790,195
595,2	779,481
595,7	775,71
596,1	769,167
596,6	766,738
597	761,938
597,4	759,567
597,9	753,081
598,3	754,71
598,8	745,767
599,2	740,481
599,7	739,567
600,1	729,481
600,6	724,281
601	723,11
601,4	722,167
601,9	722,481
602,3	713,824
602,8	708,252
603,2	707,395
603,7	703,31
604,1	698,224
604,6	689,395
605	679,71
605,4	681,995
605,9	671,31
606,3	663,881
606,8	656,51
607,2	653,595
607,7	644,795
608,1	645,738
608,6	643,11
609	648,767
609,4	651,881
609,9	651,081
610,3	645,395
610,8	644,538
611,2	640,481
611,7	632,452
612,1	625,681
612,6	623,538
613	621,395
613,4	618,224
613,9	611,281
614,3	607,367
614,8	609,367
615,2	597,224
615,7	594,367
616,1	592,081
616,6	583,138
617	579,081
617,4	575,395
617,9	569,595
618,3	573,824
618,8	568,595
619,2	559,881
619,7	563,424
620,1	560,71
620,5	559,91
621	551,367
621,4	549,795
621,9	543,538
622,3	540,31
622,8	531,11
623,2	534,195
623,6	524,767
624,1	522,795
624,5	516,738
625	519,452
625,4	520,395
625,9	519,31
626,3	510,652
626,8	511,11
627,2	511,681
627,6	502,824
628,1	492,252
628,5	488,881
629	481,824
629,4	479,567
629,9	478,338
630,3	469,595
630,7	471,224
631,2	471,681
631,6	467,167
632,1	470,338
632,5	463,452
633	456,995
633,4	454,31
633,8	450,081
634,3	444,652
634,7	441,652
635,2	431,624
635,6	434,052
636,1	432,395
636,5	430,424
636,9	427,71
637,4	421,195
637,8	414,138
638,3	413,281
638,7	407,938
639,2	399,881
639,6	401,281
640	396,138
640,5	396,052
640,9	396,024
641,4	394,767
641,8	393,624
642,2	394,852
642,7	391,167
643,1	393,138
643,6	392,024
644	389,081
644,5	391,767
644,9	388,738
645,3	387,138
645,8	381,595
646,2	380,652
646,7	376,252
647,1	375,195
647,6	369,681
648	371,138
648,4	364,995
648,9	366,338
649,3	361,195
649,8	362,424
650,2	361,567
650,6	361,052
651,1	353,367
651,5	360,195
652	354,052
652,4	352,795
652,9	354,224
653,3	351,424
653,7	348,024
654,2	346,424
654,6	337,195
655,1	340,024
655,5	343,195
655,9	336,995
656,4	335,481
656,8	331,252
657,3	332,224
657,7	337,652
658,2	329,71
658,6	326,538
659	323,052
659,5	316,652
659,9	316,71
660,4	311,738
660,8	302,081
661,2	302,852
661,7	298,51
662,1	300,481
662,6	300,367
663	299,567
663,4	298,081
663,9	299,452
664,3	298,624
664,8	295,31
665,2	289,424
665,6	285,881
666,1	285,195
666,5	283,795
667	280,624
667,4	280,595
667,9	280,567
668,3	280,395
668,7	277,652
669,2	274,652
669,6	273,081
670,1	271,195
670,5	265,881
670,9	259,71
671,4	258,595
671,8	262,938
672,3	261,424
672,7	260,338
673,1	256,224
673,6	254,281
674	258,138
674,5	255,167
674,9	246,91
675,3	244,452
675,8	248,195
676,2	248,452
676,7	248,138
677,1	244,424
677,5	242,967
678	248,081
678,4	251,11
678,9	245,852
679,3	242,795
679,7	239,31
680,2	231,967
680,6	223,338
681,1	218,881
681,5	215,481
681,9	213,281
682,4	211,338
682,8	215,052
683,3	220,338
683,7	224,31
684,1	224,367
684,6	220,624
685	216,852
685,5	212,938
685,9	203,852
686,3	198,91
686,8	199,424
687,2	197,024
687,7	193,138
688,1	190,138
688,5	189,567
689	190,852
689,4	187,824
689,9	184,681
690,3	180,567
690,7	182,767
691,2	186,024
691,6	188,938
692	188,767
692,5	192,167
692,9	190,567
693,4	190,91
693,8	187,738
694,2	185,767
694,7	181,395
695,1	178,367
695,6	178,367
696	178,881
696,4	178,795
696,9	177,052
697,3	171,452
697,8	172,138
698,2	173,481
698,6	169,967
699,1	170,652
699,5	173,281
699,9	169,767
700,4	166,167
700,8	165,281
701,3	164,481
701,7	161,481
702,1	152,71
702,6	148,31
703	150,852
703,5	153,195
703,9	152,024
704,3	149,995
704,8	149,852
705,2	157,138
705,6	156,424
706,1	154,452
706,5	155,881
707	154,081
707,4	151,995
707,8	145,71
708,3	142,681
708,7	142,395
709,2	142,31
709,6	138,995
710	141,281
710,5	136,938
710,9	140,138
711,3	140,024
711,8	136,852
712,2	136,167
712,7	133,51
713,1	133,681
713,5	138,338
714	136,567
714,4	132,11
714,8	128,824
715,3	123,538
715,7	125,938
716,2	121,338
716,6	117,195
717	113,652
717,5	116,71
717,9	122,652
718,3	121,71
718,8	120,624
719,2	119,138
719,7	121,052
720,1	126,452
720,5	125,595
721	118,367
721,4	121,481
721,8	126,052
722,3	125,252
722,7	124,738
723,2	118,367
723,6	110,424
724	112,138
724,5	108,767
724,9	101,252
725,3	99,052
725,8	96,424
726,2	96,824
726,7	100,281
727,1	98,795
727,5	103,795
728	102,452
728,4	104,938
728,8	103,538
729,3	105,767
729,7	100,938
730,1	101,167
730,6	98,452
731	96,138
731,5	92,795
731,9	93,052
732,3	90,824
732,8	95,795
733,2	97,481
733,6	92,252
734,1	94,852
734,5	94,024
734,9	93,681
735,4	93,938
735,8	86,538
736,3	84,538
736,7	83,167
737,1	85,281
737,6	84,738
738	83,995
738,4	83,424
738,9	88,967
739,3	87,795
739,7	89,424
740,2	84,938
740,6	90,395
741,1	92,538
741,5	85,767
741,9	85,452
742,4	87,738
742,8	86,795
743,2	85,767
743,7	77,11
744,1	72,567
744,5	76,167
745	73,481
745,4	67,252
745,8	68,767
746,3	72,424
746,7	74,995
747,2	76,881
747,6	79,967
748	83,538
748,5	88,595
748,9	83,681
749,3	83,052
749,8	83,424
750,2	79,795
750,6	73,138
751,1	73,481
751,5	71,167
751,9	75,824
752,4	74,938
752,8	74,881
753,3	77,567
753,7	82,852
754,1	77,624
754,6	72,881
755	69,138
755,4	63,195
755,9	59,195
756,3	56,481
756,7	59,338
757,2	61,995
757,6	67,71
758	68,31
758,5	72,024
758,9	74,995
759,3	77,452
759,8	73,338
760,2	69,252
760,6	69,252
761,1	67,652
761,5	67,852
761,9	66,452
762,4	59,71
762,8	56,138
763,3	60,538
763,7	54,795
764,1	56,852
764,6	59,167
765	60,195
765,4	65,452
765,9	67,367
766,3	67,395
766,7	67,367
767,2	65,024
767,6	62,024
768	60,281
768,5	59,71
768,9	60,31
769,3	56,167
769,8	55,367
770,2	56,167
770,6	54,424
771,1	57,824
771,5	60,081
771,9	61,71
772,4	63,252
772,8	66,424
773,2	67,224
773,7	68,452
774,1	64,652
774,5	61,252
775	57,11
775,4	56,738
775,8	53,252
776,3	57,081
776,7	55,452
777,1	55,71
777,6	56,11
778	59,767
778,4	58,424
778,9	63,281
779,3	57,738
779,7	57,081
780,2	58,252
780,6	59,652
781	58,452
781,5	58,167
781,9	54,424
782,3	52,281
782,8	51,11
783,2	48,052
783,6	48,424
784,1	47,252
784,5	45,424
784,9	44,281
785,4	48,167
785,8	51,681
786,2	55,567
786,7	52,767
787,1	50,51
787,5	51,767
788	55,51
788,4	53,51
788,8	50,967
789,3	46,652
789,7	47,91
790,1	44,31
790,6	45,138
791	39,852
791,4	41,995
791,9	37,767
792,3	34,767
792,7	35,224
793,2	36,481
793,6	36,424
794	41,767
794,5	34,224
794,9	38,938
795,3	44,138
795,8	40,452
796,2	44,481
796,6	44,052
797,1	40,367
797,5	41,452
797,9	39,338
798,4	36,795
798,8	37,11
799,2	34,281
799,7	34,767
800,1	31,938
800,5	32,71
801	34,795
801,4	32,281
801,8	29,081
802,2	29,824
802,7	22,967
803,1	24,967
803,5	25,91
804	22,024
804,4	26,967
804,8	31,081
805,3	27,024
805,7	30,567
806,1	28,424
806,6	29,395
807	31,052
807,4	28,738
807,9	25,138
808,3	30,767
808,7	31,31
809,2	34,967
809,6	37,252
810	34,652
810,4	32,367
810,9	32,767
811,3	31,938
811,7	35,538
812,2	35,31
812,6	32,71
813	40,252
813,5	46,624
813,9	48,652
814,3	49,538
814,8	42,938
815,2	41,11
815,6	40,938
816,1	36,738
816,5	33,252
816,9	35,538
817,3	31,395
817,8	36,481
818,2	38,91
818,6	36,11
819,1	35,624
819,5	29,595
819,9	27,424
820,4	26,138
820,8	22,538
821,2	15,824
821,7	21,624
822,1	23,91
822,5	31,024
822,9	29,967
823,4	30,052
823,8	32,567
824,2	34,195
824,7	26,852
825,1	22,224
825,5	18,567
826	15,995
826,4	18,824
826,8	14,481
827,3	17,767
827,7	19,738
828,1	19,538
828,5	20,281
829	16,824
829,4	12,024
829,8	9,91
830,3	7,967
830,7	8,452
831,1	9,595
831,6	10,595
832	13,567
832,4	16,767
832,8	22,024
833,3	19,11
833,7	18,081
834,1	20,081
834,6	18,824
835	22,624
835,4	24,624
835,8	22,395
836,3	24,481
836,7	24,052
837,1	22,252
837,6	23,167
838	22,052
838,4	15,452
838,9	18,31
839,3	16,767
839,7	21,081
840,1	16,024
840,6	15,31
841	16,081
841,4	20,424
841,9	16,081
842,3	18,91
842,7	11,424
843,1	16,538
843,6	17,51
844	19,024
844,4	22,824
844,9	28,081
845,3	25,224
845,7	30,767
846,2	26,167
846,6	21,824
847	15,738
847,4	14,624
847,9	12,138
848,3	11,452
848,7	9,767
849,2	11,795
849,6	8,652
850	13,481
850,4	12,91
850,9	12,995
851,3	15,367
851,7	14,938
852,2	15,595
852,6	24,652
853	21,338
853,4	18,795
853,9	18,767
854,3	19,138
854,7	18,481
855,2	17,824
855,6	16,395
856	14,738
856,4	11,738
856,9	9,795
857,3	10,338
857,7	15,167
858,2	19,252
858,6	15,824
859	18,281
859,4	21,167
859,9	21,052
860,3	19,167
860,7	15,938
861,1	16,795
861,6	18,452
862	18,024
862,4	15,11
862,9	14,567
863,3	14,995
863,7	13,71
864,1	10,995
864,6	8,881
865	13,052
865,4	18,138
865,9	19,395
866,3	14,281
866,7	12,281
867,1	10,024
867,6	11,767
868	7,138
868,4	5,852
868,8	5,71
869,3	7,824
869,7	12,795
870,1	11,167
870,6	5,824
871	-45,748
871,4	-45,319
871,8	-46,433
872,3	-43,548
872,7	-48,605
873,1	-48,805
873,5	-43,148
874	7,824
874,4	7,024
874,8	3,624
875,3	2,567
875,7	3,681
876,1	7,852
876,5	8,71
877	8,51
877,4	2,338
877,8	6,338
878,2	8,481
878,7	11,024
879,1	12,281
879,5	10,424
879,9	11,51
880,4	12,824
880,8	10,91
881,2	10,31
881,7	7,052
882,1	3,767
882,5	2,11
882,9	-0,348
883,4	1,281
883,8	5,967
884,2	5,31
884,6	5,91
885,1	6,51
885,5	6,652
885,9	9,881
886,3	14,852
886,8	6,51
887,2	5,052
887,6	4,795
888	6,738
888,5	8,252
888,9	8,31
889,3	2,224
889,8	5,138
890,2	4,052
890,6	3,652
891	-0,405
891,5	0,024
891,9	-1,576
892,3	0,138
892,7	3,081
893,2	7,852
893,6	7,367
894	11,738
894,4	9,795
894,9	8,852
895,3	8,795
895,7	10,452
896,1	4,538
896,6	6,995
897	8,081
897,4	13,795
897,8	15,252
898,3	17,395
898,7	11,567
899,1	16,595
899,5	15,195
900	3,452
900,4	1,681
900,8	-0,348
901,2	-2,719
901,7	1,624
902,1	-1,29
902,5	2,738
902,9	10,567
903,4	4,738
903,8	5,824
904,2	5,51
904,6	3,824
905,1	6,195
905,5	2,538
905,9	2,795
906,3	6,71
906,8	7,624
907,2	9,338
907,6	7,252
908	4,595
908,5	2,824
908,9	0,652
909,3	-1,376
909,7	0,681
910,2	0,167
910,6	4,938
911	4,681
911,4	7,738
911,9	11,052
912,3	11,595
912,7	14,595
913,1	18,224
913,6	15,224
914	15,824
914,4	12,395
914,8	8,738
915,3	7,424
915,7	1,91
916,1	-1,033
916,5	0,624
916,9	-0,348
917,4	3,224
917,8	4,852
918,2	3,367
918,6	-0,605
919,1	1,224
919,5	4,681
919,9	7,738
920,3	4,452
920,8	3,852
921,2	4,767
921,6	2,967
922	4,367
922,5	-2,405
922,9	-5,519
923,3	-3,319
923,7	-4,033
924,2	-5,69
924,6	-1,29
925	-4,205
925,4	-6,176
925,8	-3,605
926,3	-5,519
926,7	-4,433
927,1	-4,062
927,5	1,138
928	-2,433
928,4	1,881
928,8	0,652
929,2	1,91
929,7	0,681
930,1	0,195
930,5	-4,748
930,9	-0,548
931,3	-1,205
931,8	-2,862
932,2	-1,262
932,6	-1,062
933	-6,862
933,5	-2,919
933,9	-1,062
934,3	2,11
934,7	1,052
935,2	2,452
935,6	4,252
936	12,138
936,4	8,424
936,8	9,938
937,3	8,367
937,7	12,538
938,1	14,681
938,5	12,338
939	10,824
939,4	11,738
939,8	10,738
940,2	10,995
940,6	13,338
941,1	11,738
941,5	15,538
941,9	13,624
942,3	12,11
942,8	7,91
943,2	9,967
943,6	5,224
944	4,71
944,4	3,624
944,9	4,967
945,3	6,31
945,7	1,624
946,1	-6,405
946,6	-8,862
947	-11,576
947,4	-9,176
947,8	-6,262
948,2	-9,062
948,7	-5,176
949,1	0,567
949,5	5,767
949,9	6,138
950,3	1,967
950,8	2,081
951,2	3,995
951,6	0,681
952	0,91
952,5	-9,119
952,9	-8,205
953,3	-7,29
953,7	-10,405
954,1	-9,49
954,6	-1,062
955	0,367
955,4	7,652
955,8	9,881
956,2	12,081
956,7	13,767
957,1	8,367
957,5	6,967
957,9	5,881
958,3	4,995
958,8	2,767
959,2	0,51
959,6	3,967
960	7,224
960,5	4,481
960,9	6,138
961,3	3,567
961,7	2,681
962,1	2,081
962,6	1,11
963	1,652
963,4	0,624
963,8	-5,405
964,2	-2,805
964,7	-2,148
965,1	3,567
965,5	2,052
965,9	0,252
966,3	5,024
966,8	9,167
967,2	8,281
967,6	8,995
968	-2,29
968,4	-1,405
968,9	-0,348
969,3	1,31
969,7	-2,805
970,1	-1,262
970,5	-4,205
971	2,138
971,4	1,767
971,8	2,51
972,2	-0,805
972,6	1,024
973,1	1,424
973,5	2,995
973,9	3,367
974,3	0,967
974,7	5,252
975,2	4,081
975,6	5,538
976	7,51
976,4	5,167
976,8	3,31
977,3	4,852
977,7	-1,633
978,1	-4,005
978,5	-10,033
978,9	-15,205
979,4	-16,405
979,8	-14,348
980,2	-11,719
980,6	-10,919
981	-8,262
981,5	-4,833
981,9	-2,605
982,3	1,281
982,7	3,252
983,1	-0,633
983,6	-1,405
984	-3,433
984,4	1,767
984,8	2,195
985,2	2,138
985,6	-2,405
986,1	1,167
986,5	4,767
986,9	1,11
987,3	-1,119
987,7	3,738
988,2	-0,462
988,6	-0,205
989	-2,548
989,4	-1,662
989,8	4,452
990,3	4,538
990,7	-0,376
991,1	1,824
991,5	5,567
991,9	5,595
992,3	7,767
992,8	9,681
993,2	9,567
993,6	14,881
994	17,081
994,4	13,852
994,9	15,252
995,3	10,938
995,7	6,738
996,1	6,481
996,5	1,395
996,9	-5,805
997,4	-3,519
997,8	-5,719
998,2	-5,262
998,6	-11,205
999	-10,69
999,5	-10,976
999,9	-8,719
1000,3	-11,405
1000,7	-11,49
1001,1	-11,519
1001,5	-3,29
1002	0,195
1002,4	2,767
1002,8	6,195
1003,2	8,881
1003,6	11,31
1004	11,367
1004,5	5,595
1004,9	2,224
1005,3	-0,948
1005,7	-0,919
1006,1	-2,719
1006,6	-7,148
1007	-8,376
1007,4	-7,005
1007,8	-8,919
1008,2	-14,148
1008,6	-10,462
1009,1	-12,776
1009,5	-7,433
1009,9	-3,805
1010,3	-1,348
1010,7	-0,833
1011,1	5,738
1011,6	2,767
1012	5,167
1012,4	1,252
1012,8	-4,119
1013,2	1,395
1013,6	3,51
1014,1	6,281
1014,5	5,31
1014,9	4,081
1015,3	1,024
1015,7	5,51
1016,1	0,424
1016,6	-2,89
1017	-3,576
1017,4	-1,519
1017,8	-1,519
1018,2	3,938
1018,6	0,567
1019,1	-0,576
1019,5	-0,119
1019,9	-5,29
1020,3	-5,833
1020,7	-4,662
1021,1	-6,719
1021,6	-3,576
1022	1,481
1022,4	1,567
1022,8	5,31
1023,2	6,052
1023,6	7,852
1024,1	14,452
1024,5	11,481
1024,9	8,281
1025,3	7,195
1025,7	4,938
1026,1	5,624
1026,6	2,51
1027	-4,919
1027,4	-2,89
1027,8	-6,605
1028,2	-6,348
1028,6	-0,576
1029	-1,462
1029,5	2,224
1029,9	4,881
1030,3	1,195
1030,7	0,995
1031,1	5,11
1031,5	-1,633
1032	-3,148
1032,4	-0,033
1032,8	0,51
1033,2	3,224
1033,6	5,252
1034	4,567
1034,4	3,51
1034,9	5,024
1035,3	-1,519
1035,7	-2,062
1036,1	-1,976
1036,5	-1,776
1036,9	-2,462
1037,4	6,138
1037,8	1,71
1038,2	2,881
1038,6	0,824
1039	2,71
1039,4	4,824
1039,8	-1,376
1040,3	-2,033
1040,7	-2,176
1041,1	-0,862
1041,5	0,881
1041,9	-0,805
1042,3	-1,29
1042,7	2,881
1043,2	-5,176
1043,6	-2,376
1044	-2,89
1044,4	-2,29
1044,8	-1,662
1045,2	-3,976
1045,6	-1,005
1046,1	2,652
1046,5	4,31
1046,9	4,252
1047,3	0,624
1047,7	-2,548
1048,1	-3,262
1048,5	-5,976
1049	-2,062
1049,4	-0,29
1049,8	-2,948
1050,2	0,252
1050,6	6,481
1051	7,652
1051,4	8,567
1051,9	5,967
1052,3	7,252
1052,7	8,881
1053,1	4,767
1053,5	6,938
1053,9	8,167
1054,3	6,567
1054,8	9,624
1055,2	6,452
1055,6	8,452
1056	8,652
1056,4	1,452
1056,8	-1,805
1057,2	-0,29
1057,6	-9,862
1058,1	-11,805
1058,5	-16,176
1058,9	-10,119
1059,3	-6,433
1059,7	-6,005
1060,1	-4,948
1060,5	0,738
1061	2,252
1061,4	3,31
1061,8	5,395
1062,2	5,738
1062,6	11,452
1063	8,024
1063,4	5,252
1063,8	1,51
1064,3	1,452
1064,7	-2,719
1065,1	-9,119
1065,5	-12,662
1065,9	-13,462
1066,3	-12,548
1066,7	-9,862
1067,1	-11,233
1067,6	-8,719
1068	-8,319
1068,4	-8,948
1068,8	-6,262
1069,2	-5,29
1069,6	-4,148
1070	0,252
1070,4	-2,862
1070,9	0,71
1071,3	3,681
1071,7	3,11
1072,1	2,91
1072,5	-1,748
1072,9	-3,662
1073,3	-4,576
1073,7	-5,89
1074,2	-7,805
1074,6	-8,548
1075	-9,176
1075,4	-6,833
1075,8	-6,462
1076,2	-7,148
1076,6	-4,148
1077	-5,348
1077,5	-2,033
1077,9	-1,719
1078,3	-1,919
1078,7	-1,205
1079,1	1,252
1079,5	0,538
1079,9	1,967
1080,3	-0,119
1080,7	-0,29
1081,2	6,652
1081,6	6,167
1082	3,595
1082,4	6,395
1082,8	7,338
1083,2	5,395
1083,6	4,281
1084	0,167
1084,5	-1,205
1084,9	2,395
1085,3	-5,348
1085,7	-7,633
1086,1	-2,119
1086,5	0,652
1086,9	3,881
1087,3	4,081
1087,7	1,91
1088,2	4,595
1088,6	3,824
1089	-0,976
1089,4	-2,862
1089,8	-2,29
1090,2	-2,205
1090,6	-2,605
1091	-0,062
1091,4	3,281
1091,9	5,452
1092,3	7,481
1092,7	4,538
1093,1	8,081
1093,5	9,11
1093,9	11,167
1094,3	15,395
1094,7	12,367
1095,1	14,738
1095,5	13,652
1096	7,795
1096,4	7,024
1096,8	1,71
1097,2	-0,833
1097,6	6,824
1098	4,395
1098,4	6,452
1098,8	10,767
1099,2	16,31
1099,6	17,281
1100,1	14,995
1100,5	9,424
1100,9	6,081
1101,3	4,938
1101,7	4,452
1102,1	0,224
1102,5	3,424
1102,9	2,081
1103,3	4,281
1103,7	10,31
1104,2	7,367
1104,6	7,224
1105	5,767
1105,4	3,452
1105,8	3,167
1106,2	0,91
1106,6	-2,605
1107	-0,976
1107,4	-1,6
1107,8	-0,673
1108,3	-0,383
