Data from Subt2_057.txt Node
Date: Sat Aug 26 16:30:54 MSK 2023
User: vat
Spectrometer: MAYP114033
Trigger mode: 0
Integration Time (sec): 1,000000E0
Scans to average: 5
Electric dark correction enabled: true
Nonlinearity correction enabled: false
Boxcar width: 3
XAxis mode: Wavelengths
Number of Pixels in Spectrum: 2068
>>>>>Begin Spectral Data<<<<<
199,4	-0,1
199,9	-1,12
200,4	-7
200,8	-6,943
201,3	-5,8
201,8	-4,971
202,2	-5,429
202,7	-4,286
203,2	-3,714
203,6	2,314
204,1	4,514
204,6	6,086
205	8,943
205,5	9,714
206	9,943
206,4	10,429
206,9	7,486
207,4	8,914
207,8	7,914
208,3	5,657
208,8	7,743
209,2	9
209,7	9,829
210,2	17,914
210,6	12,886
211,1	11,257
211,5	9,514
212	6,086
212,5	3,114
212,9	0,714
213,4	-4,229
213,9	-5,229
214,3	-4,314
214,8	-4
215,3	-5,029
215,7	-5,543
216,2	-3,029
216,7	-5,486
217,1	-1,743
217,6	-1,943
218,1	1
218,5	7,714
219	15,771
219,5	10
219,9	12,286
220,4	10,829
220,9	12,286
221,3	12,486
221,8	6,829
222,3	3,029
222,7	9,057
223,2	11,886
223,6	13,457
224,1	12,6
224,6	7,229
225	8,143
225,5	10,314
226	10,143
226,4	9,629
226,9	6,743
227,4	9,371
227,8	14,686
228,3	16,543
228,8	9,971
229,2	11,314
229,7	10,457
230,2	13,714
230,6	9,6
231,1	10,886
231,5	12,657
232	19,8
232,5	18,057
232,9	16,657
233,4	19,314
233,9	18,857
234,3	15,8
234,8	14,943
235,3	11,943
235,7	10,943
236,2	10,343
236,7	7,314
237,1	8,257
237,6	7,571
238,1	4,629
238,5	5,4
239	9,857
239,4	10,171
239,9	8,971
240,4	12,029
240,8	10,8
241,3	9,686
241,8	3,857
242,2	-1,657
242,7	-0,029
243,2	2,8
243,6	-0
244,1	0,114
244,6	1,257
245	0,8
245,5	-0,286
245,9	-2,371
246,4	-5,829
246,9	-5,743
247,3	-3,571
247,8	-1,714
248,3	3,2
248,7	9,6
249,2	5,057
249,7	5,829
250,1	2,857
250,6	2,229
251	-1,429
251,5	-4,429
252	-1,771
252,4	3,257
252,9	1,743
253,4	2,8
253,8	3,057
254,3	6,543
254,8	9,343
255,2	3,6
255,7	5,829
256,1	7,829
256,6	10,371
257,1	14,343
257,5	16,343
258	14,829
258,5	15,029
258,9	14,4
259,4	17,4
259,9	16,4
260,3	9,086
260,8	10,2
261,2	14,029
261,7	11,771
262,2	7,886
262,6	4,971
263,1	5,229
263,6	9,686
264	4,486
264,5	2,029
264,9	4,714
265,4	6
265,9	6,943
266,3	6
266,8	3,657
267,3	8,314
267,7	8,257
268,2	5,8
268,7	5,314
269,1	6,8
269,6	10,571
270	16,086
270,5	13,714
271	13,714
271,4	8,857
271,9	10
272,4	11,6
272,8	2,686
273,3	-2,743
273,7	-5,486
274,2	-1,314
274,7	6,114
275,1	4,686
275,6	4,086
276,1	11,657
276,5	12,229
277	11,229
277,4	6,857
277,9	7,171
278,4	10,257
278,8	9,629
279,3	5,571
279,8	10,457
280,2	11,829
280,7	7,829
281,1	11,543
281,6	10,371
282,1	10,114
282,5	15,657
283	13,257
283,4	14,914
283,9	14,457
284,4	7
284,8	7,086
285,3	5,571
285,8	0,4
286,2	-5,286
286,7	-5,371
287,1	-2,543
287,6	2,286
288,1	2,886
288,5	3,543
289	8,314
289,5	12,086
289,9	9,886
290,4	10,8
290,8	8
291,3	8
291,8	9,086
292,2	9
292,7	8,714
293,1	13,543
293,6	16,6
294,1	14,257
294,5	18,514
295	13,371
295,5	13,114
295,9	16,686
296,4	16,314
296,8	11,086
297,3	16,571
297,8	11,314
298,2	14,686
298,7	11,171
299,1	9,886
299,6	6,514
300,1	11,829
300,5	11,4
301	17,229
301,5	19,686
301,9	18,429
302,4	12,314
302,8	12,457
303,3	6,8
303,8	3,143
304,2	-4,629
304,7	-10,457
305,1	-8,143
305,6	-6,8
306,1	-5,829
306,5	-3,6
307	-5,857
307,4	-7,4
307,9	-7,486
308,4	-8,914
308,8	-2,714
309,3	-6,343
309,8	-3,514
310,2	-0,743
310,7	5,743
311,1	5,914
311,6	11,257
312,1	9,143
312,5	14,514
313	12,514
313,4	17,286
313,9	17,514
314,4	17,543
314,8	16,257
315,3	13,914
315,7	12,257
316,2	11,343
316,7	10,229
317,1	7,886
317,6	9,286
318	7,2
318,5	13,457
319	11,057
319,4	12,229
319,9	9,657
320,3	10,257
320,8	11,371
321,3	10,886
321,7	7,286
322,2	11,257
322,6	8,171
323,1	7,543
323,6	5,343
324	5,057
324,5	1,8
324,9	3,029
325,4	3,229
325,9	9,486
326,3	12,229
326,8	14,829
327,2	17
327,7	19,857
328,2	15,371
328,6	15,114
329,1	8,971
329,5	8,629
330	8,457
330,5	6,571
330,9	12,257
331,4	11,543
331,8	11,429
332,3	18,714
332,8	15,4
333,2	14,571
333,7	17,857
334,1	14,886
334,6	16,829
335,1	16,686
335,5	14,514
336	13,429
336,4	10,343
336,9	11,257
337,4	9,229
337,8	9,743
338,3	10,171
338,7	6,314
339,2	8,771
339,7	12,8
340,1	10,457
340,6	10,171
341	16,143
341,5	19,571
342	19,714
342,4	18,2
342,9	15,343
343,3	14,314
343,8	19,343
344,2	13,486
344,7	8,371
345,2	10,743
345,6	14,4
346,1	18,4
346,5	21,171
347	18,686
347,5	15,743
347,9	18,086
348,4	19,457
348,8	18,714
349,3	15,486
349,8	13,429
350,2	13,571
350,7	19,886
351,1	21,114
351,6	17,714
352	24,429
352,5	31,257
353	39,343
353,4	42
353,9	49,714
354,3	57,029
354,8	71,629
355,3	80,057
355,7	92,771
356,2	108,171
356,6	131,257
357,1	150,714
357,5	180,143
358	209,8
358,5	244,857
358,9	281,143
359,4	327,629
359,8	375,286
360,3	429,371
360,8	488,229
361,2	557
361,7	628,4
362,1	717,657
362,6	805,771
363	904,114
363,5	1013,229
364	1117,771
364,4	1226,486
364,9	1335,714
365,3	1436,571
365,8	1537,286
366,3	1636,086
366,7	1722,314
367,2	1800,2
367,6	1860,971
368,1	1911,629
368,5	1951,114
369	1966,829
369,5	1960,571
369,9	1940,257
370,4	1909,171
370,8	1870,571
371,3	1820,114
371,7	1749,457
372,2	1679,914
372,7	1602,486
373,1	1517,171
373,6	1435,6
374	1342,6
374,5	1251,971
374,9	1163,8
375,4	1077,6
375,9	1002
376,3	924,543
376,8	846,4
377,2	782,286
377,7	717,8
378,2	660,143
378,6	608
379,1	554,429
379,5	515,257
380	479,686
380,4	441,857
380,9	412,429
381,4	380,629
381,8	351,514
382,3	323,257
382,7	295,514
383,2	269,114
383,6	247,743
384,1	227,486
384,6	209,371
385	197,229
385,5	185,486
385,9	178,943
386,4	167,4
386,8	163,914
387,3	155,857
387,7	155,514
388,2	144,343
388,7	136,4
389,1	124,257
389,6	115,657
390	103,143
390,5	91,943
390,9	85,371
391,4	84,343
391,9	81,914
392,3	77,343
392,8	77,114
393,2	73,914
393,7	77,829
394,1	79,743
394,6	72,086
395,1	68,657
395,5	67,657
396	67,514
396,4	67,4
396,9	67,2
397,3	59,429
397,8	60,171
398,2	56,286
398,7	52,743
399,2	48,8
399,6	50,743
400,1	40,657
400,5	41,6
401	40,429
401,4	44,143
401,9	46,086
402,4	49,314
402,8	45,629
403,3	49,571
403,7	51,457
404,2	50,743
404,6	50,114
405,1	46,543
405,5	39,543
406	39,829
406,5	37,029
406,9	32,8
407,4	32,086
407,8	31,514
408,3	35,114
408,7	42,171
409,2	40,543
409,6	43,429
410,1	48,371
410,6	53,886
411	53,886
411,5	53,857
411,9	55,886
412,4	61,6
412,8	60,886
413,3	58,486
413,7	58,171
414,2	63,657
414,7	71,114
415,1	68,143
415,6	71,571
416	77,429
416,5	79,914
416,9	86,343
417,4	85,657
417,8	83,457
418,3	89,829
418,8	88,171
419,2	89,771
419,7	98,514
420,1	92,514
420,6	93,286
421	97,057
421,5	97,343
421,9	98,457
422,4	98,714
422,8	94,229
423,3	96,486
423,8	101,543
424,2	101,143
424,7	105,114
425,1	104,714
425,6	108,029
426	110,171
426,5	112,286
426,9	112,143
427,4	112,686
427,9	105,886
428,3	106,2
428,8	104,914
429,2	103,571
429,7	99,657
430,1	97,8
430,6	97,943
431	101,514
431,5	104,229
431,9	102,086
432,4	105,286
432,8	113,857
433,3	115,543
433,8	118,6
434,2	122,829
434,7	123,371
435,1	128,657
435,6	133,771
436	132,086
436,5	136,8
436,9	139,229
437,4	146,657
437,8	153,057
438,3	161,086
438,8	158,086
439,2	167
439,7	169,971
440,1	177,286
440,6	183,743
441	191,2
441,5	198,086
441,9	212,571
442,4	226,429
442,8	242,171
443,3	249,514
443,7	249,914
444,2	260,457
444,7	270,171
445,1	281,057
445,6	286
446	293,229
446,5	307,543
446,9	326,229
447,4	336,371
447,8	351,171
448,3	365,686
448,7	379,943
449,2	394,486
449,6	405,114
450,1	425,257
450,6	440,6
451	450,743
451,5	461,943
451,9	478,2
452,4	495,771
452,8	516,771
453,3	526,371
453,7	547,286
454,2	568,114
454,6	588,371
455,1	606,086
455,5	628,171
456	654,6
456,4	680,629
456,9	699,743
457,3	725,6
457,8	749,629
458,3	781,229
458,7	806,086
459,2	829,371
459,6	855,4
460,1	885,171
460,5	912,714
461	943,057
461,4	968,343
461,9	997,229
462,3	1028,743
462,8	1057,086
463,2	1089,914
463,7	1118,629
464,1	1154,257
464,6	1181,914
465	1212,371
465,5	1241,686
466	1275,114
466,4	1307,257
466,9	1338,943
467,3	1364,914
467,8	1410,343
468,2	1443,257
468,7	1481,743
469,1	1517,971
469,6	1552,914
470	1592,114
470,5	1630,829
470,9	1658,857
471,4	1698,714
471,8	1726,371
472,3	1755,571
472,7	1789,371
473,2	1816,914
473,6	1850,771
474,1	1876,743
474,5	1906,486
475	1947,429
475,4	1983,171
475,9	2022,314
476,4	2060
476,8	2095,771
477,3	2136,2
477,7	2173,743
478,2	2201,629
478,6	2238,057
479,1	2265,114
479,5	2293
480	2322,229
480,4	2356,171
480,9	2387,229
481,3	2414,371
481,8	2442,657
482,2	2470,457
482,7	2504,514
483,1	2533,743
483,6	2550,771
484	2569,8
484,5	2599,029
484,9	2619,8
485,4	2644,114
485,8	2663,771
486,3	2686,086
486,7	2715,514
487,2	2741,257
487,6	2767,657
488,1	2792,743
488,5	2804,857
489	2819,257
489,4	2837,171
489,9	2858,286
490,4	2879,629
490,8	2889,657
491,3	2903,8
491,7	2923,286
492,2	2951,514
492,6	2961,914
493,1	2967,686
493,5	2974,314
494	2991
494,4	3001,314
494,9	3019,257
495,3	3021,943
495,8	3034,8
496,2	3045,771
496,7	3054,657
497,1	3058,257
497,6	3068,343
498	3074,886
498,5	3079,6
498,9	3082,6
499,4	3091,457
499,8	3093,314
500,3	3097,286
500,7	3098,057
501,2	3098,029
501,6	3101,829
502,1	3107,086
502,5	3098,829
503	3111
503,4	3119,657
503,9	3129,514
504,3	3129,029
504,8	3140,8
505,2	3141,8
505,7	3158,029
506,1	3157,086
506,6	3151,8
507	3148,771
507,5	3156,229
507,9	3152,943
508,4	3162,286
508,8	3155,143
509,3	3150,429
509,7	3149,286
510,2	3146,914
510,6	3140,4
511,1	3137,714
511,5	3130,257
512	3131,257
512,4	3130,6
512,9	3130,057
513,3	3135,686
513,8	3137,629
514,2	3137,857
514,7	3135,686
515,1	3133,771
515,6	3133,371
516	3132,914
516,5	3130,143
516,9	3125,257
517,4	3122,343
517,8	3120,286
518,3	3116,429
518,7	3112,171
519,2	3114,343
519,6	3101,943
520,1	3103,086
520,5	3105,086
521	3101,8
521,4	3105,6
521,9	3109,971
522,3	3103,886
522,8	3112,8
523,2	3114,657
523,7	3113,857
524,1	3118,314
524,6	3113,114
525	3111,829
525,5	3115,543
525,9	3115,829
526,4	3110,029
526,8	3103,629
527,3	3099,743
527,7	3107,2
528,2	3103
528,6	3102,286
529,1	3095,971
529,5	3101,429
530	3107,8
530,4	3115,657
530,9	3113,086
531,3	3119,114
531,8	3121,057
532,2	3126,914
532,6	3124,143
533,1	3120,286
533,5	3115,086
534	3118,629
534,4	3117,571
534,9	3119,486
535,3	3118,686
535,8	3118,114
536,2	3123,857
536,7	3120,714
537,1	3123,229
537,6	3125,286
538	3125,543
538,5	3130,714
538,9	3143,971
539,4	3145,2
539,8	3156,714
540,3	3153,829
540,7	3162,914
541,2	3167,886
541,6	3171,429
542,1	3162,029
542,5	3165,829
543	3167,829
543,4	3178,629
543,9	3173,886
544,3	3177,6
544,8	3181,314
545,2	3188,371
545,7	3195,857
546,1	3199,057
546,5	3191,743
547	3190,857
547,4	3192,6
547,9	3192,714
548,3	3199,686
548,8	3198,771
549,2	3201,914
549,7	3210,857
550,1	3223,371
550,6	3228,857
551	3239
551,5	3238,257
551,9	3240,057
552,4	3242,943
552,8	3247,057
553,3	3253,314
553,7	3259,029
554,2	3256,171
554,6	3261,771
555,1	3268,571
555,5	3268,143
555,9	3269,971
556,4	3270,886
556,8	3269,371
557,3	3274,086
557,7	3281,229
558,2	3276,371
558,6	3281,829
559,1	3286,171
559,5	3286,543
560	3293,971
560,4	3296,657
560,9	3296,657
561,3	3305,886
561,8	3315,886
562,2	3318,6
562,7	3324,457
563,1	3324
563,6	3322,6
564	3330,2
564,4	3330,543
564,9	3323,857
565,3	3321,914
565,8	3320,4
566,2	3318,829
566,7	3318,143
567,1	3314,229
567,6	3324,457
568	3331,714
568,5	3337,914
568,9	3341,486
569,4	3345,914
569,8	3348,743
570,3	3347,314
570,7	3338,686
571,1	3337,686
571,6	3338,429
572	3336,829
572,5	3328,8
572,9	3335,771
573,4	3333,8
573,8	3332,2
574,3	3330,314
574,7	3328,886
575,2	3326,629
575,6	3331,914
576,1	3329,457
576,5	3327,029
576,9	3324,743
577,4	3318,743
577,8	3317,514
578,3	3310,343
578,7	3312,314
579,2	3307,029
579,6	3313,6
580,1	3315,743
580,5	3312,829
581	3306
581,4	3308,429
581,9	3301,743
582,3	3293,771
582,7	3286,057
583,2	3276,8
583,6	3275,8
584,1	3268,829
584,5	3268,857
585	3259,057
585,4	3258,857
585,9	3251,686
586,3	3248,514
586,8	3239,543
587,2	3236,286
587,6	3229,514
588,1	3226,286
588,5	3220,943
589	3217,514
589,4	3214,4
589,9	3212,286
590,3	3206,514
590,8	3203,343
591,2	3197,4
591,7	3194,257
592,1	3190,114
592,5	3181,057
593	3170,029
593,4	3166
593,9	3157,086
594,3	3152,4
594,8	3138,343
595,2	3135,629
595,7	3131,286
596,1	3135,971
596,6	3139,371
597	3133,4
597,4	3124,429
597,9	3123,657
598,3	3116,029
598,8	3111,457
599,2	3107,114
599,7	3091,8
600,1	3083,914
600,6	3085,714
601	3080,4
601,4	3075,229
601,9	3068,743
602,3	3060,229
602,8	3055,2
603,2	3055,114
603,7	3045,057
604,1	3043,943
604,6	3030,2
605	3022,914
605,4	3013,486
605,9	3010,171
606,3	2995,629
606,8	2989,229
607,2	2982,257
607,7	2977,8
608,1	2972,943
608,6	2963,229
609	2951,914
609,4	2948,686
609,9	2941,686
610,3	2921,4
610,8	2916,829
611,2	2901,657
611,7	2889,743
612,1	2879,286
612,6	2865,829
613	2853,457
613,4	2839,943
613,9	2834,886
614,3	2835,943
614,8	2825,857
615,2	2820,4
615,7	2817,543
616,1	2810,029
616,6	2808,457
617	2792,629
617,4	2775,143
617,9	2771,229
618,3	2762,114
618,8	2750,314
619,2	2743,686
619,7	2737,171
620,1	2722,429
620,5	2715,371
621	2703,057
621,4	2690,029
621,9	2677,171
622,3	2666,429
622,8	2650,086
623,2	2644,543
623,6	2632,8
624,1	2622,286
624,5	2613,943
625	2598,314
625,4	2582,486
625,9	2577,086
626,3	2565,4
626,8	2557,886
627,2	2547,914
627,6	2531,057
628,1	2519,057
628,5	2506,229
629	2497,429
629,4	2484,086
629,9	2469,229
630,3	2452,314
630,7	2443,629
631,2	2434,771
631,6	2426,114
632,1	2407,429
632,5	2399,971
633	2384,2
633,4	2376,114
633,8	2362,457
634,3	2349,743
634,7	2344,429
635,2	2336,943
635,6	2322,829
636,1	2318,571
636,5	2310,771
636,9	2305,286
637,4	2298,857
637,8	2278,571
638,3	2262,914
638,7	2254,629
639,2	2241,971
639,6	2227,171
640	2210,829
640,5	2198,6
640,9	2195,343
641,4	2187,571
641,8	2176,6
642,2	2166,8
642,7	2156,029
643,1	2150,343
643,6	2142,771
644	2131
644,5	2123,2
644,9	2109,743
645,3	2096
645,8	2092,743
646,2	2076,286
646,7	2064,314
647,1	2055,314
647,6	2044
648	2034,829
648,4	2029,629
648,9	2013,543
649,3	2007,6
649,8	2001,486
650,2	1987,743
650,6	1976,714
651,1	1967,2
651,5	1958,029
652	1953,971
652,4	1938,857
652,9	1928,6
653,3	1922,686
653,7	1917,886
654,2	1908,6
654,6	1895,886
655,1	1880,743
655,5	1876,343
655,9	1861,343
656,4	1853,343
656,8	1836,314
657,3	1822,057
657,7	1810,314
658,2	1798,714
658,6	1786,543
659	1776,229
659,5	1762,943
659,9	1763,4
660,4	1758,457
660,8	1752,514
661,2	1745,343
661,7	1737,514
662,1	1727,029
662,6	1719,257
663	1705,886
663,4	1693,6
663,9	1681,4
664,3	1672,029
664,8	1663
665,2	1657,8
665,6	1644,257
666,1	1629
666,5	1618,971
667	1605,571
667,4	1600,114
667,9	1587,371
668,3	1576,971
668,7	1572,857
669,2	1566,229
669,6	1563,057
670,1	1560,571
670,5	1543,114
670,9	1538,886
671,4	1530,314
671,8	1518,343
672,3	1508,143
672,7	1496,114
673,1	1487,057
673,6	1479,514
674	1469,114
674,5	1460,143
674,9	1451,514
675,3	1442,714
675,8	1430,314
676,2	1421,886
676,7	1414,4
677,1	1408,543
677,5	1400,857
678	1397,829
678,4	1390,514
678,9	1382,943
679,3	1370,971
679,7	1364,371
680,2	1353,543
680,6	1340,057
681,1	1324,714
681,5	1316,743
681,9	1311,914
682,4	1308,829
682,8	1297,829
683,3	1289,029
683,7	1283,2
684,1	1275,114
684,6	1265,629
685	1253,429
685,5	1242,257
685,9	1237,686
686,3	1231,143
686,8	1225,714
687,2	1220,629
687,7	1216,429
688,1	1213,771
688,5	1202,2
689	1197,314
689,4	1189,314
689,9	1181,714
690,3	1171,8
690,7	1163,486
691,2	1158,343
691,6	1156,429
692	1153,257
692,5	1144,171
692,9	1136,314
693,4	1135,114
693,8	1134,429
694,2	1118,143
694,7	1115
695,1	1104,971
695,6	1099,286
696	1091,657
696,4	1080
696,9	1068,571
697,3	1067,543
697,8	1054,314
698,2	1044,743
698,6	1040,514
699,1	1034,257
699,5	1025,057
699,9	1016,829
700,4	1010,4
700,8	1004,971
701,3	996,6
701,7	987,771
702,1	978,857
702,6	976,343
703	967,314
703,5	962,229
703,9	959,971
704,3	957,686
704,8	952,8
705,2	952,2
705,6	939,486
706,1	944,371
706,5	941,6
707	932
707,4	925,057
707,8	919,571
708,3	908,514
708,7	909,743
709,2	895,571
709,6	883,057
710	873,571
710,5	868,714
710,9	862,686
711,3	857,514
711,8	849,486
712,2	848,171
712,7	844,486
713,1	843,343
713,5	837,057
714	835,629
714,4	833,686
714,8	830,571
715,3	824,914
715,7	817,514
716,2	807,886
716,6	804,143
717	791,571
717,5	788
717,9	780,371
718,3	768,486
718,8	767,057
719,2	762,2
719,7	756,857
720,1	753,229
720,5	750,4
721	744,829
721,4	749,514
721,8	743,457
722,3	742,486
722,7	733,114
723,2	730,686
723,6	719,629
724	718,829
724,5	706,057
724,9	697,714
725,3	689,486
725,8	686,4
726,2	679,029
726,7	674,971
727,1	664,771
727,5	660,514
728	659,8
728,4	654,686
728,8	655,114
729,3	651,686
729,7	650
730,1	648,943
730,6	648,657
731	647,514
731,5	647,686
731,9	642,143
732,3	639,057
732,8	636
733,2	632,171
733,6	625,829
734,1	622,6
734,5	613,114
734,9	605,2
735,4	605,6
735,8	601,743
736,3	596,971
736,7	595,6
737,1	589,657
737,6	589
738	587,429
738,4	582,257
738,9	579,8
739,3	576,743
739,7	572
740,2	567,914
740,6	569,143
741,1	565,543
741,5	563,229
741,9	552,8
742,4	548,657
742,8	549,486
743,2	551,257
743,7	549,8
744,1	545,543
744,5	541,543
745	540,514
745,4	537,829
745,8	530,171
746,3	519,857
746,7	512,543
747,2	514,571
747,6	511,686
748	512,857
748,5	510,829
748,9	509
749,3	509,029
749,8	500,686
750,2	492,286
750,6	487,314
751,1	483,857
751,5	479,686
751,9	477,343
752,4	472,086
752,8	471,743
753,3	469,114
753,7	465,514
754,1	457,971
754,6	455,714
755	450,771
755,4	452,4
755,9	453,743
756,3	450,857
756,7	444,857
757,2	442,6
757,6	442,571
758	437,429
758,5	430,714
758,9	423,4
759,3	423,714
759,8	430,486
760,2	434,686
760,6	429,914
761,1	430,086
761,5	429,514
761,9	429,743
762,4	427,057
762,8	420,371
763,3	411
763,7	406,743
764,1	403,486
764,6	397,943
765	395,086
765,4	391,486
765,9	383,943
766,3	379,857
766,7	382,8
767,2	384,571
767,6	381,914
768	380,057
768,5	376,743
768,9	375,343
769,3	374,457
769,8	371,4
770,2	366,743
770,6	364,143
771,1	361,343
771,5	358,857
771,9	355,143
772,4	360,057
772,8	354,343
773,2	350,486
773,7	349,371
774,1	351,2
774,5	350,4
775	347,771
775,4	342,686
775,8	345,371
776,3	339,086
776,7	339,486
777,1	336,771
777,6	332,857
778	334,571
778,4	331,629
778,9	323,543
779,3	326,343
779,7	322,114
780,2	316,629
780,6	317,771
781	315,371
781,5	312,257
781,9	311,657
782,3	311,2
782,8	309,229
783,2	307,257
783,6	299,771
784,1	302,6
784,5	297,286
784,9	298,086
785,4	293,6
785,8	285,057
786,2	281,8
786,7	284,457
787,1	280,629
787,5	281,914
788	277,886
788,4	274,171
788,8	274,343
789,3	275,514
789,7	267,971
790,1	261,571
790,6	259,429
791	254,2
791,4	250,229
791,9	254,286
792,3	248,971
792,7	258,4
793,2	258,486
793,6	259,543
794	261,2
794,5	263,771
794,9	263,743
795,3	261,629
795,8	250,629
796,2	250,2
796,6	242,914
797,1	238,057
797,5	234,029
797,9	227,971
798,4	224,629
798,8	223,743
799,2	218,829
799,7	224,229
800,1	218,914
800,5	216,8
801	214,457
801,4	213,571
801,8	214,029
802,2	215
802,7	208
803,1	211,057
803,5	213,514
804	211,286
804,4	209,857
804,8	207,086
805,3	201,629
805,7	202
806,1	203,029
806,6	200,686
807	201,971
807,4	202,457
807,9	200,257
808,3	203,2
808,7	201,571
809,2	194,286
809,6	191,171
810	188,571
810,4	189,257
810,9	185,686
811,3	181,8
811,7	179,171
812,2	181,857
812,6	183,886
813	184,286
813,5	181,714
813,9	181,886
814,3	178,371
814,8	180,2
815,2	179,486
815,6	173,114
816,1	171,314
816,5	164,514
816,9	164,4
817,3	165,971
817,8	166,486
818,2	162,4
818,6	161,314
819,1	161,314
819,5	163,714
819,9	161,857
820,4	158,829
820,8	151,143
821,2	153,886
821,7	155,886
822,1	152,143
822,5	153,371
822,9	156,029
823,4	155,314
823,8	158,686
824,2	153,171
824,7	152,771
825,1	148,686
825,5	148,686
826	142,057
826,4	144,6
826,8	139,543
827,3	143,8
827,7	144,029
828,1	149
828,5	145,743
829	146,343
829,4	146,886
829,8	145,514
830,3	142,686
830,7	136,429
831,1	136,657
831,6	135,457
832	130,686
832,4	123,343
832,8	127,857
833,3	122,743
833,7	126,086
834,1	122,914
834,6	121,543
835	123,886
835,4	127,829
835,8	118,886
836,3	121,2
836,7	116,543
837,1	111,943
837,6	111,114
838	105,857
838,4	99,486
838,9	103,771
839,3	102,886
839,7	103,629
840,1	104,943
840,6	103,571
841	106,286
841,4	106,143
841,9	103,857
842,3	103,429
842,7	101,086
843,1	104,829
843,6	106,857
844	105,371
844,4	108,771
844,9	109,143
845,3	105,2
845,7	107,657
846,2	101,743
846,6	98
847	99,171
847,4	96,457
847,9	96,029
848,3	98,629
848,7	93,571
849,2	97,571
849,6	96,857
850	95,571
850,4	96,057
850,9	93,143
851,3	89,029
851,7	91,857
852,2	85,514
852,6	88,086
853	94,429
853,4	97
853,9	92,2
854,3	91,771
854,7	86,457
855,2	85,143
855,6	79,257
856	68,171
856,4	62,829
856,9	65,886
857,3	65,8
857,7	70,829
858,2	72,743
858,6	78,057
859	77,286
859,4	76,171
859,9	74,686
860,3	73,143
860,7	72,514
861,1	72,571
861,6	68,286
862	73,4
862,4	74,686
862,9	75,229
863,3	75,771
863,7	68,714
864,1	65,514
864,6	65,657
865	64,629
865,4	62,771
865,9	61,629
866,3	63,829
866,7	65,886
867,1	73,514
867,6	72,429
868	71,514
868,4	69,229
868,8	70,171
869,3	72,457
869,7	70,086
870,1	64,8
870,6	63,543
871	112,829
871,4	112
871,8	108,257
872,3	104
872,7	103,229
873,1	103,286
873,5	102,343
874	54,4
874,4	54,371
874,8	55,829
875,3	53,857
875,7	53,057
876,1	51,286
876,5	55,914
877	51,314
877,4	51,114
877,8	53,886
878,2	54,686
878,7	59,686
879,1	58,086
879,5	54,686
879,9	54,857
880,4	55,543
880,8	53,371
881,2	55,6
881,7	58,829
882,1	58,771
882,5	57,8
882,9	58,4
883,4	61,429
883,8	63,686
884,2	60,229
884,6	55,086
885,1	56,8
885,5	60,943
885,9	64,257
886,3	60,829
886,8	54,343
887,2	55,343
887,6	52,629
888	50,514
888,5	50,429
888,9	49,6
889,3	46,914
889,8	52,114
890,2	50,571
890,6	51,143
891	52,2
891,5	47,8
891,9	46,657
892,3	50,486
892,7	51,543
893,2	50,486
893,6	50,514
894	46,171
894,4	44,8
894,9	42,543
895,3	39,771
895,7	36,257
896,1	35,257
896,6	37,514
897	40,314
897,4	35,8
897,8	36,286
898,3	39,714
898,7	40,857
899,1	43,429
899,5	37,429
900	37,857
900,4	43,543
900,8	44
901,2	38,086
901,7	36,714
902,1	39,257
902,5	41,6
902,9	40,943
903,4	42,714
903,8	40,257
904,2	45,771
904,6	45,114
905,1	45,714
905,5	44,171
905,9	43,571
906,3	37,486
906,8	39,857
907,2	33,886
907,6	36,743
908	32,971
908,5	36,457
908,9	35,857
909,3	38,114
909,7	37,2
910,2	38,371
910,6	37,971
911	38,114
911,4	32,457
911,9	32,143
912,3	28,029
912,7	28,143
913,1	22,371
913,6	21,743
914	19,714
914,4	22,657
914,8	21,6
915,3	24,429
915,7	19,571
916,1	23,343
916,5	22,086
916,9	17,943
917,4	16,457
917,8	15,714
918,2	11,4
918,6	15,229
919,1	17,4
919,5	18,629
919,9	21,743
920,3	22,657
920,8	23,371
921,2	30,486
921,6	29,029
922	28,286
922,5	26,286
922,9	23,143
923,3	25,457
923,7	22,4
924,2	17,943
924,6	18,086
925	19,714
925,4	18,514
925,8	19,571
926,3	18,229
926,7	19,514
927,1	22,086
927,5	22,629
928	19,829
928,4	17,257
928,8	23,714
929,2	23,743
929,7	21,429
930,1	19,743
930,5	16,114
930,9	18,6
931,3	23,657
931,8	18,714
932,2	15,857
932,6	22,343
933	19,886
933,5	23,171
933,9	23,057
934,3	18,857
934,7	21,8
935,2	26,686
935,6	21,057
936	22,514
936,4	18,371
936,8	14,429
937,3	13,114
937,7	10,8
938,1	5,943
938,5	8,657
939	10,429
939,4	13,943
939,8	17,2
940,2	17,057
940,6	14,457
941,1	18,571
941,5	16,2
941,9	15,286
942,3	10,257
942,8	12,229
943,2	13,171
943,6	16,171
944	12,086
944,4	8,429
944,9	9,486
945,3	16,229
945,7	12,6
946,1	11
946,6	9,714
947	11,971
947,4	16,686
947,8	16,886
948,2	12,857
948,7	13,8
949,1	11,771
949,5	9,971
949,9	11,371
950,3	13,029
950,8	10,257
951,2	11,429
951,6	11,029
952	11,914
952,5	10,8
952,9	5,257
953,3	0,514
953,7	7,429
954,1	9,514
954,6	9,086
955	9,971
955,4	9,514
955,8	15,686
956,2	14
956,7	9,629
957,1	7,514
957,5	6,486
957,9	9,886
958,3	16,486
958,8	18,057
959,2	19,971
959,6	20,457
960	19,886
960,5	16,629
960,9	16,4
961,3	14,143
961,7	6,971
962,1	7,086
962,6	3,971
963	0,829
963,4	8,343
963,8	9,571
964,2	8,143
964,7	9,486
965,1	10,457
965,5	13,771
965,9	18,286
966,3	13
966,8	7,714
967,2	11,514
967,6	14,114
968	16,886
968,4	14,286
968,9	18
969,3	20,6
969,7	23,343
970,1	18
970,5	16,943
971	10,171
971,4	12,743
971,8	9,6
972,2	9,486
972,6	7,543
973,1	10,429
973,5	9,6
973,9	15,457
974,3	13,486
974,7	10,371
975,2	8,714
975,6	5,8
976	6,514
976,4	3,943
976,8	1,857
977,3	0,629
977,7	3,943
978,1	-1,429
978,5	3,543
978,9	1,314
979,4	5,543
979,8	9,2
980,2	4,029
980,6	-1,571
981	3,714
981,5	4,571
981,9	2,8
982,3	-1,429
982,7	-6,257
983,1	-0,114
983,6	1,543
984	4,714
984,4	7,114
984,8	9,343
985,2	8,886
985,6	15,714
986,1	13,914
986,5	9,8
986,9	7,686
987,3	3,943
987,7	5,343
988,2	9,514
988,6	6,486
989	11,286
989,4	18,943
989,8	16,086
990,3	15,714
990,7	9,771
991,1	1,943
991,5	-1,771
991,9	-0,286
992,3	-3,943
992,8	2,943
993,2	3,4
993,6	9,114
994	14,229
994,4	14,914
994,9	12,657
995,3	12,343
995,7	8,629
996,1	5
996,5	5,057
996,9	6,029
997,4	7,257
997,8	6,114
998,2	9,114
998,6	8,171
999	14,771
999,5	10,029
999,9	11,229
1000,3	15,8
1000,7	14,657
1001,1	13,914
1001,5	12,029
1002	7,886
1002,4	10,8
1002,8	9,971
1003,2	6,4
1003,6	8,571
1004	5,857
1004,5	5,6
1004,9	5,114
1005,3	5,714
1005,7	0,857
1006,1	-4,257
1006,6	-7,629
1007	-5,514
1007,4	-4,657
1007,8	-3,314
1008,2	-3,457
1008,6	-5,514
1009,1	-5,514
1009,5	1,486
1009,9	4,743
1010,3	8,714
1010,7	11,657
1011,1	14,914
1011,6	18,657
1012	19,571
1012,4	17
1012,8	11,114
1013,2	9,4
1013,6	6,657
1014,1	3,943
1014,5	6,029
1014,9	9,686
1015,3	6,086
1015,7	6,686
1016,1	7,057
1016,6	9,343
1017	8,714
1017,4	6,886
1017,8	6,486
1018,2	4,686
1018,6	4,571
1019,1	-2,057
1019,5	-3,657
1019,9	-1,629
1020,3	0,486
1020,7	1,629
1021,1	4,857
1021,6	3,257
1022	7,343
1022,4	11,143
1022,8	12,057
1023,2	14,771
1023,6	12,657
1024,1	13,4
1024,5	13,914
1024,9	19,857
1025,3	15,171
1025,7	10,086
1026,1	9,857
1026,6	16,943
1027	13,057
1027,4	14,343
1027,8	8,8
1028,2	9,6
1028,6	10,543
1029	5,657
1029,5	2,514
1029,9	3,114
1030,3	8,914
1030,7	9,543
1031,1	8,771
1031,5	5,857
1032	8,914
1032,4	4,857
1032,8	5,2
1033,2	1,457
1033,6	5,743
1034	6,629
1034,4	13,971
1034,9	11,2
1035,3	17,286
1035,7	19,657
1036,1	16,686
1036,5	9,114
1036,9	5,6
1037,4	5,086
1037,8	4,829
1038,2	-9,686
1038,6	-14,4
1039	-11,171
1039,4	-8,343
1039,8	-8,943
1040,3	-13,2
1040,7	-16,086
1041,1	-6,686
1041,5	-6,114
1041,9	-10,286
1042,3	-10,086
1042,7	-4,829
1043,2	-6,257
1043,6	3,486
1044	2,114
1044,4	1,457
1044,8	0,057
1045,2	5,086
1045,6	3,286
1046,1	8,371
1046,5	6,629
1046,9	7,714
1047,3	9,371
1047,7	9,971
1048,1	2,057
1048,5	4,4
1049	4,514
1049,4	3,943
1049,8	2,486
1050,2	3,4
1050,6	12,571
1051	16,543
1051,4	10,943
1051,9	9,971
1052,3	3,143
1052,7	3,914
1053,1	3
1053,5	0,114
1053,9	1,229
1054,3	-3,371
1054,8	1,914
1055,2	6,486
1055,6	7,486
1056	10,229
1056,4	8,714
1056,8	9,2
1057,2	18,714
1057,6	9,057
1058,1	8,714
1058,5	7
1058,9	5,629
1059,3	8,714
1059,7	2,971
1060,1	-0,086
1060,5	-0,743
1061	-3,914
1061,4	-0,114
1061,8	-3,029
1062,2	-4,543
1062,6	1,4
1063	1
1063,4	3,743
1063,8	7,286
1064,3	7,229
1064,7	6,171
1065,1	4,057
1065,5	1,143
1065,9	3,943
1066,3	2,429
1066,7	-1,143
1067,1	-5,514
1067,6	1,457
1068	-1,514
1068,4	2
1068,8	0,429
1069,2	4,314
1069,6	9,343
1070	14,114
1070,4	11,286
1070,9	12
1071,3	8,829
1071,7	8,371
1072,1	13,114
1072,5	13,286
1072,9	14,771
1073,3	14,257
1073,7	12,943
1074,2	14,914
1074,6	14,229
1075	9,029
1075,4	7,314
1075,8	4,486
1076,2	2,229
1076,6	7,114
1077	2,343
1077,5	4,886
1077,9	5,371
1078,3	3,543
1078,7	5,057
1079,1	7,743
1079,5	5,657
1079,9	9,914
1080,3	7,8
1080,7	10,371
1081,2	13,229
1081,6	13,314
1082	15,114
1082,4	16
1082,8	13,743
1083,2	10,857
1083,6	7,686
1084	3,886
1084,5	3,686
1084,9	-0,086
1085,3	0,029
1085,7	-2,4
1086,1	-1,686
1086,5	1,086
1086,9	6,514
1087,3	5,2
1087,7	12,2
1088,2	7,914
1088,6	9,514
1089	7,771
1089,4	5,514
1089,8	4,343
1090,2	2,971
1090,6	-4,314
1091	0,714
1091,4	3,857
1091,9	7,343
1092,3	5,229
1092,7	5,543
1093,1	2,343
1093,5	4,057
1093,9	0,943
1094,3	1,886
1094,7	5,2
1095,1	4,171
1095,5	-0,629
1096	1,629
1096,4	4,657
1096,8	3,6
1097,2	2,8
1097,6	-0,8
1098	4,086
1098,4	9,6
1098,8	10,4
1099,2	5,886
1099,6	10,086
1100,1	7,486
1100,5	12,886
1100,9	8,886
1101,3	8,114
1101,7	12,143
1102,1	15,486
1102,5	11,743
1102,9	8,657
1103,3	4,229
1103,7	5,629
1104,2	7,257
1104,6	6,629
1105	3,686
1105,4	4,8
1105,8	8,429
1106,2	8,257
1106,6	6,143
1107	2,029
1107,4	-2,2
1107,8	-1,52
1108,3	-0,1
