Data from Subt2_330.txt Node
Date: Sat Aug 26 19:19:43 MSK 2023
User: vat
Spectrometer: MAYP114033
Trigger mode: 0
Integration Time (sec): 1,000000E0
Scans to average: 5
Electric dark correction enabled: true
Nonlinearity correction enabled: false
Boxcar width: 3
XAxis mode: Wavelengths
Number of Pixels in Spectrum: 2068
>>>>>Begin Spectral Data<<<<<
199,4	-0,367
199,9	4,713
200,4	4,467
200,8	6,233
201,3	3,69
201,8	8,833
202,2	7,776
202,7	12,919
203,2	9,919
203,6	12,548
204,1	9,548
204,6	14,576
205	13,662
205,5	16,319
206	12,919
206,4	14,176
206,9	12,176
207,4	16,176
207,8	13,262
208,3	11,719
208,8	9,576
209,2	10,262
209,7	12,233
210,2	14,519
210,6	12,005
211,1	14,69
211,5	10,976
212	13,348
212,5	12,805
212,9	7,005
213,4	6,833
213,9	4,633
214,3	6,148
214,8	11,605
215,3	11,662
215,7	15,348
216,2	20,49
216,7	20,462
217,1	21,49
217,6	22,976
218,1	20,805
218,5	16,976
219	9,205
219,5	8,49
219,9	6,605
220,4	16,148
220,9	12,29
221,3	11,948
221,8	15,148
222,3	19,89
222,7	20,176
223,2	22,119
223,6	13,519
224,1	13,862
224,6	10,748
225	10,319
225,5	8,69
226	6,49
226,4	4,376
226,9	4,376
227,4	3,005
227,8	-0,31
228,3	-2,367
228,8	-5,71
229,2	-2,852
229,7	-5,31
230,2	-3,51
230,6	2,519
231,1	11,262
231,5	16,633
232	21,776
232,5	18,576
232,9	21,548
233,4	22,205
233,9	15,576
234,3	13,519
234,8	9,576
235,3	6,519
235,7	8,605
236,2	10,548
236,7	9,69
237,1	12,69
237,6	7,262
238,1	6,805
238,5	2,776
239	4,148
239,4	5,576
239,9	0,776
240,4	0,433
240,8	7,805
241,3	7,719
241,8	14,519
242,2	11,119
242,7	6,633
243,2	13,005
243,6	11,29
244,1	9,376
244,6	13,976
245	11,405
245,5	12,748
245,9	11,233
246,4	7,376
246,9	11,09
247,3	13,605
247,8	13,09
248,3	15,519
248,7	15,233
249,2	18,948
249,7	20,69
250,1	20,948
250,6	15,976
251	14,09
251,5	12,605
252	14,519
252,4	13,633
252,9	12,348
253,4	7,519
253,8	5,862
254,3	6,176
254,8	3,862
255,2	-2,281
255,7	-4,71
256,1	1,09
256,6	2,862
257,1	7,148
257,5	0,948
258	3,233
258,5	9,748
258,9	9,89
259,4	4,948
259,9	8,062
260,3	-0,281
260,8	0,262
261,2	-0,224
261,7	1,462
262,2	2,805
262,6	3,09
263,1	2,833
263,6	8,176
264	14,148
264,5	15,462
264,9	9,976
265,4	14,633
265,9	12,976
266,3	15,062
266,8	16,919
267,3	14,49
267,7	11,49
268,2	12,719
268,7	9,205
269,1	11,148
269,6	2,976
270	5,919
270,5	6,605
271	10,348
271,4	13,205
271,9	6,376
272,4	9,976
272,8	10,319
273,3	6,062
273,7	3,462
274,2	0,433
274,7	-2,767
275,1	1,29
275,6	-3,195
276,1	-1,395
276,5	3,148
277	5,633
277,4	8,69
277,9	10,948
278,4	13,148
278,8	15,148
279,3	17,233
279,8	18,119
280,2	23,062
280,7	23,433
281,1	19,262
281,6	19,376
282,1	19,462
282,5	18,119
283	10,862
283,4	6,633
283,9	7,348
284,4	14,662
284,8	14,976
285,3	11,405
285,8	15,033
286,2	16,748
286,7	17,233
287,1	12,662
287,6	8,205
288,1	1,119
288,5	6,319
289	3,148
289,5	3,748
289,9	0,605
290,4	4,69
290,8	4,49
291,3	11,462
291,8	8,005
292,2	7,405
292,7	13,205
293,1	15,176
293,6	18,319
294,1	22,976
294,5	22,119
295	23,348
295,5	27,205
295,9	22,148
296,4	21,519
296,8	18,119
297,3	12,633
297,8	9,919
298,2	5,319
298,7	5,433
299,1	8,662
299,6	7,29
300,1	7,89
300,5	11,005
301	13,605
301,5	21,119
301,9	17,033
302,4	12,89
302,8	13,862
303,3	13,976
303,8	7,433
304,2	6,348
304,7	5,148
305,1	3,376
305,6	7,119
306,1	16,376
306,5	15,948
307	24,205
307,4	26,948
307,9	24,862
308,4	26,148
308,8	17,633
309,3	10,033
309,8	8,09
310,2	4,719
310,7	1,576
311,1	0,233
311,6	1,033
312,1	7,805
312,5	10,662
313	13,633
313,4	14,062
313,9	17,119
314,4	18,862
314,8	15,776
315,3	15,862
315,7	10,519
316,2	9,233
316,7	10,89
317,1	16,29
317,6	15,719
318	23,776
318,5	20,062
319	22,262
319,4	22,148
319,9	23,119
320,3	20,233
320,8	21,576
321,3	19,719
321,7	20,262
322,2	18,69
322,6	17,262
323,1	13,205
323,6	10,948
324	9,662
324,5	3,205
324,9	8,348
325,4	7,862
325,9	11,119
326,3	14,805
326,8	14,862
327,2	9,205
327,7	12,319
328,2	10,09
328,6	16,433
329,1	11,605
329,5	7,519
330	7,262
330,5	9,805
330,9	14,062
331,4	14,519
331,8	10,033
332,3	16,348
332,8	22,29
333,2	19,033
333,7	23,433
334,1	21,519
334,6	18,09
335,1	14,833
335,5	11,548
336	5,605
336,4	11,09
336,9	14,005
337,4	14,205
337,8	16,662
338,3	20,29
338,7	21,319
339,2	20,69
339,7	20,519
340,1	14,205
340,6	15,719
341	15,433
341,5	18,548
342	16,69
342,4	17,005
342,9	16,576
343,3	21,119
343,8	18,09
344,2	17,89
344,7	21,119
345,2	24,29
345,6	27,233
346,1	26,69
346,5	23,262
347	20,319
347,5	17,748
347,9	14,748
348,4	14,462
348,8	13,348
349,3	12,776
349,8	16,948
350,2	26,976
350,7	29,719
351,1	29,519
351,6	29,462
352	34,29
352,5	37,862
353	46,633
353,4	49,405
353,9	61,119
354,3	75,29
354,8	86,862
355,3	105,662
355,7	129,49
356,2	150,605
356,6	177,433
357,1	211,862
357,5	246,319
358	294,948
358,5	336,719
358,9	387,433
359,4	442,548
359,8	509,976
360,3	586,662
360,8	667,862
361,2	757,948
361,7	867,49
362,1	986,062
362,6	1115,919
363	1249,176
363,5	1387,262
364	1541,719
364,4	1692,376
364,9	1850,033
365,3	2001,748
365,8	2144,319
366,3	2286,233
366,7	2412,69
367,2	2521,748
367,6	2609,148
368,1	2675,233
368,5	2721,205
369	2749,233
369,5	2754,748
369,9	2734,462
370,4	2693,205
370,8	2639,005
371,3	2565,205
371,7	2477,09
372,2	2373,919
372,7	2254,462
373,1	2137,433
373,6	2009,633
374	1888,69
374,5	1761,89
374,9	1636,833
375,4	1519,862
375,9	1409,033
376,3	1300,89
376,8	1202,205
377,2	1104,09
377,7	1011,005
378,2	925,719
378,6	849,662
379,1	779,319
379,5	715,89
380	661,519
380,4	607,719
380,9	563,29
381,4	522,462
381,8	482,805
382,3	448,29
382,7	416,319
383,2	385,805
383,6	357,748
384,1	332,662
384,6	308,49
385	283,119
385,5	261,062
385,9	240,433
386,4	220,89
386,8	206,919
387,3	191,69
387,7	181,976
388,2	175,605
388,7	168,49
389,1	159,376
389,6	153,548
390	145,776
390,5	142,176
390,9	136,862
391,4	127,405
391,9	116,805
392,3	112,776
392,8	100,062
393,2	95,376
393,7	87,119
394,1	81,262
394,6	77,719
395,1	78,833
395,5	75,805
396	76,405
396,4	72,205
396,9	69,49
397,3	70,405
397,8	68,948
398,2	63,633
398,7	60,319
399,2	61,005
399,6	58,09
400,1	55,748
400,5	45,033
401	44,462
401,4	42,633
401,9	40,462
402,4	41,262
402,8	40,833
403,3	44,29
403,7	44,176
404,2	47,09
404,6	48,376
405,1	49,805
405,5	44,89
406	46,29
406,5	43,919
406,9	49,148
407,4	42,319
407,8	43,405
408,3	43,948
408,7	45,776
409,2	48,462
409,6	49,805
410,1	50,976
410,6	60,262
411	60,062
411,5	60,348
411,9	63,062
412,4	65,519
412,8	66,233
413,3	65,462
413,7	62,348
414,2	61,605
414,7	66,462
415,1	69,233
415,6	70,662
416	74,433
416,5	75,833
416,9	75,062
417,4	82,062
417,8	86,548
418,3	87,633
418,8	87,948
419,2	86,976
419,7	88,29
420,1	90,176
420,6	89,833
421	86,919
421,5	89,062
421,9	89,833
422,4	91,748
422,8	93,29
423,3	96,119
423,8	91,462
424,2	85,433
424,7	83,519
425,1	86,662
425,6	86,833
426	84,519
426,5	81,033
426,9	84,262
427,4	83,148
427,9	79,348
428,3	77,862
428,8	73,262
429,2	71,948
429,7	69,29
430,1	65,433
430,6	68,49
431	66,176
431,5	62,005
431,9	58,69
432,4	57,719
432,8	62,776
433,3	62,319
433,8	60,919
434,2	64,605
434,7	65,548
435,1	66,833
435,6	66,405
436	61,49
436,5	65,576
436,9	62,348
437,4	60,919
437,8	60,29
438,3	62,805
438,8	60,605
439,2	61,119
439,7	58,605
440,1	65,862
440,6	72,233
441	68,062
441,5	71,519
441,9	78,49
442,4	79,662
442,8	79,519
443,3	81,576
443,7	79,205
444,2	87,405
444,7	90,233
445,1	93,633
445,6	95,205
446	103,233
446,5	100,005
446,9	97,519
447,4	97,005
447,8	97,976
448,3	99,319
448,7	104,776
449,2	106,576
449,6	115,576
450,1	121,433
450,6	130,033
451	136,262
451,5	140,805
451,9	147,69
452,4	152,29
452,8	152,262
453,3	162,405
453,7	161,062
454,2	162,348
454,6	166,576
455,1	169,405
455,5	173,69
456	185,89
456,4	184,205
456,9	194,119
457,3	200,29
457,8	200,148
458,3	211,805
458,7	212,69
459,2	213,519
459,6	222,633
460,1	228,376
460,5	234,148
461	247,262
461,4	245,233
461,9	254,519
462,3	263,433
462,8	272,262
463,2	275,805
463,7	283,262
464,1	293,433
464,6	304,005
465	313,776
465,5	321,148
466	325,919
466,4	335,948
466,9	348,176
467,3	351,776
467,8	363,09
468,2	371,976
468,7	378,833
469,1	394,49
469,6	409,719
470	417,433
470,5	425,205
470,9	430,69
471,4	437,062
471,8	449,776
472,3	458,519
472,7	464,319
473,2	466,405
473,6	476,862
474,1	489,205
474,5	499,176
475	506,719
475,4	515,49
475,9	524,605
476,4	536,605
476,8	547,576
477,3	553,89
477,7	568,405
478,2	578,09
478,6	581,176
479,1	586,862
479,5	595,662
480	599,976
480,4	609,576
480,9	613,49
481,3	615,833
481,8	626,976
482,2	628,262
482,7	635,605
483,1	644,348
483,6	646,862
484	647,519
484,5	659,49
484,9	664,319
485,4	678,062
485,8	682,062
486,3	687,805
486,7	696,348
487,2	706,062
487,6	710,662
488,1	710,033
488,5	708,748
489	716,662
489,4	723,576
489,9	727,005
490,4	730,376
490,8	730,633
491,3	743,233
491,7	746,833
492,2	753,405
492,6	755,89
493,1	758,005
493,5	758,405
494	758,976
494,4	760,405
494,9	766,262
495,3	769,748
495,8	770,519
496,2	776,662
496,7	777,262
497,1	788,29
497,6	786,976
498	789,919
498,5	791,405
498,9	793,119
499,4	791,748
499,8	801,148
500,3	799,119
500,7	797,633
501,2	799,262
501,6	791,062
502,1	791,176
502,5	796,462
503	797,548
503,4	794,262
503,9	796,776
504,3	794,633
504,8	797,976
505,2	799,062
505,7	789,348
506,1	787,005
506,6	788,49
507	787,49
507,5	795,548
507,9	796,09
508,4	793,205
508,8	801,576
509,3	798,548
509,7	803,89
510,2	807,29
510,6	799,719
511,1	798,919
511,5	805,09
512	801,662
512,4	803,405
512,9	802,148
513,3	801,262
513,8	802,805
514,2	809,948
514,7	804,748
515,1	806,862
515,6	808,319
516	804,805
516,5	811,776
516,9	813,633
517,4	808,405
517,8	812,09
518,3	812,09
518,7	813,148
519,2	816,576
519,6	809,633
520,1	810,233
520,5	814,576
521	812,862
521,4	812,89
521,9	814,605
522,3	814,29
522,8	818,576
523,2	819,89
523,7	819,576
524,1	827,005
524,6	829,948
525	833,262
525,5	832,405
525,9	834,376
526,4	833,433
526,8	833,062
527,3	830,348
527,7	829,348
528,2	831,176
528,6	829,776
529,1	827,719
529,5	833,805
530	836,49
530,4	840,405
530,9	843,748
531,3	843,205
531,8	853,376
532,2	858,005
532,6	856,319
533,1	856,49
533,5	858,09
534	861,519
534,4	864,833
534,9	861,062
535,3	859,119
535,8	860,748
536,2	868,919
536,7	868,833
537,1	868,376
537,6	868,319
538	875,29
538,5	880,148
538,9	883,548
539,4	884,233
539,8	888,976
540,3	890,976
540,7	892,319
541,2	890,033
541,6	890,405
542,1	893,405
542,5	897,033
543	895,033
543,4	895,748
543,9	905,262
544,3	915,976
544,8	917,719
545,2	919,548
545,7	918,119
546,1	921,576
546,5	926,319
547	923,405
547,4	921,69
547,9	923,29
548,3	924,976
548,8	928,976
549,2	927,919
549,7	932,205
550,1	939,69
550,6	940,319
551	943,919
551,5	947,633
551,9	946,948
552,4	954,89
552,8	956,776
553,3	947,976
553,7	944,976
554,2	949,319
554,6	949,748
555,1	953,262
555,5	951,948
555,9	953,862
556,4	956,776
556,8	960,548
557,3	963,776
557,7	965,405
558,2	964,433
558,6	969,033
559,1	968,89
559,5	977,548
560	977,433
560,4	977,462
560,9	982,405
561,3	984,348
561,8	983,148
562,2	989,262
562,7	986,148
563,1	996,062
563,6	993,862
564	992,176
564,4	994,948
564,9	999,262
565,3	995,319
565,8	996,176
566,2	994,948
566,7	1003,348
567,1	1008,833
567,6	1010,748
568	1009,433
568,5	1013,519
568,9	1015,033
569,4	1014,805
569,8	1012,405
570,3	1006,576
570,7	1004,319
571,1	1006,376
571,6	1004,633
572	1009,348
572,5	1009,376
572,9	1005,576
573,4	1007,748
573,8	1012,376
574,3	1012,376
574,7	1013,919
575,2	1006,805
575,6	1003,805
576,1	1006,519
576,5	1009,205
576,9	1006,033
577,4	1005,348
577,8	1002,49
578,3	1006,205
578,7	1014,005
579,2	1018,29
579,6	1013,005
580,1	1010,605
580,5	1009,148
581	1009,29
581,4	1005,576
581,9	997,433
582,3	993,205
582,7	997,433
583,2	1000,262
583,6	999,433
584,1	1001,662
584,5	1005,576
585	1008,29
585,4	1003,69
585,9	995,833
586,3	999,005
586,8	1004,89
587,2	1000,605
587,6	1004,405
588,1	1006,233
588,5	1009,348
589	1014,405
589,4	1005,805
589,9	1002,062
590,3	1000,119
590,8	993,262
591,2	993,748
591,7	992,176
592,1	991,348
592,5	997,748
593	990,033
593,4	989,205
593,9	983,576
594,3	976,319
594,8	974,633
595,2	969,205
595,7	965,205
596,1	967,205
596,6	968,89
597	969,09
597,4	967,805
597,9	966,233
598,3	968,062
598,8	959,919
599,2	957,033
599,7	954,805
600,1	951,548
600,6	947,205
601	943,576
601,4	942,748
601,9	951,033
602,3	945,262
602,8	941,776
603,2	938,319
603,7	933,262
604,1	931,176
604,6	923,776
605	915,433
605,4	925,719
605,9	922,776
606,3	918,119
606,8	916,69
607,2	912,376
607,7	906,919
608,1	903,433
608,6	893,233
609	891,69
609,4	900,319
609,9	900,233
610,3	900,633
610,8	907,348
611,2	904,748
611,7	900,433
612,1	900,148
612,6	894,662
613	897,005
613,4	895,062
613,9	885,033
614,3	882,976
614,8	881,062
615,2	873,29
615,7	870,633
616,1	865,605
616,6	859,833
617	860,09
617,4	857,719
617,9	859,662
618,3	862,548
618,8	859,605
619,2	856,576
619,7	859,919
620,1	858,405
620,5	860,633
621	853,433
621,4	846,576
621,9	840,833
622,3	832,805
622,8	821,262
623,2	817,862
623,6	808,662
624,1	806,633
624,5	805,719
625	809,062
625,4	815,062
625,9	817,205
626,3	811,348
626,8	806,89
627,2	803,719
627,6	792,319
628,1	781,919
628,5	775,748
629	768,519
629,4	767,805
629,9	764,89
630,3	758,49
630,7	757,033
631,2	754,233
631,6	749,233
632,1	745,233
632,5	742,833
633	742,405
633,4	736,376
633,8	734,233
634,3	727,833
634,7	719,176
635,2	718,576
635,6	710,919
636,1	701,119
636,5	700,119
636,9	695,062
637,4	694,062
637,8	690,69
638,3	683,033
638,7	680,69
639,2	681,176
639,6	680,319
640	672,205
640,5	668,433
640,9	665,919
641,4	666,033
641,8	664,69
642,2	659,09
642,7	655,605
643,1	667,376
643,6	661,862
644	660,233
644,5	658,719
644,9	653,119
645,3	647,519
645,8	641,119
646,2	633,462
646,7	634,948
647,1	634,376
647,6	632,405
648	635,262
648,4	637,519
648,9	638,005
649,3	633,833
649,8	629,69
650,2	624,776
650,6	619,348
651,1	610,605
651,5	608,548
652	602,548
652,4	597,948
652,9	598,233
653,3	595,462
653,7	591,976
654,2	588,948
654,6	578,633
655,1	581,862
655,5	584,748
655,9	577,49
656,4	572,69
656,8	572,69
657,3	572,148
657,7	574,233
658,2	568,119
658,6	556,319
659	554,69
659,5	550,719
659,9	547,033
660,4	544,605
660,8	542,862
661,2	537,09
661,7	541,376
662,1	539,405
662,6	538,748
663	534,862
663,4	529,776
663,9	528,062
664,3	527,376
664,8	518,576
665,2	514,776
665,6	509,519
666,1	507,062
666,5	505,833
667	498,776
667,4	493,405
667,9	491,948
668,3	485,433
668,7	481,033
669,2	479,005
669,6	473,519
670,1	472,233
670,5	469,462
670,9	464,69
671,4	464,319
671,8	467,833
672,3	466,176
672,7	464,233
673,1	455,833
673,6	453,89
674	455,49
674,5	454,062
674,9	444,662
675,3	438,205
675,8	436,633
676,2	437,405
676,7	431,462
677,1	428,462
677,5	423,176
678	425,805
678,4	424,462
678,9	421,062
679,3	419,862
679,7	420,176
680,2	413,262
680,6	408,319
681,1	404,69
681,5	407,319
681,9	406,548
682,4	404,69
682,8	404,748
683,3	408,262
683,7	411,176
684,1	409,005
684,6	400,205
685	396,805
685,5	396,548
685,9	392,462
686,3	385,119
686,8	383,662
687,2	379,319
687,7	376,262
688,1	370,776
688,5	366,376
689	363,605
689,4	362,919
689,9	359,205
690,3	356,576
690,7	357,833
691,2	361,633
691,6	362,49
692	364,205
692,5	362,548
692,9	361,662
693,4	357,919
693,8	352,776
694,2	345,719
694,7	336,005
695,1	330,062
695,6	328,69
696	329,09
696,4	326,548
696,9	324,29
697,3	325,976
697,8	330,262
698,2	332,176
698,6	330,805
699,1	324,776
699,5	330,576
699,9	329,176
700,4	319,176
700,8	316,776
701,3	313,376
701,7	308,833
702,1	310,433
702,6	302,976
703	304,748
703,5	308,148
703,9	305,205
704,3	304,805
704,8	300,662
705,2	295,662
705,6	295,348
706,1	288,919
706,5	287,376
707	288,09
707,4	286,89
707,8	287,748
708,3	289,148
708,7	290,948
709,2	290,548
709,6	286,433
710	285,833
710,5	281,119
710,9	280,662
711,3	275,49
711,8	274,09
712,2	273,948
712,7	272,176
713,1	272,633
713,5	272,405
714	273,919
714,4	272,233
714,8	267,405
715,3	262,49
715,7	267,805
716,2	258,09
716,6	257,233
717	250,062
717,5	248,262
717,9	247,976
718,3	249,29
718,8	243,005
719,2	244,919
719,7	241,376
720,1	241,805
720,5	243,033
721	238,719
721,4	239,376
721,8	240,033
722,3	236,376
722,7	239,69
723,2	234,69
723,6	225,748
724	222,433
724,5	217,29
724,9	214,69
725,3	215,748
725,8	210,833
726,2	214,805
726,7	215,005
727,1	213,919
727,5	214,862
728	212,748
728,4	212,776
728,8	212,176
729,3	208,49
729,7	208,548
730,1	210,976
730,6	211,462
731	205,462
731,5	201,233
731,9	198,719
732,3	196,833
732,8	198,776
733,2	199,033
733,6	196,348
734,1	202,976
734,5	202,776
734,9	200,976
735,4	201,49
735,8	193,49
736,3	194,262
736,7	194,176
737,1	190,176
737,6	188,605
738	189,662
738,4	188,462
738,9	195,49
739,3	187,576
739,7	186,49
740,2	182,376
740,6	184,319
741,1	183,49
741,5	178,49
741,9	174,805
742,4	180,776
742,8	181,548
743,2	185,033
743,7	180,633
744,1	176,748
744,5	177,09
745	177,548
745,4	173,576
745,8	168,348
746,3	167,462
746,7	166,862
747,2	166,433
747,6	172,433
748	175,433
748,5	175,348
748,9	174,176
749,3	172,376
749,8	171,976
750,2	167,405
750,6	158,433
751,1	157,976
751,5	154,233
751,9	154,605
752,4	157,948
752,8	157,576
753,3	159,976
753,7	165,576
754,1	158,433
754,6	158,176
755	154,862
755,4	148,776
755,9	150,319
756,3	151,148
756,7	150,005
757,2	150,262
757,6	152,69
758	153,919
758,5	154,89
758,9	152,633
759,3	151,49
759,8	149,176
760,2	144,89
760,6	145,29
761,1	143,033
761,5	145,29
761,9	143,519
762,4	140,805
762,8	140,09
763,3	139,805
763,7	136,09
764,1	134,719
764,6	133,548
765	136,49
765,4	137,033
765,9	135,776
766,3	138,833
766,7	135,719
767,2	136,89
767,6	133,29
768	126,09
768,5	123,176
768,9	122,948
769,3	118,519
769,8	121,49
770,2	119,548
770,6	118,119
771,1	120,119
771,5	123,976
771,9	122,89
772,4	129,948
772,8	126,319
773,2	125,748
773,7	123,405
774,1	124,605
774,5	119,348
775	118,948
775,4	116,948
775,8	115,519
776,3	117,662
776,7	116,09
777,1	116,262
777,6	117,548
778	117,319
778,4	111,319
778,9	114,833
779,3	112,462
779,7	115,033
780,2	112,262
780,6	112,519
781	108,319
781,5	111,29
781,9	105,605
782,3	100,519
782,8	99,548
783,2	93,233
783,6	91,69
784,1	93,405
784,5	87,062
784,9	87,576
785,4	93,519
785,8	94,919
786,2	104,09
786,7	104,605
787,1	100,033
787,5	102,862
788	105,49
788,4	102,69
788,8	99,319
789,3	90,205
789,7	89,605
790,1	94,119
790,6	92,776
791	86,49
791,4	89,09
791,9	86,662
792,3	85,548
792,7	88,719
793,2	84,119
793,6	86,776
794	93,176
794,5	89,862
794,9	90,976
795,3	96,919
795,8	93,405
796,2	94,348
796,6	92,605
797,1	90,348
797,5	88,719
797,9	86,662
798,4	84,69
798,8	82,633
799,2	83,605
799,7	85,29
800,1	84,29
800,5	85,233
801	87,89
801,4	85,119
801,8	84,262
802,2	82,633
802,7	76,948
803,1	76,862
803,5	77,548
804	73,633
804,4	76,09
804,8	78,376
805,3	80,119
805,7	82,719
806,1	79,919
806,6	80,833
807	82,148
807,4	80,748
807,9	76,805
808,3	76,319
808,7	73,833
809,2	75,605
809,6	76,576
810	78,348
810,4	76,062
810,9	76,405
811,3	76,033
811,7	77,119
812,2	78,205
812,6	71,576
813	73,49
813,5	76,462
813,9	71,433
814,3	69,548
814,8	67,776
815,2	64,376
815,6	64,519
816,1	62,005
816,5	57,233
816,9	63,805
817,3	62,233
817,8	65,948
818,2	65,862
818,6	61,919
819,1	59,005
819,5	60,976
819,9	60,633
820,4	60,405
820,8	54,49
821,2	51,29
821,7	57,633
822,1	62,805
822,5	67,262
822,9	67,233
823,4	70,405
823,8	73,862
824,2	77,948
824,7	73,805
825,1	66,976
825,5	60,576
826	60,29
826,4	57,576
826,8	57,919
827,3	59,719
827,7	59,148
828,1	62,405
828,5	63,605
829	53,748
829,4	54,69
829,8	47,719
830,3	47,09
830,7	46,662
831,1	44,69
831,6	42,976
832	48,605
832,4	45,576
832,8	49,776
833,3	43,348
833,7	42,89
834,1	43,433
834,6	44,948
835	45,633
835,4	48,033
835,8	42,462
836,3	44,633
836,7	43,605
837,1	40,633
837,6	41,662
838	40,233
838,4	39,605
838,9	41,29
839,3	39,062
839,7	41,719
840,1	41,29
840,6	39,062
841	39,148
841,4	39,633
841,9	42,462
842,3	42,948
842,7	40,69
843,1	44,205
843,6	44,919
844	45,748
844,4	48,919
844,9	52,119
845,3	49,919
845,7	51,233
846,2	46,633
846,6	46,005
847	47,176
847,4	45,176
847,9	41,205
848,3	44,376
848,7	42,719
849,2	44,119
849,6	41,805
850	41,49
850,4	39,576
850,9	40,205
851,3	39,919
851,7	40,605
852,2	38,348
852,6	41,605
853	43,919
853,4	42,919
853,9	41,49
854,3	43,348
854,7	42,176
855,2	42,748
855,6	41,69
856	37,976
856,4	34,462
856,9	35,748
857,3	34,519
857,7	39,976
858,2	43,09
858,6	40,49
859	40,433
859,4	41,205
859,9	39,062
860,3	35,462
860,7	34,062
861,1	31,462
861,6	33,976
862	29,69
862,4	29,205
862,9	29,719
863,3	32,405
863,7	32,633
864,1	34,433
864,6	31,176
865	32,148
865,4	36,033
865,9	38,89
866,3	35,89
866,7	30,633
867,1	28,519
867,6	29,89
868	32,948
868,4	31,348
868,8	27,49
869,3	27,376
869,7	33,548
870,1	36,148
870,6	32,519
871	11,719
871,4	14,519
871,8	14,033
872,3	17,49
872,7	15,948
873,1	15,148
873,5	20,205
874	35,348
874,4	32,462
874,8	32,519
875,3	33,605
875,7	27,805
876,1	26,919
876,5	23,576
877	25,662
877,4	23,205
877,8	27,119
878,2	27,462
878,7	29,433
879,1	27,833
879,5	33,148
879,9	36,148
880,4	39,09
880,8	35,262
881,2	33,005
881,7	31,348
882,1	32,462
882,5	25,862
882,9	22,433
883,4	20,519
883,8	25,233
884,2	27,948
884,6	28,148
885,1	26,376
885,5	30,948
885,9	31,862
886,3	30,862
886,8	25,119
887,2	18,262
887,6	21,005
888	25,262
888,5	26,005
888,9	28,062
889,3	27,976
889,8	28,919
890,2	34,062
890,6	27,776
891	26,319
891,5	19,948
891,9	19,69
892,3	23,233
892,7	25,833
893,2	25,776
893,6	30,033
894	30,348
894,4	33,119
894,9	32,69
895,3	31,348
895,7	28,233
896,1	24,119
896,6	24,005
897	23,319
897,4	27,376
897,8	27,319
898,3	26,262
898,7	29,033
899,1	29,976
899,5	28,605
900	25,033
900,4	21,062
900,8	17,319
901,2	17,348
901,7	16,319
902,1	20,776
902,5	25,319
902,9	24,205
903,4	25,748
903,8	29,033
904,2	25,49
904,6	23,433
905,1	22,576
905,5	19,176
905,9	22,29
906,3	24,633
906,8	28,09
907,2	29,776
907,6	31,319
908	29,519
908,5	25,89
908,9	24,119
909,3	17,748
909,7	14,576
910,2	18,262
910,6	23,005
911	20,776
911,4	24,833
911,9	22,29
912,3	29,776
912,7	29,319
913,1	28,805
913,6	20,776
914	18,09
914,4	15,29
914,8	21,29
915,3	11,29
915,7	10,605
916,1	8,833
916,5	11,776
916,9	16,948
917,4	19,776
917,8	21,719
918,2	21,233
918,6	18,49
919,1	17,405
919,5	20,462
919,9	21,262
920,3	17,462
920,8	13,976
921,2	19,29
921,6	19,548
922	20,176
922,5	15,948
922,9	13,633
923,3	15,433
923,7	16,29
924,2	14,605
924,6	15,033
925	16,29
925,4	17,89
925,8	20,205
926,3	20,519
926,7	20,662
927,1	21,662
927,5	25,976
928	24,49
928,4	21,948
928,8	21,09
929,2	21,948
929,7	21,005
930,1	21,005
930,5	15,862
930,9	19,233
931,3	20,748
931,8	20,833
932,2	19,776
932,6	17,748
933	15,748
933,5	19,948
933,9	20,69
934,3	19,833
934,7	15,862
935,2	16,719
935,6	17,29
936	19,376
936,4	19,433
936,8	18,833
937,3	18,319
937,7	19,919
938,1	20,233
938,5	13,319
939	13,748
939,4	11,862
939,8	8,062
940,2	9,69
940,6	11,89
941,1	13,348
941,5	23,948
941,9	22,376
942,3	23,976
942,8	24,519
943,2	22,633
943,6	18,948
944	21,262
944,4	19,262
944,9	15,148
945,3	14,09
945,7	7,433
946,1	6,833
946,6	6,605
947	1,09
947,4	5,576
947,8	6,833
948,2	4,805
948,7	9,205
949,1	9,433
949,5	14,69
949,9	16,719
950,3	10,519
950,8	13,633
951,2	15,719
951,6	13,319
952	17,519
952,5	10,89
952,9	11,976
953,3	13,205
953,7	10,776
954,1	13,062
954,6	19,062
955	16,462
955,4	19,776
955,8	21,69
956,2	18,605
956,7	24,576
957,1	19,576
957,5	20,719
957,9	18,862
958,3	21,262
958,8	21,605
959,2	25,748
959,6	27,176
960	28,948
960,5	30,433
960,9	33,662
961,3	29,748
961,7	24,748
962,1	22,976
962,6	21,548
963	20,719
963,4	12,633
963,8	11,176
964,2	13,576
964,7	13,805
965,1	17,548
965,5	14,433
965,9	15,89
966,3	20,176
966,8	23,262
967,2	21,062
967,6	23,348
968	15,69
968,4	17,976
968,9	15,662
969,3	16,548
969,7	10,262
970,1	14,033
970,5	12,433
971	19,376
971,4	18,633
971,8	21,462
972,2	20,748
972,6	24,262
973,1	20,576
973,5	22,376
973,9	21,062
974,3	20,005
974,7	23,433
975,2	25,148
975,6	23,948
976	24,119
976,4	20,576
976,8	23,176
977,3	17,548
977,7	12,09
978,1	12,262
978,5	7,519
978,9	7,005
979,4	8,576
979,8	0,833
980,2	5,062
980,6	2,948
981	2,69
981,5	8,119
981,9	10,833
982,3	10,519
982,7	15,519
983,1	12,433
983,6	16,948
984	13,319
984,4	14,719
984,8	11,805
985,2	8,748
985,6	4,49
986,1	9,262
986,5	9,919
986,9	7,376
987,3	7,605
987,7	12,833
988,2	12,976
988,6	15,89
989	15,748
989,4	16,49
989,8	19,748
990,3	15,605
990,7	10,062
991,1	12,262
991,5	14,69
991,9	14,633
992,3	13,233
992,8	12,376
993,2	16,519
993,6	13,976
994	14,976
994,4	13,833
994,9	11,862
995,3	11,148
995,7	11,262
996,1	11,605
996,5	15,719
996,9	12,376
997,4	7,148
997,8	2,633
998,2	0,405
998,6	-2,252
999	-2,252
999,5	-0,938
999,9	-0,51
1000,3	1,405
1000,7	4,005
1001,1	5,348
1001,5	10,49
1002	12,89
1002,4	11,148
1002,8	13,833
1003,2	14,662
1003,6	17,033
1004	15,776
1004,5	12,633
1004,9	11,348
1005,3	7,005
1005,7	9,233
1006,1	6,233
1006,6	6,576
1007	8,576
1007,4	9,805
1007,8	8,89
1008,2	10,405
1008,6	9,719
1009,1	11,69
1009,5	13,805
1009,9	16,233
1010,3	18,748
1010,7	17,89
1011,1	20,262
1011,6	19,233
1012	24,062
1012,4	22,119
1012,8	18,119
1013,2	18,748
1013,6	19,948
1014,1	20,033
1014,5	20,519
1014,9	15,862
1015,3	14,09
1015,7	15,633
1016,1	12,262
1016,6	8,976
1017	10,433
1017,4	12,548
1017,8	10,319
1018,2	12,205
1018,6	10,233
1019,1	8,948
1019,5	12,948
1019,9	8,119
1020,3	4,605
1020,7	10,262
1021,1	9,548
1021,6	11,119
1022	16,662
1022,4	15,89
1022,8	18,948
1023,2	18,433
1023,6	15,833
1024,1	18,376
1024,5	17,205
1024,9	10,633
1025,3	6,548
1025,7	10,862
1026,1	16,033
1026,6	17,033
1027	15,69
1027,4	18,176
1027,8	23,776
1028,2	23,376
1028,6	23,576
1029	18,462
1029,5	19,176
1029,9	14,633
1030,3	12,205
1030,7	12,69
1031,1	13,319
1031,5	2,89
1032	3,348
1032,4	3,09
1032,8	12,919
1033,2	13,748
1033,6	8,348
1034	9,89
1034,4	15,262
1034,9	16,233
1035,3	14,205
1035,7	11,89
1036,1	10,348
1036,5	10,119
1036,9	12,176
1037,4	16,348
1037,8	11,519
1038,2	12,462
1038,6	10,148
1039	12,748
1039,4	18,376
1039,8	15,576
1040,3	15,119
1040,7	16,776
1041,1	18,633
1041,5	17,319
1041,9	12,662
1042,3	6,89
1042,7	9,748
1043,2	9,862
1043,6	5,062
1044	3,976
1044,4	5,662
1044,8	8,776
1045,2	14,062
1045,6	12,376
1046,1	5,462
1046,5	11,433
1046,9	11,633
1047,3	4,862
1047,7	5,205
1048,1	1,719
1048,5	2,29
1049	8,348
1049,4	12,405
1049,8	8,433
1050,2	16,69
1050,6	21,09
1051	21,519
1051,4	19,033
1051,9	17,976
1052,3	21,776
1052,7	24,148
1053,1	18,519
1053,5	14,548
1053,9	14,862
1054,3	15,433
1054,8	20,833
1055,2	17,005
1055,6	21,462
1056	24,062
1056,4	23,233
1056,8	28,748
1057,2	29,548
1057,6	19,348
1058,1	19,033
1058,5	12,862
1058,9	14,433
1059,3	15,348
1059,7	12,119
1060,1	14,662
1060,5	19,776
1061	17,519
1061,4	18,262
1061,8	18,033
1062,2	18,09
1062,6	16,89
1063	17,205
1063,4	15,062
1063,8	14,662
1064,3	14,433
1064,7	13,262
1065,1	10,433
1065,5	7,005
1065,9	3,09
1066,3	1,405
1066,7	-1,11
1067,1	-1,967
1067,6	3,233
1068	0,605
1068,4	4,719
1068,8	9,519
1069,2	14,433
1069,6	19,233
1070	19,862
1070,4	10,69
1070,9	15,862
1071,3	13,89
1071,7	8,633
1072,1	6,462
1072,5	3,29
1072,9	2,005
1073,3	7,948
1073,7	5,405
1074,2	8,805
1074,6	10,862
1075	8,148
1075,4	7,833
1075,8	11,29
1076,2	10,89
1076,6	16,033
1077	15,805
1077,5	19,519
1077,9	20,148
1078,3	20,833
1078,7	22,805
1079,1	24,319
1079,5	20,062
1079,9	15,233
1080,3	13,862
1080,7	12,462
1081,2	18,062
1081,6	12,148
1082	12,948
1082,4	14,576
1082,8	20,119
1083,2	17,005
1083,6	20,976
1084	16,462
1084,5	20,262
1084,9	15,576
1085,3	10,605
1085,7	12,69
1086,1	12,719
1086,5	11,119
1086,9	14,319
1087,3	12,748
1087,7	11,09
1088,2	16,49
1088,6	11,233
1089	9,176
1089,4	8,976
1089,8	9,833
1090,2	14,09
1090,6	17,433
1091	17,29
1091,4	14,833
1091,9	16,519
1092,3	20,605
1092,7	17,176
1093,1	16,576
1093,5	16,262
1093,9	15,662
1094,3	22,348
1094,7	23,805
1095,1	24,233
1095,5	25,29
1096	21,633
1096,4	20,833
1096,8	20,119
1097,2	13,948
1097,6	16,948
1098	16,548
1098,4	18,805
1098,8	17,348
1099,2	19,662
1099,6	19,49
1100,1	20,462
1100,5	13,462
1100,9	10,376
1101,3	7,805
1101,7	8,948
1102,1	7,576
1102,5	9,462
1102,9	10,376
1103,3	15,633
1103,7	18,262
1104,2	16,548
1104,6	19,805
1105	18,862
1105,4	18,748
1105,8	16,29
1106,2	12,49
1106,6	8,548
1107	7,405
1107,4	4,9
1107,8	3,913
1108,3	-0,167
