Data from Subt2_145.txt Node
Date: Sat Aug 26 18:29:33 MSK 2023
User: vat
Spectrometer: MAYP114033
Trigger mode: 0
Integration Time (sec): 1,000000E0
Scans to average: 5
Electric dark correction enabled: true
Nonlinearity correction enabled: false
Boxcar width: 3
XAxis mode: Wavelengths
Number of Pixels in Spectrum: 2068
>>>>>Begin Spectral Data<<<<<
199,4	0,517
199,9	2,747
200,4	1,767
200,8	3,01
201,3	1,924
201,8	3,61
202,2	1,438
202,7	2,181
203,2	1,324
203,6	-0,362
204,1	-3,448
204,6	-3,848
205	-5,362
205,5	-3,362
206	-2,076
206,4	0,41
206,9	2,838
207,4	5,095
207,8	7,524
208,3	6,667
208,8	8,181
209,2	9,324
209,7	7,495
210,2	7,695
210,6	7,495
211,1	8,495
211,5	7,238
212	7,524
212,5	4,038
212,9	0,61
213,4	-0,933
213,9	-1,362
214,3	-3,79
214,8	-0,133
215,3	-2,39
215,7	-0,133
216,2	2,324
216,7	6,724
217,1	0,895
217,6	4,381
218,1	2,352
218,5	2,524
219	-3,733
219,5	-1,876
219,9	-9,848
220,4	1,752
220,9	-4,419
221,3	-6,219
221,8	-7,676
222,3	-5,476
222,7	-7,076
223,2	-3,048
223,6	-10,762
224,1	-5,476
224,6	-1,219
225	-3,476
225,5	-2,048
226	-2,905
226,4	-2,79
226,9	0,095
227,4	-1,733
227,8	-9,762
228,3	-9,39
228,8	-9,162
229,2	-8,076
229,7	-7,533
230,2	-8,848
230,6	-5,505
231,1	6,21
231,5	10,495
232	10,038
232,5	8,181
232,9	6,267
233,4	7,01
233,9	3,067
234,3	-1,362
234,8	-3,076
235,3	-1,362
235,7	2,095
236,2	3,752
236,7	3,924
237,1	7,038
237,6	4,352
238,1	5,467
238,5	-0,219
239	-1,705
239,4	-0,19
239,9	-0,133
240,4	-0,705
240,8	4,438
241,3	2,381
241,8	6,61
242,2	5,724
242,7	3,152
243,2	-0,676
243,6	-5,562
244,1	-5,962
244,6	-3,048
245	-3,905
245,5	-6,59
245,9	-6,533
246,4	0,352
246,9	2,781
247,3	-1,476
247,8	-2,733
248,3	1,524
248,7	7,638
249,2	7,495
249,7	3,81
250,1	5,152
250,6	4,038
251	7,01
251,5	1,41
252	-2,876
252,4	-2,048
252,9	-6,105
253,4	-10,59
253,8	-10,619
254,3	-13,762
254,8	-14,248
255,2	-13,933
255,7	-15,276
256,1	-10,505
256,6	-6,962
257,1	-5,505
257,5	-10,476
258	-7,762
258,5	-6,362
258,9	-8,333
259,4	-10,105
259,9	-8,876
260,3	-10,419
260,8	-9,99
261,2	-8,79
261,7	-8,705
262,2	-8,048
262,6	-8,962
263,1	-7,533
263,6	-4,448
264	1,438
264,5	5,724
264,9	2,752
265,4	4,095
265,9	5,638
266,3	5,781
266,8	6,895
267,3	7,724
267,7	2,695
268,2	0,21
268,7	4,21
269,1	5,324
269,6	1,267
270	5,095
270,5	4,124
271	5,381
271,4	10,352
271,9	5,067
272,4	9,781
272,8	11,524
273,3	2,038
273,7	0,152
274,2	-1,619
274,7	-1,762
275,1	-2,619
275,6	-7,848
276,1	-11,19
276,5	-6,59
277	-8,076
277,4	-9,848
277,9	-9,305
278,4	-2,733
278,8	-1,933
279,3	3,038
279,8	3,61
280,2	6,238
280,7	13,467
281,1	11,438
281,6	8,324
282,1	5,067
282,5	1,295
283	-4,048
283,4	-4,219
283,9	-6,39
284,4	-2,362
284,8	-2,99
285,3	0,695
285,8	0,895
286,2	2,124
286,7	0,152
287,1	-2,533
287,6	-3,276
288,1	-4,876
288,5	-4,848
289	-4,819
289,5	-0,39
289,9	0,41
290,4	0,095
290,8	-0,476
291,3	3,124
291,8	2,867
292,2	2,952
292,7	5,01
293,1	5,467
293,6	8,581
294,1	6,381
294,5	8,781
295	5,238
295,5	3,352
295,9	3,152
296,4	2,181
296,8	-2,276
297,3	-0,362
297,8	-9,019
298,2	-7,648
298,7	-2,419
299,1	-6,133
299,6	-6,676
300,1	-4,019
300,5	-2,505
301	5,867
301,5	9,41
301,9	10,238
302,4	6,81
302,8	5,41
303,3	2,152
303,8	-4,219
304,2	-6,848
304,7	-8,276
305,1	-13,276
305,6	-11,219
306,1	1,438
306,5	5,724
307	12,867
307,4	14,381
307,9	6,924
308,4	9,381
308,8	3,667
309,3	-5,59
309,8	-5,533
310,2	-10,105
310,7	-12,333
311,1	-4,533
311,6	-4,076
312,1	2,838
312,5	2,924
313	1,038
313,4	0,81
313,9	0,724
314,4	-1,39
314,8	-4,333
315,3	-2,248
315,7	-8,048
316,2	-8,448
316,7	-10,019
317,1	-5,905
317,6	-3,19
318	2,667
318,5	1,81
319	8,724
319,4	10,895
319,9	16,495
320,3	15,552
320,8	14,238
321,3	13,067
321,7	14,067
322,2	13,352
322,6	14,352
323,1	14,01
323,6	11,467
324	9,295
324,5	5,867
324,9	4,352
325,4	0,724
325,9	0,467
326,3	0,581
326,8	4,038
327,2	-0,333
327,7	0,438
328,2	-3,019
328,6	2,067
329,1	-4,905
329,5	-8,219
330	-10,248
330,5	0,038
330,9	-1,648
331,4	3,067
331,8	-0,676
332,3	5,867
332,8	8,638
333,2	6,181
333,7	1,924
334,1	3,752
334,6	-0,848
335,1	-4,648
335,5	-4,819
336	-9,19
336,4	-9,762
336,9	-5,19
337,4	-4,476
337,8	-2,333
338,3	6,324
338,7	9,667
339,2	14,638
339,7	17,038
340,1	10,695
340,6	8,495
341	8,381
341,5	6,095
342	-3,99
342,4	-8,362
342,9	-9,99
343,3	-5,676
343,8	-4,333
344,2	-3,876
344,7	-2,705
345,2	1,352
345,6	1,124
346,1	2,067
346,5	-5,448
347	-7,248
347,5	-10,105
347,9	-8,59
348,4	-5,762
348,8	-1,019
349,3	1,238
349,8	6,61
350,2	12,867
350,7	14,067
351,1	11,01
351,6	14,238
352	14,581
352,5	15,895
353	24,781
353,4	27,952
353,9	39,724
354,3	51,895
354,8	58,638
355,3	74,952
355,7	89,781
356,2	99,181
356,6	114,638
357,1	135,01
357,5	154,21
358	183,267
358,5	207,638
358,9	241,667
359,4	277,924
359,8	320,638
360,3	367,352
360,8	415,781
361,2	466,01
361,7	527,067
362,1	595,21
362,6	671,724
363	749,81
363,5	832,267
364	929,267
364,4	1023,438
364,9	1121,524
365,3	1213,724
365,8	1300,61
366,3	1384,638
366,7	1461,41
367,2	1523,81
367,6	1578,181
368,1	1613,467
368,5	1639,038
369	1651,695
369,5	1654,381
369,9	1637,838
370,4	1610,152
370,8	1574,752
371,3	1527,952
371,7	1468,61
372,2	1407,61
372,7	1337,181
373,1	1265,667
373,6	1193,067
374	1119,981
374,5	1049,667
374,9	983,01
375,4	912,038
375,9	846,524
376,3	783,752
376,8	721,295
377,2	668,21
377,7	610,838
378,2	557,638
378,6	514,61
379,1	469,695
379,5	429,981
380	402,524
380,4	364,638
380,9	335,352
381,4	307,952
381,8	286,238
382,3	265,324
382,7	247,61
383,2	223,038
383,6	205,438
384,1	192,524
384,6	178,467
385	162,981
385,5	153,867
385,9	143,181
386,4	130,438
386,8	120,638
387,3	110,695
387,7	104,667
388,2	98,352
388,7	90,124
389,1	85,038
389,6	78,867
390	76,524
390,5	74,352
390,9	72,838
391,4	66,181
391,9	60,952
392,3	54,495
392,8	52,067
393,2	43,695
393,7	39,724
394,1	34,552
394,6	31,695
395,1	32,295
395,5	30,952
396	32,267
396,4	34,067
396,9	32,467
397,3	34,01
397,8	37,61
398,2	37,781
398,7	38,21
399,2	43,095
399,6	45,352
400,1	47,981
400,5	45,381
401	45,438
401,4	39,267
401,9	43,695
402,4	42,238
402,8	41,124
403,3	44,438
403,7	43,21
404,2	45,524
404,6	52,867
405,1	50,667
405,5	47,638
406	51,438
406,5	48,667
406,9	54,352
407,4	52,438
407,8	54,838
408,3	57,524
408,7	61,352
409,2	67,781
409,6	74,638
410,1	79,638
410,6	90,781
411	95,895
411,5	102,981
411,9	110,038
412,4	113,095
412,8	118,867
413,3	123,324
413,7	127,41
414,2	130,467
414,7	140,41
415,1	153,638
415,6	162,752
416	170,41
416,5	176,181
416,9	177,895
417,4	190,495
417,8	202,352
418,3	211,381
418,8	217,181
419,2	224,124
419,7	236,638
420,1	251,01
420,6	261,61
421	261,495
421,5	270,381
421,9	281,152
422,4	294,295
422,8	305,61
423,3	314,667
423,8	322,238
424,2	335,152
424,7	347,924
425,1	364,867
425,6	383,495
426	398,267
426,5	417,581
426,9	440,295
427,4	457,095
427,9	472,495
428,3	493,781
428,8	512,038
429,2	535,124
429,7	561,524
430,1	586,667
430,6	620,181
431	652,095
431,5	681,781
431,9	708,61
432,4	746,952
432,8	777,095
433,3	816,524
433,8	848,981
434,2	886,981
434,7	930,952
435,1	977,01
435,6	1018,267
436	1068,781
436,5	1110,752
436,9	1164,41
437,4	1218,41
437,8	1269,152
438,3	1331,981
438,8	1394,838
439,2	1454,924
439,7	1522,295
440,1	1589,695
440,6	1662,61
441	1735,467
441,5	1805,238
441,9	1875,638
442,4	1951,81
442,8	2026,267
443,3	2110,238
443,7	2190,467
444,2	2279,324
444,7	2370,21
445,1	2467,581
445,6	2567,467
446	2674,952
446,5	2775,238
446,9	2875,038
447,4	2980,895
447,8	3092,324
448,3	3205,41
448,7	3319,238
449,2	3430,324
449,6	3549,152
450,1	3673,41
450,6	3799,895
451	3923,524
451,5	4052,667
451,9	4184,552
452,4	4318,21
452,8	4455,381
453,3	4594,524
453,7	4729,867
454,2	4875,695
454,6	5011,895
455,1	5163,895
455,5	5312,895
456	5463,781
456,4	5617,895
456,9	5778,381
457,3	5926,752
457,8	6083,924
458,3	6239,752
458,7	6398,495
459,2	6560,895
459,6	6717,895
460,1	6884,238
460,5	7050,124
461	7225,067
461,4	7389,352
461,9	7552,352
462,3	7726,124
462,8	7898,695
463,2	8066,181
463,7	8246,81
464,1	8414,981
464,6	8585,467
465	8763,667
465,5	8925,581
466	9091,581
466,4	9246,467
466,9	9411,21
467,3	9569,21
467,8	9728,781
468,2	9884,124
468,7	10049,095
469,1	10213,981
469,6	10379,61
470	10533,724
470,5	10689,352
470,9	10847,124
471,4	11010,524
471,8	11156,61
472,3	11304,095
472,7	11447,238
473,2	11588,152
473,6	11729,01
474,1	11867,781
474,5	12003,61
475	12143,01
475,4	12263,781
475,9	12392,095
476,4	12518,952
476,8	12647,638
477,3	12755,724
477,7	12877,495
478,2	12976,667
478,6	13097,067
479,1	13199,552
479,5	13295,952
480	13386,638
480,4	13483,952
480,9	13550,181
481,3	13622,781
481,8	13694,324
482,2	13756,324
482,7	13820,095
483,1	13886,238
483,6	13944,495
484	14008,895
484,5	14076,952
484,9	14116,124
485,4	14164,81
485,8	14196,41
486,3	14228,01
486,7	14258,067
487,2	14277,81
487,6	14297,81
488,1	14311,438
488,5	14318,352
489	14334,981
489,4	14351,01
489,9	14348,352
490,4	14348,21
490,8	14339,61
491,3	14342,152
491,7	14333,838
492,2	14320,295
492,6	14292,41
493,1	14263,981
493,5	14224,524
494	14188,81
494,4	14141,467
494,9	14106,181
495,3	14062,21
495,8	14018,467
496,2	13981,752
496,7	13932,952
497,1	13884,667
497,6	13836,752
498	13783,067
498,5	13734,638
498,9	13660,238
499,4	13589,581
499,8	13527,638
500,3	13466,381
500,7	13400,924
501,2	13322,21
501,6	13232,867
502,1	13170,124
502,5	13103,352
503	13032,124
503,4	12949,295
503,9	12859,781
504,3	12785,867
504,8	12707,495
505,2	12623,752
505,7	12527,781
506,1	12443,467
506,6	12344,324
507	12258,667
507,5	12155,981
507,9	12064,495
508,4	11957,581
508,8	11868,981
509,3	11766,438
509,7	11681,41
510,2	11585,181
510,6	11491,924
511,1	11389,067
511,5	11296,781
512	11191,01
512,4	11086,01
512,9	10974,952
513,3	10875,21
513,8	10775,838
514,2	10663,781
514,7	10558,867
515,1	10454,524
515,6	10354,352
516	10246,952
516,5	10128,21
516,9	10021,81
517,4	9933,295
517,8	9835,067
518,3	9737,81
518,7	9629,695
519,2	9535,067
519,6	9443,895
520,1	9344,41
520,5	9231,867
521	9121,895
521,4	9020,438
521,9	8930,495
522,3	8826,295
522,8	8726,095
523,2	8631,695
523,7	8539,781
524,1	8446,552
524,6	8354,438
525	8255,924
525,5	8163,095
525,9	8075,152
526,4	7975,667
526,8	7887,981
527,3	7802,895
527,7	7706,21
528,2	7619,095
528,6	7532,01
529,1	7446,552
529,5	7366,438
530	7274,267
530,4	7188,21
530,9	7108,095
531,3	7022,295
531,8	6939,952
532,2	6862,41
532,6	6783,295
533,1	6713,438
533,5	6629,867
534	6549,152
534,4	6479,352
534,9	6411,095
535,3	6329,781
535,8	6250,41
536,2	6177,724
536,7	6114,724
537,1	6050,067
537,6	5972,524
538	5902,552
538,5	5841,952
538,9	5777,952
539,4	5715,067
539,8	5645,438
540,3	5584,61
540,7	5529,038
541,2	5467,581
541,6	5406,038
542,1	5348,01
542,5	5284,495
543	5227,295
543,4	5161,667
543,9	5103,724
544,3	5047,638
544,8	4982,381
545,2	4924,324
545,7	4871,752
546,1	4828,724
546,5	4790,638
547	4733,667
547,4	4684,752
547,9	4643,295
548,3	4601,724
548,8	4553,467
549,2	4497,581
549,7	4444,181
550,1	4410,352
550,6	4362,752
551	4315,61
551,5	4266,581
551,9	4221,667
552,4	4175,895
552,8	4128,01
553,3	4076,524
553,7	4031,352
554,2	3991,81
554,6	3952,752
555,1	3917,41
555,5	3881,238
555,9	3851,41
556,4	3819,381
556,8	3781,61
557,3	3746,524
557,7	3715,267
558,2	3673,981
558,6	3641,095
559,1	3594,924
559,5	3556,324
560	3525,324
560,4	3486,724
560,9	3445,095
561,3	3414,552
561,8	3380,124
562,2	3353,752
562,7	3326,552
563,1	3300,181
563,6	3271,467
564	3245,038
564,4	3212,581
564,9	3177,781
565,3	3147,781
565,8	3116,238
566,2	3083,752
566,7	3056,41
567,1	3029,381
567,6	3000,924
568	2979,038
568,5	2951,838
568,9	2925,61
569,4	2902,181
569,8	2876,581
570,3	2849,181
570,7	2820,467
571,1	2796,467
571,6	2775,895
572	2753,038
572,5	2726,01
572,9	2706,981
573,4	2684,667
573,8	2668,267
574,3	2647,267
574,7	2622,895
575,2	2597,552
575,6	2575,495
576,1	2551,438
576,5	2535,781
576,9	2511,61
577,4	2482,981
577,8	2459,41
578,3	2441,924
578,7	2422,267
579,2	2405,381
579,6	2378,838
580,1	2359,467
580,5	2344,752
581	2329,638
581,4	2311,524
581,9	2291,295
582,3	2265,724
582,7	2251,495
583,2	2237,095
583,6	2218,81
584,1	2200,895
584,5	2183,724
585	2166,467
585,4	2145,267
585,9	2123,638
586,3	2102,438
586,8	2091,067
587,2	2070,638
587,6	2060,752
588,1	2048,752
588,5	2035,524
589	2027,381
589,4	2015,438
589,9	1993,152
590,3	1976,152
590,8	1952,067
591,2	1939,324
591,7	1929,895
592,1	1909,21
592,5	1895,01
593	1882,095
593,4	1873,895
593,9	1863,324
594,3	1843,752
594,8	1828,867
595,2	1816,724
595,7	1805,61
596,1	1794,867
596,6	1783,867
597	1770,952
597,4	1762,41
597,9	1750,238
598,3	1741,495
598,8	1730,267
599,2	1719,095
599,7	1702,752
600,1	1685,867
600,6	1671,152
601	1663,295
601,4	1658,61
601,9	1649,781
602,3	1638,467
602,8	1633,752
603,2	1627,267
603,7	1613,838
604,1	1603,152
604,6	1583,095
605	1565,895
605,4	1559,095
605,9	1547,981
606,3	1533,01
606,8	1524,067
607,2	1506,781
607,7	1497,81
608,1	1492,21
608,6	1482,524
609	1476,152
609,4	1468,067
609,9	1458,095
610,3	1450,895
610,8	1441,352
611,2	1429,495
611,7	1414,867
612,1	1398,01
612,6	1396,095
613	1390,667
613,4	1380,238
613,9	1367,095
614,3	1357,724
614,8	1350,381
615,2	1337,01
615,7	1329,181
616,1	1318,324
616,6	1310,21
617	1302,495
617,4	1294,038
617,9	1288,867
618,3	1287,81
618,8	1277,038
619,2	1269,038
619,7	1262,438
620,1	1256,124
620,5	1252,438
621	1240,638
621,4	1229,124
621,9	1220,838
622,3	1214,238
622,8	1205,781
623,2	1197,524
623,6	1181,438
624,1	1171,867
624,5	1167,438
625	1160,41
625,4	1153,581
625,9	1145,952
626,3	1136,467
626,8	1131,752
627,2	1129,952
627,6	1114,352
628,1	1097,038
628,5	1095,781
629	1085,781
629,4	1081,924
629,9	1071,524
630,3	1054,095
630,7	1051,438
631,2	1053,324
631,6	1039,638
632,1	1035,838
632,5	1026,895
633	1023,61
633,4	1021,381
633,8	1013,695
634,3	1000,267
634,7	991,781
635,2	980,61
635,6	972,638
636,1	963,324
636,5	953,467
636,9	941,895
637,4	935,21
637,8	924,352
638,3	917,638
638,7	911,924
639,2	902,095
639,6	901,981
640	896,981
640,5	893,61
640,9	886,581
641,4	882,695
641,8	877,295
642,2	876,467
642,7	868,038
643,1	868,667
643,6	862,752
644	863,01
644,5	859,038
644,9	851,352
645,3	845,295
645,8	838,152
646,2	834,181
646,7	829,324
647,1	822,295
647,6	814,81
648	813,81
648,4	805,067
648,9	803,267
649,3	793,81
649,8	786,667
650,2	783,81
650,6	781,524
651,1	775,352
651,5	774,495
652	764,124
652,4	758,181
652,9	756,552
653,3	748,381
653,7	742,267
654,2	736,467
654,6	731,267
655,1	729,952
655,5	733,095
655,9	728,752
656,4	729,952
656,8	723,667
657,3	722,41
657,7	719,695
658,2	710,61
658,6	698,981
659	693,895
659,5	681,21
659,9	677,152
660,4	666,524
660,8	656,981
661,2	652,638
661,7	647,695
662,1	644,267
662,6	638,41
663	631,867
663,4	627,838
663,9	623,038
664,3	625,124
664,8	620,895
665,2	610,095
665,6	608,152
666,1	607,924
666,5	605,381
667	605,352
667,4	596,781
667,9	593,61
668,3	592,638
668,7	591,724
669,2	591,524
669,6	587,724
670,1	586,41
670,5	583,038
670,9	578,067
671,4	573,638
671,8	566,552
672,3	562,724
672,7	560,124
673,1	548,152
673,6	542,552
674	544,21
674,5	538,61
674,9	529,867
675,3	521,124
675,8	517,638
676,2	516,267
676,7	513,181
677,1	503,152
677,5	499,895
678	503,495
678,4	499,895
678,9	495,41
679,3	492,552
679,7	488,952
680,2	483,981
680,6	478,552
681,1	473,41
681,5	472,524
681,9	467,267
682,4	465,152
682,8	466,352
683,3	466,895
683,7	471,295
684,1	470,552
684,6	461,924
685	457,495
685,5	450,952
685,9	440,638
686,3	433,981
686,8	424,381
687,2	421,495
687,7	417,295
688,1	413,781
688,5	412,667
689	413,867
689,4	411,295
689,9	410,21
690,3	405,467
690,7	407,467
691,2	409,838
691,6	405,438
692	403,038
692,5	400,724
692,9	397,467
693,4	393,895
693,8	389,924
694,2	384,067
694,7	383,438
695,1	375,41
695,6	375,21
696	371,21
696,4	369,467
696,9	366,667
697,3	361,181
697,8	357,038
698,2	356,552
698,6	354,781
699,1	353,924
699,5	356,095
699,9	350,981
700,4	348,295
700,8	347,038
701,3	347,638
701,7	341,638
702,1	338,067
702,6	328,952
703	329,981
703,5	329,124
703,9	328,752
704,3	329,781
704,8	325,781
705,2	326,952
705,6	328,952
706,1	322,21
706,5	321,21
707	318,867
707,4	313,981
707,8	312,61
708,3	307,695
708,7	306,752
709,2	306,524
709,6	304,524
710	307,01
710,5	303,581
710,9	302,981
711,3	298,981
711,8	293,667
712,2	294,867
712,7	285,495
713,1	280,238
713,5	278,781
714	277,752
714,4	276,724
714,8	276,181
715,3	267,61
715,7	271,181
716,2	264,638
716,6	263,41
717	256,067
717,5	253,667
717,9	253,552
718,3	253,41
718,8	251,981
719,2	250,238
719,7	246,152
720,1	249,381
720,5	252,124
721	245,81
721,4	249,867
721,8	250,724
722,3	246,838
722,7	249,724
723,2	247,238
723,6	237,524
724	235,238
724,5	229,01
724,9	223,124
725,3	221,895
725,8	214,752
726,2	212,01
726,7	211,81
727,1	209,667
727,5	210,495
728	209,21
728,4	211,752
728,8	212,038
729,3	208,267
729,7	206,467
730,1	208,324
730,6	205,495
731	200,438
731,5	200,267
731,9	194,467
732,3	195,552
732,8	203,695
733,2	199,381
733,6	197,524
734,1	199,952
734,5	198,152
734,9	203,695
735,4	204,295
735,8	193,867
736,3	200,952
736,7	198,181
737,1	198,295
737,6	195,267
738	190,238
738,4	188,181
738,9	190,867
739,3	185,038
739,7	185,695
740,2	183,724
740,6	184,067
741,1	186,581
741,5	181,495
741,9	181,181
742,4	180,61
742,8	182,181
743,2	181,524
743,7	176,552
744,1	170,067
744,5	172,238
745	167,267
745,4	163,61
745,8	162,238
746,3	162,924
746,7	163,924
747,2	167,152
747,6	171,724
748	174,067
748,5	179,038
748,9	172,581
749,3	167,61
749,8	169,152
750,2	164,81
750,6	156,495
751,1	159,695
751,5	153,267
751,9	157,038
752,4	157,924
752,8	151,867
753,3	152,524
753,7	152,01
754,1	143,01
754,6	134,81
755	131,695
755,4	129,981
755,9	129,952
756,3	128,667
756,7	130,438
757,2	133,152
757,6	139,952
758	139,981
758,5	140,724
758,9	143,581
759,3	145,638
759,8	142,324
760,2	139,752
760,6	140,724
761,1	136,352
761,5	135,038
761,9	132,295
762,4	126,324
762,8	125,181
763,3	124,638
763,7	125,724
764,1	128,81
764,6	124,495
765	125,41
765,4	127,352
765,9	128,924
766,3	132,752
766,7	125,952
767,2	120,352
767,6	125,981
768	123,41
768,5	120,81
768,9	117,638
769,3	112,124
769,8	110,895
770,2	114,667
770,6	111,724
771,1	114,295
771,5	117,895
771,9	119,638
772,4	123,924
772,8	127,238
773,2	127,752
773,7	128,638
774,1	125,438
774,5	116,552
775	112,752
775,4	108,067
775,8	105,895
776,3	107,238
776,7	104,81
777,1	103,781
777,6	108,438
778	113,638
778,4	112,81
778,9	114,295
779,3	108,01
779,7	108,352
780,2	107,295
780,6	107,838
781	102,352
781,5	97,724
781,9	92,01
782,3	89,524
782,8	87,152
783,2	85,067
783,6	85,638
784,1	87,067
784,5	87,295
784,9	85,952
785,4	91,867
785,8	91,467
786,2	93,952
786,7	91,981
787,1	87,038
787,5	88,467
788	92,838
788,4	91,21
788,8	88,895
789,3	85,695
789,7	88,181
790,1	91,038
790,6	93,81
791	86,124
791,4	87,01
791,9	84,038
792,3	78,924
792,7	78,81
793,2	75,581
793,6	74,552
794	80,952
794,5	74,438
794,9	79,81
795,3	85,038
795,8	80,752
796,2	84,238
796,6	84,981
797,1	82,267
797,5	80,01
797,9	76,781
798,4	75,01
798,8	74,038
799,2	73,524
799,7	73,924
800,1	75,21
800,5	80,352
801	82,267
801,4	80,181
801,8	79,152
802,2	78,01
802,7	73,324
803,1	72,01
803,5	72,067
804	65,467
804,4	68,01
804,8	66,61
805,3	64,41
805,7	62,067
806,1	58,981
806,6	57,238
807	62,61
807,4	62,61
807,9	62,61
808,3	67,238
808,7	71,067
809,2	75,981
809,6	77,267
810	73,838
810,4	69,495
810,9	69,952
811,3	66,438
811,7	66,61
812,2	70,695
812,6	66,152
813	72,381
813,5	75,638
813,9	72,838
814,3	67,667
814,8	63,295
815,2	54,267
815,6	56,01
816,1	53,524
816,5	50,781
816,9	50,895
817,3	55,152
817,8	60,61
818,2	63,924
818,6	61,752
819,1	61,181
819,5	62,952
819,9	66,724
820,4	64,267
820,8	59,352
821,2	51,695
821,7	55,295
822,1	55,01
822,5	58,61
822,9	56,895
823,4	53,61
823,8	59,267
824,2	65,181
824,7	60,238
825,1	55,924
825,5	46,952
826	40,467
826,4	44,695
826,8	35,124
827,3	31,324
827,7	26,667
828,1	30,152
828,5	31,667
829	29,838
829,4	30,952
829,8	32,267
830,3	33,038
830,7	35,667
831,1	30,524
831,6	33,724
832	41,61
832,4	37,524
832,8	39,838
833,3	40,152
833,7	40,524
834,1	39,552
834,6	38,21
835	38,01
835,4	38,695
835,8	35,038
836,3	34,152
836,7	32,295
837,1	36,21
837,6	37,581
838	34,295
838,4	35,695
838,9	37,81
839,3	36,324
839,7	39,095
840,1	35,495
840,6	33,638
841	36,467
841,4	34,238
841,9	32,152
842,3	30,61
842,7	30,01
843,1	32,867
843,6	30,267
844	26,495
844,4	32,21
844,9	34,981
845,3	33,21
845,7	34,552
846,2	32,352
846,6	33,381
847	34,724
847,4	34,038
847,9	31,81
848,3	37,295
848,7	35,238
849,2	37,524
849,6	35,781
850	37,467
850,4	32,638
850,9	34,124
851,3	31,838
851,7	33,467
852,2	25,724
852,6	30,838
853	29,381
853,4	27,381
853,9	24,038
854,3	24,867
854,7	27,867
855,2	30,21
855,6	27,467
856	21,381
856,4	20,552
856,9	20,667
857,3	18,552
857,7	16,124
858,2	24,295
858,6	22,067
859	30,01
859,4	33,581
859,9	34,267
860,3	33,581
860,7	30,667
861,1	27,152
861,6	28,295
862	29,238
862,4	28,467
862,9	30,895
863,3	31,495
863,7	31,552
864,1	32,924
864,6	27,124
865	24,924
865,4	24,638
865,9	27,41
866,3	23,381
866,7	24,867
867,1	16,752
867,6	19,61
868	14,152
868,4	12,838
868,8	10,41
869,3	13,381
869,7	18,038
870,1	17,724
870,6	16,495
871	-2,59
871,4	-1,248
871,8	-6,305
872,3	-5,79
872,7	-8,019
873,1	-5,19
873,5	-1,219
874	19,495
874,4	20,095
874,8	21,981
875,3	23,552
875,7	17,895
876,1	19,438
876,5	17,952
877	22,238
877,4	17,981
877,8	18,667
878,2	20,381
878,7	24,21
879,1	23,924
879,5	26,238
879,9	24,638
880,4	30,152
880,8	27,552
881,2	21,41
881,7	19,038
882,1	16,524
882,5	12,381
882,9	10,01
883,4	4,524
883,8	7,952
884,2	13,41
884,6	11,495
885,1	15,524
885,5	15,952
885,9	18,124
886,3	21,295
886,8	17,952
887,2	13,181
887,6	15,638
888	12,467
888,5	12,438
888,9	8,095
889,3	6,21
889,8	9,181
890,2	11,524
890,6	7,41
891	8,324
891,5	7,295
891,9	7,381
892,3	3,952
892,7	4,238
893,2	1,524
893,6	2,467
894	4,095
894,4	0,41
894,9	7,152
895,3	14,238
895,7	11,295
896,1	9,067
896,6	11,924
897	12,438
897,4	22,01
897,8	19,952
898,3	19,067
898,7	20,895
899,1	24,952
899,5	24,152
900	20,238
900,4	15,61
900,8	10,038
901,2	4,924
901,7	1,124
902,1	3,038
902,5	2,61
902,9	-0,133
903,4	2,352
903,8	6,724
904,2	7,238
904,6	11,01
905,1	9,352
905,5	9,181
905,9	16,467
906,3	15,895
906,8	16,524
907,2	18,524
907,6	16,781
908	17,724
908,5	17,438
908,9	11,095
909,3	8,752
909,7	9,038
910,2	3,752
910,6	6,952
911	4,867
911,4	5,181
911,9	7,038
912,3	8,838
912,7	6,638
913,1	14,381
913,6	10,952
914	10,095
914,4	8,781
914,8	10,095
915,3	9,324
915,7	5,01
916,1	-0,019
916,5	0,267
916,9	-1,448
917,4	-3,248
917,8	-5,648
918,2	-10,79
918,6	-11,105
919,1	-8,019
919,5	-6,933
919,9	0,21
920,3	1,981
920,8	0,724
921,2	5,295
921,6	6,467
922	7,61
922,5	4,695
922,9	0,067
923,3	3,41
923,7	8,01
924,2	6,067
924,6	6,724
925	3,038
925,4	1,067
925,8	3,838
926,3	5,41
926,7	1,038
927,1	4,752
927,5	4,867
928	3,324
928,4	2,838
928,8	0,01
929,2	-5,59
929,7	-3,019
930,1	-5,762
930,5	-3,133
930,9	1,781
931,3	6,381
931,8	8,781
932,2	9,295
932,6	9,324
933	3,495
933,5	0,581
933,9	1,867
934,3	1,895
934,7	-2,962
935,2	-2,705
935,6	-3,248
936	-0,505
936,4	1,038
936,8	0,152
937,3	-1,905
937,7	3,038
938,1	9,467
938,5	2,924
939	5,81
939,4	7,61
939,8	6,895
940,2	8,01
940,6	7,867
941,1	4,895
941,5	17,581
941,9	14,524
942,3	15,867
942,8	13,124
943,2	14,01
943,6	7,267
944	3,981
944,4	-4,933
944,9	-3,562
945,3	-5,333
945,7	-7,933
946,1	-9,219
946,6	-6,105
947	-1,962
947,4	3,181
947,8	5,21
948,2	-0,533
948,7	3,324
949,1	-0,476
949,5	5,495
949,9	-1,019
950,3	-2,79
950,8	-2,619
951,2	-3,619
951,6	-5,562
952	1,238
952,5	-4,419
952,9	-1,019
953,3	-1,876
953,7	-2,876
954,1	7,724
954,6	10,038
955	9,952
955,4	4,895
955,8	8,438
956,2	8,295
956,7	8,267
957,1	-1,59
957,5	-1,362
957,9	-4,819
958,3	4,095
958,8	-2,019
959,2	-0,19
959,6	0,295
960	3,61
960,5	4,952
960,9	8,41
961,3	6,067
961,7	8,21
962,1	8,295
962,6	11,124
963	13,124
963,4	7,238
963,8	4,61
964,2	4,724
964,7	3,61
965,1	1,524
965,5	-2,648
965,9	-5,79
966,3	-0,619
966,8	-0,848
967,2	-0,105
967,6	2,01
968	1,695
968,4	4,438
968,9	5,467
969,3	4,524
969,7	-1,219
970,1	-3,876
970,5	-7,133
971	-7,362
971,4	-9,705
971,8	-7,905
972,2	-9,79
972,6	-4,905
973,1	-2,276
973,5	-0,39
973,9	6,552
974,3	9,924
974,7	11,581
975,2	12,838
975,6	10,152
976	12,781
976,4	10,41
976,8	6,524
977,3	1,295
977,7	0,581
978,1	-2,219
978,5	-2,305
978,9	-8,419
979,4	-9,676
979,8	-14,419
980,2	-13,962
980,6	-17,305
981	-10,162
981,5	-9,762
981,9	-9,476
982,3	-5,448
982,7	-0,705
983,1	1,638
983,6	2,81
984	-0,562
984,4	3,038
984,8	3,895
985,2	4,524
985,6	1,61
986,1	1,981
986,5	3,638
986,9	-5,562
987,3	-3,133
987,7	-3,733
988,2	-3,219
988,6	-2,048
989	-5,333
989,4	-4,962
989,8	1,467
990,3	0,01
990,7	-1,019
991,1	-1,533
991,5	-1,533
991,9	0,781
992,3	1,152
992,8	1,495
993,2	-0,333
993,6	3,467
994	6,152
994,4	6,152
994,9	7,838
995,3	6,467
995,7	5,238
996,1	5,295
996,5	5,152
996,9	-2,762
997,4	-2,59
997,8	-9,219
998,2	-9,905
998,6	-16,476
999	-17,019
999,5	-18,762
999,9	-14,105
1000,3	-14,762
1000,7	-11,448
1001,1	-10,505
1001,5	0,381
1002	5,524
1002,4	6,924
1002,8	7,152
1003,2	8,581
1003,6	10,324
1004	12,695
1004,5	8,21
1004,9	2,61
1005,3	-0,962
1005,7	-1,419
1006,1	-2,79
1006,6	-0,99
1007	-3,99
1007,4	-2,79
1007,8	0,581
1008,2	1,352
1008,6	7,181
1009,1	10,152
1009,5	9,781
1009,9	14,352
1010,3	15,038
1010,7	15,067
1011,1	16,752
1011,6	11,295
1012	11,152
1012,4	8,724
1012,8	0,21
1013,2	5,552
1013,6	2,924
1014,1	4,21
1014,5	6,838
1014,9	5,067
1015,3	4,695
1015,7	10,695
1016,1	3,952
1016,6	2,352
1017	0,981
1017,4	-1,019
1017,8	-2,39
1018,2	1,438
1018,6	-7,819
1019,1	-8,419
1019,5	-6,79
1019,9	-8,79
1020,3	-8,19
1020,7	-8,876
1021,1	-11,619
1021,6	-6,305
1022	-2,305
1022,4	-1,248
1022,8	1,524
1023,2	-0,876
1023,6	0,924
1024,1	7,924
1024,5	10,552
1024,9	8,752
1025,3	8,238
1025,7	10,267
1026,1	15,695
1026,6	16,267
1027	10,81
1027,4	9,324
1027,8	11,495
1028,2	8,724
1028,6	8,067
1029	3,181
1029,5	6,552
1029,9	3,638
1030,3	0,152
1030,7	-2,933
1031,1	3,324
1031,5	-0,619
1032	-2,333
1032,4	-7,505
1032,8	-0,448
1033,2	4,781
1033,6	5,867
1034	3,267
1034,4	4,038
1034,9	10,41
1035,3	7,41
1035,7	5,438
1036,1	4,067
1036,5	-1,048
1036,9	2,41
1037,4	5,781
1037,8	-1,848
1038,2	2,524
1038,6	0,352
1039	1,752
1039,4	11,524
1039,8	2,21
1040,3	1,638
1040,7	-0,248
1041,1	-1,048
1041,5	-0,19
1041,9	-3,676
1042,3	-7,019
1042,7	-2,162
1043,2	-6,019
1043,6	-0,533
1044	1,124
1044,4	-0,219
1044,8	3,695
1045,2	2,638
1045,6	3,41
1046,1	6,524
1046,5	4,267
1046,9	2,038
1047,3	2,01
1047,7	-1,276
1048,1	-2,019
1048,5	-3,676
1049	-1,905
1049,4	1,695
1049,8	2,467
1050,2	3,895
1050,6	10,781
1051	13,381
1051,4	17,924
1051,9	15,438
1052,3	19,552
1052,7	18,695
1053,1	16,352
1053,5	13,752
1053,9	11,724
1054,3	7,095
1054,8	9,638
1055,2	6,181
1055,6	10,21
1056	12,695
1056,4	9,667
1056,8	12,61
1057,2	11,267
1057,6	8,81
1058,1	5,895
1058,5	-1,533
1058,9	1,01
1059,3	-1,048
1059,7	-1,876
1060,1	0,381
1060,5	3,324
1061	6,61
1061,4	10,067
1061,8	8,495
1062,2	7,152
1062,6	5,867
1063	7,895
1063,4	5,81
1063,8	3,352
1064,3	-0,619
1064,7	-2,419
1065,1	2,667
1065,5	0,181
1065,9	-2,419
1066,3	-5,048
1066,7	-8,362
1067,1	-10,219
1067,6	-9,505
1068	-15,305
1068,4	-13,962
1068,8	-10,419
1069,2	-8,333
1069,6	-3,59
1070	3,61
1070,4	-1,048
1070,9	1,895
1071,3	2,21
1071,7	-1,076
1072,1	-2,648
1072,5	-10,676
1072,9	-14,962
1073,3	-11,848
1073,7	-9,248
1074,2	-9,733
1074,6	-5,819
1075	-3,448
1075,4	4,552
1075,8	9,038
1076,2	10,838
1076,6	8,038
1077	4,638
1077,5	6,21
1077,9	2,181
1078,3	-1,648
1078,7	-0,705
1079,1	-2,219
1079,5	0,01
1079,9	7,152
1080,3	2,952
1080,7	9,838
1081,2	15,81
1081,6	12,21
1082	11,267
1082,4	14,181
1082,8	12,152
1083,2	10,638
1083,6	8,038
1084	3,267
1084,5	2,638
1084,9	2,41
1085,3	-5,248
1085,7	-6,562
1086,1	-7,362
1086,5	-11,162
1086,9	-8,676
1087,3	-7,362
1087,7	-5,619
1088,2	-0,562
1088,6	-2,39
1089	0,152
1089,4	-1,248
1089,8	-1,048
1090,2	-4,105
1090,6	-5,076
1091	-2,905
1091,4	-1,876
1091,9	-4,333
1092,3	1,61
1092,7	0,924
1093,1	4,438
1093,5	5,124
1093,9	2,438
1094,3	8,581
1094,7	7,41
1095,1	7,552
1095,5	6,124
1096	10,495
1096,4	11,552
1096,8	9,467
1097,2	1,324
1097,6	8,724
1098	7,095
1098,4	9,238
1098,8	8,638
1099,2	11,467
1099,6	11,524
1100,1	10,181
1100,5	4,724
1100,9	3,524
1101,3	1,181
1101,7	-2,819
1102,1	-7,905
1102,5	-6,19
1102,9	-1,305
1103,3	2,667
1103,7	2,095
1104,2	2,41
1104,6	2,924
1105	3,495
1105,4	4,238
1105,8	3,181
1106,2	-0,305
1106,6	0,295
1107	0,667
1107,4	1
1107,8	1,427
1108,3	-0,333
