Data from Subt2_206.txt Node
Date: Sat Aug 26 18:46:43 MSK 2023
User: vat
Spectrometer: MAYP114033
Trigger mode: 0
Integration Time (sec): 1,000000E0
Scans to average: 5
Electric dark correction enabled: true
Nonlinearity correction enabled: false
Boxcar width: 3
XAxis mode: Wavelengths
Number of Pixels in Spectrum: 2068
>>>>>Begin Spectral Data<<<<<
199,4	-0,783
199,9	4,167
200,4	2,7
200,8	2,395
201,3	1,395
201,8	5,281
202,2	2,652
202,7	6,995
203,2	3,795
203,6	4,281
204,1	2,938
204,6	3,881
205	0,195
205,5	3,052
206	-1,376
206,4	-0,576
206,9	-0,805
207,4	1,881
207,8	-0,69
208,3	-1,233
208,8	-2,09
209,2	2,024
209,7	3,195
210,2	2,824
210,6	2,224
211,1	9,481
211,5	7,081
212	8,052
212,5	5,881
212,9	3,738
213,4	1,91
213,9	2,595
214,3	0,424
214,8	4,338
215,3	0,424
215,7	1,738
216,2	2,51
216,7	7,052
217,1	3,567
217,6	3,481
218,1	-0,005
218,5	0,138
219	-6,005
219,5	-6,09
219,9	-12,29
220,4	-4,433
220,9	-7,633
221,3	-4,862
221,8	-0,976
222,3	3,138
222,7	2,167
223,2	3,71
223,6	-2,833
224,1	-2,548
224,6	-2,69
225	-4,262
225,5	-6,376
226	-5,948
226,4	-1,376
226,9	-0,748
227,4	0,395
227,8	-5,319
228,3	-6,433
228,8	-7,405
229,2	-5,033
229,7	-7,09
230,2	-6,776
230,6	-1,748
231,1	8,51
231,5	9,595
232	14,91
232,5	13,71
232,9	15,824
233,4	17,138
233,9	9,452
234,3	6,024
234,8	3,91
235,3	-0,262
235,7	4,652
236,2	4,995
236,7	1,281
237,1	8,795
237,6	5,367
238,1	8,167
238,5	3,967
239	1,252
239,4	2,852
239,9	5,91
240,4	2,91
240,8	7,795
241,3	8,138
241,8	12,681
242,2	8,252
242,7	5,367
243,2	5,081
243,6	1,452
244,1	2,71
244,6	3,338
245	3,11
245,5	5,795
245,9	4,881
246,4	3,538
246,9	4,052
247,3	1,11
247,8	2,71
248,3	4,052
248,7	6,738
249,2	9,252
249,7	9,367
250,1	9,795
250,6	9,024
251	12,652
251,5	15,881
252	14,652
252,4	14,395
252,9	11,081
253,4	7,138
253,8	7,967
254,3	4,481
254,8	-1,776
255,2	-7,776
255,7	-13,29
256,1	-7,49
256,6	-2,748
257,1	-4,433
257,5	-8,433
258	-7,433
258,5	-3,548
258,9	0,395
259,4	-2,376
259,9	0,224
260,3	-0,805
260,8	-2,519
261,2	-2,148
261,7	-1,605
262,2	-6,633
262,6	-6,662
263,1	-5,662
263,6	-0,662
264	5,824
264,5	7,681
264,9	5,624
265,4	10,452
265,9	9,881
266,3	10,395
266,8	9,424
267,3	7,395
267,7	7,167
268,2	8,567
268,7	5,967
269,1	9,71
269,6	5,795
270	5,481
270,5	-2,405
271	-4,033
271,4	-3,49
271,9	-5,805
272,4	-5,862
272,8	-6,662
273,3	-14,148
273,7	-6,576
274,2	-2,69
274,7	-3,033
275,1	2,995
275,6	4,681
276,1	3,024
276,5	10,11
277	10,167
277,4	8,138
277,9	9,795
278,4	6,252
278,8	3,995
279,3	9,167
279,8	6,424
280,2	6,681
280,7	8,395
281,1	3,91
281,6	8,31
282,1	6,338
282,5	1,424
283	1,852
283,4	-1,176
283,9	-1,148
284,4	1,538
284,8	1,767
285,3	2,624
285,8	5,852
286,2	3,967
286,7	4,281
287,1	2,91
287,6	2,967
288,1	-2,29
288,5	2,024
289	0,852
289,5	3,024
289,9	3,71
290,4	6,938
290,8	5,395
291,3	8,052
291,8	4,11
292,2	2,052
292,7	6,338
293,1	6,395
293,6	4,881
294,1	9,652
294,5	8,11
295	7,538
295,5	11,252
295,9	9,252
296,4	6,024
296,8	3,681
297,3	0,481
297,8	-5,89
298,2	-10,576
298,7	-9,319
299,1	-10,233
299,6	-8,976
300,1	-6,548
300,5	-6,976
301	0,167
301,5	6,995
301,9	0,595
302,4	-0,805
302,8	3,195
303,3	-0,748
303,8	-2,719
304,2	-2,69
304,7	-3,833
305,1	-6,348
305,6	-2,976
306,1	3,91
306,5	4,252
307	8,852
307,4	13,024
307,9	11,652
308,4	16,367
308,8	9,367
309,3	0,081
309,8	-3,176
310,2	-4,69
310,7	-10,605
311,1	-10,29
311,6	-9,862
312,1	-4,062
312,5	-0,605
313	4,595
313,4	3,881
313,9	6,452
314,4	4,624
314,8	4,252
315,3	1,795
315,7	-5,462
316,2	-7,805
316,7	-9,719
317,1	-6,376
317,6	-4,033
318	2,224
318,5	1,081
319	4,224
319,4	4,424
319,9	12,424
320,3	9,795
320,8	5,052
321,3	0,367
321,7	4,881
322,2	4,338
322,6	8,51
323,1	2,91
323,6	1,824
324	6,167
324,5	6,081
324,9	6,424
325,4	4,738
325,9	2,31
326,3	6,852
326,8	6,652
327,2	5,024
327,7	5,767
328,2	2,481
328,6	7,452
329,1	3,852
329,5	0,938
330	-2,405
330,5	1,652
330,9	3,652
331,4	4,967
331,8	2,824
332,3	11,71
332,8	10,338
333,2	13,31
333,7	13,167
334,1	12,995
334,6	8,852
335,1	6,795
335,5	4,595
336	2,995
336,4	6,681
336,9	13,995
337,4	14,452
337,8	16,081
338,3	18,852
338,7	18,367
339,2	20,224
339,7	18,738
340,1	5,252
340,6	4,081
341	7,367
341,5	10,652
342	8,652
342,4	5,71
342,9	2,081
343,3	5,967
343,8	3,624
344,2	3,31
344,7	7,252
345,2	7,31
345,6	6,31
346,1	12,081
346,5	11,738
347	10,767
347,5	7,538
347,9	6,11
348,4	4,138
348,8	6,395
349,3	8,595
349,8	11,224
350,2	18,738
350,7	19,624
351,1	17,281
351,6	21,652
352	26,452
352,5	27,167
353	31,938
353,4	35,91
353,9	47,224
354,3	56,481
354,8	67,624
355,3	86,395
355,7	106,252
356,2	127,595
356,6	149,71
357,1	179,938
357,5	212,595
358	254,824
358,5	296,538
358,9	342,452
359,4	397,538
359,8	460,652
360,3	528,938
360,8	603,252
361,2	685,138
361,7	776,824
362,1	879,452
362,6	989,852
363	1105,338
363,5	1229,967
364	1369,195
364,4	1504,938
364,9	1646,081
365,3	1788,138
365,8	1919,51
366,3	2040,452
366,7	2154,252
367,2	2251,481
367,6	2330,624
368,1	2393,624
368,5	2429,481
369	2445,767
369,5	2452,624
369,9	2433,338
370,4	2393,024
370,8	2345,481
371,3	2271,795
371,7	2191,224
372,2	2102,138
372,7	2002,281
373,1	1897,995
373,6	1789,31
374	1678,767
374,5	1570,367
374,9	1461,195
375,4	1356,967
375,9	1255,024
376,3	1155,881
376,8	1065,195
377,2	975,852
377,7	890,71
378,2	816,681
378,6	748,624
379,1	687,652
379,5	634,624
380	583,624
380,4	531,367
380,9	486,31
381,4	443,91
381,8	409,681
382,3	381,71
382,7	351,024
383,2	325,938
383,6	306,452
384,1	289,424
384,6	274,567
385	251,281
385,5	233,51
385,9	215,224
386,4	195,681
386,8	184,538
387,3	173,395
387,7	160,338
388,2	156,081
388,7	145,538
389,1	140,795
389,6	133,538
390	125,71
390,5	117,91
390,9	116,367
391,4	109,081
391,9	97,395
392,3	89,681
392,8	81,595
393,2	71,481
393,7	65,681
394,1	55,681
394,6	52,595
395,1	50,281
395,5	45,138
396	45,167
396,4	43,252
396,9	39,967
397,3	42,395
397,8	42,852
398,2	42,795
398,7	45,738
399,2	49,881
399,6	51,024
400,1	52,481
400,5	48,452
401	46,452
401,4	44,424
401,9	47,738
402,4	44,995
402,8	42,852
403,3	45,31
403,7	44,224
404,2	45,91
404,6	47,195
405,1	40,424
405,5	37,938
406	42,31
406,5	37,367
406,9	40,224
407,4	37,024
407,8	41,51
408,3	44,795
408,7	45,081
409,2	48,938
409,6	55,338
410,1	56,652
410,6	65,967
411	66,138
411,5	72,567
411,9	78,824
412,4	79,452
412,8	86,567
413,3	91,167
413,7	90,767
414,2	95,595
414,7	105,281
415,1	115,395
415,6	123,567
416	122,281
416,5	129,681
416,9	133,024
417,4	142,481
417,8	144,052
418,3	152,881
418,8	161,824
419,2	172,852
419,7	182,31
420,1	192,91
420,6	195,995
421	202,024
421,5	205,31
421,9	211,138
422,4	218,824
422,8	222,624
423,3	231,452
423,8	241,681
424,2	245,224
424,7	256,71
425,1	263,767
425,6	277,51
426	288,052
426,5	301,567
426,9	316,51
427,4	330,738
427,9	338,31
428,3	356,224
428,8	367,881
429,2	380,224
429,7	390,91
430,1	401,481
430,6	423,824
431	440,91
431,5	456,367
431,9	472,052
432,4	495,595
432,8	517,767
433,3	540,71
433,8	563,338
434,2	590,367
434,7	614,538
435,1	643,481
435,6	672,024
436	706,052
436,5	743,624
436,9	775,595
437,4	807,252
437,8	843,424
438,3	881,052
438,8	917,681
439,2	953,338
439,7	993,024
440,1	1032,624
440,6	1078,052
441	1118,71
441,5	1166,024
441,9	1214,881
442,4	1258,624
442,8	1297,138
443,3	1347,767
443,7	1400,967
444,2	1463,967
444,7	1517,567
445,1	1576,052
445,6	1636,538
446	1701,881
446,5	1757,681
446,9	1814,224
447,4	1876,852
447,8	1945,281
448,3	2011,538
448,7	2081,795
449,2	2159,538
449,6	2237,795
450,1	2314,167
450,6	2390,252
451	2454,881
451,5	2534,224
451,9	2618,738
452,4	2698,052
452,8	2778,967
453,3	2869,51
453,7	2950,795
454,2	3048,51
454,6	3136,51
455,1	3220,624
455,5	3299,681
456	3388,938
456,4	3466,424
456,9	3558,424
457,3	3652,338
457,8	3738,595
458,3	3830,71
458,7	3935,71
459,2	4035,424
459,6	4139,31
460,1	4241,481
460,5	4334,052
461	4440,424
461,4	4545,995
461,9	4640,595
462,3	4740,052
462,8	4854,967
463,2	4949,081
463,7	5059,71
464,1	5163,852
464,6	5270,395
465	5381,424
465,5	5483,624
466	5579,224
466,4	5677,052
466,9	5774,338
467,3	5868,452
467,8	5962,31
468,2	6052,481
468,7	6157,852
469,1	6257,052
469,6	6364,681
470	6459,281
470,5	6556,138
470,9	6651,881
471,4	6755,91
471,8	6841,11
472,3	6931,624
472,7	7019,081
473,2	7110,681
473,6	7197,652
474,1	7280,395
474,5	7352,395
475	7440,31
475,4	7517,052
475,9	7597,395
476,4	7669,481
476,8	7750,938
477,3	7828,824
477,7	7912,881
478,2	7983,11
478,6	8049,081
479,1	8108,138
479,5	8160,967
480	8220,738
480,4	8275,024
480,9	8316,91
481,3	8357,824
481,8	8406,767
482,2	8445,538
482,7	8490,995
483,1	8527,052
483,6	8557,681
484	8590,338
484,5	8632,281
484,9	8649,224
485,4	8678,281
485,8	8704,795
486,3	8719,681
486,7	8742,852
487,2	8760,224
487,6	8766,052
488,1	8784,795
488,5	8794,91
489	8799,624
489,4	8812,852
489,9	8803,652
490,4	8795,91
490,8	8791,052
491,3	8785,138
491,7	8772,138
492,2	8766,567
492,6	8739,481
493,1	8722,338
493,5	8695,081
494	8670,538
494,4	8631,138
494,9	8603,71
495,3	8566,024
495,8	8534,024
496,2	8504,224
496,7	8466,852
497,1	8429,852
497,6	8404,195
498	8358,995
498,5	8315,395
498,9	8271,967
499,4	8223,567
499,8	8189,024
500,3	8143,824
500,7	8090,424
501,2	8038,052
501,6	7989,11
502,1	7941,71
502,5	7895,595
503	7844,224
503,4	7788,252
503,9	7745,338
504,3	7705,024
504,8	7646,995
505,2	7589,367
505,7	7529,052
506,1	7479,052
506,6	7425,824
507	7361,052
507,5	7299,624
507,9	7241,567
508,4	7178,967
508,8	7130,595
509,3	7060,71
509,7	6996,252
510,2	6927,338
510,6	6859,224
511,1	6804,31
511,5	6741,91
512	6665,338
512,4	6604,881
512,9	6537,224
513,3	6474,538
513,8	6413,167
514,2	6340,31
514,7	6274,767
515,1	6207,995
515,6	6134,452
516	6064,31
516,5	6000,31
516,9	5937,11
517,4	5873,767
517,8	5815,995
518,3	5755,652
518,7	5701,852
519,2	5641,138
519,6	5574,881
520,1	5508,51
520,5	5445,195
521	5369,995
521,4	5312,424
521,9	5243,024
522,3	5178,767
522,8	5123,538
523,2	5066,967
523,7	5009,11
524,1	4957,024
524,6	4892,795
525	4842,052
525,5	4791,71
525,9	4738,624
526,4	4679,081
526,8	4625,081
527,3	4571,338
527,7	4519,11
528,2	4467,024
528,6	4406,652
529,1	4349,195
529,5	4302,567
530	4249,167
530,4	4193,681
530,9	4150,567
531,3	4097,538
531,8	4059,481
532,2	4016,595
532,6	3963,31
533,1	3918,11
533,5	3882,081
534	3829,995
534,4	3786,51
534,9	3745,138
535,3	3699,567
535,8	3657,624
536,2	3615,51
536,7	3572,424
537,1	3534,51
537,6	3495,195
538	3451,31
538,5	3417,624
538,9	3377,195
539,4	3349,652
539,8	3310,367
540,3	3275,452
540,7	3237,51
541,2	3198,081
541,6	3164,167
542,1	3131,795
542,5	3088,51
543	3058,852
543,4	3020,052
543,9	2990,624
544,3	2965,824
544,8	2925,195
545,2	2894,681
545,7	2867,081
546,1	2837,881
546,5	2811,681
547	2783,51
547,4	2749,881
547,9	2725,538
548,3	2703,824
548,8	2678,652
549,2	2647,938
549,7	2621,852
550,1	2596,367
550,6	2572,195
551	2548,481
551,5	2518,281
551,9	2491,167
552,4	2466,967
552,8	2443,195
553,3	2418,51
553,7	2395,024
554,2	2369,481
554,6	2351,852
555,1	2331,538
555,5	2310,367
555,9	2290,31
556,4	2268,338
556,8	2245,824
557,3	2227,024
557,7	2207,938
558,2	2189,252
558,6	2170,824
559,1	2150,91
559,5	2130,938
560	2120,538
560,4	2102,91
560,9	2082,11
561,3	2059,338
561,8	2044,452
562,2	2026,481
562,7	2007,624
563,1	1986,424
563,6	1966,167
564	1951,824
564,4	1939,595
564,9	1920,938
565,3	1906,938
565,8	1895,852
566,2	1881,452
566,7	1869,881
567,1	1857,824
567,6	1840,31
568	1825,31
568,5	1812,481
568,9	1798,252
569,4	1784,338
569,8	1773,51
570,3	1756,281
570,7	1740,595
571,1	1728,081
571,6	1714,995
572	1703,881
572,5	1691,967
572,9	1677,795
573,4	1662,481
573,8	1661,51
574,3	1647,738
574,7	1634,824
575,2	1617,224
575,6	1601,681
576,1	1592,91
576,5	1588,081
576,9	1567,367
577,4	1553,167
577,8	1544,938
578,3	1537,224
578,7	1527,024
579,2	1514,338
579,6	1494,052
580,1	1484,681
580,5	1477,795
581	1467,224
581,4	1457,024
581,9	1447,624
582,3	1438,052
582,7	1435,138
583,2	1425,395
583,6	1419,938
584,1	1407,795
584,5	1396,652
585	1386,081
585,4	1372,167
585,9	1355,395
586,3	1346,281
586,8	1334,938
587,2	1327,281
587,6	1323,538
588,1	1319,624
588,5	1311,767
589	1312,281
589,4	1304,595
589,9	1298,938
590,3	1287,681
590,8	1277,281
591,2	1266,595
591,7	1262,51
592,1	1254,338
592,5	1249,481
593	1236,538
593,4	1231,31
593,9	1220,681
594,3	1210,567
594,8	1199,624
595,2	1191,338
595,7	1182,424
596,1	1176,538
596,6	1167,91
597	1168,052
597,4	1164,852
597,9	1159,51
598,3	1158,11
598,8	1150,852
599,2	1145,081
599,7	1137,852
600,1	1130,824
600,6	1126,11
601	1123,395
601,4	1117,167
601,9	1115,024
602,3	1109,624
602,8	1107,195
603,2	1098,481
603,7	1092,31
604,1	1082,567
604,6	1067,767
605	1055,195
605,4	1050,595
605,9	1041,824
606,3	1031,995
606,8	1021,424
607,2	1016,881
607,7	1012,91
608,1	1010,681
608,6	1011,367
609	1008,795
609,4	1009,881
609,9	1008,595
610,3	998,51
610,8	988,281
611,2	983,481
611,7	973,224
612,1	962,452
612,6	956,538
613	950,395
613,4	948,967
613,9	949,852
614,3	942,595
614,8	931,824
615,2	928,51
615,7	921,595
616,1	918,795
616,6	909,11
617	898,91
617,4	892,567
617,9	894,881
618,3	893,11
618,8	888,31
619,2	877,938
619,7	878,11
620,1	876,281
620,5	878,224
621	868,31
621,4	862,481
621,9	854,281
622,3	848,51
622,8	842,024
623,2	835,481
623,6	825,195
624,1	824,138
624,5	818,71
625	818,11
625,4	814,167
625,9	809,281
626,3	805,91
626,8	800,51
627,2	791,481
627,6	780,995
628,1	772,224
628,5	767,71
629	761,538
629,4	756,624
629,9	753,11
630,3	743,224
630,7	740,738
631,2	741,195
631,6	737,424
632,1	735,881
632,5	732,224
633	728,338
633,4	727,138
633,8	721,967
634,3	715,11
634,7	709,052
635,2	698,881
635,6	696,024
636,1	689,167
636,5	681,824
636,9	677,367
637,4	672,281
637,8	665,252
638,3	660,567
638,7	652,167
639,2	643,51
639,6	642,338
640	638,881
640,5	633,795
640,9	636,024
641,4	638,252
641,8	637,338
642,2	637,852
642,7	639,881
643,1	640,367
643,6	636,652
644	633,624
644,5	628,681
644,9	626,31
645,3	625,424
645,8	617,481
646,2	613,624
646,7	610,51
647,1	604,167
647,6	599,138
648	594,252
648,4	585,881
648,9	584,824
649,3	576,91
649,8	575,31
650,2	569,452
650,6	569,824
651,1	567,081
651,5	568,252
652	560,224
652,4	558,71
652,9	554,767
653,3	555,252
653,7	550,252
654,2	542,367
654,6	535,967
655,1	536,024
655,5	538,452
655,9	532,052
656,4	527,71
656,8	519,31
657,3	520,995
657,7	520,91
658,2	515,624
658,6	500,252
659	499,252
659,5	491,624
659,9	493,624
660,4	490,795
660,8	482,595
661,2	480,738
661,7	485,167
662,1	482,852
662,6	488,367
663	483,338
663,4	480,452
663,9	478,652
664,3	473,852
664,8	468,081
665,2	462,624
665,6	452,195
666,1	448,824
666,5	445,281
667	441,967
667,4	438,024
667,9	433,167
668,3	429,195
668,7	429,652
669,2	428,338
669,6	425,024
670,1	423,624
670,5	421,51
670,9	421,681
671,4	420,51
671,8	417,824
672,3	415,31
672,7	409,024
673,1	402,452
673,6	396,624
674	393,224
674,5	388,167
674,9	380,595
675,3	375,138
675,8	376,938
676,2	376,31
676,7	374,738
677,1	373,252
677,5	371,224
678	371,824
678,4	371,595
678,9	369,167
679,3	365,71
679,7	364,738
680,2	357,767
680,6	359,138
681,1	356,481
681,5	354,052
681,9	348,967
682,4	345,281
682,8	343,995
683,3	342,195
683,7	338,652
684,1	336,252
684,6	327,938
685	323,138
685,5	324,538
685,9	317,967
686,3	317,052
686,8	316,795
687,2	317,395
687,7	317,567
688,1	315,624
688,5	314,767
689	318,652
689,4	315,51
689,9	307,881
690,3	301,567
690,7	304,624
691,2	310,538
691,6	307,338
692	302,824
692,5	305,395
692,9	306,995
693,4	304,252
693,8	298,167
694,2	288,91
694,7	284,595
695,1	281,881
695,6	279,967
696	278,024
696,4	274,652
696,9	271,395
697,3	265,824
697,8	265,795
698,2	261,538
698,6	258,252
699,1	254,938
699,5	256,71
699,9	253,967
700,4	253,452
700,8	252,052
701,3	253,967
701,7	251,252
702,1	250,51
702,6	247,252
703	252,367
703,5	254,338
703,9	252,11
704,3	251,138
704,8	249,367
705,2	242,91
705,6	241,024
706,1	236,567
706,5	232,595
707	230,652
707,4	233,052
707,8	226,11
708,3	231,538
708,7	229,538
709,2	226,452
709,6	228,967
710	233,281
710,5	224,195
710,9	230,31
711,3	222,567
711,8	224,338
712,2	224,824
712,7	221,51
713,1	215,224
713,5	220,252
714	216,767
714,4	215,538
714,8	216,281
715,3	210,367
715,7	211,624
716,2	211,024
716,6	203,51
717	200,052
717,5	200,881
717,9	197,795
718,3	199,252
718,8	191,738
719,2	191,052
719,7	192,51
720,1	195,367
720,5	197,995
721	195,167
721,4	195,367
721,8	201,881
722,3	197,052
722,7	197,195
723,2	188,224
723,6	179,338
724	176,281
724,5	170,71
724,9	164,424
725,3	162,91
725,8	162,91
726,2	167,767
726,7	168,938
727,1	171,567
727,5	172,595
728	170,081
728,4	169,452
728,8	161,138
729,3	158,167
729,7	156,338
730,1	152,538
730,6	150,967
731	150,252
731,5	151,567
731,9	150,138
732,3	150,395
732,8	151,624
733,2	150,024
733,6	148,424
734,1	148,738
734,5	145,452
734,9	151,081
735,4	147,252
735,8	138,852
736,3	142,538
736,7	141,767
737,1	139,91
737,6	140,081
738	135,595
738,4	136,424
738,9	141,824
739,3	138,338
739,7	139,11
740,2	139,452
740,6	145,452
741,1	144,138
741,5	138,738
741,9	138,71
742,4	137,938
742,8	137,738
743,2	138,281
743,7	131,281
744,1	132,224
744,5	133,281
745	127,767
745,4	125,252
745,8	126,195
746,3	127,452
746,7	122,052
747,2	119,538
747,6	125,681
748	133,538
748,5	135,481
748,9	129,138
749,3	128,452
749,8	132,681
750,2	133,052
750,6	124,595
751,1	125,51
751,5	122,138
751,9	127,31
752,4	122,538
752,8	122,652
753,3	122,281
753,7	127,91
754,1	119,538
754,6	116,738
755	110,252
755,4	105,567
755,9	103,91
756,3	101,281
756,7	99,681
757,2	103,195
757,6	105,481
758	104,224
758,5	104,71
758,9	103,51
759,3	104,081
759,8	101,795
760,2	99,395
760,6	100,481
761,1	101,767
761,5	105,281
761,9	102,51
762,4	99,538
762,8	99,824
763,3	96,11
763,7	96,595
764,1	97,252
764,6	96,852
765	101,652
765,4	105,452
765,9	105,252
766,3	107,881
766,7	100,852
767,2	99,481
767,6	101,824
768	98,081
768,5	93,138
768,9	89,51
769,3	86,224
769,8	87,481
770,2	89,195
770,6	85,11
771,1	86,938
771,5	90,824
771,9	95,224
772,4	97,395
772,8	98,252
773,2	98,195
773,7	98,567
774,1	93,481
774,5	85,252
775	82,195
775,4	84,138
775,8	81,881
776,3	80,852
776,7	79,624
777,1	77,424
777,6	83,481
778	84,967
778,4	81,252
778,9	84,481
779,3	82,881
779,7	79,824
780,2	84,824
780,6	84,11
781	78,167
781,5	79,424
781,9	78,91
782,3	76,767
782,8	78,71
783,2	71,967
783,6	72,595
784,1	76,538
784,5	70,395
784,9	64,452
785,4	65,824
785,8	65,938
786,2	70,91
786,7	69,281
787,1	66,595
787,5	70,567
788	71,51
788,4	73,624
788,8	71,51
789,3	68,624
789,7	69,452
790,1	69,795
790,6	69,395
791	67,11
791,4	64,081
791,9	63,481
792,3	64,624
792,7	66,795
793,2	65,852
793,6	64,367
794	67,11
794,5	67,481
794,9	70,452
795,3	68,024
795,8	62,081
796,2	63,395
796,6	66,738
797,1	66,452
797,5	60,767
797,9	58,195
798,4	57,795
798,8	57,91
799,2	53,852
799,7	54,71
800,1	55,367
800,5	58,71
801	61,995
801,4	60,424
801,8	60,881
802,2	62,567
802,7	55,938
803,1	53,224
803,5	55,052
804	48,138
804,4	50,824
804,8	49,71
805,3	50,652
805,7	53,91
806,1	55,595
806,6	56,481
807	60,052
807,4	59,11
807,9	58,71
808,3	60,195
808,7	56,052
809,2	57,11
809,6	55,967
810	51,767
810,4	50,91
810,9	52,195
811,3	50,91
811,7	53,024
812,2	57,567
812,6	54,224
813	60,595
813,5	61,995
813,9	62,624
814,3	59,395
814,8	56,452
815,2	50,567
815,6	50,567
816,1	49,452
816,5	49,71
816,9	45,138
817,3	49,652
817,8	57,195
818,2	59,195
818,6	55,224
819,1	48,91
819,5	44,71
819,9	49,31
820,4	47,767
820,8	41,51
821,2	37,024
821,7	38,595
822,1	44,738
822,5	52,195
822,9	48,738
823,4	42,538
823,8	47,11
824,2	47,167
824,7	46,452
825,1	38,395
825,5	30,567
826	27,252
826,4	30,338
826,8	24,338
827,3	24,995
827,7	29,224
828,1	31,424
828,5	33,252
829	33,452
829,4	31,595
829,8	27,852
830,3	30,338
830,7	26,31
831,1	29,567
831,6	30,852
832	33,995
832,4	35,195
832,8	41,738
833,3	37,881
833,7	37,967
834,1	33,395
834,6	31,052
835	31,481
835,4	30,795
835,8	24,795
836,3	22,081
836,7	20,995
837,1	21,767
837,6	22,91
838	19,252
838,4	19,567
838,9	19,738
839,3	22,624
839,7	25,91
840,1	23,652
840,6	24,738
841	28,824
841,4	29,795
841,9	34,652
842,3	33,71
842,7	33,624
843,1	38,567
843,6	39,767
844	37,252
844,4	37,681
844,9	36,795
845,3	38,367
845,7	38,081
846,2	33,252
846,6	27,052
847	27,281
847,4	28,91
847,9	28,538
848,3	29,395
848,7	27,538
849,2	27,252
849,6	27,71
850	31,081
850,4	28,395
850,9	32,081
851,3	31,71
851,7	34,281
852,2	37,367
852,6	41,452
853	41,824
853,4	41,31
853,9	34,452
854,3	33,567
854,7	29,338
855,2	26,224
855,6	25,424
856	18,252
856,4	15,052
856,9	17,11
857,3	18,51
857,7	23,795
858,2	26,852
858,6	26,738
859	27,91
859,4	30,538
859,9	29,081
860,3	27,367
860,7	23,481
861,1	25,024
861,6	20,167
862	20,167
862,4	21,338
862,9	21,652
863,3	19,224
863,7	21,71
864,1	21,767
864,6	23,338
865	24,452
865,4	24,224
865,9	28,281
866,3	26,995
866,7	21,881
867,1	16,452
867,6	15,767
868	13,824
868,4	10,938
868,8	6,881
869,3	9,138
869,7	15,167
870,1	16,538
870,6	18,767
871	3,71
871,4	10,367
871,8	4,938
872,3	2,567
872,7	-0,548
873,1	0,995
873,5	-1,576
874	11,481
874,4	7,795
874,8	13,852
875,3	18,024
875,7	18,51
876,1	18,481
876,5	18,538
877	21,967
877,4	16,538
877,8	16,252
878,2	16,967
878,7	16,538
879,1	15,51
879,5	17,852
879,9	19,938
880,4	23,967
880,8	22,881
881,2	22,338
881,7	20,938
882,1	21,138
882,5	17,881
882,9	17,338
883,4	15,738
883,8	16,738
884,2	10,138
884,6	8,938
885,1	11,252
885,5	12,11
885,9	11,081
886,3	11,624
886,8	10,681
887,2	12,567
887,6	11,195
888	8,91
888,5	10,11
888,9	9,481
889,3	5,852
889,8	3,252
890,2	1,567
890,6	-0,005
891	3,852
891,5	5,51
891,9	5,795
892,3	11,652
892,7	17,195
893,2	19,395
893,6	23,595
894	20,367
894,4	17,767
894,9	20,11
895,3	15,052
895,7	14,967
896,1	17,452
896,6	15,652
897	17,938
897,4	24,681
897,8	25,024
898,3	27,51
898,7	20,281
899,1	16,652
899,5	18,024
900	11,852
900,4	8,967
900,8	2,424
901,2	0,338
901,7	2,71
902,1	6,995
902,5	8,195
902,9	10,852
903,4	8,395
903,8	10,595
904,2	8,852
904,6	10,795
905,1	9,995
905,5	8,052
905,9	7,881
906,3	9,738
906,8	16,595
907,2	20,081
907,6	18,424
908	18,424
908,5	17,824
908,9	13,938
909,3	12,138
909,7	4,338
910,2	3,938
910,6	7,967
911	3,195
911,4	4,738
911,9	6,052
912,3	4,452
912,7	10,51
913,1	10,795
913,6	6,167
914	9,852
914,4	7,395
914,8	11,424
915,3	9,538
915,7	6,624
916,1	7,281
916,5	10,31
916,9	11,138
917,4	12,424
917,8	11,167
918,2	7,395
918,6	6,738
919,1	3,252
919,5	3,824
919,9	2,738
920,3	1,395
920,8	0,51
921,2	3,995
921,6	0,538
922	3,167
922,5	0,71
922,9	-0,005
923,3	1,31
923,7	2,91
924,2	3,195
924,6	5,367
925	7,452
925,4	7,767
925,8	7,995
926,3	7,824
926,7	2,738
927,1	1,624
927,5	2,767
928	-1,69
928,4	-3,719
928,8	0,51
929,2	-0,005
929,7	0,967
930,1	3,51
930,5	1,252
930,9	9,081
931,3	12,967
931,8	7,395
932,2	8,795
932,6	10,967
933	5,081
933,5	4,795
933,9	4,452
934,3	3,195
934,7	3,51
935,2	3,252
935,6	3,881
936	13,024
936,4	14,395
936,8	15,11
937,3	12,938
937,7	16,481
938,1	18,138
938,5	14,824
939	11,081
939,4	12,252
939,8	5,395
940,2	6,052
940,6	4,595
941,1	3,11
941,5	6,338
941,9	7,624
942,3	6,481
942,8	9,91
943,2	12,281
943,6	9,138
944	10,738
944,4	9,824
944,9	4,452
945,3	4,681
945,7	-3,005
946,1	-6,519
946,6	-7,748
947	-8,49
947,4	-5,005
947,8	-0,262
948,2	-1,833
948,7	4,195
949,1	5,824
949,5	11,167
949,9	15,51
950,3	15,367
950,8	11,967
951,2	13,995
951,6	12,024
952	13,481
952,5	9,595
952,9	3,624
953,3	0,424
953,7	4,252
954,1	4,395
954,6	5,824
955	5,367
955,4	5,281
955,8	8,224
956,2	6,138
956,7	5,395
957,1	3,195
957,5	7,481
957,9	7,824
958,3	6,052
958,8	8,081
959,2	16,395
959,6	17,338
960	18,167
960,5	18,424
960,9	23,881
961,3	23,938
961,7	17,081
962,1	9,652
962,6	6,881
963	6,224
963,4	-3,976
963,8	-11,976
964,2	-5,805
964,7	-4,062
965,1	5,881
965,5	7,31
965,9	6,681
966,3	16,195
966,8	15,824
967,2	13,91
967,6	14,481
968	3,252
968,4	5,11
968,9	7,281
969,3	8,052
969,7	5,995
970,1	1,31
970,5	0,824
971	6,652
971,4	3,31
971,8	5,195
972,2	2,738
972,6	5,881
973,1	10,452
973,5	10,195
973,9	8,281
974,3	8,91
974,7	9,51
975,2	11,481
975,6	11,224
976	13,224
976,4	14,624
976,8	11,795
977,3	15,138
977,7	8,767
978,1	4,167
978,5	0,652
978,9	-3,119
979,4	-7,29
979,8	-6,89
980,2	-8,748
980,6	-9,776
981	-10,319
981,5	-9,119
981,9	-6,976
982,3	-4,29
982,7	-1,09
983,1	-5,605
983,6	-0,833
984	-0,805
984,4	-1,519
984,8	-2,09
985,2	-0,262
985,6	-5,119
986,1	-1,119
986,5	-3,376
986,9	-8,776
987,3	-0,919
987,7	-3,09
988,2	-9,433
988,6	-1,519
989	-4,605
989,4	-2,605
989,8	3,252
990,3	2,195
990,7	2,338
991,1	8,595
991,5	2,881
991,9	7,795
992,3	9,452
992,8	7,252
993,2	3,595
993,6	4,595
994	3,938
994,4	6,51
994,9	6,338
995,3	1,481
995,7	3,995
996,1	4,195
996,5	5,71
996,9	1,538
997,4	1,567
997,8	-2,348
998,2	-2,89
998,6	-8,319
999	-6,662
999,5	-7,719
999,9	-2,605
1000,3	-5,29
1000,7	-4,29
1001,1	-1,776
1001,5	6,224
1002	12,91
1002,4	15,624
1002,8	11,681
1003,2	17,138
1003,6	21,681
1004	24,71
1004,5	19,367
1004,9	12,224
1005,3	6,824
1005,7	8,052
1006,1	1,424
1006,6	-2,776
1007	-6,176
1007,4	-5,833
1007,8	-6,69
1008,2	-8,405
1008,6	-5,062
1009,1	-1,605
1009,5	1,338
1009,9	4,995
1010,3	7,767
1010,7	6,395
1011,1	9,024
1011,6	9,338
1012	11,338
1012,4	9,767
1012,8	8,852
1013,2	13,367
1013,6	16,195
1014,1	19,224
1014,5	17,852
1014,9	13,31
1015,3	10,195
1015,7	7,31
1016,1	1,852
1016,6	0,338
1017	0,71
1017,4	0,138
1017,8	4,881
1018,2	11,367
1018,6	9,11
1019,1	6,681
1019,5	8,881
1019,9	4,71
1020,3	2,195
1020,7	0,138
1021,1	-7,176
1021,6	-4,319
1022	1,052
1022,4	-2,348
1022,8	1,71
1023,2	0,081
1023,6	-1,062
1024,1	4,652
1024,5	4,395
1024,9	-2,062
1025,3	-2,605
1025,7	-3,948
1026,1	1,738
1026,6	3,281
1027	1,167
1027,4	3,024
1027,8	5,11
1028,2	7,367
1028,6	12,081
1029	11,967
1029,5	12,481
1029,9	9,252
1030,3	7,881
1030,7	7,852
1031,1	9,11
1031,5	3,052
1032	-0,605
1032,4	0,767
1032,8	5,138
1033,2	5,052
1033,6	7,338
1034	4,167
1034,4	2,51
1034,9	4,224
1035,3	2,195
1035,7	4,452
1036,1	0,91
1036,5	-1,862
1036,9	0,481
1037,4	6,91
1037,8	2,824
1038,2	-0,89
1038,6	-4,005
1039	4,738
1039,4	8,224
1039,8	3,71
1040,3	0,195
1040,7	4,11
1041,1	5,081
1041,5	5,652
1041,9	2,167
1042,3	1,595
1042,7	8,081
1043,2	3,11
1043,6	0,681
1044	2,567
1044,4	1,71
1044,8	3,824
1045,2	3,795
1045,6	4,367
1046,1	4,31
1046,5	6,652
1046,9	2,024
1047,3	2,224
1047,7	-3,89
1048,1	-6,605
1048,5	-11,462
1049	-5,205
1049,4	-1,176
1049,8	2,852
1050,2	1,595
1050,6	6,281
1051	13,738
1051,4	12,367
1051,9	10,31
1052,3	14,652
1052,7	13,424
1053,1	11,195
1053,5	10,852
1053,9	8,024
1054,3	10,024
1054,8	11,338
1055,2	6,481
1055,6	9,795
1056	11,281
1056,4	8,738
1056,8	1,995
1057,2	2,852
1057,6	0,652
1058,1	-6,09
1058,5	-14,09
1058,9	-11,805
1059,3	-10,719
1059,7	-6,919
1060,1	-5,062
1060,5	-4,776
1061	0,995
1061,4	3,567
1061,8	6,452
1062,2	2,881
1062,6	6,11
1063	5,652
1063,4	2,281
1063,8	-2,348
1064,3	0,71
1064,7	-4,262
1065,1	0,51
1065,5	-1,662
1065,9	-5,748
1066,3	-6,719
1066,7	-6,405
1067,1	-8,148
1067,6	-4,462
1068	-9,576
1068,4	-9,205
1068,8	-5,548
1069,2	-0,976
1069,6	1,481
1070	8,452
1070,4	4,224
1070,9	7,395
1071,3	6,224
1071,7	2,452
1072,1	5,481
1072,5	2,595
1072,9	-4,805
1073,3	-4,605
1073,7	-8,233
1074,2	-6,119
1074,6	-2,862
1075	-7,548
1075,4	-9,005
1075,8	-2,976
1076,2	-1,233
1076,6	5,367
1077	3,024
1077,5	5,338
1077,9	6,91
1078,3	9,11
1078,7	6,224
1079,1	5,31
1079,5	1,767
1079,9	5,224
1080,3	1,824
1080,7	3,11
1081,2	6,595
1081,6	2,567
1082	1,967
1082,4	8,11
1082,8	3,395
1083,2	3,452
1083,6	2,538
1084	0,224
1084,5	4,481
1084,9	2,052
1085,3	-5,776
1085,7	-2,519
1086,1	-2,919
1086,5	-2,919
1086,9	-0,205
1087,3	-1,519
1087,7	2,881
1088,2	4,281
1088,6	1,795
1089	6,681
1089,4	8,195
1089,8	3,281
1090,2	4,252
1090,6	5,738
1091	11,624
1091,4	15,424
1091,9	11,538
1092,3	10,652
1092,7	12,024
1093,1	11,767
1093,5	5,738
1093,9	-1,376
1094,3	0,938
1094,7	1,052
1095,1	4,881
1095,5	6,481
1096	2,281
1096,4	4,595
1096,8	5,424
1097,2	-1,348
1097,6	0,167
1098	-4,348
1098,4	-3,176
1098,8	-1,205
1099,2	6,395
1099,6	7,824
1100,1	6,738
1100,5	6,11
1100,9	6,51
1101,3	6,51
1101,7	7,338
1102,1	-0,376
1102,5	2,081
1102,9	4,081
1103,3	6,538
1103,7	8,91
1104,2	6,395
1104,6	5,881
1105	4,338
1105,4	1,452
1105,8	1,795
1106,2	-2,148
1106,6	-5,062
1107	-4,548
1107,4	-4,467
1107,8	-0,553
1108,3	-0,133
