Data from Subt2_077.txt Node
Date: Sat Aug 26 16:38:49 MSK 2023
User: vat
Spectrometer: MAYP114033
Trigger mode: 0
Integration Time (sec): 1,000000E0
Scans to average: 5
Electric dark correction enabled: true
Nonlinearity correction enabled: false
Boxcar width: 3
XAxis mode: Wavelengths
Number of Pixels in Spectrum: 2068
>>>>>Begin Spectral Data<<<<<
199,4	0,4
199,9	2,08
200,4	0,733
200,8	0,4
201,3	0,257
201,8	2,6
202,2	1,229
202,7	3,457
203,2	0,743
203,6	1,457
204,1	3,6
204,6	9,629
205	7,686
205,5	8,429
206	10,114
206,4	13,257
206,9	15,057
207,4	15,057
207,8	5,857
208,3	6,743
208,8	9,829
209,2	9,486
209,7	12,371
210,2	16,171
210,6	16,257
211,1	20,229
211,5	17,686
212	9,486
212,5	3,429
212,9	0,743
213,4	0,486
213,9	-0,514
214,3	0,257
214,8	4,171
215,3	11,8
215,7	13,057
216,2	17,086
216,7	13,057
217,1	11,457
217,6	9,714
218,1	6,914
218,5	5,971
219	13,2
219,5	9,714
219,9	13,029
220,4	14,257
220,9	17,486
221,3	18,286
221,8	14,314
222,3	11,057
222,7	9,457
223,2	7,8
223,6	4,057
224,1	1,971
224,6	1,657
225	5,429
225,5	9,114
226	7,257
226,4	6,486
226,9	8,6
227,4	10,286
227,8	14,4
228,3	18,029
228,8	12,086
229,2	21,886
229,7	21,486
230,2	26,371
230,6	23,714
231,1	26,886
231,5	28,257
232	35,943
232,5	31,429
232,9	31,143
233,4	27,714
233,9	30,886
234,3	21,343
234,8	17,2
235,3	9,314
235,7	8,314
236,2	4,571
236,7	5,6
237,1	1,457
237,6	4,743
238,1	5,657
238,5	9,829
239	8,771
239,4	17,771
239,9	16,971
240,4	17,4
240,8	16,771
241,3	15
241,8	8,543
242,2	4,686
242,7	1,086
243,2	1,629
243,6	3,429
244,1	6,257
244,6	3,971
245	8,2
245,5	10,914
245,9	13,543
246,4	12,286
246,9	11,4
247,3	7,571
247,8	9,457
248,3	9,486
248,7	11,829
249,2	4,2
249,7	4,8
250,1	6,771
250,6	10,6
251	10,371
251,5	8,543
252	12,143
252,4	13,257
252,9	13,686
253,4	14,514
253,8	10,371
254,3	13
254,8	16,143
255,2	8,829
255,7	12,543
256,1	15,686
256,6	17,514
257,1	22,429
257,5	24,714
258	18,771
258,5	23,229
258,9	22,4
259,4	18,229
259,9	16,114
260,3	7,8
260,8	3,371
261,2	11,657
261,7	11,657
262,2	10,371
262,6	11,114
263,1	9,286
263,6	22,257
264	20,6
264,5	17,714
264,9	14,571
265,4	14,314
265,9	19,029
266,3	19,171
266,8	11,771
267,3	15,257
267,7	12,829
268,2	10,571
268,7	8,457
269,1	5,029
269,6	7,943
270	11,771
270,5	12,629
271	13,2
271,4	9,114
271,9	15,486
272,4	14,857
272,8	5,8
273,3	4
273,7	-0,629
274,2	3,171
274,7	7,743
275,1	3,114
275,6	3,657
276,1	10,857
276,5	7,343
277	9,429
277,4	8,314
277,9	5,886
278,4	7,686
278,8	11,457
279,3	11,629
279,8	15,257
280,2	14,286
280,7	10,743
281,1	18,314
281,6	18,686
282,1	21,143
282,5	22,314
283	16,314
283,4	18,343
283,9	20,229
284,4	17,229
284,8	16
285,3	4,371
285,8	3,771
286,2	4,771
286,7	1,143
287,1	-3,829
287,6	0,286
288,1	0,8
288,5	10,457
289	10,714
289,5	11,657
289,9	13,057
290,4	14,971
290,8	11,257
291,3	8,143
291,8	2,343
292,2	1,686
292,7	4,371
293,1	6,714
293,6	10,657
294,1	8,486
294,5	12,486
295	9,4
295,5	14,314
295,9	15,2
296,4	17,914
296,8	13,429
297,3	20,143
297,8	19,657
298,2	22,314
298,7	14,343
299,1	13,886
299,6	12,257
300,1	15,943
300,5	12,429
301	15,343
301,5	18,343
301,9	17,143
302,4	14,114
302,8	13,829
303,3	15,229
303,8	10,6
304,2	6,686
304,7	5,943
305,1	7,171
305,6	8,114
306,1	7,829
306,5	6,829
307	10,743
307,4	9,6
307,9	9,971
308,4	14,914
308,8	20,857
309,3	17,743
309,8	20,943
310,2	17,086
310,7	24,914
311,1	22,6
311,6	19,543
312,1	15,486
312,5	18,571
313	15,657
313,4	19,771
313,9	16,057
314,4	15,057
314,8	18,914
315,3	18,114
315,7	17,686
316,2	14,114
316,7	15,371
317,1	11
317,6	12
318	10,229
318,5	12,857
319	11,686
319,4	12,143
319,9	8,657
320,3	16,371
320,8	18,029
321,3	15,914
321,7	14,429
322,2	15,429
322,6	14,229
323,1	17,4
323,6	11,057
324	9,086
324,5	8,4
324,9	8,971
325,4	8,086
325,9	16,029
326,3	16,657
326,8	18,371
327,2	21,943
327,7	22,143
328,2	19,314
328,6	22,886
329,1	17,686
329,5	18,743
330	16,514
330,5	14,514
330,9	16,314
331,4	15,943
331,8	19,629
332,3	25
332,8	20,8
333,2	21,429
333,7	21,914
334,1	25,714
334,6	26,514
335,1	22,057
335,5	21,514
336	19,486
336,4	19,286
336,9	21,343
337,4	17,8
337,8	17,629
338,3	13,971
338,7	10,971
339,2	12,4
339,7	15,143
340,1	11,057
340,6	6,057
341	11,114
341,5	13,571
342	16,4
342,4	14,629
342,9	8,8
343,3	12,971
343,8	19,371
344,2	22,457
344,7	21,8
345,2	17,629
345,6	26,714
346,1	30,143
346,5	27,714
347	28,914
347,5	16,971
347,9	15,086
348,4	14,714
348,8	6,314
349,3	10,057
349,8	8,971
350,2	6,4
350,7	12,829
351,1	14,8
351,6	16,686
352	29,943
352,5	33,8
353	42,914
353,4	49,914
353,9	56,743
354,3	71,629
354,8	84,629
355,3	94,057
355,7	108,229
356,2	125,657
356,6	150,143
357,1	172,257
357,5	198
358	235,286
358,5	273
358,9	312,4
359,4	362,657
359,8	413,114
360,3	475,943
360,8	542
361,2	615,143
361,7	693,686
362,1	793,143
362,6	896,229
363	1003,743
363,5	1121,114
364	1239,8
364,4	1361,971
364,9	1486,114
365,3	1607,314
365,8	1719,171
366,3	1832,914
366,7	1934,371
367,2	2020,714
367,6	2093,971
368,1	2149,371
368,5	2181,886
369	2203,486
369,5	2202,6
369,9	2183,914
370,4	2153,371
370,8	2102,143
371,3	2046,343
371,7	1974,2
372,2	1892,686
372,7	1797,314
373,1	1705,657
373,6	1608,457
374	1508,8
374,5	1408,743
374,9	1310,286
375,4	1214,686
375,9	1128,943
376,3	1040,629
376,8	956,571
377,2	882,6
377,7	810,543
378,2	744,029
378,6	681,371
379,1	620,714
379,5	574,8
380	530,971
380,4	481,914
380,9	446,8
381,4	415,086
381,8	381,4
382,3	355,314
382,7	321
383,2	292,486
383,6	276,8
384,1	255,571
384,6	234,257
385	223,886
385,5	209,257
385,9	197,171
386,4	190,514
386,8	181,143
387,3	167,943
387,7	161,943
388,2	149,514
388,7	140
389,1	130,629
389,6	119,343
390	107,343
390,5	100,886
390,9	97,343
391,4	93,086
391,9	88,457
392,3	83,371
392,8	84,457
393,2	78,714
393,7	76,286
394,1	70,086
394,6	61,029
395,1	60,686
395,5	58,714
396	52,714
396,4	52,057
396,9	49,229
397,3	43,829
397,8	46,171
398,2	43,629
398,7	39,286
399,2	35,8
399,6	40,314
400,1	35,8
400,5	38,4
401	41,314
401,4	38,714
401,9	40,086
402,4	42,371
402,8	40,971
403,3	41
403,7	38,829
404,2	35,343
404,6	33,143
405,1	33,714
405,5	31,029
406	28,857
406,5	30,8
406,9	30,029
407,4	27,829
407,8	28,343
408,3	29,114
408,7	38,886
409,2	38,314
409,6	38,257
410,1	45,2
410,6	52,429
411	57,229
411,5	55,543
411,9	48,486
412,4	53,743
412,8	56,171
413,3	56,914
413,7	55,743
414,2	58,086
414,7	68,543
415,1	67,571
415,6	74,657
416	76,514
416,5	76,143
416,9	80,686
417,4	85,114
417,8	83,771
418,3	91,514
418,8	83,8
419,2	87,057
419,7	92,714
420,1	87,514
420,6	90,486
421	90,429
421,5	91,543
421,9	96,486
422,4	97,343
422,8	93,686
423,3	98,429
423,8	99,543
424,2	102,2
424,7	104,343
425,1	104,657
425,6	109,4
426	113,257
426,5	114,229
426,9	114,2
427,4	112,886
427,9	110,314
428,3	111,629
428,8	111,514
429,2	110,257
429,7	108,457
430,1	106,943
430,6	112,143
431	112,8
431,5	116,543
431,9	114,629
432,4	119,343
432,8	125,343
433,3	127,714
433,8	127,543
434,2	135,257
434,7	135,057
435,1	140,143
435,6	142,429
436	146,429
436,5	157,2
436,9	162,314
437,4	167,171
437,8	174,229
438,3	186,943
438,8	190,886
439,2	199,057
439,7	199,657
440,1	207,943
440,6	220,429
441	231,943
441,5	238,971
441,9	254,771
442,4	269,343
442,8	282,257
443,3	293,829
443,7	301,771
444,2	314,029
444,7	325,429
445,1	334,829
445,6	342,229
446	356,971
446,5	372,857
446,9	388,457
447,4	402,143
447,8	417,543
448,3	435,257
448,7	453,343
449,2	470,257
449,6	485,457
450,1	506,143
450,6	528,343
451	542,457
451,5	559,571
451,9	581,257
452,4	601,571
452,8	627,629
453,3	648,114
453,7	664,657
454,2	687,371
454,6	713,943
455,1	732,886
455,5	761,257
456	780,829
456,4	803,657
456,9	833,314
457,3	871,657
457,8	900,714
458,3	935,829
458,7	963,6
459,2	994,314
459,6	1027,886
460,1	1057,657
460,5	1082,114
461	1109,314
461,4	1138,029
461,9	1169,029
462,3	1202,657
462,8	1238,514
463,2	1273,286
463,7	1305,257
464,1	1349
464,6	1382,914
465	1418,686
465,5	1458,171
466	1492,6
466,4	1533,514
466,9	1572,514
467,3	1598,8
467,8	1646
468,2	1683,2
468,7	1723,343
469,1	1758,771
469,6	1793,286
470	1831,2
470,5	1879,114
470,9	1913
471,4	1953,771
471,8	1990,229
472,3	2025,943
472,7	2068,686
473,2	2108,543
473,6	2145,914
474,1	2178,143
474,5	2215,943
475	2260,286
475,4	2298,4
475,9	2338,143
476,4	2373,6
476,8	2407,229
477,3	2451,057
477,7	2491,8
478,2	2521,629
478,6	2561,429
479,1	2591,8
479,5	2637,714
480	2677,371
480,4	2707,914
480,9	2739,229
481,3	2768,143
481,8	2807,286
482,2	2843,343
482,7	2869,543
483,1	2903,429
483,6	2936,429
484	2965,314
484,5	3001,114
484,9	3027,143
485,4	3054,8
485,8	3081,057
486,3	3105,943
486,7	3140,343
487,2	3165,457
487,6	3192,514
488,1	3219,371
488,5	3241,914
489	3267,343
489,4	3290,4
489,9	3308,371
490,4	3331,429
490,8	3349,629
491,3	3368,857
491,7	3390,086
492,2	3404,371
492,6	3426,886
493,1	3437,629
493,5	3452,457
494	3469,4
494,4	3486,686
494,9	3500,543
495,3	3521,257
495,8	3536,971
496,2	3560,714
496,7	3575,657
497,1	3591,857
497,6	3609,086
498	3624,429
498,5	3640,371
498,9	3645,029
499,4	3650,343
499,8	3660,371
500,3	3670,143
500,7	3669,714
501,2	3681,114
501,6	3685,314
502,1	3701,943
502,5	3709,114
503	3730,2
503,4	3739,857
503,9	3756,571
504,3	3760,943
504,8	3770,343
505,2	3770,629
505,7	3785,486
506,1	3784,743
506,6	3789,257
507	3795,714
507,5	3805,943
507,9	3812,2
508,4	3827,714
508,8	3832,257
509,3	3842,257
509,7	3853,6
510,2	3856,086
510,6	3862,086
511,1	3867,429
511,5	3872,4
512	3883,086
512,4	3882,4
512,9	3881,057
513,3	3892,143
513,8	3895,343
514,2	3906,657
514,7	3899,714
515,1	3900,943
515,6	3914,314
516	3924,829
516,5	3923,686
516,9	3921,543
517,4	3924,4
517,8	3934,514
518,3	3940,971
518,7	3940,2
519,2	3947,114
519,6	3961,571
520,1	3970,857
520,5	3972,057
521	3978,457
521,4	3982,143
521,9	3994,657
522,3	3996,343
522,8	3996,343
523,2	4011,143
523,7	4018,971
524,1	4019,657
524,6	4024,229
525	4026,086
525,5	4033,829
525,9	4038,457
526,4	4038,4
526,8	4035,257
527,3	4046,4
527,7	4053,743
528,2	4056,829
528,6	4066,286
529,1	4070,571
529,5	4075,829
530	4095,114
530,4	4103,371
530,9	4103,686
531,3	4104,971
531,8	4112,371
532,2	4115,686
532,6	4122,143
533,1	4123,171
533,5	4135,143
534	4153,886
534,4	4170,314
534,9	4177,286
535,3	4196,171
535,8	4207,114
536,2	4216,371
536,7	4214,029
537,1	4214,971
537,6	4228,029
538	4232,829
538,5	4240,657
538,9	4243,457
539,4	4259,8
539,8	4270,657
540,3	4278,629
540,7	4276,143
541,2	4279,971
541,6	4286
542,1	4301,6
542,5	4304,686
543	4308,314
543,4	4320,943
543,9	4327,971
544,3	4338,286
544,8	4345,429
545,2	4351,257
545,7	4359,057
546,1	4375,2
546,5	4375,257
547	4385,914
547,4	4393,771
547,9	4400,971
548,3	4409,171
548,8	4416,314
549,2	4420,314
549,7	4433,743
550,1	4446,029
550,6	4456,829
551	4466,914
551,5	4478,686
551,9	4486,857
552,4	4496,457
552,8	4503,057
553,3	4506,486
553,7	4513,4
554,2	4522,029
554,6	4524,171
555,1	4528,771
555,5	4537,914
555,9	4548,2
556,4	4556,057
556,8	4561,457
557,3	4570,543
557,7	4580,714
558,2	4590,8
558,6	4598,829
559,1	4606,229
559,5	4611,057
560	4624,743
560,4	4624,257
560,9	4630,829
561,3	4638,886
561,8	4645,257
562,2	4646,257
562,7	4648,171
563,1	4648,429
563,6	4651,114
564	4652
564,4	4647,857
564,9	4643,057
565,3	4651,857
565,8	4666,571
566,2	4665,229
566,7	4670,343
567,1	4675,8
567,6	4687,743
568	4700
568,5	4696,429
568,9	4686,2
569,4	4690,6
569,8	4694
570,3	4698,829
570,7	4694,829
571,1	4693,029
571,6	4700,914
572	4719,714
572,5	4724,743
572,9	4731,429
573,4	4725,114
573,8	4728,457
574,3	4734,343
574,7	4732,2
575,2	4720,457
575,6	4720,829
576,1	4712,029
576,5	4712,686
576,9	4710,686
577,4	4693,971
577,8	4685,657
578,3	4679,143
578,7	4669,371
579,2	4667,943
579,6	4665,486
580,1	4663,343
580,5	4664,086
581	4661,914
581,4	4664,457
581,9	4668,086
582,3	4664,571
582,7	4659,629
583,2	4648,971
583,6	4647,2
584,1	4637,4
584,5	4631,857
585	4622,229
585,4	4609,8
585,9	4607,229
586,3	4599,943
586,8	4590,971
587,2	4580
587,6	4575,857
588,1	4571,4
588,5	4568,343
589	4547,829
589,4	4541,943
589,9	4534,114
590,3	4539,286
590,8	4523,6
591,2	4507,2
591,7	4494,714
592,1	4491,314
592,5	4486,829
593	4474,514
593,4	4460,686
593,9	4455,286
594,3	4444,343
594,8	4439,2
595,2	4427,714
595,7	4417,229
596,1	4416,714
596,6	4416,371
597	4410,743
597,4	4403,143
597,9	4393,514
598,3	4392,714
598,8	4380,314
599,2	4373
599,7	4359,286
600,1	4351
600,6	4346,657
601	4334,571
601,4	4320,029
601,9	4310,086
602,3	4298,486
602,8	4294,771
603,2	4283,886
603,7	4272,771
604,1	4270,771
604,6	4260,6
605	4251,914
605,4	4236,8
605,9	4219,229
606,3	4211,143
606,8	4199
607,2	4182,971
607,7	4177,886
608,1	4167,343
608,6	4159,143
609	4148
609,4	4129,086
609,9	4115,229
610,3	4104,943
610,8	4085,771
611,2	4071,886
611,7	4056,114
612,1	4041,229
612,6	4031,686
613	4023,343
613,4	4004,429
613,9	3994,029
614,3	3978,229
614,8	3960,743
615,2	3951,257
615,7	3933,743
616,1	3915,657
616,6	3903,943
617	3888,171
617,4	3875,4
617,9	3858,4
618,3	3844,371
618,8	3826,171
619,2	3811,857
619,7	3800,971
620,1	3781,771
620,5	3766,6
621	3761,343
621,4	3738,514
621,9	3728,171
622,3	3715,6
622,8	3694,743
623,2	3683,057
623,6	3663,743
624,1	3647,171
624,5	3626,486
625	3604,743
625,4	3583,057
625,9	3568,371
626,3	3551,657
626,8	3538,257
627,2	3514,686
627,6	3499,114
628,1	3482,686
628,5	3469,743
629	3452,314
629,4	3428,714
629,9	3408,2
630,3	3396,714
630,7	3386,029
631,2	3368,743
631,6	3346,8
632,1	3322,914
632,5	3315,886
633	3299,486
633,4	3276,857
633,8	3255,257
634,3	3237,514
634,7	3222,971
635,2	3212,343
635,6	3189,829
636,1	3178,886
636,5	3170,257
636,9	3154,257
637,4	3141,086
637,8	3123,743
638,3	3103,4
638,7	3093,171
639,2	3073,771
639,6	3052,171
640	3040,4
640,5	3025,2
640,9	3012,771
641,4	2997,514
641,8	2978,143
642,2	2965,543
642,7	2951,171
643,1	2938,543
643,6	2923,6
644	2907,286
644,5	2898,8
644,9	2884,143
645,3	2867,143
645,8	2857,629
646,2	2842,086
646,7	2821,4
647,1	2810,486
647,6	2795,086
648	2779,4
648,4	2763,6
648,9	2745,6
649,3	2720,857
649,8	2707,429
650,2	2693,486
650,6	2678,886
651,1	2666,8
651,5	2656,714
652	2643,086
652,4	2632,143
652,9	2624,486
653,3	2609,057
653,7	2596
654,2	2581,743
654,6	2560,771
655,1	2540,2
655,5	2531,686
655,9	2516,571
656,4	2504,714
656,8	2484,429
657,3	2466,543
657,7	2453,657
658,2	2443,486
658,6	2425,771
659	2408,629
659,5	2391,371
659,9	2379,171
660,4	2363,943
660,8	2353,743
661,2	2337,629
661,7	2322,457
662,1	2307,486
662,6	2291,143
663	2275,086
663,4	2263,571
663,9	2247,429
664,3	2235,057
664,8	2220,229
665,2	2206,857
665,6	2197,714
666,1	2186,743
666,5	2174,457
667	2157,857
667,4	2144,943
667,9	2133,629
668,3	2122,343
668,7	2101,829
669,2	2084,543
669,6	2068,171
670,1	2059,286
670,5	2038,829
670,9	2028,114
671,4	2010,829
671,8	1998,914
672,3	1987,086
672,7	1979,229
673,1	1964,886
673,6	1955,543
674	1942,6
674,5	1934,857
674,9	1924,457
675,3	1916,514
675,8	1900,943
676,2	1889,457
676,7	1881,143
677,1	1868,2
677,5	1853,714
678	1841
678,4	1824,143
678,9	1811,629
679,3	1797
679,7	1785,714
680,2	1775,6
680,6	1761,314
681,1	1746,829
681,5	1737,857
681,9	1724,914
682,4	1717,771
682,8	1700,171
683,3	1685,429
683,7	1681,571
684,1	1670,857
684,6	1660,371
685	1650,571
685,5	1637,514
685,9	1629,857
686,3	1626,029
686,8	1617,686
687,2	1609,886
687,7	1600,114
688,1	1588,743
688,5	1580
689	1573,771
689,4	1562,057
689,9	1545,743
690,3	1535,2
690,7	1521,314
691,2	1515,6
691,6	1504
692	1490,4
692,5	1475,6
692,9	1465,714
693,4	1459,8
693,8	1448,457
694,2	1434,971
694,7	1421,343
695,1	1415,629
695,6	1403,429
696	1395,514
696,4	1378,257
696,9	1372,857
697,3	1359,171
697,8	1350,686
698,2	1335,6
698,6	1332,857
699,1	1320,457
699,5	1315,257
699,9	1309,143
700,4	1304,914
700,8	1302,971
701,3	1294,886
701,7	1278,629
702,1	1268,457
702,6	1258,429
703	1246,886
703,5	1236,486
703,9	1219,6
704,3	1213,429
704,8	1214,457
705,2	1209,343
705,6	1198,486
706,1	1195,971
706,5	1192,286
707	1183,514
707,4	1179,114
707,8	1164,343
708,3	1151,714
708,7	1153,571
709,2	1140,857
709,6	1130,829
710	1127
710,5	1117,971
710,9	1115,143
711,3	1110,6
711,8	1098,057
712,2	1090,429
712,7	1082,4
713,1	1074,486
713,5	1060,2
714	1048,371
714,4	1038,4
714,8	1029,057
715,3	1024,886
715,7	1015,543
716,2	1005,971
716,6	1006,886
717	998,857
717,5	997,371
717,9	989,257
718,3	975,257
718,8	968,286
719,2	962,771
719,7	953,229
720,1	950,657
720,5	944,229
721	937,6
721,4	933,314
721,8	930,743
722,3	923,971
722,7	909,857
723,2	897,971
723,6	888,429
724	883,971
724,5	874,286
724,9	859,886
725,3	848,086
725,8	847,2
726,2	839,6
726,7	832,314
727,1	822,143
727,5	819
728	815,829
728,4	815,829
728,8	809,886
729,3	806,943
729,7	801,2
730,1	800,486
730,6	798,057
731	800,4
731,5	798,143
731,9	793,457
732,3	790,429
732,8	784,514
733,2	775,543
733,6	767,457
734,1	758,571
734,5	746,486
734,9	742,686
735,4	736,486
735,8	734,286
736,3	732,857
736,7	729,829
737,1	725,343
737,6	725,429
738	723,2
738,4	718,8
738,9	719,8
739,3	713,971
739,7	705,743
740,2	701,943
740,6	696,057
741,1	691,829
741,5	689,914
741,9	676,857
742,4	671,743
742,8	675,086
743,2	667,743
743,7	665,343
744,1	650,8
744,5	645,229
745	644,429
745,4	642,371
745,8	633,457
746,3	633,286
746,7	628,486
747,2	631,143
747,6	628,429
748	623,286
748,5	617,057
748,9	611,857
749,3	609,886
749,8	603,314
750,2	599,829
750,6	590,657
751,1	586,4
751,5	578,829
751,9	575,486
752,4	568,914
752,8	565,486
753,3	560,4
753,7	561,714
754,1	558,171
754,6	559,371
755	554,771
755,4	554,743
755,9	550,486
756,3	543,886
756,7	537,086
757,2	536,371
757,6	531,686
758	523,2
758,5	515,657
758,9	513,914
759,3	511,229
759,8	510,143
760,2	505,571
760,6	499,114
761,1	498,457
761,5	497,886
761,9	494,771
762,4	493,657
762,8	487,543
763,3	481,171
763,7	479,714
764,1	474,743
764,6	467,343
765	462,8
765,4	460,943
765,9	458,657
766,3	454,629
766,7	454,114
767,2	455,086
767,6	450,086
768	448,4
768,5	441,914
768,9	437,571
769,3	435,286
769,8	431,257
770,2	432,171
770,6	430,943
771,1	430,229
771,5	429,057
771,9	424,314
772,4	428
772,8	422,8
773,2	416
773,7	415,6
774,1	413,6
774,5	412,114
775	411
775,4	406,829
775,8	403,971
776,3	396,714
776,7	393,914
777,1	391,429
777,6	385,286
778	380,514
778,4	374,657
778,9	372,8
779,3	376,771
779,7	368,314
780,2	361,657
780,6	364,314
781	364,943
781,5	366
781,9	366,914
782,3	362,429
782,8	363,286
783,2	362,686
783,6	351,229
784,1	352,857
784,5	345,543
784,9	339,829
785,4	339,314
785,8	336,771
786,2	331,029
786,7	330,629
787,1	322,371
787,5	319,8
788	318,714
788,4	313
788,8	310,371
789,3	308,971
789,7	308,486
790,1	310,114
790,6	311
791	308,314
791,4	305,457
791,9	305,314
792,3	304,971
792,7	309,429
793,2	301,143
793,6	295,514
794	294,2
794,5	292,857
794,9	290,171
795,3	288,286
795,8	279,943
796,2	282,571
796,6	277,771
797,1	272,629
797,5	267,657
797,9	263,514
798,4	257,629
798,8	256,543
799,2	255,429
799,7	256,429
800,1	255,343
800,5	255,286
801	255,771
801,4	254,029
801,8	250,714
802,2	247,057
802,7	243,571
803,1	239,886
803,5	240,286
804	237,086
804,4	235,314
804,8	240,429
805,3	239,2
805,7	236,714
806,1	239,743
806,6	244,171
807	243,514
807,4	243
807,9	236,971
808,3	231,257
808,7	231
809,2	227,114
809,6	218,657
810	215,743
810,4	215,543
810,9	211,114
811,3	212,971
811,7	211,286
812,2	211,4
812,6	209,514
813	208,886
813,5	207,543
813,9	208,457
814,3	203,8
814,8	204,029
815,2	197,543
815,6	197,457
816,1	194,771
816,5	188,343
816,9	189
817,3	188,171
817,8	189,686
818,2	186,571
818,6	185,4
819,1	183,743
819,5	187,971
819,9	181,886
820,4	186,257
820,8	178,486
821,2	183,343
821,7	180,629
822,1	179,171
822,5	177,971
822,9	182,314
823,4	175,543
823,8	176,629
824,2	174,829
824,7	179,914
825,1	180,4
825,5	179,571
826	172,343
826,4	173,286
826,8	174,286
827,3	172,543
827,7	167,629
828,1	165,514
828,5	162,171
829	157,8
829,4	157,457
829,8	153,086
830,3	150,714
830,7	147,143
831,1	141,057
831,6	137,086
832	138,886
832,4	136,171
832,8	135,714
833,3	129,8
833,7	129,4
834,1	130,114
834,6	130,114
835	131,771
835,4	135,057
835,8	131,6
836,3	134,743
836,7	129,371
837,1	130,229
837,6	128,914
838	127,686
838,4	118,571
838,9	121,429
839,3	123,543
839,7	124,457
840,1	121,486
840,6	120,314
841	117,829
841,4	122,057
841,9	119,943
842,3	116,657
842,7	118,086
843,1	120,229
843,6	124,714
844	122,686
844,4	121,057
844,9	121,143
845,3	118,143
845,7	118,8
846,2	116,971
846,6	111,514
847	110,171
847,4	108,629
847,9	107,429
848,3	110,029
848,7	103,971
849,2	103,686
849,6	106,229
850	104,629
850,4	102,029
850,9	101,029
851,3	100,771
851,7	105,029
852,2	98,686
852,6	94,943
853	101,086
853,4	105,343
853,9	101,771
854,3	97,714
854,7	96,657
855,2	99,4
855,6	96,943
856	88,886
856,4	86,629
856,9	85,829
857,3	85,6
857,7	86,286
858,2	90,086
858,6	94,743
859	94,171
859,4	91,257
859,9	94,429
860,3	93,886
860,7	88,143
861,1	84,543
861,6	80,543
862	80,657
862,4	79,571
862,9	81,143
863,3	78,886
863,7	78,657
864,1	76,086
864,6	74,571
865	74,829
865,4	71,857
865,9	66,4
866,3	70,6
866,7	71,457
867,1	76,657
867,6	78,543
868	82,571
868,4	80,114
868,8	83,057
869,3	78,486
869,7	78,457
870,1	75,229
870,6	73,429
871	141,371
871,4	141,914
871,8	137,143
872,3	140,914
872,7	139,943
873,1	138,029
873,5	138,714
874	65,829
874,4	69,143
874,8	71,914
875,3	68,714
875,7	65,371
876,1	63
876,5	63,743
877	66,571
877,4	65,171
877,8	63,257
878,2	63,171
878,7	69,8
879,1	69,971
879,5	69,686
879,9	67,857
880,4	65
880,8	64,314
881,2	67,257
881,7	64,771
882,1	63,857
882,5	63,857
882,9	61,171
883,4	65,2
883,8	66,343
884,2	60,6
884,6	57,486
885,1	61,657
885,5	63,029
885,9	66,914
886,3	65,286
886,8	62,229
887,2	62,114
887,6	62
888	57,914
888,5	55,971
888,9	51,114
889,3	46,6
889,8	48,457
890,2	46,486
890,6	45,286
891	47,371
891,5	41,914
891,9	41,886
892,3	43,771
892,7	42,8
893,2	44
893,6	43,657
894	42,4
894,4	46,057
894,9	49,057
895,3	49
895,7	47,857
896,1	50,4
896,6	49,514
897	51
897,4	45,057
897,8	45,629
898,3	50,543
898,7	50,314
899,1	47,429
899,5	46,8
900	46,371
900,4	48,143
900,8	47,257
901,2	44,2
901,7	42,714
902,1	44,743
902,5	46,029
902,9	44,543
903,4	44,514
903,8	38
904,2	41,371
904,6	37,829
905,1	37,629
905,5	35,429
905,9	32,114
906,3	33,629
906,8	40,029
907,2	31,343
907,6	36,4
908	34,143
908,5	35,429
908,9	36,086
909,3	36
909,7	29,629
910,2	32,971
910,6	33,343
911	33,886
911,4	32,6
911,9	36,371
912,3	33,886
912,7	37,143
913,1	32,2
913,6	33,086
914	32,714
914,4	33,886
914,8	34,286
915,3	31,886
915,7	27,543
916,1	30,057
916,5	30
916,9	28,857
917,4	28,029
917,8	19,657
918,2	20,114
918,6	26,057
919,1	29
919,5	27,886
919,9	31,514
920,3	31,914
920,8	35,029
921,2	41,286
921,6	36,829
922	33,914
922,5	31,229
922,9	25,943
923,3	27,429
923,7	26,857
924,2	24,343
924,6	23,429
925	24,171
925,4	28,257
925,8	28,343
926,3	27,857
926,7	28,086
927,1	25,714
927,5	26,857
928	24,629
928,4	21,429
928,8	27,943
929,2	24,343
929,7	23,943
930,1	27,057
930,5	28,114
930,9	35,486
931,3	34,514
931,8	27,457
932,2	27,343
932,6	29,543
933	23,086
933,5	21,086
933,9	15,8
934,3	12,971
934,7	15,486
935,2	19,2
935,6	15,8
936	20,543
936,4	20,114
936,8	16,429
937,3	19,2
937,7	20,857
938,1	16
938,5	18,686
939	18,886
939,4	19,057
939,8	20,2
940,2	17,8
940,6	14,371
941,1	21,286
941,5	22,829
941,9	21,314
942,3	22,914
942,8	23,914
943,2	25,457
943,6	27,057
944	23,371
944,4	16,943
944,9	17,457
945,3	17,057
945,7	21,343
946,1	25
946,6	22,829
947	21,714
947,4	21,343
947,8	24,771
948,2	24,829
948,7	20,029
949,1	16,6
949,5	15,057
949,9	17,571
950,3	25,2
950,8	17,6
951,2	16,171
951,6	23,714
952	23,057
952,5	24,971
952,9	22,4
953,3	18,943
953,7	23,257
954,1	23,371
954,6	19,857
955	20,029
955,4	19,086
955,8	21,2
956,2	17,457
956,7	17,457
957,1	19,429
957,5	15,457
957,9	16,057
958,3	17,086
958,8	15,143
959,2	18,886
959,6	17
960	18,429
960,5	16,743
960,9	16,943
961,3	18
961,7	14,429
962,1	12,571
962,6	9,771
963	7,743
963,4	12,229
963,8	14,6
964,2	12,571
964,7	14,657
965,1	18,086
965,5	20,514
965,9	19,543
966,3	14,857
966,8	11,371
967,2	11,857
967,6	12,343
968	10,343
968,4	12,486
968,9	14,514
969,3	15,743
969,7	14,8
970,1	17,943
970,5	22,429
971	20,886
971,4	25
971,8	26,314
972,2	27,171
972,6	27,2
973,1	25,2
973,5	21,457
973,9	18,286
974,3	9
974,7	4,229
975,2	4,171
975,6	-1
976	-0,086
976,4	-0,371
976,8	3,629
977,3	5,829
977,7	7,657
978,1	8,114
978,5	13,857
978,9	10,257
979,4	9,971
979,8	8,057
980,2	5,6
980,6	4,029
981	8
981,5	7,8
981,9	8,657
982,3	6,286
982,7	9,857
983,1	16,486
983,6	16,486
984	11,914
984,4	13,943
984,8	17,714
985,2	20,2
985,6	18,657
986,1	14,314
986,5	12,6
986,9	12,114
987,3	7,4
987,7	4,914
988,2	4,629
988,6	4,829
989	8,457
989,4	10,114
989,8	7,086
990,3	10,686
990,7	7,571
991,1	5,714
991,5	3,6
991,9	6,6
992,3	8,657
992,8	13,4
993,2	15,114
993,6	18,086
994	16,743
994,4	17,571
994,9	16,4
995,3	18,486
995,7	16,829
996,1	14,514
996,5	14
996,9	15,229
997,4	13,171
997,8	9,686
998,2	8,029
998,6	10,657
999	8,829
999,5	6,314
999,9	8,143
1000,3	11,171
1000,7	8,8
1001,1	4,943
1001,5	2,6
1002	-1,143
1002,4	-1,229
1002,8	-0,143
1003,2	0,229
1003,6	4,486
1004	6,971
1004,5	5,886
1004,9	9
1005,3	10,4
1005,7	9,686
1006,1	3,771
1006,6	5,286
1007	7,086
1007,4	5,314
1007,8	6,829
1008,2	6,8
1008,6	1,457
1009,1	5,286
1009,5	10,2
1009,9	13,857
1010,3	22,2
1010,7	25,257
1011,1	31,314
1011,6	37,571
1012	34,829
1012,4	31,314
1012,8	24,314
1013,2	22,143
1013,6	19,314
1014,1	16,771
1014,5	16,457
1014,9	21,429
1015,3	19,057
1015,7	20,086
1016,1	17,686
1016,6	21,029
1017	18,486
1017,4	15,371
1017,8	12,143
1018,2	2,6
1018,6	4,571
1019,1	5,2
1019,5	5,429
1019,9	10,657
1020,3	12,943
1020,7	11,714
1021,1	20,829
1021,6	18,943
1022	16,314
1022,4	18,8
1022,8	12,143
1023,2	10,686
1023,6	12,257
1024,1	11,086
1024,5	8,857
1024,9	15,057
1025,3	13,8
1025,7	20,086
1026,1	23,171
1026,6	26,257
1027	23,314
1027,4	22,286
1027,8	15,6
1028,2	14,057
1028,6	9,886
1029	4,571
1029,5	4,914
1029,9	6,4
1030,3	10,343
1030,7	12,629
1031,1	7,857
1031,5	6,114
1032	9,4
1032,4	7,714
1032,8	8,829
1033,2	10,057
1033,6	9,457
1034	15,6
1034,4	22,943
1034,9	20,229
1035,3	21,943
1035,7	19,686
1036,1	20,086
1036,5	17,2
1036,9	13,2
1037,4	10,629
1037,8	12,229
1038,2	4,743
1038,6	4,629
1039	0,286
1039,4	4,029
1039,8	3,943
1040,3	2,6
1040,7	-0,229
1041,1	9,257
1041,5	8,886
1041,9	10,257
1042,3	9,743
1042,7	13,343
1043,2	10,771
1043,6	18,4
1044	13,514
1044,4	13,486
1044,8	13,743
1045,2	17,543
1045,6	17,086
1046,1	22,686
1046,5	21,229
1046,9	24,029
1047,3	23,8
1047,7	26,057
1048,1	21,886
1048,5	21,943
1049	19,2
1049,4	15,629
1049,8	14,343
1050,2	20,657
1050,6	17,371
1051	17,286
1051,4	13,771
1051,9	18,629
1052,3	16,4
1052,7	14,571
1053,1	16,4
1053,5	20,286
1053,9	22,029
1054,3	21,457
1054,8	19,057
1055,2	21,2
1055,6	18,514
1056	15,229
1056,4	13,2
1056,8	12,257
1057,2	15,371
1057,6	8,714
1058,1	10,486
1058,5	15,543
1058,9	13,6
1059,3	17,429
1059,7	12,6
1060,1	11,886
1060,5	11,714
1061	10
1061,4	13,314
1061,8	8,343
1062,2	4,086
1062,6	5,486
1063	2,086
1063,4	4,057
1063,8	2,114
1064,3	-2,686
1064,7	1,029
1065,1	-0,657
1065,5	6,257
1065,9	9,114
1066,3	6,143
1066,7	10,057
1067,1	8,057
1067,6	12,286
1068	11,743
1068,4	12,6
1068,8	12,514
1069,2	15,771
1069,6	13,771
1070	17
1070,4	12,629
1070,9	11,714
1071,3	7,057
1071,7	7,857
1072,1	8,143
1072,5	10,857
1072,9	15,029
1073,3	14,343
1073,7	13,343
1074,2	14,171
1074,6	10,943
1075	10,629
1075,4	10,371
1075,8	8,6
1076,2	9,857
1076,6	11,686
1077	5,343
1077,5	7,257
1077,9	9,743
1078,3	9,771
1078,7	7,543
1079,1	10,457
1079,5	8,314
1079,9	18,343
1080,3	16,257
1080,7	15,257
1081,2	14,543
1081,6	16,943
1082	15,857
1082,4	21,2
1082,8	13,286
1083,2	10,343
1083,6	9,286
1084	9,257
1084,5	6,029
1084,9	3,057
1085,3	2,114
1085,7	4,029
1086,1	6,629
1086,5	11,829
1086,9	12,571
1087,3	13,457
1087,7	16,4
1088,2	15,429
1088,6	15,543
1089	15,371
1089,4	10,314
1089,8	10,771
1090,2	10,457
1090,6	9,429
1091	16,086
1091,4	17,571
1091,9	21,657
1092,3	18,514
1092,7	17,343
1093,1	15,629
1093,5	14,229
1093,9	10,429
1094,3	13,257
1094,7	9,543
1095,1	10,543
1095,5	8,943
1096	9,343
1096,4	15,314
1096,8	11,2
1097,2	5,914
1097,6	6,029
1098	6,657
1098,4	8
1098,8	12,457
1099,2	8,029
1099,6	11,971
1100,1	15,229
1100,5	17
1100,9	18,857
1101,3	16,629
1101,7	16,2
1102,1	14,8
1102,5	10,914
1102,9	7,371
1103,3	8,686
1103,7	8,4
1104,2	13,114
1104,6	10,771
1105	12,057
1105,4	13,629
1105,8	14,714
1106,2	12,057
1106,6	9,486
1107	5,314
1107,4	3,567
1107,8	1
1108,3	0,1
