Data from Subt2_014.txt Node
Date: Sat Aug 26 16:13:44 MSK 2023
User: vat
Spectrometer: MAYP114033
Trigger mode: 0
Integration Time (sec): 1,000000E0
Scans to average: 5
Electric dark correction enabled: true
Nonlinearity correction enabled: false
Boxcar width: 3
XAxis mode: Wavelengths
Number of Pixels in Spectrum: 2068
>>>>>Begin Spectral Data<<<<<
199,4	-2,117
199,9	-0,007
200,4	-3,2
200,8	-4,938
201,3	-6,338
201,8	-4,081
202,2	-1,367
202,7	-1,31
203,2	-4,138
203,6	1,405
204,1	5,89
204,6	7,176
205	6,033
205,5	7,605
206	8,919
206,4	11,119
206,9	9,005
207,4	6,805
207,8	11,605
208,3	10,576
208,8	11,919
209,2	11,433
209,7	10,119
210,2	11,833
210,6	9,776
211,1	7,062
211,5	5,862
212	0,576
212,5	-0,024
212,9	4,69
213,4	1,49
213,9	4,148
214,3	-1,281
214,8	3,862
215,3	7,805
215,7	10,119
216,2	7,662
216,7	8,776
217,1	6,262
217,6	10,919
218,1	4,519
218,5	-1,767
219	-5,595
219,5	-8,138
219,9	-12,052
220,4	-5,51
220,9	-8,767
221,3	-4,052
221,8	-3,338
222,3	-0,624
222,7	2,348
223,2	9,776
223,6	7,633
224,1	10,662
224,6	4,976
225	11,119
225,5	13,033
226	15,948
226,4	14,005
226,9	12,662
227,4	12,576
227,8	16,405
228,3	11,919
228,8	7,519
229,2	0,233
229,7	-6,138
230,2	-4,281
230,6	-6,538
231,1	-1,052
231,5	2,348
232	3,262
232,5	6,833
232,9	10,319
233,4	7,548
233,9	11,29
234,3	4,148
234,8	0,833
235,3	9,805
235,7	9,662
236,2	7,319
236,7	5,09
237,1	2,062
237,6	5,976
238,1	7,119
238,5	3,233
239	6,205
239,4	9,548
239,9	11,576
240,4	11,662
240,8	9,148
241,3	12,548
241,8	8,69
242,2	5,919
242,7	11,976
243,2	14,176
243,6	16,148
244,1	15,462
244,6	9,948
245	6,376
245,5	6,519
245,9	1,119
246,4	4,005
246,9	6,033
247,3	6,49
247,8	6,233
248,3	10,205
248,7	11,862
249,2	14,148
249,7	12,776
250,1	9,062
250,6	10,376
251	6,005
251,5	4,748
252	4,262
252,4	3,805
252,9	0,462
253,4	1,748
253,8	-1,395
254,3	4,548
254,8	4,919
255,2	3,633
255,7	2,062
256,1	6,633
256,6	-0,995
257,1	2,376
257,5	2,69
258	5,205
258,5	1,033
258,9	-0,31
259,4	-8,252
259,9	-1,681
260,3	-4,081
260,8	-0,767
261,2	-2,824
261,7	-3,824
262,2	-3,738
262,6	-3,824
263,1	-3,881
263,6	-1,681
264	-8,252
264,5	-5,024
264,9	-2,052
265,4	-3,938
265,9	1,176
266,3	4,119
266,8	2,233
267,3	6,49
267,7	3,719
268,2	4,662
268,7	5,948
269,1	6,519
269,6	2,548
270	4,776
270,5	4,148
271	2,176
271,4	2,148
271,9	6,748
272,4	3,862
272,8	6,119
273,3	4,148
273,7	8,233
274,2	5,462
274,7	8,005
275,1	4,662
275,6	5,576
276,1	4,69
276,5	4,405
277	-4,824
277,4	-4,024
277,9	-9,167
278,4	-6,681
278,8	-4,738
279,3	-2,567
279,8	-2,938
280,2	4,605
280,7	11,662
281,1	14,519
281,6	9,519
282,1	5,919
282,5	1,09
283	8,119
283,4	0,833
283,9	-8,167
284,4	-5,567
284,8	-3,995
285,3	-4,567
285,8	1,719
286,2	-6,452
286,7	-5,738
287,1	2,119
287,6	-6,024
288,1	-3,224
288,5	-3,281
289	-8,938
289,5	-5,938
289,9	-4,795
290,4	-9,567
290,8	-0,51
291,3	0,633
291,8	1,719
292,2	10,948
292,7	8,633
293,1	16,633
293,6	17,519
294,1	15,662
294,5	12,062
295	12,062
295,5	5,805
295,9	4,405
296,4	-2,452
296,8	2,862
297,3	0,69
297,8	-1,024
298,2	-2,481
298,7	-1,338
299,1	2,462
299,6	2,233
300,1	1,862
300,5	3,519
301	8,262
301,5	10,89
301,9	15,69
302,4	14,69
302,8	16,662
303,3	13,833
303,8	11,062
304,2	10,748
304,7	14,376
305,1	9,662
305,6	11,376
306,1	8,405
306,5	7,005
307	3,176
307,4	-1,081
307,9	-4,567
308,4	-9,367
308,8	-2,71
309,3	-0,481
309,8	4,033
310,2	7,919
310,7	10,605
311,1	9,062
311,6	11,576
312,1	4,69
312,5	4,348
313	0,662
313,4	3,576
313,9	1,462
314,4	4,719
314,8	7,719
315,3	6,033
315,7	5,605
316,2	6,433
316,7	-0,052
317,1	3,748
317,6	2,862
318	0,948
318,5	5,376
319	5,148
319,4	0,205
319,9	2,376
320,3	-0,024
320,8	-2,081
321,3	-4,595
321,7	-4,995
322,2	-5,31
322,6	0,462
323,1	3,662
323,6	6,776
324	9,548
324,5	15,776
324,9	11,576
325,4	14,605
325,9	11,89
326,3	12,319
326,8	7,805
327,2	6,605
327,7	0,09
328,2	1,69
328,6	1,262
329,1	0,976
329,5	0,576
330	0,69
330,5	1,862
330,9	3,833
331,4	2,719
331,8	2,719
332,3	1,862
332,8	3,148
333,2	4,119
333,7	4,805
334,1	1,462
334,6	2,319
335,1	-0,281
335,5	1,205
336	-1,967
336,4	2,176
336,9	0,262
337,4	4,976
337,8	5,548
338,3	4,833
338,7	6,576
339,2	5,862
339,7	3,548
340,1	6,205
340,6	1,376
341	2,719
341,5	6,548
342	9,519
342,4	14,633
342,9	17,319
343,3	12,319
343,8	18,033
344,2	17,719
344,7	15,748
345,2	15,976
345,6	15,148
346,1	8,49
346,5	9,062
347	6,348
347,5	5,148
347,9	11,319
348,4	5,062
348,8	6,233
349,3	15,49
349,8	20,033
350,2	25,49
350,7	27,919
351,1	26,49
351,6	36,09
352	41,176
352,5	48,89
353	55,262
353,4	64,005
353,9	80,89
354,3	101,405
354,8	117,319
355,3	141,348
355,7	159,69
356,2	195,205
356,6	231,776
357,1	269,576
357,5	311,748
358	365,548
358,5	424,176
358,9	502,09
359,4	577,805
359,8	662,262
360,3	763,49
360,8	878,376
361,2	1006,519
361,7	1149,176
362,1	1299,976
362,6	1468,633
363	1657,462
363,5	1855,69
364	2056,233
364,4	2263,805
364,9	2474,262
365,3	2684,49
365,8	2884,605
366,3	3070,833
366,7	3234,462
367,2	3380,005
367,6	3504,033
368,1	3598,548
368,5	3661,062
369	3691,348
369,5	3692,148
369,9	3672,205
370,4	3624,148
370,8	3542,662
371,3	3437,49
371,7	3313,176
372,2	3185,748
372,7	3046,833
373,1	2881,662
373,6	2720,833
374	2558,462
374,5	2400,205
374,9	2242,662
375,4	2085,662
375,9	1925,319
376,3	1785,919
376,8	1643,462
377,2	1513,576
377,7	1390,49
378,2	1276,548
378,6	1168,148
379,1	1071,805
379,5	980,405
380	902,976
380,4	829,69
380,9	761,005
381,4	697,062
381,8	637,748
382,3	586,89
382,7	562,262
383,2	526,69
383,6	491,719
384,1	457,405
384,6	428,433
385	403,462
385,5	381,348
385,9	336,919
386,4	310,976
386,8	290,576
387,3	271,89
387,7	255,033
388,2	238,262
388,7	219,748
389,1	204,748
389,6	188,89
390	172,348
390,5	161,719
390,9	149,119
391,4	142,033
391,9	136,576
392,3	130,119
392,8	123,776
393,2	116,462
393,7	111,176
394,1	107,062
394,6	99,405
395,1	94,633
395,5	96,148
396	90,262
396,4	93,033
396,9	91,633
397,3	91,862
397,8	92,805
398,2	88,062
398,7	82,233
399,2	87,605
399,6	83,548
400,1	82,548
400,5	81,548
401	79,405
401,4	86,605
401,9	93,976
402,4	95,548
402,8	102,376
403,3	107,633
403,7	116,748
404,2	129,348
404,6	131,519
405,1	129,062
405,5	137,433
406	140,176
406,5	148,548
406,9	154,919
407,4	155,605
407,8	164,033
408,3	174,719
408,7	179,376
409,2	191,09
409,6	201,148
410,1	210,605
410,6	220,919
411	236,633
411,5	249,548
411,9	265,176
412,4	273,805
412,8	280,405
413,3	290,376
413,7	305,205
414,2	313,862
414,7	325,319
415,1	323,976
415,6	338,205
416	350,005
416,5	360,748
416,9	370,405
417,4	377,233
417,8	392,09
418,3	414,319
418,8	427,49
419,2	442,348
419,7	456,262
420,1	468,605
420,6	488,948
421	499,233
421,5	508,862
421,9	524,148
422,4	538,69
422,8	558,862
423,3	578,348
423,8	593,776
424,2	611,776
424,7	635,033
425,1	653,319
425,6	667,062
426	683,919
426,5	706,462
426,9	728,433
427,4	761,033
427,9	786,919
428,3	819,176
428,8	862,319
429,2	900,633
429,7	933,148
430,1	973,605
430,6	1006,405
431	1044,348
431,5	1087,405
431,9	1123,662
432,4	1164,862
432,8	1212,233
433,3	1254,69
433,8	1305,605
434,2	1358,376
434,7	1409,462
435,1	1475,033
435,6	1527,919
436	1592,176
436,5	1660,376
436,9	1724,748
437,4	1800,205
437,8	1875,262
438,3	1944,805
438,8	2025,405
439,2	2105,348
439,7	2195,376
440,1	2289,805
440,6	2380,576
441	2473,205
441,5	2569,148
441,9	2675,548
442,4	2779,519
442,8	2882,49
443,3	2987,89
443,7	3093,405
444,2	3203,748
444,7	3325,833
445,1	3452,033
445,6	3576,69
446	3702,062
446,5	3827,176
446,9	3969,148
447,4	4116,233
447,8	4255,919
448,3	4389,548
448,7	4538,519
449,2	4693,633
449,6	4855,719
450,1	5014,319
450,6	5170,776
451	5329,862
451,5	5514,176
451,9	5688,148
452,4	5862,776
452,8	6046,062
453,3	6230,833
453,7	6421,405
454,2	6620,948
454,6	6799,805
455,1	6996,033
455,5	7186,89
456	7375,576
456,4	7571,605
456,9	7775,519
457,3	7986,348
457,8	8206,033
458,3	8421,833
458,7	8652,433
459,2	8886,119
459,6	9110,29
460,1	9332,548
460,5	9556,576
461	9784,719
461,4	10017,405
461,9	10241,405
462,3	10468,405
462,8	10691,548
463,2	10923,405
463,7	11162,405
464,1	11382,09
464,6	11603,719
465	11829,69
465,5	12062,919
466	12309,462
466,4	12542,805
466,9	12754,633
467,3	12990,576
467,8	13212,605
468,2	13450,548
468,7	13677,148
469,1	13897,233
469,6	14114,49
470	14342,662
470,5	14560,805
470,9	14777,605
471,4	14985,776
471,8	15198,176
472,3	15414,233
472,7	15623,862
473,2	15827,062
473,6	16018,833
474,1	16219,89
474,5	16421,033
475	16608,633
475,4	16780,662
475,9	16957,49
476,4	17140,09
476,8	17317,919
477,3	17490,319
477,7	17648,405
478,2	17800,176
478,6	17958,776
479,1	18110,633
479,5	18245,348
480	18378,576
480,4	18518,776
480,9	18639,89
481,3	18765,976
481,8	18879,976
482,2	18976,319
482,7	19079,033
483,1	19182,348
483,6	19250,462
484	19327,776
484,5	19400,548
484,9	19461,833
485,4	19538,576
485,8	19594,233
486,3	19640,519
486,7	19701,29
487,2	19738,262
487,6	19776,405
488,1	19800,376
488,5	19830,462
489	19851,433
489,4	19863,348
489,9	19856,033
490,4	19856,119
490,8	19842,662
491,3	19845,89
491,7	19798,976
492,2	19773,119
492,6	19754,262
493,1	19716,519
493,5	19667,09
494	19625,462
494,4	19561,633
494,9	19530,405
495,3	19469,605
495,8	19394,319
496,2	19330,948
496,7	19260,633
497,1	19181,748
497,6	19108,919
498	19017,405
498,5	18939,29
498,9	18855,148
499,4	18773,776
499,8	18684,605
500,3	18590,462
500,7	18496,005
501,2	18400,519
501,6	18293,348
502,1	18177,348
502,5	18067,89
503	17973,09
503,4	17867,748
503,9	17756,29
504,3	17640,119
504,8	17518,633
505,2	17407,833
505,7	17276,376
506,1	17145,433
506,6	17011,405
507	16873,433
507,5	16739,376
507,9	16606,976
508,4	16468,948
508,8	16336,405
509,3	16202,033
509,7	16065,376
510,2	15936,376
510,6	15804,176
511,1	15662,862
511,5	15524,605
512	15384,519
512,4	15246,833
512,9	15095,976
513,3	14937,29
513,8	14781,033
514,2	14637,29
514,7	14492,976
515,1	14354,262
515,6	14207,548
516	14074,605
516,5	13946,319
516,9	13810,148
517,4	13665,033
517,8	13523,662
518,3	13376,862
518,7	13227,262
519,2	13081,005
519,6	12942,033
520,1	12804,49
520,5	12667,576
521	12523,633
521,4	12405,148
521,9	12277,262
522,3	12145,748
522,8	12004,405
523,2	11876,09
523,7	11757,062
524,1	11632,662
524,6	11488,405
525	11362,519
525,5	11231,805
525,9	11114,005
526,4	10982,776
526,8	10848,69
527,3	10729,576
527,7	10613,205
528,2	10490,948
528,6	10376,09
529,1	10249,405
529,5	10134,376
530	10033,948
530,4	9930,433
530,9	9817,776
531,3	9706,319
531,8	9600,005
532,2	9507,948
532,6	9405,633
533,1	9293,862
533,5	9181,776
534	9086,948
534,4	8996,09
534,9	8898,748
535,3	8801,433
535,8	8701,948
536,2	8611,005
536,7	8522,062
537,1	8422,776
537,6	8329,319
538	8240,776
538,5	8154,462
538,9	8071,405
539,4	7977,519
539,8	7887,805
540,3	7796,89
540,7	7712,148
541,2	7638,49
541,6	7553,548
542,1	7474,205
542,5	7399,862
543	7324,319
543,4	7259,548
543,9	7187,719
544,3	7104,776
544,8	7029,29
545,2	6962,776
545,7	6894,348
546,1	6828,89
546,5	6758,119
547	6689,548
547,4	6625,462
547,9	6560,833
548,3	6491,462
548,8	6423,29
549,2	6366,005
549,7	6305,405
550,1	6244,376
550,6	6193,005
551	6128,49
551,5	6074,605
551,9	6027,49
552,4	5968,862
552,8	5921,433
553,3	5869,29
553,7	5814,576
554,2	5772,348
554,6	5715,976
555,1	5665,862
555,5	5621,576
555,9	5568,405
556,4	5525,376
556,8	5471,519
557,3	5421,776
557,7	5383,062
558,2	5334,376
558,6	5282,062
559,1	5242,262
559,5	5198,148
560	5149,119
560,4	5105,605
560,9	5060,062
561,3	5015,376
561,8	4979,148
562,2	4938,033
562,7	4897,89
563,1	4866,776
563,6	4838,148
564	4805,033
564,4	4769,976
564,9	4732,862
565,3	4697,176
565,8	4662,576
566,2	4626,633
566,7	4583,062
567,1	4544,976
567,6	4512,205
568	4474,433
568,5	4442,976
568,9	4410,748
569,4	4379,462
569,8	4348,548
570,3	4315,433
570,7	4287,205
571,1	4260,833
571,6	4223,662
572	4189,633
572,5	4164,062
572,9	4135,148
573,4	4102,919
573,8	4074,919
574,3	4045,633
574,7	4019,119
575,2	3990,719
575,6	3958,462
576,1	3930,919
576,5	3912,176
576,9	3881,49
577,4	3858,548
577,8	3833,29
578,3	3810,862
578,7	3785,062
579,2	3753,948
579,6	3724,605
580,1	3704,49
580,5	3670,605
581	3641,119
581,4	3613,176
581,9	3582,376
582,3	3555,519
582,7	3528,976
583,2	3492,405
583,6	3469,89
584,1	3448,519
584,5	3422,948
585	3407,633
585,4	3389,062
585,9	3368,833
586,3	3356,49
586,8	3334,805
587,2	3309,376
587,6	3287,833
588,1	3268,462
588,5	3250,919
589	3231,319
589,4	3207,748
589,9	3190,405
590,3	3176,376
590,8	3154,319
591,2	3132,49
591,7	3111,805
592,1	3094,405
592,5	3074,519
593	3051,976
593,4	3035,09
593,9	3025,833
594,3	3012,148
594,8	2994,405
595,2	2981,662
595,7	2965,09
596,1	2947,662
596,6	2930,348
597	2910,348
597,4	2889,576
597,9	2880,976
598,3	2859,033
598,8	2845,176
599,2	2836,633
599,7	2823,919
600,1	2803,262
600,6	2794,119
601	2777,119
601,4	2769,319
601,9	2759,548
602,3	2741,748
602,8	2721,948
603,2	2715,205
603,7	2695,605
604,1	2673,976
604,6	2654,833
605	2638,119
605,4	2621,433
605,9	2612,348
606,3	2596,062
606,8	2584,49
607,2	2574,548
607,7	2558,405
608,1	2542,262
608,6	2531,033
609	2510,919
609,4	2494,662
609,9	2480,748
610,3	2467,433
610,8	2455,319
611,2	2438,433
611,7	2419,576
612,1	2404,833
612,6	2396,033
613	2378,062
613,4	2364,462
613,9	2345,662
614,3	2334,948
614,8	2325,662
615,2	2313,548
615,7	2296,29
616,1	2284,033
616,6	2269,833
617	2264,376
617,4	2243,69
617,9	2232,062
618,3	2219,548
618,8	2207,776
619,2	2192,005
619,7	2178,719
620,1	2165,89
620,5	2158,348
621	2140,319
621,4	2127,805
621,9	2116,462
622,3	2106,948
622,8	2095,348
623,2	2082,719
623,6	2069,205
624,1	2054,49
624,5	2044,29
625	2030,262
625,4	2015,433
625,9	2000,605
626,3	1979,119
626,8	1970,005
627,2	1961,69
627,6	1944,09
628,1	1929,605
628,5	1922,633
629	1911,433
629,4	1905,776
629,9	1896,776
630,3	1886,119
630,7	1871,862
631,2	1859,376
631,6	1838,662
632,1	1825,548
632,5	1814,062
633	1803,148
633,4	1790,348
633,8	1783,148
634,3	1766,548
634,7	1760,148
635,2	1748,948
635,6	1737,29
636,1	1718,633
636,5	1703,376
636,9	1690,748
637,4	1683,348
637,8	1672,005
638,3	1659,033
638,7	1646,462
639,2	1634,976
639,6	1631,005
640	1624,176
640,5	1611,233
640,9	1602,49
641,4	1589,919
641,8	1582,348
642,2	1574,462
642,7	1566,719
643,1	1558,348
643,6	1555,69
644	1542,776
644,5	1536,348
644,9	1521,862
645,3	1513,919
645,8	1498,062
646,2	1482,633
646,7	1466,633
647,1	1457,319
647,6	1451,805
648	1442,09
648,4	1431,519
648,9	1428,262
649,3	1421,319
649,8	1418,919
650,2	1417,148
650,6	1404,09
651,1	1397,433
651,5	1388,976
652	1376,605
652,4	1363,919
652,9	1352,09
653,3	1341,205
653,7	1332,205
654,2	1321,062
654,6	1306,948
655,1	1295,376
655,5	1292,062
655,9	1281,948
656,4	1269,89
656,8	1264,862
657,3	1259,205
657,7	1251,09
658,2	1245,919
658,6	1239,805
659	1233,005
659,5	1222,89
659,9	1215,805
660,4	1211,29
660,8	1210,062
661,2	1202,09
661,7	1188,005
662,1	1183,548
662,6	1173,405
663	1163,776
663,4	1151,376
663,9	1141,89
664,3	1139,062
664,8	1132,748
665,2	1119,205
665,6	1118,862
666,1	1108,033
666,5	1099,033
667	1090,948
667,4	1077,919
667,9	1066,405
668,3	1064,348
668,7	1052,548
669,2	1046,662
669,6	1042,29
670,1	1035,719
670,5	1024,89
670,9	1022,205
671,4	1010,633
671,8	999,462
672,3	991,89
672,7	986,09
673,1	978,062
673,6	972,776
674	960,348
674,5	952,49
674,9	948,805
675,3	939,576
675,8	926,405
676,2	918,233
676,7	914,605
677,1	910,319
677,5	901,976
678	894,548
678,4	892,176
678,9	887,719
679,3	884,119
679,7	870,976
680,2	867,976
680,6	864,976
681,1	862,776
681,5	858,69
681,9	854,89
682,4	843,433
682,8	843,09
683,3	834,633
683,7	832,776
684,1	820,833
684,6	808,776
685	803,748
685,5	803,233
685,9	793,233
686,3	790,89
686,8	782,948
687,2	779,348
687,7	776,148
688,1	768,748
688,5	760,319
689	758,548
689,4	752,719
689,9	745,519
690,3	736,719
690,7	733,033
691,2	728,833
691,6	722,205
692	718,69
692,5	713,062
692,9	705,376
693,4	704,119
693,8	696,633
694,2	689,233
694,7	685,776
695,1	674,405
695,6	670,119
696	666,29
696,4	661,833
696,9	659,205
697,3	651,862
697,8	648,005
698,2	644,262
698,6	641,462
699,1	635,119
699,5	630,633
699,9	626,148
700,4	627,233
700,8	619,919
701,3	618,148
701,7	610,29
702,1	610,776
702,6	605,948
703	595,319
703,5	588,319
703,9	588,405
704,3	582,319
704,8	576,548
705,2	569,005
705,6	565,09
706,1	562,433
706,5	557,005
707	547,433
707,4	545,29
707,8	543,119
708,3	542,862
708,7	541,948
709,2	539,748
709,6	536,605
710	538,662
710,5	534,348
710,9	530,576
711,3	527,376
711,8	523,062
712,2	521,576
712,7	518,805
713,1	511,005
713,5	505,805
714	504,176
714,4	500,576
714,8	489,062
715,3	488,49
715,7	484,176
716,2	480,833
716,6	481,862
717	469,205
717,5	464,833
717,9	470,462
718,3	461,205
718,8	460,748
719,2	455,462
719,7	452,919
720,1	454,805
720,5	448,833
721	442,205
721,4	440,919
721,8	437,605
722,3	435,119
722,7	426,376
723,2	418,805
723,6	415,748
724	410,033
724,5	405,462
724,9	398,319
725,3	395,605
725,8	392,176
726,2	392,805
726,7	392,605
727,1	392,49
727,5	384,405
728	379,805
728,4	378,548
728,8	376,662
729,3	375,948
729,7	365,376
730,1	361,262
730,6	364,633
731	364,576
731,5	364,976
731,9	362,176
732,3	361,833
732,8	364,662
733,2	363,005
733,6	360,176
734,1	358,233
734,5	349,319
734,9	351,176
735,4	343,062
735,8	340,348
736,3	338,833
736,7	334,29
737,1	333,376
737,6	331,576
738	330,033
738,4	333,948
738,9	337,633
739,3	336,205
739,7	335,862
740,2	333,576
740,6	333,119
741,1	327,376
741,5	321,862
741,9	311,833
742,4	305,176
742,8	301,233
743,2	297,633
743,7	300,519
744,1	300,833
744,5	299,062
745	298,748
745,4	298,719
745,8	302,09
746,3	297,805
746,7	293,233
747,2	287,176
747,6	286,605
748	284,89
748,5	283,176
748,9	277,69
749,3	282,176
749,8	279,776
750,2	274,69
750,6	279,576
751,1	275,805
751,5	278,233
751,9	284,29
752,4	276,319
752,8	268,948
753,3	269,29
753,7	257,89
754,1	255,776
754,6	251,662
755	246,462
755,4	243,805
755,9	249,119
756,3	252,89
756,7	249,033
757,2	249,662
757,6	248,519
758	242,462
758,5	247,919
758,9	244,833
759,3	243,89
759,8	246,862
760,2	244,205
760,6	237,062
761,1	234,748
761,5	234,29
761,9	231,319
762,4	226,062
762,8	220,519
763,3	219,176
763,7	216,348
764,1	213,719
764,6	208,348
765	211,748
765,4	207,748
765,9	203,833
766,3	205,433
766,7	209,119
767,2	210,89
767,6	210,548
768	204,833
768,5	208,348
768,9	204,262
769,3	203,319
769,8	203,49
770,2	198,462
770,6	192,548
771,1	190,662
771,5	187,319
771,9	195,719
772,4	189,776
772,8	187,919
773,2	189,433
773,7	189,662
774,1	191,948
774,5	186,09
775	185,319
775,4	187,805
775,8	188,462
776,3	189,976
776,7	190,662
777,1	186,719
777,6	189,148
778	188,062
778,4	182,062
778,9	183,576
779,3	179,49
779,7	173,919
780,2	173,348
780,6	176,433
781	171,919
781,5	175,462
781,9	166,662
782,3	167,633
782,8	173,405
783,2	173,862
783,6	173,576
784,1	171,033
784,5	167,919
784,9	164,919
785,4	163,976
785,8	163,176
786,2	160,805
786,7	150,69
787,1	151,69
787,5	153,833
788	160,862
788,4	154,405
788,8	148,776
789,3	147,805
789,7	154,748
790,1	153,948
790,6	149,233
791	145,605
791,4	142,119
791,9	142,005
792,3	140,748
792,7	138,148
793,2	137,633
793,6	139,748
794	138,976
794,5	148,062
794,9	148,69
795,3	147,548
795,8	145,433
796,2	144,89
796,6	142,405
797,1	145,89
797,5	140,405
797,9	138,662
798,4	134,405
798,8	138,005
799,2	139,405
799,7	137,576
800,1	132,062
800,5	134,662
801	131,833
801,4	135,548
801,8	130,89
802,2	130,348
802,7	130,719
803,1	126,919
803,5	121,662
804	122,405
804,4	115,976
804,8	114,776
805,3	112,405
805,7	112,376
806,1	113,633
806,6	113,233
807	115,662
807,4	120,519
807,9	118,176
808,3	113,719
808,7	107,09
809,2	108,119
809,6	107,348
810	105,605
810,4	99,005
810,9	99,605
811,3	95,29
811,7	100,319
812,2	101,748
812,6	99,69
813	97,433
813,5	99,833
813,9	101,548
814,3	105,233
814,8	104,805
815,2	99,233
815,6	98,976
816,1	95,662
816,5	97,09
816,9	91,719
817,3	91,919
817,8	91,833
818,2	92,262
818,6	94,319
819,1	95,862
819,5	93,948
819,9	96,033
820,4	94,376
820,8	92,148
821,2	89,662
821,7	88,148
822,1	89,805
822,5	90,719
822,9	88,748
823,4	86,119
823,8	86,233
824,2	85,49
824,7	87,233
825,1	85,862
825,5	83,319
826	83,119
826,4	86,348
826,8	80,005
827,3	82,205
827,7	75,976
828,1	74,462
828,5	71,576
829	72,348
829,4	72,605
829,8	73,49
830,3	69,976
830,7	71,205
831,1	72,69
831,6	73,748
832	67,005
832,4	64,262
832,8	69,948
833,3	71,348
833,7	71,29
834,1	67,233
834,6	64,548
835	70,89
835,4	77,262
835,8	72,29
836,3	68,862
836,7	65,205
837,1	62,233
837,6	64,148
838	63,548
838,4	53,89
838,9	52,29
839,3	54,748
839,7	58,833
840,1	62,862
840,6	62,862
841	54,548
841,4	58,29
841,9	58,205
842,3	60,262
842,7	63,89
843,1	64,29
843,6	66,433
844	72,919
844,4	71,719
844,9	72,833
845,3	71,405
845,7	67,376
846,2	64,376
846,6	61,862
847	59,09
847,4	56,062
847,9	55,805
848,3	52,462
848,7	50,862
849,2	53,49
849,6	51,576
850	52,062
850,4	52,09
850,9	51,719
851,3	49,233
851,7	50,09
852,2	43,29
852,6	43,262
853	41,405
853,4	43,976
853,9	43,576
854,3	48,576
854,7	41,719
855,2	45,376
855,6	44,976
856	46,233
856,4	44,919
856,9	42,662
857,3	41,576
857,7	44,519
858,2	40,09
858,6	39,233
859	38,033
859,4	36,69
859,9	34,576
860,3	36,405
860,7	37,805
861,1	39,262
861,6	36,976
862	37,805
862,4	40,548
862,9	38,89
863,3	36,033
863,7	36,433
864,1	42,033
864,6	50,119
865	52,319
865,4	44,662
865,9	49,348
866,3	47,548
866,7	45,319
867,1	42,433
867,6	31,319
868	25,29
868,4	29,548
868,8	27,376
869,3	27,119
869,7	26,748
870,1	22,29
870,6	25,348
871	-27,024
871,4	-25,824
871,8	-20,938
872,3	-20,452
872,7	-21,567
873,1	-18,51
873,5	-17,738
874	39,548
874,4	36,49
874,8	29,319
875,3	28,719
875,7	31,605
876,1	29,262
876,5	29,719
877	26,49
877,4	24,862
877,8	27,719
878,2	26,233
878,7	25,09
879,1	28,062
879,5	30,348
879,9	24,662
880,4	25,376
880,8	24,005
881,2	22,89
881,7	24,176
882,1	23,719
882,5	22,348
882,9	30,49
883,4	28,833
883,8	27,176
884,2	30,319
884,6	29,29
885,1	23,662
885,5	21,376
885,9	19,948
886,3	19,29
886,8	23,776
887,2	20,662
887,6	17,776
888	25,576
888,5	25,005
888,9	21,462
889,3	25,405
889,8	23,062
890,2	23,633
890,6	22,69
891	20,833
891,5	18,89
891,9	21,862
892,3	20,233
892,7	20,805
893,2	22,319
893,6	23,033
894	18,062
894,4	19,29
894,9	16,69
895,3	12,69
895,7	13,776
896,1	11,776
896,6	13,148
897	13,948
897,4	12,405
897,8	15,09
898,3	18,576
898,7	14,119
899,1	11,262
899,5	9,576
900	13,376
900,4	17,462
900,8	16,405
901,2	18,548
901,7	20,148
902,1	26,376
902,5	26,862
902,9	22,319
903,4	18,976
903,8	17,49
904,2	13,119
904,6	13,348
905,1	11,005
905,5	14,376
905,9	14,948
906,3	13,833
906,8	15,433
907,2	18,233
907,6	15,262
908	15,29
908,5	12,976
908,9	13,862
909,3	17,719
909,7	17,262
910,2	20,005
910,6	23,862
911	21,033
911,4	21,319
911,9	19,119
912,3	16,919
912,7	17,005
913,1	14,062
913,6	14,49
914	12,948
914,4	10,519
914,8	12,262
915,3	15,805
915,7	15,176
916,1	17,776
916,5	13,662
916,9	22,719
917,4	23,862
917,8	24,69
918,2	19,548
918,6	20,833
919,1	17,633
919,5	19,119
919,9	13,833
920,3	10,633
920,8	8,948
921,2	14,005
921,6	14,69
922	15,748
922,5	13,948
922,9	14,719
923,3	18,976
923,7	17,948
924,2	18,233
924,6	15,376
925	17,519
925,4	19,548
925,8	13,433
926,3	11,633
926,7	16,633
927,1	16,119
927,5	17,633
928	19,633
928,4	20,319
928,8	22,976
929,2	25,862
929,7	24,033
930,1	20,89
930,5	20,005
930,9	18,89
931,3	19,519
931,8	18,862
932,2	15,89
932,6	16,376
933	15,662
933,5	12,862
933,9	9,233
934,3	5,205
934,7	6,033
935,2	4,919
935,6	0,919
936	6,033
936,4	7,319
936,8	9,433
937,3	13,719
937,7	10,205
938,1	12,548
938,5	10,033
939	9,49
939,4	12,29
939,8	9,548
940,2	8,576
940,6	13,09
941,1	8,976
941,5	14,919
941,9	9,405
942,3	9,376
942,8	7,805
943,2	8,69
943,6	9,576
944	6,062
944,4	3,833
944,9	7,233
945,3	2,719
945,7	5,348
946,1	-0,195
946,6	2,776
947	10,033
947,4	7,119
947,8	4,462
948,2	5,119
948,7	1,805
949,1	5,148
949,5	1,576
949,9	3,262
950,3	4,49
950,8	2,919
951,2	3,89
951,6	6,376
952	6,833
952,5	3,69
952,9	-1,024
953,3	-0,652
953,7	2,176
954,1	2,148
954,6	1,033
955	0,005
955,4	6,405
955,8	4,548
956,2	6,033
956,7	5,805
957,1	4,605
957,5	3,805
957,9	2,776
958,3	-1,424
958,8	4,862
959,2	5,405
959,6	7,462
960	14,976
960,5	17,462
960,9	20,176
961,3	19,262
961,7	13,576
962,1	9,062
962,6	8,119
963	2,405
963,4	4,462
963,8	6,519
964,2	5,805
964,7	8,69
965,1	13,948
965,5	11,319
965,9	9,376
966,3	6,662
966,8	3,205
967,2	6,119
967,6	7,148
968	4,748
968,4	5,776
968,9	3,862
969,3	1,605
969,7	1,233
970,1	-0,71
970,5	-0,338
971	-0,71
971,4	-1,51
971,8	-1,31
972,2	1,033
972,6	-0,367
973,1	3,948
973,5	1,748
973,9	2,376
974,3	1,033
974,7	3,519
975,2	0,205
975,6	2,748
976	-5,452
976,4	-10,51
976,8	-8,824
977,3	-7,281
977,7	-10,767
978,1	-9,767
978,5	-11,481
978,9	-9,652
979,4	-6,024
979,8	-8,367
980,2	-10,167
980,6	-8,024
981	-4,824
981,5	-10,052
981,9	-6,624
982,3	-3,567
982,7	-4,11
983,1	-0,538
983,6	-3,938
984	-11,881
984,4	-2,51
984,8	-1,31
985,2	-2,138
985,6	-2,967
986,1	-4,881
986,5	0,405
986,9	5,519
987,3	2,548
987,7	3,633
988,2	3,548
988,6	9,605
989	12,605
989,4	12,433
989,8	10,862
990,3	11,776
990,7	11,09
991,1	7,405
991,5	4,205
991,9	1,233
992,3	0,89
992,8	0,176
993,2	-1,995
993,6	-7,338
994	-6,681
994,4	-8,395
994,9	-7,338
995,3	-2,738
995,7	2,633
996,1	2,29
996,5	6,119
996,9	10,033
997,4	10,405
997,8	12,805
998,2	7,49
998,6	2,776
999	1,89
999,5	-0,252
999,9	-1,824
1000,3	-3,081
1000,7	-4,51
1001,1	-2,052
1001,5	-2,195
1002	-1,767
1002,4	-0,51
1002,8	2,719
1003,2	1,29
1003,6	1,662
1004	0,29
1004,5	4,176
1004,9	8,805
1005,3	3,376
1005,7	0,948
1006,1	3,662
1006,6	0,005
1007	-1,281
1007,4	-3,024
1007,8	-5,167
1008,2	-0,081
1008,6	-1,481
1009,1	-0,081
1009,5	5,805
1009,9	6,262
1010,3	4,262
1010,7	6,776
1011,1	5,919
1011,6	13,49
1012	12,776
1012,4	11,462
1012,8	10,776
1013,2	10,919
1013,6	6,776
1014,1	8,319
1014,5	0,605
1014,9	2,576
1015,3	-2,052
1015,7	-0,795
1016,1	3,148
1016,6	3,89
1017	3,605
1017,4	4,519
1017,8	6,519
1018,2	1,005
1018,6	4,776
1019,1	3,748
1019,5	8,233
1019,9	5,376
1020,3	3,519
1020,7	-4,738
1021,1	-1,852
1021,6	-3,252
1022	-5,195
1022,4	-12,481
1022,8	-11,767
1023,2	-8,081
1023,6	-5,71
1024,1	-1,938
1024,5	-5,795
1024,9	-6,395
1025,3	-6,224
1025,7	-5,967
1026,1	-7,852
1026,6	-7,252
1027	-3,052
1027,4	-10,281
1027,8	-6,938
1028,2	-0,795
1028,6	-1,995
1029	1,233
1029,5	-1,395
1029,9	-7,024
1030,3	5,49
1030,7	7,433
1031,1	10,29
1031,5	9,89
1032	4,319
1032,4	6,919
1032,8	10,119
1033,2	6,605
1033,6	5,919
1034	-0,052
1034,4	0,919
1034,9	6,148
1035,3	9,062
1035,7	8,405
1036,1	13,405
1036,5	9,119
1036,9	13,119
1037,4	12,49
1037,8	9,948
1038,2	13,862
1038,6	13,833
1039	1,719
1039,4	6,948
1039,8	4,719
1040,3	9,976
1040,7	11,433
1041,1	2,519
1041,5	5,29
1041,9	14,233
1042,3	12,176
1042,7	10,719
1043,2	10,319
1043,6	3,69
1044	4,348
1044,4	5,462
1044,8	0,09
1045,2	-3,024
1045,6	-4,738
1046,1	-5,738
1046,5	1,062
1046,9	6,176
1047,3	0,405
1047,7	6,09
1048,1	5,576
1048,5	8,548
1049	11,976
1049,4	10,49
1049,8	3,776
1050,2	6,205
1050,6	6,119
1051	12,605
1051,4	7,776
1051,9	-1,967
1052,3	-0,281
1052,7	3,576
1053,1	3,948
1053,5	0,062
1053,9	-2,024
1054,3	1,919
1054,8	9,776
1055,2	10,633
1055,6	6,319
1056	8,033
1056,4	14,633
1056,8	12,233
1057,2	9,548
1057,6	3,519
1058,1	3,69
1058,5	7,89
1058,9	5,49
1059,3	7,662
1059,7	8,576
1060,1	15,005
1060,5	23,862
1061	24,433
1061,4	20,262
1061,8	19,948
1062,2	11,319
1062,6	6,09
1063	0,833
1063,4	-2,624
1063,8	-7,081
1064,3	-0,967
1064,7	-0,795
1065,1	3,119
1065,5	9,062
1065,9	11,948
1066,3	10,233
1066,7	13,519
1067,1	9,205
1067,6	10,748
1068	10,433
1068,4	9,319
1068,8	6,69
1069,2	7,462
1069,6	4,662
1070	5,433
1070,4	3,805
1070,9	-2,338
1071,3	1,205
1071,7	7,919
1072,1	5,576
1072,5	10,776
1072,9	16,348
1073,3	13,633
1073,7	17,662
1074,2	14,348
1074,6	6,633
1075	7,033
1075,4	3,662
1075,8	0,062
1076,2	4,948
1076,6	3,49
1077	-2,652
1077,5	3,433
1077,9	4,605
1078,3	5,976
1078,7	5,919
1079,1	3,29
1079,5	8,633
1079,9	14,348
1080,3	10,319
1080,7	11,548
1081,2	7,976
1081,6	6,748
1082	4,776
1082,4	-0,652
1082,8	-1,395
1083,2	-4,11
1083,6	-6,881
1084	-5,252
1084,5	-3,452
1084,9	-2,51
1085,3	-3,538
1085,7	-2,852
1086,1	0,233
1086,5	-3,052
1086,9	-2,738
1087,3	-2,767
1087,7	-5,367
1088,2	-2,367
1088,6	-4,567
1089	-1,624
1089,4	2,405
1089,8	4,633
1090,2	1,605
1090,6	6,148
1091	7,29
1091,4	9,148
1091,9	8,005
1092,3	6,348
1092,7	1,862
1093,1	8,09
1093,5	6,462
1093,9	4,862
1094,3	6,148
1094,7	4,633
1095,1	8,433
1095,5	9,062
1096	4,919
1096,4	5,348
1096,8	6,576
1097,2	7,433
1097,6	7,576
1098	5,633
1098,4	1,862
1098,8	2,519
1099,2	-1,481
1099,6	-2,081
1100,1	-0,738
1100,5	-1,224
1100,9	-2,052
1101,3	0,833
1101,7	0,233
1102,1	7,062
1102,5	4,976
1102,9	4,005
1103,3	0,262
1103,7	3,519
1104,2	4,605
1104,6	3,433
1105	2,719
1105,4	1,69
1105,8	-0,91
1106,2	2,148
1106,6	-0,624
1107	-0,11
1107,4	0,9
1107,8	-2,287
1108,3	0,983
