Data from Subt2_302.txt Node
Date: Sat Aug 26 19:13:18 MSK 2023
User: vat
Spectrometer: MAYP114033
Trigger mode: 0
Integration Time (sec): 1,000000E0
Scans to average: 5
Electric dark correction enabled: true
Nonlinearity correction enabled: false
Boxcar width: 3
XAxis mode: Wavelengths
Number of Pixels in Spectrum: 2068
>>>>>Begin Spectral Data<<<<<
199,4	0,133
199,9	0,733
200,4	2,033
200,8	4,876
201,3	4,819
201,8	7,39
202,2	7,019
202,7	10,99
203,2	12,162
203,6	11,219
204,1	8,305
204,6	10,276
205	14,448
205,5	15,819
206	13,648
206,4	11,819
206,9	11,762
207,4	13,362
207,8	11,705
208,3	5,39
208,8	5,705
209,2	5,505
209,7	6,562
210,2	8,448
210,6	6,019
211,1	7,533
211,5	2,476
212	1,876
212,5	0,99
212,9	0,59
213,4	1,105
213,9	2,905
214,3	2,333
214,8	12,276
215,3	13,105
215,7	15,476
216,2	19,276
216,7	15,276
217,1	11,362
217,6	13,305
218,1	7,933
218,5	5,362
219	-1,038
219,5	2,819
219,9	0,133
220,4	10,048
220,9	8,076
221,3	5,048
221,8	8,019
222,3	14,705
222,7	11,333
223,2	15,476
223,6	8,248
224,1	10,162
224,6	19,362
225	15,848
225,5	16,619
226	13,305
226,4	16,105
226,9	17,276
227,4	18,905
227,8	8,419
228,3	12,019
228,8	6,533
229,2	8,619
229,7	8,248
230,2	9,705
230,6	9,648
231,1	19,305
231,5	18,905
232	22,305
232,5	14,476
232,9	16,79
233,4	13,219
233,9	10,476
234,3	6,59
234,8	6,733
235,3	3,933
235,7	9,248
236,2	4,362
236,7	6,048
237,1	6,733
237,6	1,133
238,1	-0,724
238,5	-2,324
239	1,19
239,4	7,905
239,9	5,59
240,4	4,019
240,8	12,905
241,3	9,648
241,8	13,333
242,2	12,162
242,7	4,705
243,2	6,362
243,6	9,048
244,1	12,219
244,6	18,133
245	18,505
245,5	15,048
245,9	13,333
246,4	13,733
246,9	13,048
247,3	6,333
247,8	7,162
248,3	8,105
248,7	10,762
249,2	15,076
249,7	11,048
250,1	10,305
250,6	9,962
251	7,676
251,5	9,162
252	9,933
252,4	12,562
252,9	13,333
253,4	7,962
253,8	8,505
254,3	10,162
254,8	5,962
255,2	2,79
255,7	0,848
256,1	4,962
256,6	10,305
257,1	8,99
257,5	4,476
258	10,648
258,5	13,705
258,9	12,59
259,4	12,162
259,9	12,448
260,3	11,076
260,8	8,362
261,2	4,876
261,7	4,076
262,2	-0,552
262,6	-2,352
263,1	-2,295
263,6	2,019
264	8,19
264,5	9,39
264,9	6,905
265,4	11,619
265,9	14,876
266,3	15,39
266,8	16,019
267,3	15,848
267,7	12,933
268,2	13,105
268,7	13,762
269,1	10,705
269,6	8,19
270	8,819
270,5	6,105
271	7,762
271,4	10,019
271,9	5,476
272,4	8,762
272,8	10,362
273,3	9,59
273,7	12,59
274,2	13,99
274,7	9,619
275,1	13,59
275,6	19,076
276,1	16,59
276,5	15,819
277	14,448
277,4	14,419
277,9	18,905
278,4	20,019
278,8	11,076
279,3	17,505
279,8	18,59
280,2	21,848
280,7	19,248
281,1	16,905
281,6	15,676
282,1	15,876
282,5	11,133
283	7,79
283,4	5,019
283,9	5,705
284,4	8,962
284,8	12,048
285,3	11,19
285,8	11,533
286,2	11,362
286,7	11,019
287,1	7,733
287,6	7,219
288,1	-0,124
288,5	5,905
289	3,619
289,5	6,676
289,9	4,59
290,4	8,619
290,8	9,219
291,3	11,819
291,8	10,248
292,2	11,762
292,7	12,705
293,1	12,048
293,6	10,648
294,1	10,133
294,5	10,933
295	7,619
295,5	8,419
295,9	6,533
296,4	8,648
296,8	8,133
297,3	8,505
297,8	7,733
298,2	7,19
298,7	9,076
299,1	8,79
299,6	7,448
300,1	9,133
300,5	9,162
301	12,276
301,5	17,076
301,9	12,19
302,4	10,619
302,8	15,705
303,3	15,59
303,8	11,505
304,2	6,733
304,7	4,848
305,1	2,848
305,6	6,133
306,1	10,333
306,5	13,305
307	21,676
307,4	25,105
307,9	22,905
308,4	28,39
308,8	23,562
309,3	14,905
309,8	12,219
310,2	5,705
310,7	3,048
311,1	2,762
311,6	4,905
312,1	10,59
312,5	14,276
313	13,076
313,4	16,019
313,9	20,105
314,4	19,876
314,8	12,99
315,3	8,476
315,7	4,333
316,2	5,133
316,7	2,819
317,1	7,048
317,6	12,59
318	19,419
318,5	22,076
319	19,562
319,4	19,133
319,9	21,305
320,3	14,733
320,8	9,133
321,3	8,476
321,7	9,076
322,2	11,79
322,6	14,39
323,1	15,733
323,6	18,076
324	20,105
324,5	16,733
324,9	15,648
325,4	15,705
325,9	15,019
326,3	14,619
326,8	13,048
327,2	9,933
327,7	10,819
328,2	9,962
328,6	16,448
329,1	9,876
329,5	7,562
330	9,562
330,5	14,076
330,9	17,019
331,4	20,99
331,8	16,362
332,3	23,048
332,8	23,79
333,2	20,076
333,7	19,333
334,1	17,648
334,6	12,305
335,1	9,305
335,5	6,419
336	2,362
336,4	4,39
336,9	8,248
337,4	8,99
337,8	9,305
338,3	13,476
338,7	15,848
339,2	16,076
339,7	18,733
340,1	13,762
340,6	13,276
341	14,79
341,5	11,705
342	9,476
342,4	13,619
342,9	7,533
343,3	6,59
343,8	6,333
344,2	6,048
344,7	11,933
345,2	9,219
345,6	8,305
346,1	16,19
346,5	17,019
347	14,476
347,5	11,933
347,9	11,648
348,4	15,848
348,8	13,99
349,3	11,448
349,8	13,676
350,2	19,99
350,7	16,448
351,1	16,362
351,6	21,705
352	26,962
352,5	30,705
353	42,048
353,4	45,476
353,9	63,533
354,3	73,505
354,8	79,79
355,3	99,505
355,7	115,162
356,2	131,448
356,6	156,133
357,1	181,133
357,5	210,105
358	252,133
358,5	284,933
358,9	330,905
359,4	378,79
359,8	432,648
360,3	498,19
360,8	568,848
361,2	646,248
361,7	732,648
362,1	830,019
362,6	935,848
363	1046,419
363,5	1161,59
364	1289,819
364,4	1414,876
364,9	1549,733
365,3	1675,905
365,8	1792,962
366,3	1907,962
366,7	2015,362
367,2	2103,305
367,6	2172,762
368,1	2228,133
368,5	2262,905
369	2289,905
369,5	2296,276
369,9	2277,819
370,4	2243,133
370,8	2203,533
371,3	2139,162
371,7	2066,848
372,2	1971,476
372,7	1878,505
373,1	1780,848
373,6	1681,362
374	1575,733
374,5	1475,905
374,9	1378,162
375,4	1285,105
375,9	1190,99
376,3	1101,562
376,8	1013,619
377,2	933,219
377,7	852,819
378,2	782,619
378,6	720,99
379,1	660,533
379,5	606,133
380	560,562
380,4	508,362
380,9	467,59
381,4	426,99
381,8	394,733
382,3	366,933
382,7	338,048
383,2	311,79
383,6	294,419
384,1	277,333
384,6	263,133
385	243,962
385,5	227,19
385,9	214,905
386,4	202,048
386,8	188,562
387,3	175,848
387,7	162,476
388,2	155,448
388,7	144,505
389,1	137,019
389,6	128,048
390	125,419
390,5	120,733
390,9	116,733
391,4	108,305
391,9	104,533
392,3	97,562
392,8	88,476
393,2	77,276
393,7	72,619
394,1	68,333
394,6	69,276
395,1	65,448
395,5	59,333
396	62,505
396,4	67,19
396,9	62,19
397,3	62,79
397,8	59,533
398,2	59,848
398,7	63,59
399,2	63,333
399,6	61,276
400,1	64,476
400,5	57,962
401	57,448
401,4	49,905
401,9	49,305
402,4	51,762
402,8	47,905
403,3	49,133
403,7	48,562
404,2	46,305
404,6	52,219
405,1	50,219
405,5	47,248
406	46,733
406,5	42,362
406,9	44,848
407,4	44,076
407,8	42,048
408,3	46,676
408,7	40,562
409,2	44,333
409,6	46,076
410,1	47,19
410,6	51,105
411	55,762
411,5	53,448
411,9	60,876
412,4	61,848
412,8	63,819
413,3	65,448
413,7	67,648
414,2	62,39
414,7	65,19
415,1	71,333
415,6	74,848
416	75,648
416,5	77,762
416,9	79,362
417,4	88,362
417,8	97,733
418,3	97,105
418,8	99,819
419,2	101,676
419,7	103,133
420,1	105,133
420,6	102,762
421	95,362
421,5	95,619
421,9	96,733
422,4	101,133
422,8	100,762
423,3	99,819
423,8	96,962
424,2	98,505
424,7	99,333
425,1	97,076
425,6	99,276
426	97,848
426,5	98,305
426,9	104,448
427,4	103,019
427,9	95,79
428,3	98,276
428,8	92,448
429,2	92,99
429,7	90,562
430,1	87,79
430,6	87,505
431	89,105
431,5	88,162
431,9	90,105
432,4	90,619
432,8	95,619
433,3	98,219
433,8	97,762
434,2	104,219
434,7	105,733
435,1	107,419
435,6	114,505
436	115,648
436,5	120,733
436,9	124,39
437,4	125,705
437,8	129,733
438,3	132,676
438,8	136,333
439,2	140,133
439,7	144,362
440,1	154,19
440,6	165,562
441	170,305
441,5	179,048
441,9	184,533
442,4	187,19
442,8	192,848
443,3	197,562
443,7	198,819
444,2	210,133
444,7	217,333
445,1	222,448
445,6	233,905
446	244,105
446,5	251,305
446,9	257,162
447,4	262,248
447,8	269,648
448,3	283,362
448,7	295,162
449,2	308,933
449,6	323,848
450,1	334,99
450,6	353,276
451	366,819
451,5	383,933
451,9	400,448
452,4	412,276
452,8	424,076
453,3	444,79
453,7	453,876
454,2	471,305
454,6	484,419
455,1	498,162
455,5	508,648
456	527,076
456,4	541,162
456,9	559,876
457,3	578,905
457,8	590,733
458,3	613,019
458,7	632,448
459,2	652,648
459,6	670,99
460,1	690,362
460,5	705,133
461	735,79
461,4	747,219
461,9	772,676
462,3	793,333
462,8	820,99
463,2	844,305
463,7	868,333
464,1	891,048
464,6	919,733
465	941,276
465,5	971,99
466	998,705
466,4	1022,476
466,9	1051,276
467,3	1073,533
467,8	1100,162
468,2	1128,59
468,7	1149,676
469,1	1177,848
469,6	1207,305
470	1231,362
470,5	1257,39
470,9	1279,619
471,4	1304,648
471,8	1333,076
472,3	1357,448
472,7	1385,648
473,2	1413,705
473,6	1434,133
474,1	1465,876
474,5	1497,248
475	1525,848
475,4	1552,019
475,9	1578,362
476,4	1604,533
476,8	1638,705
477,3	1660,59
477,7	1688,962
478,2	1718,619
478,6	1744,448
479,1	1765,019
479,5	1790,362
480	1809,733
480,4	1838,333
480,9	1855,219
481,3	1866,562
481,8	1883,133
482,2	1893,905
482,7	1916,248
483,1	1942,19
483,6	1959,876
484	1982,448
484,5	2005,305
484,9	2023,79
485,4	2057,448
485,8	2077,79
486,3	2091,533
486,7	2108,276
487,2	2121,79
487,6	2136,19
488,1	2151,19
488,5	2157,905
489	2172,362
489,4	2188,905
489,9	2201,962
490,4	2217,59
490,8	2228,79
491,3	2247,248
491,7	2258,39
492,2	2262,19
492,6	2270,162
493,1	2280,248
493,5	2278,133
494	2281,848
494,4	2288,362
494,9	2298,848
495,3	2309,562
495,8	2314,276
496,2	2321,19
496,7	2329,705
497,1	2344,362
497,6	2342,533
498	2349,19
498,5	2354,305
498,9	2358,733
499,4	2357,333
499,8	2374,962
500,3	2375,79
500,7	2386,362
501,2	2384,562
501,6	2379,962
502,1	2381,79
502,5	2389,619
503	2385,219
503,4	2387,733
503,9	2380,648
504,3	2385,562
504,8	2388,362
505,2	2389,705
505,7	2388,19
506,1	2389,79
506,6	2383,048
507	2388,619
507,5	2381,19
507,9	2383,705
508,4	2384,819
508,8	2385,362
509,3	2375,676
509,7	2377,048
510,2	2375,248
510,6	2377,819
511,1	2373,333
511,5	2371,39
512	2370,619
512,4	2377,248
512,9	2376,876
513,3	2380,648
513,8	2382,99
514,2	2386,79
514,7	2380,876
515,1	2377,333
515,6	2373,676
516	2367,533
516,5	2361,19
516,9	2361,276
517,4	2360,505
517,8	2366,162
518,3	2363,133
518,7	2360,105
519,2	2367,505
519,6	2366,276
520,1	2367,79
520,5	2364,876
521	2362,305
521,4	2367,619
521,9	2368,705
522,3	2363,276
522,8	2359,162
523,2	2355,162
523,7	2352,019
524,1	2349,048
524,6	2343,333
525	2336,733
525,5	2335,076
525,9	2337,476
526,4	2336,076
526,8	2338,562
527,3	2340,648
527,7	2345,448
528,2	2353,419
528,6	2351,59
529,1	2351,905
529,5	2359,676
530	2361,362
530,4	2359,819
530,9	2357,819
531,3	2357,219
531,8	2364,876
532,2	2367,905
532,6	2357,362
533,1	2356,476
533,5	2362,105
534	2365,276
534,4	2364,162
534,9	2365,962
535,3	2363,105
535,8	2370,848
536,2	2375,219
536,7	2372,105
537,1	2369,905
537,6	2374,105
538	2376,619
538,5	2382,048
538,9	2383,962
539,4	2386,105
539,8	2391,619
540,3	2394,076
540,7	2393,476
541,2	2393,676
541,6	2400,448
542,1	2399,848
542,5	2400,276
543	2403,133
543,4	2402,133
543,9	2407,733
544,3	2413,39
544,8	2408,39
545,2	2416,076
545,7	2420,962
546,1	2427,933
546,5	2441,562
547	2443,076
547,4	2448,933
547,9	2452,533
548,3	2453,076
548,8	2455,476
549,2	2450,819
549,7	2449,39
550,1	2462,933
550,6	2461,476
551	2470,648
551,5	2470,619
551,9	2473,333
552,4	2478,105
552,8	2474,905
553,3	2467,333
553,7	2466,705
554,2	2467,762
554,6	2473,905
555,1	2478,705
555,5	2483,305
555,9	2491,876
556,4	2496,819
556,8	2499,876
557,3	2503,562
557,7	2506,79
558,2	2508,848
558,6	2511,676
559,1	2518,133
559,5	2517,39
560	2519,79
560,4	2516,962
560,9	2517,962
561,3	2518,448
561,8	2520,79
562,2	2524,39
562,7	2529,162
563,1	2537,533
563,6	2538,39
564	2538,248
564,4	2540,59
564,9	2540,962
565,3	2534,79
565,8	2533,562
566,2	2531,962
566,7	2538,562
567,1	2544,619
567,6	2542,876
568	2543,762
568,5	2549,39
568,9	2548,133
569,4	2546,419
569,8	2547,105
570,3	2544,962
570,7	2541,219
571,1	2538,533
571,6	2536,19
572	2542,619
572,5	2544,048
572,9	2540,248
573,4	2544,076
573,8	2551,705
574,3	2551,019
574,7	2551,362
575,2	2550,533
575,6	2547,133
576,1	2549,562
576,5	2546,876
576,9	2539,419
577,4	2531,533
577,8	2527,105
578,3	2525,905
578,7	2524,419
579,2	2524,59
579,6	2514,848
580,1	2518,905
580,5	2525,276
581	2527,705
581,4	2519,133
581,9	2513,162
582,3	2503,105
582,7	2504,333
583,2	2495,333
583,6	2488,648
584,1	2487,733
584,5	2482,162
585	2485,333
585,4	2481,99
585,9	2479,276
586,3	2480,705
586,8	2479,476
587,2	2470,162
587,6	2478,419
588,1	2479,219
588,5	2479,305
589	2480,848
589,4	2473,762
589,9	2468,076
590,3	2463,362
590,8	2453,533
591,2	2446,048
591,7	2442,848
592,1	2435,276
592,5	2433,533
593	2430,305
593,4	2423,019
593,9	2415,819
594,3	2412,562
594,8	2405,333
595,2	2401,476
595,7	2398,59
596,1	2392,505
596,6	2389,333
597	2388,19
597,4	2381,705
597,9	2377,562
598,3	2373,39
598,8	2368,19
599,2	2365,105
599,7	2360,876
600,1	2354,362
600,6	2349,876
601	2348,105
601,4	2348,333
601,9	2340,648
602,3	2337,133
602,8	2335,19
603,2	2328,133
603,7	2318,762
604,1	2313,762
604,6	2300,505
605	2292,448
605,4	2289,162
605,9	2279,419
606,3	2273,305
606,8	2269,076
607,2	2259,819
607,7	2252,59
608,1	2257,133
608,6	2253,019
609	2253,019
609,4	2257,476
609,9	2245,39
610,3	2238,676
610,8	2234,19
611,2	2218,533
611,7	2210,105
612,1	2200,705
612,6	2183,648
613	2185,39
613,4	2179,333
613,9	2167,905
614,3	2160,79
614,8	2155,076
615,2	2144,648
615,7	2140,819
616,1	2130,848
616,6	2113,533
617	2107,048
617,4	2100,59
617,9	2093,39
618,3	2096,648
618,8	2091,619
619,2	2083,505
619,7	2092,676
620,1	2087,048
620,5	2084,133
621	2073,848
621,4	2060,705
621,9	2051,105
622,3	2043,362
622,8	2026,276
623,2	2015,762
623,6	2003,819
624,1	1995,105
624,5	1980,448
625	1973,733
625,4	1966,19
625,9	1961,533
626,3	1952,19
626,8	1942,705
627,2	1934,105
627,6	1926,133
628,1	1909,39
628,5	1900,276
629	1882,39
629,4	1875,79
629,9	1867,905
630,3	1851,305
630,7	1841,476
631,2	1835,619
631,6	1828,533
632,1	1828,819
632,5	1818,362
633	1808,648
633,4	1807,019
633,8	1803,819
634,3	1796,419
634,7	1783,305
635,2	1769,505
635,6	1766,048
636,1	1755,876
636,5	1746,505
636,9	1730,99
637,4	1721,276
637,8	1712,448
638,3	1704,39
638,7	1694,248
639,2	1686,333
639,6	1680,19
640	1674,876
640,5	1663,505
640,9	1658,333
641,4	1651,933
641,8	1645,248
642,2	1640,762
642,7	1638,905
643,1	1636,162
643,6	1632,305
644	1625,676
644,5	1618,562
644,9	1610,476
645,3	1602,648
645,8	1589,105
646,2	1583,133
646,7	1575,819
647,1	1567,733
647,6	1563,562
648	1557,162
648,4	1544,476
648,9	1537,619
649,3	1523,99
649,8	1518,133
650,2	1510,39
650,6	1501,248
651,1	1492,533
651,5	1495,048
652	1482,19
652,4	1471,305
652,9	1466,648
653,3	1462,219
653,7	1449,333
654,2	1440,562
654,6	1422,419
655,1	1419,048
655,5	1417,305
655,9	1405,248
656,4	1394,133
656,8	1389,39
657,3	1382,819
657,7	1384,819
658,2	1375,819
658,6	1371,19
659	1360,876
659,5	1351,419
659,9	1347,79
660,4	1342,619
660,8	1328,876
661,2	1318,99
661,7	1309,248
662,1	1302,076
662,6	1293,705
663	1284,076
663,4	1272,533
663,9	1264,619
664,3	1258,448
664,8	1244,162
665,2	1241,333
665,6	1236,676
666,1	1228,305
666,5	1218,105
667	1213,819
667,4	1205,476
667,9	1205,105
668,3	1193,419
668,7	1185,476
669,2	1184,076
669,6	1183,762
670,1	1174,59
670,5	1166,99
670,9	1157,048
671,4	1149,019
671,8	1143,505
672,3	1131,248
672,7	1120,962
673,1	1111,133
673,6	1107,105
674	1101,733
674,5	1097,305
674,9	1084,133
675,3	1072,819
675,8	1066,105
676,2	1065,762
676,7	1053,19
677,1	1041,962
677,5	1036,219
678	1033,133
678,4	1033,733
678,9	1029,733
679,3	1020,419
679,7	1026,39
680,2	1026,162
680,6	1016,362
681,1	1010,962
681,5	1003,333
681,9	995,505
682,4	995,019
682,8	980,733
683,3	970,676
683,7	971,133
684,1	966,905
684,6	959,962
685	950,248
685,5	936,648
685,9	930,419
686,3	928,019
686,8	918,962
687,2	911,648
687,7	903,99
688,1	897,305
688,5	893,819
689	892,99
689,4	885,933
689,9	883,933
690,3	880,705
690,7	878,162
691,2	882,276
691,6	873,762
692	862,419
692,5	858,533
692,9	850,819
693,4	840,533
693,8	840,476
694,2	828,419
694,7	823,248
695,1	817,276
695,6	810,676
696	805,562
696,4	804,133
696,9	796,533
697,3	790,733
697,8	787,705
698,2	787,705
698,6	784,933
699,1	781,819
699,5	778,733
699,9	767,762
700,4	759,762
700,8	757,705
701,3	755,962
701,7	748,448
702,1	740,39
702,6	734,362
703	733,505
703,5	734,505
703,9	724,905
704,3	719,562
704,8	715,99
705,2	709,305
705,6	703,876
706,1	701,305
706,5	697,476
707	697,133
707,4	692,076
707,8	683,819
708,3	686,019
708,7	681,762
709,2	672,905
709,6	664,99
710	662,448
710,5	653,505
710,9	652,79
711,3	643,79
711,8	642,533
712,2	640,905
712,7	634,676
713,1	630,933
713,5	632,048
714	626,619
714,4	621,819
714,8	618,619
715,3	609,762
715,7	608,533
716,2	593,962
716,6	592,505
717	589,362
717,5	587,533
717,9	585,048
718,3	584,505
718,8	581,562
719,2	583,819
719,7	574,162
720,1	577,105
720,5	578,79
721	567,076
721,4	563,905
721,8	562,305
722,3	553,562
722,7	549,476
723,2	535,333
723,6	520,505
724	516,933
724,5	508,648
724,9	500,419
725,3	500,648
725,8	496,105
726,2	495,676
726,7	496,819
727,1	493,419
727,5	493,505
728	489,248
728,4	488,905
728,8	485,219
729,3	480,333
729,7	477,305
730,1	475,362
730,6	476,99
731	477,048
731,5	475,762
731,9	474,276
732,3	473,619
732,8	470,705
733,2	468,876
733,6	462,59
734,1	463,562
734,5	456,59
734,9	458,848
735,4	459,305
735,8	452,276
736,3	451,848
736,7	449,619
737,1	446,933
737,6	444,848
738	437,133
738,4	431,276
738,9	434,59
739,3	429,848
739,7	427,419
740,2	422,819
740,6	424,705
741,1	426,705
741,5	421,162
741,9	418,619
742,4	418,133
742,8	413,505
743,2	412,705
743,7	404,219
744,1	399,276
744,5	396,105
745	391,19
745,4	387,762
745,8	386,962
746,3	380,79
746,7	378,762
747,2	374,848
747,6	380,305
748	381,79
748,5	385,076
748,9	376,876
749,3	376,905
749,8	381,133
750,2	378,619
750,6	366,305
751,1	364,59
751,5	359,99
751,9	362,39
752,4	359,562
752,8	352,448
753,3	350,962
753,7	360,705
754,1	354,333
754,6	349,59
755	349,333
755,4	347,733
755,9	345,962
756,3	343,99
756,7	338,419
757,2	341,819
757,6	339,705
758	338,39
758,5	336,19
758,9	337,048
759,3	334,505
759,8	329,533
760,2	321,448
760,6	319,762
761,1	313,276
761,5	311,133
761,9	305,762
762,4	300,076
762,8	298,676
763,3	300,619
763,7	298,333
764,1	302,933
764,6	302,533
765	302,162
765,4	305,562
765,9	308,19
766,3	304,819
766,7	298,59
767,2	292,505
767,6	291,162
768	285,39
768,5	281,619
768,9	278,248
769,3	271,733
769,8	273,219
770,2	271,619
770,6	267,876
771,1	275,733
771,5	272,79
771,9	271,533
772,4	275,248
772,8	274,676
773,2	272,59
773,7	269,305
774,1	263,219
774,5	260,819
775	258,19
775,4	256,076
775,8	249,79
776,3	250,619
776,7	249,276
777,1	246,305
777,6	248,705
778	248,819
778,4	246,133
778,9	250,19
779,3	247,905
779,7	247,79
780,2	246,762
780,6	247,248
781	241,762
781,5	240,333
781,9	236,076
782,3	230,99
782,8	230,876
783,2	228,962
783,6	228,819
784,1	226,219
784,5	225,79
784,9	230,39
785,4	233,962
785,8	233,533
786,2	231,676
786,7	226,133
787,1	225,676
787,5	222,019
788	217,79
788,4	217,505
788,8	211,333
789,3	209,333
789,7	209,362
790,1	206,933
790,6	209,59
791	202,705
791,4	198,019
791,9	196,562
792,3	194,305
792,7	194,562
793,2	193,762
793,6	188,733
794	191,162
794,5	187,762
794,9	188,619
795,3	192,562
795,8	185,619
796,2	187,305
796,6	188,248
797,1	185,962
797,5	185,905
797,9	183,505
798,4	179,79
798,8	181,733
799,2	175,276
799,7	176,619
800,1	176,19
800,5	178,248
801	178,133
801,4	173,305
801,8	170,333
802,2	173,333
802,7	166,248
803,1	162,933
803,5	163,162
804	160,362
804,4	162,248
804,8	160,276
805,3	161,819
805,7	161,162
806,1	162,905
806,6	158,99
807	159,848
807,4	157,048
807,9	152,733
808,3	151,133
808,7	152,819
809,2	154,105
809,6	155,533
810	153,19
810,4	151,048
810,9	152,648
811,3	150,848
811,7	151,19
812,2	151,219
812,6	146,876
813	148,305
813,5	150,248
813,9	150,933
814,3	147,362
814,8	145,562
815,2	142,333
815,6	140,248
816,1	138,362
816,5	136,419
816,9	138,733
817,3	136,476
817,8	137,962
818,2	134,19
818,6	133,905
819,1	129,048
819,5	124,733
819,9	121,476
820,4	120,362
820,8	112,59
821,2	109,39
821,7	106,962
822,1	111,848
822,5	118,762
822,9	117,105
823,4	115,419
823,8	118,79
824,2	123,533
824,7	124,562
825,1	117,676
825,5	108,019
826	104,19
826,4	108,048
826,8	105,705
827,3	102,705
827,7	100,819
828,1	100,276
828,5	105,99
829	106,419
829,4	101,962
829,8	96,362
830,3	95,59
830,7	91,19
831,1	96,219
831,6	91,419
832	94,105
832,4	93,876
832,8	100,419
833,3	100,248
833,7	102,933
834,1	97,733
834,6	95,59
835	95,076
835,4	97,762
835,8	89,048
836,3	86,762
836,7	85,819
837,1	86,79
837,6	88,048
838	84,848
838,4	81,333
838,9	87,733
839,3	85,19
839,7	85,819
840,1	81,048
840,6	81,419
841	80,305
841,4	81,219
841,9	81,333
842,3	80,99
842,7	80,248
843,1	84,248
843,6	86,39
844	86,276
844,4	87,676
844,9	89,133
845,3	92,133
845,7	91,162
846,2	86,39
846,6	81,105
847	84,619
847,4	84,133
847,9	79,562
848,3	77,419
848,7	77,39
849,2	81,133
849,6	73,162
850	73,419
850,4	70,733
850,9	71,819
851,3	70,848
851,7	70,39
852,2	70,19
852,6	82,276
853	84,419
853,4	82,99
853,9	76,448
854,3	78,562
854,7	79,076
855,2	74,962
855,6	71,79
856	61,505
856,4	59,99
856,9	63,676
857,3	61,59
857,7	67,105
858,2	74,79
858,6	75,933
859	77,99
859,4	75,533
859,9	72,133
860,3	67,676
860,7	61,79
861,1	55,419
861,6	52,505
862	50,39
862,4	51,305
862,9	52,848
863,3	56,762
863,7	57,048
864,1	58,39
864,6	56,505
865	60,476
865,4	62,105
865,9	63,133
866,3	58,733
866,7	55,676
867,1	50,076
867,6	53,448
868	48,59
868,4	46,619
868,8	48,848
869,3	49,476
869,7	51,362
870,1	51,533
870,6	44,333
871	-30,267
871,4	-23,438
871,8	-28,495
872,3	-26,352
872,7	-26,724
873,1	-26,038
873,5	-21,352
874	50,505
874,4	46,676
874,8	48,362
875,3	43,419
875,7	38,162
876,1	39,79
876,5	37,962
877	39,619
877,4	33,876
877,8	37,133
878,2	43,962
878,7	46,619
879,1	46,333
879,5	49,162
879,9	56,705
880,4	56,876
880,8	50,533
881,2	44,248
881,7	43,79
882,1	43,962
882,5	43,333
882,9	35,362
883,4	35,676
883,8	40,305
884,2	39,99
884,6	38,819
885,1	39,133
885,5	35,248
885,9	35,533
886,3	36,762
886,8	28,705
887,2	28,59
887,6	28,59
888	26,933
888,5	27,048
888,9	25,448
889,3	23,676
889,8	29,476
890,2	34,448
890,6	30,133
891	31,362
891,5	34,048
891,9	38,533
892,3	41,533
892,7	40,505
893,2	37,648
893,6	39,362
894	41,705
894,4	37,79
894,9	33,39
895,3	31,019
895,7	32,962
896,1	30,533
896,6	32,59
897	30,59
897,4	38,848
897,8	44,448
898,3	46,676
898,7	43,876
899,1	47,705
899,5	47,048
900	40,562
900,4	34,476
900,8	25,105
901,2	19,59
901,7	19,819
902,1	17,476
902,5	20,019
902,9	20,99
903,4	21,876
903,8	29,505
904,2	28,99
904,6	28,962
905,1	30,276
905,5	29,162
905,9	36,676
906,3	42,762
906,8	42,876
907,2	43,762
907,6	43,848
908	43,762
908,5	39,762
908,9	33,505
909,3	24,505
909,7	24,59
910,2	29,848
910,6	31,99
911	27,905
911,4	31,19
911,9	29,276
912,3	31,848
912,7	32,819
913,1	33,305
913,6	31,448
914	31,905
914,4	30,59
914,8	34,476
915,3	31,79
915,7	29,133
916,1	24,848
916,5	22,219
916,9	24,276
917,4	24,99
917,8	25,162
918,2	21,819
918,6	18,39
919,1	18,819
919,5	20,476
919,9	21,619
920,3	20,076
920,8	16,819
921,2	19,19
921,6	16,819
922	16,476
922,5	15,076
922,9	15,933
923,3	16,39
923,7	16,59
924,2	18,076
924,6	24,362
925	22,99
925,4	24,962
925,8	24,305
926,3	23,505
926,7	23,362
927,1	23,59
927,5	23,476
928	24,962
928,4	21,362
928,8	23,105
929,2	19,819
929,7	23,219
930,1	25,99
930,5	23,905
930,9	22,876
931,3	27,876
931,8	24,705
932,2	28,676
932,6	25,305
933	16,59
933,5	13,962
933,9	15,819
934,3	11,819
934,7	8,676
935,2	8,39
935,6	10,219
936	13,848
936,4	12,648
936,8	15,905
937,3	13,39
937,7	16,648
938,1	17,79
938,5	13,305
939	14,905
939,4	17,362
939,8	11,162
940,2	11,533
940,6	14,99
941,1	12,533
941,5	16,105
941,9	14,362
942,3	15,333
942,8	20,333
943,2	23,219
943,6	15,762
944	17,648
944,4	18,362
944,9	17,619
945,3	16,019
945,7	12,59
946,1	11,648
946,6	11,105
947	8,933
947,4	12,219
947,8	13,533
948,2	11,848
948,7	12,448
949,1	11,876
949,5	18,362
949,9	18,933
950,3	17,076
950,8	14,105
951,2	16,276
951,6	11,733
952	15,79
952,5	9,79
952,9	8,419
953,3	6,362
953,7	9,276
954,1	11,619
954,6	16,048
955	16,162
955,4	17,19
955,8	23,19
956,2	22,219
956,7	25,276
957,1	19,219
957,5	22,533
957,9	21,276
958,3	17,676
958,8	16,248
959,2	19,505
959,6	17,876
960	18,962
960,5	19,105
960,9	21,162
961,3	23,476
961,7	19,448
962,1	15,762
962,6	13,133
963	15,876
963,4	9,448
963,8	4,962
964,2	6,048
964,7	5,362
965,1	5,648
965,5	6,648
965,9	5,048
966,3	7,362
966,8	5,562
967,2	7,248
967,6	7,419
968	5,248
968,4	7,19
968,9	11,19
969,3	15,219
969,7	14,619
970,1	16,99
970,5	19,39
971	22,762
971,4	23,876
971,8	18,848
972,2	15,619
972,6	19,048
973,1	13,276
973,5	14,019
973,9	14,076
974,3	10,619
974,7	14,505
975,2	14,876
975,6	14,048
976	16,705
976,4	12,619
976,8	12,733
977,3	12,19
977,7	7,305
978,1	4,505
978,5	3,848
978,9	1,162
979,4	5,19
979,8	4,505
980,2	5,819
980,6	2,819
981	8,848
981,5	6,962
981,9	9,99
982,3	5,819
982,7	7,019
983,1	4,276
983,6	11,619
984	9,419
984,4	12,333
984,8	13,219
985,2	14,448
985,6	9,819
986,1	13,248
986,5	13,019
986,9	7,819
987,3	8,762
987,7	5,59
988,2	5,705
988,6	7,305
989	6,362
989,4	4,562
989,8	6,733
990,3	4,533
990,7	8,619
991,1	8,676
991,5	13,219
991,9	13,333
992,3	13,619
992,8	16,248
993,2	17,562
993,6	15,676
994	21,362
994,4	20,362
994,9	18,648
995,3	18,248
995,7	13,676
996,1	12,39
996,5	12,219
996,9	5,733
997,4	7,19
997,8	3,705
998,2	1,533
998,6	-1,524
999	-1,267
999,5	-3,124
999,9	-2,067
1000,3	-6,781
1000,7	-2,724
1001,1	-0,638
1001,5	5,619
1002	5,476
1002,4	8,419
1002,8	10,533
1003,2	17,819
1003,6	18,019
1004	22,762
1004,5	17,59
1004,9	19,962
1005,3	13,59
1005,7	10,248
1006,1	4,476
1006,6	4,248
1007	2,733
1007,4	5,79
1007,8	2,076
1008,2	3,933
1008,6	9,876
1009,1	7,762
1009,5	5,562
1009,9	6,99
1010,3	7,276
1010,7	9,533
1011,1	11,219
1011,6	7,762
1012	11,248
1012,4	15,933
1012,8	12,276
1013,2	18,133
1013,6	16,162
1014,1	19,39
1014,5	18,99
1014,9	16,476
1015,3	13,333
1015,7	12,905
1016,1	10,648
1016,6	11,676
1017	11,305
1017,4	12,019
1017,8	14,59
1018,2	14,962
1018,6	9,219
1019,1	3,876
1019,5	6,39
1019,9	4,076
1020,3	4,39
1020,7	3,219
1021,1	-0,467
1021,6	5,848
1022	8,59
1022,4	4,39
1022,8	8,733
1023,2	5,419
1023,6	4,676
1024,1	13,876
1024,5	15,105
1024,9	13,19
1025,3	14,79
1025,7	13,848
1026,1	20,476
1026,6	18,048
1027	13,705
1027,4	14,248
1027,8	15,762
1028,2	15,733
1028,6	17,848
1029	12,79
1029,5	20,019
1029,9	21,162
1030,3	17,133
1030,7	19,076
1031,1	21,133
1031,5	12,39
1032	16,105
1032,4	13,476
1032,8	14,333
1033,2	18,505
1033,6	16,505
1034	11,933
1034,4	13,876
1034,9	12,705
1035,3	10,048
1035,7	11,305
1036,1	7,79
1036,5	4,362
1036,9	10,219
1037,4	13,848
1037,8	8,933
1038,2	12,219
1038,6	8,162
1039	14,105
1039,4	20,362
1039,8	17,162
1040,3	16,39
1040,7	19,99
1041,1	20,59
1041,5	22,048
1041,9	11,448
1042,3	5,905
1042,7	9,533
1043,2	11,533
1043,6	6,476
1044	1,419
1044,4	5,648
1044,8	12,333
1045,2	16,276
1045,6	14,219
1046,1	13,419
1046,5	18,819
1046,9	20,933
1047,3	18,419
1047,7	14,448
1048,1	12,876
1048,5	10,219
1049	13,648
1049,4	16,533
1049,8	12,59
1050,2	13,676
1050,6	18,39
1051	17,705
1051,4	18,505
1051,9	11,276
1052,3	15,562
1052,7	22,876
1053,1	18,39
1053,5	18,162
1053,9	19,848
1054,3	20,133
1054,8	27,19
1055,2	22,619
1055,6	21,962
1056	29,848
1056,4	25,305
1056,8	25,162
1057,2	26,19
1057,6	20,562
1058,1	17,276
1058,5	10,219
1058,9	9,905
1059,3	16,619
1059,7	15,419
1060,1	15,448
1060,5	15,105
1061	17,105
1061,4	20,476
1061,8	19,076
1062,2	15,762
1062,6	18,562
1063	19,619
1063,4	24,39
1063,8	19,133
1064,3	18,819
1064,7	13,248
1065,1	17,448
1065,5	10,876
1065,9	6,876
1066,3	4,876
1066,7	7,59
1067,1	5,476
1067,6	8,505
1068	0,733
1068,4	7,333
1068,8	11,133
1069,2	11,276
1069,6	9,762
1070	13,019
1070,4	10,133
1070,9	10,476
1071,3	6,248
1071,7	4,133
1072,1	5,448
1072,5	2,933
1072,9	3,962
1073,3	3,962
1073,7	5,419
1074,2	6,676
1074,6	5,362
1075	1,248
1075,4	5,99
1075,8	7,476
1076,2	8,219
1076,6	7,448
1077	11,048
1077,5	15,448
1077,9	14,076
1078,3	12,705
1078,7	7,705
1079,1	7,276
1079,5	10,59
1079,9	6,59
1080,3	3,562
1080,7	8,248
1081,2	11,876
1081,6	14,076
1082	13,019
1082,4	15,219
1082,8	17,448
1083,2	16,676
1083,6	18,59
1084	16,162
1084,5	16,676
1084,9	15,705
1085,3	8,048
1085,7	7,533
1086,1	9,048
1086,5	5,448
1086,9	9,933
1087,3	8,105
1087,7	10,648
1088,2	15,133
1088,6	13,562
1089	13,962
1089,4	12,419
1089,8	7,933
1090,2	11,99
1090,6	11,762
1091	14,076
1091,4	15,533
1091,9	12,705
1092,3	11,705
1092,7	12,848
1093,1	12,105
1093,5	10,876
1093,9	5,619
1094,3	5,79
1094,7	5,676
1095,1	9,019
1095,5	9,619
1096	6,019
1096,4	8,562
1096,8	11,79
1097,2	14,676
1097,6	18,933
1098	16,276
1098,4	16,99
1098,8	19,905
1099,2	22,762
1099,6	20,276
1100,1	16,79
1100,5	13,648
1100,9	15,905
1101,3	13,762
1101,7	11,248
1102,1	6,448
1102,5	10,533
1102,9	12,79
1103,3	16,276
1103,7	17,162
1104,2	15,048
1104,6	16,105
1105	14,762
1105,4	13,39
1105,8	9,048
1106,2	4,962
1106,6	1,676
1107	1,876
1107,4	0,8
1107,8	2,093
1108,3	-1,217
