Data from Subt2_076.txt Node
Date: Sat Aug 26 16:38:44 MSK 2023
User: vat
Spectrometer: MAYP114033
Trigger mode: 0
Integration Time (sec): 1,000000E0
Scans to average: 5
Electric dark correction enabled: true
Nonlinearity correction enabled: false
Boxcar width: 3
XAxis mode: Wavelengths
Number of Pixels in Spectrum: 2068
>>>>>Begin Spectral Data<<<<<
199,4	-0,317
199,9	0,413
200,4	0,833
200,8	1,705
201,3	2,762
201,8	3,933
202,2	4,476
202,7	7,448
203,2	5,648
203,6	7,19
204,1	6,79
204,6	8,933
205	7,733
205,5	5,562
206	4,99
206,4	8,305
206,9	6,305
207,4	8,19
207,8	4,59
208,3	5,533
208,8	6,333
209,2	7,505
209,7	7,59
210,2	14,019
210,6	14,362
211,1	14,476
211,5	13,133
212	10,276
212,5	3,505
212,9	1,39
213,4	-2,981
213,9	-5,638
214,3	-6,095
214,8	-3,924
215,3	-3,152
215,7	-2,724
216,2	2,162
216,7	0,219
217,1	-1,095
217,6	-1,61
218,1	-0,552
218,5	5,619
219	16,133
219,5	12,133
219,9	10,476
220,4	12,162
220,9	14,076
221,3	12,505
221,8	6,648
222,3	0,333
222,7	0,59
223,2	5,905
223,6	8,562
224,1	11,105
224,6	10,648
225	13,305
225,5	13,048
226	10,533
226,4	8,362
226,9	4,019
227,4	3,219
227,8	4,248
228,3	8,876
228,8	4,419
229,2	5,419
229,7	2,705
230,2	8,905
230,6	5,362
231,1	7,19
231,5	3,676
232	12,933
232,5	15,99
232,9	22,219
233,4	19,533
233,9	20,733
234,3	19,305
234,8	21,019
235,3	15,905
235,7	23,705
236,2	20,333
236,7	15,962
237,1	18,99
237,6	18,39
238,1	16,79
238,5	18,762
239	10,733
239,4	11,076
239,9	11,676
240,4	8,448
240,8	11,476
241,3	10,076
241,8	5,133
242,2	4,105
242,7	7,076
243,2	10,648
243,6	14,533
244,1	12,248
244,6	14,39
245	18,39
245,5	14,79
245,9	13,219
246,4	12,476
246,9	7,876
247,3	4,19
247,8	-0,981
248,3	2,048
248,7	10,419
249,2	7,733
249,7	7,076
250,1	8,905
250,6	13,19
251	16,933
251,5	12,848
252	7,819
252,4	8,076
252,9	9,105
253,4	10,905
253,8	4,99
254,3	5,362
254,8	7,933
255,2	11,419
255,7	13,162
256,1	11,133
256,6	11,79
257,1	15,762
257,5	17,905
258	16,448
258,5	15,762
258,9	12,419
259,4	13,276
259,9	11,59
260,3	12,562
260,8	7,648
261,2	11,362
261,7	8,419
262,2	11,733
262,6	13,733
263,1	12,105
263,6	13,933
264	18,619
264,5	16,533
264,9	20,048
265,4	19,59
265,9	18,705
266,3	23,019
266,8	19,248
267,3	18,819
267,7	18,505
268,2	15,19
268,7	10,905
269,1	7,19
269,6	5,876
270	8,333
270,5	9,533
271	8,448
271,4	4,276
271,9	6,733
272,4	10,219
272,8	5,848
273,3	3,305
273,7	-1,152
274,2	-2,524
274,7	3,419
275,1	2,733
275,6	5,648
276,1	10,648
276,5	12,305
277	13,733
277,4	16,362
277,9	10,619
278,4	13,619
278,8	11,105
279,3	6,705
279,8	9,248
280,2	6,562
280,7	1,39
281,1	7,219
281,6	8,79
282,1	8,905
282,5	14,305
283	12,733
283,4	13,39
283,9	14,048
284,4	14,076
284,8	10,048
285,3	7,59
285,8	4,362
286,2	1,276
286,7	2,276
287,1	2,79
287,6	5,276
288,1	6,276
288,5	9,248
289	11,648
289,5	12,048
289,9	12,276
290,4	15,962
290,8	17,99
291,3	15,59
291,8	13,848
292,2	12,076
292,7	10,133
293,1	8,962
293,6	9,79
294,1	4,39
294,5	10,676
295	9,533
295,5	9,162
295,9	16,733
296,4	19,362
296,8	12,705
297,3	14,933
297,8	8,048
298,2	8,99
298,7	3,562
299,1	0,933
299,6	-0,81
300,1	3,105
300,5	1,619
301	5,848
301,5	7,162
301,9	11,248
302,4	10,19
302,8	10,105
303,3	12,505
303,8	12,276
304,2	10,533
304,7	9,476
305,1	11,505
305,6	13,933
306,1	16,133
306,5	14,048
307	9,248
307,4	7,648
307,9	7,333
308,4	5,79
308,8	6,19
309,3	2,19
309,8	6,648
310,2	7,19
310,7	14,362
311,1	12,876
311,6	12,362
312,1	13,562
312,5	17,705
313	15,076
313,4	18,105
313,9	16,448
314,4	14,333
314,8	16,419
315,3	14,076
315,7	13,533
316,2	8,019
316,7	11,819
317,1	9,705
317,6	12,905
318	14,133
318,5	16,819
319	15,705
319,4	17,048
319,9	12,505
320,3	15,619
320,8	18,019
321,3	12,79
321,7	8,676
322,2	10,933
322,6	13,533
323,1	12,619
323,6	7,79
324	6,819
324,5	10,048
324,9	9,99
325,4	8,305
325,9	10,99
326,3	13,876
326,8	18,133
327,2	19,076
327,7	17,619
328,2	15,505
328,6	17,705
329,1	16,933
329,5	16,019
330	13,762
330,5	9,962
330,9	15,362
331,4	14,333
331,8	16,562
332,3	19,105
332,8	17,533
333,2	14,59
333,7	17,505
334,1	13,162
334,6	18,362
335,1	16,676
335,5	12,448
336	12,562
336,4	13,219
336,9	14,333
337,4	15,762
337,8	17,162
338,3	15,848
338,7	13,933
339,2	20,476
339,7	23,105
340,1	22,276
340,6	16,676
341	17,562
341,5	17,019
342	20,448
342,4	15,476
342,9	10,19
343,3	12,362
343,8	18,762
344,2	14,905
344,7	14,39
345,2	13,305
345,6	15,248
346,1	22,876
346,5	21,39
347	21,305
347,5	19,933
347,9	21,248
348,4	22,505
348,8	22,676
349,3	20,276
349,8	21,79
350,2	18,99
350,7	23,362
351,1	27,705
351,6	29,59
352	34,79
352,5	40,676
353	48,648
353,4	60,562
353,9	67,305
354,3	76,048
354,8	85,562
355,3	100,333
355,7	112,048
356,2	124,333
356,6	142,133
357,1	166,133
357,5	191,219
358	227,505
358,5	264,705
358,9	308,39
359,4	355,876
359,8	408,505
360,3	470,705
360,8	538,905
361,2	610,79
361,7	682,219
362,1	773,933
362,6	875,848
363	977,19
363,5	1088,733
364	1201,105
364,4	1316,162
364,9	1436,733
365,3	1546,762
365,8	1653,19
366,3	1761,59
366,7	1853,99
367,2	1939,705
367,6	2011,105
368,1	2067,19
368,5	2105,333
369	2124,819
369,5	2128,619
369,9	2106,79
370,4	2075,076
370,8	2025,248
371,3	1969,419
371,7	1897,648
372,2	1818,333
372,7	1725,876
373,1	1640,79
373,6	1549,933
374	1453,362
374,5	1350,619
374,9	1257,133
375,4	1168,733
375,9	1085,59
376,3	998,876
376,8	918,533
377,2	853,705
377,7	785,219
378,2	723,905
378,6	663,79
379,1	609,305
379,5	561,105
380	517,819
380,4	470,133
380,9	437,819
381,4	406,59
381,8	376,333
382,3	345,305
382,7	318,362
383,2	286,419
383,6	266,162
384,1	245,905
384,6	228,562
385	209,933
385,5	193,476
385,9	183,448
386,4	175,133
386,8	170,105
387,3	156,876
387,7	142,848
388,2	134,848
388,7	128,705
389,1	117,819
389,6	109,962
390	98,305
390,5	90,476
390,9	92,362
391,4	91,39
391,9	87,476
392,3	83,39
392,8	80,162
393,2	72,562
393,7	73,133
394,1	67,076
394,6	57,333
395,1	56,305
395,5	58,19
396	58,048
396,4	56,933
396,9	57,333
397,3	54,305
397,8	53,99
398,2	48,448
398,7	42,476
399,2	35,648
399,6	41,362
400,1	32,333
400,5	30,333
401	32,933
401,4	37,533
401,9	38,476
402,4	40,762
402,8	36,333
403,3	40,019
403,7	39,905
404,2	38,419
404,6	36,762
405,1	36,933
405,5	34,333
406	32,305
406,5	33,933
406,9	29,648
407,4	29,562
407,8	28,705
408,3	31,276
408,7	37,048
409,2	39,019
409,6	41,105
410,1	50,162
410,6	53,162
411	57,105
411,5	53,962
411,9	52,705
412,4	59,39
412,8	60,019
413,3	57,019
413,7	57,762
414,2	60,619
414,7	71,276
415,1	73,505
415,6	78,505
416	82,733
416,5	85,848
416,9	88,705
417,4	87,79
417,8	86,048
418,3	89,19
418,8	83,819
419,2	84,162
419,7	89,533
420,1	87,448
420,6	90,762
421	93,676
421,5	96,362
421,9	98,848
422,4	102,419
422,8	101,505
423,3	106,219
423,8	108,905
424,2	106,733
424,7	108,876
425,1	108,276
425,6	111,305
426	111,305
426,5	112,333
426,9	111,876
427,4	110,333
427,9	108,333
428,3	112,333
428,8	111,219
429,2	111,705
429,7	114,219
430,1	113,962
430,6	117,276
431	121,419
431,5	123,105
431,9	122,419
432,4	123,99
432,8	125,248
433,3	126,162
433,8	132,79
434,2	135,705
434,7	133,99
435,1	135,705
435,6	148,848
436	152,619
436,5	162,276
436,9	164,105
437,4	171,39
437,8	178,705
438,3	190,19
438,8	190,648
439,2	198,048
439,7	205,676
440,1	214,133
440,6	222,133
441	231,333
441,5	239,705
441,9	251,562
442,4	269,962
442,8	277,276
443,3	289,79
443,7	297,533
444,2	312,019
444,7	325,733
445,1	335,419
445,6	336,99
446	354,019
446,5	366,648
446,9	385,505
447,4	398,99
447,8	413,105
448,3	431,362
448,7	451,876
449,2	468,733
449,6	485,733
450,1	502,648
450,6	522,848
451	537,505
451,5	554,79
451,9	574,476
452,4	597,333
452,8	621,905
453,3	638,962
453,7	660,848
454,2	685,79
454,6	712,762
455,1	735,876
455,5	757,99
456	780,876
456,4	811,448
456,9	837,133
457,3	867,419
457,8	890,39
458,3	924,19
458,7	955,59
459,2	990,79
459,6	1023,076
460,1	1060,562
460,5	1092,79
461	1121,648
461,4	1155,562
461,9	1183,59
462,3	1213,105
462,8	1250,419
463,2	1283,305
463,7	1314,79
464,1	1360,019
464,6	1389,048
465	1430,819
465,5	1468,962
466	1498,962
466,4	1531,79
466,9	1573,133
467,3	1605,476
467,8	1650,248
468,2	1685,476
468,7	1719,362
469,1	1758,933
469,6	1799,79
470	1838,876
470,5	1879,333
470,9	1916,105
471,4	1956,305
471,8	1997,79
472,3	2031,048
472,7	2068,962
473,2	2102,39
473,6	2144,448
474,1	2178,848
474,5	2216,79
475	2256,419
475,4	2298,248
475,9	2340,733
476,4	2378,99
476,8	2413,476
477,3	2457,848
477,7	2495,819
478,2	2534,648
478,6	2571,076
479,1	2602,105
479,5	2642,076
480	2678,733
480,4	2711,476
480,9	2749,762
481,3	2773,876
481,8	2809,276
482,2	2841,99
482,7	2876,562
483,1	2911,933
483,6	2942,705
484	2966,905
484,5	3006,505
484,9	3036,305
485,4	3068,99
485,8	3090,19
486,3	3113,676
486,7	3146,333
487,2	3176,019
487,6	3205,133
488,1	3230,162
488,5	3252,562
489	3278,19
489,4	3303,819
489,9	3320,219
490,4	3344,476
490,8	3359,162
491,3	3378,562
491,7	3396,848
492,2	3423,076
492,6	3437,59
493,1	3454,79
493,5	3468,19
494	3491,876
494,4	3510,133
494,9	3526,105
495,3	3537,962
495,8	3554,876
496,2	3572,362
496,7	3582,648
497,1	3588,819
497,6	3605,476
498	3620,876
498,5	3636,019
498,9	3645,276
499,4	3656,076
499,8	3674,019
500,3	3689,476
500,7	3692,505
501,2	3705,99
501,6	3715,905
502,1	3730,819
502,5	3741,219
503	3752,39
503,4	3755,448
503,9	3773,59
504,3	3775,362
504,8	3779,505
505,2	3782,305
505,7	3789,133
506,1	3793,533
506,6	3803,019
507	3804,962
507,5	3816,59
507,9	3822,819
508,4	3838,562
508,8	3847,276
509,3	3849,048
509,7	3856,133
510,2	3862,133
510,6	3866,733
511,1	3879,619
511,5	3882,476
512	3894,219
512,4	3903,848
512,9	3908,533
513,3	3917,619
513,8	3921,476
514,2	3922,505
514,7	3925,076
515,1	3921,076
515,6	3923,876
516	3925,505
516,5	3927,79
516,9	3931,076
517,4	3934,933
517,8	3934,819
518,3	3940,79
518,7	3946,59
519,2	3960,133
519,6	3965,933
520,1	3973,476
520,5	3981,876
521	3992,419
521,4	3997,019
521,9	4013,79
522,3	4007,962
522,8	4012,076
523,2	4017,79
523,7	4020,648
524,1	4026,505
524,6	4027,933
525	4027,59
525,5	4040,505
525,9	4048,276
526,4	4055,133
526,8	4065,019
527,3	4073,219
527,7	4083,448
528,2	4087,105
528,6	4096,819
529,1	4100,39
529,5	4106,133
530	4112,048
530,4	4112,648
530,9	4122,248
531,3	4126,59
531,8	4130,533
532,2	4144,133
532,6	4157,276
533,1	4158,162
533,5	4167,819
534	4172,819
534,4	4181,105
534,9	4191,448
535,3	4201,59
535,8	4200,362
536,2	4214,076
536,7	4221,362
537,1	4229,648
537,6	4240,048
538	4250,19
538,5	4253,448
538,9	4266,933
539,4	4270,476
539,8	4278,162
540,3	4282,505
540,7	4284,619
541,2	4284,419
541,6	4287,362
542,1	4296,648
542,5	4300,362
543	4307,162
543,4	4323,962
543,9	4332,362
544,3	4346,676
544,8	4359,105
545,2	4365,99
545,7	4379,248
546,1	4395,848
546,5	4394,219
547	4409,676
547,4	4410,933
547,9	4419,105
548,3	4426,276
548,8	4432,762
549,2	4431,076
549,7	4444,219
550,1	4454,276
550,6	4467,248
551	4482,705
551,5	4486,59
551,9	4498,276
552,4	4512,705
552,8	4516,705
553,3	4517,133
553,7	4520,676
554,2	4521,362
554,6	4532,19
555,1	4542,448
555,5	4545,248
555,9	4554,419
556,4	4563,162
556,8	4573,419
557,3	4582,962
557,7	4583,819
558,2	4585,476
558,6	4597,333
559,1	4601,419
559,5	4602,648
560	4610,933
560,4	4613,019
560,9	4628,876
561,3	4642,362
561,8	4649,276
562,2	4656,733
562,7	4666,876
563,1	4669,848
563,6	4668,933
564	4672,019
564,4	4672,505
564,9	4672,933
565,3	4676,219
565,8	4684,733
566,2	4689,448
566,7	4700,848
567,1	4705,533
567,6	4707,99
568	4716,733
568,5	4723,733
568,9	4723,162
569,4	4727,333
569,8	4727,476
570,3	4726,476
570,7	4720,533
571,1	4714,19
571,6	4709,39
572	4707,133
572,5	4706,962
572,9	4711,076
573,4	4711,419
573,8	4718,276
574,3	4721,248
574,7	4724,248
575,2	4724,733
575,6	4725,133
576,1	4720,448
576,5	4717,99
576,9	4720,39
577,4	4714,019
577,8	4712,162
578,3	4703,019
578,7	4687,848
579,2	4686,876
579,6	4684,848
580,1	4675,876
580,5	4668,733
581	4664,705
581,4	4668,533
581,9	4678,962
582,3	4669,162
582,7	4663,105
583,2	4652,876
583,6	4647,19
584,1	4638,305
584,5	4628,362
585	4611,162
585,4	4606,276
585,9	4604,19
586,3	4598,933
586,8	4593,962
587,2	4587,848
587,6	4581,733
588,1	4579,505
588,5	4574,848
589	4556,248
589,4	4550,59
589,9	4544,762
590,3	4538,619
590,8	4532,19
591,2	4524,533
591,7	4510,676
592,1	4499,276
592,5	4488,276
593	4485,048
593,4	4472,305
593,9	4458,562
594,3	4442,733
594,8	4436,848
595,2	4438,476
595,7	4435,99
596,1	4421,819
596,6	4420,39
597	4418,962
597,4	4416,619
597,9	4406,962
598,3	4398,219
598,8	4381,733
599,2	4383,105
599,7	4372,048
600,1	4358,79
600,6	4353,39
601	4345,905
601,4	4339,648
601,9	4336,105
602,3	4317,676
602,8	4305,362
603,2	4301,419
603,7	4289,39
604,1	4278,048
604,6	4261,419
605	4249,619
605,4	4242,962
605,9	4230,962
606,3	4218,19
606,8	4206,505
607,2	4195,59
607,7	4185,419
608,1	4181,333
608,6	4165,762
609	4156,676
609,4	4143,476
609,9	4127,619
610,3	4113,076
610,8	4103,762
611,2	4080,733
611,7	4067,19
612,1	4047,076
612,6	4034,162
613	4024,533
613,4	4008,733
613,9	3988,362
614,3	3974,562
614,8	3957,248
615,2	3947,162
615,7	3933,305
616,1	3914,933
616,6	3899,962
617	3884,99
617,4	3867,648
617,9	3856,676
618,3	3851,076
618,8	3831,905
619,2	3820,619
619,7	3802,99
620,1	3790,99
620,5	3778,99
621	3766,705
621,4	3743,676
621,9	3730,305
622,3	3712,105
622,8	3701,962
623,2	3681,333
623,6	3669,019
624,1	3651,533
624,5	3635,219
625	3616,219
625,4	3600,448
625,9	3580,905
626,3	3566,133
626,8	3544,276
627,2	3527,619
627,6	3512,848
628,1	3496,019
628,5	3477,362
629	3461,99
629,4	3440,648
629,9	3430,362
630,3	3408,162
630,7	3386,79
631,2	3368,448
631,6	3353,619
632,1	3335,248
632,5	3326,105
633	3300,362
633,4	3281,99
633,8	3260,448
634,3	3246,962
634,7	3230,476
635,2	3215,905
635,6	3201,619
636,1	3188,133
636,5	3172,305
636,9	3155,19
637,4	3136,705
637,8	3114,533
638,3	3098,99
638,7	3081,048
639,2	3067,448
639,6	3050,076
640	3040,848
640,5	3024,533
640,9	3008,79
641,4	2996,933
641,8	2978,648
642,2	2965,619
642,7	2955,762
643,1	2944,819
643,6	2933,276
644	2925,248
644,5	2900,505
644,9	2887,248
645,3	2863,105
645,8	2845,333
646,2	2828,076
646,7	2805,705
647,1	2787,133
647,6	2773,819
648	2757,762
648,4	2748,533
648,9	2739,362
649,3	2720,619
649,8	2714,448
650,2	2700,819
650,6	2692,562
651,1	2683,019
651,5	2670,305
652	2655,648
652,4	2645,99
652,9	2632,59
653,3	2620,733
653,7	2605,819
654,2	2590,219
654,6	2579,59
655,1	2557,133
655,5	2544,362
655,9	2526,848
656,4	2515,248
656,8	2496,505
657,3	2475,762
657,7	2455,933
658,2	2445,19
658,6	2425,162
659	2408,419
659,5	2387,162
659,9	2377,533
660,4	2363,333
660,8	2355,162
661,2	2338,19
661,7	2323,048
662,1	2309,676
662,6	2295,419
663	2283,848
663,4	2269,962
663,9	2248,933
664,3	2242,19
664,8	2232,019
665,2	2220,19
665,6	2205,762
666,1	2186,59
666,5	2171,562
667	2157,705
667,4	2139,819
667,9	2128,39
668,3	2116,505
668,7	2108,133
669,2	2093,105
669,6	2086,562
670,1	2076,59
670,5	2060,59
670,9	2048,505
671,4	2030,619
671,8	2018,505
672,3	2012,476
672,7	1994,562
673,1	1978,648
673,6	1969,705
674	1951,476
674,5	1943,476
674,9	1928,276
675,3	1908,333
675,8	1900,705
676,2	1893,419
676,7	1879,733
677,1	1872,619
677,5	1857,105
678	1844,533
678,4	1836,476
678,9	1821,305
679,3	1802,505
679,7	1792,476
680,2	1779,133
680,6	1765,933
681,1	1753,276
681,5	1737,419
681,9	1725,133
682,4	1716,619
682,8	1697,305
683,3	1681,733
683,7	1673,819
684,1	1663,962
684,6	1659,733
685	1647,562
685,5	1635,533
685,9	1629,876
686,3	1623,048
686,8	1610,276
687,2	1602,362
687,7	1585,79
688,1	1576,333
688,5	1566,248
689	1560,219
689,4	1553,762
689,9	1543,676
690,3	1533,619
690,7	1525,219
691,2	1515,705
691,6	1505,99
692	1489,676
692,5	1471,962
692,9	1460,248
693,4	1446,79
693,8	1441,79
694,2	1429,448
694,7	1422,076
695,1	1416,648
695,6	1409,048
696	1401,962
696,4	1393,705
696,9	1380,162
697,3	1376,39
697,8	1358,876
698,2	1350,162
698,6	1339,019
699,1	1330,505
699,5	1320,733
699,9	1314,876
700,4	1299,019
700,8	1297,733
701,3	1287,79
701,7	1276,19
702,1	1268,562
702,6	1260,39
703	1240,533
703,5	1236,048
703,9	1227,619
704,3	1221,219
704,8	1220,933
705,2	1209,39
705,6	1199,219
706,1	1201,876
706,5	1195,533
707	1185,619
707,4	1175,905
707,8	1164,162
708,3	1154,819
708,7	1152,79
709,2	1141,619
709,6	1133,79
710	1125,733
710,5	1120,962
710,9	1110,533
711,3	1107,048
711,8	1093,819
712,2	1086,876
712,7	1076,705
713,1	1064,99
713,5	1053,562
714	1046,962
714,4	1041,676
714,8	1034,276
715,3	1032,533
715,7	1022,448
716,2	1017,676
716,6	1014,362
717	1009,676
717,5	1003,476
717,9	993,162
718,3	976,59
718,8	970,876
719,2	966,048
719,7	957,733
720,1	949,133
720,5	937,105
721	934,39
721,4	933,476
721,8	928,105
722,3	915,99
722,7	903,819
723,2	896,79
723,6	894,133
724	882,019
724,5	868,362
724,9	859,276
725,3	856,39
725,8	853,876
726,2	845,076
726,7	833,619
727,1	827,59
727,5	827,019
728	825,59
728,4	817,619
728,8	815,133
729,3	811,533
729,7	808,419
730,1	807,848
730,6	801,79
731	795,162
731,5	788,333
731,9	782,648
732,3	783,019
732,8	777,133
733,2	771,705
733,6	765,476
734,1	761,019
734,5	759,933
734,9	753,305
735,4	743,933
735,8	736,79
736,3	734,676
736,7	731,733
737,1	727,876
737,6	722,99
738	716,905
738,4	714,79
738,9	715,133
739,3	706,733
739,7	703,505
740,2	697,162
740,6	692,99
741,1	688,848
741,5	686,105
741,9	677,076
742,4	674,79
742,8	672,505
743,2	667,705
743,7	667,648
744,1	656,59
744,5	650,848
745	646,933
745,4	641,648
745,8	635,276
746,3	635,162
746,7	628,59
747,2	633,333
747,6	626,819
748	626,305
748,5	616,362
748,9	609,619
749,3	605,305
749,8	600,59
750,2	589,19
750,6	581,905
751,1	579,562
751,5	581,676
751,9	580,362
752,4	572,019
752,8	563,333
753,3	566,99
753,7	567,248
754,1	558,105
754,6	547,133
755	543,876
755,4	539,219
755,9	542,19
756,3	532,876
756,7	528,648
757,2	528,533
757,6	533,248
758	525,905
758,5	524,733
758,9	516,076
759,3	515,219
759,8	516,705
760,2	516,562
760,6	508,448
761,1	505,219
761,5	502,819
761,9	500,848
762,4	496,048
762,8	488,362
763,3	480,19
763,7	477,362
764,1	472,733
764,6	467,162
765	462,933
765,4	460,848
765,9	453,248
766,3	449,448
766,7	450,333
767,2	450,305
767,6	446,705
768	445,162
768,5	440,648
768,9	435,133
769,3	427,562
769,8	425,219
770,2	426,248
770,6	421,79
771,1	417,648
771,5	414,105
771,9	415,219
772,4	422,562
772,8	418,305
773,2	412,99
773,7	415,648
774,1	416,448
774,5	423,733
775	419,362
775,4	413,305
775,8	411,419
776,3	405,933
776,7	402,905
777,1	402,19
777,6	392,533
778	391,648
778,4	387,133
778,9	381,933
779,3	379,505
779,7	376,619
780,2	368,076
780,6	364,819
781	367,419
781,5	367,562
781,9	367,448
782,3	362,533
782,8	356,39
783,2	353,733
783,6	345,762
784,1	341,905
784,5	331,962
784,9	330,39
785,4	330,733
785,8	326,162
786,2	325,59
786,7	326,476
787,1	320,333
787,5	323,019
788	319,59
788,4	316,848
788,8	318,648
789,3	319,048
789,7	318,105
790,1	318,819
790,6	312,105
791	308,448
791,4	308,99
791,9	307,248
792,3	300,848
792,7	301,905
793,2	295,333
793,6	298,219
794	296,276
794,5	289,619
794,9	286,648
795,3	284,962
795,8	280,505
796,2	281,076
796,6	278,219
797,1	274,19
797,5	273,962
797,9	269,448
798,4	267,048
798,8	265,019
799,2	262,162
799,7	260,79
800,1	259,419
800,5	258,248
801	261,362
801,4	254,79
801,8	250,333
802,2	250,419
802,7	246,019
803,1	247,676
803,5	245,39
804	238,162
804,4	239,933
804,8	241,762
805,3	239,59
805,7	237,819
806,1	233,162
806,6	235,562
807	238,276
807,4	235,276
807,9	230,562
808,3	226,048
808,7	226,419
809,2	226,648
809,6	219,819
810	221,048
810,4	226,076
810,9	223,419
811,3	222,533
811,7	218,362
812,2	218,819
812,6	218,648
813	210,705
813,5	204,448
813,9	200,962
814,3	198,362
814,8	200,905
815,2	191,933
815,6	190,19
816,1	187,19
816,5	187,333
816,9	193,733
817,3	192,619
817,8	195,219
818,2	195,448
818,6	194,762
819,1	195,419
819,5	190,905
819,9	181,048
820,4	183,705
820,8	172,248
821,2	174,248
821,7	170,619
822,1	167,762
822,5	171,705
822,9	178,219
823,4	174,362
823,8	178,276
824,2	176,476
824,7	176,019
825,1	175,962
825,5	174,39
826	168,276
826,4	165,39
826,8	165,133
827,3	166,79
827,7	165,448
828,1	168,848
828,5	165,39
829	163,076
829,4	167,705
829,8	160,448
830,3	154,933
830,7	150,505
831,1	149,905
831,6	145,105
832	145,162
832,4	139,648
832,8	144,019
833,3	140,105
833,7	143,962
834,1	136,762
834,6	135,533
835	137,819
835,4	138,39
835,8	131,99
836,3	133,448
836,7	127,162
837,1	129,505
837,6	128,305
838	125,276
838,4	122,79
838,9	128,933
839,3	131,333
839,7	134,248
840,1	127,648
840,6	130,476
841	127,676
841,4	123,505
841,9	115,533
842,3	114,933
842,7	113,962
843,1	121,448
843,6	119,59
844	121,162
844,4	123,133
844,9	123,39
845,3	120,419
845,7	122,505
846,2	119,733
846,6	115,762
847	110,19
847,4	108,276
847,9	108,905
848,3	108,048
848,7	101,762
849,2	101,848
849,6	106,276
850	107,305
850,4	108,419
850,9	105,933
851,3	101,305
851,7	102,162
852,2	96,248
852,6	95,933
853	102,762
853,4	106,79
853,9	106,219
854,3	106,59
854,7	102,19
855,2	101,39
855,6	94,819
856	83,59
856,4	79,162
856,9	78,933
857,3	79,419
857,7	84,962
858,2	82,619
858,6	89,762
859	93,219
859,4	90,619
859,9	91,305
860,3	92,333
860,7	88,933
861,1	93,19
861,6	88,019
862	89,619
862,4	91,933
862,9	89,79
863,3	86,99
863,7	81,99
864,1	79,476
864,6	77,048
865	75,39
865,4	69,99
865,9	70,59
866,3	74,59
866,7	79,619
867,1	83,362
867,6	88,59
868	86,933
868,4	85,848
868,8	84,962
869,3	82,305
869,7	77,962
870,1	74,448
870,6	71,362
871	140,876
871,4	138,562
871,8	139,876
872,3	140,362
872,7	141,162
873,1	143,819
873,5	144,819
874	77,705
874,4	78,79
874,8	77,876
875,3	75,533
875,7	74,676
876,1	70,248
876,5	69,876
877	62,59
877,4	63,648
877,8	62,619
878,2	59,19
878,7	64,219
879,1	63,162
879,5	60,79
879,9	60,705
880,4	57,048
880,8	55,048
881,2	57,905
881,7	53,79
882,1	54,448
882,5	55,476
882,9	57,762
883,4	67,076
883,8	67,819
884,2	68,362
884,6	68,99
885,1	70,248
885,5	69,962
885,9	73,419
886,3	69,105
886,8	68,619
887,2	65,59
887,6	62,99
888	58,248
888,5	56,19
888,9	52,876
889,3	48,99
889,8	48,219
890,2	45,79
890,6	47,276
891	49,19
891,5	51,248
891,9	50,705
892,3	48,105
892,7	48,333
893,2	51,448
893,6	47,19
894	45,533
894,4	41,619
894,9	38,505
895,3	42,276
895,7	41,133
896,1	41,133
896,6	41,476
897	43,219
897,4	38,105
897,8	40,648
898,3	44,39
898,7	43,819
899,1	45,219
899,5	46,19
900	42,876
900,4	48,819
900,8	49,59
901,2	47,762
901,7	47,705
902,1	44,819
902,5	41,99
902,9	49,248
903,4	48,848
903,8	44,105
904,2	41,333
904,6	36,933
905,1	37,648
905,5	39,905
905,9	32,648
906,3	29,676
906,8	33,39
907,2	34,505
907,6	38,648
908	36,305
908,5	35,048
908,9	37,905
909,3	32,99
909,7	26,448
910,2	21,305
910,6	18,476
911	19,562
911,4	18,076
911,9	17,362
912,3	19,19
912,7	23,505
913,1	24,276
913,6	28,105
914	29,305
914,4	29,733
914,8	28,133
915,3	32,219
915,7	32,933
916,1	33,562
916,5	31,79
916,9	28,99
917,4	27,762
917,8	24,876
918,2	22,19
918,6	20,333
919,1	21,448
919,5	23,533
919,9	25,533
920,3	25,762
920,8	28,705
921,2	35,048
921,6	32,133
922	28,362
922,5	26,19
922,9	23,362
923,3	25,876
923,7	23,733
924,2	14,933
924,6	15,133
925	18,762
925,4	18,105
925,8	15,448
926,3	18,219
926,7	22,505
927,1	26,476
927,5	27,648
928	25,476
928,4	26,448
928,8	34,762
929,2	34,848
929,7	26,562
930,1	28,39
930,5	26,99
930,9	29,733
931,3	31,562
931,8	25,848
932,2	20,162
932,6	25,905
933	18,79
933,5	20,19
933,9	20,133
934,3	16,333
934,7	18,333
935,2	22,705
935,6	21,59
936	23,133
936,4	25,248
936,8	20,333
937,3	19,362
937,7	19,619
938,1	14,676
938,5	11,905
939	12,276
939,4	13,019
939,8	17,876
940,2	16,876
940,6	14,048
941,1	20,019
941,5	23,905
941,9	29,362
942,3	28,305
942,8	27,333
943,2	25,533
943,6	29,019
944	28,59
944,4	24,533
944,9	20,333
945,3	23,276
945,7	21,448
946,1	25,648
946,6	20,105
947	19,219
947,4	20,076
947,8	24,733
948,2	17,419
948,7	19,59
949,1	16,962
949,5	22,676
949,9	24,362
950,3	25,762
950,8	20,59
951,2	26,705
951,6	28,019
952	29,19
952,5	23,733
952,9	17,762
953,3	16,476
953,7	19,876
954,1	17,619
954,6	18,876
955	18,79
955,4	18,905
955,8	21,99
956,2	23,019
956,7	26,048
957,1	25,219
957,5	20,933
957,9	23,419
958,3	27,248
958,8	28,619
959,2	29,562
959,6	25,248
960	22,276
960,5	22,905
960,9	21,962
961,3	16,419
961,7	9,305
962,1	7,162
962,6	6,19
963	8,705
963,4	7,848
963,8	7,333
964,2	9,619
964,7	10,962
965,1	9,276
965,5	8,39
965,9	11,705
966,3	11,533
966,8	10,99
967,2	11,448
967,6	18,99
968	23,019
968,4	25,476
968,9	25,39
969,3	22,876
969,7	19,848
970,1	17,99
970,5	17,076
971	14,333
971,4	17,676
971,8	15,39
972,2	18,79
972,6	21,819
973,1	24,476
973,5	22,648
973,9	25,562
974,3	15,305
974,7	10,819
975,2	8,133
975,6	3,962
976	4,648
976,4	1,962
976,8	0,819
977,3	7,276
977,7	7,933
978,1	5,848
978,5	12,105
978,9	8,848
979,4	10,448
979,8	8,219
980,2	5,076
980,6	9,105
981	16,962
981,5	15,933
981,9	18,305
982,3	11,819
982,7	12,533
983,1	14,419
983,6	14,019
984	15,105
984,4	14,39
984,8	13,048
985,2	17,59
985,6	18,248
986,1	17,362
986,5	14,505
986,9	13,333
987,3	10,676
987,7	12,333
988,2	14,733
988,6	10,105
989	9,162
989,4	12,19
989,8	8,048
990,3	8,59
990,7	5,305
991,1	0,533
991,5	6,305
991,9	11,133
992,3	14,219
992,8	19,533
993,2	24,962
993,6	28,19
994	32,105
994,4	29,962
994,9	26,562
995,3	18,419
995,7	13,39
996,1	8,19
996,5	6,048
996,9	3,905
997,4	3,733
997,8	3,248
998,2	9,162
998,6	9,933
999	10,962
999,5	13,076
999,9	16,905
1000,3	19,476
1000,7	20,733
1001,1	18,848
1001,5	14,733
1002	14,076
1002,4	15,076
1002,8	11,705
1003,2	11,79
1003,6	11,762
1004	10,962
1004,5	10,048
1004,9	10,362
1005,3	3,962
1005,7	3,562
1006,1	0,076
1006,6	0,019
1007	-0,324
1007,4	2,048
1007,8	0,733
1008,2	-0,21
1008,6	0,505
1009,1	1,762
1009,5	5,733
1009,9	11,219
1010,3	14,305
1010,7	12,648
1011,1	22,133
1011,6	18,448
1012	15,619
1012,4	12,733
1012,8	4,362
1013,2	5,676
1013,6	10,619
1014,1	7,076
1014,5	8,248
1014,9	11,762
1015,3	9,476
1015,7	11,79
1016,1	7,162
1016,6	8,362
1017	7,533
1017,4	10,248
1017,8	7,219
1018,2	4,905
1018,6	9,933
1019,1	11,99
1019,5	12,276
1019,9	15,219
1020,3	17,762
1020,7	19,705
1021,1	22,219
1021,6	17,419
1022	15,448
1022,4	15,562
1022,8	13,019
1023,2	12,962
1023,6	14,276
1024,1	18,048
1024,5	19,048
1024,9	21,076
1025,3	17,076
1025,7	14,762
1026,1	10,79
1026,6	10,448
1027	4,162
1027,4	7,076
1027,8	4,933
1028,2	5,076
1028,6	7,705
1029	6,933
1029,5	6,333
1029,9	8,048
1030,3	11,619
1030,7	14,876
1031,1	12,733
1031,5	9,59
1032	11,848
1032,4	8,505
1032,8	6,648
1033,2	2,333
1033,6	-0,152
1034	3,505
1034,4	10,19
1034,9	6,676
1035,3	11,905
1035,7	13,933
1036,1	15,076
1036,5	13,419
1036,9	11,676
1037,4	9,133
1037,8	14,248
1038,2	5,876
1038,6	2,619
1039	1,105
1039,4	4,248
1039,8	2,019
1040,3	0,448
1040,7	-3,924
1041,1	2,533
1041,5	5,933
1041,9	4,59
1042,3	0,876
1042,7	7,019
1043,2	5,705
1043,6	8,99
1044	7,133
1044,4	6,39
1044,8	1,933
1045,2	8,819
1045,6	8,619
1046,1	11,962
1046,5	15,476
1046,9	19,076
1047,3	17,962
1047,7	18,333
1048,1	15,676
1048,5	16,562
1049	17,162
1049,4	13,219
1049,8	12,019
1050,2	17,533
1050,6	21,533
1051	26,848
1051,4	24,962
1051,9	25,648
1052,3	23,79
1052,7	26,562
1053,1	23,762
1053,5	22,305
1053,9	16,162
1054,3	14,048
1054,8	13,533
1055,2	16,533
1055,6	13,248
1056	14,362
1056,4	15,105
1056,8	21,448
1057,2	21,362
1057,6	17,933
1058,1	20,248
1058,5	22,305
1058,9	25,39
1059,3	27,99
1059,7	18,762
1060,1	19,619
1060,5	20,619
1061	15,39
1061,4	20,505
1061,8	12,076
1062,2	9,933
1062,6	9,076
1063	7,933
1063,4	12,276
1063,8	15,39
1064,3	5,619
1064,7	11,876
1065,1	12,362
1065,5	20,105
1065,9	20,533
1066,3	14,848
1066,7	9,933
1067,1	9,705
1067,6	7,276
1068	5,533
1068,4	3,076
1068,8	4,505
1069,2	6,562
1069,6	9,705
1070	13,905
1070,4	13,248
1070,9	12,419
1071,3	9,705
1071,7	12,819
1072,1	18,333
1072,5	19,648
1072,9	22,705
1073,3	23,276
1073,7	26,905
1074,2	31,876
1074,6	27,876
1075	22,219
1075,4	22,99
1075,8	23,019
1076,2	23,619
1076,6	22,648
1077	15,305
1077,5	14,99
1077,9	14,733
1078,3	14,619
1078,7	10,762
1079,1	16,333
1079,5	13,705
1079,9	17,762
1080,3	19,648
1080,7	21,476
1081,2	20,476
1081,6	21,648
1082	12,905
1082,4	14,333
1082,8	11,848
1083,2	8,962
1083,6	5,905
1084	3,848
1084,5	-0,352
1084,9	-1,438
1085,3	-0,838
1085,7	-5,581
1086,1	-8,01
1086,5	-3,724
1086,9	-4,41
1087,3	0,676
1087,7	8,219
1088,2	7,019
1088,6	12,133
1089	12,848
1089,4	11,905
1089,8	17,133
1090,2	16,219
1090,6	12,676
1091	16,619
1091,4	17,219
1091,9	19,819
1092,3	17,048
1092,7	12,076
1093,1	7,39
1093,5	5,248
1093,9	1,79
1094,3	0,79
1094,7	-0,381
1095,1	-2,238
1095,5	-2,295
1096	-5,324
1096,4	-2,524
1096,8	-2,524
1097,2	-1,01
1097,6	2,705
1098	4,733
1098,4	5,019
1098,8	14,419
1099,2	12,79
1099,6	14,019
1100,1	13,562
1100,5	11,505
1100,9	11,476
1101,3	10,99
1101,7	10,848
1102,1	11,19
1102,5	11,762
1102,9	9,276
1103,3	5,933
1103,7	6,019
1104,2	9,448
1104,6	9,99
1105	11,305
1105,4	8,762
1105,8	11,276
1106,2	12,305
1106,6	9,99
1107	6,648
1107,4	1,933
1107,8	-0,547
1108,3	0,133
