Data from Subt2_279.txt Node
Date: Sat Aug 26 19:06:03 MSK 2023
User: vat
Spectrometer: MAYP114033
Trigger mode: 0
Integration Time (sec): 1,000000E0
Scans to average: 5
Electric dark correction enabled: true
Nonlinearity correction enabled: false
Boxcar width: 3
XAxis mode: Wavelengths
Number of Pixels in Spectrum: 2068
>>>>>Begin Spectral Data<<<<<
199,4	-0,433
199,9	4,267
200,4	1,467
200,8	2,324
201,3	3,381
201,8	6,01
202,2	3,581
202,7	7,01
203,2	3,552
203,6	4,067
204,1	2,038
204,6	0,838
205	1,324
205,5	3,981
206	2,581
206,4	0,581
206,9	0,752
207,4	2,952
207,8	4,381
208,3	2,21
208,8	0,695
209,2	4,438
209,7	8,638
210,2	10,81
210,6	9,581
211,1	10,981
211,5	6,924
212	9,895
212,5	2,324
212,9	-1,276
213,4	-1,933
213,9	-1,962
214,3	-2,448
214,8	2,981
215,3	-0,048
215,7	8,324
216,2	12,181
216,7	12,638
217,1	11,952
217,6	12,781
218,1	7,724
218,5	5,61
219	-4,362
219,5	-0,076
219,9	-3,448
220,4	1,752
220,9	-2,419
221,3	0,981
221,8	6,095
222,3	9,724
222,7	4,981
223,2	8,981
223,6	3,095
224,1	2,124
224,6	6,41
225	3,695
225,5	4,981
226	5,495
226,4	6,495
226,9	11,495
227,4	16,581
227,8	10,095
228,3	11,952
228,8	8,467
229,2	9,038
229,7	5,352
230,2	1,352
230,6	2,61
231,1	9,952
231,5	8,295
232	11,667
232,5	8,524
232,9	12,695
233,4	17,867
233,9	12,01
234,3	9,295
234,8	11,581
235,3	9,552
235,7	13,895
236,2	11,01
236,7	8,181
237,1	14,267
237,6	7,952
238,1	5,095
238,5	2,924
239	0,581
239,4	4,352
239,9	3,695
240,4	3,21
240,8	9,495
241,3	9,81
241,8	12,61
242,2	11,01
242,7	5,352
243,2	5,781
243,6	1,438
244,1	3,952
244,6	7,61
245	8,781
245,5	10,952
245,9	13,495
246,4	12,067
246,9	13,981
247,3	8,981
247,8	8,467
248,3	8,867
248,7	9,838
249,2	12,295
249,7	12,381
250,1	14,381
250,6	14,41
251	15,895
251,5	16,581
252	14,867
252,4	12,61
252,9	10,952
253,4	6,495
253,8	5,952
254,3	3,295
254,8	2,152
255,2	-3,019
255,7	-1,819
256,1	-0,362
256,6	1,238
257,1	6,381
257,5	4,324
258	4,41
258,5	7,724
258,9	8,552
259,4	10,638
259,9	12,781
260,3	8,581
260,8	7,524
261,2	6,981
261,7	10,295
262,2	7,638
262,6	3,781
263,1	8,352
263,6	7,924
264	13,781
264,5	14,838
264,9	12,867
265,4	13,381
265,9	17,067
266,3	14,067
266,8	18,124
267,3	13,21
267,7	12,981
268,2	15,352
268,7	17,038
269,1	16,724
269,6	11,81
270	12,152
270,5	15,981
271	18,438
271,4	17,81
271,9	13,952
272,4	20,724
272,8	23,867
273,3	19,781
273,7	18,41
274,2	17,752
274,7	17,924
275,1	18,552
275,6	12,952
276,1	8,41
276,5	12,124
277	11,581
277,4	9,952
277,9	9,781
278,4	14,238
278,8	13,467
279,3	18,41
279,8	15,238
280,2	19,467
280,7	22,695
281,1	17,21
281,6	13,61
282,1	13,152
282,5	10,467
283	11,61
283,4	8,838
283,9	5,038
284,4	14,867
284,8	16,981
285,3	13,867
285,8	17,838
286,2	13,752
286,7	11,181
287,1	10,467
287,6	5,981
288,1	2,01
288,5	7,695
289	2,467
289,5	6,01
289,9	5,981
290,4	6,181
290,8	3,495
291,3	4,895
291,8	0,581
292,2	0,552
292,7	5,981
293,1	5,924
293,6	9,21
294,1	10,124
294,5	12,61
295	14,095
295,5	14,638
295,9	6,495
296,4	6,21
296,8	1,924
297,3	4,895
297,8	-2,219
298,2	-5,276
298,7	-0,905
299,1	4,895
299,6	3,438
300,1	8,838
300,5	7,667
301	18,752
301,5	24,324
301,9	25,124
302,4	18,467
302,8	18,981
303,3	14,038
303,8	9,438
304,2	1,181
304,7	0,667
305,1	-6,162
305,6	-5,248
306,1	0,695
306,5	2,981
307	7,781
307,4	13,41
307,9	10,524
308,4	12,524
308,8	11,781
309,3	7,781
309,8	7,067
310,2	10,038
310,7	5,524
311,1	5,981
311,6	8,581
312,1	12,41
312,5	14,61
313	16,152
313,4	14,41
313,9	15,267
314,4	14,295
314,8	9,324
315,3	7,267
315,7	-0,162
316,2	-3,362
316,7	-4,619
317,1	-0,448
317,6	0,895
318	9,067
318,5	10,524
319	16,981
319,4	18,038
319,9	17,067
320,3	13,581
320,8	15,038
321,3	15,267
321,7	14,524
322,2	13,267
322,6	13,867
323,1	11,781
323,6	10,381
324	8,981
324,5	3,61
324,9	5,495
325,4	5,524
325,9	8,238
326,3	14,324
326,8	17,352
327,2	12,124
327,7	12,524
328,2	9,495
328,6	16,124
329,1	9,724
329,5	7,495
330	5,667
330,5	12,238
330,9	12,524
331,4	17,21
331,8	10,752
332,3	15,467
332,8	14,838
333,2	11,952
333,7	9,895
334,1	11,41
334,6	2,524
335,1	-0,505
335,5	-2,448
336	-4,733
336,4	0,895
336,9	8,581
337,4	8,267
337,8	14,381
338,3	17,981
338,7	17,352
339,2	14,781
339,7	14,524
340,1	7,381
340,6	6,638
341	5,924
341,5	5,238
342	5,695
342,4	8,61
342,9	4,695
343,3	5,352
343,8	3,552
344,2	2,495
344,7	6,067
345,2	7,952
345,6	7,41
346,1	10,524
346,5	4,552
347	5,267
347,5	3,41
347,9	1,838
348,4	0,095
348,8	-0,448
349,3	-1,505
349,8	2,524
350,2	7,638
350,7	8,524
351,1	7,638
351,6	10,667
352	17,924
352,5	26,267
353	35,638
353,4	38,267
353,9	49,61
354,3	56,524
354,8	59,952
355,3	72,638
355,7	83,867
356,2	98,067
356,6	114,467
357,1	133,981
357,5	162,181
358	197,752
358,5	220,724
358,9	253,81
359,4	285,552
359,8	328,095
360,3	376,724
360,8	419,067
361,2	469,61
361,7	533,095
362,1	600,952
362,6	676,238
363	754,01
363,5	834,067
364	933,01
364,4	1024,467
364,9	1121,238
365,3	1214,752
365,8	1304,238
366,3	1386,695
366,7	1464,724
367,2	1529,895
367,6	1584,581
368,1	1621,438
368,5	1641,581
369	1652,781
369,5	1657,81
369,9	1643,952
370,4	1619,324
370,8	1585,267
371,3	1539,21
371,7	1490,667
372,2	1426,895
372,7	1359,295
373,1	1289,638
373,6	1211,124
374	1142,181
374,5	1070,067
374,9	994,381
375,4	931,895
375,9	864,524
376,3	797,01
376,8	732,581
377,2	672,695
377,7	616,438
378,2	567,095
378,6	522,124
379,1	474,61
379,5	439,924
380	408,524
380,4	372,124
380,9	343,352
381,4	313,381
381,8	287,61
382,3	270,41
382,7	247,895
383,2	230,01
383,6	214,181
384,1	200,095
384,6	190,238
385	173,41
385,5	159,867
385,9	146,924
386,4	138,495
386,8	131,724
387,3	122,581
387,7	112,724
388,2	110,267
388,7	104,267
389,1	100,038
389,6	90,181
390	84,467
390,5	80,238
390,9	80,838
391,4	74,467
391,9	68,295
392,3	64,524
392,8	62,381
393,2	53,067
393,7	49,41
394,1	39,724
394,6	38,324
395,1	37,095
395,5	32,438
396	33,267
396,4	36,067
396,9	36,667
397,3	40,752
397,8	40,295
398,2	40,895
398,7	42,095
399,2	43,638
399,6	45,895
400,1	43,81
400,5	37,581
401	33,895
401,4	29,695
401,9	32,467
402,4	31,838
402,8	28,552
403,3	30,781
403,7	34,867
404,2	40,01
404,6	41,324
405,1	36,495
405,5	31,495
406	27,438
406,5	22,924
406,9	23,181
407,4	20,352
407,8	21,295
408,3	29,752
408,7	29,21
409,2	32,752
409,6	38,381
410,1	37,495
410,6	42,095
411	45,81
411,5	41,552
411,9	46,238
412,4	51,41
412,8	52,438
413,3	58,495
413,7	55,952
414,2	54,695
414,7	59,438
415,1	63,638
415,6	63,21
416	65,752
416,5	63,067
416,9	59,067
417,4	64,781
417,8	68,667
418,3	74,924
418,8	80,438
419,2	80,152
419,7	83,524
420,1	93,524
420,6	90,81
421	89,038
421,5	86,552
421,9	85,952
422,4	88,067
422,8	89,724
423,3	85,381
423,8	82,21
424,2	78,267
424,7	75,152
425,1	73,524
425,6	70,552
426	65,524
426,5	67,152
426,9	69,752
427,4	66,781
427,9	56,267
428,3	55,124
428,8	54,924
429,2	53,01
429,7	49,067
430,1	45,61
430,6	46,41
431	53,238
431,5	51,781
431,9	45,21
432,4	48,124
432,8	50,495
433,3	54,124
433,8	52,752
434,2	53,267
434,7	57,952
435,1	61,295
435,6	62,467
436	62,467
436,5	60,781
436,9	60,21
437,4	60,638
437,8	57,438
438,3	62,438
438,8	60,467
439,2	62,981
439,7	65,152
440,1	71,438
440,6	75,295
441	70,61
441,5	70,038
441,9	72,295
442,4	67,552
442,8	68,581
443,3	74,152
443,7	72,495
444,2	82,067
444,7	86,238
445,1	90,438
445,6	94,438
446	99,952
446,5	92,381
446,9	90,752
447,4	85,895
447,8	85,924
448,3	89,41
448,7	93,181
449,2	97,695
449,6	107,695
450,1	113,438
450,6	125,01
451	131,181
451,5	132,724
451,9	143,295
452,4	145,981
452,8	147,81
453,3	160,581
453,7	160,61
454,2	164,81
454,6	171,267
455,1	172,781
455,5	172,638
456	182,924
456,4	179,152
456,9	186,638
457,3	194,152
457,8	189,81
458,3	199,067
458,7	209,038
459,2	211,124
459,6	219,552
460,1	225,924
460,5	228,667
461	248,924
461,4	254,038
461,9	260,81
462,3	266,467
462,8	274,895
463,2	281,267
463,7	289,667
464,1	296,152
464,6	302,695
465	311,952
465,5	326,524
466	339,924
466,4	348,581
466,9	360,152
467,3	368,324
467,8	379,324
468,2	389,01
468,7	394,352
469,1	400,152
469,6	411,552
470	423,038
470,5	430,467
470,9	435,667
471,4	442,01
471,8	454,524
472,3	466,01
472,7	476,638
473,2	479,381
473,6	491,41
474,1	507,467
474,5	517,352
475	527,352
475,4	536,781
475,9	547,981
476,4	558,067
476,8	569,552
477,3	571,324
477,7	584,467
478,2	592,41
478,6	599,124
479,1	601,924
479,5	615,352
480	619,01
480,4	636,124
480,9	640,838
481,3	642,438
481,8	651,981
482,2	655,781
482,7	657,724
483,1	665,581
483,6	668,21
484	673,495
484,5	685,067
484,9	688,581
485,4	705,124
485,8	714,867
486,3	724,124
486,7	730,524
487,2	738,81
487,6	745,267
488,1	750,381
488,5	749,324
489	758,238
489,4	767,581
489,9	770,381
490,4	777,61
490,8	783,581
491,3	794,81
491,7	802,038
492,2	807,667
492,6	810,267
493,1	817,81
493,5	819,238
494	824,324
494,4	827,038
494,9	832,667
495,3	837,267
495,8	840,124
496,2	844,61
496,7	851,61
497,1	858,838
497,6	864,61
498	868,952
498,5	871,352
498,9	870,867
499,4	874,495
499,8	882,124
500,3	884,267
500,7	882,038
501,2	882,41
501,6	877,324
502,1	883,495
502,5	885,867
503	884,781
503,4	883,381
503,9	885,81
504,3	897,352
504,8	912,352
505,2	915,61
505,7	918,552
506,1	928,724
506,6	932,781
507	937,21
507,5	935,095
507,9	928,038
508,4	926,381
508,8	927,324
509,3	920,581
509,7	925,524
510,2	926,438
510,6	925,381
511,1	931,581
511,5	940,352
512	942,124
512,4	949,981
512,9	950,295
513,3	957,695
513,8	963,038
514,2	968,124
514,7	971,01
515,1	976,752
515,6	978,61
516	981,381
516,5	986,152
516,9	991,752
517,4	994,01
517,8	999,324
518,3	1009,638
518,7	1013,381
519,2	1020,581
519,6	1021,495
520,1	1024,352
520,5	1031,495
521	1027,552
521,4	1030,295
521,9	1031,352
522,3	1034,495
522,8	1040,01
523,2	1047,867
523,7	1051,438
524,1	1060,867
524,6	1063,124
525	1067,81
525,5	1069,895
525,9	1075,152
526,4	1071,181
526,8	1072,352
527,3	1079,21
527,7	1081,438
528,2	1086,81
528,6	1090,638
529,1	1096,038
529,5	1106,867
530	1111,895
530,4	1114,438
530,9	1119,581
531,3	1129,152
531,8	1138,552
532,2	1146,295
532,6	1145,552
533,1	1147,352
533,5	1152,467
534	1157,552
534,4	1157,095
534,9	1158,21
535,3	1156,981
535,8	1164,552
536,2	1173,438
536,7	1179,752
537,1	1182,295
537,6	1187,81
538	1193,81
538,5	1204,752
538,9	1204,095
539,4	1210,495
539,8	1208,867
540,3	1214,61
540,7	1222,924
541,2	1225,581
541,6	1231,781
542,1	1244,638
542,5	1244,467
543	1253,581
543,4	1258,495
543,9	1260,838
544,3	1268,267
544,8	1268,181
545,2	1271,152
545,7	1285,124
546,1	1294,838
546,5	1305,21
547	1311,61
547,4	1315,181
547,9	1320,467
548,3	1328,638
548,8	1331,152
549,2	1327,038
549,7	1329,581
550,1	1336,61
550,6	1343,324
551	1347,467
551,5	1349,61
551,9	1349,181
552,4	1358,81
552,8	1359,238
553,3	1358,181
553,7	1358,238
554,2	1358,581
554,6	1361,124
555,1	1365,924
555,5	1365,981
555,9	1373,381
556,4	1376,152
556,8	1384,81
557,3	1391,352
557,7	1395,752
558,2	1396,438
558,6	1405,695
559,1	1404,638
559,5	1411,867
560	1412,638
560,4	1417,724
560,9	1422,352
561,3	1430,41
561,8	1431,724
562,2	1438,181
562,7	1436,61
563,1	1440,124
563,6	1438,524
564	1444,295
564,4	1443,095
564,9	1443,552
565,3	1445,895
565,8	1451,181
566,2	1451,181
566,7	1455,495
567,1	1453,238
567,6	1455,581
568	1455,095
568,5	1456,01
568,9	1457,924
569,4	1462,124
569,8	1465,238
570,3	1468,038
570,7	1471,01
571,1	1477,724
571,6	1484,238
572	1487,695
572,5	1488,581
572,9	1489,724
573,4	1489,581
573,8	1492,781
574,3	1492,267
574,7	1484,61
575,2	1481,21
575,6	1481,41
576,1	1484,238
576,5	1489,181
576,9	1485,581
577,4	1481,352
577,8	1484,752
578,3	1485,01
578,7	1485,581
579,2	1482,124
579,6	1471,181
580,1	1467,352
580,5	1470,581
581	1471,81
581,4	1471,781
581,9	1468,667
582,3	1469,724
582,7	1477,01
583,2	1480,952
583,6	1478,067
584,1	1478,381
584,5	1479,867
585	1478,124
585,4	1468,324
585,9	1462,838
586,3	1459,181
586,8	1459,152
587,2	1455,695
587,6	1452,238
588,1	1459,467
588,5	1458,61
589	1459,01
589,4	1461,781
589,9	1458,581
590,3	1451,381
590,8	1446,724
591,2	1434,752
591,7	1439,181
592,1	1437,695
592,5	1430,895
593	1429,21
593,4	1430,238
593,9	1423,838
594,3	1422,381
594,8	1416,238
595,2	1413,21
595,7	1411,467
596,1	1406,781
596,6	1406,124
597	1409,181
597,4	1409,81
597,9	1404,581
598,3	1404,61
598,8	1401,667
599,2	1397,095
599,7	1393,067
600,1	1387,238
600,6	1385,724
601	1390,238
601,4	1391,667
601,9	1394,638
602,3	1394,752
602,8	1392,667
603,2	1389,867
603,7	1384,495
604,1	1380,952
604,6	1370,01
605	1361,638
605,4	1369,467
605,9	1363,781
606,3	1357,752
606,8	1349,867
607,2	1340,324
607,7	1331,638
608,1	1326,695
608,6	1316,381
609	1317,067
609,4	1318,438
609,9	1316,924
610,3	1319,638
610,8	1318,895
611,2	1320,981
611,7	1311,952
612,1	1303,924
612,6	1300,581
613	1300,295
613,4	1292,381
613,9	1289,524
614,3	1275,21
614,8	1276,695
615,2	1270,667
615,7	1267,381
616,1	1259,381
616,6	1254,095
617	1246,41
617,4	1249,724
617,9	1244,095
618,3	1240,352
618,8	1236,01
619,2	1229,724
619,7	1224,324
620,1	1226,838
620,5	1223,152
621	1215,924
621,4	1210,352
621,9	1205,524
622,3	1201,352
622,8	1195,552
623,2	1185,895
623,6	1178,695
624,1	1175,01
624,5	1174,61
625	1168,41
625,4	1166,524
625,9	1163,381
626,3	1160,524
626,8	1151,724
627,2	1146,838
627,6	1128,981
628,1	1119,324
628,5	1113,124
629	1104,381
629,4	1099,924
629,9	1095,038
630,3	1085,181
630,7	1086,41
631,2	1086,124
631,6	1081,895
632,1	1084,152
632,5	1076,295
633	1073,495
633,4	1067,581
633,8	1065,838
634,3	1058,524
634,7	1050,152
635,2	1037,467
635,6	1033,21
636,1	1026,524
636,5	1019,524
636,9	1004,724
637,4	998,895
637,8	991,324
638,3	985,238
638,7	977,324
639,2	969,124
639,6	970,095
640	969,267
640,5	958,981
640,9	956,467
641,4	954,81
641,8	953,581
642,2	949,438
642,7	943,61
643,1	946,124
643,6	947,467
644	943,867
644,5	941,352
644,9	938,724
645,3	935,495
645,8	931,467
646,2	921,752
646,7	916,752
647,1	911,495
647,6	905,924
648	900,238
648,4	893,181
648,9	890,095
649,3	883,781
649,8	883,724
650,2	880,495
650,6	875,181
651,1	866,61
651,5	872,81
652	862,381
652,4	860,667
652,9	857,524
653,3	854,381
653,7	848,952
654,2	843,381
654,6	826,81
655,1	829,752
655,5	829,838
655,9	821,867
656,4	810,895
656,8	808,01
657,3	804,067
657,7	809,552
658,2	797,952
658,6	789,867
659	778,238
659,5	772,124
659,9	763,838
660,4	759,895
660,8	744,667
661,2	742,581
661,7	734,981
662,1	738,038
662,6	739,067
663	740,181
663,4	735,752
663,9	737,324
664,3	728,41
664,8	722,181
665,2	714,524
665,6	709,01
666,1	699,581
666,5	698,581
667	693,067
667,4	690,781
667,9	688,524
668,3	681,61
668,7	678,838
669,2	676,01
669,6	670,81
670,1	665,524
670,5	661,552
670,9	658,124
671,4	655,295
671,8	651,324
672,3	652,038
672,7	648,667
673,1	641,124
673,6	634,524
674	635,667
674,5	630,838
674,9	620,238
675,3	609,067
675,8	604,867
676,2	606,21
676,7	603,752
677,1	595,267
677,5	591,752
678	594,952
678,4	598,01
678,9	590,495
679,3	584,238
679,7	579,695
680,2	573,41
680,6	566,067
681,1	562,381
681,5	559,61
681,9	560,01
682,4	556,752
682,8	556,952
683,3	555,924
683,7	557,838
684,1	552,181
684,6	543,295
685	535,695
685,5	531,067
685,9	522,352
686,3	514,295
686,8	512,752
687,2	515,952
687,7	514,495
688,1	506,867
688,5	503,895
689	506,867
689,4	505,038
689,9	498,21
690,3	484,438
690,7	477,752
691,2	480,352
691,6	478,667
692	471,352
692,5	470,352
692,9	468,352
693,4	468,638
693,8	467,667
694,2	464,638
694,7	462,867
695,1	460,524
695,6	461,438
696	458,381
696,4	454,495
696,9	450,238
697,3	445,01
697,8	439,467
698,2	437,095
698,6	430,695
699,1	427,752
699,5	426,81
699,9	424,324
700,4	420,038
700,8	422,552
701,3	423,981
701,7	419,267
702,1	416,095
702,6	406,495
703	406,324
703,5	405,952
703,9	399,924
704,3	397,438
704,8	392,781
705,2	388,81
705,6	393,238
706,1	391,01
706,5	387,695
707	385,381
707,4	380,867
707,8	376,038
708,3	379,952
708,7	373,181
709,2	368,181
709,6	361,352
710	361,038
710,5	350,981
710,9	354,381
711,3	348,895
711,8	351,181
712,2	350,467
712,7	350,552
713,1	348,667
713,5	352,295
714	348,21
714,4	345,838
714,8	342,181
715,3	339,324
715,7	342,324
716,2	332,61
716,6	330,695
717	327,981
717,5	322,924
717,9	325,895
718,3	322,895
718,8	319,952
719,2	322,21
719,7	317,61
720,1	320,095
720,5	321,067
721	313,352
721,4	310,038
721,8	308,695
722,3	303,667
722,7	305,781
723,2	298,324
723,6	292,095
724	290,61
724,5	285,095
724,9	278,01
725,3	273,381
725,8	268,781
726,2	267,238
726,7	265,467
727,1	266,181
727,5	268,067
728	263,838
728,4	269,01
728,8	266,124
729,3	265,61
729,7	262,838
730,1	258,295
730,6	255,352
731	260,438
731,5	255,752
731,9	253,21
732,3	253,81
732,8	253,01
733,2	255,038
733,6	255,238
734,1	249,324
734,5	248,41
734,9	253,552
735,4	252,495
735,8	250,381
736,3	249,21
736,7	247,695
737,1	249,095
737,6	246,838
738	240,352
738,4	236,724
738,9	240,238
739,3	236,581
739,7	237,124
740,2	234,981
740,6	234,952
741,1	236,495
741,5	234,095
741,9	234,552
742,4	232,41
742,8	228,895
743,2	229,124
743,7	226,238
744,1	221,095
744,5	220,638
745	212,438
745,4	210,152
745,8	208,352
746,3	208,181
746,7	206,638
747,2	207,924
747,6	208,324
748	210,352
748,5	211,438
748,9	208,467
749,3	201,181
749,8	204,552
750,2	201,067
750,6	197,61
751,1	198,038
751,5	195,924
751,9	197,467
752,4	199,41
752,8	196,095
753,3	196,467
753,7	200,152
754,1	191,238
754,6	190,295
755	187,581
755,4	185,181
755,9	186,01
756,3	183,352
756,7	176,81
757,2	180,295
757,6	178,695
758	178,867
758,5	180,01
758,9	172,181
759,3	173,781
759,8	172,124
760,2	171,752
760,6	167,81
761,1	166,095
761,5	164,181
761,9	164,667
762,4	161,124
762,8	161,181
763,3	158,667
763,7	157,581
764,1	157,552
764,6	157,295
765	161,038
765,4	162,781
765,9	161,867
766,3	167,381
766,7	164,638
767,2	161,181
767,6	162,467
768	158,324
768,5	152,752
768,9	148,181
769,3	141,981
769,8	142,581
770,2	145,095
770,6	139,21
771,1	144,81
771,5	144,724
771,9	150,952
772,4	150,21
772,8	150,581
773,2	149,724
773,7	152,238
774,1	148,124
774,5	142,867
775	137,524
775,4	139,21
775,8	136,438
776,3	138,067
776,7	135,61
777,1	132,581
777,6	142,067
778	145,838
778,4	144,01
778,9	147,01
779,3	143,381
779,7	145,695
780,2	145,438
780,6	137,381
781	134,152
781,5	131,467
781,9	131,381
782,3	128,01
782,8	122,381
783,2	120,581
783,6	120,095
784,1	118,067
784,5	112,638
784,9	106,81
785,4	112,695
785,8	116,81
786,2	116,895
786,7	119,381
787,1	120,61
787,5	125,524
788	125,695
788,4	122,952
788,8	119,238
789,3	118,238
789,7	115,467
790,1	115,295
790,6	115,867
791	112,638
791,4	110,295
791,9	109,41
792,3	106,352
792,7	110,552
793,2	109,524
793,6	107,324
794	113,838
794,5	110,381
794,9	112,124
795,3	112,81
795,8	111,752
796,2	111,21
796,6	112,01
797,1	109,067
797,5	106,067
797,9	104,324
798,4	101,552
798,8	97,781
799,2	95,81
799,7	96,61
800,1	95,038
800,5	98,524
801	102,21
801,4	103,495
801,8	102,352
802,2	100,467
802,7	94,695
803,1	95,667
803,5	94,695
804	87,01
804,4	86,21
804,8	88,667
805,3	89,695
805,7	87,581
806,1	84,352
806,6	85,581
807	83,267
807,4	84,152
807,9	79,267
808,3	76,752
808,7	79,724
809,2	80,324
809,6	82,867
810	88,01
810,4	84,524
810,9	85,095
811,3	85,61
811,7	85,981
812,2	87,781
812,6	81,867
813	80,324
813,5	79,552
813,9	76,952
814,3	75,895
814,8	72,638
815,2	66,752
815,6	63,867
816,1	65,867
816,5	65,695
816,9	70,267
817,3	75,067
817,8	79,695
818,2	82,095
818,6	81,952
819,1	79,838
819,5	78,01
819,9	75,495
820,4	70,924
820,8	66,667
821,2	63,838
821,7	66,952
822,1	68,467
822,5	77,352
822,9	76,124
823,4	75,381
823,8	76,895
824,2	77,895
824,7	76,181
825,1	65,781
825,5	57,467
826	56,01
826,4	55,695
826,8	51,238
827,3	57,495
827,7	54,41
828,1	61,067
828,5	61,41
829	58,095
829,4	59,324
829,8	58,067
830,3	53,238
830,7	51,952
831,1	50,124
831,6	53,095
832	55,924
832,4	54,267
832,8	59,495
833,3	59,381
833,7	60,238
834,1	58,952
834,6	55,01
835	57,895
835,4	61,152
835,8	57,067
836,3	55,21
836,7	60,352
837,1	59,467
837,6	63,181
838	60,552
838,4	58,867
838,9	56,324
839,3	54,295
839,7	50,838
840,1	46,21
840,6	44,924
841	47,752
841,4	46,638
841,9	49,61
842,3	49,267
842,7	46,524
843,1	53,895
843,6	52,924
844	50,952
844,4	50,01
844,9	50,895
845,3	53,752
845,7	55,21
846,2	50,352
846,6	45,381
847	43,695
847,4	47,238
847,9	46,038
848,3	46,61
848,7	44,581
849,2	44,238
849,6	44,352
850	48,952
850,4	43,352
850,9	43,267
851,3	42,867
851,7	46,895
852,2	48,295
852,6	49,752
853	45,61
853,4	44,724
853,9	41,952
854,3	39,867
854,7	38,01
855,2	35,838
855,6	38,352
856	36,752
856,4	33,21
856,9	32,181
857,3	31,867
857,7	31,295
858,2	35,781
858,6	34,381
859	36,21
859,4	39,381
859,9	40,467
860,3	37,981
860,7	37,581
861,1	38,524
861,6	37,724
862	36,552
862,4	32,552
862,9	33,01
863,3	33,41
863,7	35,352
864,1	34,952
864,6	32,752
865	29,924
865,4	35,524
865,9	37,752
866,3	37,724
866,7	32,267
867,1	27,152
867,6	31,067
868	30,895
868,4	28,924
868,8	26,781
869,3	28,752
869,7	34,695
870,1	34,838
870,6	32,352
871	39,21
871,4	42,667
871,8	40,238
872,3	40,352
872,7	40,01
873,1	43,152
873,5	42,495
874	34,352
874,4	33,838
874,8	34,467
875,3	36,467
875,7	31,038
876,1	31,21
876,5	30,267
877	29,695
877,4	26,324
877,8	26,352
878,2	25,038
878,7	28,552
879,1	24,124
879,5	25,695
879,9	28,495
880,4	27,467
880,8	28,638
881,2	25,981
881,7	23,667
882,1	25,352
882,5	21,467
882,9	18,467
883,4	16,295
883,8	19,867
884,2	19,467
884,6	19,095
885,1	21,238
885,5	23,295
885,9	25,295
886,3	30,067
886,8	24,981
887,2	23,152
887,6	20,695
888	17,181
888,5	18,638
888,9	15,667
889,3	13,324
889,8	14,781
890,2	16,552
890,6	17,781
891	23,838
891,5	21,067
891,9	26,495
892,3	26,467
892,7	25,495
893,2	25,238
893,6	29,438
894	26,01
894,4	27,01
894,9	26,524
895,3	24,838
895,7	27,038
896,1	25,895
896,6	23,01
897	22,381
897,4	26,181
897,8	25,667
898,3	25,295
898,7	22,267
899,1	20,981
899,5	20,838
900	16,61
900,4	12,238
900,8	6,838
901,2	7,952
901,7	5,638
902,1	9,838
902,5	11,038
902,9	12,181
903,4	14,352
903,8	18,267
904,2	16,238
904,6	16,352
905,1	17,495
905,5	17,181
905,9	19,295
906,3	21,81
906,8	23,352
907,2	28,324
907,6	34,638
908	35,924
908,5	32,752
908,9	28,438
909,3	24,524
909,7	23,695
910,2	21,581
910,6	20,152
911	15,324
911,4	20,152
911,9	23,21
912,3	25,124
912,7	26,695
913,1	29,01
913,6	25,438
914	25,867
914,4	21,067
914,8	22,152
915,3	20,495
915,7	21,238
916,1	17,495
916,5	22,124
916,9	23,352
917,4	26,124
917,8	25,952
918,2	19,267
918,6	13,552
919,1	14,181
919,5	13,467
919,9	13,524
920,3	11,438
920,8	9,952
921,2	12,81
921,6	12,752
922	12,381
922,5	10,438
922,9	8,61
923,3	8,552
923,7	13,495
924,2	17,181
924,6	19,381
925	22,01
925,4	23,21
925,8	26,724
926,3	26,581
926,7	22,324
927,1	21,438
927,5	23,21
928	19,552
928,4	16,038
928,8	16,638
929,2	17,61
929,7	18,81
930,1	17,781
930,5	10,867
930,9	12,067
931,3	10,438
931,8	9,381
932,2	8,038
932,6	5,524
933	1,638
933,5	5,981
933,9	9,81
934,3	11,838
934,7	5,81
935,2	8,124
935,6	8,781
936	13,552
936,4	17,095
936,8	14,095
937,3	12,467
937,7	16,838
938,1	19,295
938,5	14,61
939	14,667
939,4	12,324
939,8	7,81
940,2	11,21
940,6	10,981
941,1	6,81
941,5	14,181
941,9	10,552
942,3	7,467
942,8	14,781
943,2	10,552
943,6	9,038
944	11,238
944,4	7,038
944,9	6,038
945,3	3,952
945,7	-3,848
946,1	-1,705
946,6	-2,562
947	-4,219
947,4	3,467
947,8	9,61
948,2	12,781
948,7	18,41
949,1	19,752
949,5	24,552
949,9	24,867
950,3	17,724
950,8	14,61
951,2	13,867
951,6	8,61
952	10,267
952,5	0,781
952,9	0,838
953,3	3,324
953,7	3,352
954,1	5,552
954,6	14,924
955	14,21
955,4	19,267
955,8	20,352
956,2	15,924
956,7	14,381
957,1	13,924
957,5	8,495
957,9	10,181
958,3	9,352
958,8	10,467
959,2	15,01
959,6	19,038
960	17,381
960,5	17,952
960,9	17,581
961,3	13,724
961,7	9,41
962,1	9,01
962,6	7,181
963	9,267
963,4	4,638
963,8	6,438
964,2	11,152
964,7	15,324
965,1	18,038
965,5	17,61
965,9	16,124
966,3	22,295
966,8	16,181
967,2	17,381
967,6	13,552
968	6,724
968,4	9,724
968,9	13,324
969,3	12,438
969,7	11,467
970,1	12,124
970,5	10,895
971	14,152
971,4	13,495
971,8	10,781
972,2	11,638
972,6	10,981
973,1	9,781
973,5	11,552
973,9	12,895
974,3	10,838
974,7	11,867
975,2	9,81
975,6	12,095
976	8,867
976,4	6,41
976,8	6,41
977,3	4,81
977,7	3,981
978,1	4,295
978,5	1,581
978,9	2,438
979,4	4,867
979,8	2,724
980,2	7,381
980,6	4,724
981	6,752
981,5	7,552
981,9	10,21
982,3	11,01
982,7	11,495
983,1	4,952
983,6	5,552
984	1,21
984,4	3,981
984,8	6,124
985,2	6,581
985,6	4,467
986,1	9,752
986,5	15,924
986,9	16,638
987,3	17,41
987,7	15,524
988,2	9,981
988,6	11,41
989	7,867
989,4	2,81
989,8	3,81
990,3	4,381
990,7	4,524
991,1	8,381
991,5	11,924
991,9	13,81
992,3	16,267
992,8	16,21
993,2	13,067
993,6	14,552
994	15,867
994,4	18,238
994,9	19,724
995,3	15,381
995,7	12,981
996,1	14,21
996,5	11,124
996,9	6,581
997,4	1,267
997,8	-5,105
998,2	-5,705
998,6	-11,505
999	-14,505
999,5	-17,333
999,9	-14,676
1000,3	-15,219
1000,7	-10,019
1001,1	-9,333
1001,5	-0,362
1002	9,267
1002,4	13,21
1002,8	14,152
1003,2	19,095
1003,6	17,724
1004	24,838
1004,5	22,952
1004,9	20,552
1005,3	18,324
1005,7	17,41
1006,1	11,61
1006,6	11,41
1007	8,724
1007,4	6,867
1007,8	4,952
1008,2	4,724
1008,6	9,152
1009,1	10,581
1009,5	12,61
1009,9	12,267
1010,3	11,924
1010,7	11,838
1011,1	12,067
1011,6	10,781
1012	13,038
1012,4	11,438
1012,8	10,295
1013,2	15,467
1013,6	12,238
1014,1	15,581
1014,5	12,724
1014,9	7,352
1015,3	7,438
1015,7	8,038
1016,1	4,381
1016,6	4,41
1017	0,867
1017,4	4,838
1017,8	9,124
1018,2	12,181
1018,6	5,781
1019,1	3,181
1019,5	2,067
1019,9	-0,133
1020,3	-1,705
1020,7	-2,59
1021,1	-2,048
1021,6	1,981
1022	3,895
1022,4	6,181
1022,8	12,067
1023,2	12,724
1023,6	14,295
1024,1	17,467
1024,5	19,467
1024,9	19,295
1025,3	20,095
1025,7	18,438
1026,1	16,695
1026,6	19,438
1027	12,467
1027,4	15,41
1027,8	17,552
1028,2	14,895
1028,6	16,981
1029	16,21
1029,5	15,381
1029,9	15,495
1030,3	10,095
1030,7	8,752
1031,1	7,61
1031,5	2,981
1032	0,038
1032,4	-1,362
1032,8	2,21
1033,2	8,067
1033,6	8,21
1034	14,181
1034,4	17,324
1034,9	23,152
1035,3	18,267
1035,7	18,21
1036,1	10,867
1036,5	9,867
1036,9	8,21
1037,4	9,981
1037,8	6,238
1038,2	13,381
1038,6	10,152
1039	15,495
1039,4	20,781
1039,8	16,124
1040,3	11,895
1040,7	12,067
1041,1	6,81
1041,5	9,552
1041,9	7,581
1042,3	5,81
1042,7	9,095
1043,2	9,352
1043,6	7,981
1044	8,01
1044,4	7,01
1044,8	7,352
1045,2	4,324
1045,6	6,467
1046,1	7,095
1046,5	7,724
1046,9	4,781
1047,3	1,924
1047,7	-0,819
1048,1	-1,933
1048,5	-4,962
1049	-1,248
1049,4	5,838
1049,8	10,61
1050,2	14,324
1050,6	19,038
1051	21,81
1051,4	22,695
1051,9	20,638
1052,3	24,181
1052,7	22,581
1053,1	20,038
1053,5	20,495
1053,9	19,324
1054,3	18,21
1054,8	21,695
1055,2	14,952
1055,6	15,724
1056	16,352
1056,4	11,467
1056,8	13,667
1057,2	12,238
1057,6	9,41
1058,1	5,61
1058,5	4,438
1058,9	7,352
1059,3	9,724
1059,7	12,381
1060,1	14,924
1060,5	17,838
1061	23,324
1061,4	24,152
1061,8	21,667
1062,2	20,752
1062,6	18,61
1063	18,724
1063,4	15,924
1063,8	15,21
1064,3	11,324
1064,7	8,867
1065,1	8,438
1065,5	2,467
1065,9	2,181
1066,3	-1,333
1066,7	-4,019
1067,1	-5,219
1067,6	-1,019
1068	-4,305
1068,4	-0,419
1068,8	4,381
1069,2	6,667
1069,6	5,895
1070	12,381
1070,4	13,895
1070,9	11,752
1071,3	12,924
1071,7	5,867
1072,1	7,61
1072,5	5,724
1072,9	3,752
1073,3	2,238
1073,7	7,124
1074,2	7,495
1074,6	11,667
1075	4,952
1075,4	8,238
1075,8	7,752
1076,2	2,324
1076,6	3,038
1077	4,267
1077,5	6,324
1077,9	10,695
1078,3	8,952
1078,7	7,095
1079,1	8,21
1079,5	8,895
1079,9	8,81
1080,3	5,124
1080,7	5,724
1081,2	11,067
1081,6	12,295
1082	12,838
1082,4	15,467
1082,8	11,581
1083,2	11,638
1083,6	9,838
1084	4,838
1084,5	9,81
1084,9	9,867
1085,3	0,867
1085,7	4,867
1086,1	3,152
1086,5	5,467
1086,9	7,21
1087,3	2,638
1087,7	1,352
1088,2	7,352
1088,6	5,095
1089	10,238
1089,4	7,324
1089,8	3,352
1090,2	4,038
1090,6	7,181
1091	4,781
1091,4	5,41
1091,9	0,61
1092,3	3,81
1092,7	6,895
1093,1	8,267
1093,5	9,81
1093,9	11,952
1094,3	16,095
1094,7	17,238
1095,1	17,01
1095,5	18,438
1096	17,038
1096,4	16,21
1096,8	15,124
1097,2	11,581
1097,6	17,924
1098	16,724
1098,4	16,238
1098,8	16,81
1099,2	19,038
1099,6	21,552
1100,1	19,095
1100,5	12,324
1100,9	12,152
1101,3	12,124
1101,7	10,667
1102,1	3,838
1102,5	0,867
1102,9	2,781
1103,3	4,095
1103,7	6,781
1104,2	4,581
1104,6	6,095
1105	7,267
1105,4	9,695
1105,8	7,295
1106,2	5,21
1106,6	1,124
1107	1,324
1107,4	0,233
1107,8	2,587
1108,3	-0,483
