Data from Subt2_195.txt Node
Date: Sat Aug 26 18:43:08 MSK 2023
User: vat
Spectrometer: MAYP114033
Trigger mode: 0
Integration Time (sec): 1,000000E0
Scans to average: 5
Electric dark correction enabled: true
Nonlinearity correction enabled: false
Boxcar width: 3
XAxis mode: Wavelengths
Number of Pixels in Spectrum: 2068
>>>>>Begin Spectral Data<<<<<
199,4	-0,8
199,9	1,96
200,4	0,7
200,8	0,571
201,3	-1,6
201,8	-1,971
202,2	-2,286
202,7	2,286
203,2	-0,6
203,6	-0,571
204,1	-1,886
204,6	1,6
205	3,286
205,5	5,143
206	-0,143
206,4	1
206,9	0,2
207,4	2,2
207,8	-2,114
208,3	-3,8
208,8	-5,514
209,2	-4,171
209,7	-4,314
210,2	-1,514
210,6	-0,314
211,1	5
211,5	3,571
212	7,429
212,5	5,114
212,9	5,314
213,4	6,771
213,9	5
214,3	1,4
214,8	5,229
215,3	-0,686
215,7	8,286
216,2	10,657
216,7	9,829
217,1	8
217,6	8,771
218,1	5,057
218,5	9,314
219	-2,629
219,5	-5,229
219,9	-9,371
220,4	-1,629
220,9	-0,429
221,3	0,914
221,8	3,886
222,3	8,257
222,7	9
223,2	10,771
223,6	5,2
224,1	5,686
224,6	6,514
225	4,143
225,5	0,114
226	0,2
226,4	2,914
226,9	5,257
227,4	5,8
227,8	1,571
228,3	-3
228,8	0,171
229,2	4,2
229,7	3,543
230,2	3,371
230,6	5,057
231,1	10,371
231,5	12,714
232	15,943
232,5	10,829
232,9	9,457
233,4	9,371
233,9	5,429
234,3	4,057
234,8	4,343
235,3	1,914
235,7	6,086
236,2	7,057
236,7	5,543
237,1	8,6
237,6	6,486
238,1	4,543
238,5	1,171
239	0,229
239,4	4,571
239,9	3,514
240,4	2,371
240,8	7,429
241,3	7,143
241,8	9
242,2	5,629
242,7	-4,771
243,2	-3,571
243,6	-6,514
244,1	-7,343
244,6	-3,971
245	-0,971
245,5	1,543
245,9	6,457
246,4	6,114
246,9	8,743
247,3	8,8
247,8	12
248,3	13,143
248,7	9,771
249,2	10,171
249,7	9,371
250,1	10,543
250,6	7,029
251	4,229
251,5	1,829
252	3,371
252,4	5,029
252,9	-0,086
253,4	-6,971
253,8	-5,6
254,3	-6,343
254,8	-2,543
255,2	-4,086
255,7	-7,143
256,1	3,486
256,6	11,2
257,1	12,086
257,5	7,171
258	4,086
258,5	3
258,9	0,886
259,4	-5,086
259,9	-8,086
260,3	-10,086
260,8	-8,429
261,2	-6,486
261,7	-2,943
262,2	-1,771
262,6	-4,257
263,1	-0,486
263,6	1,457
264	3,857
264,5	6,486
264,9	4,257
265,4	6,457
265,9	8,2
266,3	6,286
266,8	8,886
267,3	8,429
267,7	2
268,2	6,457
268,7	5,971
269,1	6,143
269,6	6,629
270	7,229
270,5	6,371
271	7,686
271,4	0,114
271,9	-5,486
272,4	-0,486
272,8	-4,743
273,3	-9,143
273,7	-7,914
274,2	-11,171
274,7	-6,914
275,1	0,543
275,6	-3,171
276,1	0,143
276,5	4,971
277	3,371
277,4	9,257
277,9	10,2
278,4	9,314
278,8	11,343
279,3	11,229
279,8	11,886
280,2	15,971
280,7	17,457
281,1	14,629
281,6	15,286
282,1	11,343
282,5	10,343
283	9,343
283,4	8,829
283,9	5,686
284,4	11,629
284,8	9,914
285,3	10,971
285,8	13,657
286,2	7,314
286,7	1,514
287,1	-1,457
287,6	-6,029
288,1	-5,743
288,5	-1,886
289	-3,343
289,5	-2,857
289,9	0,057
290,4	5,686
290,8	8,914
291,3	7,2
291,8	3,8
292,2	1,514
292,7	5,429
293,1	6,029
293,6	6,971
294,1	5,486
294,5	9
295	12,171
295,5	11,943
295,9	12,8
296,4	9,486
296,8	3
297,3	0,229
297,8	-8,657
298,2	-11,886
298,7	-5,629
299,1	-6,314
299,6	-7,886
300,1	-2,343
300,5	2,771
301	10,914
301,5	17,4
301,9	12,829
302,4	11,514
302,8	17,486
303,3	12,543
303,8	6,143
304,2	6,857
304,7	0,143
305,1	-3,457
305,6	-2,343
306,1	4,657
306,5	8,457
307	18,457
307,4	18,171
307,9	19,857
308,4	20,286
308,8	13,371
309,3	4,571
309,8	3,971
310,2	-2,029
310,7	-8,371
311,1	-8,457
311,6	-6,229
312,1	-1,229
312,5	2,371
313	3,629
313,4	1,943
313,9	6,486
314,4	5,4
314,8	0,829
315,3	0,4
315,7	-5,2
316,2	-11,429
316,7	-9,657
317,1	-3,857
317,6	-2,686
318	4,171
318,5	2,229
319	2,314
319,4	11,314
319,9	14,429
320,3	11,943
320,8	9,143
321,3	8,629
321,7	10,686
322,2	12,857
322,6	11,029
323,1	9,714
323,6	8,229
324	9,914
324,5	7,257
324,9	10,829
325,4	10,6
325,9	11,829
326,3	12,543
326,8	13,971
327,2	10,143
327,7	9,914
328,2	4,886
328,6	7,686
329,1	-0,657
329,5	-3,743
330	-8,057
330,5	-4,829
330,9	1,629
331,4	2,686
331,8	-0,057
332,3	3,743
332,8	5,971
333,2	7,257
333,7	10,686
334,1	4,657
334,6	3,343
335,1	-2,886
335,5	-1,2
336	-4,029
336,4	-5,086
336,9	-0,314
337,4	1,514
337,8	4,8
338,3	13,286
338,7	12,486
339,2	14,314
339,7	16,4
340,1	8,629
340,6	8,314
341	4,714
341,5	1,571
342	-0,171
342,4	-4,143
342,9	-6,686
343,3	-3,314
343,8	-1,743
344,2	2,486
344,7	8,343
345,2	7,029
345,6	9,343
346,1	14,314
346,5	11,686
347	11,543
347,5	6,143
347,9	3,971
348,4	7,886
348,8	8,914
349,3	9,829
349,8	10,657
350,2	16,743
350,7	16,8
351,1	15,686
351,6	18,257
352	23,771
352,5	27,943
353	36,429
353,4	33,457
353,9	51,343
354,3	67,429
354,8	77,2
355,3	92,771
355,7	111,229
356,2	133,8
356,6	164,086
357,1	190,457
357,5	217,771
358	258,914
358,5	300,829
358,9	349,571
359,4	400,571
359,8	458,686
360,3	527,314
360,8	604,629
361,2	685,343
361,7	776,286
362,1	875,371
362,6	992,943
363	1114,029
363,5	1242,629
364	1383,629
364,4	1526,114
364,9	1666,371
365,3	1808,171
365,8	1935,486
366,3	2057,571
366,7	2165,571
367,2	2255,343
367,6	2331,457
368,1	2397,029
368,5	2439,886
369	2464,029
369,5	2470,486
369,9	2456,514
370,4	2419,8
370,8	2371,143
371,3	2296,686
371,7	2212,543
372,2	2114,6
372,7	2013,343
373,1	1906,114
373,6	1800,771
374	1689,771
374,5	1584,714
374,9	1477,4
375,4	1375,514
375,9	1274,286
376,3	1175,829
376,8	1079,286
377,2	995,086
377,7	909,229
378,2	826,514
378,6	758,229
379,1	692,371
379,5	635
380	587,257
380,4	534,943
380,9	490,771
381,4	451,086
381,8	412,743
382,3	381,943
382,7	357,914
383,2	329
383,6	303,371
384,1	285,714
384,6	271,486
385	251,371
385,5	235,543
385,9	213,486
386,4	200,657
386,8	192,314
387,3	177,914
387,7	166,514
388,2	160,371
388,7	150,857
389,1	142,086
389,6	131,086
390	119,257
390,5	115,914
390,9	108,571
391,4	100,229
391,9	90,457
392,3	88,686
392,8	82,286
393,2	73,657
393,7	62,114
394,1	57,714
394,6	52,371
395,1	53,714
395,5	43,829
396	44,886
396,4	50,829
396,9	53,514
397,3	56,343
397,8	55,914
398,2	51,171
398,7	55,429
399,2	53,943
399,6	52,229
400,1	49,857
400,5	43,286
401	46,686
401,4	42,8
401,9	44,057
402,4	44
402,8	36,886
403,3	41,086
403,7	39,714
404,2	36,629
404,6	39
405,1	37,143
405,5	36,857
406	41,629
406,5	40,429
406,9	44
407,4	48,514
407,8	54,943
408,3	59
408,7	60,429
409,2	64,114
409,6	69,029
410,1	75,057
410,6	82
411	84,486
411,5	86,6
411,9	90,457
412,4	97
412,8	101,714
413,3	106,857
413,7	107,343
414,2	111,314
414,7	119,8
415,1	132,829
415,6	141,886
416	148,457
416,5	156,714
416,9	163,057
417,4	173,829
417,8	188,543
418,3	198,657
418,8	209,114
419,2	220,914
419,7	229,171
420,1	244,314
420,6	254,4
421	261,171
421,5	271,257
421,9	281,4
422,4	293,629
422,8	306,6
423,3	317,829
423,8	331,629
424,2	346,486
424,7	364,543
425,1	381,143
425,6	400,057
426	419,829
426,5	439,514
426,9	461,943
427,4	478,057
427,9	489,657
428,3	515,2
428,8	536,543
429,2	559,257
429,7	582,829
430,1	607,114
430,6	638,2
431	671,943
431,5	702,514
431,9	731,857
432,4	769,543
432,8	808,943
433,3	846,086
433,8	883,057
434,2	926,371
434,7	965,314
435,1	1013,086
435,6	1057,743
436	1103,286
436,5	1155,029
436,9	1200,657
437,4	1253,143
437,8	1309,4
438,3	1365,371
438,8	1425,229
439,2	1489,486
439,7	1558,657
440,1	1635,2
440,6	1707,8
441	1777,057
441,5	1855,143
441,9	1936,2
442,4	2010,6
442,8	2086,457
443,3	2169,629
443,7	2254,343
444,2	2347,6
444,7	2433,943
445,1	2524
445,6	2625,571
446	2731,314
446,5	2826,829
446,9	2928,971
447,4	3034,143
447,8	3152,086
448,3	3266,686
448,7	3377,857
449,2	3490,657
449,6	3617,286
450,1	3741,486
450,6	3868,057
451	3989,114
451,5	4124,257
451,9	4267,343
452,4	4411,486
452,8	4546,429
453,3	4689
453,7	4830,943
454,2	4977,657
454,6	5120,543
455,1	5263,943
455,5	5411,171
456	5571,486
456,4	5725,657
456,9	5891,857
457,3	6051,914
457,8	6205,8
458,3	6368,257
458,7	6526,6
459,2	6680,943
459,6	6841,086
460,1	6993,257
460,5	7155,571
461	7329,343
461,4	7491,771
461,9	7665,514
462,3	7842,657
462,8	8019,086
463,2	8190,2
463,7	8371,857
464,1	8550,971
464,6	8730,143
465	8905,514
465,5	9078,886
466	9251,4
466,4	9419,029
466,9	9580,743
467,3	9755,343
467,8	9933,286
468,2	10096,971
468,7	10267,943
469,1	10435,114
469,6	10614,857
470	10782,171
470,5	10939,429
470,9	11091,114
471,4	11238,457
471,8	11392,543
472,3	11552,714
472,7	11705,114
473,2	11850,829
473,6	11989,857
474,1	12137,143
474,5	12292,886
475	12435,114
475,4	12563,114
475,9	12693,686
476,4	12823,629
476,8	12952,629
477,3	13071,143
477,7	13186,714
478,2	13298,514
478,6	13408,857
479,1	13508,171
479,5	13613,829
480	13706,029
480,4	13801,114
480,9	13887,314
481,3	13974,257
481,8	14055,743
482,2	14131,857
482,7	14202,2
483,1	14275,143
483,6	14329,429
484	14392,257
484,5	14451,743
484,9	14498,314
485,4	14547,971
485,8	14589,914
486,3	14618,971
486,7	14660,114
487,2	14673,029
487,6	14701,314
488,1	14718,971
488,5	14728,286
489	14739,914
489,4	14748,514
489,9	14741,743
490,4	14750,8
490,8	14731,314
491,3	14715,914
491,7	14692,486
492,2	14662,571
492,6	14636,886
493,1	14597,514
493,5	14548,829
494	14503,2
494,4	14463,457
494,9	14424,057
495,3	14376,829
495,8	14322,457
496,2	14279,057
496,7	14225,486
497,1	14175
497,6	14118,086
498	14059,229
498,5	13998,943
498,9	13932,514
499,4	13875,771
499,8	13815,257
500,3	13746,2
500,7	13672,286
501,2	13595,771
501,6	13527,371
502,1	13452,657
502,5	13373,771
503	13287,286
503,4	13186,6
503,9	13098,086
504,3	13025,429
504,8	12922,743
505,2	12833,114
505,7	12726,943
506,1	12642,829
506,6	12547,114
507	12450,314
507,5	12328,057
507,9	12237,657
508,4	12136,571
508,8	12037,486
509,3	11925,571
509,7	11834,429
510,2	11729,343
510,6	11630,4
511,1	11517,486
511,5	11403,114
512	11288,4
512,4	11191,171
512,9	11076,743
513,3	10968,743
513,8	10860,829
514,2	10746,286
514,7	10640
515,1	10540,743
515,6	10422,429
516	10307,257
516,5	10203,714
516,9	10100,943
517,4	10011,086
517,8	9904,486
518,3	9803,8
518,7	9701,771
519,2	9602,429
519,6	9491,943
520,1	9376,229
520,5	9266,914
521	9164,914
521,4	9052,657
521,9	8952,057
522,3	8855,8
522,8	8757,229
523,2	8670,771
523,7	8566,2
524,1	8469,971
524,6	8376,029
525	8276,857
525,5	8183,971
525,9	8092,914
526,4	7993,657
526,8	7909,6
527,3	7816,771
527,7	7731,286
528,2	7650,086
528,6	7558,743
529,1	7468,943
529,5	7395,143
530	7311,257
530,4	7231,257
530,9	7146,629
531,3	7061,8
531,8	6988,486
532,2	6913,543
532,6	6825,429
533,1	6750,486
533,5	6677,657
534	6598,971
534,4	6526,657
534,9	6452,371
535,3	6384
535,8	6315,4
536,2	6239,371
536,7	6168,6
537,1	6102,543
537,6	6032,914
538	5968,429
538,5	5906,429
538,9	5836,143
539,4	5774,657
539,8	5716,143
540,3	5666,057
540,7	5606,571
541,2	5541,314
541,6	5474,343
542,1	5426,571
542,5	5370,743
543	5311
543,4	5244,886
543,9	5193,171
544,3	5140,857
544,8	5090,229
545,2	5032,2
545,7	4985,2
546,1	4940,057
546,5	4893,229
547	4838,229
547,4	4788,371
547,9	4737,943
548,3	4697,314
548,8	4651,8
549,2	4609,629
549,7	4565,257
550,1	4526,857
550,6	4485,714
551	4447,429
551,5	4403,543
551,9	4348,4
552,4	4298,514
552,8	4256,943
553,3	4216,229
553,7	4170,457
554,2	4130,171
554,6	4094,571
555,1	4067,886
555,5	4033,114
555,9	3998,371
556,4	3961,057
556,8	3925,686
557,3	3890,286
557,7	3858,886
558,2	3825,257
558,6	3798,343
559,1	3767,629
559,5	3741,229
560	3718,657
560,4	3691,314
560,9	3652
561,3	3617,171
561,8	3582,086
562,2	3549,143
562,7	3517,457
563,1	3486,086
563,6	3453,629
564	3431,257
564,4	3412,629
564,9	3388,457
565,3	3358,771
565,8	3331,743
566,2	3309,086
566,7	3282,657
567,1	3261,971
567,6	3231,429
568	3200,143
568,5	3181,714
568,9	3155,029
569,4	3129,657
569,8	3108,914
570,3	3079,429
570,7	3051,829
571,1	3035,429
571,6	3011,886
572	2995,429
572,5	2976,657
572,9	2957,457
573,4	2939,914
573,8	2924,971
574,3	2899,2
574,7	2877,114
575,2	2852,429
575,6	2826,2
576,1	2805,543
576,5	2784,143
576,9	2759,857
577,4	2740,229
577,8	2718,6
578,3	2698,257
578,7	2681,857
579,2	2660,314
579,6	2636,629
580,1	2617,8
580,5	2595,714
581	2585,743
581,4	2569,114
581,9	2546,714
582,3	2526,229
582,7	2513,714
583,2	2495,429
583,6	2481,343
584,1	2462,486
584,5	2448,057
585	2435,486
585,4	2416,371
585,9	2395,8
586,3	2381,371
586,8	2368,543
587,2	2347,314
587,6	2334,714
588,1	2321,8
588,5	2316,314
589	2306,429
589,4	2294,571
589,9	2281,114
590,3	2263,743
590,8	2243,257
591,2	2229,857
591,7	2215,657
592,1	2200,143
592,5	2186,743
593	2168,4
593,4	2158,371
593,9	2143,457
594,3	2126,486
594,8	2109,371
595,2	2094,886
595,7	2083,371
596,1	2074,257
596,6	2061,314
597	2057
597,4	2050,886
597,9	2042,257
598,3	2030,686
598,8	2016,2
599,2	2008,057
599,7	1998,743
600,1	1983,914
600,6	1969,029
601	1959,143
601,4	1956,571
601,9	1952,886
602,3	1937,343
602,8	1928,771
603,2	1917
603,7	1905,686
604,1	1893,886
604,6	1874,6
605	1851,771
605,4	1845
605,9	1833,829
606,3	1821,543
606,8	1807,429
607,2	1790,457
607,7	1777,629
608,1	1768,6
608,6	1761,171
609	1753,257
609,4	1749,8
609,9	1742,343
610,3	1736,943
610,8	1734,4
611,2	1727,543
611,7	1713,343
612,1	1698,714
612,6	1683,429
613	1674,571
613,4	1667,171
613,9	1650,029
614,3	1644,057
614,8	1638,6
615,2	1625,971
615,7	1623,657
616,1	1615
616,6	1598,714
617	1594
617,4	1582,914
617,9	1567,714
618,3	1564,143
618,8	1551,914
619,2	1543,371
619,7	1543,371
620,1	1533,343
620,5	1524,714
621	1514,971
621,4	1503,4
621,9	1488,257
622,3	1477,371
622,8	1465,857
623,2	1453,4
623,6	1443,057
624,1	1435,686
624,5	1427,657
625	1426,114
625,4	1417,6
625,9	1407,114
626,3	1403,143
626,8	1393,629
627,2	1387,371
627,6	1372,886
628,1	1360,457
628,5	1354,543
629	1344,171
629,4	1330,743
629,9	1321,286
630,3	1304,771
630,7	1297,857
631,2	1287,143
631,6	1276,371
632,1	1271,114
632,5	1264,057
633	1257,8
633,4	1253,8
633,8	1250,543
634,3	1240,314
634,7	1232,057
635,2	1225,857
635,6	1216,314
636,1	1207,429
636,5	1192,543
636,9	1182,543
637,4	1178,314
637,8	1171,857
638,3	1152,886
638,7	1147,429
639,2	1138,029
639,6	1141,771
640	1132,8
640,5	1126,171
640,9	1114,286
641,4	1118,029
641,8	1109,257
642,2	1105,743
642,7	1099,943
643,1	1097,571
643,6	1089,2
644	1082,514
644,5	1075,571
644,9	1071
645,3	1059,029
645,8	1049,343
646,2	1041,429
646,7	1036,343
647,1	1031,457
647,6	1023,914
648	1020,914
648,4	1012,943
648,9	1004,686
649,3	996,886
649,8	994,114
650,2	990,686
650,6	981,829
651,1	974,8
651,5	977,371
652	970,914
652,4	967,086
652,9	958,6
653,3	953,171
653,7	951,114
654,2	942,171
654,6	931,743
655,1	930,029
655,5	925,2
655,9	918,086
656,4	911,029
656,8	899,314
657,3	896,743
657,7	894,714
658,2	887,514
658,6	878,6
659	871,514
659,5	859,629
659,9	855,543
660,4	848,6
660,8	835,829
661,2	829,543
661,7	828,429
662,1	824,857
662,6	823,829
663	818,457
663,4	807,257
663,9	806,6
664,3	795,857
664,8	787,371
665,2	775,943
665,6	765,629
666,1	764,171
666,5	760,343
667	756,029
667,4	754,571
667,9	750,371
668,3	746,571
668,7	744,171
669,2	736,371
669,6	732,914
670,1	729,971
670,5	725,2
670,9	720,229
671,4	716,429
671,8	714,514
672,3	713,286
672,7	713,714
673,1	704,829
673,6	696,229
674	692,543
674,5	686,514
674,9	673,971
675,3	663,257
675,8	657,886
676,2	650,914
676,7	646,457
677,1	641,771
677,5	639,486
678	643,571
678,4	642,057
678,9	630,857
679,3	627,457
679,7	628,229
680,2	615,343
680,6	608,571
681,1	600,514
681,5	598,229
681,9	600,343
682,4	596,229
682,8	590,714
683,3	593,029
683,7	596,371
684,1	594
684,6	584,029
685	575,457
685,5	571,771
685,9	559,286
686,3	551,8
686,8	543,886
687,2	539,286
687,7	534,8
688,1	528,371
688,5	527,086
689	530,314
689,4	528,143
689,9	524,286
690,3	517,486
690,7	518,829
691,2	522,857
691,6	515,857
692	510,514
692,5	508,086
692,9	503,829
693,4	501,429
693,8	494,829
694,2	485,2
694,7	479,971
695,1	478,371
695,6	477,086
696	475,6
696,4	469,543
696,9	466,2
697,3	458,4
697,8	457,371
698,2	454,143
698,6	447,486
699,1	442,057
699,5	444,314
699,9	438,4
700,4	440,314
700,8	437,057
701,3	434,029
701,7	430,943
702,1	425,914
702,6	420,229
703	423,771
703,5	420,771
703,9	416,514
704,3	410,971
704,8	408,743
705,2	407,229
705,6	407,143
706,1	401,571
706,5	395,686
707	393
707,4	394,286
707,8	388,371
708,3	387,486
708,7	384,971
709,2	380,743
709,6	379,457
710	381,343
710,5	373,657
710,9	371,971
711,3	364,514
711,8	361,657
712,2	364,743
712,7	360,914
713,1	354,4
713,5	361
714	357,971
714,4	359,4
714,8	355,829
715,3	346,6
715,7	351
716,2	346,286
716,6	339,429
717	337,486
717,5	333,857
717,9	333,629
718,3	330,771
718,8	323
719,2	323,914
719,7	320,486
720,1	321,343
720,5	323,686
721	316,257
721,4	316,171
721,8	320,943
722,3	315,029
722,7	315,429
723,2	309,657
723,6	298,086
724	296,486
724,5	289,829
724,9	281,6
725,3	279,886
725,8	277
726,2	276,343
726,7	278,229
727,1	278,657
727,5	281,371
728	278,171
728,4	278,686
728,8	272,829
729,3	271,886
729,7	268,771
730,1	264,571
730,6	265,257
731	264,514
731,5	261,343
731,9	257,971
732,3	259
732,8	259,486
733,2	257,371
733,6	251
734,1	251,029
734,5	253,886
734,9	259,171
735,4	255,286
735,8	247,029
736,3	246,914
736,7	245,514
737,1	243,971
737,6	239,829
738	233,886
738,4	226,457
738,9	232,6
739,3	233,143
739,7	233,514
740,2	227,2
740,6	229
741,1	232,571
741,5	226,571
741,9	224,286
742,4	223,657
742,8	221,743
743,2	222,971
743,7	214,686
744,1	203,514
744,5	208,886
745	204,571
745,4	198
745,8	197,8
746,3	196,114
746,7	197,857
747,2	200,886
747,6	203,514
748	206,771
748,5	213,029
748,9	207,543
749,3	204,286
749,8	205,371
750,2	207,771
750,6	201,514
751,1	201,143
751,5	194,686
751,9	197,257
752,4	199,229
752,8	192,2
753,3	184,971
753,7	194,171
754,1	187,657
754,6	182,029
755	178,857
755,4	176,686
755,9	182
756,3	182,057
756,7	173,771
757,2	174,314
757,6	179,171
758	176,4
758,5	171,971
758,9	169,686
759,3	171,629
759,8	171,886
760,2	172,314
760,6	170,114
761,1	169,2
761,5	173,743
761,9	169,914
762,4	164,057
762,8	161
763,3	157,571
763,7	154,514
764,1	155,6
764,6	156,086
765	157,743
765,4	159,971
765,9	163,514
766,3	166,286
766,7	159,543
767,2	156,543
767,6	156,314
768	154,4
768,5	154,571
768,9	147,2
769,3	143,143
769,8	151,057
770,2	153,229
770,6	146,486
771,1	145,886
771,5	145,743
771,9	148,4
772,4	147,6
772,8	143,457
773,2	141,029
773,7	138,657
774,1	136,314
774,5	131,686
775	127,971
775,4	128,2
775,8	126,229
776,3	126,457
776,7	129,086
777,1	126,086
777,6	127,8
778	130,143
778,4	127,943
778,9	127,2
779,3	124,543
779,7	126,143
780,2	129,286
780,6	126,229
781	126,057
781,5	126,8
781,9	128,857
782,3	123,943
782,8	122,029
783,2	119,943
783,6	121,457
784,1	114,571
784,5	109,4
784,9	104,771
785,4	113
785,8	112,514
786,2	112,857
786,7	110,743
787,1	112,571
787,5	116,914
788	120,686
788,4	117,714
788,8	114,286
789,3	109,143
789,7	110,114
790,1	110,914
790,6	109,371
791	104,829
791,4	105,286
791,9	103,6
792,3	103,057
792,7	107,714
793,2	102
793,6	99,229
794	100,171
794,5	96,886
794,9	104,514
795,3	104,457
795,8	98,914
796,2	106
796,6	111,2
797,1	111,857
797,5	109,686
797,9	102,543
798,4	100,343
798,8	98,914
799,2	91,943
799,7	90,486
800,1	85,743
800,5	83,543
801	87,114
801,4	87,2
801,8	84,343
802,2	86,514
802,7	81,029
803,1	83,914
803,5	87,171
804	79,2
804,4	82,257
804,8	83,6
805,3	82,486
805,7	82,8
806,1	80,4
806,6	82,371
807	85,629
807,4	82,829
807,9	77,314
808,3	80,143
808,7	82,2
809,2	84,743
809,6	80,086
810	81,886
810,4	83,743
810,9	86
811,3	86,257
811,7	87,886
812,2	91,343
812,6	90,571
813	90
813,5	89,543
813,9	89,486
814,3	86,771
814,8	78,114
815,2	70,829
815,6	71,8
816,1	72,657
816,5	69,514
816,9	71,371
817,3	69,743
817,8	80,886
818,2	82,971
818,6	80,6
819,1	78,371
819,5	76,6
819,9	73,114
820,4	71,943
820,8	64,171
821,2	62,4
821,7	64,743
822,1	64,314
822,5	69,8
822,9	71,543
823,4	70,514
823,8	71,714
824,2	73,543
824,7	69,857
825,1	61,914
825,5	54,171
826	50,686
826,4	54
826,8	52,486
827,3	55,657
827,7	54,714
828,1	63,2
828,5	65,857
829	64,943
829,4	61,486
829,8	56,629
830,3	52,2
830,7	53,8
831,1	52,371
831,6	53,829
832	56,4
832,4	54,971
832,8	59,057
833,3	57,143
833,7	54,6
834,1	48,114
834,6	48
835	48
835,4	50,2
835,8	42,686
836,3	42,571
836,7	44,286
837,1	47,886
837,6	49,429
838	46,8
838,4	46
838,9	53,829
839,3	55,543
839,7	56,314
840,1	50,686
840,6	45,314
841	50,714
841,4	52,257
841,9	49,057
842,3	44,714
842,7	43,143
843,1	47,257
843,6	49,314
844	45,343
844,4	42,2
844,9	41,143
845,3	43,029
845,7	42,343
846,2	40,286
846,6	39,057
847	41,514
847,4	43,029
847,9	43,8
848,3	43,171
848,7	45
849,2	46,914
849,6	43,086
850	41,629
850,4	40,171
850,9	42,457
851,3	43,086
851,7	44,257
852,2	42,429
852,6	48,829
853	49,886
853,4	48,314
853,9	44,029
854,3	42,057
854,7	41,486
855,2	41,286
855,6	39,114
856	35,6
856,4	36,029
856,9	35,286
857,3	39,229
857,7	38,371
858,2	42,2
858,6	42,029
859	42,686
859,4	40,771
859,9	38,457
860,3	32,371
860,7	32,543
861,1	30,486
861,6	27,657
862	27,143
862,4	26,086
862,9	27,771
863,3	30,971
863,7	28,029
864,1	27,829
864,6	31,457
865	33,114
865,4	36,914
865,9	41,114
866,3	36,829
866,7	33,571
867,1	29,257
867,6	25,629
868	20,686
868,4	19,4
868,8	16,914
869,3	17,457
869,7	22,571
870,1	21,429
870,6	22,429
871	3,943
871,4	5,914
871,8	1,686
872,3	7
872,7	2,457
873,1	4,514
873,5	6,343
874	27,543
874,4	27,486
874,8	31,486
875,3	29,029
875,7	29,286
876,1	32,2
876,5	31,714
877	29,286
877,4	23,571
877,8	25,971
878,2	27,943
878,7	30,8
879,1	30,971
879,5	30,429
879,9	33,171
880,4	37,914
880,8	36,629
881,2	29,514
881,7	30,229
882,1	28,114
882,5	22,914
882,9	17,429
883,4	14,571
883,8	13,429
884,2	15,914
884,6	11,743
885,1	11,686
885,5	12,457
885,9	15,343
886,3	15,886
886,8	13
887,2	12,143
887,6	15,8
888	18,371
888,5	21,343
888,9	17,943
889,3	15
889,8	16,086
890,2	18,543
890,6	13
891	8,4
891,5	3,429
891,9	8,029
892,3	11,6
892,7	14,514
893,2	11,286
893,6	17,286
894	21
894,4	21,2
894,9	21,629
895,3	19,771
895,7	18,657
896,1	19,829
896,6	14,486
897	15,857
897,4	20,514
897,8	17,943
898,3	24,314
898,7	20,057
899,1	22,714
899,5	22,629
900	15,743
900,4	12,686
900,8	13,657
901,2	5,171
901,7	8,343
902,1	7,971
902,5	12,657
902,9	13,657
903,4	15,771
903,8	17,914
904,2	19,429
904,6	19,914
905,1	21,543
905,5	15,686
905,9	18,8
906,3	21,314
906,8	19,429
907,2	23,429
907,6	22,486
908	19,086
908,5	18,686
908,9	17,943
909,3	14,914
909,7	16,6
910,2	13,114
910,6	16,314
911	12,829
911,4	16,143
911,9	13,286
912,3	10,4
912,7	10,086
913,1	12,371
913,6	4,086
914	7,029
914,4	6,057
914,8	7,971
915,3	6,371
915,7	4,057
916,1	0,229
916,5	3,2
916,9	3,229
917,4	7,343
917,8	10,886
918,2	14,286
918,6	12,657
919,1	14,257
919,5	16,343
919,9	17,286
920,3	13,743
920,8	6,8
921,2	7,371
921,6	5,171
922	7,514
922,5	7,714
922,9	7,029
923,3	5,457
923,7	11,257
924,2	9
924,6	13,371
925	11,486
925,4	8,086
925,8	9,029
926,3	10,829
926,7	5,686
927,1	3,229
927,5	3,857
928	1,029
928,4	0,829
928,8	2,143
929,2	-1,343
929,7	-0,657
930,1	4,4
930,5	3,457
930,9	5,686
931,3	6,4
931,8	5,457
932,2	9,714
932,6	12,143
933	10,257
933,5	12,086
933,9	14,086
934,3	15,029
934,7	11,343
935,2	9,2
935,6	8,8
936	11,886
936,4	14,286
936,8	13,086
937,3	13,229
937,7	17,371
938,1	20,971
938,5	16,657
939	13,971
939,4	8,857
939,8	7,371
940,2	5,8
940,6	2,914
941,1	0,829
941,5	7,086
941,9	8,029
942,3	9,029
942,8	9,4
943,2	12,629
943,6	9,057
944	7,343
944,4	5,257
944,9	5,229
945,3	3,629
945,7	1
946,1	0,514
946,6	0,657
947	1,743
947,4	2,629
947,8	2,629
948,2	2,943
948,7	7
949,1	4,971
949,5	12,514
949,9	12,629
950,3	11,571
950,8	12,743
951,2	6,943
951,6	0,429
952	4,314
952,5	-0,057
952,9	-3,257
953,3	-4,829
953,7	-7,314
954,1	3,057
954,6	11,657
955	12,114
955,4	10,086
955,8	14,657
956,2	16,914
956,7	18,2
957,1	12,857
957,5	10,6
957,9	7,086
958,3	6,943
958,8	6,457
959,2	7,829
959,6	9,971
960	9
960,5	8,371
960,9	11,857
961,3	11,029
961,7	9,543
962,1	5,114
962,6	-0,914
963	0,343
963,4	-4,543
963,8	-6,057
964,2	-3,229
964,7	-2,971
965,1	2,714
965,5	6,257
965,9	7,4
966,3	16,771
966,8	13,486
967,2	15,114
967,6	13,714
968	7,086
968,4	7,429
968,9	5,886
969,3	3,086
969,7	0,571
970,1	-2,086
970,5	0,286
971	4,114
971,4	0,829
971,8	0,4
972,2	-0,571
972,6	0,971
973,1	3,314
973,5	3,714
973,9	4,829
974,3	10,057
974,7	11,514
975,2	12,829
975,6	12,657
976	11,429
976,4	5,4
976,8	4,857
977,3	0,8
977,7	-1,657
978,1	-6,743
978,5	-6,229
978,9	-10,486
979,4	-10,571
979,8	-13,2
980,2	-14,314
980,6	-14,286
981	-7,657
981,5	-8,943
981,9	-4,971
982,3	1,629
982,7	5,857
983,1	7,371
983,6	7,171
984	3,886
984,4	8,971
984,8	8,771
985,2	6,657
985,6	-0,829
986,1	0,714
986,5	4,371
986,9	-0,629
987,3	1,686
987,7	3,914
988,2	0,143
988,6	4,057
989	5,886
989,4	7,343
989,8	11,086
990,3	5,114
990,7	4,743
991,1	9,457
991,5	10,286
991,9	11,771
992,3	9,8
992,8	9,943
993,2	12,029
993,6	10,371
994	11,743
994,4	14,2
994,9	12,029
995,3	10,743
995,7	11,514
996,1	8,857
996,5	7,686
996,9	-0,429
997,4	2,571
997,8	-2,829
998,2	-4,029
998,6	-8,771
999	-6,543
999,5	-5,6
999,9	-0,114
1000,3	-4,429
1000,7	-1,171
1001,1	-0,229
1001,5	3,171
1002	5,257
1002,4	7,371
1002,8	6,686
1003,2	7,486
1003,6	8,229
1004	10,6
1004,5	9,943
1004,9	9,971
1005,3	6,914
1005,7	10,571
1006,1	2,743
1006,6	0,143
1007	0,857
1007,4	0,714
1007,8	-1,857
1008,2	-3,429
1008,6	-8,029
1009,1	-4,114
1009,5	-1
1009,9	-3,743
1010,3	-3,686
1010,7	-2,829
1011,1	-0,571
1011,6	-1,543
1012	4,2
1012,4	-3,571
1012,8	-4,829
1013,2	-2,714
1013,6	-0,057
1014,1	-1,286
1014,5	0,029
1014,9	-8,257
1015,3	-2,171
1015,7	1,029
1016,1	0,914
1016,6	-0,543
1017	0,543
1017,4	3,6
1017,8	9,086
1018,2	12,4
1018,6	6,057
1019,1	3,429
1019,5	0,629
1019,9	0,314
1020,3	2,543
1020,7	4,886
1021,1	1,686
1021,6	5,514
1022	11,371
1022,4	13,314
1022,8	15,314
1023,2	11,971
1023,6	11,514
1024,1	20,743
1024,5	21,514
1024,9	17,914
1025,3	14,4
1025,7	12,457
1026,1	15,714
1026,6	12,114
1027	4,371
1027,4	7,429
1027,8	7,457
1028,2	7,971
1028,6	13,6
1029	11,857
1029,5	14,457
1029,9	11,429
1030,3	6
1030,7	8,457
1031,1	14,6
1031,5	9,629
1032	7,314
1032,4	4,6
1032,8	12,171
1033,2	15,829
1033,6	12,257
1034	8,543
1034,4	7,543
1034,9	9,629
1035,3	4,857
1035,7	0,057
1036,1	-1,886
1036,5	-0,2
1036,9	-1,143
1037,4	0,457
1037,8	-3,2
1038,2	2,286
1038,6	2,657
1039	3,371
1039,4	7,8
1039,8	4,2
1040,3	6,886
1040,7	3,371
1041,1	-0,971
1041,5	0,971
1041,9	3,314
1042,3	1,486
1042,7	5
1043,2	1,686
1043,6	4,286
1044	8,371
1044,4	4,486
1044,8	6,629
1045,2	1
1045,6	-0,6
1046,1	2,029
1046,5	4,4
1046,9	1,914
1047,3	0,486
1047,7	-5,6
1048,1	-6
1048,5	-1,829
1049	-0,6
1049,4	1,514
1049,8	5,343
1050,2	12,4
1050,6	15,343
1051	18,543
1051,4	13,229
1051,9	8,086
1052,3	10,143
1052,7	11,171
1053,1	5,371
1053,5	7,571
1053,9	8,2
1054,3	11,743
1054,8	19,029
1055,2	16,257
1055,6	17,943
1056	20,029
1056,4	17,029
1056,8	14,971
1057,2	13,514
1057,6	4,029
1058,1	0,429
1058,5	-8,857
1058,9	-8,057
1059,3	-4,943
1059,7	-0,943
1060,1	-0,857
1060,5	-0,086
1061	1,971
1061,4	4,314
1061,8	3,371
1062,2	-0,229
1062,6	-1,057
1063	3,4
1063,4	7,057
1063,8	6
1064,3	3,629
1064,7	4,029
1065,1	3,143
1065,5	-3,143
1065,9	-9,143
1066,3	-11,4
1066,7	-13,8
1067,1	-10,543
1067,6	-7,343
1068	-10,114
1068,4	-5,371
1068,8	-5,171
1069,2	-3,314
1069,6	1,171
1070	4,457
1070,4	-0,286
1070,9	0,2
1071,3	0,543
1071,7	-0,229
1072,1	2,2
1072,5	-0,2
1072,9	-0,8
1073,3	2,257
1073,7	2,514
1074,2	3,114
1074,6	10,543
1075	5,686
1075,4	10,943
1075,8	9,229
1076,2	6,743
1076,6	7,314
1077	4,571
1077,5	1,114
1077,9	3,686
1078,3	-2,6
1078,7	-0,543
1079,1	-5,743
1079,5	-4,486
1079,9	-5,086
1080,3	-6,571
1080,7	-7,314
1081,2	-2,314
1081,6	-1,6
1082	1,2
1082,4	5,314
1082,8	6,429
1083,2	8,286
1083,6	9,486
1084	8,343
1084,5	7,543
1084,9	10,486
1085,3	4,571
1085,7	8,029
1086,1	8,4
1086,5	10,886
1086,9	9,829
1087,3	8,429
1087,7	9,171
1088,2	10,686
1088,6	7,057
1089	2,6
1089,4	-2,457
1089,8	0,714
1090,2	0,857
1090,6	-1,4
1091	1,543
1091,4	3,143
1091,9	9,457
1092,3	10,971
1092,7	8,114
1093,1	12,257
1093,5	10,771
1093,9	8,743
1094,3	10,257
1094,7	4,714
1095,1	4,114
1095,5	3,286
1096	-2,143
1096,4	2,657
1096,8	0,2
1097,2	-2,286
1097,6	3,886
1098	6,543
1098,4	9,657
1098,8	8,4
1099,2	8,886
1099,6	10,429
1100,1	8,343
1100,5	1,257
1100,9	-2,286
1101,3	-5,4
1101,7	-3,029
1102,1	-5,286
1102,5	-2,114
1102,9	0,257
1103,3	6,629
1103,7	9,543
1104,2	10,143
1104,6	9,2
1105	6,286
1105,4	3,686
1105,8	2,171
1106,2	-0,943
1106,6	-2,143
1107	-2,114
1107,4	-1,867
1107,8	0,56
1108,3	0,6
