Data from Subt2_236.txt Node
Date: Sat Aug 26 18:55:23 MSK 2023
User: vat
Spectrometer: MAYP114033
Trigger mode: 0
Integration Time (sec): 1,000000E0
Scans to average: 5
Electric dark correction enabled: true
Nonlinearity correction enabled: false
Boxcar width: 3
XAxis mode: Wavelengths
Number of Pixels in Spectrum: 2068
>>>>>Begin Spectral Data<<<<<
199,4	0,15
199,9	3,24
200,4	1,9
200,8	3,657
201,3	3,257
201,8	6,314
202,2	6,486
202,7	10,057
203,2	8,114
203,6	8,943
204,1	5,457
204,6	6,343
205	1,829
205,5	3
206	1,743
206,4	4,086
206,9	4,4
207,4	3,886
207,8	3,971
208,3	4,943
208,8	4
209,2	4,2
209,7	3,657
210,2	4,543
210,6	7,029
211,1	7,657
211,5	6,057
212	6,257
212,5	5,029
212,9	1,514
213,4	2,486
213,9	2,143
214,3	0,886
214,8	6,143
215,3	3,914
215,7	9,086
216,2	11,857
216,7	9,457
217,1	6,486
217,6	9,886
218,1	6,771
218,5	6,286
219	-2,8
219,5	-0,4
219,9	-3,229
220,4	7,486
220,9	6
221,3	6,257
221,8	8,229
222,3	13,029
222,7	9,857
223,2	14,171
223,6	4,857
224,1	4,257
224,6	6,171
225	3,257
225,5	2,286
226	5
226,4	4,657
226,9	7,486
227,4	8,2
227,8	3,943
228,3	6,429
228,8	6,114
229,2	6,657
229,7	5,314
230,2	4,6
230,6	5,971
231,1	13,857
231,5	11,914
232	14,314
232,5	10,8
232,9	13,714
233,4	15,286
233,9	10,286
234,3	6,886
234,8	10,086
235,3	5,971
235,7	8,086
236,2	8,6
236,7	8,429
237,1	11,857
237,6	8,114
238,1	5,114
238,5	3,943
239	2,429
239,4	2,686
239,9	0,686
240,4	-1,486
240,8	5,314
241,3	3
241,8	6,543
242,2	5,714
242,7	6,114
243,2	10,4
243,6	13,657
244,1	12,6
244,6	21,343
245	20,057
245,5	22,686
245,9	17,8
246,4	17,343
246,9	18,114
247,3	13,914
247,8	12,857
248,3	16,971
248,7	16,486
249,2	21,971
249,7	15,771
250,1	14,4
250,6	13,886
251	12,286
251,5	7,886
252	7,057
252,4	5,914
252,9	9,286
253,4	8,2
253,8	8,514
254,3	8,714
254,8	10,143
255,2	10,343
255,7	7,2
256,1	11,743
256,6	12,143
257,1	15,114
257,5	14,6
258	11
258,5	9,857
258,9	6,543
259,4	0,2
259,9	0,143
260,3	-1,943
260,8	-7,257
261,2	-4,086
261,7	-1,686
262,2	3,171
262,6	5
263,1	8,171
263,6	9,886
264	17,457
264,5	18,114
264,9	17,514
265,4	16,057
265,9	11,914
266,3	12,629
266,8	10,371
267,3	6,314
267,7	7,629
268,2	6,743
268,7	8,514
269,1	16,171
269,6	12,457
270	18,343
270,5	17,457
271	20,143
271,4	19,771
271,9	15,857
272,4	15,343
272,8	16,943
273,3	9,571
273,7	7,114
274,2	4,571
274,7	3,286
275,1	6,286
275,6	4,857
276,1	2,457
276,5	7,229
277	10,171
277,4	10,6
277,9	13,314
278,4	11,257
278,8	8,714
279,3	9,229
279,8	10
280,2	15,114
280,7	14,943
281,1	14,714
281,6	15,314
282,1	15,143
282,5	16,743
283	15,286
283,4	11,686
283,9	8,143
284,4	7,914
284,8	11,686
285,3	13,457
285,8	11,029
286,2	9,457
286,7	11,457
287,1	11,6
287,6	10,829
288,1	2,229
288,5	2,4
289	1,943
289,5	1,514
289,9	-3,229
290,4	-0,286
290,8	-0,429
291,3	5,657
291,8	8,943
292,2	10,086
292,7	15,657
293,1	17,514
293,6	21,457
294,1	20,8
294,5	23,571
295	19,686
295,5	19,257
295,9	14,886
296,4	12,514
296,8	8,114
297,3	10,143
297,8	5,4
298,2	5,143
298,7	11
299,1	10,429
299,6	8,886
300,1	9,057
300,5	8,514
301	10,714
301,5	13,257
301,9	9,486
302,4	6,971
302,8	12,8
303,3	6,257
303,8	2,971
304,2	1,686
304,7	0,743
305,1	-6,857
305,6	-4,629
306,1	-0,743
306,5	5,457
307	8,371
307,4	10,343
307,9	5,714
308,4	12,943
308,8	8,743
309,3	1,429
309,8	0,886
310,2	2,686
310,7	-2,2
311,1	1,4
311,6	0,029
312,1	2,743
312,5	4,657
313	4,314
313,4	1,886
313,9	4,429
314,4	2,743
314,8	0,286
315,3	2,2
315,7	-0,457
316,2	0,229
316,7	-0,371
317,1	4,029
317,6	4,686
318	7,657
318,5	7,943
319	13,143
319,4	8,657
319,9	14,343
320,3	12,029
320,8	14,771
321,3	18,686
321,7	17,457
322,2	12,8
322,6	18,086
323,1	14,143
323,6	14,057
324	11,171
324,5	9,657
324,9	11,686
325,4	13,371
325,9	13,686
326,3	14,714
326,8	18,543
327,2	17,2
327,7	14,286
328,2	13,886
328,6	13,543
329,1	9,086
329,5	8,286
330	3,629
330,5	9,229
330,9	9,914
331,4	10,8
331,8	10,714
332,3	17,029
332,8	17,543
333,2	16,886
333,7	15
334,1	13,314
334,6	9,914
335,1	6,429
335,5	5,971
336	1,686
336,4	1,771
336,9	5,171
337,4	6,029
337,8	5,2
338,3	11,971
338,7	12,4
339,2	16,943
339,7	20,629
340,1	14,829
340,6	17,229
341	17,971
341,5	14,257
342	9,686
342,4	2,771
342,9	1
343,3	3,457
343,8	3,286
344,2	8,114
344,7	14,457
345,2	16,571
345,6	20
346,1	22,6
346,5	21,086
347	16,314
347,5	13,829
347,9	11
348,4	10,257
348,8	15,229
349,3	16,857
349,8	17,543
350,2	23,257
350,7	20,343
351,1	20,057
351,6	21,714
352	20,971
352,5	20,514
353	30,514
353,4	34,943
353,9	44,657
354,3	51,943
354,8	59,114
355,3	75,343
355,7	90,8
356,2	102,629
356,6	122,771
357,1	143,829
357,5	172,171
358	206,657
358,5	235,457
358,9	266,029
359,4	301,771
359,8	342,057
360,3	397,886
360,8	449,457
361,2	505,743
361,7	571,286
362,1	650,771
362,6	735,914
363	825,657
363,5	913,914
364	1016,343
364,4	1116,6
364,9	1221,914
365,3	1323,8
365,8	1416,971
366,3	1500,457
366,7	1578,143
367,2	1650,714
367,6	1705,2
368,1	1750
368,5	1770,629
369	1783
369,5	1787,371
369,9	1775,514
370,4	1744
370,8	1708,571
371,3	1654,086
371,7	1600,429
372,2	1533,943
372,7	1461,371
373,1	1378,829
373,6	1291,486
374	1214,229
374,5	1132,371
374,9	1052,2
375,4	976,571
375,9	905,114
376,3	838,771
376,8	775,171
377,2	707,714
377,7	649,371
378,2	591,629
378,6	545
379,1	497,571
379,5	461,286
380	427,629
380,4	391,114
380,9	360,2
381,4	335,657
381,8	309,4
382,3	291,286
382,7	266,457
383,2	247,2
383,6	234,314
384,1	220,314
384,6	208,143
385	193,743
385,5	176,029
385,9	162,771
386,4	148,829
386,8	138,657
387,3	128,514
387,7	116,143
388,2	109,114
388,7	100,171
389,1	97
389,6	96,114
390	91,486
390,5	86,286
390,9	86,514
391,4	80,086
391,9	78,514
392,3	73,686
392,8	64,629
393,2	55,657
393,7	51,914
394,1	43,771
394,6	41,429
395,1	40,857
395,5	32,143
396	33,4
396,4	36,457
396,9	35,543
397,3	40,914
397,8	42,057
398,2	40,857
398,7	47,343
399,2	43,6
399,6	45,2
400,1	42,657
400,5	35,886
401	35,257
401,4	30,114
401,9	31,486
402,4	32,143
402,8	25,657
403,3	30,314
403,7	28,486
404,2	31,771
404,6	37,486
405,1	31,257
405,5	30,4
406	34,286
406,5	29,829
406,9	37,514
407,4	34,4
407,8	30,829
408,3	33,714
408,7	34,543
409,2	36,914
409,6	40,4
410,1	39,114
410,6	43,429
411	48,943
411,5	52,657
411,9	57,314
412,4	60,743
412,8	63,143
413,3	67,086
413,7	64,457
414,2	62,143
414,7	67
415,1	73,657
415,6	70,714
416	73,571
416,5	68,314
416,9	73,143
417,4	78,057
417,8	84,029
418,3	81,229
418,8	88,857
419,2	91,971
419,7	97,086
420,1	99,429
420,6	98,543
421	95,143
421,5	102,114
421,9	104,086
422,4	104,6
422,8	107,514
423,3	105,286
423,8	108,257
424,2	103,571
424,7	99,971
425,1	98,114
425,6	99,514
426	97,457
426,5	98,8
426,9	100,314
427,4	104,229
427,9	101,657
428,3	103,343
428,8	99,2
429,2	103,714
429,7	105,086
430,1	105,686
430,6	106,571
431	110,457
431,5	110,229
431,9	111,143
432,4	110,771
432,8	116,914
433,3	116,571
433,8	118,343
434,2	125,657
434,7	132,857
435,1	136,6
435,6	144,114
436	143,971
436,5	154,314
436,9	158,314
437,4	158,857
437,8	158,371
438,3	168,029
438,8	165,657
439,2	173,029
439,7	175,257
440,1	186,543
440,6	194,457
441	200,714
441,5	207,514
441,9	222,686
442,4	229,6
442,8	237,057
443,3	247,143
443,7	257,286
444,2	273,571
444,7	284,429
445,1	292,943
445,6	305,343
446	322,229
446,5	330,143
446,9	335,886
447,4	344,457
447,8	361,086
448,3	377,2
448,7	390,029
449,2	407,029
449,6	426,629
450,1	449,743
450,6	473,743
451	486,743
451,5	503,2
451,9	523,829
452,4	542,629
452,8	555,371
453,3	578,571
453,7	591,8
454,2	618,171
454,6	641,057
455,1	661
455,5	678,971
456	709,743
456,4	723,829
456,9	750,343
457,3	772,143
457,8	786,143
458,3	814,6
458,7	836,914
459,2	854,171
459,6	881,543
460,1	907,8
460,5	929,171
461	964,714
461,4	988,514
461,9	1018,429
462,3	1050,914
462,8	1080,8
463,2	1108,629
463,7	1141,743
464,1	1176,714
464,6	1210,257
465	1248,171
465,5	1276,857
466	1311,914
466,4	1339,371
466,9	1375,771
467,3	1401,943
467,8	1435,714
468,2	1462,857
468,7	1501,629
469,1	1539,8
469,6	1579,343
470	1613,514
470,5	1651,886
470,9	1683,2
471,4	1715,057
471,8	1752,286
472,3	1780,086
472,7	1816,771
473,2	1846
473,6	1875,8
474,1	1913,743
474,5	1948,571
475	1976,4
475,4	2008,6
475,9	2039,771
476,4	2077,257
476,8	2113,143
477,3	2146,771
477,7	2179,429
478,2	2214,743
478,6	2246,886
479,1	2274,8
479,5	2308,086
480	2336,743
480,4	2369,029
480,9	2397,286
481,3	2423,857
481,8	2454,571
482,2	2480,057
482,7	2503,629
483,1	2538,714
483,6	2560,457
484	2583,971
484,5	2610,029
484,9	2637,057
485,4	2671,4
485,8	2691,343
486,3	2708,257
486,7	2732,943
487,2	2766,629
487,6	2789,086
488,1	2805,657
488,5	2816,2
489	2840,2
489,4	2866,8
489,9	2881,143
490,4	2898,571
490,8	2916,6
491,3	2940,943
491,7	2965,971
492,2	2989,857
492,6	3002,457
493,1	3016,8
493,5	3023,6
494	3038,743
494,4	3051,371
494,9	3062,229
495,3	3073,457
495,8	3088,457
496,2	3108,743
496,7	3119,343
497,1	3136,771
497,6	3146,629
498	3161,629
498,5	3174,743
498,9	3182,971
499,4	3191,6
499,8	3213,8
500,3	3221
500,7	3231,2
501,2	3240,371
501,6	3242,629
502,1	3248,771
502,5	3260,571
503	3263,286
503,4	3271,371
503,9	3284,057
504,3	3291,4
504,8	3304,057
505,2	3311,4
505,7	3316,714
506,1	3328,171
506,6	3331,8
507	3337,2
507,5	3343,914
507,9	3351,143
508,4	3362,743
508,8	3366,4
509,3	3370,857
509,7	3380,029
510,2	3387
510,6	3392,514
511,1	3399,229
511,5	3402
512	3405,486
512,4	3409,8
512,9	3413,286
513,3	3419,686
513,8	3424,143
514,2	3427,143
514,7	3430,971
515,1	3435,914
515,6	3440,514
516	3445,057
516,5	3448,4
516,9	3458,114
517,4	3459,571
517,8	3468,2
518,3	3474
518,7	3478,657
519,2	3483,914
519,6	3482,857
520,1	3488,886
520,5	3490,286
521	3494,429
521,4	3497,114
521,9	3505
522,3	3509,6
522,8	3520,114
523,2	3521,914
523,7	3532,029
524,1	3532,229
524,6	3540,257
525	3551,457
525,5	3560,514
525,9	3564,886
526,4	3559,143
526,8	3565,343
527,3	3575,314
527,7	3588,486
528,2	3588,829
528,6	3591,457
529,1	3601,343
529,5	3621,857
530	3629,343
530,4	3635,714
530,9	3640,229
531,3	3651,371
531,8	3661,8
532,2	3665,543
532,6	3668,914
533,1	3676,486
533,5	3685,314
534	3686,229
534,4	3694,914
534,9	3700,514
535,3	3707,543
535,8	3714,657
536,2	3720,8
536,7	3734,914
537,1	3748,629
537,6	3749,343
538	3763,429
538,5	3771,743
538,9	3771,714
539,4	3784,4
539,8	3785,229
540,3	3795,857
540,7	3809,829
541,2	3807,771
541,6	3819,686
542,1	3837,8
542,5	3847,457
543	3859,514
543,4	3862,457
543,9	3865,114
544,3	3881,686
544,8	3888,343
545,2	3895,714
545,7	3898,829
546,1	3905,571
546,5	3920,629
547	3928,429
547,4	3933,314
547,9	3940,371
548,3	3950,6
548,8	3961,971
549,2	3964,086
549,7	3971,257
550,1	3986,543
550,6	3996,057
551	4005,486
551,5	4015,314
551,9	4025,6
552,4	4037,086
552,8	4038,171
553,3	4036,257
553,7	4044,571
554,2	4056,286
554,6	4061,286
555,1	4066,714
555,5	4074,857
555,9	4086,543
556,4	4096,143
556,8	4105,029
557,3	4106,686
557,7	4113,286
558,2	4115,8
558,6	4123,543
559,1	4128,657
559,5	4144,4
560	4150,886
560,4	4155,2
560,9	4159,943
561,3	4171,657
561,8	4176,914
562,2	4183,943
562,7	4180,371
563,1	4181,429
563,6	4191,914
564	4197,657
564,4	4198,057
564,9	4192,829
565,3	4192,257
565,8	4193
566,2	4200
566,7	4210,714
567,1	4212,686
567,6	4214,143
568	4222,4
568,5	4230,229
568,9	4235,714
569,4	4238,457
569,8	4235
570,3	4237,657
570,7	4240
571,1	4248,657
571,6	4247,886
572	4250,8
572,5	4248,543
572,9	4239,571
573,4	4243,943
573,8	4249,314
574,3	4241,429
574,7	4240,114
575,2	4234,714
575,6	4237,6
576,1	4240,686
576,5	4245,686
576,9	4234,6
577,4	4234,286
577,8	4226,857
578,3	4224,971
578,7	4216,343
579,2	4216,971
579,6	4200,971
580,1	4201,314
580,5	4199,029
581	4197,6
581,4	4197,857
581,9	4192,857
582,3	4183,829
582,7	4183,457
583,2	4179,4
583,6	4175,943
584,1	4174,686
584,5	4166,486
585	4160,543
585,4	4147,743
585,9	4140,571
586,3	4135,229
586,8	4133,086
587,2	4129,714
587,6	4128,229
588,1	4128,314
588,5	4130,714
589	4125,029
589,4	4112,886
589,9	4096,486
590,3	4082,686
590,8	4076,4
591,2	4063,057
591,7	4056,971
592,1	4047,457
592,5	4050,829
593	4045,486
593,4	4039,143
593,9	4028,714
594,3	4026,457
594,8	4013,257
595,2	4006,857
595,7	4001,086
596,1	3999,057
596,6	3994,486
597	3990,171
597,4	3982
597,9	3978,2
598,3	3972,114
598,8	3956,686
599,2	3944,4
599,7	3942,371
600,1	3927,171
600,6	3921,429
601	3912,286
601,4	3910,886
601,9	3906,371
602,3	3902,886
602,8	3892,743
603,2	3888,514
603,7	3878,971
604,1	3868,486
604,6	3855,571
605	3839,629
605,4	3830,943
605,9	3815,771
606,3	3803,486
606,8	3787,686
607,2	3782,686
607,7	3765,057
608,1	3756
608,6	3742,4
609	3737,457
609,4	3728,286
609,9	3721,286
610,3	3710,657
610,8	3697,371
611,2	3689,714
611,7	3675,286
612,1	3655,829
612,6	3643,771
613	3629,6
613,4	3611,2
613,9	3605,057
614,3	3591,429
614,8	3583,971
615,2	3564,686
615,7	3549,829
616,1	3536,457
616,6	3522,686
617	3502,057
617,4	3485,8
617,9	3471
618,3	3464,829
618,8	3455,714
619,2	3442,314
619,7	3434,943
620,1	3421,2
620,5	3411,543
621	3394,114
621,4	3384,486
621,9	3367,743
622,3	3355,657
622,8	3338,4
623,2	3330,257
623,6	3313,543
624,1	3299,029
624,5	3285,457
625	3276,114
625,4	3256,857
625,9	3242,657
626,3	3227,514
626,8	3206,171
627,2	3199,286
627,6	3172,886
628,1	3147,514
628,5	3135,343
629	3112,257
629,4	3094,371
629,9	3082,2
630,3	3057,371
630,7	3046,686
631,2	3035,714
631,6	3016,857
632,1	3007,343
632,5	2987,086
633	2972,4
633,4	2955,114
633,8	2943,6
634,3	2932,086
634,7	2919,514
635,2	2903,514
635,6	2891,114
636,1	2880,943
636,5	2863,914
636,9	2845,2
637,4	2824,171
637,8	2812,086
638,3	2792,343
638,7	2780,457
639,2	2757,8
639,6	2744,057
640	2732,029
640,5	2720,914
640,9	2704,057
641,4	2698,029
641,8	2685,686
642,2	2670,114
642,7	2667,629
643,1	2661,2
643,6	2646,314
644	2634,6
644,5	2621,143
644,9	2603,457
645,3	2597,371
645,8	2571,629
646,2	2549,629
646,7	2535,314
647,1	2516,857
647,6	2500,314
648	2494,8
648,4	2479,829
648,9	2474,314
649,3	2460,029
649,8	2451,657
650,2	2440,6
650,6	2431,971
651,1	2413,629
651,5	2404,743
652	2392,286
652,4	2382,371
652,9	2378,114
653,3	2367,714
653,7	2350,2
654,2	2341,057
654,6	2325,229
655,1	2313,857
655,5	2308,171
655,9	2284,429
656,4	2267,371
656,8	2257,8
657,3	2238,457
657,7	2226,314
658,2	2212,029
658,6	2188,857
659	2170,971
659,5	2155,629
659,9	2142,2
660,4	2133,771
660,8	2117,429
661,2	2103,257
661,7	2095,486
662,1	2088,143
662,6	2075,971
663	2059,771
663,4	2044,857
663,9	2033,543
664,3	2020,8
664,8	2008,257
665,2	1993,486
665,6	1983,314
666,1	1972,714
666,5	1964,543
667	1952,486
667,4	1939,314
667,9	1924,914
668,3	1912,543
668,7	1902,286
669,2	1891,171
669,6	1879,057
670,1	1868,114
670,5	1849,2
670,9	1836,457
671,4	1824,971
671,8	1815,314
672,3	1809,371
672,7	1794,657
673,1	1778,543
673,6	1773,486
674	1765,286
674,5	1754,257
674,9	1730,657
675,3	1711,286
675,8	1700,943
676,2	1690,743
676,7	1677,857
677,1	1659,771
677,5	1644,829
678	1644,6
678,4	1640,543
678,9	1630,286
679,3	1620,314
679,7	1614,171
680,2	1603,086
680,6	1587,8
681,1	1575,2
681,5	1557,857
681,9	1548,057
682,4	1541,029
682,8	1529,943
683,3	1525,229
683,7	1525,514
684,1	1512,514
684,6	1505,286
685	1495,257
685,5	1479,486
685,9	1466,029
686,3	1454,429
686,8	1441,714
687,2	1437,229
687,7	1426,743
688,1	1410,829
688,5	1404,6
689	1393,943
689,4	1385,286
689,9	1375,457
690,3	1363,143
690,7	1353,486
691,2	1349,714
691,6	1342,543
692	1334,143
692,5	1321,343
692,9	1316,486
693,4	1307,143
693,8	1301,4
694,2	1287,229
694,7	1272,6
695,1	1265,914
695,6	1262,914
696	1251,371
696,4	1241,371
696,9	1227,857
697,3	1222,286
697,8	1218,4
698,2	1208,143
698,6	1198,743
699,1	1191,486
699,5	1191,286
699,9	1184,886
700,4	1172,686
700,8	1163,914
701,3	1159,829
701,7	1152,743
702,1	1141,829
702,6	1128,629
703	1121,829
703,5	1117,514
703,9	1107,771
704,3	1101,257
704,8	1088,771
705,2	1083,743
705,6	1074,457
706,1	1066,086
706,5	1059,057
707	1053,2
707,4	1049,171
707,8	1041,657
708,3	1036,171
708,7	1034,771
709,2	1026,657
709,6	1021,2
710	1017,486
710,5	1001,029
710,9	999,629
711,3	988,257
711,8	979,571
712,2	972,229
712,7	966,143
713,1	962,429
713,5	958,886
714	950,514
714,4	944,343
714,8	933,686
715,3	930,257
715,7	923,2
716,2	912,4
716,6	911,114
717	900,886
717,5	895,457
717,9	895,057
718,3	882,543
718,8	873,457
719,2	864,514
719,7	851,429
720,1	850,286
720,5	845,2
721	831,714
721,4	827,886
721,8	826,571
722,3	818,886
722,7	817,857
723,2	808,714
723,6	794,4
724	791,057
724,5	786,686
724,9	777,229
725,3	770,543
725,8	758,8
726,2	752,971
726,7	751,629
727,1	745,743
727,5	741,371
728	738,743
728,4	735,514
728,8	730,886
729,3	721,6
729,7	716,286
730,1	707,943
730,6	700,343
731	689,343
731,5	684,543
731,9	681,857
732,3	685,086
732,8	682,771
733,2	680,2
733,6	676,6
734,1	677,029
734,5	674,371
734,9	672,286
735,4	666,857
735,8	655,914
736,3	663,171
736,7	660,514
737,1	657,657
737,6	654,171
738	645,4
738,4	640,914
738,9	642,486
739,3	628,657
739,7	624,743
740,2	617,6
740,6	615,371
741,1	616,429
741,5	606,229
741,9	605,286
742,4	603,971
742,8	597,314
743,2	592,029
743,7	582,171
744,1	575,543
744,5	576,2
745	567,314
745,4	557,4
745,8	556,943
746,3	557,771
746,7	553,543
747,2	549,286
747,6	548,857
748	550,771
748,5	555,029
748,9	547,571
749,3	537,486
749,8	537,914
750,2	535,029
750,6	525,657
751,1	522,943
751,5	517,057
751,9	518,286
752,4	517,543
752,8	512,486
753,3	507,943
753,7	508,6
754,1	499,229
754,6	493,114
755	482,114
755,4	478,8
755,9	473,857
756,3	470,286
756,7	469,8
757,2	470,486
757,6	468,771
758	467,429
758,5	463,057
758,9	460,686
759,3	458,171
759,8	452,086
760,2	446
760,6	439,029
761,1	435,657
761,5	438,257
761,9	434,514
762,4	428,943
762,8	423,257
763,3	421,143
763,7	425,257
764,1	423,914
764,6	420,714
765	424,057
765,4	425,086
765,9	422,314
766,3	423,743
766,7	412,143
767,2	410,286
767,6	410,029
768	401,886
768,5	395,143
768,9	398,371
769,3	393,257
769,8	396,857
770,2	395,829
770,6	388,629
771,1	388,029
771,5	389,057
771,9	384,371
772,4	380,514
772,8	377,8
773,2	374,286
773,7	372,2
774,1	372,886
774,5	365,686
775	358,371
775,4	358,2
775,8	350,571
776,3	349,314
776,7	347,943
777,1	344,371
777,6	345,543
778	351,257
778,4	347,543
778,9	351,257
779,3	346,429
779,7	343,714
780,2	338,486
780,6	337,8
781	330,914
781,5	326,429
781,9	322,743
782,3	320,171
782,8	317,829
783,2	317,829
783,6	318,171
784,1	313,886
784,5	312,657
784,9	308,114
785,4	307,057
785,8	304,086
786,2	302,543
786,7	299,714
787,1	296,771
787,5	296,2
788	294,686
788,4	293,743
788,8	290,714
789,3	281,857
789,7	279,514
790,1	278,257
790,6	276,629
791	272,286
791,4	273,514
791,9	266,714
792,3	263,486
792,7	266,829
793,2	262,886
793,6	257,543
794	262,171
794,5	251,971
794,9	254,686
795,3	255,886
795,8	245,086
796,2	247,257
796,6	247,629
797,1	241,543
797,5	238,857
797,9	232,543
798,4	232,343
798,8	230,714
799,2	226,286
799,7	226,829
800,1	226,971
800,5	225,8
801	232,571
801,4	230,086
801,8	228,457
802,2	224
802,7	217,914
803,1	215,743
803,5	217,943
804	208,371
804,4	206,771
804,8	206,514
805,3	213,8
805,7	214,114
806,1	214,857
806,6	215,057
807	218,629
807,4	219,114
807,9	213,143
808,3	204,486
808,7	203,143
809,2	203,629
809,6	199,343
810	193,857
810,4	193,057
810,9	191,257
811,3	193,6
811,7	192,086
812,2	192,2
812,6	191,457
813	196,314
813,5	193
813,9	194,8
814,3	191,029
814,8	190,771
815,2	184,657
815,6	181,486
816,1	180,257
816,5	179,829
816,9	177,486
817,3	177,2
817,8	178,886
818,2	175,543
818,6	174,771
819,1	170,457
819,5	168,514
819,9	170,429
820,4	168,657
820,8	163,086
821,2	159,086
821,7	159,857
822,1	160,2
822,5	162,743
822,9	159,257
823,4	157,6
823,8	161,286
824,2	165,257
824,7	160,6
825,1	156,943
825,5	148,629
826	141,429
826,4	139,114
826,8	133,486
827,3	131,086
827,7	134,457
828,1	134,429
828,5	135,086
829	139
829,4	141,257
829,8	134,886
830,3	133,4
830,7	129,4
831,1	131,086
831,6	130,314
832	133,571
832,4	127,857
832,8	131,714
833,3	127,943
833,7	125,829
834,1	120,6
834,6	120,114
835	119,857
835,4	124,114
835,8	117,457
836,3	117,743
836,7	117,114
837,1	114,457
837,6	113,314
838	107,914
838,4	102,657
838,9	109,2
839,3	107,229
839,7	112,257
840,1	110,371
840,6	110,257
841	113,114
841,4	116,457
841,9	113,629
842,3	113,6
842,7	109,657
843,1	110,486
843,6	112,457
844	108,229
844,4	109,429
844,9	107,686
845,3	107,629
845,7	106,571
846,2	104,743
846,6	99,514
847	102,343
847,4	99,714
847,9	101,171
848,3	99,571
848,7	95,657
849,2	96,914
849,6	94,371
850	93,857
850,4	92,543
850,9	93,571
851,3	95
851,7	98,229
852,2	94,571
852,6	102,486
853	99,257
853,4	97,486
853,9	91,629
854,3	91,029
854,7	89,714
855,2	89,971
855,6	85,343
856	79,257
856,4	77,743
856,9	77,657
857,3	76,857
857,7	77,486
858,2	86,829
858,6	84,171
859	87,629
859,4	86,429
859,9	85,829
860,3	81,686
860,7	79,429
861,1	71,029
861,6	70,486
862	70,8
862,4	66,914
862,9	68,086
863,3	73,543
863,7	74,2
864,1	76,4
864,6	74,743
865	75,429
865,4	80,257
865,9	82,171
866,3	75,886
866,7	70,914
867,1	65,171
867,6	68,629
868	64,857
868,4	65,114
868,8	60,2
869,3	63,486
869,7	68,371
870,1	66,514
870,6	59,6
871	62,229
871,4	60,771
871,8	61,314
872,3	60,429
872,7	57,486
873,1	61,229
873,5	65,429
874	65,4
874,4	66,857
874,8	66,486
875,3	65,8
875,7	66,114
876,1	66,2
876,5	66,086
877	61,829
877,4	57,143
877,8	59,714
878,2	60,114
878,7	62,314
879,1	62,571
879,5	63,686
879,9	64,429
880,4	65,943
880,8	64,229
881,2	63,714
881,7	59,114
882,1	55,057
882,5	47,8
882,9	49,229
883,4	49,257
883,8	48,543
884,2	47,714
884,6	46,2
885,1	49,029
885,5	51,971
885,9	51,686
886,3	51,971
886,8	47,971
887,2	44,314
887,6	47,543
888	44
888,5	47,571
888,9	46,257
889,3	41,371
889,8	45,2
890,2	47,543
890,6	41,857
891	46,6
891,5	44,543
891,9	43,114
892,3	45,057
892,7	43,771
893,2	43,829
893,6	48,429
894	48,914
894,4	46,229
894,9	46,829
895,3	48,029
895,7	46,486
896,1	46,857
896,6	42,086
897	37,229
897,4	37,943
897,8	39,743
898,3	39,114
898,7	39
899,1	38,657
899,5	41,429
900	41,743
900,4	40,886
900,8	38,2
901,2	36,457
901,7	36,2
902,1	34,886
902,5	34,057
902,9	33,286
903,4	32,086
903,8	30,657
904,2	28,886
904,6	27,543
905,1	29,457
905,5	33,029
905,9	34,686
906,3	39,486
906,8	40,314
907,2	43,514
907,6	47,629
908	46,914
908,5	43,971
908,9	40,429
909,3	35,086
909,7	35,143
910,2	33,429
910,6	33,457
911	28,086
911,4	29,371
911,9	28,429
912,3	29,314
912,7	30,371
913,1	27,829
913,6	22,086
914	25,971
914,4	20,857
914,8	24,143
915,3	25,114
915,7	23,743
916,1	23,971
916,5	28,229
916,9	27,486
917,4	27,429
917,8	25,029
918,2	21,286
918,6	18,629
919,1	20,257
919,5	21,8
919,9	21,029
920,3	22,6
920,8	21,086
921,2	21,857
921,6	23
922	21,857
922,5	17,257
922,9	19,371
923,3	16
923,7	18,629
924,2	18,657
924,6	19,257
925	23,029
925,4	21,914
925,8	20,543
926,3	24,8
926,7	22,914
927,1	25,229
927,5	26,229
928	19,743
928,4	15,829
928,8	17,171
929,2	16,114
929,7	14
930,1	13,914
930,5	13,686
930,9	21,457
931,3	25,314
931,8	23,771
932,2	24,086
932,6	25,943
933	17,486
933,5	19,486
933,9	14,629
934,3	15,229
934,7	9,886
935,2	11,714
935,6	14,343
936	19,886
936,4	17,6
936,8	20,029
937,3	19,486
937,7	25,086
938,1	26,657
938,5	22,171
939	21,743
939,4	20,343
939,8	17,943
940,2	15,657
940,6	19,486
941,1	16,486
941,5	19,857
941,9	19,086
942,3	17,943
942,8	15,457
943,2	19,629
943,6	11,114
944	14,543
944,4	14,171
944,9	14,886
945,3	16,029
945,7	15,486
946,1	10,886
946,6	10,4
947	3,629
947,4	8,457
947,8	11,571
948,2	9,029
948,7	10,714
949,1	12,229
949,5	18,371
949,9	22,829
950,3	17,143
950,8	15,914
951,2	16,943
951,6	12,657
952	16,114
952,5	10,457
952,9	7,171
953,3	7,2
953,7	6,343
954,1	9,257
954,6	17,2
955	16,657
955,4	18,971
955,8	24,2
956,2	24,943
956,7	26,314
957,1	21
957,5	17,714
957,9	16,229
958,3	15,143
958,8	15,343
959,2	16,943
959,6	18,2
960	18,114
960,5	23,4
960,9	25,486
961,3	23,371
961,7	19,286
962,1	17,571
962,6	16,486
963	17,429
963,4	8,714
963,8	8,086
964,2	11,543
964,7	11,629
965,1	13,971
965,5	13,114
965,9	16,4
966,3	20,971
966,8	18,914
967,2	17,8
967,6	18,2
968	11,029
968,4	11,229
968,9	10,429
969,3	13,143
969,7	11,314
970,1	11,514
970,5	8,629
971	14,257
971,4	15,686
971,8	13,629
972,2	9,629
972,6	8,543
973,1	8,4
973,5	9
973,9	7,4
974,3	4,114
974,7	8,257
975,2	7
975,6	9,2
976	10,914
976,4	7,943
976,8	10,514
977,3	6,857
977,7	7,429
978,1	7,8
978,5	8,543
978,9	6,371
979,4	5,029
979,8	2,943
980,2	8,4
980,6	0,943
981	6,371
981,5	7,771
981,9	8,486
982,3	18,2
982,7	17,886
983,1	12,971
983,6	16,257
984	12,629
984,4	9,829
984,8	11,543
985,2	5,457
985,6	5
986,1	9,457
986,5	13,857
986,9	10,457
987,3	11,629
987,7	8,971
988,2	11,114
988,6	11,943
989	8,771
989,4	2,8
989,8	4,143
990,3	5,886
990,7	8,857
991,1	9,229
991,5	12,514
991,9	17,514
992,3	19,371
992,8	18,029
993,2	14,171
993,6	13,2
994	15,257
994,4	12,6
994,9	6,829
995,3	8,4
995,7	7,6
996,1	6,686
996,5	2,743
996,9	-3,629
997,4	-3,171
997,8	-2,771
998,2	-4,143
998,6	-6,571
999	-7,429
999,5	-6,686
999,9	-2,6
1000,3	-6
1000,7	-4,257
1001,1	-3,6
1001,5	2,486
1002	9
1002,4	13,886
1002,8	11,057
1003,2	17,286
1003,6	21,057
1004	21,571
1004,5	16,886
1004,9	19,857
1005,3	14,543
1005,7	17,6
1006,1	12,657
1006,6	11
1007	12,343
1007,4	15,2
1007,8	10
1008,2	9,114
1008,6	9,914
1009,1	13,2
1009,5	11,171
1009,9	11,114
1010,3	14,343
1010,7	13,6
1011,1	17,314
1011,6	20
1012	19,743
1012,4	20,2
1012,8	17,2
1013,2	20,057
1013,6	24,714
1014,1	23,171
1014,5	19,514
1014,9	17,8
1015,3	15,629
1015,7	19,943
1016,1	12,686
1016,6	11,343
1017	11,4
1017,4	10,914
1017,8	11,743
1018,2	16
1018,6	12,857
1019,1	14,971
1019,5	11,429
1019,9	8,629
1020,3	6,8
1020,7	6,8
1021,1	2,686
1021,6	-0,714
1022	4,314
1022,4	5,114
1022,8	8,6
1023,2	12,657
1023,6	11,429
1024,1	20,514
1024,5	23,371
1024,9	15,914
1025,3	13,114
1025,7	14,8
1026,1	15,286
1026,6	14,971
1027	10,371
1027,4	13,8
1027,8	17,371
1028,2	16,629
1028,6	17,829
1029	14,543
1029,5	18,171
1029,9	13
1030,3	7,314
1030,7	6,629
1031,1	14,429
1031,5	9,6
1032	11,829
1032,4	11,171
1032,8	14,257
1033,2	19,143
1033,6	17,914
1034	13,143
1034,4	12,914
1034,9	12,771
1035,3	6
1035,7	5,086
1036,1	0,629
1036,5	2,457
1036,9	4,571
1037,4	10,086
1037,8	8,543
1038,2	11,857
1038,6	16,086
1039	21,229
1039,4	28,314
1039,8	19,943
1040,3	17,257
1040,7	17,171
1041,1	19,457
1041,5	21,029
1041,9	18,486
1042,3	12,057
1042,7	18,886
1043,2	21,171
1043,6	18,971
1044	16,257
1044,4	13,571
1044,8	14,8
1045,2	11,286
1045,6	14,371
1046,1	8,714
1046,5	8,543
1046,9	4,629
1047,3	-1,771
1047,7	-4,429
1048,1	-1,629
1048,5	-2,371
1049	3,143
1049,4	9,371
1049,8	14,514
1050,2	20,657
1050,6	24,571
1051	25,571
1051,4	21,829
1051,9	16,8
1052,3	17,829
1052,7	17,2
1053,1	13,457
1053,5	13,229
1053,9	15,971
1054,3	16,171
1054,8	23,371
1055,2	18,8
1055,6	24,143
1056	29,914
1056,4	26,229
1056,8	24,686
1057,2	25,114
1057,6	18,543
1058,1	19,229
1058,5	13,486
1058,9	9,029
1059,3	9,086
1059,7	4,371
1060,1	5,143
1060,5	6,314
1061	6,571
1061,4	4,229
1061,8	8,057
1062,2	9,886
1062,6	14,429
1063	15,829
1063,4	18,286
1063,8	16,571
1064,3	16
1064,7	10,543
1065,1	10,029
1065,5	4,514
1065,9	0,114
1066,3	-1,886
1066,7	-4,143
1067,1	-5,343
1067,6	4,086
1068	1,771
1068,4	5,629
1068,8	9,314
1069,2	9,286
1069,6	11
1070	19,171
1070,4	14
1070,9	15,143
1071,3	16,743
1071,7	15,543
1072,1	14,514
1072,5	11,514
1072,9	8
1073,3	6,171
1073,7	3,543
1074,2	3,257
1074,6	4,857
1075	4,514
1075,4	7,229
1075,8	10,543
1076,2	10,657
1076,6	11,229
1077	4,8
1077,5	2,971
1077,9	2,629
1078,3	3,6
1078,7	-0,4
1079,1	-0,743
1079,5	-1,429
1079,9	3,686
1080,3	3,086
1080,7	4,486
1081,2	8,429
1081,6	6,686
1082	3,771
1082,4	10,086
1082,8	14,314
1083,2	12,714
1083,6	14,743
1084	10,457
1084,5	14,943
1084,9	16,6
1085,3	8,314
1085,7	6
1086,1	6,829
1086,5	9,629
1086,9	10,2
1087,3	5,486
1087,7	4,229
1088,2	11,114
1088,6	8,657
1089	13,6
1089,4	9,629
1089,8	9,857
1090,2	10,4
1090,6	14,171
1091	16,086
1091,4	16,029
1091,9	12,914
1092,3	13,8
1092,7	12,743
1093,1	20,171
1093,5	20
1093,9	18,829
1094,3	22,143
1094,7	24,2
1095,1	20,629
1095,5	23,314
1096	16,514
1096,4	13,914
1096,8	12,543
1097,2	10,114
1097,6	10,771
1098	15,229
1098,4	15,943
1098,8	19,171
1099,2	24,686
1099,6	24,714
1100,1	22,057
1100,5	17,4
1100,9	16,314
1101,3	13,514
1101,7	12,857
1102,1	9,914
1102,5	9,143
1102,9	12,686
1103,3	17,886
1103,7	17,714
1104,2	17,2
1104,6	15,543
1105	12,229
1105,4	14,371
1105,8	10,286
1106,2	5,743
1106,6	3,543
1107	3,029
1107,4	2,5
1107,8	4,8
1108,3	-0,35
