Data from Subt2_228.txt Node
Date: Sat Aug 26 18:51:48 MSK 2023
User: vat
Spectrometer: MAYP114033
Trigger mode: 0
Integration Time (sec): 1,000000E0
Scans to average: 5
Electric dark correction enabled: true
Nonlinearity correction enabled: false
Boxcar width: 3
XAxis mode: Wavelengths
Number of Pixels in Spectrum: 2068
>>>>>Begin Spectral Data<<<<<
199,4	0
199,9	4,96
200,4	3,1
200,8	5,8
201,3	2,857
201,8	6,4
202,2	5,6
202,7	10,2
203,2	6,8
203,6	5,886
204,1	3,314
204,6	4,629
205	3,114
205,5	4,143
206	-0,057
206,4	0,743
206,9	1,314
207,4	1,543
207,8	2,914
208,3	4,714
208,8	6,286
209,2	7,371
209,7	9,257
210,2	12,657
210,6	12,4
211,1	12,457
211,5	7,171
212	5,257
212,5	3,829
212,9	-0,029
213,4	-0,943
213,9	1,629
214,3	4,057
214,8	4,171
215,3	2,486
215,7	6,743
216,2	10,543
216,7	10,914
217,1	10,743
217,6	11,714
218,1	13,6
218,5	15,286
219	7,514
219,5	8,829
219,9	6,029
220,4	8,886
220,9	6,286
221,3	7,229
221,8	9
222,3	12,743
222,7	10,486
223,2	16,543
223,6	11,457
224,1	8,943
224,6	12,886
225	7,714
225,5	8,686
226	9,943
226,4	6,114
226,9	6,914
227,4	10,686
227,8	3,743
228,3	4,6
228,8	4,314
229,2	5,914
229,7	3,971
230,2	3,4
230,6	3,886
231,1	12,4
231,5	18,057
232	17,029
232,5	10,286
232,9	12,286
233,4	14,371
233,9	11,114
234,3	7,171
234,8	2,571
235,3	-0,8
235,7	4,257
236,2	7,4
236,7	6,657
237,1	10,029
237,6	4,829
238,1	7
238,5	6,143
239	5,6
239,4	4,686
239,9	1,971
240,4	-1,4
240,8	3,714
241,3	-1,114
241,8	2,314
242,2	-0,371
242,7	-4,857
243,2	-2,171
243,6	-2,629
244,1	-2,286
244,6	4,6
245	6,286
245,5	7,457
245,9	4,714
246,4	2,914
246,9	4,943
247,3	4,229
247,8	4,029
248,3	9,914
248,7	9,514
249,2	14,914
249,7	14,714
250,1	17,886
250,6	14,314
251	13
251,5	9,457
252	11
252,4	13,343
252,9	13,029
253,4	9,086
253,8	8,686
254,3	9,6
254,8	8,571
255,2	7,314
255,7	1,743
256,1	2,714
256,6	5,771
257,1	7,314
257,5	2
258	0,371
258,5	-2,857
258,9	-2,171
259,4	-3,057
259,9	-2,171
260,3	-4,686
260,8	-4,4
261,2	-6,257
261,7	-1,343
262,2	-0,486
262,6	-3,486
263,1	-1,714
263,6	1,229
264	9,8
264,5	12,6
264,9	10,714
265,4	11,543
265,9	10
266,3	10,229
266,8	12,486
267,3	8,371
267,7	5,543
268,2	7,943
268,7	9,086
269,1	12,857
269,6	4,657
270	8,486
270,5	7
271	9,743
271,4	5,6
271,9	-1,571
272,4	2,686
272,8	7,543
273,3	1,086
273,7	3,057
274,2	3,771
274,7	7,771
275,1	15
275,6	11,8
276,1	8,857
276,5	11,714
277	10,686
277,4	8,943
277,9	10,829
278,4	7,571
278,8	11,343
279,3	13,886
279,8	11,657
280,2	9,486
280,7	13,886
281,1	8,686
281,6	11,286
282,1	9,657
282,5	8,029
283	6,057
283,4	6,314
283,9	3,686
284,4	7,429
284,8	8,971
285,3	0,829
285,8	1,743
286,2	0,257
286,7	-0,029
287,1	-2,514
287,6	-6,543
288,1	-11,514
288,5	0,143
289	-4,4
289,5	0,086
289,9	2,371
290,4	5,429
290,8	6,571
291,3	9,629
291,8	4,429
292,2	8,8
292,7	12,114
293,1	8,371
293,6	9,8
294,1	9,429
294,5	8,714
295	10,286
295,5	10,257
295,9	6
296,4	5,971
296,8	1,486
297,3	0,029
297,8	-6,543
298,2	-9,829
298,7	-7,657
299,1	-6,543
299,6	-4,429
300,1	-1,629
300,5	1,429
301	9,829
301,5	15,629
301,9	14,486
302,4	13,257
302,8	16,343
303,3	14,714
303,8	12,886
304,2	13,857
304,7	10,4
305,1	3,171
305,6	6,514
306,1	9,886
306,5	12,314
307	17,114
307,4	16,771
307,9	22,429
308,4	24,229
308,8	14,943
309,3	9,629
309,8	8,314
310,2	4,257
310,7	-0,486
311,1	-3,686
311,6	-1,743
312,1	6,743
312,5	8,714
313	8,343
313,4	9,714
313,9	11,057
314,4	7,657
314,8	7,629
315,3	7,571
315,7	3,6
316,2	-0,514
316,7	-3,086
317,1	0,886
317,6	1,914
318	7,229
318,5	8,686
319	9,914
319,4	13,829
319,9	19
320,3	18,743
320,8	14,4
321,3	13,943
321,7	11,257
322,2	12,657
322,6	12,286
323,1	10,886
323,6	9,429
324	11,486
324,5	8,914
324,9	11,514
325,4	7,771
325,9	9,686
326,3	6,857
326,8	6,771
327,2	10
327,7	5,943
328,2	1,086
328,6	4,057
329,1	-1,257
329,5	2,057
330	3,457
330,5	3,457
330,9	8,886
331,4	7,914
331,8	7
332,3	12,514
332,8	8,371
333,2	5,657
333,7	6,771
334,1	8,143
334,6	11,314
335,1	9,771
335,5	9,514
336	10,514
336,4	11,657
336,9	14,514
337,4	15,943
337,8	15,886
338,3	16
338,7	15,971
339,2	12,229
339,7	13,971
340,1	6
340,6	2,8
341	-1,629
341,5	1,286
342	-0,086
342,4	2,543
342,9	-0,457
343,3	-1,886
343,8	-2,171
344,2	3,2
344,7	3,057
345,2	-0,771
345,6	1,343
346,1	3,857
346,5	7,857
347	5,686
347,5	3,257
347,9	6,457
348,4	9,943
348,8	12,229
349,3	13,829
349,8	16,914
350,2	21,971
350,7	21,743
351,1	22,343
351,6	28,057
352	28,286
352,5	33,257
353	43,457
353,4	52,8
353,9	69,8
354,3	81,229
354,8	93,114
355,3	115,514
355,7	139,6
356,2	164,543
356,6	194,286
357,1	226,057
357,5	267,686
358	315,343
358,5	365,829
358,9	423,714
359,4	489,486
359,8	557,657
360,3	646,943
360,8	737,571
361,2	845,457
361,7	962,6
362,1	1095,514
362,6	1233,829
363	1388,543
363,5	1540,257
364	1715
364,4	1887,771
364,9	2063,314
365,3	2233,257
365,8	2399,114
366,3	2549,143
366,7	2690,629
367,2	2810,829
367,6	2911,629
368,1	2990,257
368,5	3040,886
369	3064,857
369,5	3079,971
369,9	3067,286
370,4	3018,571
370,8	2950,743
371,3	2863,486
371,7	2768,029
372,2	2652,457
372,7	2522,857
373,1	2383,029
373,6	2247,086
374	2109,657
374,5	1972,457
374,9	1829,543
375,4	1704,629
375,9	1578,171
376,3	1455,114
376,8	1338,6
377,2	1235
377,7	1130,286
378,2	1036,486
378,6	941,229
379,1	859,143
379,5	790,429
380	728,229
380,4	664,171
380,9	612,286
381,4	558,6
381,8	521,257
382,3	485,286
382,7	445,543
383,2	415,971
383,6	385,571
384,1	359,886
384,6	341,829
385	313,857
385,5	288,771
385,9	270,8
386,4	242,543
386,8	224,743
387,3	205,057
387,7	185,314
388,2	177,314
388,7	162,686
389,1	150,857
389,6	143,657
390	132,171
390,5	125,171
390,9	119,771
391,4	108,971
391,9	101,771
392,3	96,229
392,8	92,486
393,2	85,914
393,7	78,114
394,1	66,543
394,6	62,229
395,1	61,829
395,5	54,571
396	50,657
396,4	50,086
396,9	47,829
397,3	53,457
397,8	51,657
398,2	46,457
398,7	49,686
399,2	50,829
399,6	48,914
400,1	47,314
400,5	37,114
401	36,029
401,4	33,114
401,9	33,771
402,4	30,943
402,8	27,829
403,3	33,143
403,7	35,029
404,2	40,857
404,6	43,314
405,1	38,257
405,5	36,257
406	36,971
406,5	31,343
406,9	38,543
407,4	32,257
407,8	33,257
408,3	35,829
408,7	38,314
409,2	42,571
409,6	44,229
410,1	41,114
410,6	43,686
411	42,8
411,5	43,6
411,9	44,543
412,4	43
412,8	47
413,3	50,4
413,7	51,857
414,2	56,629
414,7	58,8
415,1	64,086
415,6	66,029
416	66,371
416,5	72
416,9	70,886
417,4	70,343
417,8	81,629
418,3	82,429
418,8	88,657
419,2	93,314
419,7	89,257
420,1	93,914
420,6	94,343
421	87,4
421,5	89,457
421,9	89,343
422,4	89,971
422,8	90,714
423,3	87,171
423,8	85,543
424,2	78,486
424,7	73,914
425,1	70,6
425,6	68,657
426	65,943
426,5	69,514
426,9	75,657
427,4	76,114
427,9	75,686
428,3	75,086
428,8	71,143
429,2	73,286
429,7	69,971
430,1	64
430,6	63,257
431	64,2
431,5	62,457
431,9	60
432,4	58,686
432,8	61,714
433,3	60,886
433,8	63,057
434,2	61,057
434,7	65,457
435,1	68,371
435,6	68,514
436	65,314
436,5	67,657
436,9	68,114
437,4	70,2
437,8	67
438,3	70,514
438,8	72,514
439,2	75,086
439,7	78,429
440,1	83,771
440,6	87,543
441	85,686
441,5	85,714
441,9	90,057
442,4	88,429
442,8	87,771
443,3	91,771
443,7	91,4
444,2	101,8
444,7	106,829
445,1	106,629
445,6	112,543
446	116,629
446,5	110,057
446,9	108,771
447,4	109,686
447,8	112,6
448,3	120,743
448,7	122,686
449,2	127,657
449,6	139
450,1	144,343
450,6	149,743
451	151,771
451,5	150,8
451,9	158,8
452,4	165,914
452,8	167,2
453,3	176,8
453,7	177,086
454,2	185,229
454,6	191,286
455,1	193,171
455,5	191,714
456	202,6
456,4	205,971
456,9	216,8
457,3	221,114
457,8	220,314
458,3	227,6
458,7	237,314
459,2	240,171
459,6	242,086
460,1	245,686
460,5	248,314
461	265,686
461,4	272,171
461,9	278,6
462,3	287,514
462,8	299,6
463,2	304,143
463,7	311,971
464,1	317,114
464,6	328,686
465	336,914
465,5	340,343
466	347,486
466,4	355,286
466,9	367,143
467,3	372,486
467,8	377,6
468,2	384,429
468,7	393,371
469,1	406,743
469,6	416,4
470	420,171
470,5	430,657
470,9	434,943
471,4	441,629
471,8	447,771
472,3	452,057
472,7	462,657
473,2	469,686
473,6	472,086
474,1	484,429
474,5	489,886
475	498,486
475,4	501,886
475,9	508,914
476,4	516,914
476,8	529,857
477,3	531,343
477,7	541,2
478,2	547,486
478,6	550,229
479,1	551,943
479,5	558,771
480	559,114
480,4	566,886
480,9	571,486
481,3	575,029
481,8	581,743
482,2	581,629
482,7	584,6
483,1	590,857
483,6	593,229
484	595,514
484,5	603,886
484,9	607,714
485,4	618,257
485,8	621,6
486,3	621,6
486,7	622,857
487,2	624,886
487,6	622,486
488,1	620,057
488,5	614,114
489	618,486
489,4	620,571
489,9	621,714
490,4	622,771
490,8	622,057
491,3	632,114
491,7	633,8
492,2	630,143
492,6	630,629
493,1	634,686
493,5	630,029
494	626,171
494,4	618,829
494,9	617,8
495,3	618,371
495,8	614,686
496,2	612,457
496,7	607,343
497,1	612,886
497,6	608,4
498	608,486
498,5	600,286
498,9	597,571
499,4	590,2
499,8	592,943
500,3	586,714
500,7	583,143
501,2	580,029
501,6	574,143
502,1	570,143
502,5	570,971
503	568,914
503,4	559,486
503,9	555,057
504,3	548,743
504,8	548,286
505,2	540,771
505,7	529,371
506,1	525,114
506,6	522,257
507	516,8
507,5	513,971
507,9	510,514
508,4	503,971
508,8	500,686
509,3	490,686
509,7	489,886
510,2	489
510,6	481,314
511,1	474,143
511,5	473,057
512	464,971
512,4	463,514
512,9	454,057
513,3	447,629
513,8	441,086
514,2	437,571
514,7	433,029
515,1	427,286
515,6	416,857
516	410,857
516,5	407,257
516,9	404,371
517,4	401,114
517,8	399,143
518,3	399,686
518,7	401,029
519,2	401,686
519,6	394,286
520,1	392,429
520,5	388,6
521	380,171
521,4	376,571
521,9	370,343
522,3	364,143
522,8	359,514
523,2	352,114
523,7	344,886
524,1	342,6
524,6	334,114
525	331,886
525,5	325,657
525,9	323,286
526,4	317,486
526,8	310,886
527,3	305,371
527,7	304,943
528,2	294,257
528,6	290,971
529,1	283,743
529,5	282,057
530	280,343
530,4	274,886
530,9	271,314
531,3	270,971
531,8	269,6
532,2	270,743
532,6	262,4
533,1	260,914
533,5	259,686
534	252,343
534,4	250,314
534,9	243,086
535,3	234,171
535,8	236,486
536,2	233,914
536,7	230,543
537,1	229,429
537,6	226,829
538	226,857
538,5	227,571
538,9	218,943
539,4	216,914
539,8	213,914
540,3	212,486
540,7	212,057
541,2	203,771
541,6	203,057
542,1	205,629
542,5	204,429
543	201,771
543,4	195,829
543,9	193,971
544,3	195,143
544,8	192,029
545,2	189,686
545,7	186,943
546,1	189,286
546,5	194,171
547	190,2
547,4	188,286
547,9	184,314
548,3	183,371
548,8	177,714
549,2	169,486
549,7	164,571
550,1	163,686
550,6	166,429
551	169,343
551,5	169,514
551,9	168,371
552,4	172,429
552,8	168,857
553,3	162,086
553,7	157,943
554,2	154,143
554,6	152,486
555,1	155,086
555,5	147,371
555,9	147,371
556,4	147,857
556,8	144,429
557,3	146,629
557,7	141,771
558,2	135,057
558,6	140,486
559,1	138,543
559,5	140,286
560	138,057
560,4	134,429
560,9	134,714
561,3	135,6
561,8	131,743
562,2	130,029
562,7	131
563,1	133,457
563,6	133,743
564	135,514
564,4	130,914
564,9	128,486
565,3	133,057
565,8	126,8
566,2	128,571
566,7	127,943
567,1	126,571
567,6	129,686
568	128,886
568,5	124,6
568,9	121,257
569,4	118,257
569,8	117
570,3	112,229
570,7	110,857
571,1	114,771
571,6	113,743
572	119,457
572,5	117,857
572,9	114,971
573,4	115,629
573,8	120,314
574,3	115,057
574,7	114,8
575,2	110,714
575,6	110,457
576,1	112,629
576,5	110,714
576,9	104,171
577,4	104,2
577,8	99,086
578,3	101,314
578,7	100,543
579,2	99,171
579,6	97,229
580,1	95,029
580,5	94,257
581	100,429
581,4	102,629
581,9	97,857
582,3	94,257
582,7	96,114
583,2	99,257
583,6	97,371
584,1	96,8
584,5	90,457
585	92,371
585,4	88,143
585,9	87,686
586,3	87,714
586,8	92,857
587,2	88,429
587,6	93,371
588,1	97,171
588,5	102,543
589	106,657
589,4	104,543
589,9	97,629
590,3	96,657
590,8	93,971
591,2	92
591,7	95,229
592,1	92,286
592,5	92,143
593	95,086
593,4	94,971
593,9	92,371
594,3	93,6
594,8	85,743
595,2	81,429
595,7	82,229
596,1	80,257
596,6	80,143
597	85,286
597,4	81,857
597,9	84,8
598,3	90,314
598,8	87,829
599,2	87,914
599,7	89,057
600,1	81,086
600,6	83,4
601	82,229
601,4	86,371
601,9	87,343
602,3	85,857
602,8	84,286
603,2	85,571
603,7	83,371
604,1	85,686
604,6	76,429
605	71,4
605,4	73,743
605,9	70,171
606,3	66,429
606,8	63,057
607,2	57,886
607,7	56,629
608,1	59,086
608,6	62,229
609	70,143
609,4	77,029
609,9	76,486
610,3	81,914
610,8	84,286
611,2	85,4
611,7	78,457
612,1	75,4
612,6	73,286
613	77,629
613,4	73,029
613,9	72,229
614,3	70
614,8	76,829
615,2	73,714
615,7	75,314
616,1	76,314
616,6	72,943
617	71,6
617,4	75,629
617,9	74,229
618,3	78,171
618,8	77,371
619,2	73,6
619,7	82,171
620,1	81,029
620,5	84,514
621	81,8
621,4	81,8
621,9	82,971
622,3	82,8
622,8	75,743
623,2	76,943
623,6	70,743
624,1	71,686
624,5	69,2
625	70,429
625,4	72
625,9	75,857
626,3	74,971
626,8	73,486
627,2	76,086
627,6	69,8
628,1	62,343
628,5	64,943
629	60,514
629,4	60,486
629,9	62,086
630,3	52,571
630,7	57,6
631,2	63,086
631,6	60,343
632,1	61,514
632,5	62,286
633	63,771
633,4	66,486
633,8	68,657
634,3	64,2
634,7	63,343
635,2	60,143
635,6	61,457
636,1	59,371
636,5	59,971
636,9	51,657
637,4	53,143
637,8	53,8
638,3	50,971
638,7	50,086
639,2	48,543
639,6	53,257
640	57,771
640,5	59,257
640,9	57,629
641,4	63,257
641,8	62,829
642,2	62,971
642,7	66,314
643,1	69,857
643,6	66,343
644	65,286
644,5	68,429
644,9	68,543
645,3	68,8
645,8	59,943
646,2	58,543
646,7	59,886
647,1	58,8
647,6	59,629
648	59,229
648,4	58,2
648,9	59,457
649,3	55,371
649,8	56,486
650,2	57,829
650,6	55,714
651,1	55,114
651,5	56,571
652	57,143
652,4	56,029
652,9	56,571
653,3	54,457
653,7	51,371
654,2	51,771
654,6	47,114
655,1	46,857
655,5	55,114
655,9	53,171
656,4	53,6
656,8	53,057
657,3	55,971
657,7	60,971
658,2	62,914
658,6	58,657
659	56,314
659,5	58,143
659,9	57,114
660,4	52,171
660,8	47,686
661,2	43,657
661,7	38,8
662,1	39,914
662,6	34,971
663	37,629
663,4	38,571
663,9	43,514
664,3	41,457
664,8	39,743
665,2	35,171
665,6	37,229
666,1	41,743
666,5	42,571
667	41,543
667,4	42,029
667,9	45,429
668,3	50,114
668,7	51,829
669,2	50,8
669,6	49,686
670,1	47,371
670,5	47,829
670,9	47,829
671,4	48,514
671,8	48,286
672,3	46,743
672,7	51,057
673,1	48,057
673,6	48,8
674	50,886
674,5	49,171
674,9	43,771
675,3	39,114
675,8	33,886
676,2	38,257
676,7	37,8
677,1	34,857
677,5	33,457
678	35,8
678,4	39,057
678,9	39,771
679,3	35,657
679,7	35,771
680,2	32,657
680,6	31,771
681,1	35,343
681,5	33,829
681,9	33,8
682,4	38,657
682,8	40,4
683,3	45,4
683,7	52,4
684,1	49,686
684,6	49,943
685	52,657
685,5	50,029
685,9	45,486
686,3	43,171
686,8	40,2
687,2	39,543
687,7	34,943
688,1	29,943
688,5	30,829
689	33,486
689,4	32,029
689,9	28,143
690,3	25,943
690,7	32,343
691,2	34,2
691,6	33,371
692	32,829
692,5	37,229
692,9	38,686
693,4	41,657
693,8	35,114
694,2	35,971
694,7	31,457
695,1	25,829
695,6	23,629
696	23,771
696,4	21,629
696,9	23,571
697,3	17,2
697,8	21,543
698,2	24,829
698,6	24,771
699,1	24,343
699,5	29,857
699,9	26,6
700,4	26,6
700,8	27,457
701,3	31,143
701,7	30,143
702,1	30,8
702,6	25,029
703	26,4
703,5	28,543
703,9	24,143
704,3	24,057
704,8	23,2
705,2	20,057
705,6	19,8
706,1	19,086
706,5	21,486
707	25,029
707,4	21,914
707,8	21,457
708,3	24,971
708,7	25,057
709,2	27,086
709,6	25,829
710	27,886
710,5	24,686
710,9	23,086
711,3	18,629
711,8	23,429
712,2	25,086
712,7	23,914
713,1	22,771
713,5	29,829
714	32,8
714,4	36,829
714,8	34,114
715,3	30,371
715,7	32,629
716,2	31,571
716,6	31,114
717	28,714
717,5	27,543
717,9	30,629
718,3	29,829
718,8	27,571
719,2	28,657
719,7	25,629
720,1	27,657
720,5	31,4
721	28,629
721,4	31,371
721,8	35,4
722,3	31,943
722,7	37,114
723,2	30,143
723,6	23,257
724	20,257
724,5	20,171
724,9	17,6
725,3	14,543
725,8	11,257
726,2	17
726,7	19,371
727,1	20,914
727,5	22,314
728	16,143
728,4	19
728,8	16,514
729,3	12,686
729,7	7,4
730,1	8,114
730,6	8,743
731	13,6
731,5	12,457
731,9	12,629
732,3	21,229
732,8	29,571
733,2	27,971
733,6	25,229
734,1	30,286
734,5	31,6
734,9	33,571
735,4	26,943
735,8	18,029
736,3	22,2
736,7	18,8
737,1	15,086
737,6	17,2
738	14,6
738,4	17,743
738,9	19,343
739,3	15,2
739,7	17,657
740,2	14,686
740,6	13,943
741,1	17,657
741,5	13,914
741,9	19,4
742,4	21,429
742,8	20,143
743,2	23,943
743,7	22,229
744,1	15,429
744,5	17,171
745	15,514
745,4	10,514
745,8	17,2
746,3	18,257
746,7	16,886
747,2	18,971
747,6	20,743
748	20,971
748,5	25,457
748,9	18,6
749,3	17,514
749,8	21
750,2	25,257
750,6	23,571
751,1	26,4
751,5	25,2
751,9	30,371
752,4	27,971
752,8	24,571
753,3	20,771
753,7	24,543
754,1	22,829
754,6	22,657
755	15,257
755,4	15,571
755,9	17,2
756,3	16,171
756,7	14,6
757,2	13,229
757,6	15,171
758	19,857
758,5	19,914
758,9	19,686
759,3	26,457
759,8	22,857
760,2	22,2
760,6	20,2
761,1	18,8
761,5	23
761,9	21,171
762,4	14,143
762,8	17,486
763,3	15,571
763,7	19,457
764,1	21,229
764,6	19,543
765	21,571
765,4	25,086
765,9	24,857
766,3	29
766,7	25,114
767,2	24,2
767,6	26,771
768	26,229
768,5	23,171
768,9	23,114
769,3	19,8
769,8	20,943
770,2	25,743
770,6	20,057
771,1	23,486
771,5	26,057
771,9	28,086
772,4	30,829
772,8	28,857
773,2	24,657
773,7	24,543
774,1	20,6
774,5	15,543
775	9,457
775,4	6,571
775,8	5,371
776,3	10
776,7	9,486
777,1	15,514
777,6	20,029
778	26,143
778,4	26,8
778,9	29,371
779,3	23,857
779,7	26,8
780,2	23,6
780,6	23,771
781	21
781,5	19,657
781,9	17,343
782,3	17,657
782,8	16,829
783,2	11,6
783,6	12,857
784,1	12,143
784,5	13,886
784,9	12,971
785,4	15,057
785,8	16,029
786,2	22,486
786,7	18,857
787,1	16,4
787,5	14,229
788	16,371
788,4	12,943
788,8	9,2
789,3	4,686
789,7	8,371
790,1	11,257
790,6	18,343
791	15,429
791,4	20,2
791,9	18,143
792,3	15,914
792,7	17,457
793,2	12,714
793,6	6,914
794	9,343
794,5	5,857
794,9	12,2
795,3	16,429
795,8	12
796,2	16,286
796,6	21,857
797,1	23,286
797,5	20,657
797,9	14,743
798,4	10,2
798,8	11,6
799,2	10,571
799,7	8,8
800,1	5,743
800,5	9,429
801	13,8
801,4	17,486
801,8	14,4
802,2	15,8
802,7	13,514
803,1	14,571
803,5	14,771
804	13,486
804,4	12,914
804,8	13,486
805,3	17,4
805,7	17,343
806,1	19,943
806,6	18,943
807	16,6
807,4	16,714
807,9	13,686
808,3	10,857
808,7	8,371
809,2	10,743
809,6	11,943
810	11,2
810,4	9,029
810,9	14,657
811,3	13,514
811,7	17,571
812,2	18,543
812,6	15,171
813	23,829
813,5	25,143
813,9	22,171
814,3	21,8
814,8	16,686
815,2	7,4
815,6	8,6
816,1	6,457
816,5	9,914
816,9	11,457
817,3	12,971
817,8	21,886
818,2	30,486
818,6	30,143
819,1	26,171
819,5	24,914
819,9	24,686
820,4	23,057
820,8	16,429
821,2	10,229
821,7	13,829
822,1	16,886
822,5	18,771
822,9	20,171
823,4	18,086
823,8	22,8
824,2	22,714
824,7	17,171
825,1	10,057
825,5	0,943
826	-2,457
826,4	-0,629
826,8	-7,343
827,3	-5,086
827,7	-3,257
828,1	-0,771
828,5	5,629
829	2,971
829,4	3,257
829,8	0,857
830,3	-0,886
830,7	-2,286
831,1	1,4
831,6	0,286
832	2,857
832,4	-1,114
832,8	9,486
833,3	12,629
833,7	12,171
834,1	6,514
834,6	5,2
835	8,686
835,4	14,114
835,8	6,8
836,3	2,371
836,7	5,943
837,1	11,771
837,6	15,029
838	10,8
838,4	7,486
838,9	10,886
839,3	14,629
839,7	15,714
840,1	10,057
840,6	8,886
841	14,714
841,4	12,886
841,9	12,6
842,3	12,343
842,7	10,343
843,1	15,714
843,6	17,743
844	12,629
844,4	16,457
844,9	21,057
845,3	19,686
845,7	20,457
846,2	18,771
846,6	16,571
847	21,429
847,4	20,343
847,9	13,857
848,3	14,143
848,7	13,829
849,2	11,143
849,6	7,457
850	10,6
850,4	13,2
850,9	15,8
851,3	20,714
851,7	20,8
852,2	20,457
852,6	26,286
853	22,943
853,4	21,257
853,9	16,686
854,3	14,314
854,7	14,429
855,2	13,886
855,6	9,029
856	8,514
856,4	6,343
856,9	6,086
857,3	2,829
857,7	4,514
858,2	11,486
858,6	14,314
859	11,4
859,4	13,171
859,9	13,086
860,3	12,486
860,7	12,743
861,1	12,343
861,6	8,914
862	9,514
862,4	7,6
862,9	7,686
863,3	9,114
863,7	7,314
864,1	3,229
864,6	6,686
865	8,229
865,4	9,429
865,9	12,4
866,3	7,371
866,7	5,057
867,1	3,857
867,6	4,6
868	0,371
868,4	-1,171
868,8	-2,8
869,3	0,829
869,7	2,657
870,1	0,143
870,6	-5
871	-55,543
871,4	-48,457
871,8	-47,314
872,3	-45,429
872,7	-45,8
873,1	-42,4
873,5	-39,143
874	11,629
874,4	8,343
874,8	6,371
875,3	7,629
875,7	9,914
876,1	10,971
876,5	11,257
877	13,886
877,4	8,943
877,8	9,943
878,2	11,029
878,7	11,114
879,1	10,143
879,5	15,571
879,9	14,657
880,4	20,143
880,8	20,629
881,2	19,714
881,7	16,457
882,1	18,829
882,5	11,714
882,9	13,143
883,4	6,886
883,8	7,2
884,2	4,371
884,6	2,314
885,1	3,971
885,5	3,229
885,9	4,829
886,3	10,771
886,8	8,371
887,2	4,657
887,6	6,771
888	5,2
888,5	10,657
888,9	6
889,3	-1,143
889,8	3,257
890,2	5,743
890,6	4,6
891	4,743
891,5	-0,743
891,9	0,829
892,3	9,2
892,7	4,743
893,2	6,114
893,6	8,857
894	7,429
894,4	7,629
894,9	7,857
895,3	3,914
895,7	8
896,1	11,257
896,6	10,543
897	14,371
897,4	21,543
897,8	22,114
898,3	24,486
898,7	19,829
899,1	14,029
899,5	12,343
900	4,657
900,4	-3,029
900,8	-5,943
901,2	-11,029
901,7	-8,286
902,1	-4,229
902,5	3,229
902,9	4,743
903,4	8,829
903,8	11,857
904,2	14,114
904,6	12,371
905,1	17,629
905,5	13,8
905,9	18,971
906,3	18,086
906,8	23,629
907,2	25,629
907,6	28,971
908	26,543
908,5	23,771
908,9	15,8
909,3	15
909,7	12,057
910,2	11,6
910,6	14,229
911	11,257
911,4	11,143
911,9	11,943
912,3	15,771
912,7	16,829
913,1	14,286
913,6	9,629
914	13,2
914,4	11,971
914,8	17,029
915,3	9,2
915,7	8,743
916,1	7,486
916,5	8,943
916,9	4,8
917,4	5,486
917,8	4,857
918,2	4,943
918,6	-0,486
919,1	3
919,5	3,343
919,9	5,457
920,3	6,114
920,8	7,314
921,2	7,857
921,6	8,657
922	8,657
922,5	4,2
922,9	5,686
923,3	4,457
923,7	3,943
924,2	5,8
924,6	8,543
925	10,686
925,4	12,571
925,8	11
926,3	13,286
926,7	12,543
927,1	13,514
927,5	15,371
928	10,057
928,4	10,857
928,8	12,286
929,2	8,286
929,7	7,829
930,1	6,829
930,5	4
930,9	8,429
931,3	11,2
931,8	8,8
932,2	10,429
932,6	8,171
933	4,829
933,5	2,971
933,9	3,686
934,3	2,686
934,7	-1,171
935,2	1,029
935,6	3
936	6,743
936,4	9,486
936,8	10,086
937,3	7,6
937,7	12,6
938,1	15,286
938,5	11,771
939	14,514
939,4	15,514
939,8	11,829
940,2	13,571
940,6	9,486
941,1	7,6
941,5	12,743
941,9	8,543
942,3	3,143
942,8	6,057
943,2	8,514
943,6	9,314
944	6,486
944,4	4
944,9	4,029
945,3	4,6
945,7	1,029
946,1	-5,371
946,6	-7,971
947	-5,829
947,4	-0,171
947,8	2,886
948,2	3,971
948,7	7,171
949,1	8,914
949,5	16,229
949,9	14,629
950,3	10,371
950,8	9,771
951,2	11,029
951,6	8,2
952	11
952,5	3,286
952,9	4,686
953,3	3,943
953,7	1,4
954,1	5,2
954,6	10,143
955	13,057
955,4	17,829
955,8	24,057
956,2	22,257
956,7	24,143
957,1	18,8
957,5	16,714
957,9	13,657
958,3	11,314
958,8	7,029
959,2	6,229
959,6	9,543
960	11,686
960,5	10,857
960,9	11
961,3	8,571
961,7	6,029
962,1	11,543
962,6	7,857
963	9,114
963,4	4,343
963,8	5,057
964,2	12,057
964,7	10,771
965,1	11,314
965,5	13,4
965,9	10,143
966,3	17,743
966,8	15,943
967,2	13,457
967,6	14,6
968	10,743
968,4	12,114
968,9	13,857
969,3	14,2
969,7	7,829
970,1	7,343
970,5	5,257
971	8,486
971,4	2,543
971,8	5
972,2	2,343
972,6	5,514
973,1	6,629
973,5	8,2
973,9	8,886
974,3	9,857
974,7	7,371
975,2	6,714
975,6	9,429
976	9,029
976,4	6,571
976,8	5,343
977,3	4,914
977,7	2,229
978,1	0,314
978,5	-4,429
978,9	-9,657
979,4	-6,657
979,8	-9,314
980,2	-7,686
980,6	-7,914
981	0,6
981,5	2,629
981,9	3,971
982,3	3
982,7	4,971
983,1	4,514
983,6	7,571
984	0,743
984,4	2,343
984,8	4,029
985,2	4,229
985,6	-0,286
986,1	1,657
986,5	5,771
986,9	-0,6
987,3	4,429
987,7	4,286
988,2	3,514
988,6	7,114
989	4,4
989,4	-0,057
989,8	7,371
990,3	2,057
990,7	1,4
991,1	3,771
991,5	3,6
991,9	7,486
992,3	9,343
992,8	7,571
993,2	9,486
993,6	11,571
994	12,2
994,4	13,143
994,9	11,686
995,3	15
995,7	13,114
996,1	11,286
996,5	9,2
996,9	4,571
997,4	4,629
997,8	0,971
998,2	-5,086
998,6	-4,4
999	-2,514
999,5	-2,629
999,9	-0,2
1000,3	-1,486
1000,7	2,486
1001,1	0,657
1001,5	0,143
1002	2,771
1002,4	3,629
1002,8	6,086
1003,2	7,943
1003,6	8,171
1004	10,286
1004,5	9,2
1004,9	6,714
1005,3	3,943
1005,7	3,943
1006,1	0,686
1006,6	-0,571
1007	-2
1007,4	-1,8
1007,8	-2,514
1008,2	-1,914
1008,6	-2,429
1009,1	0,229
1009,5	2,6
1009,9	4,286
1010,3	4,543
1010,7	4,257
1011,1	6,086
1011,6	8,314
1012	10,057
1012,4	4,743
1012,8	2,486
1013,2	8,4
1013,6	10,886
1014,1	9,686
1014,5	3,686
1014,9	-2,257
1015,3	0,343
1015,7	8,486
1016,1	4,229
1016,6	2,771
1017	8,143
1017,4	9,686
1017,8	12,343
1018,2	14,429
1018,6	5,286
1019,1	5,543
1019,5	4,971
1019,9	-2,771
1020,3	0,543
1020,7	1,829
1021,1	-1,914
1021,6	1,143
1022	3,629
1022,4	6,943
1022,8	14,143
1023,2	12,629
1023,6	10,771
1024,1	21
1024,5	21,771
1024,9	17,914
1025,3	13,314
1025,7	11,743
1026,1	11,457
1026,6	12,971
1027	0,886
1027,4	0,143
1027,8	0,114
1028,2	4,229
1028,6	6,886
1029	4,857
1029,5	7,057
1029,9	8,6
1030,3	7,514
1030,7	7,429
1031,1	4,686
1031,5	-3,143
1032	-5,143
1032,4	-6,343
1032,8	0,543
1033,2	5,686
1033,6	8,086
1034	8,486
1034,4	11,257
1034,9	14,343
1035,3	11,429
1035,7	9,486
1036,1	3,6
1036,5	0,286
1036,9	1,629
1037,4	6,629
1037,8	1,429
1038,2	4,886
1038,6	6,371
1039	15,086
1039,4	23,743
1039,8	22,029
1040,3	21,229
1040,7	27,743
1041,1	28,514
1041,5	27,771
1041,9	18,486
1042,3	12,086
1042,7	11,686
1043,2	8,829
1043,6	5,514
1044	3,229
1044,4	3,143
1044,8	6,771
1045,2	6,457
1045,6	8,114
1046,1	8,914
1046,5	12,2
1046,9	11,457
1047,3	6,114
1047,7	3,686
1048,1	3,943
1048,5	2,429
1049	6,8
1049,4	10,629
1049,8	14,514
1050,2	19,686
1050,6	22,029
1051	24,914
1051,4	25,657
1051,9	22,229
1052,3	23,8
1052,7	18,286
1053,1	12,4
1053,5	14,4
1053,9	10,971
1054,3	11,714
1054,8	16,171
1055,2	11,943
1055,6	15,4
1056	17,086
1056,4	13,486
1056,8	18,486
1057,2	17,571
1057,6	12,714
1058,1	7,771
1058,5	2,571
1058,9	6,971
1059,3	5,857
1059,7	-0,114
1060,1	0,686
1060,5	0
1061	1,486
1061,4	5,886
1061,8	3,886
1062,2	6,886
1062,6	10,543
1063	8,4
1063,4	11,057
1063,8	15,429
1064,3	9,686
1064,7	11,657
1065,1	7,857
1065,5	3,057
1065,9	1,171
1066,3	-1,057
1066,7	-5,2
1067,1	-1,029
1067,6	2,6
1068	1,2
1068,4	6
1068,8	10,086
1069,2	9,429
1069,6	9,714
1070	14,171
1070,4	8,629
1070,9	8,657
1071,3	7,114
1071,7	5,229
1072,1	2,257
1072,5	2,486
1072,9	-3,2
1073,3	-6,2
1073,7	-7,943
1074,2	-6,943
1074,6	-4,543
1075	-0,857
1075,4	-2,029
1075,8	1,771
1076,2	4,371
1076,6	10,057
1077	9,514
1077,5	9,114
1077,9	8,771
1078,3	10,771
1078,7	9,657
1079,1	7,086
1079,5	6,829
1079,9	7,829
1080,3	5,686
1080,7	5,6
1081,2	11,686
1081,6	12,829
1082	13,8
1082,4	15,371
1082,8	12,743
1083,2	15,4
1083,6	13,114
1084	5,057
1084,5	9,057
1084,9	6,971
1085,3	4,514
1085,7	11,771
1086,1	8,686
1086,5	13,114
1086,9	16,457
1087,3	12,229
1087,7	11,657
1088,2	10,6
1088,6	2,857
1089	6,857
1089,4	4,114
1089,8	0,057
1090,2	-3,457
1090,6	-0,457
1091	4,714
1091,4	6,2
1091,9	3,171
1092,3	3,286
1092,7	5,829
1093,1	9,114
1093,5	7,8
1093,9	8,114
1094,3	11,114
1094,7	8,629
1095,1	8,629
1095,5	11,057
1096	6,486
1096,4	10,771
1096,8	5,686
1097,2	4,086
1097,6	9,257
1098	9,686
1098,4	10,543
1098,8	13,114
1099,2	17,829
1099,6	17,114
1100,1	13,857
1100,5	7,543
1100,9	6,743
1101,3	4,343
1101,7	1,857
1102,1	-4,2
1102,5	-1,857
1102,9	1,371
1103,3	9,343
1103,7	9,371
1104,2	8,086
1104,6	9,571
1105	6,743
1105,4	6,571
1105,8	4,143
1106,2	-1,171
1106,6	-1,571
1107	-1,286
1107,4	-1,2
1107,8	0,8
1108,3	-0,25
