Data from Subt2_113.txt Node
Date: Sat Aug 26 18:21:28 MSK 2023
User: vat
Spectrometer: MAYP114033
Trigger mode: 0
Integration Time (sec): 1,000000E0
Scans to average: 5
Electric dark correction enabled: true
Nonlinearity correction enabled: false
Boxcar width: 3
XAxis mode: Wavelengths
Number of Pixels in Spectrum: 2068
>>>>>Begin Spectral Data<<<<<
199,4	-0,95
199,9	-0,32
200,4	-2,5
200,8	-0,571
201,3	-3,314
201,8	-2,314
202,2	-3,657
202,7	3,029
203,2	3,229
203,6	3,171
204,1	0,429
204,6	6
205	4
205,5	8,429
206	1,8
206,4	-0,314
206,9	-0,571
207,4	1,343
207,8	-1,6
208,3	-0,714
208,8	-5,743
209,2	-6,429
209,7	-5,829
210,2	-3,686
210,6	-3,257
211,1	-3,371
211,5	-7,2
212	-5,057
212,5	-3,714
212,9	-5,171
213,4	-4,743
213,9	-3,971
214,3	-3,114
214,8	3,114
215,3	-0,743
215,7	-0,314
216,2	7,114
216,7	7,771
217,1	4
217,6	3,571
218,1	-0,743
218,5	-1,457
219	-6,971
219,5	-7,543
219,9	-10,314
220,4	-2,143
220,9	-1,229
221,3	-1,486
221,8	3,314
222,3	7,429
222,7	6,314
223,2	7,543
223,6	2,657
224,1	1,943
224,6	6,2
225	5,143
225,5	4,886
226	3,086
226,4	3,371
226,9	3,029
227,4	3,429
227,8	0,371
228,3	-1,971
228,8	-1,457
229,2	-3,143
229,7	-1,6
230,2	-2,771
230,6	-1
231,1	1,943
231,5	4,971
232	5,657
232,5	4,114
232,9	6,486
233,4	6,6
233,9	2,029
234,3	-1,457
234,8	-0,343
235,3	-2,229
235,7	-0,571
236,2	-3,343
236,7	-4,971
237,1	-3
237,6	-2
238,1	-2,514
238,5	-5,286
239	-3,943
239,4	0,371
239,9	-0,657
240,4	-0,943
240,8	1,086
241,3	-3
241,8	0,343
242,2	0,943
242,7	-3,657
243,2	-0,314
243,6	-2,829
244,1	-1,314
244,6	1,571
245	1,4
245,5	-1,2
245,9	-3,343
246,4	-2,057
246,9	1,343
247,3	-0,057
247,8	2,286
248,3	4,143
248,7	5,886
249,2	9,314
249,7	6,257
250,1	7,571
250,6	8,057
251	10,829
251,5	8,943
252	11,286
252,4	13,8
252,9	12,486
253,4	10,486
253,8	5,886
254,3	2,657
254,8	3,4
255,2	-0,914
255,7	-9
256,1	-4,257
256,6	-5,286
257,1	-2,629
257,5	-8,943
258	-10
258,5	-11,886
258,9	-10,114
259,4	-14,371
259,9	-13,971
260,3	-13,686
260,8	-12,086
261,2	-12,943
261,7	-7,257
262,2	-10,8
262,6	-11,857
263,1	-5,943
263,6	-0,771
264	3,914
264,5	12,714
264,9	8,486
265,4	16
265,9	18,4
266,3	15,857
266,8	10,457
267,3	5,6
267,7	-2,143
268,2	-0,629
268,7	-0,571
269,1	1,8
269,6	1,114
270	3,771
270,5	7,429
271	10,2
271,4	11,314
271,9	8,829
272,4	10,2
272,8	9,6
273,3	5,371
273,7	6
274,2	3,543
274,7	5,886
275,1	5
275,6	2,257
276,1	-1,286
276,5	2,2
277	2,029
277,4	4,314
277,9	-0,6
278,4	2,486
278,8	3,029
279,3	7,171
279,8	7,629
280,2	8,029
280,7	7,486
281,1	9,571
281,6	8,743
282,1	6,257
282,5	1,771
283	-2,114
283,4	-4,686
283,9	-3,314
284,4	0,086
284,8	0,171
285,3	-1,743
285,8	1,743
286,2	2,086
286,7	-0,629
287,1	-6,429
287,6	-14,429
288,1	-20,2
288,5	-14,343
289	-15,114
289,5	-15,571
289,9	-12,6
290,4	-8,8
290,8	-2,943
291,3	2,2
291,8	0,057
292,2	0,629
292,7	3,971
293,1	4
293,6	8,286
294,1	6,857
294,5	7,914
295	10,8
295,5	8,4
295,9	6,743
296,4	3,743
296,8	0,229
297,3	2,686
297,8	-2,314
298,2	-10,829
298,7	-5,743
299,1	-3,371
299,6	-1,029
300,1	0,086
300,5	-2,429
301	1,886
301,5	11,029
301,9	7,629
302,4	5,743
302,8	5,457
303,3	3,143
303,8	-0,943
304,2	-3,743
304,7	-6,657
305,1	-10,571
305,6	-8,457
306,1	2,4
306,5	6,257
307	14,029
307,4	19,029
307,9	17,029
308,4	18,8
308,8	14,571
309,3	9,343
309,8	7,857
310,2	6,6
310,7	-0,714
311,1	1,771
311,6	3,543
312,1	8,8
312,5	9
313	8
313,4	5,686
313,9	10,171
314,4	7,914
314,8	6,143
315,3	2,343
315,7	-3,457
316,2	-5,029
316,7	-5,229
317,1	-1,257
317,6	-1,029
318	3,171
318,5	4,086
319	7,486
319,4	11,657
319,9	16,371
320,3	14,657
320,8	14,857
321,3	14,714
321,7	18,114
322,2	12,543
322,6	12,629
323,1	6
323,6	3,371
324	2,457
324,5	1,371
324,9	0,457
325,4	3,886
325,9	4
326,3	7,571
326,8	8,771
327,2	5,286
327,7	4,914
328,2	1,486
328,6	0,886
329,1	-5,029
329,5	-5,657
330	-5,086
330,5	3,229
330,9	3,286
331,4	5
331,8	5,629
332,3	8,943
332,8	8,543
333,2	6,8
333,7	5,686
334,1	4,857
334,6	-0,771
335,1	-5,257
335,5	-4,686
336	-8,171
336,4	-7,571
336,9	-6,343
337,4	-2,686
337,8	0,171
338,3	4,314
338,7	0,771
339,2	1,429
339,7	3,657
340,1	-1,314
340,6	-1,914
341	0,2
341,5	0,914
342	2,829
342,4	0,571
342,9	-3,457
343,3	-0,114
343,8	-2,486
344,2	-2,171
344,7	4,057
345,2	4,4
345,6	9,057
346,1	11,657
346,5	9,4
347	5,971
347,5	3,886
347,9	0,086
348,4	1,314
348,8	2,4
349,3	8,114
349,8	11,4
350,2	19,8
350,7	18,057
351,1	14,6
351,6	14,343
352	20
352,5	15,543
353	17,771
353,4	17
353,9	24,771
354,3	33,943
354,8	38,2
355,3	48,886
355,7	61,714
356,2	74,171
356,6	88,629
357,1	110,114
357,5	126,543
358	153,257
358,5	169,086
358,9	192,343
359,4	218,714
359,8	254,714
360,3	290,371
360,8	331,886
361,2	376,257
361,7	432,571
362,1	494,029
362,6	556,286
363	618,371
363,5	684,714
364	762,629
364,4	836,371
364,9	912,771
365,3	983,571
365,8	1051,657
366,3	1116,857
366,7	1174,657
367,2	1225,057
367,6	1265,657
368,1	1294,143
368,5	1314,257
369	1326,4
369,5	1328,657
369,9	1323,486
370,4	1301,429
370,8	1274,971
371,3	1236,771
371,7	1192,8
372,2	1141,286
372,7	1089,257
373,1	1029,514
373,6	966,629
374	909,829
374,5	847,571
374,9	792,029
375,4	738,429
375,9	679,571
376,3	622,657
376,8	573,257
377,2	526,914
377,7	487,086
378,2	443,229
378,6	404,743
379,1	370,886
379,5	345,343
380	322,629
380,4	292,257
380,9	266,657
381,4	241,086
381,8	225,457
382,3	213,886
382,7	193,457
383,2	181,114
383,6	168,8
384,1	156,514
384,6	149,6
385	135,971
385,5	122,057
385,9	115,914
386,4	103,2
386,8	98
387,3	92,2
387,7	89,657
388,2	88,886
388,7	84,743
389,1	79,971
389,6	80,371
390	77,029
390,5	72,886
390,9	69,371
391,4	63,629
391,9	63,629
392,3	62,771
392,8	55,743
393,2	48,114
393,7	43,829
394,1	38,057
394,6	38,143
395,1	32,571
395,5	30,286
396	27,514
396,4	30,486
396,9	31,971
397,3	40,457
397,8	39,486
398,2	42,429
398,7	41,6
399,2	44,4
399,6	46,657
400,1	44,943
400,5	37,171
401	40,743
401,4	37,057
401,9	43,429
402,4	47,714
402,8	39,686
403,3	48,229
403,7	46,829
404,2	45,343
404,6	50,429
405,1	45,4
405,5	41,857
406	52,114
406,5	48,143
406,9	52,657
407,4	54,229
407,8	54
408,3	60,829
408,7	64,543
409,2	68,943
409,6	77,6
410,1	86,857
410,6	93,2
411	100,086
411,5	104,114
411,9	116,686
412,4	122,286
412,8	130,143
413,3	136,8
413,7	141,771
414,2	150,486
414,7	166,086
415,1	178,257
415,6	190,457
416	197,657
416,5	208,057
416,9	220,514
417,4	238,4
417,8	250,429
418,3	262
418,8	277,657
419,2	297,629
419,7	314,657
420,1	337,943
420,6	353,6
421	371,4
421,5	389,629
421,9	407,343
422,4	434,571
422,8	457,257
423,3	478
423,8	498,914
424,2	519,143
424,7	545,229
425,1	573,743
425,6	598,371
426	627,914
426,5	662,8
426,9	703,629
427,4	741,4
427,9	778,714
428,3	823,857
428,8	866,343
429,2	908,171
429,7	951,829
430,1	997,886
430,6	1051,286
431	1105,229
431,5	1159,629
431,9	1212,457
432,4	1285,571
432,8	1353,857
433,3	1426,2
433,8	1495,571
434,2	1576
434,7	1648,286
435,1	1731,457
435,6	1813,057
436	1902,914
436,5	1994,086
436,9	2088,914
437,4	2183,286
437,8	2296,657
438,3	2408,371
438,8	2522,286
439,2	2642,429
439,7	2762,371
440,1	2895,571
440,6	3032,543
441	3161,743
441,5	3303
441,9	3441,057
442,4	3584,2
442,8	3738,914
443,3	3897,029
443,7	4057,457
444,2	4228,971
444,7	4400,657
445,1	4584,371
445,6	4768,857
446	4958,714
446,5	5145,057
446,9	5342,914
447,4	5546,486
447,8	5760,286
448,3	5975,486
448,7	6189,171
449,2	6408,943
449,6	6644
450,1	6869,857
450,6	7108,486
451	7341,143
451,5	7577,486
451,9	7836,657
452,4	8095,829
452,8	8350,229
453,3	8618,343
453,7	8876,371
454,2	9150,229
454,6	9430,943
455,1	9701,6
455,5	9980,829
456	10267,6
456,4	10548,914
456,9	10847,657
457,3	11140,086
457,8	11434,257
458,3	11735,229
458,7	12025,343
459,2	12333,714
459,6	12652,114
460,1	12966,171
460,5	13277,314
461	13594,971
461,4	13903,629
461,9	14218,286
462,3	14530,114
462,8	14843,6
463,2	15141,114
463,7	15459,6
464,1	15770,343
464,6	16085,514
465	16409,2
465,5	16714,571
466	17026,857
466,4	17347,114
466,9	17653,8
467,3	17960,086
467,8	18277,257
468,2	18583,514
468,7	18903,571
469,1	19184,486
469,6	19479,943
470	19783,029
470,5	20072,771
470,9	20357,343
471,4	20626
471,8	20883,743
472,3	21166,886
472,7	21433,6
473,2	21687,743
473,6	21946,657
474,1	22195,4
474,5	22452,486
475	22706,514
475,4	22947,886
475,9	23184,6
476,4	23404,257
476,8	23637,2
477,3	23843,686
477,7	24053,514
478,2	24240,029
478,6	24425,686
479,1	24596,057
479,5	24777,543
480	24928,971
480,4	25099,914
480,9	25243,771
481,3	25403,743
481,8	25537,657
482,2	25675,6
482,7	25806,486
483,1	25923,229
483,6	26025,314
484	26132,971
484,5	26222,171
484,9	26301,429
485,4	26387,914
485,8	26442,057
486,3	26514,514
486,7	26561,486
487,2	26603,857
487,6	26625,886
488,1	26669,8
488,5	26675,514
489	26690,886
489,4	26690,343
489,9	26696,143
490,4	26692,714
490,8	26683,657
491,3	26667,171
491,7	26643,2
492,2	26627
492,6	26568,429
493,1	26508,829
493,5	26441,714
494	26379,171
494,4	26308,429
494,9	26226,914
495,3	26125,486
495,8	26059,114
496,2	25978,429
496,7	25876,629
497,1	25792,314
497,6	25691,286
498	25595,286
498,5	25496,743
498,9	25377,486
499,4	25267,486
499,8	25174,371
500,3	25042,229
500,7	24922,486
501,2	24777,486
501,6	24642,057
502,1	24511,857
502,5	24368,229
503	24219
503,4	24082,886
503,9	23932,343
504,3	23797,686
504,8	23650,371
505,2	23494,743
505,7	23328,086
506,1	23174,343
506,6	23003,743
507	22820,943
507,5	22659,371
507,9	22474,543
508,4	22302,114
508,8	22141,686
509,3	21950,886
509,7	21772,629
510,2	21602,657
510,6	21418,429
511,1	21247,171
511,5	21046,143
512	20851,086
512,4	20672,286
512,9	20487,771
513,3	20299,314
513,8	20106,6
514,2	19909,571
514,7	19730,914
515,1	19552,257
515,6	19357,657
516	19160,457
516,5	18973,514
516,9	18784,886
517,4	18594,971
517,8	18407,086
518,3	18201,314
518,7	18007,457
519,2	17822,886
519,6	17638,057
520,1	17445,743
520,5	17261,371
521	17066,457
521,4	16890,743
521,9	16717,229
522,3	16541,114
522,8	16347,686
523,2	16177,829
523,7	15997,543
524,1	15828,943
524,6	15652,229
525	15473,571
525,5	15290,057
525,9	15124,771
526,4	14946,914
526,8	14781,029
527,3	14615,086
527,7	14442,286
528,2	14274,829
528,6	14117,971
529,1	13956,743
529,5	13798,371
530	13639,714
530,4	13480,114
530,9	13329,629
531,3	13190,629
531,8	13037,829
532,2	12894,371
532,6	12742,457
533,1	12596,314
533,5	12457,086
534	12320,086
534,4	12161,086
534,9	12017,257
535,3	11869,629
535,8	11737,571
536,2	11607,057
536,7	11476,029
537,1	11342,943
537,6	11223,943
538	11105,457
538,5	10985,571
538,9	10851,6
539,4	10726,429
539,8	10597,286
540,3	10483,857
540,7	10353,714
541,2	10235,257
541,6	10116,429
542,1	10017,143
542,5	9907,343
543	9800,714
543,4	9687,771
543,9	9591,943
544,3	9489,771
544,8	9387,343
545,2	9276,8
545,7	9184,914
546,1	9090,343
546,5	8990,886
547	8890,857
547,4	8791,886
547,9	8692,571
548,3	8606,657
548,8	8502,771
549,2	8411,286
549,7	8323,086
550,1	8239,257
550,6	8150,4
551	8072,8
551,5	7990,029
551,9	7905,457
552,4	7818,4
552,8	7734,229
553,3	7648,543
553,7	7570,514
554,2	7492,143
554,6	7417,914
555,1	7358,029
555,5	7283,229
555,9	7214,029
556,4	7143,314
556,8	7071,514
557,3	7003,829
557,7	6930,4
558,2	6846,857
558,6	6793,829
559,1	6725,114
559,5	6659,943
560	6595,686
560,4	6527,914
560,9	6473,657
561,3	6414,829
561,8	6347,914
562,2	6289,371
562,7	6233,743
563,1	6183,771
563,6	6123,543
564	6062,114
564,4	6009,2
564,9	5949,171
565,3	5889,971
565,8	5833,914
566,2	5778,571
566,7	5736,6
567,1	5679,914
567,6	5623,514
568	5576,457
568,5	5533,371
568,9	5477,029
569,4	5424,4
569,8	5369,743
570,3	5319,6
570,7	5273,686
571,1	5220,857
571,6	5178
572	5136,086
572,5	5096,143
572,9	5047,886
573,4	5008,971
573,8	4968,743
574,3	4931,4
574,7	4879,114
575,2	4841,086
575,6	4789,857
576,1	4756,486
576,5	4720,029
576,9	4678,8
577,4	4634,514
577,8	4591,4
578,3	4552,4
578,7	4515,914
579,2	4471,771
579,6	4427,086
580,1	4384
580,5	4344,657
581	4319,314
581,4	4274,743
581,9	4243,114
582,3	4205,343
582,7	4171,486
583,2	4139,914
583,6	4100,914
584,1	4066,886
584,5	4039,657
585	4002,514
585,4	3963,143
585,9	3922,829
586,3	3891,629
586,8	3863,086
587,2	3827,743
587,6	3798,857
588,1	3765,971
588,5	3743,829
589	3721,057
589,4	3685,143
589,9	3651,629
590,3	3623,714
590,8	3593,2
591,2	3567,629
591,7	3542,286
592,1	3511,571
592,5	3495,571
593	3472,429
593,4	3441,886
593,9	3415,229
594,3	3389,514
594,8	3360,343
595,2	3334,457
595,7	3308,457
596,1	3289,486
596,6	3273,457
597	3253,257
597,4	3236,143
597,9	3216,171
598,3	3199,829
598,8	3171,743
599,2	3150,286
599,7	3126,8
600,1	3106,457
600,6	3077,543
601	3055,371
601,4	3038,714
601,9	3025,286
602,3	3002,571
602,8	2978,886
603,2	2954,029
603,7	2939,914
604,1	2921,286
604,6	2897,543
605	2869,457
605,4	2854,714
605,9	2835,314
606,3	2812,886
606,8	2789,286
607,2	2767,486
607,7	2744,571
608,1	2728,114
608,6	2706,743
609	2693,429
609,4	2680,114
609,9	2664,886
610,3	2648,857
610,8	2634,286
611,2	2612,371
611,7	2593,886
612,1	2570,857
612,6	2556,486
613	2541,6
613,4	2520,743
613,9	2501,886
614,3	2485,314
614,8	2467,6
615,2	2444,429
615,7	2422,343
616,1	2398,286
616,6	2377,229
617	2359,114
617,4	2346
617,9	2330,057
618,3	2319
618,8	2309,8
619,2	2297,171
619,7	2288,143
620,1	2272,114
620,5	2257,114
621	2235,371
621,4	2224,057
621,9	2202,914
622,3	2189,029
622,8	2167,886
623,2	2149,771
623,6	2132,057
624,1	2123,714
624,5	2103
625	2091,943
625,4	2073,686
625,9	2064,371
626,3	2047,486
626,8	2031,2
627,2	2018,8
627,6	1999,257
628,1	1972,914
628,5	1956,971
629	1939,8
629,4	1930,314
629,9	1918,686
630,3	1895,429
630,7	1882,314
631,2	1875,686
631,6	1856,314
632,1	1845,886
632,5	1827,571
633	1812,943
633,4	1804,886
633,8	1795,829
634,3	1775,914
634,7	1766,343
635,2	1747,8
635,6	1740,543
636,1	1727,457
636,5	1708,943
636,9	1691,286
637,4	1685,229
637,8	1668,943
638,3	1660,686
638,7	1643,486
639,2	1632,457
639,6	1628,629
640	1621,629
640,5	1609,771
640,9	1601,343
641,4	1592,2
641,8	1587,743
642,2	1575,086
642,7	1567,657
643,1	1563,514
643,6	1551,6
644	1542,714
644,5	1530,8
644,9	1517,657
645,3	1509,514
645,8	1491,857
646,2	1479,743
646,7	1473,543
647,1	1464,143
647,6	1459,857
648	1455,657
648,4	1443,343
648,9	1434,657
649,3	1420,914
649,8	1414,743
650,2	1403,771
650,6	1391,343
651,1	1377,2
651,5	1373,571
652	1365,771
652,4	1354,229
652,9	1339,057
653,3	1333,771
653,7	1321,2
654,2	1311,257
654,6	1297,429
655,1	1287,029
655,5	1286,457
655,9	1276,571
656,4	1269,629
656,8	1259,457
657,3	1251,343
657,7	1248,4
658,2	1240,086
658,6	1224,886
659	1217,771
659,5	1202,914
659,9	1197
660,4	1186,857
660,8	1177,314
661,2	1170,257
661,7	1162,4
662,1	1152,057
662,6	1149,171
663	1138,743
663,4	1131,8
663,9	1121,8
664,3	1112,971
664,8	1106,286
665,2	1103,286
665,6	1094,943
666,1	1089,257
666,5	1082,029
667	1074,629
667,4	1063,857
667,9	1050,6
668,3	1039,429
668,7	1029,314
669,2	1020,257
669,6	1009,886
670,1	1002,743
670,5	995,857
670,9	992,457
671,4	985,657
671,8	985,257
672,3	983,771
672,7	981,029
673,1	969,771
673,6	963,114
674	956,143
674,5	949,514
674,9	932,086
675,3	918,371
675,8	910,4
676,2	905,771
676,7	898,057
677,1	892,514
677,5	880,314
678	879,571
678,4	879,2
678,9	870,943
679,3	865,629
679,7	861,971
680,2	851,571
680,6	848,4
681,1	839,286
681,5	832,114
681,9	827,914
682,4	825,143
682,8	821,257
683,3	818,857
683,7	811
684,1	805
684,6	799,143
685	792,629
685,5	781,8
685,9	772,571
686,3	764,686
686,8	762,886
687,2	756,771
687,7	748,657
688,1	740,686
688,5	739,543
689	736,943
689,4	737,286
689,9	732,543
690,3	726,829
690,7	722,086
691,2	719,629
691,6	712,029
692	704,143
692,5	696,857
692,9	688,029
693,4	684,743
693,8	683
694,2	675,714
694,7	669,343
695,1	660,629
695,6	657,886
696	655,857
696,4	650,171
696,9	638,2
697,3	633,086
697,8	628,543
698,2	627,514
698,6	621,657
699,1	613,829
699,5	614,457
699,9	612,2
700,4	605,314
700,8	602,4
701,3	600,314
701,7	591,429
702,1	592,971
702,6	581,629
703	581,429
703,5	577,086
703,9	570,257
704,3	567,629
704,8	563,314
705,2	554,486
705,6	552,743
706,1	545
706,5	542,771
707	541,029
707,4	538,229
707,8	534,4
708,3	533,371
708,7	529,943
709,2	525
709,6	517,229
710	517,429
710,5	506,457
710,9	505
711,3	499,114
711,8	495,943
712,2	497,314
712,7	496,286
713,1	491,571
713,5	493,057
714	489,857
714,4	487,143
714,8	485,771
715,3	475,686
715,7	475,114
716,2	466,6
716,6	463,543
717	454,6
717,5	450,2
717,9	447,229
718,3	446,257
718,8	443,657
719,2	443,171
719,7	436,571
720,1	443,486
720,5	446,771
721	441,657
721,4	440,486
721,8	438,6
722,3	429,114
722,7	430,371
723,2	417,943
723,6	402,686
724	397,286
724,5	389,771
724,9	384,343
725,3	386,771
725,8	379,457
726,2	377,629
726,7	381,143
727,1	375,171
727,5	373,886
728	367,686
728,4	363,886
728,8	361,257
729,3	357,229
729,7	354,143
730,1	356,2
730,6	355,686
731	353
731,5	348,571
731,9	343,686
732,3	343,257
732,8	340,771
733,2	338,714
733,6	330,229
734,1	333,029
734,5	332,429
734,9	332,829
735,4	332,429
735,8	328,543
736,3	328,571
736,7	333,857
737,1	331,743
737,6	330,086
738	329,743
738,4	327,743
738,9	327,171
739,3	324,143
739,7	322,457
740,2	319,429
740,6	317,571
741,1	317,914
741,5	310,486
741,9	309,229
742,4	309,286
742,8	305,171
743,2	307,057
743,7	302,686
744,1	300,914
744,5	300,8
745	299,029
745,4	291,257
745,8	286,543
746,3	278,886
746,7	272,4
747,2	265,171
747,6	269,343
748	269
748,5	272,714
748,9	270,086
749,3	269,571
749,8	272,229
750,2	277,143
750,6	271,114
751,1	269,314
751,5	262,4
751,9	263,857
752,4	262,8
752,8	265,8
753,3	259,829
753,7	262
754,1	257,2
754,6	254,457
755	246,171
755,4	241,171
755,9	237,086
756,3	233,971
756,7	230,829
757,2	230,914
757,6	233,6
758	235,314
758,5	235,857
758,9	235,143
759,3	234,629
759,8	232,343
760,2	231,714
760,6	227,286
761,1	226,029
761,5	225,686
761,9	221,6
762,4	218
762,8	216,629
763,3	212,657
763,7	214,971
764,1	214,543
764,6	214,286
765	217,114
765,4	216,714
765,9	214,257
766,3	216,629
766,7	213,057
767,2	211,171
767,6	209,8
768	206,029
768,5	204,714
768,9	207,6
769,3	203,143
769,8	201,686
770,2	206,314
770,6	202,429
771,1	203,114
771,5	201,371
771,9	196,457
772,4	198,6
772,8	193,629
773,2	190,371
773,7	187,857
774,1	185,286
774,5	179,886
775	176,886
775,4	174,743
775,8	172,514
776,3	170,857
776,7	168,057
777,1	168,286
777,6	169,771
778	174,6
778,4	169,4
778,9	172,086
779,3	169,629
779,7	172,743
780,2	170,714
780,6	169,114
781	162,6
781,5	158,171
781,9	158,457
782,3	153,629
782,8	153,229
783,2	150,914
783,6	156,6
784,1	159
784,5	160,743
784,9	157,086
785,4	159,114
785,8	158,371
786,2	158,686
786,7	153,514
787,1	148,714
787,5	154,571
788	154,486
788,4	153,886
788,8	151,371
789,3	147,714
789,7	147,514
790,1	147,686
790,6	142,914
791	138,314
791,4	137,143
791,9	135,114
792,3	133,171
792,7	134,914
793,2	131,714
793,6	133,514
794	138,429
794,5	134,657
794,9	136,743
795,3	139,171
795,8	132,657
796,2	134,486
796,6	130,314
797,1	124,371
797,5	124,257
797,9	121,686
798,4	113,743
798,8	113,371
799,2	107,2
799,7	106,914
800,1	107
800,5	107,657
801	109,229
801,4	114,171
801,8	112,571
802,2	117,086
802,7	117,457
803,1	114,771
803,5	117,171
804	113,743
804,4	112,029
804,8	113,514
805,3	116,057
805,7	114,971
806,1	114
806,6	109,029
807	107,371
807,4	107
807,9	103,229
808,3	97,886
808,7	95,514
809,2	101,629
809,6	102,143
810	102
810,4	102,029
810,9	106,486
811,3	108,743
811,7	108,514
812,2	109,686
812,6	109,343
813	113,086
813,5	112,686
813,9	111,257
814,3	108,029
814,8	107,6
815,2	103,057
815,6	102,971
816,1	98,6
816,5	95,486
816,9	96,886
817,3	94,829
817,8	95,8
818,2	97,229
818,6	93,6
819,1	93,543
819,5	91,857
819,9	89,971
820,4	90,943
820,8	88,057
821,2	82,114
821,7	83,857
822,1	87,571
822,5	95
822,9	94,486
823,4	92,371
823,8	94,086
824,2	98,029
824,7	95,257
825,1	88,629
825,5	82,686
826	77,771
826,4	79,686
826,8	80,2
827,3	78,686
827,7	77,914
828,1	78,971
828,5	79,086
829	77,143
829,4	75,457
829,8	66,057
830,3	65,571
830,7	64,257
831,1	63,057
831,6	63,629
832	66,571
832,4	65,457
832,8	69,314
833,3	64,4
833,7	65,429
834,1	61,714
834,6	57,857
835	60
835,4	62,486
835,8	59,571
836,3	63,257
836,7	65,657
837,1	67,2
837,6	67,886
838	61,743
838,4	56,486
838,9	58,714
839,3	54,171
839,7	52,486
840,1	47,943
840,6	48
841	50,171
841,4	52,286
841,9	52,6
842,3	56,2
842,7	55,8
843,1	61,429
843,6	62,371
844	61,514
844,4	62,771
844,9	65,343
845,3	66,514
845,7	64,286
846,2	61,571
846,6	56,029
847	57,429
847,4	56,229
847,9	56
848,3	52,314
848,7	52,457
849,2	53,914
849,6	55,486
850	59,8
850,4	62,429
850,9	60,229
851,3	61,886
851,7	58,914
852,2	56,971
852,6	57,714
853	54,714
853,4	50,029
853,9	48,286
854,3	45,543
854,7	49,171
855,2	48,457
855,6	50,257
856	46
856,4	41,143
856,9	38,629
857,3	38,257
857,7	39,8
858,2	45,657
858,6	43,086
859	45,286
859,4	50,457
859,9	52,943
860,3	50,314
860,7	45,429
861,1	41,286
861,6	40,4
862	41,686
862,4	40,429
862,9	39,829
863,3	42,343
863,7	40,943
864,1	40,543
864,6	39,314
865	31,829
865,4	34,143
865,9	34,714
866,3	31,829
866,7	34,629
867,1	32,029
867,6	32,057
868	33,771
868,4	30,429
868,8	29,4
869,3	28,8
869,7	33,514
870,1	31,457
870,6	30,314
871	12,171
871,4	20,171
871,8	17,143
872,3	20,743
872,7	15,229
873,1	19,086
873,5	21,771
874	41,086
874,4	37,486
874,8	39,143
875,3	38,086
875,7	34,543
876,1	32,857
876,5	30,057
877	27,571
877,4	20,429
877,8	22,286
878,2	24,486
878,7	29,886
879,1	30,886
879,5	34,114
879,9	35,629
880,4	38,6
880,8	35,857
881,2	33,743
881,7	29,429
882,1	28,257
882,5	24,343
882,9	25,686
883,4	23,286
883,8	25,571
884,2	24,629
884,6	25
885,1	24,429
885,5	22,2
885,9	17,314
886,3	19,029
886,8	17,343
887,2	16,943
887,6	14,629
888	11
888,5	15,657
888,9	17,429
889,3	12,029
889,8	11,629
890,2	11,8
890,6	13,914
891	16,714
891,5	13,914
891,9	12,229
892,3	16,086
892,7	16,171
893,2	18,143
893,6	21,514
894	24,029
894,4	25,657
894,9	26,571
895,3	28,4
895,7	29,143
896,1	28,114
896,6	24,343
897	24,6
897,4	26,2
897,8	31,114
898,3	31,4
898,7	29,029
899,1	29,314
899,5	26,4
900	20,971
900,4	19,543
900,8	12,943
901,2	6,886
901,7	4,343
902,1	3,457
902,5	7,943
902,9	13,914
903,4	14
903,8	16,343
904,2	18,514
904,6	22,086
905,1	23
905,5	21
905,9	19,857
906,3	22,429
906,8	24,743
907,2	25,343
907,6	24,229
908	21,886
908,5	21,629
908,9	15,714
909,3	10,457
909,7	9,629
910,2	12,486
910,6	16,343
911	12,029
911,4	13,486
911,9	13,543
912,3	14,314
912,7	16,029
913,1	17,029
913,6	10,971
914	16,114
914,4	12,886
914,8	15,029
915,3	12,914
915,7	14,114
916,1	8,114
916,5	11,543
916,9	11,286
917,4	13,886
917,8	16,257
918,2	14,686
918,6	7,4
919,1	13,286
919,5	12,857
919,9	13,914
920,3	11,714
920,8	10,714
921,2	13,4
921,6	17,029
922	14,429
922,5	14,143
922,9	14,629
923,3	17,4
923,7	14,743
924,2	13,086
924,6	12,971
925	15,629
925,4	13,514
925,8	11,6
926,3	7,4
926,7	6,4
927,1	9,2
927,5	7,657
928	-1,8
928,4	-6,257
928,8	-3,657
929,2	-4,886
929,7	-2,429
930,1	-1,743
930,5	-5,657
930,9	2,457
931,3	7,571
931,8	4,371
932,2	7,457
932,6	6,686
933	1
933,5	6,6
933,9	5,314
934,3	7,943
934,7	4,2
935,2	7,086
935,6	7,371
936	9,286
936,4	6,686
936,8	6,514
937,3	3,686
937,7	9,571
938,1	10,229
938,5	10,314
939	11,029
939,4	14,057
939,8	13,429
940,2	10,143
940,6	8,229
941,1	6,257
941,5	9,171
941,9	8,057
942,3	5,171
942,8	5,029
943,2	8,714
943,6	5,771
944	4,857
944,4	3,571
944,9	5,514
945,3	6,286
945,7	-0,029
946,1	-3,857
946,6	-5,457
947	-7,829
947,4	-7,743
947,8	-7,257
948,2	-7,829
948,7	-2,629
949,1	-1
949,5	8,6
949,9	11,171
950,3	11,429
950,8	11,6
951,2	11,029
951,6	9,086
952	12,714
952,5	1,8
952,9	0,543
953,3	-1,143
953,7	-2,543
954,1	-1,543
954,6	1,543
955	0,486
955,4	2,257
955,8	5,057
956,2	2,429
956,7	5,2
957,1	3,629
957,5	2,457
957,9	-1,086
958,3	-1,943
958,8	0,514
959,2	4,057
959,6	1,686
960	2,971
960,5	7,771
960,9	11,629
961,3	13,143
961,7	8,514
962,1	9,143
962,6	10,457
963	9,829
963,4	3,429
963,8	4,057
964,2	6,543
964,7	7,8
965,1	10,657
965,5	9,571
965,9	10,714
966,3	12,429
966,8	12,6
967,2	13,686
967,6	17,743
968	7,543
968,4	5,229
968,9	6,143
969,3	7,229
969,7	1,914
970,1	1
970,5	-6,629
971	0,743
971,4	4,486
971,8	3,343
972,2	4,943
972,6	5,057
973,1	2,171
973,5	6
973,9	5,029
974,3	3,143
974,7	6,086
975,2	2,257
975,6	3,371
976	5,771
976,4	0,514
976,8	1,086
977,3	-0,086
977,7	-4,971
978,1	-4,714
978,5	-2,086
978,9	-4,829
979,4	-3,8
979,8	-5,771
980,2	-4,686
980,6	-8,4
981	-4,829
981,5	-4,629
981,9	-2,771
982,3	-1,343
982,7	-3,314
983,1	-5,2
983,6	-1,143
984	-6,114
984,4	-7,4
984,8	-4,114
985,2	-4,629
985,6	-6,371
986,1	-4,686
986,5	-4,886
986,9	-5,029
987,3	-1,771
987,7	-2,971
988,2	-4,114
988,6	0,229
989	2
989,4	3,371
989,8	5,2
990,3	2,686
990,7	1,029
991,1	5,229
991,5	5,2
991,9	7,886
992,3	9,886
992,8	10,429
993,2	8,886
993,6	8,343
994	9,857
994,4	12,714
994,9	7,971
995,3	3,914
995,7	0,029
996,1	-0,486
996,5	1,571
996,9	-4,086
997,4	-9,257
997,8	-11,029
998,2	-10,543
998,6	-9,971
999	-6,886
999,5	-12,571
999,9	-12,914
1000,3	-12,257
1000,7	-12,429
1001,1	-10,2
1001,5	-6,686
1002	-6,314
1002,4	-0,057
1002,8	3,057
1003,2	7,2
1003,6	6,743
1004	7,286
1004,5	5,114
1004,9	2,686
1005,3	-4,086
1005,7	-6,057
1006,1	-9,686
1006,6	-9,743
1007	-6,457
1007,4	-5,514
1007,8	-4,6
1008,2	-1,943
1008,6	0,543
1009,1	0,086
1009,5	4,657
1009,9	3,886
1010,3	4,571
1010,7	3,771
1011,1	4,514
1011,6	5,171
1012	3,886
1012,4	-0,343
1012,8	-2,257
1013,2	1,457
1013,6	0,2
1014,1	-0,286
1014,5	-2,857
1014,9	1
1015,3	0,886
1015,7	0,143
1016,1	-2,143
1016,6	-3,771
1017	-3
1017,4	-0,286
1017,8	-6,2
1018,2	-1,457
1018,6	-6,971
1019,1	-8,229
1019,5	-6,286
1019,9	-7,343
1020,3	-9,229
1020,7	-3,914
1021,1	-5,429
1021,6	-2,714
1022	-1,029
1022,4	-2,514
1022,8	0,543
1023,2	-0,4
1023,6	-0,057
1024,1	5,771
1024,5	7,314
1024,9	4,371
1025,3	6,914
1025,7	3,2
1026,1	7,2
1026,6	5,886
1027	0,114
1027,4	-2,629
1027,8	-2,314
1028,2	-4,486
1028,6	3,8
1029	0,514
1029,5	2,914
1029,9	-0,714
1030,3	0,629
1030,7	-0,457
1031,1	2,6
1031,5	-7,057
1032	-5,657
1032,4	-5,314
1032,8	-1,514
1033,2	1,6
1033,6	1,629
1034	0,314
1034,4	1,914
1034,9	1,943
1035,3	-6,057
1035,7	-5,086
1036,1	-7,886
1036,5	-7,2
1036,9	-4,343
1037,4	0,257
1037,8	-6,829
1038,2	-5,229
1038,6	-7,457
1039	-6,257
1039,4	-0,086
1039,8	-4,943
1040,3	-5,343
1040,7	-3,057
1041,1	1,886
1041,5	1,457
1041,9	0,771
1042,3	-5,914
1042,7	-1,971
1043,2	-6,971
1043,6	-5,171
1044	-6,657
1044,4	-4,343
1044,8	-4,086
1045,2	0,8
1045,6	-2,486
1046,1	-3,029
1046,5	-2,914
1046,9	-3,143
1047,3	-6,629
1047,7	-7,686
1048,1	-9,229
1048,5	-6,686
1049	-1,857
1049,4	1,771
1049,8	3,829
1050,2	10,771
1050,6	14,057
1051	14,514
1051,4	15,114
1051,9	12,629
1052,3	17,571
1052,7	15,543
1053,1	9
1053,5	8,943
1053,9	7,286
1054,3	3,686
1054,8	8,971
1055,2	3,371
1055,6	8,714
1056	8,371
1056,4	5,314
1056,8	6,571
1057,2	9,029
1057,6	2,457
1058,1	-1,514
1058,5	-6,657
1058,9	-3,6
1059,3	0,429
1059,7	2,4
1060,1	4,743
1060,5	6,257
1061	10,229
1061,4	11,371
1061,8	11,943
1062,2	4,486
1062,6	3,629
1063	6,2
1063,4	9,314
1063,8	8,571
1064,3	3,6
1064,7	-0,429
1065,1	3,943
1065,5	-2,657
1065,9	-11,429
1066,3	-16,286
1066,7	-17,429
1067,1	-16,886
1067,6	-13,314
1068	-16,829
1068,4	-11,171
1068,8	-4,771
1069,2	-1,886
1069,6	0,429
1070	3,6
1070,4	3,514
1070,9	7
1071,3	4,171
1071,7	1,086
1072,1	4,2
1072,5	-0,114
1072,9	1,229
1073,3	2,971
1073,7	2,029
1074,2	3,086
1074,6	0,543
1075	-3,514
1075,4	0,8
1075,8	0,486
1076,2	-1,114
1076,6	-1,086
1077	-1,857
1077,5	4,743
1077,9	3,029
1078,3	1,914
1078,7	-1,286
1079,1	0,743
1079,5	3,4
1079,9	3,6
1080,3	0,371
1080,7	4,229
1081,2	6,2
1081,6	7,257
1082	-0,571
1082,4	-0,429
1082,8	1,857
1083,2	2,114
1083,6	2,4
1084	-4
1084,5	-0,971
1084,9	5,143
1085,3	-0,429
1085,7	-2,286
1086,1	-5,286
1086,5	-5,371
1086,9	3,486
1087,3	1,457
1087,7	1,971
1088,2	3,886
1088,6	1,086
1089	3,8
1089,4	1,857
1089,8	-0,714
1090,2	-2,143
1090,6	-3,286
1091	-3
1091,4	-0,086
1091,9	1,343
1092,3	1,743
1092,7	-3,143
1093,1	0,857
1093,5	2,057
1093,9	5,257
1094,3	8,857
1094,7	6,686
1095,1	7,4
1095,5	12,229
1096	14,543
1096,4	11,629
1096,8	8,371
1097,2	2,743
1097,6	8,886
1098	7,2
1098,4	6,314
1098,8	3,657
1099,2	10,8
1099,6	13,343
1100,1	14,029
1100,5	6,171
1100,9	6,686
1101,3	6,514
1101,7	5,686
1102,1	-0,4
1102,5	2,457
1102,9	6,829
1103,3	12,314
1103,7	15,857
1104,2	14,543
1104,6	16,371
1105	15,629
1105,4	12,571
1105,8	9,314
1106,2	5,943
1106,6	2,686
1107	3,057
1107,4	-0,133
1107,8	1,16
1108,3	-0,05
