Data from Subt2_174.txt Node
Date: Sat Aug 26 18:38:08 MSK 2023
User: vat
Spectrometer: MAYP114033
Trigger mode: 0
Integration Time (sec): 1,000000E0
Scans to average: 5
Electric dark correction enabled: true
Nonlinearity correction enabled: false
Boxcar width: 3
XAxis mode: Wavelengths
Number of Pixels in Spectrum: 2068
>>>>>Begin Spectral Data<<<<<
199,4	-0,067
199,9	1,893
200,4	0,167
200,8	1,648
201,3	-1,667
201,8	4,248
202,2	2,305
202,7	8,248
203,2	5,076
203,6	4,448
204,1	-0,695
204,6	0,362
205	-3,495
205,5	0,276
206	-6,524
206,4	-6,381
206,9	-4,638
207,4	1,99
207,8	5,19
208,3	3,133
208,8	0,59
209,2	1,19
209,7	3,448
210,2	3,362
210,6	0,848
211,1	1,962
211,5	-2,21
212	-3,067
212,5	2,19
212,9	1,419
213,4	3,79
213,9	3,019
214,3	1,276
214,8	11,562
215,3	12,505
215,7	6,933
216,2	6,705
216,7	4,619
217,1	2,962
217,6	6,705
218,1	3,448
218,5	1,048
219	-3,581
219,5	-4,752
219,9	-6,724
220,4	-0,095
220,9	-2,638
221,3	-4,838
221,8	-3,61
222,3	2,705
222,7	7,305
223,2	11,705
223,6	6,676
224,1	1,819
224,6	1,048
225	1,162
225,5	-2,038
226	-6,124
226,4	-6,095
226,9	-2,838
227,4	1,933
227,8	-0,467
228,3	-0,438
228,8	4,705
229,2	8,105
229,7	2,99
230,2	1,133
230,6	3,476
231,1	7,276
231,5	11,076
232	7,19
232,5	6,99
232,9	10,962
233,4	10,962
233,9	8,962
234,3	6,619
234,8	3,476
235,3	2,162
235,7	4,133
236,2	5,876
236,7	7,705
237,1	9,076
237,6	5,933
238,1	7,019
238,5	4,048
239	4,705
239,4	4,619
239,9	0,305
240,4	0,648
240,8	8,019
241,3	2,676
241,8	5,048
242,2	-0,238
242,7	-2,81
243,2	-2,952
243,6	-10,067
244,1	-12,438
244,6	-9,781
245	-6,924
245,5	-3,895
245,9	-6,867
246,4	-5,724
246,9	0,705
247,3	-2,61
247,8	-1,61
248,3	1,59
248,7	1,733
249,2	5,733
249,7	9,419
250,1	11,848
250,6	16,133
251	19,162
251,5	17,448
252	15,562
252,4	17,162
252,9	12,876
253,4	10,876
253,8	6,676
254,3	7,59
254,8	6,162
255,2	1,562
255,7	-1,981
256,1	0,219
256,6	0,076
257,1	3,362
257,5	-0,124
258	-1,067
258,5	0,59
258,9	5,39
259,4	1,99
259,9	0,333
260,3	-2,295
260,8	-3,152
261,2	-1,41
261,7	3,276
262,2	-4,981
262,6	-6,124
263,1	-5,238
263,6	-2,295
264	3,19
264,5	6,533
264,9	3,133
265,4	10,019
265,9	11,905
266,3	16,048
266,8	17,305
267,3	13,248
267,7	7,305
268,2	9,476
268,7	9,99
269,1	13,933
269,6	9,562
270	5,219
270,5	0,819
271	7,333
271,4	7,276
271,9	1,333
272,4	0,619
272,8	-0,41
273,3	-0,724
273,7	5,505
274,2	3,419
274,7	0,905
275,1	2,248
275,6	0,619
276,1	0,105
276,5	2,105
277	0,762
277,4	-0,381
277,9	1,505
278,4	4,333
278,8	6,648
279,3	8,248
279,8	12,19
280,2	13,219
280,7	14,762
281,1	11,905
281,6	10,219
282,1	7,219
282,5	2,79
283	-1,981
283,4	-1,581
283,9	-4,238
284,4	-2,267
284,8	-2,924
285,3	0,019
285,8	4,79
286,2	2,648
286,7	-0,581
287,1	-5,152
287,6	-6,01
288,1	-7,467
288,5	-9,438
289	-9,295
289,5	-4,21
289,9	-2,181
290,4	3,219
290,8	5,333
291,3	8,19
291,8	11,448
292,2	8,305
292,7	4,876
293,1	5,933
293,6	7,305
294,1	5,59
294,5	6,219
295	5,276
295,5	4,276
295,9	8,733
296,4	6,533
296,8	4,848
297,3	6,419
297,8	2,076
298,2	-1,381
298,7	2,019
299,1	-1,381
299,6	-1,438
300,1	-0,924
300,5	0,705
301	3,19
301,5	9,105
301,9	5,133
302,4	7,39
302,8	7,505
303,3	3,19
303,8	-2,01
304,2	-2,752
304,7	-8,381
305,1	-9,552
305,6	-10,152
306,1	-4,924
306,5	-0,781
307	4,333
307,4	9,562
307,9	12,619
308,4	15,333
308,8	10,619
309,3	4,905
309,8	8,79
310,2	6,219
310,7	0,076
311,1	-1,41
311,6	0,79
312,1	3,762
312,5	6,533
313	2,79
313,4	3,419
313,9	6,448
314,4	3,562
314,8	-0,61
315,3	-1,324
315,7	-8,01
316,2	-8,381
316,7	-8,724
317,1	-4,324
317,6	-0,638
318	3,848
318,5	5,362
319	10,562
319,4	10,105
319,9	15,962
320,3	9,362
320,8	5,648
321,3	9,076
321,7	11,619
322,2	9,705
322,6	15,019
323,1	9,848
323,6	10,848
324	11,476
324,5	4,419
324,9	4,505
325,4	2,305
325,9	2,876
326,3	2,505
326,8	5,219
327,2	3,305
327,7	4,59
328,2	6,562
328,6	13,448
329,1	6,019
329,5	8,676
330	6,048
330,5	12,762
330,9	15,305
331,4	13,162
331,8	8,619
332,3	8,362
332,8	8,448
333,2	8,962
333,7	10,79
334,1	8,248
334,6	4,733
335,1	1,676
335,5	3,59
336	-0,238
336,4	0,59
336,9	1,305
337,4	4,59
337,8	5,79
338,3	12,705
338,7	14,848
339,2	13,105
339,7	13,676
340,1	5,362
340,6	4,99
341	3,876
341,5	-0,152
342	-2,438
342,4	3,305
342,9	1,019
343,3	5,362
343,8	5,19
344,2	6,819
344,7	10,962
345,2	10,562
345,6	12,733
346,1	15,505
346,5	11,762
347	12,162
347,5	10,305
347,9	11,819
348,4	10,676
348,8	8,248
349,3	8,505
349,8	13,676
350,2	16,648
350,7	15,59
351,1	15,076
351,6	19,448
352	20,848
352,5	25,019
353	32,019
353,4	34,59
353,9	50,505
354,3	61,79
354,8	73,248
355,3	96,762
355,7	117,762
356,2	138,019
356,6	163,648
357,1	190,476
357,5	223,819
358	266,533
358,5	303,105
358,9	348,333
359,4	401,79
359,8	464,876
360,3	540,905
360,8	615,476
361,2	704,505
361,7	795,076
362,1	901,848
362,6	1017,905
363	1143,133
363,5	1262,533
364	1405,505
364,4	1543,39
364,9	1692,676
365,3	1831,619
365,8	1963,219
366,3	2086,962
366,7	2204,733
367,2	2303,733
367,6	2384,19
368,1	2449,619
368,5	2493,419
369	2515,505
369,5	2523,848
369,9	2510,676
370,4	2471,648
370,8	2421,762
371,3	2348,276
371,7	2268,962
372,2	2176,648
372,7	2068,276
373,1	1956,133
373,6	1843,276
374	1729,99
374,5	1613,219
374,9	1495,819
375,4	1389,848
375,9	1283,876
376,3	1186,933
376,8	1091,676
377,2	999,619
377,7	918,59
378,2	842,19
378,6	769,99
379,1	709,105
379,5	650,448
380	599,619
380,4	550,533
380,9	504,419
381,4	461,39
381,8	425,733
382,3	393,619
382,7	364,848
383,2	336,876
383,6	312,533
384,1	293,876
384,6	279,133
385	257,505
385,5	237,048
385,9	219,505
386,4	202,905
386,8	190,79
387,3	175,248
387,7	163,276
388,2	156,019
388,7	145,99
389,1	132,419
389,6	123,705
390	109,59
390,5	104,619
390,9	100,59
391,4	92,505
391,9	86,59
392,3	84,962
392,8	78,619
393,2	74,305
393,7	72,105
394,1	61,162
394,6	59,99
395,1	59,162
395,5	56,99
396	59,562
396,4	61,219
396,9	56,79
397,3	65,848
397,8	64,019
398,2	62,133
398,7	61,619
399,2	58,419
399,6	55,848
400,1	57,162
400,5	48,562
401	47,79
401,4	44,733
401,9	45,762
402,4	45,419
402,8	42,733
403,3	42,048
403,7	38,762
404,2	40,19
404,6	42,219
405,1	39,448
405,5	39,819
406	46,276
406,5	44,962
406,9	51,79
407,4	51,133
407,8	55,248
408,3	59,248
408,7	62,419
409,2	68,933
409,6	75,362
410,1	83,819
410,6	91,39
411	96,905
411,5	101,105
411,9	109,933
412,4	111,705
412,8	122,39
413,3	125,305
413,7	130,619
414,2	132,962
414,7	144,162
415,1	152,933
415,6	163,476
416	167,448
416,5	176,79
416,9	188,419
417,4	202,819
417,8	214,533
418,3	222,219
418,8	233,79
419,2	247,048
419,7	257,79
420,1	268,762
420,6	282,79
421	292,419
421,5	311,676
421,9	327,99
422,4	345,19
422,8	362,362
423,3	378,248
423,8	390,219
424,2	408,048
424,7	422,076
425,1	439,533
425,6	460,99
426	478,905
426,5	500,59
426,9	528,419
427,4	551,648
427,9	570,419
428,3	596,99
428,8	619,133
429,2	647,99
429,7	675,248
430,1	702,705
430,6	739,933
431	780,162
431,5	816,848
431,9	854,619
432,4	894,59
432,8	941,562
433,3	989,305
433,8	1031,905
434,2	1083,79
434,7	1134,105
435,1	1190,162
435,6	1250,219
436	1308,333
436,5	1369,648
436,9	1432,819
437,4	1494,305
437,8	1564,562
438,3	1634,276
438,8	1711,19
439,2	1786,533
439,7	1867,362
440,1	1945,305
440,6	2037,219
441	2117,39
441,5	2207,219
441,9	2296,333
442,4	2388,333
442,8	2481,876
443,3	2591,076
443,7	2692,133
444,2	2806,162
444,7	2917,99
445,1	3032,59
445,6	3156,019
446	3278,505
446,5	3393,019
446,9	3516,219
447,4	3641,676
447,8	3772,705
448,3	3914,876
448,7	4056,905
449,2	4207,733
449,6	4363,562
450,1	4521,562
450,6	4687,076
451	4851,705
451,5	5015,19
451,9	5177,733
452,4	5347,333
452,8	5511,333
453,3	5679,933
453,7	5851,905
454,2	6032,533
454,6	6211,219
455,1	6397,162
455,5	6577,276
456	6772,448
456,4	6958,676
456,9	7152,362
457,3	7346,99
457,8	7539,733
458,3	7734,019
458,7	7940,848
459,2	8141,019
459,6	8352,819
460,1	8562,79
460,5	8764,733
461	8983,219
461,4	9196,819
461,9	9413,362
462,3	9634,333
462,8	9850,733
463,2	10053,39
463,7	10275,705
464,1	10479,962
464,6	10701,476
465	10911,448
465,5	11131,619
466	11344,219
466,4	11562,219
466,9	11770,619
467,3	11986,933
467,8	12188,276
468,2	12390,99
468,7	12591,705
469,1	12802,905
469,6	13009,59
470	13217,19
470,5	13424,133
470,9	13632,419
471,4	13836,99
471,8	14027,848
472,3	14224,933
472,7	14420,648
473,2	14600,876
473,6	14783,133
474,1	14963,762
474,5	15137,705
475	15318,076
475,4	15489,705
475,9	15653,876
476,4	15829,705
476,8	15984,105
477,3	16131,019
477,7	16285,562
478,2	16434,962
478,6	16568,705
479,1	16693,276
479,5	16811,676
480	16934,19
480,4	17065,962
480,9	17181,676
481,3	17281,362
481,8	17389,362
482,2	17496,819
482,7	17601,59
483,1	17696,39
483,6	17770,448
484	17840,39
484,5	17914,505
484,9	17972,076
485,4	18031,105
485,8	18075,048
486,3	18123,562
486,7	18171,705
487,2	18211,819
487,6	18244,876
488,1	18267,962
488,5	18277,79
489	18295,39
489,4	18306,733
489,9	18301,848
490,4	18290,762
490,8	18289,533
491,3	18290,448
491,7	18282,048
492,2	18263,819
492,6	18226,448
493,1	18195,79
493,5	18161,362
494	18105,762
494,4	18053,905
494,9	18010,962
495,3	17957,762
495,8	17895,476
496,2	17837,705
496,7	17774,99
497,1	17719,419
497,6	17651,933
498	17575,133
498,5	17496,162
498,9	17419,105
499,4	17338,962
499,8	17262,933
500,3	17178,448
500,7	17076,648
501,2	16981,705
501,6	16878,333
502,1	16794,733
502,5	16695,79
503	16592,676
503,4	16471,876
503,9	16372,733
504,3	16268,019
504,8	16161,276
505,2	16039,99
505,7	15927,79
506,1	15815,905
506,6	15705,676
507	15584,619
507,5	15471,79
507,9	15360,933
508,4	15233,99
508,8	15108,848
509,3	14976,676
509,7	14848,362
510,2	14715,705
510,6	14581,248
511,1	14445,848
511,5	14322,819
512	14183,048
512,4	14050,962
512,9	13922,905
513,3	13797,333
513,8	13658,99
514,2	13513,333
514,7	13389,39
515,1	13263,419
515,6	13141,562
516	13008,448
516,5	12881,362
516,9	12752,79
517,4	12635,648
517,8	12501,648
518,3	12371,39
518,7	12221,476
519,2	12091,362
519,6	11956,905
520,1	11816,819
520,5	11685,876
521	11548,133
521,4	11415,048
521,9	11296,19
522,3	11176,562
522,8	11049,619
523,2	10945,362
523,7	10827,705
524,1	10706,79
524,6	10592,876
525	10484,276
525,5	10362,305
525,9	10262,248
526,4	10136,476
526,8	10024,162
527,3	9914,79
527,7	9805,333
528,2	9699,333
528,6	9586,619
529,1	9473,219
529,5	9373,705
530	9269,076
530,4	9166,876
530,9	9070,905
531,3	8959,419
531,8	8865,648
532,2	8758,076
532,6	8659,419
533,1	8557,705
533,5	8462,733
534	8360,448
534,4	8271,305
534,9	8181,248
535,3	8094,448
535,8	8012,933
536,2	7930,419
536,7	7849,105
537,1	7768,133
537,6	7684,533
538	7606,476
538,5	7523,762
538,9	7432,819
539,4	7355,448
539,8	7274,362
540,3	7197,248
540,7	7125,19
541,2	7037,905
541,6	6968,362
542,1	6897,933
542,5	6820,99
543	6750,562
543,4	6681,648
543,9	6610,076
544,3	6550,276
544,8	6483,448
545,2	6417,333
545,7	6359,733
546,1	6296,962
546,5	6238,733
547	6177,105
547,4	6116,448
547,9	6057,248
548,3	6007,848
548,8	5944,105
549,2	5881,619
549,7	5820,133
550,1	5755,619
550,6	5704,562
551	5651,133
551,5	5593,276
551,9	5542,105
552,4	5501,019
552,8	5454,219
553,3	5409,705
553,7	5352,705
554,2	5305,819
554,6	5260,676
555,1	5211,219
555,5	5162,276
555,9	5117,648
556,4	5084,162
556,8	5043,419
557,3	5002,676
557,7	4964,39
558,2	4919,762
558,6	4879,076
559,1	4832,819
559,5	4783,962
560	4748,733
560,4	4707,048
560,9	4660,133
561,3	4624,905
561,8	4586,133
562,2	4550,162
562,7	4515,305
563,1	4484,019
563,6	4444,162
564	4405,619
564,4	4373,705
564,9	4342,019
565,3	4312,133
565,8	4278,79
566,2	4243,248
566,7	4213,962
567,1	4189,905
567,6	4157,562
568	4124,762
568,5	4094,99
568,9	4067,362
569,4	4038,248
569,8	4012,219
570,3	3981,105
570,7	3949,076
571,1	3920,533
571,6	3891,876
572	3860,705
572,5	3825,99
572,9	3791,305
573,4	3764,19
573,8	3741,59
574,3	3711,962
574,7	3681,162
575,2	3651,733
575,6	3624,476
576,1	3608,905
576,5	3584,962
576,9	3555,848
577,4	3534,219
577,8	3510,848
578,3	3491,276
578,7	3468,476
579,2	3442,705
579,6	3413,933
580,1	3389,619
580,5	3366,676
581	3343,676
581,4	3318,248
581,9	3296,39
582,3	3268,59
582,7	3248,562
583,2	3228,219
583,6	3205,276
584,1	3180,762
584,5	3157,219
585	3133,99
585,4	3109,333
585,9	3089,733
586,3	3071,048
586,8	3053,59
587,2	3035,333
587,6	3017,362
588,1	3002,305
588,5	2989,248
589	2972,99
589,4	2952,276
589,9	2927,362
590,3	2908,505
590,8	2892,876
591,2	2873,19
591,7	2855,276
592,1	2832,648
592,5	2820,79
593	2807,648
593,4	2789,962
593,9	2769,419
594,3	2755,819
594,8	2740,162
595,2	2723,162
595,7	2708,619
596,1	2693,905
596,6	2683,619
597	2671,876
597,4	2661,105
597,9	2640,362
598,3	2632,248
598,8	2616,905
599,2	2600,048
599,7	2577,962
600,1	2558,905
600,6	2539,19
601	2529,162
601,4	2513,305
601,9	2496,333
602,3	2480,733
602,8	2476,476
603,2	2468,019
603,7	2453,676
604,1	2446,505
604,6	2429,99
605	2414,133
605,4	2404,048
605,9	2386,99
606,3	2370,933
606,8	2356,99
607,2	2334,933
607,7	2323,076
608,1	2309,733
608,6	2295,219
609	2283,076
609,4	2273,533
609,9	2257,448
610,3	2243,705
610,8	2226,819
611,2	2213,276
611,7	2205,019
612,1	2190,648
612,6	2176,162
613	2169,533
613,4	2160,076
613,9	2150,133
614,3	2138,133
614,8	2124,648
615,2	2110,39
615,7	2099,105
616,1	2086,505
616,6	2072,59
617	2058,619
617,4	2051,019
617,9	2036,105
618,3	2029,19
618,8	2019,648
619,2	2003,333
619,7	1993,733
620,1	1983,733
620,5	1972,762
621	1959,305
621,4	1948,705
621,9	1932,276
622,3	1921,962
622,8	1907,476
623,2	1896,333
623,6	1882,105
624,1	1875,819
624,5	1864,39
625	1854,305
625,4	1844,105
625,9	1835,848
626,3	1823,533
626,8	1809,476
627,2	1796,39
627,6	1772,133
628,1	1755,305
628,5	1744,848
629	1729,448
629,4	1717,733
629,9	1705,533
630,3	1687,476
630,7	1680,019
631,2	1671,476
631,6	1660,305
632,1	1652,905
632,5	1644,276
633	1633,905
633,4	1624,533
633,8	1613,076
634,3	1602,762
634,7	1589,819
635,2	1578,362
635,6	1567,79
636,1	1555,876
636,5	1545,419
636,9	1531,562
637,4	1521,219
637,8	1507,476
638,3	1490,762
638,7	1477,333
639,2	1469,248
639,6	1460,162
640	1458,333
640,5	1447,59
640,9	1444,305
641,4	1438,99
641,8	1435,533
642,2	1426,333
642,7	1424,476
643,1	1417,962
643,6	1405,819
644	1399,476
644,5	1395,762
644,9	1383,619
645,3	1377,848
645,8	1367,733
646,2	1358,733
646,7	1356,19
647,1	1345,562
647,6	1335,619
648	1327,648
648,4	1319,819
648,9	1312,333
649,3	1300,533
649,8	1293,962
650,2	1287,476
650,6	1279,59
651,1	1270,848
651,5	1261,333
652	1250,619
652,4	1243,676
652,9	1235,19
653,3	1223,219
653,7	1214,448
654,2	1206,448
654,6	1196,305
655,1	1189,905
655,5	1186,248
655,9	1178,419
656,4	1174,648
656,8	1164,105
657,3	1158,819
657,7	1154,476
658,2	1147,876
658,6	1132,419
659	1125,733
659,5	1112,019
659,9	1107,905
660,4	1099,933
660,8	1089,733
661,2	1080,533
661,7	1076,705
662,1	1069,962
662,6	1067,076
663	1058,276
663,4	1048,819
663,9	1044,162
664,3	1031,79
664,8	1016,676
665,2	1006,733
665,6	996,133
666,1	986,819
666,5	982,99
667	974,105
667,4	970,076
667,9	969,59
668,3	959,962
668,7	951,476
669,2	949,019
669,6	937,962
670,1	934,019
670,5	924,876
670,9	921,39
671,4	918,076
671,8	914,162
672,3	909,39
672,7	909,533
673,1	901,105
673,6	897,19
674	890,99
674,5	886,79
674,9	872,362
675,3	863,39
675,8	853,105
676,2	846,448
676,7	837,476
677,1	829,962
677,5	823,762
678	825,762
678,4	820,648
678,9	812,562
679,3	809,305
679,7	809,076
680,2	800,819
680,6	789,933
681,1	784,79
681,5	784,676
681,9	778,305
682,4	771,019
682,8	764,99
683,3	762,848
683,7	758,676
684,1	753,905
684,6	740,876
685	739,39
685,5	732,733
685,9	720,105
686,3	712,362
686,8	707,562
687,2	702,048
687,7	693,819
688,1	685,219
688,5	679,305
689	681,705
689,4	678,333
689,9	673,019
690,3	666,505
690,7	667,362
691,2	667,305
691,6	663,905
692	657,705
692,5	654,476
692,9	655,905
693,4	648,705
693,8	639,905
694,2	634,79
694,7	630,162
695,1	623,562
695,6	617,619
696	613,105
696,4	611,105
696,9	609,505
697,3	599,248
697,8	598,39
698,2	594,419
698,6	593,762
699,1	584,105
699,5	583,648
699,9	579,676
700,4	576,248
700,8	568,448
701,3	566,505
701,7	557,162
702,1	552,248
702,6	546,876
703	541,619
703,5	539,419
703,9	534,733
704,3	532,733
704,8	528,99
705,2	528,39
705,6	523,99
706,1	520,505
706,5	515,619
707	515,819
707,4	511,133
707,8	505,133
708,3	500,848
708,7	497,905
709,2	494,048
709,6	494,248
710	496,19
710,5	489,076
710,9	488,79
711,3	485,133
711,8	482,133
712,2	479,933
712,7	473,705
713,1	465,019
713,5	463,676
714	461,819
714,4	455,533
714,8	452,476
715,3	446,476
715,7	445,648
716,2	439,276
716,6	436,105
717	430,276
717,5	427,133
717,9	427,476
718,3	425,362
718,8	421,505
719,2	421,076
719,7	421,105
720,1	420,019
720,5	424,876
721	419,305
721,4	417,59
721,8	420,048
722,3	412,99
722,7	409,676
723,2	401,505
723,6	383,59
724	376,876
724,5	374,248
724,9	367,19
725,3	363,076
725,8	354,419
726,2	356,219
726,7	360,819
727,1	357,105
727,5	352,848
728	345,648
728,4	349,105
728,8	349,848
729,3	347,99
729,7	343,79
730,1	344,019
730,6	344,448
731	342,733
731,5	336,562
731,9	335,619
732,3	333,876
732,8	337,019
733,2	333,59
733,6	326,819
734,1	328,533
734,5	326,105
734,9	326,505
735,4	324,819
735,8	314,648
736,3	315,362
736,7	315,876
737,1	313,39
737,6	310,133
738	302,876
738,4	295,505
738,9	297,733
739,3	294,305
739,7	294,076
740,2	288,962
740,6	291,362
741,1	293,676
741,5	290,219
741,9	290,219
742,4	291,105
742,8	286,305
743,2	289,248
743,7	285,648
744,1	277,562
744,5	277,876
745	273,705
745,4	268,533
745,8	267,133
746,3	263,648
746,7	260,105
747,2	261,705
747,6	264,305
748	266,048
748,5	267,019
748,9	267,333
749,3	265,076
749,8	267,076
750,2	265,076
750,6	262,276
751,1	262,333
751,5	259,248
751,9	253,476
752,4	252,39
752,8	252,076
753,3	244,933
753,7	243,562
754,1	235,99
754,6	226,419
755	225,419
755,4	216,848
755,9	211,562
756,3	212,59
756,7	211,876
757,2	214,39
757,6	219,876
758	223,419
758,5	225,59
758,9	226,362
759,3	228,505
759,8	224,505
760,2	223,562
760,6	221,076
761,1	212,933
761,5	212,762
761,9	205,848
762,4	200,933
762,8	202,133
763,3	195,19
763,7	195,39
764,1	196,162
764,6	193,933
765	198,533
765,4	200,076
765,9	197,676
766,3	202,848
766,7	196,419
767,2	197,048
767,6	198,162
768	194,048
768,5	192,819
768,9	189,305
769,3	187,019
769,8	187,905
770,2	185,619
770,6	182,362
771,1	184,133
771,5	186,476
771,9	188,219
772,4	186,276
772,8	184,448
773,2	184,162
773,7	180,99
774,1	177,619
774,5	171,762
775	167,59
775,4	164,048
775,8	166,076
776,3	163,448
776,7	164,762
777,1	167,19
777,6	166,562
778	173,448
778,4	172,848
778,9	174,133
779,3	174,59
779,7	175,562
780,2	171,962
780,6	166,505
781	160,019
781,5	157,762
781,9	152,648
782,3	151,333
782,8	150,533
783,2	149,905
783,6	154,705
784,1	155,048
784,5	156,733
784,9	156,705
785,4	156,676
785,8	156,248
786,2	154,333
786,7	151,962
787,1	149,762
787,5	148,676
788	149,533
788,4	151,219
788,8	146,076
789,3	145,448
789,7	145,562
790,1	145,762
790,6	145,076
791	138,448
791,4	139,133
791,9	137,105
792,3	130,219
792,7	134,076
793,2	129,105
793,6	127,648
794	131,619
794,5	123,333
794,9	127,419
795,3	129,562
795,8	124,962
796,2	129,619
796,6	128,733
797,1	125,048
797,5	122,562
797,9	120,248
798,4	119,476
798,8	118,79
799,2	112,562
799,7	112,962
800,1	109,39
800,5	111,39
801	116,019
801,4	116,19
801,8	112,819
802,2	112,248
802,7	109,276
803,1	114,133
803,5	113,419
804	102,79
804,4	102,305
804,8	104,876
805,3	105,848
805,7	105,533
806,1	100,505
806,6	99,505
807	99,676
807,4	99,448
807,9	91,362
808,3	91,59
808,7	90,162
809,2	90,648
809,6	95,276
810	96,733
810,4	95,019
810,9	102,819
811,3	101,419
811,7	99,219
812,2	105,762
812,6	100,305
813	104,162
813,5	104,276
813,9	99,248
814,3	96,305
814,8	98,819
815,2	92,533
815,6	92,79
816,1	88,019
816,5	87,562
816,9	90,276
817,3	89,848
817,8	92,133
818,2	93,19
818,6	89,933
819,1	91,219
819,5	88,048
819,9	89,476
820,4	89,876
820,8	86,362
821,2	83,305
821,7	86,105
822,1	88,248
822,5	94,733
822,9	87,19
823,4	89,133
823,8	89,819
824,2	88,476
824,7	84,676
825,1	76,162
825,5	72,133
826	72,276
826,4	67,276
826,8	64,762
827,3	66,962
827,7	66,733
828,1	70,562
828,5	66,933
829	63,448
829,4	65,876
829,8	63,219
830,3	61,019
830,7	58,79
831,1	60,99
831,6	62,79
832	67,733
832,4	65,819
832,8	69,305
833,3	69,762
833,7	68,305
834,1	63,162
834,6	58,905
835	55,19
835,4	56,19
835,8	51,39
836,3	50,733
836,7	53,39
837,1	53,819
837,6	59,448
838	58,962
838,4	56,819
838,9	61,362
839,3	59,562
839,7	61,648
840,1	55,019
840,6	54,048
841	54,79
841,4	54,276
841,9	50,476
842,3	49,562
842,7	47,876
843,1	52,105
843,6	50,448
844	48,533
844,4	52,762
844,9	56,476
845,3	56,333
845,7	55,848
846,2	55,59
846,6	50,362
847	55,705
847,4	53,933
847,9	50,933
848,3	51,39
848,7	49,19
849,2	50,59
849,6	51,362
850	47,848
850,4	44,019
850,9	41,076
851,3	43,905
851,7	47,362
852,2	48,19
852,6	50,619
853	48,39
853,4	49,19
853,9	48,305
854,3	44,762
854,7	41,019
855,2	38,562
855,6	39,019
856	40,962
856,4	41,048
856,9	42,333
857,3	42,59
857,7	46,419
858,2	52,305
858,6	48,79
859	47,248
859,4	47,876
859,9	45,219
860,3	41,819
860,7	40,733
861,1	35,619
861,6	37,59
862	37,905
862,4	37,533
862,9	42,019
863,3	47,048
863,7	44,905
864,1	42,762
864,6	41,105
865	41,39
865,4	42,819
865,9	41,076
866,3	34,619
866,7	32,505
867,1	32,705
867,6	32,39
868	32,562
868,4	28,105
868,8	27,133
869,3	31,962
869,7	36,19
870,1	30,762
870,6	34,019
871	15,048
871,4	21,248
871,8	20,39
872,3	21,59
872,7	17,676
873,1	22,276
873,5	17,505
874	33,162
874,4	28,248
874,8	27,19
875,3	24,962
875,7	21,933
876,1	25,248
876,5	23,219
877	24,105
877,4	21,533
877,8	22,59
878,2	26,79
878,7	32,105
879,1	31,39
879,5	37,448
879,9	39,962
880,4	40,219
880,8	40,962
881,2	34,19
881,7	29,533
882,1	26,533
882,5	24,048
882,9	20,219
883,4	23,876
883,8	23,448
884,2	23,105
884,6	22,019
885,1	22,733
885,5	22,448
885,9	24,876
886,3	28,076
886,8	26,562
887,2	27,533
887,6	30,476
888	29,733
888,5	29,019
888,9	26,848
889,3	19,048
889,8	18,19
890,2	18,219
890,6	14,276
891	16,133
891,5	17,133
891,9	18,819
892,3	18,933
892,7	19,162
893,2	20,733
893,6	23,59
894	23,162
894,4	21,676
894,9	18,19
895,3	17,305
895,7	21,562
896,1	21,705
896,6	20,99
897	22,076
897,4	28,648
897,8	35,333
898,3	36,505
898,7	32,962
899,1	30,848
899,5	29,79
900	21,105
900,4	15,105
900,8	4,848
901,2	3,39
901,7	2,105
902,1	2,905
902,5	3,133
902,9	5,133
903,4	8,819
903,8	12,733
904,2	13,648
904,6	13,248
905,1	12,276
905,5	15,162
905,9	19,248
906,3	18,419
906,8	22,933
907,2	21,962
907,6	21,619
908	24,59
908,5	22,105
908,9	20,99
909,3	17,162
909,7	13,476
910,2	18,676
910,6	23,048
911	16,905
911,4	18,819
911,9	16,133
912,3	17,305
912,7	20,076
913,1	17,076
913,6	12,162
914	16,619
914,4	15,819
914,8	22,048
915,3	22,876
915,7	22,762
916,1	21,933
916,5	25,133
916,9	23,848
917,4	25,648
917,8	25,533
918,2	21,333
918,6	15,133
919,1	17,333
919,5	16,448
919,9	13,019
920,3	8,419
920,8	2,762
921,2	2,962
921,6	5,476
922	7,333
922,5	6,333
922,9	11,076
923,3	13,705
923,7	17,248
924,2	14,362
924,6	15,305
925	12,219
925,4	9,248
925,8	5,676
926,3	3,476
926,7	0,848
927,1	7,505
927,5	9,362
928	7,39
928,4	6,876
928,8	9,99
929,2	6,562
929,7	6,59
930,1	5,962
930,5	4,305
930,9	7,705
931,3	13,419
931,8	10,162
932,2	13,362
932,6	12,962
933	6,476
933,5	7,019
933,9	5,933
934,3	5,162
934,7	1,39
935,2	4,39
935,6	4,848
936	10,819
936,4	12,333
936,8	12,419
937,3	12,048
937,7	16,962
938,1	16,105
938,5	12,133
939	12,19
939,4	9,419
939,8	8,419
940,2	5,162
940,6	7,962
941,1	5,019
941,5	14,048
941,9	8,276
942,3	6,333
942,8	5,133
943,2	9,59
943,6	4,533
944	9,59
944,4	5,333
944,9	6,219
945,3	8,733
945,7	7,105
946,1	3,619
946,6	6,19
947	2,276
947,4	2,733
947,8	4,733
948,2	2,819
948,7	5,476
949,1	6,105
949,5	8,276
949,9	11,133
950,3	9,733
950,8	8,99
951,2	9,019
951,6	5,533
952	8,305
952,5	4,248
952,9	3,39
953,3	3,59
953,7	3,676
954,1	6,648
954,6	12,819
955	13,305
955,4	12,848
955,8	15,333
956,2	14,905
956,7	18,819
957,1	16,562
957,5	16,019
957,9	14,248
958,3	14,533
958,8	14,876
959,2	16,39
959,6	18,133
960	16,333
960,5	18,648
960,9	17,705
961,3	18,162
961,7	13,305
962,1	12,076
962,6	10,876
963	11,848
963,4	2,562
963,8	3,962
964,2	3,505
964,7	4,305
965,1	6,648
965,5	3,219
965,9	5,448
966,3	9,219
966,8	8,448
967,2	8,133
967,6	5,933
968	-0,667
968,4	1,533
968,9	0,219
969,3	3,333
969,7	-2,61
970,1	0,962
970,5	3,39
971	12,505
971,4	7,848
971,8	11,876
972,2	11,533
972,6	12,99
973,1	11,476
973,5	15,162
973,9	13,476
974,3	14,248
974,7	12,019
975,2	10,276
975,6	10,076
976	11,676
976,4	3,419
976,8	-0,667
977,3	1,648
977,7	-0,324
978,1	-0,267
978,5	2,019
978,9	-1,467
979,4	-0,552
979,8	-1,495
980,2	-3,124
980,6	-7,495
981	-6,495
981,5	-7,152
981,9	-4,61
982,3	-2,067
982,7	3,59
983,1	1,248
983,6	3,505
984	4,448
984,4	5,99
984,8	5,019
985,2	5,962
985,6	2,39
986,1	6,733
986,5	7,276
986,9	2,133
987,3	5,419
987,7	2,876
988,2	-0,352
988,6	0,276
989	-3,01
989,4	1,333
989,8	-0,495
990,3	-4,295
990,7	-0,495
991,1	4,448
991,5	6,733
991,9	11,333
992,3	10,762
992,8	17,019
993,2	15,962
993,6	14,533
994	16,162
994,4	13,59
994,9	10,962
995,3	7,476
995,7	2,762
996,1	2,39
996,5	-0,724
996,9	-9,295
997,4	-5,781
997,8	-7,095
998,2	-5,695
998,6	-11,838
999	-12,667
999,5	-11,267
999,9	-6,495
1000,3	-8,867
1000,7	-9,61
1001,1	-10,667
1001,5	-0,781
1002	7,819
1002,4	10,076
1002,8	8,19
1003,2	9,848
1003,6	11,905
1004	15,105
1004,5	15,505
1004,9	12,905
1005,3	10,39
1005,7	11,848
1006,1	5,476
1006,6	4,133
1007	2,99
1007,4	-1,038
1007,8	-2,724
1008,2	-5,324
1008,6	-2,724
1009,1	-1,381
1009,5	-0,295
1009,9	0,305
1010,3	5,79
1010,7	5,533
1011,1	6,99
1011,6	6,762
1012	10,505
1012,4	14,133
1012,8	12,162
1013,2	12,619
1013,6	10,39
1014,1	13,648
1014,5	9,076
1014,9	7,39
1015,3	1,79
1015,7	0,162
1016,1	-1,952
1016,6	-2,81
1017	-2,467
1017,4	-0,295
1017,8	-0,267
1018,2	3,448
1018,6	4,533
1019,1	-0,238
1019,5	4,733
1019,9	-0,067
1020,3	-1,724
1020,7	-0,781
1021,1	-4,095
1021,6	-2,895
1022	2,362
1022,4	0,762
1022,8	6,305
1023,2	7,533
1023,6	6,819
1024,1	11,39
1024,5	15,248
1024,9	8,819
1025,3	6,933
1025,7	6,105
1026,1	6,476
1026,6	5,533
1027	2,733
1027,4	1,219
1027,8	6,933
1028,2	3,933
1028,6	9,876
1029	5,133
1029,5	5,419
1029,9	6,933
1030,3	2,676
1030,7	2,59
1031,1	8,105
1031,5	-0,124
1032	6,848
1032,4	13,105
1032,8	13,019
1033,2	13,848
1033,6	11,105
1034	9,105
1034,4	8,19
1034,9	6,676
1035,3	-0,838
1035,7	0,79
1036,1	-1,324
1036,5	-3,895
1036,9	-2,867
1037,4	1,533
1037,8	-2,381
1038,2	-3,81
1038,6	-3,152
1039	1,39
1039,4	5,905
1039,8	1,99
1040,3	-0,81
1040,7	1,39
1041,1	6,333
1041,5	6,333
1041,9	-0,238
1042,3	-0,324
1042,7	3,162
1043,2	5,648
1043,6	4,676
1044	2,79
1044,4	2,505
1044,8	6,705
1045,2	6,076
1045,6	6,39
1046,1	4,248
1046,5	4,905
1046,9	0,448
1047,3	-3,21
1047,7	-3,267
1048,1	-3,895
1048,5	-2,495
1049	2,448
1049,4	4,476
1049,8	8,305
1050,2	8,619
1050,6	9,99
1051	12,248
1051,4	8,076
1051,9	2,39
1052,3	8,848
1052,7	11,305
1053,1	11,848
1053,5	12,333
1053,9	6,762
1054,3	5,048
1054,8	12,533
1055,2	10,733
1055,6	14,648
1056	14,276
1056,4	13,562
1056,8	16,105
1057,2	15,905
1057,6	6,962
1058,1	2,733
1058,5	-4,638
1058,9	-4,838
1059,3	-5,095
1059,7	-1,695
1060,1	-0,124
1060,5	2,019
1061	2,762
1061,4	4,562
1061,8	6,219
1062,2	4,562
1062,6	4,39
1063	6,505
1063,4	5,562
1063,8	1,533
1064,3	-2,21
1064,7	-3,61
1065,1	-5,124
1065,5	-7,781
1065,9	-10,095
1066,3	-11,038
1066,7	-11,695
1067,1	-8,638
1067,6	-3,752
1068	-5,81
1068,4	-4,124
1068,8	0,79
1069,2	4,419
1069,6	7,333
1070	8,19
1070,4	7,362
1070,9	8,79
1071,3	9,619
1071,7	3,505
1072,1	4,648
1072,5	6,248
1072,9	4,848
1073,3	2,448
1073,7	4,476
1074,2	2,305
1074,6	6,162
1075	5,105
1075,4	-0,724
1075,8	1,99
1076,2	1,248
1076,6	4,476
1077	2,676
1077,5	5,419
1077,9	2,419
1078,3	6,962
1078,7	4,733
1079,1	3,619
1079,5	-1,895
1079,9	1,362
1080,3	-6,21
1080,7	-5,752
1081,2	1,219
1081,6	-0,552
1082	-1,067
1082,4	7,705
1082,8	7,305
1083,2	10,019
1083,6	11,962
1084	4,133
1084,5	6,476
1084,9	5,105
1085,3	-1,095
1085,7	1,762
1086,1	5,076
1086,5	7,333
1086,9	13,305
1087,3	12,705
1087,7	13,762
1088,2	18,562
1088,6	11,962
1089	11,819
1089,4	9,99
1089,8	3,819
1090,2	1,733
1090,6	0,048
1091	-1,21
1091,4	6,048
1091,9	6,619
1092,3	4,676
1092,7	5,619
1093,1	9,962
1093,5	12,448
1093,9	8,99
1094,3	7,333
1094,7	5,219
1095,1	7,648
1095,5	6,59
1096	4,39
1096,4	7,905
1096,8	8,219
1097,2	7,048
1097,6	9,076
1098	7,019
1098,4	8,19
1098,8	7,505
1099,2	8,59
1099,6	7,762
1100,1	5,533
1100,5	3,933
1100,9	4,133
1101,3	5,705
1101,7	5,048
1102,1	1,133
1102,5	0,276
1102,9	2,362
1103,3	2,733
1103,7	4,876
1104,2	3,162
1104,6	2,762
1105	0,705
1105,4	2,219
1105,8	0,276
1106,2	-0,495
1106,6	-2,981
1107	-3,181
1107,4	-2,167
1107,8	-0,587
1108,3	-0,467
