Data from Subt2_155.txt Node
Date: Sat Aug 26 18:32:13 MSK 2023
User: vat
Spectrometer: MAYP114033
Trigger mode: 0
Integration Time (sec): 1,000000E0
Scans to average: 5
Electric dark correction enabled: true
Nonlinearity correction enabled: false
Boxcar width: 3
XAxis mode: Wavelengths
Number of Pixels in Spectrum: 2068
>>>>>Begin Spectral Data<<<<<
199,4	0,383
199,9	-1,767
200,4	-3,767
200,8	-2,081
201,3	-5,795
201,8	-4,338
202,2	-6,11
202,7	-0,995
203,2	0,062
203,6	1,376
204,1	-4,024
204,6	-0,51
205	0,062
205,5	2,719
206	-1,224
206,4	-0,51
206,9	2,776
207,4	5,576
207,8	3,605
208,3	1,062
208,8	-2,481
209,2	-0,252
209,7	-0,224
210,2	-0,995
210,6	1,29
211,1	4,233
211,5	3,205
212	3,176
212,5	0,233
212,9	1,376
213,4	0,233
213,9	-2,081
214,3	-0,967
214,8	3,319
215,3	3,462
215,7	3,119
216,2	0,833
216,7	2,29
217,1	4,862
217,6	4,833
218,1	2,662
218,5	3,233
219	-1,052
219,5	-0,11
219,9	-6,31
220,4	-3,91
220,9	-8,51
221,3	-7,281
221,8	-2,595
222,3	2,776
222,7	5,833
223,2	10,062
223,6	5,948
224,1	4,862
224,6	4,576
225	-0,967
225,5	2,576
226	-1,224
226,4	2,862
226,9	3,605
227,4	6,176
227,8	-0,167
228,3	2,719
228,8	-0,452
229,2	0,833
229,7	-1,91
230,2	-1,738
230,6	2,005
231,1	9,519
231,5	8,376
232	4,748
232,5	5,433
232,9	3,633
233,4	7,548
233,9	4,633
234,3	2,89
234,8	4,776
235,3	6,233
235,7	5,948
236,2	6,662
236,7	-1,024
237,1	-0,138
237,6	-3,91
238,1	-6,995
238,5	-9,11
239	-7,338
239,4	-4,252
239,9	-1,938
240,4	-2,052
240,8	3,462
241,3	2,176
241,8	1,576
242,2	-3,367
242,7	-10,71
243,2	-6,395
243,6	-8,31
244,1	-9,281
244,6	-5,567
245	-1,738
245,5	1,376
245,9	4,148
246,4	0,09
246,9	1,976
247,3	2,69
247,8	5,319
248,3	8,319
248,7	6,69
249,2	7,748
249,7	8,205
250,1	8,176
250,6	4,348
251	1,948
251,5	-4,252
252	-3,852
252,4	-1,195
252,9	-1,967
253,4	-5,024
253,8	-4,138
254,3	-5,938
254,8	-2,995
255,2	-3,852
255,7	-8,11
256,1	-5,738
256,6	-0,167
257,1	0,748
257,5	-1,138
258	-2,31
258,5	-4,967
258,9	-3,91
259,4	-6,652
259,9	-9,995
260,3	-13,938
260,8	-16,624
261,2	-16,481
261,7	-11,281
262,2	-16,452
262,6	-13,71
263,1	-7,252
263,6	-3,595
264	1,976
264,5	6,348
264,9	5,805
265,4	10,405
265,9	6,948
266,3	3,719
266,8	3,548
267,3	7,148
267,7	2,833
268,2	3,033
268,7	3,005
269,1	6,033
269,6	-1,024
270	-2,938
270,5	-9,338
271	-4,738
271,4	-5,424
271,9	-8,424
272,4	-11,395
272,8	-6,652
273,3	-8,424
273,7	-3,567
274,2	-7,224
274,7	-6,71
275,1	-3,195
275,6	-0,167
276,1	-2,91
276,5	1,233
277	-1,31
277,4	-3,224
277,9	-2,995
278,4	-3,11
278,8	-3,052
279,3	-1,367
279,8	-1,31
280,2	3,49
280,7	7,576
281,1	4,319
281,6	7,148
282,1	7,433
282,5	6,719
283	7,09
283,4	1,176
283,9	1,319
284,4	5,862
284,8	6,576
285,3	1,49
285,8	3,205
286,2	1,062
286,7	-1,424
287,1	-3,281
287,6	-5,938
288,1	-13,652
288,5	-9,167
289	-10,167
289,5	-7,881
289,9	-7,195
290,4	-7,738
290,8	-7,938
291,3	-3,652
291,8	-3,481
292,2	-5,224
292,7	-3,31
293,1	-2,538
293,6	-0,281
294,1	1,376
294,5	0,862
295	1,748
295,5	4,805
295,9	7,062
296,4	9,49
296,8	9,576
297,3	6,376
297,8	2,348
298,2	2,433
298,7	4,662
299,1	0,919
299,6	-1,881
300,1	-4,052
300,5	-2,881
301	1,719
301,5	1,519
301,9	-3,224
302,4	-7,424
302,8	-4,052
303,3	-4,138
303,8	-7,652
304,2	-6,51
304,7	-7,567
305,1	-11,738
305,6	-4,852
306,1	-0,795
306,5	1,776
307	9,805
307,4	9,633
307,9	9,776
308,4	10,548
308,8	3,919
309,3	-0,767
309,8	-0,51
310,2	-3,31
310,7	-7,852
311,1	-8,452
311,6	-0,795
312,1	5,405
312,5	9,176
313	10,748
313,4	10,776
313,9	14,462
314,4	11,29
314,8	6,433
315,3	4,233
315,7	-3,91
316,2	-9,967
316,7	-9,767
317,1	-6,138
317,6	-2,052
318	3,033
318,5	1,69
319	7,49
319,4	11,633
319,9	14,89
320,3	13,719
320,8	12,805
321,3	12,805
321,7	15,005
322,2	12,005
322,6	11,833
323,1	4,148
323,6	2,348
324	-2,795
324,5	-7,081
324,9	-4,881
325,4	-2,567
325,9	-4,71
326,3	1,119
326,8	-0,767
327,2	-3,081
327,7	-1,452
328,2	-5,71
328,6	-6,652
329,1	-12,767
329,5	-13,681
330	-13,395
330,5	-7,252
330,9	-4,481
331,4	-4,081
331,8	-6,652
332,3	3,148
332,8	2,462
333,2	3,69
333,7	7,09
334,1	5,605
334,6	2,405
335,1	-0,395
335,5	-5,224
336	-5,738
336,4	-4,681
336,9	-0,367
337,4	0,662
337,8	2,69
338,3	9,576
338,7	11,062
339,2	9,633
339,7	10,376
340,1	0,29
340,6	-2,767
341	-5,167
341,5	-8,51
342	-9,167
342,4	-7,624
342,9	-6,567
343,3	-6,195
343,8	-2,967
344,2	-0,881
344,7	4,405
345,2	2,633
345,6	0,605
346,1	-0,738
346,5	1,633
347	-3,367
347,5	-2,338
347,9	0,09
348,4	1,862
348,8	5,662
349,3	5,776
349,8	10,319
350,2	17,49
350,7	15,09
351,1	9,633
351,6	13,976
352	16,576
352,5	18,405
353	24,519
353,4	24,919
353,9	37,233
354,3	47,29
354,8	54,49
355,3	65,548
355,7	80,233
356,2	91,948
356,6	112,49
357,1	133,49
357,5	157,833
358	186,89
358,5	215,719
358,9	250,033
359,4	289,405
359,8	332,805
360,3	384,29
360,8	432,719
361,2	490,576
361,7	557,033
362,1	633,233
362,6	711,948
363	797,776
363,5	885,976
364	993,948
364,4	1094,89
364,9	1199,262
365,3	1301,662
365,8	1399,062
366,3	1484,633
366,7	1562,976
367,2	1630,29
367,6	1687,948
368,1	1736,176
368,5	1763,233
369	1783,233
369,5	1792,662
369,9	1781,262
370,4	1755,833
370,8	1716,976
371,3	1663,49
371,7	1605,605
372,2	1537,948
372,7	1462,633
373,1	1387,348
373,6	1302,919
374	1225,833
374,5	1144,376
374,9	1065,805
375,4	987,576
375,9	913,462
376,3	842,776
376,8	776,319
377,2	717,919
377,7	656,205
378,2	596,405
378,6	543,719
379,1	498,405
379,5	458,148
380	424,319
380,4	383,633
380,9	350,119
381,4	324,119
381,8	297,433
382,3	272,948
382,7	254,862
383,2	235,319
383,6	218,348
384,1	208,948
384,6	194,29
385	178,548
385,5	167,176
385,9	148,719
386,4	132,148
386,8	123,09
387,3	113,033
387,7	106,205
388,2	106,633
388,7	99,119
389,1	96,462
389,6	94,205
390	83,69
390,5	80,576
390,9	75,405
391,4	69,319
391,9	66,548
392,3	63,576
392,8	62,405
393,2	60,462
393,7	54,119
394,1	50,262
394,6	46,919
395,1	41,719
395,5	36,519
396	31,405
396,4	34,233
396,9	34,148
397,3	35,29
397,8	32,948
398,2	31,605
398,7	32,462
399,2	34,69
399,6	31,433
400,1	25,576
400,5	19,005
401	20,462
401,4	18,748
401,9	15,89
402,4	16,776
402,8	15,548
403,3	23,862
403,7	24,376
404,2	24,348
404,6	26,748
405,1	29,376
405,5	26,376
406	27,748
406,5	24,148
406,9	30,69
407,4	27,605
407,8	31,376
408,3	32,462
408,7	36,09
409,2	42,862
409,6	49,948
410,1	53,262
410,6	62,776
411	64,29
411,5	68,005
411,9	70,005
412,4	69,119
412,8	71,376
413,3	70,376
413,7	66,776
414,2	70,148
414,7	75,119
415,1	82,69
415,6	92,433
416	93,205
416,5	98,262
416,9	105,576
417,4	114,862
417,8	125,29
418,3	130,433
418,8	133,319
419,2	141,948
419,7	151,376
420,1	157,29
420,6	159,948
421	158,719
421,5	165,119
421,9	172,433
422,4	177,576
422,8	183,148
423,3	191,033
423,8	195,89
424,2	203,433
424,7	210,776
425,1	219,833
425,6	229,862
426	235,176
426,5	246,576
426,9	261,662
427,4	268,948
427,9	273,805
428,3	285,176
428,8	296,262
429,2	307,605
429,7	315,176
430,1	322,919
430,6	341,205
431	358,862
431,5	373,062
431,9	382,548
432,4	401,948
432,8	427,376
433,3	449,29
433,8	466,605
434,2	488,405
434,7	507,262
435,1	537,862
435,6	563,69
436	583,633
436,5	611,005
436,9	637,519
437,4	663,49
437,8	694,09
438,3	717,862
438,8	747,119
439,2	780,176
439,7	813,89
440,1	850,605
440,6	892,148
441	928,919
441,5	976,49
441,9	1016,662
442,4	1056,462
442,8	1097,69
443,3	1147,862
443,7	1193,319
444,2	1247,519
444,7	1294,348
445,1	1345,833
445,6	1399,462
446	1456,948
446,5	1505,49
446,9	1553,776
447,4	1603,348
447,8	1661,833
448,3	1730,69
448,7	1797,148
449,2	1864,005
449,6	1931,062
450,1	2000,576
450,6	2078,033
451	2149,462
451,5	2222,519
451,9	2296,862
452,4	2371,49
452,8	2449,49
453,3	2534,062
453,7	2605,376
454,2	2689,005
454,6	2761,49
455,1	2835,49
455,5	2911,976
456	2998,49
456,4	3079,605
456,9	3170,062
457,3	3256,376
457,8	3342,519
458,3	3436,148
458,7	3524,776
459,2	3614,519
459,6	3702,748
460,1	3794,89
460,5	3884,948
461	3982,09
461,4	4067,89
461,9	4155,033
462,3	4249,405
462,8	4346,89
463,2	4436,033
463,7	4525,29
464,1	4620,548
464,6	4726,605
465	4832,548
465,5	4922,662
466	5017,548
466,4	5113,748
466,9	5212,548
467,3	5302,948
467,8	5391,033
468,2	5479,062
468,7	5572,805
469,1	5663,833
469,6	5758,233
470	5843,29
470,5	5939,005
470,9	6028,462
471,4	6119,205
471,8	6210,548
472,3	6302,805
472,7	6376,29
473,2	6465,548
473,6	6536,948
474,1	6615,605
474,5	6699,176
475	6772,948
475,4	6851,89
475,9	6929,462
476,4	7003,69
476,8	7082,605
477,3	7151,833
477,7	7212,976
478,2	7280,205
478,6	7333,062
479,1	7395,919
479,5	7445,09
480	7503,348
480,4	7558,376
480,9	7604,233
481,3	7639,262
481,8	7688,719
482,2	7723,119
482,7	7762,69
483,1	7798,319
483,6	7839,833
484	7874,176
484,5	7914,376
484,9	7938,005
485,4	7974,119
485,8	7994,633
486,3	8016,119
486,7	8027,319
487,2	8049,433
487,6	8066,49
488,1	8071,976
488,5	8078,205
489	8094,976
489,4	8098,948
489,9	8098,148
490,4	8092,148
490,8	8085,033
491,3	8089,748
491,7	8081,09
492,2	8072,69
492,6	8061,605
493,1	8054,69
493,5	8037,405
494	8019,948
494,4	7997,148
494,9	7985,348
495,3	7962,405
495,8	7930,519
496,2	7900,976
496,7	7871,462
497,1	7842,662
497,6	7819,148
498	7787,348
498,5	7751,205
498,9	7717,833
499,4	7681,433
499,8	7652,29
500,3	7620,89
500,7	7574,49
501,2	7528,376
501,6	7485,948
502,1	7442,348
502,5	7398,262
503	7352,776
503,4	7309,09
503,9	7268,405
504,3	7230,748
504,8	7173,176
505,2	7131,376
505,7	7080,233
506,1	7036,662
506,6	6976,462
507	6920,49
507,5	6860,719
507,9	6816,205
508,4	6762,748
508,8	6711,205
509,3	6650,262
509,7	6599,862
510,2	6545,919
510,6	6484,148
511,1	6434,119
511,5	6375,062
512	6318,319
512,4	6261,405
512,9	6195,519
513,3	6133,548
513,8	6079,262
514,2	6016,433
514,7	5950,862
515,1	5889,519
515,6	5832,033
516	5770,976
516,5	5710,605
516,9	5649,605
517,4	5589,576
517,8	5540,462
518,3	5483,776
518,7	5418,605
519,2	5361,776
519,6	5304,405
520,1	5251,748
520,5	5192,776
521	5128,776
521,4	5069,719
521,9	5022,348
522,3	4967,348
522,8	4903,948
523,2	4845,405
523,7	4795,833
524,1	4744,205
524,6	4685,319
525	4627,805
525,5	4571,005
525,9	4530,605
526,4	4475,833
526,8	4418,29
527,3	4371,862
527,7	4329,405
528,2	4275,576
528,6	4233,519
529,1	4181,719
529,5	4133,033
530	4087,005
530,4	4029,576
530,9	3979,919
531,3	3937,062
531,8	3892,519
532,2	3847,633
532,6	3801,548
533,1	3755,776
533,5	3715,205
534	3670,462
534,4	3626,119
534,9	3586,633
535,3	3544,033
535,8	3502,205
536,2	3465,433
536,7	3419,719
537,1	3385,576
537,6	3351,119
538	3306,348
538,5	3271,233
538,9	3230,262
539,4	3195,176
539,8	3162,776
540,3	3125,719
540,7	3080,205
541,2	3046,69
541,6	3013,176
542,1	2983,948
542,5	2946,605
543	2915,576
543,4	2879,69
543,9	2852,89
544,3	2823,033
544,8	2783,919
545,2	2756,348
545,7	2728,062
546,1	2704,69
546,5	2679,69
547	2654,576
547,4	2628,405
547,9	2602,005
548,3	2572,062
548,8	2545,548
549,2	2507,519
549,7	2482,148
550,1	2458,405
550,6	2429,633
551	2408,976
551,5	2386,919
551,9	2360,89
552,4	2347,548
552,8	2319,976
553,3	2286,462
553,7	2261,833
554,2	2239,576
554,6	2220,29
555,1	2200,776
555,5	2169,748
555,9	2157,49
556,4	2143,405
556,8	2120,633
557,3	2105,09
557,7	2083,262
558,2	2062,89
558,6	2050,205
559,1	2017,09
559,5	1990,89
560	1975,462
560,4	1951,776
560,9	1931,662
561,3	1907,719
561,8	1887,262
562,2	1877,976
562,7	1864,49
563,1	1855,062
563,6	1836,148
564	1818,348
564,4	1809,176
564,9	1792,633
565,3	1770,833
565,8	1757,89
566,2	1740,09
566,7	1726,262
567,1	1715,605
567,6	1700,405
568	1690,205
568,5	1680,176
568,9	1661,605
569,4	1642,919
569,8	1630,862
570,3	1614,49
570,7	1594,09
571,1	1580,319
571,6	1567,176
572	1562,062
572,5	1553,89
572,9	1537,976
573,4	1522,605
573,8	1518,176
574,3	1504,662
574,7	1490,205
575,2	1472,605
575,6	1455,776
576,1	1450,662
576,5	1443,49
576,9	1424,862
577,4	1410,319
577,8	1397,148
578,3	1385,29
578,7	1367,148
579,2	1354,176
579,6	1341,033
580,1	1330,405
580,5	1324,319
581	1319,719
581,4	1312,405
581,9	1309,062
582,3	1293,233
582,7	1286,205
583,2	1276,719
583,6	1264,976
584,1	1254,833
584,5	1241,862
585	1238,205
585,4	1222,262
585,9	1206,69
586,3	1200,033
586,8	1188,205
587,2	1172,29
587,6	1167,462
588,1	1159,176
588,5	1157,633
589	1154,09
589,4	1144,576
589,9	1136,805
590,3	1131,69
590,8	1120,548
591,2	1112,776
591,7	1109,405
592,1	1099,805
592,5	1096,348
593	1085,005
593,4	1078,319
593,9	1069,29
594,3	1055,433
594,8	1044,405
595,2	1039,976
595,7	1028,348
596,1	1027,176
596,6	1026,176
597	1023,919
597,4	1023,948
597,9	1016,748
598,3	1009,348
598,8	1005,805
599,2	998,862
599,7	989,948
600,1	978,976
600,6	966,519
601	963,662
601,4	966,148
601,9	961,262
602,3	949,748
602,8	941,976
603,2	934,262
603,7	929,005
604,1	920,462
604,6	903,719
605	895,976
605,4	898,29
605,9	891,919
606,3	890,462
606,8	880,976
607,2	875,519
607,7	867,548
608,1	861,005
608,6	855,919
609	857,148
609,4	851,319
609,9	846,833
610,3	841,29
610,8	837,348
611,2	829,49
611,7	821,805
612,1	811,919
612,6	806,348
613	806,405
613,4	805,49
613,9	803,433
614,3	801,376
614,8	796,062
615,2	788,119
615,7	784,548
616,1	778,09
616,6	766,519
617	758,205
617,4	758,319
617,9	759,405
618,3	757,976
618,8	758,862
619,2	751,233
619,7	752,833
620,1	752,176
620,5	747,776
621	737,119
621,4	730,719
621,9	721,29
622,3	717,833
622,8	707,662
623,2	699,548
623,6	690,519
624,1	688,576
624,5	684,862
625	679,319
625,4	676,176
625,9	675,176
626,3	671,49
626,8	666,062
627,2	662,519
627,6	652,776
628,1	648,719
628,5	648,519
629	643,348
629,4	639,29
629,9	634,633
630,3	620,033
630,7	616,148
631,2	618,09
631,6	611,633
632,1	608,833
632,5	605,119
633	606,033
633,4	606,976
633,8	606,176
634,3	594,148
634,7	588,262
635,2	580,576
635,6	578,862
636,1	573,433
636,5	568,148
636,9	562,376
637,4	559,119
637,8	552,548
638,3	546,29
638,7	537,833
639,2	531,319
639,6	532,89
640	531,033
640,5	528,862
640,9	527,119
641,4	529,776
641,8	529,948
642,2	525,948
642,7	525,548
643,1	524,033
643,6	519,148
644	516,748
644,5	513,976
644,9	513,29
645,3	511,462
645,8	497,948
646,2	492,976
646,7	491,319
647,1	489,433
647,6	489,576
648	485,548
648,4	482,519
648,9	485,233
649,3	483,633
649,8	480,233
650,2	478,405
650,6	471,09
651,1	462,862
651,5	460,29
652	459,833
652,4	451,005
652,9	445,805
653,3	442,462
653,7	441,09
654,2	439,548
654,6	434,719
655,1	431,319
655,5	439,033
655,9	439,719
656,4	438,662
656,8	434,89
657,3	435,519
657,7	437,09
658,2	433,348
658,6	425,862
659	422,719
659,5	416,605
659,9	414,09
660,4	409,09
660,8	402,348
661,2	397,776
661,7	394,262
662,1	391,433
662,6	387,776
663	384,605
663,4	382,376
663,9	383,005
664,3	378,805
664,8	376,119
665,2	370,976
665,6	369,119
666,1	367,548
666,5	365,89
667	359,405
667,4	356,548
667,9	352,833
668,3	352,29
668,7	346,319
669,2	345,833
669,6	342,29
670,1	340,748
670,5	341,148
670,9	336,09
671,4	332,09
671,8	333,062
672,3	328,262
672,7	330,49
673,1	325,948
673,6	319,605
674	323,662
674,5	322,605
674,9	312,948
675,3	307,29
675,8	303,69
676,2	304,89
676,7	303,462
677,1	299,405
677,5	296,919
678	301,805
678,4	303,833
678,9	302,062
679,3	302,976
679,7	302,776
680,2	295,605
680,6	293,662
681,1	293,833
681,5	294,262
681,9	291,519
682,4	287,748
682,8	286,319
683,3	291,033
683,7	292,919
684,1	291,862
684,6	285,576
685	282,519
685,5	279,348
685,9	274,062
686,3	269,433
686,8	264,262
687,2	261,033
687,7	260,89
688,1	257,319
688,5	253,69
689	258,348
689,4	257,548
689,9	251,948
690,3	245,605
690,7	245,005
691,2	246,805
691,6	247,29
692	243,233
692,5	242,062
692,9	243,633
693,4	239,405
693,8	235,176
694,2	229,148
694,7	226,605
695,1	225,433
695,6	223,405
696	224,205
696,4	226,29
696,9	223,176
697,3	219,948
697,8	218,462
698,2	217,405
698,6	219,576
699,1	212,319
699,5	216,062
699,9	217,805
700,4	215,405
700,8	215,805
701,3	212,919
701,7	208,862
702,1	209,976
702,6	203,662
703	204,233
703,5	205,69
703,9	201,176
704,3	199,89
704,8	196,576
705,2	199,433
705,6	198,49
706,1	193,719
706,5	188,49
707	190,062
707,4	189,662
707,8	187,662
708,3	186,548
708,7	184,833
709,2	181,376
709,6	186,033
710	188,205
710,5	181,89
710,9	180,976
711,3	175,233
711,8	177,205
712,2	182,576
712,7	181,119
713,1	175,148
713,5	179,805
714	182,776
714,4	182,119
714,8	181,948
715,3	175,319
715,7	175,319
716,2	174,776
716,6	170,576
717	166,005
717,5	165,405
717,9	163,919
718,3	161,205
718,8	156,376
719,2	155,833
719,7	155,348
720,1	158,09
720,5	156,805
721	152,948
721,4	155,719
721,8	161,319
722,3	157,462
722,7	161,005
723,2	151,119
723,6	147,09
724	146,519
724,5	140,262
724,9	133,833
725,3	131,633
725,8	125,119
726,2	126,833
726,7	131,433
727,1	126,262
727,5	129,862
728	126,805
728,4	128,49
728,8	128,49
729,3	127,69
729,7	117,805
730,1	120,919
730,6	118,633
731	119,433
731,5	118,433
731,9	116,862
732,3	118,833
732,8	126,29
733,2	128,633
733,6	123,69
734,1	126,948
734,5	126,433
734,9	131,776
735,4	130,776
735,8	127,29
736,3	126,776
736,7	130,09
737,1	125,605
737,6	122,462
738	117,948
738,4	116,833
738,9	117,176
739,3	115,948
739,7	114,548
740,2	111,976
740,6	118,005
741,1	119,09
741,5	111,433
741,9	109,776
742,4	108,148
742,8	110,748
743,2	112,919
743,7	105,376
744,1	100,805
744,5	102,433
745	99,005
745,4	96,833
745,8	92,119
746,3	88,519
746,7	87,062
747,2	84,919
747,6	90,205
748	93,605
748,5	94,776
748,9	92,633
749,3	94,062
749,8	96,976
750,2	98,633
750,6	93,805
751,1	94,205
751,5	90,176
751,9	95,948
752,4	98,319
752,8	98,29
753,3	98,348
753,7	102,833
754,1	98,776
754,6	98,919
755	92,862
755,4	87,176
755,9	83,205
756,3	79,519
756,7	77,805
757,2	82,148
757,6	84,519
758	86,205
758,5	91,633
758,9	95,405
759,3	101,005
759,8	101,119
760,2	98,119
760,6	98,433
761,1	91,776
761,5	87,49
761,9	82,348
762,4	78,519
762,8	75,319
763,3	75,662
763,7	73,976
764,1	81,548
764,6	85,29
765	90,833
765,4	89,748
765,9	89,462
766,3	90,033
766,7	85,69
767,2	81,176
767,6	82,948
768	79,376
768,5	78,29
768,9	75,462
769,3	74,633
769,8	73,49
770,2	75,005
770,6	67,69
771,1	71,462
771,5	70,376
771,9	76,205
772,4	74,433
772,8	75,205
773,2	74,119
773,7	75,005
774,1	68,205
774,5	64,633
775	59,062
775,4	55,148
775,8	54,805
776,3	60,833
776,7	58,89
777,1	61,776
777,6	67,519
778	74,376
778,4	78,29
778,9	80,576
779,3	74,919
779,7	75,748
780,2	76,033
780,6	77,89
781	71,462
781,5	68,233
781,9	65,319
782,3	62,633
782,8	61,033
783,2	57,605
783,6	54,233
784,1	53,662
784,5	49,119
784,9	45,576
785,4	52,49
785,8	53,719
786,2	54,062
786,7	56,119
787,1	56,89
787,5	63,233
788	65,376
788,4	58,776
788,8	56,548
789,3	53,776
789,7	51,548
790,1	50,776
790,6	53,776
791	49,919
791,4	49,576
791,9	48,119
792,3	47,633
792,7	50,89
793,2	48,376
793,6	43,205
794	46,605
794,5	46,033
794,9	52,09
795,3	54,062
795,8	50,033
796,2	51,148
796,6	51,49
797,1	51,833
797,5	53,033
797,9	44,69
798,4	42,548
798,8	41,49
799,2	41,148
799,7	44,976
800,1	44,348
800,5	43,976
801	52,119
801,4	53,09
801,8	51,748
802,2	49,348
802,7	43,576
803,1	41,976
803,5	42,833
804	37,976
804,4	38,176
804,8	40,262
805,3	43,433
805,7	42,833
806,1	44,948
806,6	45,176
807	44,49
807,4	45,233
807,9	40,462
808,3	41,519
808,7	39,719
809,2	42,49
809,6	39,662
810	39,119
810,4	40,462
810,9	42,119
811,3	43,348
811,7	47,433
812,2	52,09
812,6	51,319
813	51,376
813,5	47,405
813,9	48,976
814,3	42,348
814,8	38,548
815,2	30,49
815,6	30,348
816,1	31,662
816,5	33,919
816,9	34,662
817,3	35,89
817,8	41,976
818,2	41,405
818,6	39,29
819,1	38,176
819,5	35,433
819,9	34,319
820,4	35,748
820,8	33,148
821,2	30,776
821,7	34,09
822,1	31,119
822,5	32,662
822,9	28,89
823,4	28,005
823,8	29,519
824,2	32,862
824,7	28,09
825,1	27,148
825,5	24,233
826	22,148
826,4	22,805
826,8	21,09
827,3	22,29
827,7	21,319
828,1	25,348
828,5	27,748
829	25,005
829,4	25,29
829,8	18,919
830,3	14,348
830,7	10,062
831,1	12,833
831,6	11,605
832	17,89
832,4	16,348
832,8	20,005
833,3	18,462
833,7	23,09
834,1	19,119
834,6	14,319
835	15,948
835,4	22,633
835,8	21,09
836,3	24,519
836,7	27,005
837,1	23,605
837,6	26,633
838	23,919
838,4	15,976
838,9	14,776
839,3	13,919
839,7	12,948
840,1	9,805
840,6	11,033
841	14,405
841,4	13,862
841,9	15,376
842,3	13,49
842,7	15,776
843,1	19,148
843,6	21,605
844	17,005
844,4	25,148
844,9	26,233
845,3	26,49
845,7	26,69
846,2	24,633
846,6	21,69
847	24,09
847,4	22,805
847,9	24,919
848,3	24,919
848,7	23,233
849,2	27,862
849,6	24,062
850	27,233
850,4	22,548
850,9	21,348
851,3	19,89
851,7	18,948
852,2	18,148
852,6	21,862
853	17,29
853,4	13,862
853,9	10,376
854,3	11,976
854,7	11,49
855,2	12,776
855,6	13,319
856	14,748
856,4	15,548
856,9	15,233
857,3	17,005
857,7	22,805
858,2	25,948
858,6	24,662
859	24,862
859,4	25,462
859,9	25,319
860,3	19,862
860,7	15,633
861,1	9,405
861,6	10,176
862	10,919
862,4	12,919
862,9	14,69
863,3	17,09
863,7	15,376
864,1	19,062
864,6	17,348
865	13,805
865,4	11,376
865,9	14,205
866,3	9,348
866,7	11,205
867,1	6,49
867,6	5,348
868	6,176
868,4	5,833
868,8	2,033
869,3	4,948
869,7	6,233
870,1	4,433
870,6	1,948
871	-20,481
871,4	-19,424
871,8	-22,224
872,3	-20,338
872,7	-19,367
873,1	-17,51
873,5	-10,91
874	10,776
874,4	7,462
874,8	9,633
875,3	9,348
875,7	7,09
876,1	11,919
876,5	8,433
877	6,348
877,4	6,176
877,8	6,662
878,2	9,919
878,7	11,119
879,1	8,319
879,5	11,033
879,9	15,176
880,4	19,919
880,8	17,176
881,2	15,062
881,7	13,033
882,1	8,433
882,5	4,262
882,9	1,89
883,4	-0,252
883,8	3,233
884,2	3,033
884,6	0,148
885,1	5,776
885,5	9,405
885,9	9,519
886,3	9,89
886,8	6,319
887,2	5,005
887,6	8,005
888	6,262
888,5	7,233
888,9	6,033
889,3	0,919
889,8	1,605
890,2	2,719
890,6	0,49
891	1,348
891,5	0,176
891,9	1,633
892,3	9,576
892,7	11,233
893,2	9,89
893,6	11,348
894	8,719
894,4	7,233
894,9	7,519
895,3	5,833
895,7	6,719
896,1	6,433
896,6	7,519
897	11,948
897,4	14,09
897,8	13,919
898,3	16,09
898,7	16,033
899,1	15,89
899,5	13,976
900	9,176
900,4	6,862
900,8	4,09
901,2	-0,738
901,7	-2,31
902,1	0,49
902,5	2,433
902,9	5,376
903,4	8,662
903,8	12,89
904,2	11,262
904,6	13,062
905,1	15,748
905,5	14,948
905,9	13,719
906,3	11,176
906,8	11,89
907,2	15,376
907,6	11,633
908	10,119
908,5	9,519
908,9	7,662
909,3	8,576
909,7	7,405
910,2	4,89
910,6	12,748
911	6,833
911,4	7,948
911,9	6,833
912,3	1,948
912,7	5,033
913,1	6,09
913,6	-0,624
914	1,862
914,4	-5,052
914,8	-1,681
915,3	0,748
915,7	-3,995
916,1	-4,281
916,5	-0,938
916,9	-0,738
917,4	5,49
917,8	7,376
918,2	6,348
918,6	0,748
919,1	5,29
919,5	4,919
919,9	4,805
920,3	3,148
920,8	-1,595
921,2	0,319
921,6	5,09
922	1,49
922,5	0,033
922,9	0,148
923,3	-5,624
923,7	-4,938
924,2	-6,452
924,6	-4,567
925	-2,11
925,4	-2,138
925,8	-0,052
926,3	4,519
926,7	3,605
927,1	5,376
927,5	6,89
928	4,748
928,4	2,176
928,8	1,776
929,2	3,29
929,7	6,176
930,1	4,976
930,5	2,176
930,9	1,233
931,3	2,262
931,8	1,719
932,2	0,976
932,6	0,148
933	-4,224
933,5	-1,195
933,9	-3,395
934,3	-2,138
934,7	-4,681
935,2	-1,624
935,6	-0,795
936	0,833
936,4	-0,71
936,8	5,262
937,3	3,233
937,7	5,033
938,1	8,262
938,5	1,833
939	6,29
939,4	3,862
939,8	1,948
940,2	4,062
940,6	3,976
941,1	-0,795
941,5	8,376
941,9	6,033
942,3	5,833
942,8	4,948
943,2	8,633
943,6	4,948
944	5,09
944,4	-0,852
944,9	-4,338
945,3	-4,138
945,7	-10,652
946,1	-17,195
946,6	-15,31
947	-16,938
947,4	-10,967
947,8	-9,138
948,2	-8,767
948,7	-1,195
949,1	-3,652
949,5	2,262
949,9	1,948
950,3	-2,624
950,8	-0,195
951,2	3,919
951,6	-1,767
952	5,919
952,5	-1,367
952,9	-2,224
953,3	-2,195
953,7	-1,281
954,1	-3,938
954,6	-0,281
955	0,405
955,4	0,976
955,8	9,405
956,2	10,148
956,7	10,176
957,1	6,062
957,5	8,833
957,9	6,576
958,3	7,376
958,8	0,033
959,2	2,005
959,6	5,29
960	8,062
960,5	8,633
960,9	6,919
961,3	5,005
961,7	7,348
962,1	4,433
962,6	0,433
963	1,576
963,4	-4,938
963,8	-2,995
964,2	0,033
964,7	-1,995
965,1	0,433
965,5	2,148
965,9	0,262
966,3	3,29
966,8	3,376
967,2	5,805
967,6	8,433
968	3,862
968,4	0,662
968,9	1,633
969,3	0,805
969,7	-3,624
970,1	-5,367
970,5	-10,052
971	-2,852
971,4	-2,652
971,8	-2,595
972,2	4,033
972,6	5,033
973,1	4,605
973,5	10,719
973,9	9,748
974,3	12,49
974,7	14,948
975,2	10,948
975,6	8,748
976	10,348
976,4	4,919
976,8	0,119
977,3	-5,452
977,7	-7,51
978,1	-10,824
978,5	-8,424
978,9	-14,567
979,4	-13,995
979,8	-13,624
980,2	-7,595
980,6	-10,138
981	-4,167
981,5	-4,081
981,9	2,119
982,3	4,748
982,7	6,233
983,1	2,319
983,6	2,805
984	-2,938
984,4	0,233
984,8	-1,395
985,2	-5,938
985,6	-8,681
986,1	-7,767
986,5	-6,252
986,9	-8,252
987,3	-2,995
987,7	-6,681
988,2	-5,767
988,6	-5,11
989	-3,338
989,4	-5,481
989,8	-3,767
990,3	-7,767
990,7	-6,395
991,1	-3,595
991,5	-1,481
991,9	-1,681
992,3	3,548
992,8	7,605
993,2	6,262
993,6	9,433
994	10,233
994,4	10,433
994,9	10,005
995,3	6,89
995,7	5,576
996,1	1,262
996,5	-1,367
996,9	-7,338
997,4	-4,052
997,8	-6,738
998,2	-6,795
998,6	-12,452
999	-9,252
999,5	-5,738
999,9	-1,938
1000,3	-5,338
1000,7	-6,052
1001,1	-6,195
1001,5	1,033
1002	8,29
1002,4	5,719
1002,8	7,033
1003,2	11,748
1003,6	14,233
1004	19,49
1004,5	16,319
1004,9	12,748
1005,3	9,205
1005,7	10,862
1006,1	4,205
1006,6	3,776
1007	0,776
1007,4	0,548
1007,8	-1,51
1008,2	0,519
1008,6	-0,538
1009,1	2,09
1009,5	2,605
1009,9	0,719
1010,3	2,176
1010,7	0,633
1011,1	2,519
1011,6	4,148
1012	5,833
1012,4	7,005
1012,8	5,148
1013,2	5,376
1013,6	6,433
1014,1	7,062
1014,5	3,805
1014,9	-1,31
1015,3	-3,795
1015,7	-0,881
1016,1	1,833
1016,6	-4,138
1017	-1,681
1017,4	2,29
1017,8	8,519
1018,2	12,519
1018,6	6,462
1019,1	0,748
1019,5	8,005
1019,9	3,948
1020,3	2,605
1020,7	-1,452
1021,1	-1,881
1021,6	4,176
1022	6,433
1022,4	2,49
1022,8	3,633
1023,2	2,862
1023,6	6,319
1024,1	9,633
1024,5	8,176
1024,9	8,033
1025,3	9,69
1025,7	5,633
1026,1	9,033
1026,6	6,405
1027	-1,281
1027,4	-0,652
1027,8	-0,967
1028,2	-1,795
1028,6	7,833
1029	-1,167
1029,5	4,519
1029,9	7,119
1030,3	3,062
1030,7	2,605
1031,1	3,148
1031,5	-4,71
1032	-0,481
1032,4	-6,224
1032,8	-1,452
1033,2	4,119
1033,6	3,605
1034	1,376
1034,4	-0,052
1034,9	4,233
1035,3	3,262
1035,7	-0,824
1036,1	-3,224
1036,5	-3,252
1036,9	1,948
1037,4	11,833
1037,8	5,519
1038,2	5,548
1038,6	7,262
1039	11,919
1039,4	16,233
1039,8	10,833
1040,3	4,405
1040,7	8,262
1041,1	9,805
1041,5	9,69
1041,9	2,89
1042,3	-2,624
1042,7	2,805
1043,2	3,576
1043,6	-1,195
1044	-4,052
1044,4	-6,967
1044,8	-7,795
1045,2	-3,452
1045,6	-4,767
1046,1	-6,795
1046,5	-1,852
1046,9	-3,652
1047,3	-1,767
1047,7	-1,395
1048,1	-9,138
1048,5	-6,852
1049	-1,881
1049,4	-3,567
1049,8	1,262
1050,2	2,919
1050,6	6,805
1051	13,09
1051,4	12,062
1051,9	5,462
1052,3	12,719
1052,7	13,748
1053,1	9,548
1053,5	11,033
1053,9	9,176
1054,3	5,462
1054,8	9,948
1055,2	5,176
1055,6	6,605
1056	3,548
1056,4	-2,138
1056,8	1,49
1057,2	1,205
1057,6	-7,024
1058,1	-5,881
1058,5	-10,852
1058,9	-5,738
1059,3	-1,624
1059,7	-7,081
1060,1	-7,11
1060,5	-0,452
1061	-1,081
1061,4	0,462
1061,8	-1,138
1062,2	-3,052
1062,6	0,062
1063	3,119
1063,4	2,776
1063,8	-0,852
1064,3	-4,595
1064,7	-5,138
1065,1	-5,11
1065,5	-7,11
1065,9	-8,852
1066,3	-9,138
1066,7	-10,024
1067,1	-9,652
1067,6	-4,281
1068	-3,767
1068,4	-2,31
1068,8	-2,024
1069,2	-0,824
1069,6	-0,338
1070	6,805
1070,4	2,09
1070,9	0,433
1071,3	-1,138
1071,7	-2,938
1072,1	-5,624
1072,5	-7,31
1072,9	-12,71
1073,3	-10,224
1073,7	-10,652
1074,2	-6,281
1074,6	-7,967
1075	-8,024
1075,4	-8,995
1075,8	-3,367
1076,2	-7,995
1076,6	-0,938
1077	-2,938
1077,5	1,033
1077,9	-0,138
1078,3	1,176
1078,7	-1,081
1079,1	3,633
1079,5	-3,024
1079,9	-3,967
1080,3	-5,852
1080,7	-2,31
1081,2	1,948
1081,6	-0,881
1082	-2,367
1082,4	3,433
1082,8	1,433
1083,2	2,605
1083,6	2,919
1084	0,033
1084,5	3,805
1084,9	0,948
1085,3	-6,881
1085,7	-2,167
1086,1	0,862
1086,5	3,433
1086,9	8,433
1087,3	5,576
1087,7	5,519
1088,2	7,519
1088,6	2,462
1089	-0,938
1089,4	-1,738
1089,8	-5,881
1090,2	-5,967
1090,6	-1,424
1091	2,319
1091,4	6,033
1091,9	5,09
1092,3	2,376
1092,7	1,69
1093,1	2,405
1093,5	2,719
1093,9	0,805
1094,3	4,119
1094,7	1,862
1095,1	0,576
1095,5	-0,738
1096	-2,738
1096,4	-3,167
1096,8	-1,081
1097,2	-6,595
1097,6	3,69
1098	5,69
1098,4	10,205
1098,8	11,919
1099,2	17,348
1099,6	14,405
1100,1	15,29
1100,5	6,405
1100,9	5,862
1101,3	6,776
1101,7	4,833
1102,1	-0,595
1102,5	3,69
1102,9	5,005
1103,3	7,719
1103,7	10,862
1104,2	7,919
1104,6	10,119
1105	7,833
1105,4	5,548
1105,8	4,262
1106,2	3,119
1106,6	0,548
1107	0,233
1107,4	-0,3
1107,8	0,673
1108,3	-0,467
