Data from Subt2_198.txt Node
Date: Sat Aug 26 18:44:33 MSK 2023
User: vat
Spectrometer: MAYP114033
Trigger mode: 0
Integration Time (sec): 1,000000E0
Scans to average: 5
Electric dark correction enabled: true
Nonlinearity correction enabled: false
Boxcar width: 3
XAxis mode: Wavelengths
Number of Pixels in Spectrum: 2068
>>>>>Begin Spectral Data<<<<<
199,4	-1,383
199,9	-0,453
200,4	-4,833
200,8	-2,562
201,3	-2,562
201,8	-0,533
202,2	-4,705
202,7	0,267
203,2	0,381
203,6	2,867
204,1	1,924
204,6	-1,648
205	1,267
205,5	4,781
206	-0,533
206,4	-1,162
206,9	1,21
207,4	3,41
207,8	9,352
208,3	5,267
208,8	5,724
209,2	11,581
209,7	11,381
210,2	10,21
210,6	8,895
211,1	7,21
211,5	4,495
212	3,981
212,5	0,01
212,9	-1,733
213,4	-2,305
213,9	-5,476
214,3	-4,562
214,8	-1,533
215,3	-3,733
215,7	-3,648
216,2	1,952
216,7	6,41
217,1	6,867
217,6	6,067
218,1	8,067
218,5	8,067
219	2,695
219,5	2,695
219,9	-5,59
220,4	5,067
220,9	4,038
221,3	-2,476
221,8	0,01
222,3	7,581
222,7	7,581
223,2	6,41
223,6	-3,419
224,1	-4,048
224,6	-1,476
225	-1,876
225,5	-3,876
226	-6,362
226,4	0,181
226,9	4,21
227,4	5,21
227,8	2,781
228,3	1,924
228,8	-0,848
229,2	-2,048
229,7	-2,99
230,2	-7,905
230,6	-4,79
231,1	1,238
231,5	3,21
232	3,895
232,5	3,381
232,9	4,124
233,4	5,095
233,9	1,352
234,3	-0,79
234,8	-1,733
235,3	-0,362
235,7	4,038
236,2	2,895
236,7	5,124
237,1	9,095
237,6	8,295
238,1	5,838
238,5	3,81
239	3,067
239,4	7,238
239,9	3,952
240,4	2,267
240,8	2,724
241,3	3,21
241,8	5,381
242,2	4,238
242,7	-0,762
243,2	3,095
243,6	1,295
244,1	6,638
244,6	9,01
245	5,752
245,5	3,752
245,9	3,724
246,4	1,81
246,9	3,667
247,3	-1,333
247,8	0,324
248,3	5,467
248,7	7,152
249,2	11,267
249,7	14,781
250,1	14,21
250,6	14,552
251	15,924
251,5	13,324
252	11,61
252,4	10,895
252,9	3,238
253,4	-0,133
253,8	-1,19
254,3	-2,105
254,8	-3,448
255,2	-3,248
255,7	-5,219
256,1	0,495
256,6	6,667
257,1	8,324
257,5	4,667
258	9,781
258,5	10,895
258,9	12,895
259,4	8,352
259,9	6,952
260,3	2,638
260,8	3,752
261,2	1,552
261,7	2,01
262,2	-2,105
262,6	-0,733
263,1	-1,133
263,6	4,381
264	4,038
264,5	7,467
264,9	7,924
265,4	10,752
265,9	9,524
266,3	10,81
266,8	11,981
267,3	13,267
267,7	9,067
268,2	6,038
268,7	7,895
269,1	9,324
269,6	5,581
270	5,895
270,5	2,724
271	6,038
271,4	7,21
271,9	-0,79
272,4	4,038
272,8	5,438
273,3	2,524
273,7	4,524
274,2	1,467
274,7	0,724
275,1	11,695
275,6	8,695
276,1	7,61
276,5	8,124
277	8,695
277,4	6,295
277,9	9,324
278,4	4,181
278,8	4,267
279,3	8,181
279,8	8,152
280,2	12,124
280,7	12,524
281,1	8,981
281,6	8,552
282,1	8,781
282,5	6,867
283	5,381
283,4	0,81
283,9	2,838
284,4	7,381
284,8	8,838
285,3	2,867
285,8	1,695
286,2	-1,19
286,7	1,038
287,1	-0,505
287,6	-5,848
288,1	-9,105
288,5	-3,905
289	-4,676
289,5	0,181
289,9	-0,905
290,4	3,095
290,8	4,61
291,3	6,181
291,8	10,781
292,2	11,01
292,7	13,467
293,1	7,324
293,6	4,467
294,1	5,352
294,5	4,61
295	1,724
295,5	1,895
295,9	-0,19
296,4	5,352
296,8	4,581
297,3	7,867
297,8	2,724
298,2	-1,99
298,7	2,867
299,1	0,495
299,6	-3,305
300,1	-0,105
300,5	-1,333
301	9,038
301,5	10,981
301,9	7,638
302,4	7,124
302,8	11,867
303,3	8,524
303,8	6,638
304,2	1,21
304,7	6,752
305,1	3,295
305,6	5,181
306,1	7,267
306,5	7,21
307	10,838
307,4	14,552
307,9	13,724
308,4	11,381
308,8	10,038
309,3	5,467
309,8	6,067
310,2	3,552
310,7	-1,562
311,1	-6,819
311,6	-4,019
312,1	-2,133
312,5	3,124
313	3,895
313,4	1,638
313,9	2,838
314,4	3,467
314,8	2,152
315,3	0,81
315,7	-6,676
316,2	-8,076
316,7	-9,048
317,1	-7,733
317,6	-4,162
318	4,21
318,5	1,981
319	6,495
319,4	6,495
319,9	15,067
320,3	14,895
320,8	11,638
321,3	8,095
321,7	12,438
322,2	9,01
322,6	9,152
323,1	3,752
323,6	4,238
324	7,381
324,5	3,381
324,9	4,21
325,4	4,324
325,9	9,095
326,3	10,495
326,8	11,381
327,2	3,381
327,7	6,267
328,2	2,095
328,6	7,867
329,1	2,552
329,5	-3,79
330	-3,162
330,5	1,781
330,9	2,381
331,4	2,867
331,8	-1,248
332,3	4,152
332,8	11,381
333,2	12,467
333,7	15,695
334,1	16,324
334,6	13,695
335,1	10,381
335,5	6,867
336	3,81
336,4	2,895
336,9	3,467
337,4	3,438
337,8	8,895
338,3	12,924
338,7	15,524
339,2	12,924
339,7	11,752
340,1	6,752
340,6	7,067
341	3,152
341,5	4,038
342	0,152
342,4	1,352
342,9	1,438
343,3	5,552
343,8	3,81
344,2	3,952
344,7	6,41
345,2	5,524
345,6	3,981
346,1	6,038
346,5	2,524
347	-0,219
347,5	-0,933
347,9	0,781
348,4	4,752
348,8	8,781
349,3	9,067
349,8	11,238
350,2	16,781
350,7	17,695
351,1	11,467
351,6	12,724
352	16,095
352,5	20,867
353	30,238
353,4	35,267
353,9	46,581
354,3	59,067
354,8	68,295
355,3	85,324
355,7	105,152
356,2	124,352
356,6	148,41
357,1	174,467
357,5	209,41
358	247,324
358,5	286,695
358,9	326,867
359,4	374,61
359,8	429,467
360,3	501,238
360,8	568,438
361,2	653,095
361,7	739,838
362,1	838,438
362,6	946,524
363	1060,038
363,5	1170,352
364	1303,781
364,4	1430,695
364,9	1561,295
365,3	1689,21
365,8	1807,21
366,3	1922,552
366,7	2030,238
367,2	2114,038
367,6	2183,552
368,1	2246,781
368,5	2282,095
369	2300,21
369,5	2306,238
369,9	2291,952
370,4	2257,238
370,8	2210,867
371,3	2137,524
371,7	2064,724
372,2	1986,781
372,7	1890,067
373,1	1792,152
373,6	1688,781
374	1585,867
374,5	1481,524
374,9	1381,21
375,4	1278,867
375,9	1183,181
376,3	1088,21
376,8	1005,41
377,2	926,581
377,7	849,352
378,2	779,895
378,6	714,667
379,1	654,895
379,5	604,61
380	555,295
380,4	509,295
380,9	469,295
381,4	427,695
381,8	397,552
382,3	371,038
382,7	340,552
383,2	316,695
383,6	289,81
384,1	272,638
384,6	255,61
385	237,352
385,5	217,638
385,9	201,667
386,4	188,267
386,8	177,524
387,3	161,324
387,7	150,267
388,2	140,181
388,7	126,41
389,1	121,438
389,6	113,238
390	107,01
390,5	105,895
390,9	100,838
391,4	94,467
391,9	95,152
392,3	87,095
392,8	77,238
393,2	70,067
393,7	65,724
394,1	60,581
394,6	54,81
395,1	54,667
395,5	52,381
396	56,781
396,4	57,467
396,9	52,781
397,3	55,152
397,8	56,295
398,2	50,21
398,7	47,724
399,2	43,781
399,6	41,552
400,1	40,724
400,5	33,438
401	33,752
401,4	33,152
401,9	37,838
402,4	40,324
402,8	37,21
403,3	44,067
403,7	44,981
404,2	48,124
404,6	51,552
405,1	49,295
405,5	47,152
406	52,838
406,5	49,61
406,9	49,838
407,4	48,695
407,8	49,038
408,3	53,638
408,7	54,152
409,2	56,695
409,6	60,438
410,1	71,438
410,6	79,581
411	84,781
411,5	88,981
411,9	99,524
412,4	101,695
412,8	110,495
413,3	111,038
413,7	113,924
414,2	117,581
414,7	127,495
415,1	137,238
415,6	146,381
416	153,152
416,5	161,524
416,9	162,952
417,4	174,067
417,8	183,038
418,3	189,524
418,8	200,924
419,2	210,41
419,7	219,667
420,1	233,924
420,6	245,124
421	250,152
421,5	261,324
421,9	271,124
422,4	282,124
422,8	297,524
423,3	308,152
423,8	320,095
424,2	332,867
424,7	343,067
425,1	360,238
425,6	374,238
426	387,924
426,5	408,238
426,9	427,895
427,4	445,324
427,9	460,724
428,3	479,181
428,8	502,924
429,2	524,638
429,7	544,238
430,1	563,381
430,6	592,952
431	625,438
431,5	656,61
431,9	679,067
432,4	710,952
432,8	747,981
433,3	787,867
433,8	819,81
434,2	860,61
434,7	898,552
435,1	941,81
435,6	984,867
436	1023,695
436,5	1069,81
436,9	1112,41
437,4	1155,352
437,8	1203,467
438,3	1253,324
438,8	1308,524
439,2	1369,267
439,7	1427,524
440,1	1497,295
440,6	1569,895
441	1631,438
441,5	1704,81
441,9	1780,181
442,4	1845,038
442,8	1915,61
443,3	1990,495
443,7	2058,61
444,2	2150,638
444,7	2237,667
445,1	2316,895
445,6	2409,61
446	2500,467
446,5	2588,467
446,9	2685,61
447,4	2778,067
447,8	2874,838
448,3	2983,124
448,7	3091,81
449,2	3205,924
449,6	3317,695
450,1	3428,438
450,6	3541,952
451	3652,324
451,5	3771,267
451,9	3890,067
452,4	4008,695
452,8	4134,181
453,3	4266,124
453,7	4390,638
454,2	4527,238
454,6	4658,095
455,1	4793,838
455,5	4929,324
456	5070,552
456,4	5202,838
456,9	5349,21
457,3	5491,838
457,8	5631,467
458,3	5771,01
458,7	5919,867
459,2	6070,895
459,6	6221,324
460,1	6369,41
460,5	6514,381
461	6672,095
461,4	6831,667
461,9	6980,952
462,3	7132,61
462,8	7292,724
463,2	7447,238
463,7	7608,495
464,1	7763,238
464,6	7927,524
465	8093,01
465,5	8246,895
466	8398,181
466,4	8554,067
466,9	8708,41
467,3	8860,467
467,8	9000,552
468,2	9141,867
468,7	9296,238
469,1	9445,867
469,6	9600,41
470	9744,495
470,5	9886,752
470,9	10023,638
471,4	10170,067
471,8	10307,867
472,3	10453,952
472,7	10576,352
473,2	10709,01
473,6	10835,524
474,1	10976,267
474,5	11099,781
475	11223,067
475,4	11342,152
475,9	11465,81
476,4	11581,867
476,8	11707,467
477,3	11802,552
477,7	11917,095
478,2	12018,181
478,6	12111,695
479,1	12203,695
479,5	12302,038
480	12377,781
480,4	12476,81
480,9	12543,524
481,3	12614,867
481,8	12687,895
482,2	12758,124
482,7	12821,524
483,1	12887,667
483,6	12933,638
484	12986,752
484,5	13031,895
484,9	13068,324
485,4	13106,41
485,8	13135,267
486,3	13155,867
486,7	13192,952
487,2	13222,695
487,6	13248,324
488,1	13270,067
488,5	13282,01
489	13299,381
489,4	13305,495
489,9	13294,267
490,4	13289,524
490,8	13278,438
491,3	13267,095
491,7	13250,867
492,2	13226,552
492,6	13211,552
493,1	13181,838
493,5	13135,581
494	13094,324
494,4	13063,152
494,9	13027,01
495,3	12979,667
495,8	12928,495
496,2	12891,181
496,7	12846,924
497,1	12810,981
497,6	12741,952
498	12685,381
498,5	12628,924
498,9	12566,438
499,4	12498,495
499,8	12451,238
500,3	12385,552
500,7	12321,438
501,2	12250,21
501,6	12168,781
502,1	12106,638
502,5	12039,638
503	11962,552
503,4	11882,524
503,9	11801,181
504,3	11724,067
504,8	11649,067
505,2	11550,352
505,7	11466,581
506,1	11375,952
506,6	11275,981
507	11186,124
507,5	11093,41
507,9	11002,667
508,4	10921,61
508,8	10827,981
509,3	10726,381
509,7	10636,21
510,2	10549,095
510,6	10448,838
511,1	10359,581
511,5	10262,581
512	10157,038
512,4	10053,952
512,9	9960,267
513,3	9861,867
513,8	9767,124
514,2	9659,495
514,7	9555,41
515,1	9461,038
515,6	9375,267
516	9277,01
516,5	9186,638
516,9	9093,41
517,4	9006,495
517,8	8920,552
518,3	8820,552
518,7	8721,295
519,2	8629,124
519,6	8530,895
520,1	8437,867
520,5	8344,81
521	8242,895
521,4	8156,524
521,9	8065,352
522,3	7975,324
522,8	7885,038
523,2	7792,495
523,7	7706,61
524,1	7620,238
524,6	7528,724
525	7448,067
525,5	7364,724
525,9	7288,638
526,4	7204,067
526,8	7112,324
527,3	7045,724
527,7	6974,981
528,2	6891,095
528,6	6808,01
529,1	6726,724
529,5	6651,61
530	6581,467
530,4	6494,752
530,9	6416,124
531,3	6344,324
531,8	6273,781
532,2	6197,495
532,6	6129,181
533,1	6058,581
533,5	5987,581
534	5920,124
534,4	5849,752
534,9	5783,352
535,3	5717,638
535,8	5648,438
536,2	5584,267
536,7	5523,952
537,1	5462,324
537,6	5404,467
538	5347,067
538,5	5297,181
538,9	5233,638
539,4	5177,552
539,8	5114,695
540,3	5067,781
540,7	5012,781
541,2	4950,352
541,6	4888,752
542,1	4844,724
542,5	4790,895
543	4739,552
543,4	4675,067
543,9	4622,781
544,3	4582,038
544,8	4531,01
545,2	4488,324
545,7	4442,81
546,1	4410,695
546,5	4374,752
547	4334,295
547,4	4287,952
547,9	4245,752
548,3	4202,21
548,8	4159,21
549,2	4113,038
549,7	4070,781
550,1	4035,524
550,6	3996,267
551	3961,21
551,5	3917,81
551,9	3881,81
552,4	3843,695
552,8	3809,838
553,3	3758,21
553,7	3728,381
554,2	3696,495
554,6	3667,381
555,1	3642,41
555,5	3606,61
555,9	3578,238
556,4	3554,181
556,8	3517,238
557,3	3479,038
557,7	3448,638
558,2	3408,381
558,6	3384,067
559,1	3343,981
559,5	3322,581
560	3301,067
560,4	3277,638
560,9	3247,667
561,3	3218,21
561,8	3191,324
562,2	3172,981
562,7	3139,41
563,1	3111,552
563,6	3083,495
564	3058,352
564,4	3040,01
564,9	3014,124
565,3	2985,724
565,8	2963,867
566,2	2938,067
566,7	2920,124
567,1	2899,124
567,6	2873,295
568	2851,752
568,5	2833,21
568,9	2814,124
569,4	2793,781
569,8	2770,095
570,3	2750,124
570,7	2728,41
571,1	2712,438
571,6	2695,524
572	2680,295
572,5	2657,21
572,9	2636,21
573,4	2617,61
573,8	2601,867
574,3	2571,295
574,7	2546,495
575,2	2522,695
575,6	2504,495
576,1	2487,324
576,5	2476,152
576,9	2458,181
577,4	2447,724
577,8	2428,981
578,3	2417,067
578,7	2403,867
579,2	2393,581
579,6	2363,438
580,1	2340,21
580,5	2322,752
581	2301,695
581,4	2279,41
581,9	2259,21
582,3	2236,552
582,7	2226,495
583,2	2215,267
583,6	2202,638
584,1	2197,324
584,5	2184,981
585	2168,467
585,4	2145,952
585,9	2131,781
586,3	2120,038
586,8	2102,724
587,2	2082,095
587,6	2068,495
588,1	2068,495
588,5	2063,267
589	2045,581
589,4	2032,295
589,9	2016,981
590,3	2008,495
590,8	1991,81
591,2	1968,21
591,7	1959,81
592,1	1951,952
592,5	1943,981
593	1934,667
593,4	1920,667
593,9	1907,838
594,3	1896,81
594,8	1878,495
595,2	1863,01
595,7	1850,352
596,1	1837,067
596,6	1829,152
597	1820,152
597,4	1807,067
597,9	1796,552
598,3	1795,295
598,8	1778,324
599,2	1767,695
599,7	1759,895
600,1	1751,724
600,6	1744,781
601	1737,152
601,4	1727,381
601,9	1726,638
602,3	1719,181
602,8	1706,695
603,2	1696,667
603,7	1685,781
604,1	1678,067
604,6	1665,067
605	1647,324
605,4	1638,752
605,9	1629,981
606,3	1616,238
606,8	1603,981
607,2	1594,552
607,7	1578,324
608,1	1575,152
608,6	1568,638
609	1558,381
609,4	1554,352
609,9	1550,067
610,3	1541,61
610,8	1533,695
611,2	1522,61
611,7	1512,295
612,1	1496,552
612,6	1491,752
613	1484,467
613,4	1472,695
613,9	1470,21
614,3	1461,038
614,8	1454,581
615,2	1451,41
615,7	1440,095
616,1	1434,267
616,6	1426,124
617	1415,095
617,4	1409,438
617,9	1401,181
618,3	1397,21
618,8	1394,981
619,2	1382,438
619,7	1377,295
620,1	1364,524
620,5	1358,581
621	1347,381
621,4	1334,495
621,9	1319,324
622,3	1310,295
622,8	1299,181
623,2	1293,324
623,6	1285,038
624,1	1280,838
624,5	1275,867
625	1269,924
625,4	1266,638
625,9	1262,752
626,3	1257,724
626,8	1241,267
627,2	1230,467
627,6	1214,524
628,1	1201,838
628,5	1195,781
629	1181,61
629,4	1175,152
629,9	1174,381
630,3	1167,81
630,7	1164,752
631,2	1161,21
631,6	1147,467
632,1	1142,152
632,5	1130,352
633	1123,41
633,4	1112,924
633,8	1106,838
634,3	1096,381
634,7	1094,181
635,2	1088,238
635,6	1085,41
636,1	1073,981
636,5	1065,924
636,9	1053,867
637,4	1049,752
637,8	1037,695
638,3	1032,467
638,7	1023,952
639,2	1014,724
639,6	1008,895
640	1005,895
640,5	996,781
640,9	990,524
641,4	985,438
641,8	979,41
642,2	979,438
642,7	981,838
643,1	982,238
643,6	976,495
644	974,181
644,5	965,867
644,9	959,381
645,3	952,952
645,8	937,267
646,2	929,267
646,7	923,667
647,1	915,038
647,6	910,724
648	908,838
648,4	899,267
648,9	897,438
649,3	888,438
649,8	886,781
650,2	879,61
650,6	873,81
651,1	865,552
651,5	867,01
652	858,952
652,4	856,41
652,9	849,21
653,3	847,495
653,7	840,838
654,2	831,238
654,6	816,067
655,1	816,124
655,5	814,638
655,9	810,095
656,4	802,552
656,8	798,495
657,3	797,181
657,7	797,61
658,2	786,038
658,6	773,867
659	769,41
659,5	766,21
659,9	764,238
660,4	763,352
660,8	755,552
661,2	754,838
661,7	752,924
662,1	747,438
662,6	741,724
663	731,324
663,4	722,01
663,9	718,552
664,3	713,895
664,8	704,981
665,2	700,924
665,6	698,438
666,1	693,552
666,5	685,381
667	680,181
667,4	672,81
667,9	672,724
668,3	663,41
668,7	654,581
669,2	651,61
669,6	653,21
670,1	648,181
670,5	641,838
670,9	634,695
671,4	629,038
671,8	624,467
672,3	627,438
672,7	620,238
673,1	609,295
673,6	605,067
674	603,924
674,5	601,095
674,9	597,924
675,3	580,867
675,8	581,838
676,2	584,952
676,7	581,61
677,1	574,324
677,5	569,095
678	565,01
678,4	569,238
678,9	561,667
679,3	557,067
679,7	552,381
680,2	546,352
680,6	547,495
681,1	544,81
681,5	538,61
681,9	532,924
682,4	533,181
682,8	533,438
683,3	535,752
683,7	532,181
684,1	526,21
684,6	523,552
685	524,352
685,5	519,981
685,9	512,695
686,3	504,838
686,8	496,438
687,2	495,695
687,7	486,667
688,1	476,324
688,5	468,895
689	466,324
689,4	461,524
689,9	461,067
690,3	453,867
690,7	455,838
691,2	459,324
691,6	456,038
692	453,495
692,5	457,324
692,9	453,352
693,4	450,781
693,8	446,838
694,2	437,524
694,7	433,124
695,1	433,581
695,6	427,724
696	428,581
696,4	425,781
696,9	417,324
697,3	415,038
697,8	415,724
698,2	408,381
698,6	406,21
699,1	400,124
699,5	400,581
699,9	403,438
700,4	400,495
700,8	396,552
701,3	395,352
701,7	385,01
702,1	378,438
702,6	374,467
703	374,181
703,5	373,867
703,9	370,438
704,3	370,181
704,8	370,581
705,2	372,981
705,6	366,038
706,1	364,095
706,5	354,695
707	351,952
707,4	350,352
707,8	344,81
708,3	344,667
708,7	346,552
709,2	337,581
709,6	338,038
710	338,352
710,5	329,438
710,9	333,552
711,3	326,867
711,8	326,124
712,2	324,552
712,7	324,952
713,1	321,524
713,5	326,095
714	321,667
714,4	319,61
714,8	317,752
715,3	315,41
715,7	314,41
716,2	311,895
716,6	308,295
717	304,324
717,5	297,952
717,9	295,524
718,3	294,61
718,8	292,524
719,2	289,781
719,7	286,61
720,1	287,581
720,5	291,352
721	289,152
721,4	285,038
721,8	287,667
722,3	281,495
722,7	281,838
723,2	274,752
723,6	267,01
724	259,638
724,5	259,324
724,9	250,724
725,3	250,295
725,8	246,295
726,2	247,552
726,7	246,552
727,1	250,21
727,5	248,838
728	244,067
728,4	244,924
728,8	242,695
729,3	235,838
729,7	232,81
730,1	229,524
730,6	227,581
731	226,067
731,5	223,238
731,9	221,381
732,3	226,867
732,8	231,067
733,2	229,181
733,6	224,867
734,1	229,238
734,5	229,181
734,9	230,495
735,4	229,41
735,8	220,324
736,3	220,952
736,7	221,295
737,1	217,895
737,6	216,01
738	206,867
738,4	200,724
738,9	205,81
739,3	203,895
739,7	201,981
740,2	198,695
740,6	198,267
741,1	205,81
741,5	201,752
741,9	200,61
742,4	199,638
742,8	197,095
743,2	198,438
743,7	197,838
744,1	188,438
744,5	189,867
745	184,695
745,4	181,095
745,8	183,01
746,3	181,495
746,7	177,581
747,2	181,638
747,6	189,924
748	194,352
748,5	197,267
748,9	197,381
749,3	194,924
749,8	195,781
750,2	195,152
750,6	185,495
751,1	185,867
751,5	184,695
751,9	183,381
752,4	183,724
752,8	181,238
753,3	181,038
753,7	185,638
754,1	179,695
754,6	173,438
755	167,067
755,4	162,467
755,9	158,695
756,3	152,952
756,7	146,524
757,2	149,181
757,6	152,552
758	155,152
758,5	155,667
758,9	158,638
759,3	159,838
759,8	161,238
760,2	154,638
760,6	147,752
761,1	145,638
761,5	144,781
761,9	142,552
762,4	138,038
762,8	132,952
763,3	135,581
763,7	137,21
764,1	140,81
764,6	142,124
765	145,781
765,4	151,667
765,9	155,295
766,3	157,352
766,7	155,981
767,2	148,638
767,6	150,867
768	143,238
768,5	137,838
768,9	133,438
769,3	126,381
769,8	123,095
770,2	127,81
770,6	122,267
771,1	130,41
771,5	132,095
771,9	136,924
772,4	141,552
772,8	140,01
773,2	135,352
773,7	134,038
774,1	127,267
774,5	122,01
775	117,21
775,4	114,838
775,8	115,324
776,3	118,838
776,7	118,524
777,1	115,324
777,6	120,124
778	122,895
778,4	120,667
778,9	123,01
779,3	120,838
779,7	119,895
780,2	121,295
780,6	118,81
781	112,267
781,5	109,581
781,9	111,01
782,3	104,667
782,8	105,467
783,2	104,124
783,6	104,924
784,1	105,495
784,5	105,867
784,9	102,152
785,4	108,267
785,8	107,781
786,2	109,981
786,7	106,352
787,1	108,381
787,5	108,724
788	110,838
788,4	107,81
788,8	102,238
789,3	99,21
789,7	96,981
790,1	96,695
790,6	100,552
791	95,495
791,4	96,295
791,9	100,324
792,3	97,01
792,7	102,981
793,2	98,438
793,6	92,895
794	93,895
794,5	89,667
794,9	89,781
795,3	94,867
795,8	87,238
796,2	88,41
796,6	89,952
797,1	91,581
797,5	87,695
797,9	82,21
798,4	78,81
798,8	81,067
799,2	79,21
799,7	77,924
800,1	71,981
800,5	78,581
801	84,438
801,4	82,267
801,8	81,381
802,2	81,838
802,7	78,867
803,1	81,838
803,5	78,41
804	73,267
804,4	74,61
804,8	75,41
805,3	78,152
805,7	81,552
806,1	80,067
806,6	81,781
807	83,61
807,4	79,238
807,9	71,41
808,3	65,067
808,7	61,952
809,2	63,781
809,6	64,467
810	63,895
810,4	65,181
810,9	69,295
811,3	69,438
811,7	69,581
812,2	71,067
812,6	69,352
813	70,124
813,5	73,095
813,9	73,752
814,3	73,895
814,8	73,781
815,2	71,181
815,6	70,238
816,1	69,267
816,5	67,724
816,9	68,324
817,3	68,038
817,8	74,381
818,2	76,41
818,6	70,952
819,1	67,838
819,5	65,552
819,9	66,524
820,4	66,838
820,8	56,067
821,2	50,438
821,7	56,267
822,1	61,495
822,5	65,81
822,9	64,438
823,4	65,695
823,8	71,324
824,2	71,552
824,7	66,324
825,1	56,524
825,5	49,695
826	44,381
826,4	41,152
826,8	38,495
827,3	41,295
827,7	42,924
828,1	49,952
828,5	52,895
829	49,838
829,4	51,552
829,8	50,924
830,3	47,467
830,7	47,781
831,1	44,467
831,6	41,124
832	44,838
832,4	43,381
832,8	43,152
833,3	44,981
833,7	44,495
834,1	43,724
834,6	48,038
835	50,981
835,4	49,438
835,8	44,181
836,3	41,152
836,7	43,267
837,1	41,238
837,6	38,981
838	36,181
838,4	38,181
838,9	40,267
839,3	38,181
839,7	37,724
840,1	37,038
840,6	35,438
841	40,21
841,4	39,181
841,9	45,124
842,3	46,638
842,7	42,695
843,1	46,61
843,6	49,095
844	45,438
844,4	48,352
844,9	44,952
845,3	45,781
845,7	44,324
846,2	38,867
846,6	38,524
847	40,095
847,4	39,352
847,9	38,095
848,3	39,038
848,7	41,181
849,2	41,381
849,6	35,267
850	35,181
850,4	34,467
850,9	31,724
851,3	29,924
851,7	30,724
852,2	30,638
852,6	37,095
853	36,895
853,4	37,438
853,9	37,21
854,3	39,638
854,7	38,752
855,2	36,695
855,6	35,067
856	31,324
856,4	26,41
856,9	25,41
857,3	22,552
857,7	25,752
858,2	33,952
858,6	31,352
859	31,495
859,4	31,352
859,9	31,895
860,3	29,867
860,7	27,981
861,1	27,152
861,6	27,324
862	26,038
862,4	28,41
862,9	30,238
863,3	29,895
863,7	27,124
864,1	24,438
864,6	22,01
865	20,924
865,4	19,552
865,9	21,695
866,3	18,181
866,7	21,01
867,1	19,067
867,6	23,01
868	24,295
868,4	22,067
868,8	25,352
869,3	25,01
869,7	25,895
870,1	25,038
870,6	19,495
871	3,667
871,4	11,324
871,8	3,295
872,3	7,895
872,7	8,095
873,1	6,752
873,5	9,067
874	24,752
874,4	19,924
874,8	22,667
875,3	26,181
875,7	20,838
876,1	24,095
876,5	25,21
877	21,495
877,4	16,524
877,8	14,781
878,2	14,21
878,7	16,81
879,1	13,895
879,5	13,81
879,9	18,01
880,4	21,867
880,8	23,895
881,2	20,781
881,7	20,181
882,1	19,495
882,5	17,438
882,9	21,267
883,4	18,981
883,8	19,867
884,2	18,495
884,6	18,01
885,1	20,924
885,5	22,781
885,9	17,267
886,3	21,295
886,8	17,238
887,2	16,667
887,6	13,895
888	12,038
888,5	14,495
888,9	16,638
889,3	11,867
889,8	12,495
890,2	14,438
890,6	13,924
891	12,724
891,5	7,495
891,9	7,638
892,3	8,067
892,7	11,81
893,2	12,638
893,6	16,467
894	20,752
894,4	20,781
894,9	19,524
895,3	18,552
895,7	16,495
896,1	14,381
896,6	11,438
897	11,81
897,4	20,152
897,8	23,152
898,3	26,495
898,7	22,095
899,1	21,895
899,5	20,695
900	13,895
900,4	9,638
900,8	4,838
901,2	3,524
901,7	5,095
902,1	5,552
902,5	11,267
902,9	15,81
903,4	16,352
903,8	18,924
904,2	19,238
904,6	19,381
905,1	20,895
905,5	17,981
905,9	19,124
906,3	18,152
906,8	18,438
907,2	20,495
907,6	22,724
908	20,581
908,5	19,267
908,9	13,867
909,3	11,438
909,7	7,981
910,2	6,952
910,6	7,638
911	4,467
911,4	10,152
911,9	11,267
912,3	15,295
912,7	22,238
913,1	19,81
913,6	17,981
914	19,01
914,4	10,81
914,8	11,867
915,3	8,267
915,7	2,124
916,1	4,495
916,5	4,524
916,9	6,867
917,4	9,581
917,8	11,124
918,2	6,495
918,6	3,61
919,1	6,524
919,5	11,838
919,9	15,552
920,3	9,952
920,8	10,667
921,2	16,695
921,6	17,924
922	12,781
922,5	4,381
922,9	-0,076
923,3	4,181
923,7	3,267
924,2	2,638
924,6	4,152
925	4,695
925,4	4,152
925,8	3,924
926,3	6,467
926,7	3,724
927,1	3,895
927,5	6,238
928	5,838
928,4	9,467
928,8	16,724
929,2	13,895
929,7	16,41
930,1	12,181
930,5	7,981
930,9	10,638
931,3	10,295
931,8	3,581
932,2	5,867
932,6	4,124
933	4,467
933,5	8,095
933,9	7,838
934,3	11,552
934,7	10,095
935,2	10,067
935,6	13,238
936	15,952
936,4	16,867
936,8	20,295
937,3	14,838
937,7	19,352
938,1	19,552
938,5	16,41
939	16,01
939,4	13,981
939,8	8,781
940,2	9,752
940,6	10,895
941,1	9,01
941,5	13,124
941,9	9,695
942,3	8,581
942,8	12,095
943,2	14,095
943,6	10,324
944	11,181
944,4	10,152
944,9	12,467
945,3	12,067
945,7	3,838
946,1	1,495
946,6	-1,19
947	-0,076
947,4	-0,79
947,8	-4,505
948,2	-6,648
948,7	-2,476
949,1	-4,248
949,5	2,01
949,9	0,495
950,3	0,267
950,8	6,41
951,2	8,124
951,6	6,867
952	9,01
952,5	4,467
952,9	6,61
953,3	6,61
953,7	3,952
954,1	11,295
954,6	13,638
955	14,438
955,4	10,552
955,8	15,038
956,2	14,01
956,7	14,267
957,1	5,981
957,5	8,895
957,9	9,552
958,3	14,524
958,8	11,295
959,2	14,067
959,6	16,752
960	16,752
960,5	16,352
960,9	15,352
961,3	14,352
961,7	10,867
962,1	7,21
962,6	6,581
963	6,638
963,4	1,467
963,8	-0,79
964,2	1,124
964,7	1,638
965,1	6,952
965,5	4,638
965,9	5,581
966,3	8,981
966,8	10,952
967,2	10,438
967,6	8,81
968	0,238
968,4	1,581
968,9	2,124
969,3	6,238
969,7	2,124
970,1	2,152
970,5	1,067
971	7,495
971,4	2,038
971,8	5,752
972,2	0,667
972,6	5,495
973,1	1,895
973,5	8,152
973,9	9,41
974,3	17,752
974,7	19,581
975,2	21,238
975,6	17,638
976	23,438
976,4	15,524
976,8	15,21
977,3	5,41
977,7	-1,819
978,1	-0,79
978,5	4,41
978,9	-2,848
979,4	-0,305
979,8	-5,619
980,2	-1,59
980,6	-0,705
981	-3,562
981,5	-6,019
981,9	0,467
982,3	3,552
982,7	6,038
983,1	6,838
983,6	9,295
984	10,781
984,4	9,352
984,8	6,781
985,2	4,181
985,6	-0,705
986,1	1,952
986,5	-0,476
986,9	-5,79
987,3	-1,79
987,7	-0,59
988,2	0,895
988,6	5,524
989	4,981
989,4	3,752
989,8	5,838
990,3	2,295
990,7	-0,676
991,1	-1,933
991,5	0,324
991,9	2,81
992,3	7,495
992,8	8,067
993,2	8,438
993,6	10,21
994	12,952
994,4	10,952
994,9	6,295
995,3	5,524
995,7	7,581
996,1	7,152
996,5	3,495
996,9	-1,076
997,4	7,21
997,8	5,295
998,2	0,724
998,6	-3,905
999	-5,248
999,5	-3,476
999,9	-2,476
1000,3	-11,19
1000,7	-7,333
1001,1	-6,99
1001,5	-5,505
1002	2,81
1002,4	6,981
1002,8	9,21
1003,2	13,438
1003,6	16,924
1004	22,095
1004,5	20,667
1004,9	14,924
1005,3	9,695
1005,7	8,724
1006,1	2,495
1006,6	-3,048
1007	-6,762
1007,4	-3,733
1007,8	-1,448
1008,2	-1,419
1008,6	3,467
1009,1	5,238
1009,5	8,838
1009,9	11,495
1010,3	9,981
1010,7	6,438
1011,1	10,724
1011,6	6,324
1012	8,524
1012,4	5,695
1012,8	3,324
1013,2	6,01
1013,6	11,324
1014,1	10,981
1014,5	13,038
1014,9	12,867
1015,3	15,295
1015,7	15,41
1016,1	16,638
1016,6	12,067
1017	12,61
1017,4	14,095
1017,8	10,667
1018,2	10,581
1018,6	5,038
1019,1	-1,105
1019,5	-4,362
1019,9	-8,105
1020,3	-12,448
1020,7	-8,676
1021,1	-12,419
1021,6	-5,79
1022	2,552
1022,4	9,381
1022,8	9,038
1023,2	9,238
1023,6	7,095
1024,1	14,295
1024,5	14,552
1024,9	10,152
1025,3	5,267
1025,7	7,21
1026,1	8,81
1026,6	12,952
1027	3,552
1027,4	0,124
1027,8	-3,59
1028,2	-4,533
1028,6	-2,362
1029	-2,99
1029,5	-2,876
1029,9	1,381
1030,3	3,324
1030,7	3,438
1031,1	6,295
1031,5	0,838
1032	2,352
1032,4	-1,448
1032,8	1,524
1033,2	3,352
1033,6	6,352
1034	2,067
1034,4	4,41
1034,9	5,381
1035,3	3,581
1035,7	2,895
1036,1	2,21
1036,5	0,095
1036,9	2,638
1037,4	7,01
1037,8	0,038
1038,2	1,01
1038,6	0,724
1039	2,438
1039,4	9,381
1039,8	3,524
1040,3	3,152
1040,7	3,81
1041,1	2,124
1041,5	-4,019
1041,9	-7,105
1042,3	-9,705
1042,7	-5,333
1043,2	-9,39
1043,6	-9,99
1044	-10,762
1044,4	-7,533
1044,8	-5,105
1045,2	-8,105
1045,6	-2,705
1046,1	-2,276
1046,5	-1,648
1046,9	-3,333
1047,3	-2,99
1047,7	-5,905
1048,1	-10,962
1048,5	-13,676
1049	-10,019
1049,4	-3,505
1049,8	-1,448
1050,2	-1,819
1050,6	5,524
1051	12,495
1051,4	14,352
1051,9	8,724
1052,3	12,41
1052,7	13,952
1053,1	13,581
1053,5	11,895
1053,9	14,438
1054,3	10,695
1054,8	17,524
1055,2	12,352
1055,6	13,324
1056	14,095
1056,4	9,724
1056,8	6,238
1057,2	7,495
1057,6	4,495
1058,1	5,124
1058,5	1,01
1058,9	3,867
1059,3	6,295
1059,7	8,324
1060,1	9,01
1060,5	10,895
1061	10,838
1061,4	13,895
1061,8	12,352
1062,2	7,381
1062,6	10,095
1063	10,095
1063,4	8,752
1063,8	6,181
1064,3	4,638
1064,7	6,752
1065,1	11,41
1065,5	3,067
1065,9	1,838
1066,3	2,667
1066,7	0,695
1067,1	-0,476
1067,6	0,838
1068	-4,19
1068,4	0,61
1068,8	3,181
1069,2	1,067
1069,6	-0,762
1070	4,752
1070,4	0,038
1070,9	2,267
1071,3	-0,076
1071,7	-1,876
1072,1	-3,676
1072,5	-1,39
1072,9	-3,99
1073,3	-0,79
1073,7	-3,019
1074,2	-3,533
1074,6	-5,59
1075	-4,448
1075,4	-3,105
1075,8	0,667
1076,2	-1,076
1076,6	0,495
1077	3,581
1077,5	8,295
1077,9	7,267
1078,3	3,467
1078,7	-0,505
1079,1	-1,762
1079,5	1,638
1079,9	2,21
1080,3	-0,819
1080,7	1,924
1081,2	8,867
1081,6	8,724
1082	8,295
1082,4	8,381
1082,8	8,324
1083,2	9,81
1083,6	8,067
1084	6,581
1084,5	10,552
1084,9	11,781
1085,3	8,495
1085,7	6,924
1086,1	5,952
1086,5	7,552
1086,9	5,295
1087,3	1,095
1087,7	-1,419
1088,2	-2,248
1088,6	-2,39
1089	-1,79
1089,4	-1,848
1089,8	-0,962
1090,2	-2,133
1090,6	-1,533
1091	2,724
1091,4	4,152
1091,9	4,181
1092,3	4,124
1092,7	3,038
1093,1	10,552
1093,5	11,181
1093,9	9,41
1094,3	16,924
1094,7	15,781
1095,1	16,238
1095,5	18,095
1096	10,21
1096,4	13,181
1096,8	13,638
1097,2	2,152
1097,6	5,838
1098	8,381
1098,4	8,724
1098,8	12,324
1099,2	17,01
1099,6	16,352
1100,1	19,581
1100,5	14,781
1100,9	12,324
1101,3	12,495
1101,7	10,124
1102,1	3,581
1102,5	5,695
1102,9	6,495
1103,3	12,352
1103,7	12,067
1104,2	10,038
1104,6	12,61
1105	12,781
1105,4	9,152
1105,8	6,867
1106,2	2,267
1106,6	0,467
1107	0,924
1107,4	-0,767
1107,8	-1,933
1108,3	-0,483
