Data from Subt2_225.txt Node
Date: Sat Aug 26 18:50:48 MSK 2023
User: vat
Spectrometer: MAYP114033
Trigger mode: 0
Integration Time (sec): 1,000000E0
Scans to average: 5
Electric dark correction enabled: true
Nonlinearity correction enabled: false
Boxcar width: 3
XAxis mode: Wavelengths
Number of Pixels in Spectrum: 2068
>>>>>Begin Spectral Data<<<<<
199,4	0,15
199,9	4,88
200,4	-0,133
200,8	0,971
201,3	-0,171
201,8	0,571
202,2	-2,829
202,7	1,571
203,2	-1,457
203,6	2,943
204,1	-1,857
204,6	-1,057
205	1,457
205,5	3,829
206	-0,486
206,4	-1,886
206,9	-3,4
207,4	2,429
207,8	4,2
208,3	1,086
208,8	2,971
209,2	6,457
209,7	7,514
210,2	10,886
210,6	8,4
211,1	8,8
211,5	6,771
212	5,057
212,5	1,057
212,9	2,914
213,4	5,429
213,9	3,857
214,3	4,971
214,8	7,314
215,3	5,971
215,7	8,114
216,2	7,286
216,7	-1,629
217,1	-0,943
217,6	-2,657
218,1	-0,4
218,5	-3,057
219	-8,657
219,5	-5,714
219,9	-4,629
220,4	4,771
220,9	2,657
221,3	-2,4
221,8	4,343
222,3	8,6
222,7	6,486
223,2	9,771
223,6	2,629
224,1	2,2
224,6	5,457
225	-0,343
225,5	2,143
226	-0
226,4	-0,943
226,9	-0,429
227,4	0,371
227,8	-4,943
228,3	-1,057
228,8	-4,857
229,2	-2,171
229,7	-1,629
230,2	-0,629
230,6	1,886
231,1	11,429
231,5	9,2
232	11,057
232,5	5,8
232,9	10,143
233,4	9,429
233,9	6,886
234,3	3,257
234,8	5,914
235,3	2,6
235,7	8,829
236,2	5,429
236,7	1,886
237,1	2,343
237,6	-1,686
238,1	-3,4
238,5	-6,8
239	-6,914
239,4	-3,171
239,9	-2,886
240,4	-0,514
240,8	4,257
241,3	7,029
241,8	11,714
242,2	11,257
242,7	3,2
243,2	6,429
243,6	2,4
244,1	1,343
244,6	-1,4
245	1,914
245,5	-0,914
245,9	1,714
246,4	2
246,9	5,114
247,3	4,457
247,8	7,6
248,3	9,257
248,7	9,286
249,2	9,429
249,7	9,457
250,1	11,314
250,6	12
251	10,057
251,5	6,8
252	7,743
252,4	10,771
252,9	5,4
253,4	-3,6
253,8	-8
254,3	-7,886
254,8	-5,971
255,2	-9,857
255,7	-11,314
256,1	-6,686
256,6	1,943
257,1	4,171
257,5	2,8
258	0,486
258,5	5,114
258,9	6,371
259,4	2,2
259,9	2,057
260,3	1,343
260,8	-0,4
261,2	-1,086
261,7	-0,2
262,2	-4,171
262,6	-2,457
263,1	-1,314
263,6	3,971
264	11,771
264,5	16,457
264,9	13,943
265,4	15,714
265,9	15,257
266,3	11,943
266,8	11,171
267,3	4,971
267,7	1,286
268,2	-1,171
268,7	-1,057
269,1	-0,514
269,6	1,914
270	2,029
270,5	-1,686
271	-1,514
271,4	0,457
271,9	-4,057
272,4	0,143
272,8	-1,343
273,3	-5,914
273,7	-2,6
274,2	-2,857
274,7	1,514
275,1	3,114
275,6	4,829
276,1	3,543
276,5	7
277	8,257
277,4	7,429
277,9	4,8
278,4	6,457
278,8	4,429
279,3	2,971
279,8	1,029
280,2	4,286
280,7	6,743
281,1	0,886
281,6	0,143
282,1	-0,829
282,5	1,343
283	3,4
283,4	2,314
283,9	0,629
284,4	10,457
284,8	13,314
285,3	12,4
285,8	9,143
286,2	8,657
286,7	5,857
287,1	2,257
287,6	0,629
288,1	-5,686
288,5	-3,057
289	3,2
289,5	4,571
289,9	4,286
290,4	9
290,8	6,371
291,3	13,2
291,8	14,743
292,2	11,171
292,7	13,771
293,1	12,286
293,6	14,029
294,1	12,914
294,5	10,714
295	3,029
295,5	1,229
295,9	-5,286
296,4	-5,057
296,8	-8,543
297,3	-5,514
297,8	-8,4
298,2	-6,914
298,7	-1,971
299,1	1,6
299,6	4,343
300,1	4,257
300,5	4,371
301	11,371
301,5	15,8
301,9	14,943
302,4	10,771
302,8	9,114
303,3	6
303,8	-1,086
304,2	-3,743
304,7	-7,857
305,1	-13,686
305,6	-10,543
306,1	-4,629
306,5	-0,057
307	4,543
307,4	2,8
307,9	5,971
308,4	4,371
308,8	2,286
309,3	-1,629
309,8	-2,029
310,2	3,4
310,7	0,886
311,1	1,314
311,6	6,657
312,1	7,657
312,5	10,743
313	10,571
313,4	5,343
313,9	9,686
314,4	7,457
314,8	4,629
315,3	6,8
315,7	-0,257
316,2	0,114
316,7	-0,371
317,1	2
317,6	-0,543
318	7,771
318,5	3,514
319	5,314
319,4	3,857
319,9	9,886
320,3	12,714
320,8	12,086
321,3	7,629
321,7	11,6
322,2	11,371
322,6	12,771
323,1	8,143
323,6	-0,514
324	1,743
324,5	-0,229
324,9	-0,114
325,4	0,714
325,9	4,4
326,3	5,571
326,8	9,6
327,2	7,086
327,7	10,057
328,2	9,743
328,6	12,943
329,1	6,886
329,5	6,086
330	1,143
330,5	6,057
330,9	5,886
331,4	7,943
331,8	6,343
332,3	9,657
332,8	11,2
333,2	13,771
333,7	14,257
334,1	11,543
334,6	6,543
335,1	2,343
335,5	2,8
336	-3,029
336,4	0,057
336,9	2,6
337,4	4,343
337,8	4,114
338,3	11,114
338,7	10,4
339,2	12,4
339,7	9,686
340,1	4,714
340,6	6,229
341	7
341,5	2
342	0,114
342,4	-2,914
342,9	-2,343
343,3	1,229
343,8	-1,857
344,2	0,2
344,7	3,457
345,2	4,714
345,6	12,371
346,1	16,171
346,5	9,057
347	10,143
347,5	7,229
347,9	10,114
348,4	9,171
348,8	5,343
349,3	5,457
349,8	11,457
350,2	16,6
350,7	17,857
351,1	14,886
351,6	19,457
352	26,257
352,5	28,371
353	36,571
353,4	38,029
353,9	51,229
354,3	66,057
354,8	79,371
355,3	95,057
355,7	115,514
356,2	138,143
356,6	161,114
357,1	186,171
357,5	217,114
358	252,571
358,5	288,571
358,9	333,171
359,4	381,743
359,8	443,857
360,3	515
360,8	583,6
361,2	666,229
361,7	758,543
362,1	865,486
362,6	971,8
363	1089,486
363,5	1208,771
364	1346,029
364,4	1486,686
364,9	1629,629
365,3	1759,857
365,8	1889,971
366,3	2008,314
366,7	2119,114
367,2	2217,514
367,6	2289,629
368,1	2347,914
368,5	2382,486
369	2406,429
369,5	2415,514
369,9	2396,543
370,4	2358,6
370,8	2316,657
371,3	2249,6
371,7	2175
372,2	2086,229
372,7	1988,143
373,1	1889,286
373,6	1780,343
374	1665,771
374,5	1554,829
374,9	1451,514
375,4	1347,143
375,9	1242,829
376,3	1145,114
376,8	1057,286
377,2	973,943
377,7	893,571
378,2	813,829
378,6	744,943
379,1	681,6
379,5	628,943
380	574,629
380,4	521,429
380,9	476,771
381,4	436,629
381,8	401,886
382,3	376,686
382,7	346,657
383,2	324,371
383,6	301,314
384,1	285
384,6	272,143
385	254,229
385,5	233,8
385,9	213,371
386,4	195,6
386,8	184,029
387,3	168,971
387,7	158,971
388,2	147,657
388,7	134,171
389,1	124,943
389,6	117,829
390	112,171
390,5	106,171
390,9	94,514
391,4	90,257
391,9	85,914
392,3	84,514
392,8	78,543
393,2	65,857
393,7	60,857
394,1	57,886
394,6	53
395,1	53,343
395,5	52,686
396	51,229
396,4	55,429
396,9	53,371
397,3	55,143
397,8	55,343
398,2	55,914
398,7	50,657
399,2	48,629
399,6	44,514
400,1	42,486
400,5	37,714
401	35,114
401,4	28,286
401,9	34,371
402,4	39,314
402,8	34,686
403,3	36
403,7	32,057
404,2	33,4
404,6	33,8
405,1	26,914
405,5	17,514
406	23,543
406,5	20,2
406,9	25,629
407,4	22,229
407,8	22,343
408,3	24,429
408,7	25,143
409,2	26,971
409,6	30,4
410,1	32,629
410,6	40,286
411	42,371
411,5	43,343
411,9	50,686
412,4	53,714
412,8	57,686
413,3	59,6
413,7	55,714
414,2	60,943
414,7	65,6
415,1	71,314
415,6	72,086
416	74,857
416,5	73,2
416,9	77,257
417,4	80,229
417,8	86,771
418,3	87,571
418,8	93,943
419,2	97,114
419,7	104,314
420,1	105,543
420,6	106,571
421	100,086
421,5	100,714
421,9	100,857
422,4	98,971
422,8	95,8
423,3	98,714
423,8	93,171
424,2	94,029
424,7	91,429
425,1	85,543
425,6	88,229
426	85,543
426,5	82,914
426,9	89,6
427,4	86,571
427,9	80,343
428,3	86,6
428,8	82,286
429,2	84,657
429,7	85,657
430,1	82,086
430,6	84,8
431	87,314
431,5	88,229
431,9	86,343
432,4	88,771
432,8	94,486
433,3	97,743
433,8	98,6
434,2	102,171
434,7	98,714
435,1	104,086
435,6	103,829
436	101,429
436,5	103
436,9	104,086
437,4	106,886
437,8	109,486
438,3	117,343
438,8	118,314
439,2	121,171
439,7	124,629
440,1	133,771
440,6	141,543
441	144,114
441,5	146,486
441,9	154,971
442,4	157,314
442,8	161,743
443,3	169
443,7	172,514
444,2	184,429
444,7	191,686
445,1	195,314
445,6	205,686
446	214,229
446,5	217,657
446,9	217,714
447,4	219,657
447,8	222,686
448,3	236,4
448,7	243,829
449,2	253,514
449,6	263,057
450,1	274,343
450,6	287,2
451	299,543
451,5	308,686
451,9	319,571
452,4	329,943
452,8	335,686
453,3	351,429
453,7	357,829
454,2	370,143
454,6	375,229
455,1	381,971
455,5	387,571
456	404,886
456,4	412,714
456,9	428,971
457,3	435,629
457,8	443,457
458,3	459,057
458,7	472,4
459,2	480,686
459,6	492,114
460,1	506,571
460,5	518,857
461	538
461,4	544,657
461,9	555,886
462,3	570,086
462,8	583,943
463,2	596,514
463,7	614,543
464,1	628,343
464,6	652,114
465	672,086
465,5	688,457
466	703,686
466,4	712
466,9	727,114
467,3	743,086
467,8	754,914
468,2	767,686
468,7	779,057
469,1	797,314
469,6	816,857
470	828,629
470,5	843,314
470,9	850,457
471,4	861,886
471,8	877,6
472,3	889,057
472,7	904,943
473,2	914,114
473,6	926,4
474,1	943,771
474,5	954,457
475	969,686
475,4	982,714
475,9	992,171
476,4	1008,371
476,8	1022,371
477,3	1031,657
477,7	1050,171
478,2	1056,657
478,6	1066,8
479,1	1075
479,5	1081,829
480	1089
480,4	1105,886
480,9	1111,971
481,3	1115,714
481,8	1125,286
482,2	1126,686
482,7	1134,6
483,1	1139,029
483,6	1138,686
484	1143,514
484,5	1161,257
484,9	1163,229
485,4	1177,229
485,8	1185,6
486,3	1190,4
486,7	1196,371
487,2	1204,657
487,6	1200,429
488,1	1199,8
488,5	1199,171
489	1199,6
489,4	1205,229
489,9	1206,6
490,4	1204
490,8	1203,343
491,3	1209
491,7	1207,571
492,2	1202,6
492,6	1197,171
493,1	1196,743
493,5	1191,486
494	1187,486
494,4	1185,314
494,9	1179,8
495,3	1181,057
495,8	1179,943
496,2	1176
496,7	1170,543
497,1	1173,171
497,6	1168,886
498	1167,771
498,5	1163,057
498,9	1153,086
499,4	1144,314
499,8	1142,171
500,3	1134,486
500,7	1124,114
501,2	1119,114
501,6	1106,086
502,1	1101,714
502,5	1097,029
503	1088,971
503,4	1077,829
503,9	1066,086
504,3	1056,6
504,8	1052,543
505,2	1043,743
505,7	1034,8
506,1	1029,143
506,6	1016,6
507	1010,686
507,5	1002,4
507,9	990,029
508,4	975,114
508,8	963,571
509,3	949,114
509,7	942,714
510,2	935,857
510,6	920,914
511,1	917,571
511,5	912,371
512	900,4
512,4	897,4
512,9	890,343
513,3	883,714
513,8	874,629
514,2	861,057
514,7	853,971
515,1	846,429
515,6	830,257
516	816,486
516,5	806,029
516,9	799,8
517,4	794,543
517,8	784,657
518,3	777,429
518,7	768,257
519,2	760,971
519,6	747,629
520,1	739,743
520,5	729,943
521	718,486
521,4	711,771
521,9	704,714
522,3	695,057
522,8	687,686
523,2	676,4
523,7	666,686
524,1	656,457
524,6	645,571
525	636,229
525,5	628,514
525,9	621,943
526,4	608,657
526,8	601,686
527,3	596,543
527,7	586,914
528,2	579,371
528,6	573,457
529,1	565,686
529,5	565,971
530	559,8
530,4	552,086
530,9	546,571
531,3	535,343
531,8	529,857
532,2	527,086
532,6	517,114
533,1	504,829
533,5	500,686
534	493,543
534,4	491,4
534,9	482,657
535,3	468,829
535,8	466,571
536,2	462,429
536,7	458,057
537,1	454,657
537,6	449,657
538	447,057
538,5	449,457
538,9	438,6
539,4	435,686
539,8	432,029
540,3	427
540,7	423,914
541,2	414,914
541,6	407,429
542,1	405,171
542,5	400,486
543	392,429
543,4	385,143
543,9	384,371
544,3	385,543
544,8	378,257
545,2	376,6
545,7	374,086
546,1	369,229
546,5	367,886
547	356,571
547,4	348,686
547,9	346,8
548,3	344,371
548,8	341,857
549,2	338,829
549,7	337,171
550,1	340,657
550,6	339,714
551	336,171
551,5	330,8
551,9	324,657
552,4	321,829
552,8	317,143
553,3	308,257
553,7	302,029
554,2	299,2
554,6	298,771
555,1	300,171
555,5	299,943
555,9	298,314
556,4	294,8
556,8	293,314
557,3	290,686
557,7	286,057
558,2	280,229
558,6	278,171
559,1	272,286
559,5	273,371
560	272,543
560,4	270,829
560,9	269,114
561,3	265,914
561,8	259
562,2	262,629
562,7	256,914
563,1	259,2
563,6	256,257
564	258,2
564,4	254,229
564,9	256,257
565,3	253,314
565,8	252,257
566,2	248,343
566,7	248
567,1	242,714
567,6	241,657
568	238,457
568,5	233,086
568,9	233,743
569,4	231,943
569,8	233,029
570,3	233,314
570,7	231,629
571,1	230
571,6	231,914
572	232,286
572,5	230,771
572,9	226,171
573,4	223,229
573,8	226,371
574,3	224,486
574,7	218,543
575,2	216,514
575,6	216
576,1	218,943
576,5	219,029
576,9	214,829
577,4	217,143
577,8	217,143
578,3	215,914
578,7	210,2
579,2	207,286
579,6	202,343
580,1	199,229
580,5	193,371
581	194,457
581,4	193,457
581,9	192,714
582,3	188,771
582,7	190,486
583,2	192,514
583,6	195,343
584,1	195,171
584,5	196,2
585	195,143
585,4	190,714
585,9	189,486
586,3	193,743
586,8	194,343
587,2	193,086
587,6	195,4
588,1	199,086
588,5	198,657
589	200,4
589,4	193,257
589,9	187,886
590,3	186
590,8	178,057
591,2	178,857
591,7	185
592,1	182,171
592,5	184,543
593	184,4
593,4	180
593,9	173,686
594,3	166,229
594,8	156,914
595,2	156,657
595,7	153,743
596,1	154,257
596,6	153,686
597	161,229
597,4	163,029
597,9	164,657
598,3	164,229
598,8	163,6
599,2	161,257
599,7	163,257
600,1	157,143
600,6	154,6
601	158,286
601,4	161,714
601,9	161,314
602,3	160
602,8	159,629
603,2	159,943
603,7	162,6
604,1	163,771
604,6	156,743
605	149,714
605,4	149,8
605,9	147,029
606,3	141,4
606,8	140
607,2	135,4
607,7	130,743
608,1	137,114
608,6	137,171
609	143,829
609,4	153
609,9	149,057
610,3	149,8
610,8	152,229
611,2	148,686
611,7	147,2
612,1	141,343
612,6	138,457
613	140,6
613,4	139
613,9	140,314
614,3	140,4
614,8	144,2
615,2	141,143
615,7	139,771
616,1	141,6
616,6	135,4
617	133,714
617,4	135,457
617,9	132,4
618,3	132
618,8	135,029
619,2	131,143
619,7	139,143
620,1	139,829
620,5	139,971
621	137,886
621,4	140,343
621,9	135,8
622,3	136,429
622,8	129,486
623,2	127,229
623,6	125,343
624,1	128,343
624,5	126,286
625	129,371
625,4	129,343
625,9	133,343
626,3	130,514
626,8	130,229
627,2	128,8
627,6	123,457
628,1	118,2
628,5	120,571
629	114,771
629,4	116,714
629,9	115,914
630,3	112,8
630,7	116,657
631,2	118,314
631,6	115,286
632,1	117,371
632,5	116,143
633	113
633,4	114,029
633,8	112,971
634,3	110,457
634,7	106,029
635,2	102,343
635,6	103,743
636,1	102,486
636,5	96,971
636,9	96,371
637,4	93,343
637,8	89,857
638,3	88,686
638,7	85,257
639,2	82,314
639,6	86,543
640	84,486
640,5	87,886
640,9	90,143
641,4	92,171
641,8	92,429
642,2	96,857
642,7	99,743
643,1	103,171
643,6	104,229
644	108,286
644,5	112,429
644,9	110,486
645,3	109
645,8	101,457
646,2	102,857
646,7	101,171
647,1	98,571
647,6	98,286
648	104,714
648,4	103,543
648,9	105,829
649,3	96,629
649,8	98,6
650,2	97,257
650,6	93,171
651,1	86,086
651,5	90,286
652	88,6
652,4	91,657
652,9	90,286
653,3	90,857
653,7	89,171
654,2	91,829
654,6	89,971
655,1	94,257
655,5	98,6
655,9	96,686
656,4	92,429
656,8	95,343
657,3	95,857
657,7	94,286
658,2	90,486
658,6	85,714
659	84,514
659,5	85,343
659,9	84,257
660,4	84,457
660,8	79,657
661,2	79,657
661,7	79,943
662,1	81,714
662,6	83,4
663	85,686
663,4	81,371
663,9	82,657
664,3	81,714
664,8	81,943
665,2	79,943
665,6	75,229
666,1	73,857
666,5	75,771
667	74,171
667,4	71,543
667,9	70,457
668,3	67,629
668,7	69,229
669,2	68,971
669,6	69,8
670,1	71,6
670,5	70,314
670,9	67,114
671,4	68,029
671,8	72,314
672,3	75,286
672,7	76,143
673,1	75,886
673,6	76,943
674	81,714
674,5	82,286
674,9	76,686
675,3	70,914
675,8	68,229
676,2	68,943
676,7	68,857
677,1	69
677,5	68,029
678	68,8
678,4	67,514
678,9	66,286
679,3	62,229
679,7	59,886
680,2	55,429
680,6	53,629
681,1	55,486
681,5	58,229
681,9	58,629
682,4	61,114
682,8	66,543
683,3	72,429
683,7	75,314
684,1	71,857
684,6	71,286
685	68,943
685,5	67,171
685,9	60,743
686,3	53,143
686,8	54,257
687,2	54,029
687,7	50,143
688,1	50,714
688,5	53,314
689	55,686
689,4	57,314
689,9	52,457
690,3	50,257
690,7	54,743
691,2	57,686
691,6	55,229
692	55,743
692,5	58,229
692,9	62,143
693,4	62,229
693,8	55,714
694,2	51,229
694,7	49,143
695,1	47,229
695,6	45,514
696	41,429
696,4	42,343
696,9	42,657
697,3	44,2
697,8	43,943
698,2	46,743
698,6	47,086
699,1	48,829
699,5	51,229
699,9	51,657
700,4	46,8
700,8	44,971
701,3	43,914
701,7	40,914
702,1	36,657
702,6	35,8
703	38,571
703,5	40,743
703,9	43,943
704,3	41,371
704,8	40,943
705,2	44,171
705,6	44,714
706,1	44,2
706,5	44,686
707	43,657
707,4	45,171
707,8	44,2
708,3	45,371
708,7	44,457
709,2	42,971
709,6	45,314
710	48,371
710,5	47,257
710,9	46,286
711,3	43,914
711,8	46
712,2	44,914
712,7	42,171
713,1	40,686
713,5	42,457
714	47,171
714,4	44,686
714,8	42,914
715,3	43,429
715,7	39,486
716,2	38,343
716,6	38,771
717	31,029
717,5	31,429
717,9	33,686
718,3	30,829
718,8	35,086
719,2	33,629
719,7	28,8
720,1	37,829
720,5	44,229
721	35,714
721,4	37,971
721,8	41,971
722,3	41,743
722,7	49,457
723,2	45,057
723,6	35,114
724	36,743
724,5	34,657
724,9	32,029
725,3	31,571
725,8	25,286
726,2	23,943
726,7	29,429
727,1	33,029
727,5	33,343
728	32,771
728,4	35
728,8	34,657
729,3	32,857
729,7	30,886
730,1	28,343
730,6	31,914
731	31,771
731,5	29,886
731,9	26,743
732,3	31,543
732,8	36,057
733,2	38
733,6	35,057
734,1	33,143
734,5	32
734,9	36,914
735,4	34,686
735,8	29,057
736,3	30,886
736,7	32,057
737,1	32,543
737,6	33,714
738	33,971
738,4	33,914
738,9	35,714
739,3	35,4
739,7	35,171
740,2	31,829
740,6	34,514
741,1	35,857
741,5	34,543
741,9	33,543
742,4	34,886
742,8	33,486
743,2	36,914
743,7	26,686
744,1	21,6
744,5	18,829
745	20
745,4	15,657
745,8	17
746,3	14,286
746,7	22,114
747,2	25,914
747,6	33,257
748	34,543
748,5	38,743
748,9	32,4
749,3	32,457
749,8	34,371
750,2	31,486
750,6	27,943
751,1	30,114
751,5	27,257
751,9	32,257
752,4	33,686
752,8	33,286
753,3	32,6
753,7	36,371
754,1	27,571
754,6	24,057
755	20,457
755,4	18,4
755,9	18,543
756,3	20,229
756,7	17,314
757,2	25,171
757,6	29,086
758	32,886
758,5	31,971
758,9	28,971
759,3	27,486
759,8	28,743
760,2	26,571
760,6	26,6
761,1	22,171
761,5	26,571
761,9	24,514
762,4	22,714
762,8	20,6
763,3	17,857
763,7	18,314
764,1	22,257
764,6	20,429
765	24,114
765,4	25,686
765,9	23,743
766,3	27,229
766,7	22,343
767,2	22,543
767,6	27,286
768	27,371
768,5	26,686
768,9	29,857
769,3	26,6
769,8	28,514
770,2	24,943
770,6	18,257
771,1	17,829
771,5	18,2
771,9	18,257
772,4	22,086
772,8	21,086
773,2	22,743
773,7	27
774,1	29,257
774,5	26,743
775	24,114
775,4	22,6
775,8	18,057
776,3	19,571
776,7	16,514
777,1	15,029
777,6	17,857
778	21,4
778,4	17,743
778,9	28,2
779,3	25,971
779,7	25,229
780,2	25,257
780,6	23,914
781	20,829
781,5	17,343
781,9	14,229
782,3	13,714
782,8	12,971
783,2	10,343
783,6	14,971
784,1	13,714
784,5	15,914
784,9	12,371
785,4	18,371
785,8	22,771
786,2	23,771
786,7	21,571
787,1	22,314
787,5	25,4
788	27,343
788,4	25,257
788,8	22,514
789,3	19,314
789,7	19,971
790,1	19,029
790,6	21,286
791	16,114
791,4	16,286
791,9	15,429
792,3	16,114
792,7	18,429
793,2	17,4
793,6	11,629
794	17,571
794,5	10,343
794,9	10,914
795,3	13,971
795,8	10,171
796,2	14,914
796,6	15,971
797,1	15,4
797,5	15,714
797,9	15,629
798,4	14,371
798,8	12,343
799,2	8,371
799,7	13,971
800,1	12,771
800,5	18,829
801	20,457
801,4	17,571
801,8	17,514
802,2	19,429
802,7	11,371
803,1	11,4
803,5	8,629
804	5,2
804,4	7,771
804,8	8,371
805,3	9,143
805,7	10,314
806,1	11,571
806,6	13,914
807	15,343
807,4	13,171
807,9	11,743
808,3	9,2
808,7	14,943
809,2	15,629
809,6	17,771
810	15,943
810,4	19,343
810,9	22,171
811,3	27,543
811,7	27,829
812,2	32,486
812,6	28,171
813	32,343
813,5	31,914
813,9	32,743
814,3	30,829
814,8	26,143
815,2	16,971
815,6	18,4
816,1	16,886
816,5	13,029
816,9	14,771
817,3	13,714
817,8	20,771
818,2	23,486
818,6	22,029
819,1	22,057
819,5	20,8
819,9	18,629
820,4	14,286
820,8	6,457
821,2	4,429
821,7	9,114
822,1	12,971
822,5	26,257
822,9	25,229
823,4	25,343
823,8	31,143
824,2	36,914
824,7	34,114
825,1	25,457
825,5	14,343
826	12,714
826,4	13,629
826,8	6,543
827,3	3,943
827,7	1,714
828,1	7,571
828,5	7,114
829	6,343
829,4	7,086
829,8	7,8
830,3	5,629
830,7	3,029
831,1	4,743
831,6	7
832	11,6
832,4	13,343
832,8	16,829
833,3	16,171
833,7	16,714
834,1	9,2
834,6	7,629
835	5,657
835,4	4,343
835,8	2,486
836,3	2,086
836,7	1,057
837,1	2,857
837,6	6,829
838	4,8
838,4	3,429
838,9	2,514
839,3	4,8
839,7	7,086
840,1	4,714
840,6	2,771
841	5,257
841,4	6,229
841,9	9,486
842,3	9,457
842,7	13,371
843,1	15,114
843,6	14,286
844	11,571
844,4	18,571
844,9	16,971
845,3	17,571
845,7	14,343
846,2	16,171
846,6	16,114
847	17
847,4	10,886
847,9	15,4
848,3	13,743
848,7	13,8
849,2	13,286
849,6	7,457
850	12,229
850,4	11,314
850,9	11,229
851,3	13,486
851,7	13,171
852,2	14,086
852,6	20
853	20,143
853,4	20
853,9	15,029
854,3	13,571
854,7	12,057
855,2	9,229
855,6	7,171
856	1,4
856,4	-1,743
856,9	-2,057
857,3	-1,629
857,7	4,6
858,2	9,086
858,6	10,886
859	11,743
859,4	16,143
859,9	16,629
860,3	13,057
860,7	10,771
861,1	12,029
861,6	11,514
862	9,2
862,4	8,086
862,9	8,743
863,3	12,2
863,7	6,971
864,1	5,457
864,6	5,6
865	7,514
865,4	9,2
865,9	11,8
866,3	7,029
866,7	11,371
867,1	5,2
867,6	6,314
868	7
868,4	3,686
868,8	0,171
869,3	4,714
869,7	9,714
870,1	12,171
870,6	4,886
871	-5,229
871,4	-0,171
871,8	-1,8
872,3	0,457
872,7	-7,771
873,1	-4,4
873,5	4,257
874	12,114
874,4	7
874,8	8,543
875,3	5,143
875,7	6,857
876,1	2,886
876,5	0,914
877	2,086
877,4	-1,229
877,8	0,4
878,2	4,457
878,7	7,543
879,1	8,457
879,5	7,771
879,9	9,143
880,4	14
880,8	12,943
881,2	7,543
881,7	3,686
882,1	2,171
882,5	4,114
882,9	0,943
883,4	2,857
883,8	4,914
884,2	6,4
884,6	8,771
885,1	11,714
885,5	12,657
885,9	14,286
886,3	13,286
886,8	10,314
887,2	12,743
887,6	11,829
888	12,886
888,5	7,629
888,9	8,229
889,3	6,886
889,8	6,571
890,2	3,686
890,6	-0,2
891	0,4
891,5	1,171
891,9	-1,6
892,3	-1,857
892,7	-1,514
893,2	-1,257
893,6	3,371
894	2,114
894,4	1,457
894,9	5,057
895,3	4,714
895,7	8,686
896,1	10,543
896,6	5,6
897	5,514
897,4	11,571
897,8	13,171
898,3	11,886
898,7	5,343
899,1	2,686
899,5	3
900	-0,371
900,4	-3,457
900,8	-9,571
901,2	-8,371
901,7	-5,943
902,1	-2,314
902,5	4,057
902,9	1,714
903,4	4,686
903,8	13
904,2	8,686
904,6	11,8
905,1	10,486
905,5	7,457
905,9	14,514
906,3	12,286
906,8	10
907,2	18,029
907,6	17,029
908	18,743
908,5	17,686
908,9	11,143
909,3	10,2
909,7	8,343
910,2	8,8
910,6	9,771
911	4,771
911,4	7,2
911,9	8,343
912,3	8,4
912,7	13,171
913,1	12
913,6	7,429
914	10,457
914,4	6,714
914,8	11,714
915,3	9,4
915,7	4,514
916,1	0,829
916,5	3,229
916,9	3,771
917,4	7,971
917,8	10,429
918,2	6,8
918,6	3,314
919,1	8,286
919,5	10,886
919,9	8,486
920,3	8,829
920,8	1,229
921,2	5,571
921,6	8,686
922	6
922,5	2,943
922,9	5,029
923,3	1,686
923,7	6,457
924,2	4,171
924,6	6,229
925	5,543
925,4	2,629
925,8	0,429
926,3	0,257
926,7	0,143
927,1	4,8
927,5	6,429
928	7
928,4	8,143
928,8	12,086
929,2	10,714
929,7	9
930,1	8,829
930,5	5,086
930,9	8,086
931,3	12,029
931,8	8,286
932,2	10,257
932,6	8
933	2,143
933,5	0,714
933,9	-1,971
934,3	-2,286
934,7	-6,057
935,2	-5,086
935,6	-1,257
936	2,714
936,4	5,771
936,8	7,914
937,3	7,886
937,7	14,286
938,1	15,086
938,5	10,114
939	13,829
939,4	14,143
939,8	14,143
940,2	11,971
940,6	13,257
941,1	9,286
941,5	14,857
941,9	9,057
942,3	9,314
942,8	8,143
943,2	8,257
943,6	2,771
944	10,229
944,4	6,886
944,9	9,514
945,3	8,714
945,7	5,686
946,1	5,829
946,6	4,886
947	3,371
947,4	7,343
947,8	6,314
948,2	4,143
948,7	4,143
949,1	5,086
949,5	11,343
949,9	10,257
950,3	8,914
950,8	7,771
951,2	8,971
951,6	10,886
952	12,657
952,5	5,114
952,9	4,857
953,3	3,229
953,7	3,743
954,1	6,886
954,6	8,714
955	8,971
955,4	12,343
955,8	14,257
956,2	12,657
956,7	16,029
957,1	11,543
957,5	9,514
957,9	5,714
958,3	3,171
958,8	5,771
959,2	14,314
959,6	13,6
960	14,829
960,5	17,029
960,9	21,771
961,3	24,943
961,7	17,114
962,1	8,686
962,6	10,8
963	10,857
963,4	6,2
963,8	2,743
964,2	4,629
964,7	9,943
965,1	15,229
965,5	14,543
965,9	15,857
966,3	18,343
966,8	16,286
967,2	12,771
967,6	10,571
968	7,429
968,4	3,8
968,9	1,6
969,3	5,743
969,7	9,514
970,1	11,114
970,5	6,971
971	10,314
971,4	9,171
971,8	9,514
972,2	6,486
972,6	1,114
973,1	-0,171
973,5	6,886
973,9	7,629
974,3	9,257
974,7	11,943
975,2	13,343
975,6	15,029
976	18,829
976,4	12,171
976,8	11,743
977,3	11,486
977,7	9,571
978,1	7,2
978,5	6,143
978,9	3,2
979,4	2,257
979,8	-4,314
980,2	-2,029
980,6	-6,543
981	-3,229
981,5	0,171
981,9	0,829
982,3	3,571
982,7	7,514
983,1	1,943
983,6	9,143
984	5,543
984,4	6,057
984,8	5,657
985,2	10,971
985,6	7,371
986,1	13,657
986,5	12,257
986,9	9,4
987,3	9
987,7	8,4
988,2	-0,057
988,6	3,114
989	1,857
989,4	0,171
989,8	5,171
990,3	5,657
990,7	8,029
991,1	11,457
991,5	13,543
991,9	15
992,3	16,829
992,8	13,714
993,2	14,314
993,6	11,571
994	14,229
994,4	13,857
994,9	7,6
995,3	7,429
995,7	7
996,1	3,914
996,5	4,029
996,9	-0,086
997,4	2,343
997,8	0,6
998,2	-2,514
998,6	-7,086
999	-4,857
999,5	-6,714
999,9	-7,343
1000,3	-12,343
1000,7	-6,886
1001,1	-6,6
1001,5	-0,486
1002	2,429
1002,4	5,4
1002,8	8,486
1003,2	9,514
1003,6	8,171
1004	11,971
1004,5	8,514
1004,9	5,486
1005,3	-1,943
1005,7	-1,286
1006,1	-6,914
1006,6	-5,6
1007	-8,457
1007,4	-3,971
1007,8	-4,514
1008,2	-1,8
1008,6	0,029
1009,1	6,371
1009,5	5,057
1009,9	7,6
1010,3	3,743
1010,7	7,229
1011,1	9,314
1011,6	4,429
1012	5,171
1012,4	5,429
1012,8	3
1013,2	7,343
1013,6	4,514
1014,1	5,8
1014,5	6,914
1014,9	5,057
1015,3	5,686
1015,7	8
1016,1	6,057
1016,6	3,229
1017	3,057
1017,4	2,429
1017,8	4,486
1018,2	7,943
1018,6	-2,343
1019,1	-1,6
1019,5	-1,286
1019,9	-1,886
1020,3	0,914
1020,7	-0,714
1021,1	-4,343
1021,6	2
1022	2,914
1022,4	0,857
1022,8	6,886
1023,2	4,943
1023,6	7,486
1024,1	10,743
1024,5	12,8
1024,9	11,571
1025,3	14,114
1025,7	11,4
1026,1	14,457
1026,6	15,971
1027	14,229
1027,4	19,4
1027,8	17,371
1028,2	16,714
1028,6	17,314
1029	12,829
1029,5	12,143
1029,9	9,686
1030,3	2,486
1030,7	8,629
1031,1	11,457
1031,5	7,543
1032	9,229
1032,4	5,2
1032,8	9,886
1033,2	13,8
1033,6	8,514
1034	5,514
1034,4	7,029
1034,9	8,2
1035,3	9,229
1035,7	8,029
1036,1	5,257
1036,5	4,4
1036,9	6,457
1037,4	10,971
1037,8	8,086
1038,2	7,686
1038,6	6,057
1039	9,171
1039,4	19,086
1039,8	14,743
1040,3	14,543
1040,7	15,257
1041,1	12,971
1041,5	14,657
1041,9	11,914
1042,3	5,686
1042,7	8,143
1043,2	3,429
1043,6	0,657
1044	2,771
1044,4	-1,657
1044,8	-0,543
1045,2	1,8
1045,6	4,257
1046,1	1,743
1046,5	6,429
1046,9	3,829
1047,3	7,829
1047,7	8,857
1048,1	1,829
1048,5	1,914
1049	12,943
1049,4	13,343
1049,8	16,971
1050,2	13,943
1050,6	13,514
1051	16,571
1051,4	14,543
1051,9	6,714
1052,3	9,829
1052,7	7,686
1053,1	7,057
1053,5	6,914
1053,9	9,829
1054,3	8,629
1054,8	13
1055,2	10,457
1055,6	15,171
1056	16,343
1056,4	16,629
1056,8	18,086
1057,2	19,514
1057,6	12,486
1058,1	11,657
1058,5	5,457
1058,9	9,657
1059,3	8,857
1059,7	5,114
1060,1	10,057
1060,5	14,943
1061	15,686
1061,4	15,943
1061,8	13,286
1062,2	11,343
1062,6	11,314
1063	10,371
1063,4	4,914
1063,8	1,4
1064,3	1,257
1064,7	3,343
1065,1	1,486
1065,5	0,257
1065,9	-1,257
1066,3	2,171
1066,7	3,6
1067,1	1,229
1067,6	0,971
1068	1,714
1068,4	1,743
1068,8	2,057
1069,2	2,371
1069,6	3,371
1070	10,229
1070,4	7,914
1070,9	6,629
1071,3	3,714
1071,7	0,143
1072,1	1,343
1072,5	-5,029
1072,9	-8,543
1073,3	-8,086
1073,7	-6,771
1074,2	-2,743
1074,6	-1,686
1075	-5,543
1075,4	-0
1075,8	3,429
1076,2	0,543
1076,6	1,8
1077	-0,714
1077,5	5,4
1077,9	5,943
1078,3	1,6
1078,7	0,343
1079,1	3,8
1079,5	4,914
1079,9	6,971
1080,3	1,657
1080,7	5,6
1081,2	14,914
1081,6	11,571
1082	9,171
1082,4	15,343
1082,8	14,457
1083,2	15,371
1083,6	15
1084	9,457
1084,5	13,543
1084,9	11,257
1085,3	3,6
1085,7	5,6
1086,1	2,829
1086,5	2,257
1086,9	7,543
1087,3	2,771
1087,7	5,286
1088,2	5,114
1088,6	2,571
1089	3,714
1089,4	3,2
1089,8	0,8
1090,2	1,886
1090,6	3,457
1091	9,4
1091,4	9,886
1091,9	13,657
1092,3	15,943
1092,7	8,343
1093,1	11,229
1093,5	8,971
1093,9	5,771
1094,3	9,229
1094,7	3,229
1095,1	1,171
1095,5	8,371
1096	6,2
1096,4	7,714
1096,8	5,886
1097,2	5,514
1097,6	12,971
1098	12,743
1098,4	13,2
1098,8	15,4
1099,2	21,171
1099,6	20,057
1100,1	15,114
1100,5	7,629
1100,9	8,629
1101,3	7,514
1101,7	5,371
1102,1	1,571
1102,5	2,571
1102,9	3,743
1103,3	6,971
1103,7	5,914
1104,2	5,371
1104,6	6,343
1105	0,8
1105,4	0,371
1105,8	0,229
1106,2	-0,686
1106,6	-1,914
1107	-3,286
1107,4	-4,4
1107,8	-0,72
1108,3	-0,5
