Data from Subt2_152.txt Node
Date: Sat Aug 26 18:31:58 MSK 2023
User: vat
Spectrometer: MAYP114033
Trigger mode: 0
Integration Time (sec): 1,000000E0
Scans to average: 5
Electric dark correction enabled: true
Nonlinearity correction enabled: false
Boxcar width: 3
XAxis mode: Wavelengths
Number of Pixels in Spectrum: 2068
>>>>>Begin Spectral Data<<<<<
199,4	-0,85
199,9	-0,52
200,4	-1,567
200,8	-1,714
201,3	-2,771
201,8	-0,257
202,2	-1,657
202,7	3,714
203,2	2,257
203,6	0,886
204,1	-1,829
204,6	-2,971
205	-2,743
205,5	-0,571
206	-4,714
206,4	-6,571
206,9	-9,571
207,4	-5,943
207,8	-1,743
208,3	-3,486
208,8	-3,343
209,2	-6,714
209,7	-5,257
210,2	-0,371
210,6	2,057
211,1	2,429
211,5	-1,657
212	-3,686
212,5	-2,343
212,9	-4,886
213,4	-2,486
213,9	-4,057
214,3	-6,6
214,8	-1,229
215,3	-1,029
215,7	2
216,2	11,686
216,7	10,543
217,1	5,457
217,6	9,886
218,1	6,457
218,5	7,114
219	-0,714
219,5	-6,057
219,9	-5,829
220,4	1,914
220,9	-5,114
221,3	0,286
221,8	-0,114
222,3	4,657
222,7	4,943
223,2	0,943
223,6	-6,2
224,1	-5,886
224,6	-6,571
225	-8,886
225,5	-8,057
226	-8,4
226,4	-6,086
226,9	-2,914
227,4	2,086
227,8	-5,486
228,3	-3,029
228,8	-4,829
229,2	-2,971
229,7	-2,457
230,2	-1,857
230,6	-2,686
231,1	8,114
231,5	6,771
232	8,971
232,5	5,6
232,9	7,371
233,4	11,571
233,9	10,086
234,3	4,486
234,8	5,057
235,3	2,2
235,7	4,257
236,2	3,543
236,7	-1,571
237,1	0,629
237,6	-1,686
238,1	-3,371
238,5	-3,257
239	-3,543
239,4	0,371
239,9	-0,571
240,4	-1,371
240,8	4,143
241,3	4,114
241,8	5,743
242,2	5,029
242,7	-0,657
243,2	2,029
243,6	-2,486
244,1	-2,771
244,6	1,286
245	-2,571
245,5	-3,171
245,9	-1,914
246,4	-5,8
246,9	-2,371
247,3	-3,143
247,8	-1,086
248,3	1,8
248,7	3,257
249,2	1,686
249,7	4,057
250,1	4,629
250,6	1,629
251	-1,229
251,5	0,2
252	-1,086
252,4	1,514
252,9	-3,371
253,4	-4,686
253,8	-4,971
254,3	-3
254,8	-6,343
255,2	-7,829
255,7	-9,743
256,1	-3,6
256,6	-4,257
257,1	-1,429
257,5	-8,2
258	-3,686
258,5	-1
258,9	-0,857
259,4	-3,257
259,9	-2,257
260,3	-9,257
260,8	-7,543
261,2	-6,029
261,7	-2,2
262,2	-4,743
262,6	-5,943
263,1	1,771
263,6	6,114
264	9,8
264,5	10,486
264,9	5,743
265,4	8,314
265,9	7,143
266,3	3,457
266,8	2,6
267,3	2,286
267,7	-4,943
268,2	-3,057
268,7	-2,514
269,1	-1,171
269,6	-3,743
270	1,171
270,5	-3,657
271	3,086
271,4	1,257
271,9	-3,657
272,4	1,914
272,8	2,371
273,3	0,029
273,7	5,429
274,2	-0,314
274,7	0,286
275,1	6,714
275,6	4,086
276,1	1,171
276,5	1,714
277	-2,571
277,4	1,571
277,9	6,657
278,4	7,171
278,8	7,543
279,3	11,171
279,8	8,2
280,2	11,371
280,7	10,143
281,1	2,971
281,6	0,429
282,1	-2,543
282,5	-3,686
283	-1,371
283,4	-2,286
283,9	1,257
284,4	7
284,8	7,143
285,3	8,971
285,8	11,543
286,2	9,857
286,7	10,286
287,1	6,971
287,6	1,743
288,1	2,629
288,5	5,514
289	-0,514
289,5	1,286
289,9	-2,4
290,4	2,257
290,8	7,971
291,3	5,943
291,8	4,514
292,2	4,343
292,7	4,857
293,1	8,029
293,6	7,629
294,1	3,743
294,5	5,057
295	6,629
295,5	6,286
295,9	7,029
296,4	7,829
296,8	2,6
297,3	2,686
297,8	-2,8
298,2	-3,314
298,7	4,371
299,1	3,6
299,6	-0,771
300,1	3,057
300,5	0,514
301	9,571
301,5	12,771
301,9	6,657
302,4	7,543
302,8	9,714
303,3	3,771
303,8	4,114
304,2	-2,629
304,7	-9,2
305,1	-11,514
305,6	-11,171
306,1	-5,257
306,5	1,257
307	2,943
307,4	9,743
307,9	12,943
308,4	12,343
308,8	3,057
309,3	-2,714
309,8	-3,771
310,2	-1,571
310,7	-11,571
311,1	-11,314
311,6	-5,629
312,1	0,629
312,5	5,114
313	4,6
313,4	1,6
313,9	3,771
314,4	2,743
314,8	-1,029
315,3	-2,629
315,7	-7,343
316,2	-10,314
316,7	-9,914
317,1	-5,229
317,6	-5,543
318	2,8
318,5	0,486
319	3,114
319,4	2,829
319,9	9,2
320,3	12,257
320,8	12,771
321,3	7,371
321,7	15,314
322,2	13,086
322,6	16,4
323,1	9,886
323,6	4,8
324	-2,229
324,5	-4,429
324,9	-6,257
325,4	-5,743
325,9	-7,743
326,3	-5,143
326,8	-6,971
327,2	-3,714
327,7	-3,2
328,2	-5,571
328,6	-2,486
329,1	-5,429
329,5	-4,486
330	-0,886
330,5	2,543
330,9	4,743
331,4	7,743
331,8	2,743
332,3	5,114
332,8	4,286
333,2	2,714
333,7	4,914
334,1	1,571
334,6	-0,886
335,1	-2,571
335,5	-1,114
336	-2,2
336,4	0,771
336,9	2,629
337,4	2
337,8	-1,143
338,3	2,971
338,7	2,4
339,2	1,457
339,7	2,257
340,1	-3,114
340,6	1,114
341	3,371
341,5	0,714
342	-1,143
342,4	-2,6
342,9	-10,657
343,3	-9,371
343,8	-17,343
344,2	-19,486
344,7	-10,514
345,2	-7,171
345,6	-5,771
346,1	-1,029
346,5	-8,143
347	-3,943
347,5	-2
347,9	-4,771
348,4	-9,371
348,8	-9
349,3	-8,143
349,8	3,486
350,2	8,514
350,7	8,2
351,1	3,457
351,6	9,657
352	15,229
352,5	21,057
353	21,8
353,4	22,171
353,9	29,914
354,3	42,6
354,8	46,114
355,3	60,943
355,7	71,857
356,2	87,314
356,6	108,457
357,1	129,8
357,5	150,486
358	177,829
358,5	195,943
358,9	227
359,4	262,857
359,8	301,829
360,3	346,4
360,8	392,057
361,2	449,457
361,7	515,686
362,1	585
362,6	654,771
363	732,571
363,5	818,514
364	914,971
364,4	1008,8
364,9	1101,143
365,3	1190
365,8	1276,057
366,3	1357,171
366,7	1425,371
367,2	1486,743
367,6	1539,2
368,1	1578,229
368,5	1606,943
369	1628,171
369,5	1636,086
369,9	1626,429
370,4	1605,657
370,8	1565,229
371,3	1523,6
371,7	1473,8
372,2	1408,8
372,7	1339,171
373,1	1274,257
373,6	1196,486
374	1128,314
374,5	1053,857
374,9	981,2
375,4	910,6
375,9	843,086
376,3	770,229
376,8	708,114
377,2	648,543
377,7	591,857
378,2	536,171
378,6	492,4
379,1	448,771
379,5	420,914
380	391,4
380,4	361,171
380,9	332,457
381,4	306,486
381,8	283,629
382,3	263,771
382,7	238,429
383,2	220,743
383,6	200,029
384,1	183,2
384,6	172,486
385	157,914
385,5	146,4
385,9	134,457
386,4	123,143
386,8	121,457
387,3	114,8
387,7	108,486
388,2	101,4
388,7	94,029
389,1	90,229
389,6	78,886
390	73,657
390,5	70,343
390,9	66,086
391,4	62,943
391,9	57,514
392,3	55,314
392,8	56,171
393,2	46,657
393,7	42,6
394,1	35,514
394,6	32,229
395,1	32,571
395,5	27,486
396	26,143
396,4	28,743
396,9	29,457
397,3	34,486
397,8	38,086
398,2	35,6
398,7	37,029
399,2	39
399,6	41,629
400,1	40,286
400,5	34,629
401	31,257
401,4	28,543
401,9	29,486
402,4	26,8
402,8	21,457
403,3	22,8
403,7	19,571
404,2	19,971
404,6	26,114
405,1	22,943
405,5	23,057
406	22,857
406,5	19,486
406,9	29,143
407,4	28,629
407,8	26,971
408,3	32,143
408,7	30,771
409,2	34
409,6	40,514
410,1	38,657
410,6	44,8
411	49,057
411,5	48,143
411,9	53,114
412,4	57,914
412,8	59,8
413,3	65,086
413,7	63,286
414,2	65,143
414,7	75,371
415,1	82,229
415,6	88
416	93,914
416,5	96,486
416,9	105,914
417,4	112,4
417,8	116
418,3	126,8
418,8	135,714
419,2	142,457
419,7	150,086
420,1	153,629
420,6	159,914
421	165,886
421,5	170,743
421,9	174,857
422,4	178,971
422,8	187,029
423,3	196,514
423,8	199,314
424,2	204,429
424,7	207,943
425,1	214,686
425,6	225,286
426	231,514
426,5	239,971
426,9	254,686
427,4	265,029
427,9	271,086
428,3	285,429
428,8	293,114
429,2	303,943
429,7	312,686
430,1	323,143
430,6	337,371
431	356,114
431,5	370,714
431,9	385,429
432,4	405,971
432,8	427,371
433,3	445,886
433,8	462,029
434,2	484,114
434,7	501,314
435,1	529,6
435,6	551,171
436	573,143
436,5	602,2
436,9	626,257
437,4	649,257
437,8	681,057
438,3	708,771
438,8	743
439,2	775,714
439,7	810,543
440,1	851,086
440,6	898,714
441	933
441,5	975,429
441,9	1017,029
442,4	1057,514
442,8	1104,057
443,3	1152,314
443,7	1196,686
444,2	1249,486
444,7	1297,457
445,1	1344,086
445,6	1397,829
446	1450,743
446,5	1500,343
446,9	1553,229
447,4	1607,571
447,8	1666,629
448,3	1730,343
448,7	1795,229
449,2	1855,286
449,6	1924,686
450,1	1987,514
450,6	2062,486
451	2128
451,5	2199,8
451,9	2277,371
452,4	2353,229
452,8	2426,486
453,3	2506,4
453,7	2581,714
454,2	2668,429
454,6	2746,086
455,1	2821,314
455,5	2902,4
456	2987,657
456,4	3070,2
456,9	3150,429
457,3	3239,314
457,8	3323,086
458,3	3413,6
458,7	3499,143
459,2	3593,029
459,6	3683,743
460,1	3781,057
460,5	3862,086
461	3963,971
461,4	4053,143
461,9	4150,343
462,3	4243,629
462,8	4336,971
463,2	4427,514
463,7	4523,714
464,1	4621,371
464,6	4716,771
465	4816,657
465,5	4907,229
466	5010,943
466,4	5101,143
466,9	5203,486
467,3	5290,057
467,8	5391,8
468,2	5486,029
468,7	5582,8
469,1	5676,629
469,6	5771,571
470	5863,486
470,5	5957,257
470,9	6038,886
471,4	6118,457
471,8	6192,771
472,3	6269,571
472,7	6355,286
473,2	6425,686
473,6	6507,286
474,1	6585,114
474,5	6664,571
475	6752,857
475,4	6827,543
475,9	6904,2
476,4	6982,886
476,8	7048,857
477,3	7120,543
477,7	7192,6
478,2	7256,743
478,6	7316,829
479,1	7375,143
479,5	7432,857
480	7491,629
480,4	7545,971
480,9	7592,857
481,3	7637,657
481,8	7686,943
482,2	7712,486
482,7	7755,086
483,1	7793,114
483,6	7830,029
484	7863,771
484,5	7898,6
484,9	7923,057
485,4	7969,829
485,8	7997,457
486,3	8012
486,7	8027,114
487,2	8041,943
487,6	8054,057
488,1	8066,886
488,5	8066,143
489	8069,086
489,4	8073,457
489,9	8075,6
490,4	8078,771
490,8	8074,429
491,3	8083,314
491,7	8083,886
492,2	8074,086
492,6	8075,229
493,1	8062,514
493,5	8037,029
494	8022,743
494,4	7996,4
494,9	7967,086
495,3	7953,943
495,8	7918,2
496,2	7896,486
496,7	7869,029
497,1	7839
497,6	7807,914
498	7786,457
498,5	7746,971
498,9	7717,857
499,4	7678,743
499,8	7649,543
500,3	7604,086
500,7	7554,829
501,2	7507
501,6	7458,371
502,1	7412,029
502,5	7370,314
503	7325,571
503,4	7287,657
503,9	7255,371
504,3	7216
504,8	7169,714
505,2	7125,886
505,7	7073,6
506,1	7023,171
506,6	6970,714
507	6912,514
507,5	6854,229
507,9	6805
508,4	6743,371
508,8	6693,429
509,3	6641,829
509,7	6586,343
510,2	6526
510,6	6469,314
511,1	6411,8
511,5	6365,2
512	6306,514
512,4	6242,743
512,9	6187,514
513,3	6135,857
513,8	6075,6
514,2	6019,886
514,7	5952,257
515,1	5891,257
515,6	5829,571
516	5761,257
516,5	5703
516,9	5644,543
517,4	5582,371
517,8	5529,457
518,3	5469,229
518,7	5413,143
519,2	5359,229
519,6	5296,457
520,1	5240,171
520,5	5175,229
521	5112,829
521,4	5053,057
521,9	4997,8
522,3	4942,914
522,8	4886,714
523,2	4832,657
523,7	4782,143
524,1	4727,743
524,6	4677,8
525	4629,829
525,5	4578,371
525,9	4531,143
526,4	4476,771
526,8	4431,971
527,3	4386,4
527,7	4334,514
528,2	4278,171
528,6	4223,486
529,1	4167,457
529,5	4123,829
530	4072,914
530,4	4022,171
530,9	3977,514
531,3	3933,229
531,8	3888,657
532,2	3845,571
532,6	3794,457
533,1	3742,286
533,5	3699,114
534	3653,257
534,4	3611,571
534,9	3573,714
535,3	3532,4
535,8	3492,457
536,2	3458,343
536,7	3420,886
537,1	3384,543
537,6	3342,086
538	3300,857
538,5	3263,514
538,9	3225,429
539,4	3191,829
539,8	3153,571
540,3	3123,743
540,7	3092,886
541,2	3058,686
541,6	3029,2
542,1	2998,543
542,5	2961,257
543	2928,743
543,4	2886,714
543,9	2853,371
544,3	2826,286
544,8	2790,971
545,2	2763,6
545,7	2731,743
546,1	2703,971
546,5	2679,2
547	2650,886
547,4	2620,343
547,9	2591,571
548,3	2566,057
548,8	2544,714
549,2	2512,029
549,7	2485,486
550,1	2459,314
550,6	2431,8
551	2409,514
551,5	2377,286
551,9	2348,943
552,4	2328,114
552,8	2308,8
553,3	2283,543
553,7	2260,571
554,2	2231,943
554,6	2215,486
555,1	2199,657
555,5	2181,486
555,9	2160,114
556,4	2138,886
556,8	2118,514
557,3	2103,686
557,7	2082,114
558,2	2054,314
558,6	2033,629
559,1	2009,229
559,5	1989,429
560	1973,429
560,4	1956,2
560,9	1937,257
561,3	1924,886
561,8	1906,171
562,2	1889,057
562,7	1877,657
563,1	1860,857
563,6	1840,086
564	1821,543
564,4	1799,314
564,9	1780,2
565,3	1764,914
565,8	1744,971
566,2	1730,457
566,7	1724,171
567,1	1712,6
567,6	1703,771
568	1691,714
568,5	1678,086
568,9	1665,8
569,4	1651
569,8	1633,8
570,3	1619,057
570,7	1600,829
571,1	1589,543
571,6	1577,143
572	1565,8
572,5	1549,829
572,9	1532,057
573,4	1520,543
573,8	1509,743
574,3	1492,429
574,7	1477,657
575,2	1462,343
575,6	1453,629
576,1	1449,229
576,5	1438,886
576,9	1423,371
577,4	1415,8
577,8	1402,029
578,3	1389,943
578,7	1375,943
579,2	1365,2
579,6	1348,4
580,1	1342,143
580,5	1333,286
581	1321,943
581,4	1315,114
581,9	1302,8
582,3	1284,343
582,7	1278,514
583,2	1267,086
583,6	1254,229
584,1	1252,686
584,5	1239,371
585	1230,914
585,4	1220,571
585,9	1209,629
586,3	1204,914
586,8	1199,771
587,2	1187,886
587,6	1183,629
588,1	1181,657
588,5	1177,4
589	1173,771
589,4	1166,914
589,9	1152,8
590,3	1140,971
590,8	1131
591,2	1120,771
591,7	1119,429
592,1	1110,171
592,5	1103,229
593	1097,343
593,4	1090,886
593,9	1081,971
594,3	1070,086
594,8	1054,914
595,2	1043,829
595,7	1034,029
596,1	1028,457
596,6	1025,257
597	1018,914
597,4	1021,314
597,9	1015,514
598,3	1010,971
598,8	1004,943
599,2	998,886
599,7	993,057
600,1	984,486
600,6	972,171
601	969,229
601,4	963,543
601,9	955,886
602,3	946,457
602,8	939,886
603,2	935,714
603,7	934,371
604,1	927,543
604,6	925,686
605	909,771
605,4	907,257
605,9	899,914
606,3	891,6
606,8	879,886
607,2	870,371
607,7	857,629
608,1	861,257
608,6	855,057
609	852,314
609,4	853,686
609,9	847,829
610,3	845,971
610,8	843
611,2	836,543
611,7	828,657
612,1	818,629
612,6	814,629
613	813,257
613,4	806,2
613,9	799,486
614,3	795,886
614,8	796,6
615,2	793,543
615,7	786,343
616,1	781,343
616,6	772,257
617	765,8
617,4	763,486
617,9	755,743
618,3	753,943
618,8	749,171
619,2	743,286
619,7	745,314
620,1	742,314
620,5	736,8
621	730,714
621,4	724,229
621,9	719,114
622,3	712,971
622,8	702,2
623,2	696,286
623,6	688,571
624,1	688,029
624,5	681,029
625	680,971
625,4	679,257
625,9	679,857
626,3	677
626,8	672,971
627,2	665,429
627,6	659,257
628,1	651,029
628,5	647,686
629	640,457
629,4	637,171
629,9	631,6
630,3	624,143
630,7	621,914
631,2	617,143
631,6	609,857
632,1	609,2
632,5	604,057
633	601,629
633,4	600,8
633,8	599,257
634,3	593,314
634,7	592,086
635,2	581,657
635,6	580,314
636,1	579,543
636,5	572,029
636,9	564,543
637,4	563
637,8	554,343
638,3	551,086
638,7	541,4
639,2	533,257
639,6	536,257
640	535,229
640,5	531,057
640,9	527,743
641,4	529,943
641,8	530,229
642,2	531,086
642,7	525,886
643,1	524,057
643,6	520,114
644	518,829
644,5	513,714
644,9	511,686
645,3	506,086
645,8	498,6
646,2	496,429
646,7	493,771
647,1	489,371
647,6	491,2
648	491,343
648,4	487,029
648,9	491
649,3	484,429
649,8	481,971
650,2	482,286
650,6	476,314
651,1	469,371
651,5	471,314
652	459,829
652,4	455,771
652,9	456,829
653,3	449,6
653,7	440,714
654,2	439,143
654,6	430,743
655,1	436,486
655,5	438,857
655,9	433,514
656,4	434,657
656,8	437
657,3	434,629
657,7	434,743
658,2	428,743
658,6	421,286
659	416,971
659,5	412,829
659,9	409,514
660,4	408,057
660,8	403,314
661,2	398,286
661,7	401,086
662,1	397,657
662,6	396,743
663	393,914
663,4	386,543
663,9	385,971
664,3	386,086
664,8	376,886
665,2	372,771
665,6	365,4
666,1	361,486
666,5	362,429
667	358,743
667,4	356,571
667,9	356,971
668,3	353,971
668,7	351,829
669,2	353,343
669,6	350,829
670,1	351,514
670,5	348,514
670,9	344,343
671,4	346,029
671,8	350,286
672,3	349,6
672,7	347,571
673,1	341,943
673,6	335,657
674	335,771
674,5	331,514
674,9	321,314
675,3	311,8
675,8	311,114
676,2	308,371
676,7	308,886
677,1	306,029
677,5	302,829
678	305,4
678,4	308,229
678,9	303,971
679,3	301,743
679,7	297,886
680,2	293,171
680,6	286,914
681,1	285,886
681,5	280,943
681,9	281,114
682,4	283,8
682,8	285,4
683,3	288,857
683,7	294,4
684,1	292,229
684,6	292,657
685	288,286
685,5	277,343
685,9	271,171
686,3	266,029
686,8	262,114
687,2	255,714
687,7	252,143
688,1	245,714
688,5	249,914
689	248,286
689,4	244,971
689,9	242,914
690,3	241,6
690,7	244,029
691,2	249,257
691,6	248,114
692	248,629
692,5	245,971
692,9	246,886
693,4	245,943
693,8	240,4
694,2	232,857
694,7	230,057
695,1	224,971
695,6	232,971
696	228,686
696,4	228,829
696,9	221,514
697,3	217,086
697,8	211,371
698,2	214,771
698,6	206,886
699,1	204,229
699,5	205,429
699,9	206,229
700,4	207,343
700,8	209,771
701,3	209,6
701,7	207,971
702,1	206,886
702,6	200
703	204,457
703,5	206,086
703,9	203,514
704,3	201,743
704,8	198,543
705,2	197,886
705,6	199,771
706,1	192,514
706,5	189,629
707	187,943
707,4	184,114
707,8	178,2
708,3	177,486
708,7	175,514
709,2	178,486
709,6	178,543
710	183,543
710,5	182,057
710,9	185,743
711,3	183,114
711,8	183,629
712,2	181,143
712,7	176,343
713,1	174,6
713,5	175,343
714	176,686
714,4	172
714,8	170,914
715,3	165,171
715,7	166,457
716,2	160,057
716,6	160,971
717	154,8
717,5	155,429
717,9	155,771
718,3	158,171
718,8	155,486
719,2	154,029
719,7	147,343
720,1	149,914
720,5	153,829
721	148,486
721,4	149,514
721,8	156,257
722,3	152,657
722,7	156,914
723,2	151,343
723,6	142,229
724	139,857
724,5	138,971
724,9	133,886
725,3	132,686
725,8	132,686
726,2	136,057
726,7	137,143
727,1	140,2
727,5	138,029
728	132,514
728,4	135,629
728,8	128,629
729,3	129,171
729,7	129
730,1	127,829
730,6	127,743
731	129,914
731,5	128,229
731,9	131,171
732,3	129,086
732,8	129,971
733,2	128,886
733,6	129,429
734,1	129,714
734,5	131,714
734,9	133,343
735,4	132,114
735,8	129,686
736,3	130,8
736,7	126,314
737,1	126,371
737,6	122,314
738	112,686
738,4	110,114
738,9	108,771
739,3	104,771
739,7	104,914
740,2	101,4
740,6	106,657
741,1	111,486
741,5	108,657
741,9	115,143
742,4	120,6
742,8	122,343
743,2	124,286
743,7	113,714
744,1	112,943
744,5	116,314
745	111,571
745,4	105,686
745,8	103,314
746,3	102,086
746,7	105,886
747,2	104,143
747,6	103,6
748	107,2
748,5	110,286
748,9	105,029
749,3	102,6
749,8	101,371
750,2	100,771
750,6	99,429
751,1	95,771
751,5	90,543
751,9	97,429
752,4	99,086
752,8	96,057
753,3	94,571
753,7	100
754,1	98,571
754,6	96,714
755	90,657
755,4	84,2
755,9	88,2
756,3	87,2
756,7	79,571
757,2	80,514
757,6	83,114
758	82,257
758,5	84,086
758,9	80,914
759,3	84,429
759,8	86,657
760,2	83,743
760,6	80,914
761,1	82,8
761,5	82,229
761,9	82,371
762,4	80,171
762,8	79,229
763,3	78,714
763,7	81,286
764,1	82,229
764,6	82,457
765	87,029
765,4	88,543
765,9	85,086
766,3	85,086
766,7	80,171
767,2	74,8
767,6	78,914
768	74,114
768,5	70,543
768,9	71,457
769,3	69,943
769,8	67,486
770,2	72,514
770,6	68,914
771,1	70,857
771,5	69,429
771,9	72
772,4	73,714
772,8	76,771
773,2	77,057
773,7	76,2
774,1	75,971
774,5	70,829
775	67,229
775,4	66,486
775,8	60,4
776,3	63,114
776,7	58,914
777,1	52,143
777,6	59,514
778	62,971
778,4	58,429
778,9	64,257
779,3	58,657
779,7	64,486
780,2	66,4
780,6	59,914
781	54,829
781,5	54,371
781,9	53,6
782,3	52,8
782,8	51
783,2	49,6
783,6	54,657
784,1	56,029
784,5	54,8
784,9	52,143
785,4	49,771
785,8	49,829
786,2	52,771
786,7	53,829
787,1	50,6
787,5	52,943
788	52,314
788,4	55,457
788,8	51,457
789,3	48,371
789,7	44,943
790,1	46,543
790,6	47,257
791	45,886
791,4	42,771
791,9	44,743
792,3	43,829
792,7	48,143
793,2	44,971
793,6	45,714
794	51,857
794,5	51,429
794,9	55,429
795,3	58,143
795,8	53,086
796,2	59,286
796,6	58,886
797,1	50,429
797,5	47,114
797,9	42,886
798,4	39,829
798,8	39,314
799,2	32,8
799,7	34
800,1	39,086
800,5	42,657
801	45,943
801,4	47,657
801,8	46,714
802,2	51,2
802,7	46,143
803,1	45,971
803,5	47,8
804	42,314
804,4	41,4
804,8	44,371
805,3	42,143
805,7	44,714
806,1	44,457
806,6	45,543
807	48,486
807,4	48,771
807,9	43,371
808,3	40,686
808,7	41,086
809,2	39,057
809,6	38,657
810	35,429
810,4	36,257
810,9	40,543
811,3	42,571
811,7	42,943
812,2	47
812,6	41,657
813	46,571
813,5	44,8
813,9	44,571
814,3	45,171
814,8	44,514
815,2	40,571
815,6	42,371
816,1	42,371
816,5	44,629
816,9	43,343
817,3	42,886
817,8	44,257
818,2	42,229
818,6	39,571
819,1	34,371
819,5	30,057
819,9	32,286
820,4	30,457
820,8	26,171
821,2	24,543
821,7	27,429
822,1	31,429
822,5	37,571
822,9	34,486
823,4	33
823,8	36,714
824,2	41,857
824,7	39,143
825,1	33,286
825,5	26,514
826	22,714
826,4	23
826,8	19,714
827,3	18,943
827,7	19,257
828,1	20,943
828,5	21,771
829	22,2
829,4	22,6
829,8	19,743
830,3	17,857
830,7	14,829
831,1	15,886
831,6	20,371
832	21,714
832,4	21,857
832,8	28,886
833,3	29,057
833,7	30,257
834,1	30,314
834,6	25,886
835	31,629
835,4	35,286
835,8	28,543
836,3	30,4
836,7	30,286
837,1	25,629
837,6	28,457
838	23
838,4	18,686
838,9	19,629
839,3	15,114
839,7	19,314
840,1	18,714
840,6	16,314
841	16,914
841,4	16,057
841,9	19,629
842,3	22,371
842,7	21,4
843,1	26,714
843,6	27,886
844	28,771
844,4	32,257
844,9	31,371
845,3	30,657
845,7	29,629
846,2	26,686
846,6	24,486
847	21,6
847,4	23,229
847,9	20,714
848,3	18,086
848,7	20,486
849,2	17
849,6	12,829
850	16,314
850,4	9,943
850,9	14,171
851,3	17,029
851,7	14,371
852,2	18,886
852,6	23,029
853	21,486
853,4	20,771
853,9	15,771
854,3	18,4
854,7	15,857
855,2	14,343
855,6	13,514
856	11,143
856,4	13,514
856,9	15,457
857,3	16,743
857,7	20,257
858,2	25,943
858,6	28,571
859	29,914
859,4	31
859,9	30,257
860,3	24
860,7	23,8
861,1	19,486
861,6	17,4
862	18,743
862,4	16,171
862,9	14,771
863,3	16,714
863,7	18,771
864,1	21,857
864,6	20,2
865	20,314
865,4	21,086
865,9	25,286
866,3	23,171
866,7	17,857
867,1	13,8
867,6	14,971
868	10,571
868,4	9,914
868,8	6,914
869,3	7,257
869,7	15,229
870,1	10,429
870,6	7,914
871	13,343
871,4	17,229
871,8	16,171
872,3	18,371
872,7	13,4
873,1	15,543
873,5	19,286
874	18,086
874,4	16
874,8	14,371
875,3	13,914
875,7	11,8
876,1	13,057
876,5	9,171
877	5,457
877,4	-1,914
877,8	4,543
878,2	4,257
878,7	6,943
879,1	9,143
879,5	14,686
879,9	17,829
880,4	24,286
880,8	21,2
881,2	19,771
881,7	17,8
882,1	16,029
882,5	10,343
882,9	7,743
883,4	5,629
883,8	6,257
884,2	6,829
884,6	4,657
885,1	3,543
885,5	6,257
885,9	6,657
886,3	9,4
886,8	4,229
887,2	4,343
887,6	6,486
888	8,829
888,5	8,286
888,9	6,429
889,3	4,114
889,8	5,257
890,2	5,457
890,6	5,743
891	3,114
891,5	2,943
891,9	6,057
892,3	9,6
892,7	11,4
893,2	10,857
893,6	10,629
894	13,171
894,4	7,286
894,9	6,714
895,3	4,886
895,7	8,057
896,1	7,771
896,6	6,429
897	6,229
897,4	16,4
897,8	18,029
898,3	20,314
898,7	15,686
899,1	13,686
899,5	14,286
900	11,457
900,4	6,886
900,8	0,2
901,2	-4,4
901,7	-2,914
902,1	-0,971
902,5	-0,114
902,9	-1,143
903,4	-0,457
903,8	4,571
904,2	5,657
904,6	5,143
905,1	7,286
905,5	8,486
905,9	10,314
906,3	13,057
906,8	14,457
907,2	13,629
907,6	14,2
908	14,629
908,5	11,543
908,9	10,143
909,3	9,086
909,7	9,143
910,2	11
910,6	14,486
911	9,543
911,4	8,286
911,9	10,4
912,3	6,857
912,7	10,371
913,1	10,686
913,6	5,457
914	9,743
914,4	8,743
914,8	7,286
915,3	9,086
915,7	2,171
916,1	-1,857
916,5	0,6
916,9	-2,4
917,4	2,457
917,8	4,457
918,2	0,114
918,6	-1,543
919,1	2,771
919,5	2,829
919,9	1,571
920,3	0,771
920,8	-4
921,2	-3,457
921,6	-3,371
922	-5,514
922,5	-9,657
922,9	-4,4
923,3	-8,914
923,7	-3,971
924,2	-3,057
924,6	-3,286
925	-2,571
925,4	-2,086
925,8	-2,057
926,3	1,714
926,7	-0,971
927,1	2,657
927,5	5,714
928	3,371
928,4	3,343
928,8	2,286
929,2	0,629
929,7	5,629
930,1	2,714
930,5	1,429
930,9	7,914
931,3	8,886
931,8	7
932,2	5,686
932,6	-0,029
933	-4,257
933,5	-1,714
933,9	-1,657
934,3	1,314
934,7	-3,2
935,2	-1,657
935,6	1,629
936	6,771
936,4	3,229
936,8	1,314
937,3	0,257
937,7	4,571
938,1	7,343
938,5	2,486
939	5,514
939,4	4,171
939,8	2,6
940,2	1,571
940,6	2,457
941,1	1,229
941,5	7,886
941,9	4,371
942,3	5,8
942,8	6,571
943,2	7,514
943,6	4,371
944	1
944,4	1,057
944,9	-1,943
945,3	0,657
945,7	-1,429
946,1	-6,029
946,6	-3,829
947	-2,629
947,4	-1,543
947,8	3,486
948,2	-0,057
948,7	3,029
949,1	6,171
949,5	8,857
949,9	10,114
950,3	6
950,8	2,114
951,2	0,629
951,6	-4,257
952	-1,371
952,5	-6,829
952,9	-5,571
953,3	-4,4
953,7	-4,486
954,1	1,2
954,6	3
955	4,6
955,4	6,171
955,8	7,4
956,2	3,429
956,7	4,257
957,1	1,486
957,5	2,286
957,9	-3,943
958,3	-7
958,8	-4,857
959,2	0,114
959,6	-0,114
960	0,457
960,5	2,086
960,9	5,429
961,3	9,314
961,7	3,971
962,1	0,657
962,6	2,8
963	4
963,4	-2,543
963,8	-5,743
964,2	-3,914
964,7	-2,457
965,1	1,286
965,5	-1,543
965,9	-0,686
966,3	4,771
966,8	5,286
967,2	5,4
967,6	4,086
968	2,571
968,4	4,857
968,9	1,2
969,3	2,6
969,7	0,2
970,1	-3,486
970,5	-4,2
971	-3,657
971,4	-1,829
971,8	3,114
972,2	2,029
972,6	5,143
973,1	6,314
973,5	5,029
973,9	7,114
974,3	4,543
974,7	5,114
975,2	3,086
975,6	1,886
976	3,943
976,4	5,343
976,8	4,971
977,3	3,8
977,7	1,343
978,1	2,914
978,5	3,257
978,9	-2,457
979,4	-1,8
979,8	-4,029
980,2	-0,971
980,6	-5,657
981	-2,971
981,5	-3,486
981,9	-1,571
982,3	0,029
982,7	2,686
983,1	-0,057
983,6	5,457
984	5,486
984,4	6,143
984,8	6,029
985,2	3,343
985,6	-2,914
986,1	0,371
986,5	-1,286
986,9	-9,971
987,3	-7,886
987,7	-5,171
988,2	-11,343
988,6	-9,971
989	-14,6
989,4	-13,771
989,8	-5,8
990,3	-6,2
990,7	-10,771
991,1	-4,114
991,5	1,743
991,9	6,057
992,3	7,743
992,8	6,371
993,2	3,143
993,6	8,486
994	7
994,4	4,8
994,9	1,771
995,3	-0,057
995,7	-4,829
996,1	-4,6
996,5	-5,229
996,9	-5,543
997,4	-4,229
997,8	-5,086
998,2	-9,714
998,6	-11,971
999	-10,4
999,5	-10,229
999,9	-11
1000,3	-16,171
1000,7	-15,657
1001,1	-10,629
1001,5	-0,771
1002	4,229
1002,4	6,771
1002,8	6,486
1003,2	10,229
1003,6	13,457
1004	14,771
1004,5	9,657
1004,9	9,057
1005,3	3,143
1005,7	5,886
1006,1	2,971
1006,6	-1,257
1007	-2,8
1007,4	-3,514
1007,8	-5,114
1008,2	-5,886
1008,6	-4,143
1009,1	-2,743
1009,5	2,314
1009,9	4,257
1010,3	4,629
1010,7	0,486
1011,1	5,8
1011,6	1,8
1012	3,029
1012,4	-1,371
1012,8	-7,257
1013,2	-4,371
1013,6	-2,457
1014,1	-3,886
1014,5	-1,714
1014,9	-2,114
1015,3	-2,229
1015,7	1,514
1016,1	-0,2
1016,6	-3,486
1017	-5,829
1017,4	-4,029
1017,8	-3,829
1018,2	1,714
1018,6	-3,171
1019,1	-4,714
1019,5	1,086
1019,9	1,057
1020,3	2,371
1020,7	2,886
1021,1	3,429
1021,6	6,143
1022	8,371
1022,4	5,743
1022,8	5,771
1023,2	2,429
1023,6	-1,943
1024,1	-2,229
1024,5	-0,229
1024,9	-3,257
1025,3	-1,629
1025,7	-3,114
1026,1	-0,114
1026,6	2,914
1027	-2,914
1027,4	-2,943
1027,8	0,686
1028,2	0,543
1028,6	4,743
1029	1,743
1029,5	4,429
1029,9	4,086
1030,3	0,771
1030,7	-3,571
1031,1	-4,686
1031,5	-9,257
1032	-10,771
1032,4	-11,571
1032,8	-8,2
1033,2	-1,486
1033,6	2,8
1034	0,829
1034,4	3,143
1034,9	7,4
1035,3	4,571
1035,7	8,686
1036,1	-1,6
1036,5	-6,629
1036,9	-4,8
1037,4	-2,057
1037,8	-7,314
1038,2	-9
1038,6	-11,314
1039	-1,771
1039,4	10,457
1039,8	8
1040,3	10,429
1040,7	14,829
1041,1	19,6
1041,5	19
1041,9	13,543
1042,3	6,629
1042,7	11,771
1043,2	7,229
1043,6	3,971
1044	3,771
1044,4	1,8
1044,8	3,086
1045,2	3,257
1045,6	1,086
1046,1	-0,143
1046,5	1,629
1046,9	-4,029
1047,3	-4,229
1047,7	-4,686
1048,1	-7,971
1048,5	-8,029
1049	-1,343
1049,4	4,914
1049,8	11,029
1050,2	11,314
1050,6	20,771
1051	23,2
1051,4	20,571
1051,9	13,514
1052,3	14,971
1052,7	11,8
1053,1	7,886
1053,5	-0,943
1053,9	-2,429
1054,3	1,086
1054,8	4,371
1055,2	-2,343
1055,6	0,257
1056	3,514
1056,4	6,686
1056,8	9,4
1057,2	6,657
1057,6	4,857
1058,1	2,029
1058,5	-4,257
1058,9	-2,857
1059,3	-1,2
1059,7	-4,629
1060,1	-0,771
1060,5	3,971
1061	4,257
1061,4	3,286
1061,8	6,714
1062,2	1,114
1062,6	4,829
1063	5,771
1063,4	1,886
1063,8	5
1064,3	5,657
1064,7	2,8
1065,1	5,057
1065,5	1,2
1065,9	-4,457
1066,3	-6,371
1066,7	-9,714
1067,1	-11,629
1067,6	-13,914
1068	-17,229
1068,4	-17
1068,8	-10,943
1069,2	-5,886
1069,6	-0,229
1070	8,4
1070,4	8,257
1070,9	9,143
1071,3	10,829
1071,7	4,8
1072,1	2
1072,5	-6
1072,9	-10,714
1073,3	-10,114
1073,7	-10,429
1074,2	-13,543
1074,6	-10,457
1075	-11,629
1075,4	-9,086
1075,8	-10
1076,2	-7,971
1076,6	-2,914
1077	-2,257
1077,5	-0,114
1077,9	-2,571
1078,3	-4,657
1078,7	-2,057
1079,1	-2,943
1079,5	-9,086
1079,9	-7,886
1080,3	-8,8
1080,7	-7,257
1081,2	1,971
1081,6	1,771
1082	0,657
1082,4	6,2
1082,8	7,657
1083,2	6,914
1083,6	9,543
1084	2,543
1084,5	2,886
1084,9	-0,114
1085,3	-4,114
1085,7	-5,857
1086,1	-4,171
1086,5	-4,514
1086,9	0,4
1087,3	-2,257
1087,7	2,714
1088,2	4,343
1088,6	2,857
1089	-0,057
1089,4	-2,8
1089,8	-3,486
1090,2	-3,829
1090,6	-7,029
1091	-3,143
1091,4	2,971
1091,9	3,857
1092,3	6,714
1092,7	3,286
1093,1	11,114
1093,5	15,114
1093,9	10,514
1094,3	11,886
1094,7	10,8
1095,1	8,457
1095,5	8,114
1096	2,857
1096,4	2,257
1096,8	2,029
1097,2	0,571
1097,6	4,371
1098	7,914
1098,4	12,229
1098,8	12,914
1099,2	15,514
1099,6	15,514
1100,1	12,629
1100,5	7
1100,9	4,429
1101,3	1,829
1101,7	-0,371
1102,1	-3,429
1102,5	1,8
1102,9	-0,171
1103,3	4,857
1103,7	7,086
1104,2	4,886
1104,6	5,886
1105	2,714
1105,4	-3,143
1105,8	-2,086
1106,2	-5,029
1106,6	-6,8
1107	-4,514
1107,4	-4,433
1107,8	-2,16
1108,3	-0,6
