Data from Subt2_221.txt Node
Date: Sat Aug 26 18:50:28 MSK 2023
User: vat
Spectrometer: MAYP114033
Trigger mode: 0
Integration Time (sec): 1,000000E0
Scans to average: 5
Electric dark correction enabled: true
Nonlinearity correction enabled: false
Boxcar width: 3
XAxis mode: Wavelengths
Number of Pixels in Spectrum: 2068
>>>>>Begin Spectral Data<<<<<
199,4	0,817
199,9	5,847
200,4	5,767
200,8	6,967
201,3	4,538
201,8	7,224
202,2	6,11
202,7	12,967
203,2	6,252
203,6	7,767
204,1	3,395
204,6	3,338
205	1,31
205,5	0,452
206	-4,005
206,4	-3,719
206,9	-8,862
207,4	-3,633
207,8	-1,376
208,3	0,338
208,8	0,367
209,2	-2,062
209,7	4,281
210,2	5,91
210,6	2,538
211,1	6,138
211,5	1,995
212	5,424
212,5	5,795
212,9	0,395
213,4	3,824
213,9	3,195
214,3	2,252
214,8	3,367
215,3	2,052
215,7	5,567
216,2	10,281
216,7	10,252
217,1	13,31
217,6	14,967
218,1	15,538
218,5	12,424
219	4,995
219,5	3,738
219,9	-0,833
220,4	5,652
220,9	4,424
221,3	6,767
221,8	10,138
222,3	12,71
222,7	12,595
223,2	15,91
223,6	6,652
224,1	6,138
224,6	3,595
225	1,795
225,5	4,11
226	1,538
226,4	2,138
226,9	4,424
227,4	2,938
227,8	0,51
228,3	1,424
228,8	3,052
229,2	10,395
229,7	10,224
230,2	10,824
230,6	15,167
231,1	20,624
231,5	20,938
232	20,795
232,5	14,424
232,9	13,995
233,4	16,224
233,9	13,052
234,3	11,595
234,8	10,167
235,3	8,938
235,7	12,081
236,2	13,852
236,7	8,738
237,1	9,624
237,6	5,538
238,1	5,081
238,5	0,938
239	1,481
239,4	7,624
239,9	9,538
240,4	11,652
240,8	17,795
241,3	18,252
241,8	16,995
242,2	13,595
242,7	3,91
243,2	2,624
243,6	-2,976
244,1	-4,262
244,6	0,424
245	5,938
245,5	5,938
245,9	7,881
246,4	8,71
246,9	8,052
247,3	7,767
247,8	4,995
248,3	5,395
248,7	8,624
249,2	7,51
249,7	6,252
250,1	8,824
250,6	5,081
251	6,567
251,5	0,824
252	-3,776
252,4	-1,719
252,9	0,081
253,4	-4,719
253,8	-2,862
254,3	-1,348
254,8	3,624
255,2	1,995
255,7	1,567
256,1	2,452
256,6	7,738
257,1	10,281
257,5	4,71
258	3,138
258,5	7,824
258,9	6,195
259,4	3,338
259,9	3,138
260,3	1,167
260,8	3,024
261,2	4,624
261,7	4,738
262,2	2,167
262,6	-0,148
263,1	0,91
263,6	0,052
264	1,881
264,5	4,424
264,9	2,11
265,4	7,567
265,9	9,395
266,3	8,424
266,8	10,367
267,3	9,852
267,7	7,31
268,2	10,51
268,7	6,024
269,1	7,195
269,6	5,738
270	7,167
270,5	2,567
271	3,052
271,4	3,395
271,9	0,767
272,4	6,195
272,8	11,081
273,3	7,452
273,7	14,967
274,2	13,195
274,7	7,281
275,1	16,167
275,6	14,338
276,1	6,71
276,5	13,081
277	7,652
277,4	8,852
277,9	12,938
278,4	7,624
278,8	4,91
279,3	8,481
279,8	3,767
280,2	2,71
280,7	4,652
281,1	0,138
281,6	0,938
282,1	-0,119
282,5	1,624
283	1,081
283,4	1,938
283,9	4,567
284,4	12,024
284,8	10,338
285,3	10,395
285,8	9,91
286,2	4,081
286,7	3,595
287,1	-1,976
287,6	-4,805
288,1	-5,376
288,5	-2,69
289	-4,005
289,5	3,395
289,9	5,081
290,4	8,395
290,8	8,195
291,3	9,052
291,8	9,052
292,2	7,31
292,7	8,224
293,1	8,424
293,6	8,138
294,1	6,052
294,5	8,424
295	10,11
295,5	10,252
295,9	13,31
296,4	15,31
296,8	13,995
297,3	14,167
297,8	11,738
298,2	6,824
298,7	11,852
299,1	7,452
299,6	3,367
300,1	3,71
300,5	8,595
301	9,138
301,5	12,624
301,9	8,767
302,4	9,024
302,8	13,138
303,3	9,51
303,8	1,71
304,2	-1,69
304,7	-4,005
305,1	-8,633
305,6	-8,233
306,1	-1,176
306,5	1,938
307	10,595
307,4	17,252
307,9	19,51
308,4	22,852
308,8	18,367
309,3	8,738
309,8	6,11
310,2	1,652
310,7	-5,548
311,1	-2,89
311,6	-1,062
312,1	2,252
312,5	5,71
313	9,538
313,4	9,367
313,9	16,281
314,4	11,424
314,8	9,424
315,3	5,195
315,7	-0,919
316,2	-4,833
316,7	-3,29
317,1	-0,919
317,6	0,652
318	6,224
318,5	11,338
319	13,852
319,4	16,738
319,9	19,452
320,3	15,567
320,8	12,681
321,3	13,081
321,7	9,938
322,2	9,31
322,6	10,367
323,1	8,367
323,6	9,567
324	8,395
324,5	4,024
324,9	6,681
325,4	7,852
325,9	9,824
326,3	9,195
326,8	7,252
327,2	5,624
327,7	6,767
328,2	8,681
328,6	10,51
329,1	3,567
329,5	4,252
330	2,967
330,5	10,338
330,9	10,195
331,4	10,024
331,8	12,11
332,3	14,91
332,8	14,567
333,2	15,252
333,7	13,281
334,1	12,795
334,6	9,281
335,1	1,681
335,5	3,624
336	1,252
336,4	5,71
336,9	11,167
337,4	13,795
337,8	13,681
338,3	17,824
338,7	18,652
339,2	17,31
339,7	19,338
340,1	11,767
340,6	11,11
341	10,024
341,5	12,367
342	7,395
342,4	7,338
342,9	-1,605
343,3	3,195
343,8	2,11
344,2	3,595
344,7	0,71
345,2	3,71
345,6	6,824
346,1	9,938
346,5	6,138
347	3,967
347,5	5,481
347,9	9,252
348,4	9,967
348,8	12,452
349,3	14,452
349,8	19,424
350,2	30,395
350,7	28,567
351,1	30,452
351,6	36,367
352	40,252
352,5	49,481
353	58,91
353,4	62,624
353,9	80,938
354,3	93,995
354,8	107,538
355,3	131,052
355,7	154,938
356,2	184,681
356,6	219,024
357,1	258,081
357,5	307,252
358	365,024
358,5	418,452
358,9	483,195
359,4	557,538
359,8	639,367
360,3	735,367
360,8	834,795
361,2	948,481
361,7	1079,395
362,1	1228,052
362,6	1384,795
363	1552,195
363,5	1720,538
364	1915,538
364,4	2108,252
364,9	2306,938
365,3	2496,852
365,8	2671,738
366,3	2847,824
366,7	3009,024
367,2	3142,881
367,6	3252,738
368,1	3334,195
368,5	3389,395
369	3419,367
369,5	3421,538
369,9	3394,281
370,4	3341,224
370,8	3263,338
371,3	3167,538
371,7	3048,824
372,2	2921,995
372,7	2775,967
373,1	2631,252
373,6	2473,71
374	2328,31
374,5	2174,681
374,9	2028,395
375,4	1886,595
375,9	1747,167
376,3	1611,71
376,8	1486,167
377,2	1363,795
377,7	1250,881
378,2	1147,11
378,6	1044,767
379,1	962,052
379,5	887,567
380	818,824
380,4	749,395
380,9	689,338
381,4	634,91
381,8	592,138
382,3	546,738
382,7	498,052
383,2	461,852
383,6	431,595
384,1	405,195
384,6	379,652
385	352,11
385,5	327,138
385,9	308,51
386,4	286,395
386,8	265,224
387,3	243,367
387,7	226,481
388,2	212,481
388,7	197,11
389,1	185,824
389,6	174,538
390	161,652
390,5	156,138
390,9	148,681
391,4	139,938
391,9	127,852
392,3	124,167
392,8	113,195
393,2	110,252
393,7	102,967
394,1	93,367
394,6	93,967
395,1	97,938
395,5	87,881
396	85,595
396,4	82,195
396,9	80,595
397,3	85,967
397,8	82,738
398,2	81,31
398,7	84,138
399,2	89,024
399,6	89,652
400,1	88,567
400,5	80,738
401	83,11
401,4	78,538
401,9	82,767
402,4	86,681
402,8	89,081
403,3	94,424
403,7	102,538
404,2	106,138
404,6	118,995
405,1	124,824
405,5	122,024
406	133,538
406,5	139,395
406,9	147,167
407,4	149,938
407,8	153,852
408,3	162,024
408,7	171,424
409,2	178,824
409,6	189,738
410,1	202,452
410,6	215,51
411	226,31
411,5	233,452
411,9	250,652
412,4	260,167
412,8	271,852
413,3	276,538
413,7	285,252
414,2	294,652
414,7	310,138
415,1	318,195
415,6	325,852
416	328,452
416,5	336,71
416,9	341,11
417,4	344,338
417,8	352,195
418,3	359,11
418,8	367,338
419,2	373,424
419,7	373,395
420,1	377,738
420,6	382,167
421	377,31
421,5	376,595
421,9	373,224
422,4	375,51
422,8	378,624
423,3	374,738
423,8	370,71
424,2	367,424
424,7	363,767
425,1	362,652
425,6	360,395
426	356,11
426,5	361,967
426,9	366,481
427,4	368,538
427,9	365,367
428,3	365,767
428,8	363,738
429,2	363,252
429,7	362,567
430,1	359,281
430,6	359,938
431	362,795
431,5	368,024
431,9	369,567
432,4	379,51
432,8	385,481
433,3	393,91
433,8	396,681
434,2	406,938
434,7	413,195
435,1	420,652
435,6	423,024
436	424,367
436,5	428,51
436,9	431,624
437,4	436,595
437,8	440,538
438,3	447,852
438,8	455,967
439,2	465,995
439,7	475,881
440,1	485,824
440,6	494,795
441	498,595
441,5	504,995
441,9	511,024
442,4	511,052
442,8	513,11
443,3	520,11
443,7	523,167
444,2	530,624
444,7	535,795
445,1	541,652
445,6	550,281
446	558,052
446,5	558,367
446,9	557,052
447,4	556,538
447,8	563,052
448,3	567,252
448,7	571,195
449,2	577,652
449,6	588,567
450,1	597,195
450,6	607,567
451	608,767
451,5	614,31
451,9	622,624
452,4	626,452
452,8	626,738
453,3	634,338
453,7	636,338
454,2	646,767
454,6	651,395
455,1	655,195
455,5	657,452
456	671,852
456,4	677,595
456,9	688,71
457,3	695,481
457,8	699,338
458,3	706,538
458,7	717,681
459,2	721,395
459,6	731,795
460,1	741,138
460,5	746,681
461	767,367
461,4	774,824
461,9	784,595
462,3	796,995
462,8	812,367
463,2	824,938
463,7	842,052
464,1	853,395
464,6	875,938
465	892,795
465,5	906,481
466	917,081
466,4	927,652
466,9	943,424
467,3	953,338
467,8	966,91
468,2	984,252
468,7	1001,252
469,1	1020,881
469,6	1036,995
470	1048,795
470,5	1063,052
470,9	1070,138
471,4	1073,824
471,8	1082,195
472,3	1090,767
472,7	1108,424
473,2	1116,51
473,6	1125,681
474,1	1146,424
474,5	1161,681
475	1176,71
475,4	1183,024
475,9	1191,167
476,4	1203,938
476,8	1221,367
477,3	1225,281
477,7	1237,052
478,2	1248,31
478,6	1259,824
479,1	1268,881
479,5	1278,252
480	1280,681
480,4	1287,138
480,9	1291,281
481,3	1291,624
481,8	1297,51
482,2	1297,11
482,7	1301,71
483,1	1307,624
483,6	1309,91
484	1312,624
484,5	1320,424
484,9	1320,624
485,4	1327,795
485,8	1330,138
486,3	1329,881
486,7	1332,767
487,2	1336,967
487,6	1335,195
488,1	1331,481
488,5	1327,51
489	1328,424
489,4	1330,738
489,9	1326,138
490,4	1323,91
490,8	1323,624
491,3	1328,481
491,7	1325,538
492,2	1323,71
492,6	1319,338
493,1	1319,052
493,5	1310,681
494	1302,824
494,4	1301,652
494,9	1295,167
495,3	1289,567
495,8	1282,824
496,2	1281,51
496,7	1276,852
497,1	1272,081
497,6	1263,31
498	1259,71
498,5	1256,767
498,9	1248,652
499,4	1234,795
499,8	1233,652
500,3	1226,338
500,7	1214,081
501,2	1207,367
501,6	1188,767
502,1	1180,995
502,5	1172,538
503	1160,452
503,4	1152,681
503,9	1142,738
504,3	1134,652
504,8	1132,652
505,2	1126,652
505,7	1119,595
506,1	1111,538
506,6	1098,91
507	1089,167
507,5	1078,71
507,9	1062,481
508,4	1047,338
508,8	1037,967
509,3	1024,538
509,7	1020,71
510,2	1010,71
510,6	997,167
511,1	992,881
511,5	986,681
512	973,31
512,4	965,481
512,9	948,995
513,3	944,852
513,8	936,195
514,2	923,967
514,7	910,395
515,1	902,424
515,6	888,824
516	881,11
516,5	869,195
516,9	859,281
517,4	848,481
517,8	845,395
518,3	836,738
518,7	827,738
519,2	815,995
519,6	803,681
520,1	792,967
520,5	779,624
521	759,252
521,4	747,052
521,9	738,51
522,3	731,081
522,8	721,167
523,2	713,652
523,7	707,567
524,1	703,538
524,6	695,281
525	685,538
525,5	674,252
525,9	669,681
526,4	658,852
526,8	650,252
527,3	641,452
527,7	634,795
528,2	627,881
528,6	620,052
529,1	612,71
529,5	608,024
530	600,881
530,4	593,224
530,9	586,452
531,3	579,281
531,8	571,052
532,2	563,338
532,6	551,024
533,1	544,224
533,5	540,424
534	530,995
534,4	525,567
534,9	521,824
535,3	511,281
535,8	506,538
536,2	500,281
536,7	493,567
537,1	485,852
537,6	479,138
538	473,452
538,5	470,995
538,9	464,224
539,4	463,738
539,8	458,31
540,3	455,224
540,7	450,081
541,2	443,567
541,6	436,795
542,1	433,938
542,5	428,11
543	417,338
543,4	408,424
543,9	403,024
544,3	398,481
544,8	392,51
545,2	389,252
545,7	384,538
546,1	387,424
546,5	391,824
547	388,995
547,4	388,738
547,9	385,795
548,3	383,652
548,8	378,71
549,2	371,51
549,7	363,681
550,1	362,224
550,6	356,967
551	361,052
551,5	355,395
551,9	348,024
552,4	345,881
552,8	342,595
553,3	335,395
553,7	330,938
554,2	321,395
554,6	315,91
555,1	314,024
555,5	307,795
555,9	304,624
556,4	304,995
556,8	296,738
557,3	295,138
557,7	298,938
558,2	295,538
558,6	299,167
559,1	295,024
559,5	289,824
560	293,967
560,4	292,624
560,9	289,767
561,3	286,138
561,8	284,681
562,2	288,338
562,7	287,51
563,1	283,71
563,6	274,31
564	271,252
564,4	270,138
564,9	265,195
565,3	260,052
565,8	254,938
566,2	254,224
566,7	255,481
567,1	254,138
567,6	252,31
568	249,195
568,5	250,538
568,9	248,824
569,4	251,252
569,8	255,452
570,3	252,052
570,7	247,338
571,1	245,195
571,6	240,138
572	240,967
572,5	233,081
572,9	228,452
573,4	226,424
573,8	235,395
574,3	232,31
574,7	229,567
575,2	226,081
575,6	225,081
576,1	225,195
576,5	225,367
576,9	217,224
577,4	218,681
577,8	217,538
578,3	221,852
578,7	222,881
579,2	224,024
579,6	217,938
580,1	215,995
580,5	215,938
581	219,567
581,4	212,224
581,9	206,595
582,3	197,881
582,7	201,167
583,2	199,481
583,6	197,252
584,1	196,167
584,5	194,881
585	196,11
585,4	194,167
585,9	190,538
586,3	192,052
586,8	191,567
587,2	183,138
587,6	185,567
588,1	186,11
588,5	188,138
589	187,481
589,4	186,138
589,9	182,195
590,3	183,71
590,8	182,995
591,2	183,938
591,7	188,624
592,1	187,424
592,5	191,538
593	190,481
593,4	189,51
593,9	183,052
594,3	181,91
594,8	174,424
595,2	174,624
595,7	170,938
596,1	172,452
596,6	168,281
597	168,167
597,4	167,938
597,9	167,738
598,3	168,052
598,8	165,281
599,2	165,252
599,7	167,395
600,1	168,167
600,6	163,795
601	162,71
601,4	165,081
601,9	164,824
602,3	159,167
602,8	161,081
603,2	161,995
603,7	161,567
604,1	159,481
604,6	155,024
605	150,167
605,4	155,538
605,9	149,31
606,3	145,881
606,8	134,224
607,2	133,881
607,7	128,11
608,1	129,11
608,6	127,767
609	135,624
609,4	135,195
609,9	143,652
610,3	144,395
610,8	149,967
611,2	151,224
611,7	150,195
612,1	145,11
612,6	148,195
613	149,652
613,4	147,967
613,9	143,31
614,3	139,852
614,8	143,11
615,2	142,681
615,7	144,995
616,1	146,881
616,6	143,338
617	142,795
617,4	147,652
617,9	144,024
618,3	144,852
618,8	148,31
619,2	141,795
619,7	148,367
620,1	147,595
620,5	150,481
621	149,11
621,4	148,395
621,9	141,11
622,3	144,252
622,8	139,595
623,2	139,167
623,6	134,567
624,1	133,795
624,5	131,767
625	132,567
625,4	132,338
625,9	133,252
626,3	133,081
626,8	130,167
627,2	132,081
627,6	128,31
628,1	127,052
628,5	130,738
629	123,252
629,4	120,738
629,9	120,852
630,3	115,681
630,7	115,224
631,2	114,252
631,6	107,938
632,1	113,252
632,5	117,538
633	116,624
633,4	116,367
633,8	118,567
634,3	115,824
634,7	114,795
635,2	111,967
635,6	109,881
636,1	107,938
636,5	102,252
636,9	100,51
637,4	101,195
637,8	94,624
638,3	90,938
638,7	89,11
639,2	89,71
639,6	96,367
640	93,452
640,5	93,852
640,9	102,424
641,4	109,567
641,8	110,395
642,2	109,367
642,7	111,51
643,1	114,681
643,6	112,967
644	111,395
644,5	111,195
644,9	109,881
645,3	110,91
645,8	104,081
646,2	106,252
646,7	103,824
647,1	99,681
647,6	98,824
648	100,681
648,4	95,395
648,9	102,224
649,3	98,452
649,8	98,767
650,2	100,938
650,6	99,224
651,1	97,281
651,5	99,167
652	91,71
652,4	90,71
652,9	92,538
653,3	87,224
653,7	87,481
654,2	83,738
654,6	84,795
655,1	89,481
655,5	96,224
655,9	95,252
656,4	99,424
656,8	97,824
657,3	102,767
657,7	105,881
658,2	101,138
658,6	94,995
659	93,71
659,5	89,252
659,9	90,824
660,4	91,71
660,8	84,967
661,2	87,624
661,7	89,195
662,1	87,681
662,6	89,738
663	88,081
663,4	83,595
663,9	87,367
664,3	83,31
664,8	79,452
665,2	78,681
665,6	80,738
666,1	77,338
666,5	79,11
667	74,681
667,4	74,738
667,9	77,624
668,3	79,624
668,7	77,595
669,2	85,11
669,6	81,795
670,1	84,938
670,5	84,081
670,9	81,51
671,4	79,252
671,8	80,452
672,3	78,052
672,7	80,967
673,1	74,481
673,6	73,91
674	74,195
674,5	74,167
674,9	67,138
675,3	60,652
675,8	59,852
676,2	61,624
676,7	60,31
677,1	57,71
677,5	55,11
678	60,881
678,4	66,71
678,9	65,481
679,3	65,967
679,7	68,852
680,2	65,024
680,6	63,224
681,1	59,852
681,5	59,424
681,9	58,195
682,4	58,452
682,8	58,767
683,3	63,681
683,7	69,31
684,1	70,738
684,6	66,252
685	63,567
685,5	64,052
685,9	57,195
686,3	54,567
686,8	52,424
687,2	51,767
687,7	52,252
688,1	51,338
688,5	48,681
689	50,795
689,4	52,081
689,9	47,852
690,3	43,167
690,7	43,881
691,2	46,452
691,6	48,481
692	48,052
692,5	50,11
692,9	54,795
693,4	56,31
693,8	54,681
694,2	51,71
694,7	51,395
695,1	54,91
695,6	54,31
696	52,795
696,4	56,052
696,9	52,11
697,3	51,995
697,8	48,138
698,2	47,938
698,6	46,967
699,1	47,11
699,5	49,51
699,9	50,567
700,4	49,481
700,8	54,281
701,3	52,681
701,7	48,195
702,1	46,338
702,6	41,138
703	43,995
703,5	45,652
703,9	42,824
704,3	42,881
704,8	45,652
705,2	45,167
705,6	48,481
706,1	46,452
706,5	46,91
707	50,681
707,4	50,11
707,8	49,024
708,3	53,395
708,7	50,681
709,2	45,738
709,6	47,138
710	46,224
710,5	39,595
710,9	38,967
711,3	31,51
711,8	31,11
712,2	34,624
712,7	33,052
713,1	33,938
713,5	42,367
714	44,767
714,4	46,024
714,8	44,452
715,3	42,595
715,7	42,424
716,2	38,795
716,6	35,51
717	30,652
717,5	33,138
717,9	40,452
718,3	42,538
718,8	41,881
719,2	42,31
719,7	40,824
720,1	44,652
720,5	47,024
721	41,938
721,4	44,081
721,8	48,252
722,3	45,767
722,7	50,91
723,2	45,881
723,6	36,595
724	32,281
724,5	28,481
724,9	24,767
725,3	26,081
725,8	21,938
726,2	25,052
726,7	30,938
727,1	32,995
727,5	35,424
728	33,51
728,4	34,452
728,8	34,224
729,3	33,91
729,7	31,938
730,1	33,852
730,6	34,081
731	32,167
731,5	33,995
731,9	34,881
732,3	36,367
732,8	38,167
733,2	36,824
733,6	33,881
734,1	38,624
734,5	34,824
734,9	36,795
735,4	35,367
735,8	31,195
736,3	33,938
736,7	34,281
737,1	32,624
737,6	31,51
738	30,995
738,4	30,138
738,9	35,167
739,3	34,167
739,7	38,995
740,2	34,538
740,6	39,538
741,1	40,852
741,5	36,567
741,9	35,624
742,4	36,395
742,8	34,852
743,2	38,338
743,7	34,195
744,1	25,367
744,5	28,481
745	23,71
745,4	19,138
745,8	16,738
746,3	14,967
746,7	15,452
747,2	18,881
747,6	22,138
748	27,167
748,5	32,024
748,9	29,567
749,3	30,91
749,8	31,767
750,2	33,995
750,6	31,881
751,1	30,995
751,5	29,51
751,9	34,852
752,4	34,567
752,8	32,367
753,3	32,052
753,7	33,652
754,1	29,424
754,6	27,538
755	22,138
755,4	20,91
755,9	26,481
756,3	26,052
756,7	25,281
757,2	24,767
757,6	25,652
758	25,081
758,5	24,681
758,9	18,452
759,3	17,91
759,8	17,538
760,2	22,681
760,6	21,91
761,1	23,767
761,5	26,452
761,9	24,024
762,4	21,881
762,8	19,452
763,3	15,024
763,7	17,767
764,1	18,31
764,6	17,967
765	20,224
765,4	24,167
765,9	26,138
766,3	29,11
766,7	24,624
767,2	23,224
767,6	22,652
768	23,938
768,5	19,795
768,9	21,71
769,3	22,138
769,8	22,538
770,2	22,167
770,6	18,252
771,1	20,481
771,5	21,967
771,9	19,024
772,4	19,052
772,8	17,567
773,2	20,738
773,7	25,138
774,1	25,538
774,5	23,167
775	23,138
775,4	20,71
775,8	25,281
776,3	23,738
776,7	22,11
777,1	15,938
777,6	20,91
778	23,052
778,4	23,51
778,9	21,91
779,3	22,452
779,7	24,481
780,2	26,052
780,6	22,795
781	18,681
781,5	23,367
781,9	21,281
782,3	19,138
782,8	18,595
783,2	19,167
783,6	26,081
784,1	23,681
784,5	18,024
784,9	17,281
785,4	18,367
785,8	16,852
786,2	19,852
786,7	12,71
787,1	16,681
787,5	18,595
788	19,567
788,4	21,51
788,8	21,452
789,3	19,11
789,7	24,824
790,1	22,824
790,6	21,795
791	19,452
791,4	20,252
791,9	19,167
792,3	13,567
792,7	15,167
793,2	12,91
793,6	15,31
794	22,167
794,5	16,995
794,9	17,71
795,3	22,881
795,8	19,452
796,2	23,395
796,6	21,738
797,1	18,595
797,5	20,824
797,9	19,481
798,4	18,595
798,8	14,71
799,2	15,281
799,7	17,052
800,1	13,395
800,5	12,424
801	17,338
801,4	16,681
801,8	15,31
802,2	15,31
802,7	8,138
803,1	12,424
803,5	13,824
804	8,595
804,4	10,881
804,8	12,252
805,3	13,367
805,7	17,367
806,1	15,367
806,6	15,51
807	16,995
807,4	16,252
807,9	11,71
808,3	11,995
808,7	12,481
809,2	16,338
809,6	20,138
810	20,052
810,4	18,652
810,9	25,71
811,3	20,91
811,7	20,967
812,2	22,91
812,6	17,51
813	21,738
813,5	25,995
813,9	21,624
814,3	23,881
814,8	23,167
815,2	17,91
815,6	18,024
816,1	19,624
816,5	15,967
816,9	19,795
817,3	20,51
817,8	26,281
818,2	25,652
818,6	24,052
819,1	15,338
819,5	12,338
819,9	10,51
820,4	11,395
820,8	4,938
821,2	2,795
821,7	7,052
822,1	13,538
822,5	20,852
822,9	20,767
823,4	19,31
823,8	22,767
824,2	26,538
824,7	22,11
825,1	16,338
825,5	9,852
826	5,224
826,4	3,538
826,8	1,767
827,3	4,252
827,7	4,395
828,1	8,024
828,5	11,967
829	10,71
829,4	13,024
829,8	9,424
830,3	5,11
830,7	5,224
831,1	4,195
831,6	4,338
832	11,595
832,4	12,367
832,8	15,11
833,3	16,224
833,7	16,31
834,1	14,51
834,6	12,481
835	12,395
835,4	10,995
835,8	9,224
836,3	6,881
836,7	11,081
837,1	13,624
837,6	14,767
838	13,795
838,4	11,824
838,9	13,024
839,3	10,51
839,7	8,681
840,1	1,91
840,6	3,452
841	3,767
841,4	4,852
841,9	5,31
842,3	8,738
842,7	6,795
843,1	8,252
843,6	9,224
844	9,195
844,4	12,081
844,9	16,71
845,3	18,224
845,7	19,71
846,2	21,595
846,6	16,11
847	15,938
847,4	17,538
847,9	16,71
848,3	16,852
848,7	17,367
849,2	20,281
849,6	19,624
850	20,624
850,4	18,081
850,9	15,567
851,3	15,938
851,7	18,738
852,2	14,138
852,6	16,567
853	20,31
853,4	16,91
853,9	15,967
854,3	14,367
854,7	9,852
855,2	11,795
855,6	10,224
856	1,367
856,4	-0,148
856,9	1,567
857,3	2,881
857,7	6,424
858,2	13,395
858,6	14,081
859	17,824
859,4	19,51
859,9	17,195
860,3	16,481
860,7	16,281
861,1	15,452
861,6	14,538
862	13,681
862,4	14,424
862,9	15,624
863,3	15,424
863,7	13,795
864,1	10,024
864,6	9,481
865	10,824
865,4	13,11
865,9	13,281
866,3	13,71
866,7	9,624
867,1	7,024
867,6	9,652
868	6,538
868,4	1,824
868,8	2,738
869,3	0,624
869,7	4,881
870,1	5,138
870,6	3,167
871	-13,462
871,4	-6,748
871,8	-10,205
872,3	-12,633
872,7	-16,519
873,1	-15,433
873,5	-14,09
874	0,224
874,4	0,281
874,8	2,31
875,3	4,51
875,7	4,681
876,1	5,481
876,5	5,367
877	7,138
877,4	0,967
877,8	1,052
878,2	7,567
878,7	13,395
879,1	14,024
879,5	11,624
879,9	14,167
880,4	15,452
880,8	14,824
881,2	10,967
881,7	9,252
882,1	8,624
882,5	11,167
882,9	8,795
883,4	9,481
883,8	8,538
884,2	9,624
884,6	5,681
885,1	4,081
885,5	3,938
885,9	6,824
886,3	9,538
886,8	6,795
887,2	4,824
887,6	2,767
888	3,538
888,5	3,31
888,9	0,195
889,3	-3,262
889,8	1,395
890,2	-0,348
890,6	0,652
891	0,024
891,5	-1,433
891,9	1,024
892,3	3,452
892,7	5,367
893,2	7,224
893,6	9,224
894	10,338
894,4	11,652
894,9	13,252
895,3	11,995
895,7	7,824
896,1	8,395
896,6	10,738
897	13,424
897,4	18,452
897,8	19,881
898,3	22,481
898,7	23,681
899,1	19,11
899,5	15,51
900	11,138
900,4	7,767
900,8	2,595
901,2	-3,719
901,7	-5,119
902,1	-0,462
902,5	3,51
902,9	0,652
903,4	0,824
903,8	2,081
904,2	3,767
904,6	5,91
905,1	4,367
905,5	4,767
905,9	10,481
906,3	11,938
906,8	15,738
907,2	19,281
907,6	18,995
908	19,652
908,5	17,195
908,9	14,824
909,3	8,938
909,7	7,767
910,2	6,681
910,6	9,281
911	9,195
911,4	12,31
911,9	10,567
912,3	16,281
912,7	15,652
913,1	15,824
913,6	11,51
914	11,652
914,4	8,681
914,8	12,11
915,3	7,195
915,7	5,167
916,1	2,681
916,5	3,852
916,9	1,624
917,4	0,91
917,8	1,252
918,2	0,024
918,6	-3,633
919,1	-1,433
919,5	0,367
919,9	0,024
920,3	-3,805
920,8	-5,662
921,2	-1,033
921,6	2,11
922	3,967
922,5	3,195
922,9	5,367
923,3	7,395
923,7	5,824
924,2	2,138
924,6	4,138
925	2,481
925,4	0,652
925,8	4,195
926,3	6,252
926,7	6,881
927,1	10,452
927,5	11,138
928	8,652
928,4	8,481
928,8	6,795
929,2	6,938
929,7	11,567
930,1	10,138
930,5	9,538
930,9	15,481
931,3	15,052
931,8	12,852
932,2	12,938
932,6	9,824
933	0,795
933,5	0,852
933,9	-0,262
934,3	3,567
934,7	2,824
935,2	1,938
935,6	3,081
936	9,652
936,4	11,052
936,8	13,167
937,3	8,852
937,7	12,481
938,1	18,767
938,5	16,367
939	18,51
939,4	17,481
939,8	10,652
940,2	13,281
940,6	9,71
941,1	6,681
941,5	10,681
941,9	10,195
942,3	9,652
942,8	16,424
943,2	19,91
943,6	19,31
944	20,138
944,4	19,481
944,9	19,91
945,3	18,31
945,7	8,71
946,1	0,852
946,6	0,424
947	-2,89
947,4	-2,348
947,8	-1,805
948,2	-5,519
948,7	1,195
949,1	2,052
949,5	9,395
949,9	11,424
950,3	8,51
950,8	7,995
951,2	10,024
951,6	5,224
952	11,024
952,5	1,71
952,9	3,91
953,3	4,138
953,7	5,424
954,1	11,252
954,6	12,052
955	9,081
955,4	11,195
955,8	8,624
956,2	9,652
956,7	12,738
957,1	5,624
957,5	7,481
957,9	9,452
958,3	11,424
958,8	14,31
959,2	19,31
959,6	19,852
960	22,052
960,5	22,652
960,9	21,567
961,3	19,195
961,7	14,938
962,1	11,652
962,6	9,481
963	9,881
963,4	4,31
963,8	2,71
964,2	5,167
964,7	7,424
965,1	9,024
965,5	10,395
965,9	9,081
966,3	19,624
966,8	20,767
967,2	18,91
967,6	15,995
968	8,967
968,4	6,595
968,9	8,452
969,3	5,967
969,7	5,938
970,1	6,852
970,5	3,052
971	9,595
971,4	6,252
971,8	11,738
972,2	9,252
972,6	3,767
973,1	2,452
973,5	5,567
973,9	4,138
974,3	4,795
974,7	1,995
975,2	1,195
975,6	6,338
976	10,052
976,4	7,795
976,8	7,024
977,3	5,052
977,7	-0,976
978,1	1,224
978,5	-1,662
978,9	-4,205
979,4	-3,69
979,8	-3,862
980,2	0,91
980,6	-0,405
981	-1,862
981,5	-1,548
981,9	0,91
982,3	3,967
982,7	3,538
983,1	0,767
983,6	2,681
984	4,195
984,4	8,824
984,8	10,567
985,2	9,481
985,6	5,795
986,1	9,624
986,5	12,652
986,9	10,738
987,3	10,824
987,7	8,424
988,2	7,595
988,6	7,71
989	7,938
989,4	7,395
989,8	8,995
990,3	5,024
990,7	1,624
991,1	5,024
991,5	7,681
991,9	8,624
992,3	10,852
992,8	8,767
993,2	10,938
993,6	18,452
994	21,138
994,4	24,281
994,9	20,652
995,3	18,081
995,7	19,452
996,1	15,452
996,5	9,767
996,9	5,338
997,4	4,367
997,8	0,11
998,2	-0,233
998,6	-7,033
999	-5,605
999,5	-3,948
999,9	-2,776
1000,3	-7,519
1000,7	-2,233
1001,1	-3,548
1001,5	1,938
1002	6,738
1002,4	7,795
1002,8	4,824
1003,2	11,31
1003,6	11,11
1004	15,51
1004,5	13,624
1004,9	15,681
1005,3	9,424
1005,7	13,481
1006,1	7,967
1006,6	5,91
1007	5,681
1007,4	6,567
1007,8	1,281
1008,2	3,167
1008,6	6,71
1009,1	11,338
1009,5	12,538
1009,9	12,481
1010,3	20,31
1010,7	22,938
1011,1	24,51
1011,6	19,395
1012	17,252
1012,4	15,595
1012,8	12,367
1013,2	6,281
1013,6	5,452
1014,1	9,224
1014,5	6,395
1014,9	6,91
1015,3	5,652
1015,7	9,995
1016,1	9,167
1016,6	7,11
1017	4,681
1017,4	8,595
1017,8	9,052
1018,2	14,51
1018,6	6,51
1019,1	5,081
1019,5	6,852
1019,9	2,31
1020,3	1,795
1020,7	2,167
1021,1	-1,262
1021,6	5,395
1022	7,938
1022,4	9,138
1022,8	15,252
1023,2	13,281
1023,6	12,51
1024,1	21,224
1024,5	21,795
1024,9	21,138
1025,3	16,31
1025,7	12,652
1026,1	16,91
1026,6	17,767
1027	8,367
1027,4	13,024
1027,8	12,938
1028,2	13,91
1028,6	20,138
1029	15,795
1029,5	15,138
1029,9	14,567
1030,3	7,738
1030,7	16,538
1031,1	16,995
1031,5	13,167
1032	13,167
1032,4	14,938
1032,8	19,967
1033,2	26,881
1033,6	17,367
1034	17,738
1034,4	12,91
1034,9	13,71
1035,3	10,995
1035,7	11,195
1036,1	3,681
1036,5	6,167
1036,9	8,767
1037,4	14,995
1037,8	10,881
1038,2	11,138
1038,6	8,938
1039	10,738
1039,4	12,938
1039,8	8,652
1040,3	6,395
1040,7	10,624
1041,1	12,281
1041,5	11,652
1041,9	7,967
1042,3	1,538
1042,7	5,252
1043,2	2,881
1043,6	-0,348
1044	-2,976
1044,4	-0,833
1044,8	5,995
1045,2	7,881
1045,6	6,795
1046,1	7,424
1046,5	10,71
1046,9	10,938
1047,3	8,395
1047,7	2,652
1048,1	3,224
1048,5	5,51
1049	8,938
1049,4	13,452
1049,8	16,624
1050,2	16,395
1050,6	22,31
1051	26,31
1051,4	24,795
1051,9	22,195
1052,3	26,538
1052,7	26,624
1053,1	25,567
1053,5	22,424
1053,9	16,91
1054,3	16,224
1054,8	23,367
1055,2	17,081
1055,6	13,224
1056	14,881
1056,4	14,681
1056,8	22,252
1057,2	21,338
1057,6	14,024
1058,1	11,195
1058,5	7,767
1058,9	9,881
1059,3	8,795
1059,7	3,881
1060,1	2,938
1060,5	5,967
1061	5,595
1061,4	8,71
1061,8	10,71
1062,2	10,395
1062,6	9,281
1063	12,624
1063,4	9,624
1063,8	7,652
1064,3	8,367
1064,7	2,995
1065,1	4,138
1065,5	3,595
1065,9	1,138
1066,3	3,281
1066,7	1,31
1067,1	3,567
1067,6	8,31
1068	2,424
1068,4	1,167
1068,8	5,395
1069,2	4,795
1069,6	10,481
1070	8,967
1070,4	5,624
1070,9	7,224
1071,3	12,081
1071,7	9,71
1072,1	7,681
1072,5	3,395
1072,9	4,481
1073,3	5,71
1073,7	6,624
1074,2	4,595
1074,6	1,995
1075	1,738
1075,4	5,11
1075,8	5,167
1076,2	3,281
1076,6	5,595
1077	2,11
1077,5	5,338
1077,9	1,624
1078,3	-0,833
1078,7	-4,033
1079,1	-5,233
1079,5	-5,205
1079,9	-6,405
1080,3	-8,69
1080,7	-4,862
1081,2	-0,119
1081,6	1,824
1082	0,024
1082,4	6,281
1082,8	11,652
1083,2	10,424
1083,6	14,967
1084	14,138
1084,5	16,281
1084,9	15,252
1085,3	7,195
1085,7	8,481
1086,1	12,281
1086,5	9,852
1086,9	12,51
1087,3	6,567
1087,7	11,824
1088,2	14,738
1088,6	11,167
1089	11,967
1089,4	10,967
1089,8	10,024
1090,2	11,91
1090,6	13,081
1091	13,424
1091,4	15,795
1091,9	16,652
1092,3	16,91
1092,7	10,31
1093,1	16,681
1093,5	15,252
1093,9	16,681
1094,3	18,11
1094,7	12,024
1095,1	10,252
1095,5	13,938
1096	6,995
1096,4	7,71
1096,8	5,024
1097,2	-3,09
1097,6	-0,033
1098	1,995
1098,4	3,052
1098,8	6,795
1099,2	9,91
1099,6	7,281
1100,1	9,167
1100,5	7,252
1100,9	7,852
1101,3	8,081
1101,7	6,71
1102,1	3,452
1102,5	8,967
1102,9	14,995
1103,3	19,538
1103,7	16,738
1104,2	15,367
1104,6	13,281
1105	8,31
1105,4	6,224
1105,8	2,281
1106,2	-2,148
1106,6	-1,605
1107	-2,719
1107,4	-2,2
1107,8	1,287
1108,3	-1,083
