Data from Subt2_146.txt Node
Date: Sat Aug 26 18:30:33 MSK 2023
User: vat
Spectrometer: MAYP114033
Trigger mode: 0
Integration Time (sec): 1,000000E0
Scans to average: 5
Electric dark correction enabled: true
Nonlinearity correction enabled: false
Boxcar width: 3
XAxis mode: Wavelengths
Number of Pixels in Spectrum: 2068
>>>>>Begin Spectral Data<<<<<
199,4	0,117
199,9	2,927
200,4	2,333
200,8	3,967
201,3	1,395
201,8	3,795
202,2	1,395
202,7	5,452
203,2	4,424
203,6	3,138
204,1	-0,89
204,6	-0,176
205	-2,948
205,5	1,224
206	0,052
206,4	-1,176
206,9	-1,376
207,4	1,052
207,8	0,71
208,3	-0,49
208,8	-1,433
209,2	-2,548
209,7	-2,776
210,2	-0,576
210,6	1,11
211,1	6,224
211,5	1,681
212	1,081
212,5	-0,662
212,9	-2,862
213,4	-3,919
213,9	-5,205
214,3	-3,462
214,8	4,281
215,3	1,452
215,7	4,595
216,2	8,624
216,7	10,195
217,1	9,11
217,6	4,624
218,1	3,195
218,5	4,31
219	-0,69
219,5	-1,462
219,9	-2,348
220,4	5,224
220,9	2,795
221,3	5,11
221,8	9,481
222,3	13,567
222,7	15,138
223,2	15,367
223,6	7,652
224,1	7,938
224,6	7,91
225	5,424
225,5	1,681
226	0,51
226,4	2,51
226,9	3,052
227,4	3,795
227,8	-7,29
228,3	-5,976
228,8	-2,433
229,2	-0,119
229,7	-2,262
230,2	-3,319
230,6	2,338
231,1	11,881
231,5	10,224
232	10,024
232,5	8,595
232,9	11,71
233,4	13,967
233,9	8,138
234,3	5,652
234,8	4,224
235,3	-0,148
235,7	-1,69
236,2	-3,319
236,7	-3,29
237,1	-0,49
237,6	-0,348
238,1	-4,405
238,5	-4,233
239	-0,919
239,4	0,195
239,9	0,024
240,4	-1,233
240,8	0,681
241,3	0,31
241,8	0,052
242,2	-2,833
242,7	-6,548
243,2	-5,633
243,6	-8,033
244,1	-6,062
244,6	1,424
245	7,11
245,5	6,481
245,9	6,424
246,4	3,281
246,9	8,652
247,3	6,081
247,8	3,595
248,3	1,052
248,7	3,281
249,2	3,795
249,7	5,424
250,1	0,852
250,6	0,824
251	1,395
251,5	1,052
252	-1,176
252,4	0,252
252,9	-1,948
253,4	-2,205
253,8	-0,233
254,3	1,224
254,8	3,338
255,2	2,281
255,7	2,024
256,1	2,195
256,6	2,424
257,1	4,395
257,5	-0,376
258	-5,633
258,5	-3,919
258,9	-7,748
259,4	-7,29
259,9	-6,433
260,3	-12,033
260,8	-11,09
261,2	-6,576
261,7	-4,948
262,2	-6,319
262,6	-6,09
263,1	-2,205
263,6	2,624
264	6,652
264,5	5,652
264,9	5,71
265,4	11,995
265,9	9,967
266,3	7,967
266,8	6,881
267,3	4,824
267,7	3,338
268,2	-1,919
268,7	-5,319
269,1	-6,148
269,6	-8,405
270	-5,748
270,5	-6,605
271	-7,062
271,4	-5,719
271,9	-8,348
272,4	-4,176
272,8	-6,433
273,3	-11,948
273,7	-7,49
274,2	-5,233
274,7	-1,805
275,1	1,452
275,6	-0,062
276,1	2,367
276,5	8,11
277	3,452
277,4	3,081
277,9	4,338
278,4	6,824
278,8	10,424
279,3	11,452
279,8	5,938
280,2	5,795
280,7	9,567
281,1	4,738
281,6	-0,976
282,1	-2,29
282,5	-5,176
283	-4,119
283,4	-1,976
283,9	-2,09
284,4	4,652
284,8	10,395
285,3	7,852
285,8	12,938
286,2	10,824
286,7	9,795
287,1	2,338
287,6	-2,319
288,1	-8,89
288,5	-6,719
289	-9,719
289,5	-4,233
289,9	-5,405
290,4	2,452
290,8	-2,548
291,3	1,652
291,8	4,081
292,2	2,881
292,7	3,824
293,1	8,11
293,6	8,395
294,1	13,052
294,5	14,71
295	12,767
295,5	13,995
295,9	10,452
296,4	2,081
296,8	-0,862
297,3	1,167
297,8	-5,49
298,2	-9,462
298,7	-8,348
299,1	-9,633
299,6	-6,462
300,1	-8,748
300,5	-10,09
301	-4,69
301,5	0,938
301,9	-1,633
302,4	-0,662
302,8	2,738
303,3	3,595
303,8	-0,633
304,2	1,281
304,7	-0,062
305,1	-2,748
305,6	-4,776
306,1	-0,205
306,5	-1,348
307	0,11
307,4	-1,548
307,9	-3,29
308,4	-0,033
308,8	-3,462
309,3	-8,976
309,8	-7,719
310,2	-4,062
310,7	-7,09
311,1	-3,719
311,6	-2,49
312,1	4,081
312,5	5,567
313	7,824
313,4	5,91
313,9	7,824
314,4	5,195
314,8	0,538
315,3	-1,976
315,7	-5,376
316,2	-10,033
316,7	-9,919
317,1	-6,005
317,6	-3,748
318	4,624
318,5	0,481
319	4,51
319,4	8,081
319,9	10,481
320,3	5,624
320,8	1,31
321,3	1,395
321,7	7,881
322,2	1,824
322,6	-1,176
323,1	-2,862
323,6	-1,576
324	-0,976
324,5	-6,633
324,9	-7,319
325,4	-4,833
325,9	-4,233
326,3	-3,176
326,8	-1,319
327,2	-6,605
327,7	-6,005
328,2	-5,433
328,6	-2,262
329,1	-5,805
329,5	-4,89
330	-9,348
330,5	-2,719
330,9	-0,205
331,4	-0,062
331,8	-4,548
332,3	1,481
332,8	2,624
333,2	6,395
333,7	8,824
334,1	10,795
334,6	7,195
335,1	7,595
335,5	9,024
336	3,024
336,4	1,681
336,9	2,424
337,4	3,681
337,8	5,795
338,3	4,538
338,7	3,224
339,2	7,281
339,7	10,052
340,1	3,395
340,6	2,824
341	2,31
341,5	5,11
342	2,567
342,4	0,51
342,9	-2,433
343,3	3,652
343,8	1,51
344,2	4,052
344,7	6,31
345,2	4,824
345,6	7,681
346,1	10,11
346,5	5,11
347	3,024
347,5	-0,319
347,9	2,567
348,4	5,967
348,8	0,852
349,3	2,167
349,8	4,338
350,2	9,224
350,7	8,424
351,1	4,595
351,6	6,138
352	13,367
352,5	13,052
353	17,224
353,4	18,51
353,9	32,024
354,3	40,167
354,8	50,252
355,3	59,024
355,7	74,624
356,2	90,938
356,6	104,681
357,1	119,71
357,5	141,881
358	165,967
358,5	196,624
358,9	225,395
359,4	259,681
359,8	300,052
360,3	346,195
360,8	393,052
361,2	445,395
361,7	499,91
362,1	566,881
362,6	636,824
363	712,824
363,5	789,481
364	878,881
364,4	967,624
364,9	1057,538
365,3	1145,51
365,8	1231,852
366,3	1312,795
366,7	1388,11
367,2	1447,71
367,6	1499,252
368,1	1547,424
368,5	1576,081
369	1586,652
369,5	1591,567
369,9	1578,424
370,4	1556,11
370,8	1519,11
371,3	1470,452
371,7	1417,338
372,2	1354,195
372,7	1283,71
373,1	1212,31
373,6	1139,51
374	1070,824
374,5	995,681
374,9	923,481
375,4	862,395
375,9	797,538
376,3	737,024
376,8	677,281
377,2	622,024
377,7	569,738
378,2	520,767
378,6	474,452
379,1	433,91
379,5	399,11
380	371,91
380,4	336,881
380,9	308,424
381,4	283,681
381,8	260,795
382,3	243,71
382,7	226,452
383,2	208,11
383,6	196,338
384,1	187,224
384,6	176,652
385	164,338
385,5	154,51
385,9	139,481
386,4	124,081
386,8	122,252
387,3	108,995
387,7	101,624
388,2	98,71
388,7	91,338
389,1	88,938
389,6	87,738
390	76,824
390,5	75,195
390,9	74,252
391,4	70,681
391,9	66,024
392,3	62,624
392,8	56,167
393,2	53,167
393,7	48,852
394,1	39,138
394,6	37,938
395,1	34,852
395,5	28,852
396	29,224
396,4	25,91
396,9	24,281
397,3	29,281
397,8	27,538
398,2	29,681
398,7	34,567
399,2	35,024
399,6	33,052
400,1	31,424
400,5	25,138
401	23,424
401,4	19,31
401,9	18,71
402,4	18,224
402,8	17,595
403,3	26,338
403,7	27,081
404,2	28,51
404,6	31,081
405,1	32,51
405,5	32,052
406	39,567
406,5	36,024
406,9	42,738
407,4	39,852
407,8	39,338
408,3	36,595
408,7	40,71
409,2	43,195
409,6	47,367
410,1	48,852
410,6	57,481
411	63,824
411,5	73,11
411,9	76,424
412,4	78,91
412,8	80,338
413,3	83,424
413,7	82,081
414,2	86,938
414,7	90,51
415,1	100,824
415,6	109,167
416	115,452
416,5	123,881
416,9	133,452
417,4	142,395
417,8	156,424
418,3	163,881
418,8	174,795
419,2	186,367
419,7	195,167
420,1	208,167
420,6	216,195
421	219,052
421,5	230,395
421,9	236,995
422,4	245,681
422,8	253,138
423,3	258,967
423,8	268,824
424,2	279,767
424,7	287,31
425,1	300,824
425,6	314,395
426	328,767
426,5	349,624
426,9	369,51
427,4	385,595
427,9	396,481
428,3	416,967
428,8	435,624
429,2	452,938
429,7	468,11
430,1	486,738
430,6	508,881
431	540,281
431,5	563,51
431,9	585,767
432,4	617,824
432,8	648,624
433,3	678,938
433,8	710,538
434,2	743,424
434,7	781,881
435,1	822,424
435,6	857,681
436	898,624
436,5	940,824
436,9	985,852
437,4	1028,995
437,8	1071,11
438,3	1118,881
438,8	1169,738
439,2	1218,481
439,7	1276,995
440,1	1338,51
440,6	1403,31
441	1462,11
441,5	1526,51
441,9	1589,995
442,4	1656,081
442,8	1723,11
443,3	1796,338
443,7	1868,938
444,2	1949,938
444,7	2028,71
445,1	2111,567
445,6	2196,052
446	2276,338
446,5	2351,224
446,9	2435,51
447,4	2521,538
447,8	2614,081
448,3	2712,967
448,7	2811,224
449,2	2916,367
449,6	3029,424
450,1	3133,138
450,6	3243,595
451	3360,281
451,5	3468,424
451,9	3588,91
452,4	3704,481
452,8	3813,538
453,3	3940,824
453,7	4063,424
454,2	4182,081
454,6	4314,081
455,1	4439,367
455,5	4563,481
456	4708,652
456,4	4831,395
456,9	4968,424
457,3	5104,767
457,8	5229,481
458,3	5368,767
458,7	5515,167
459,2	5652,824
459,6	5798,338
460,1	5935,938
460,5	6071,11
461	6222,424
461,4	6361,795
461,9	6500,195
462,3	6639,138
462,8	6784,91
463,2	6930,881
463,7	7079,338
464,1	7234,367
464,6	7382,652
465	7531,081
465,5	7674,624
466	7825,624
466,4	7963,395
466,9	8116,567
467,3	8248,281
467,8	8393,967
468,2	8541,11
468,7	8679,224
469,1	8818,11
469,6	8959,967
470	9091,852
470,5	9232,367
470,9	9361,024
471,4	9484,081
471,8	9616,224
472,3	9751,852
472,7	9890,052
473,2	10010,138
473,6	10126,452
474,1	10252,424
474,5	10384,252
475	10506,881
475,4	10619,767
475,9	10726,138
476,4	10837,195
476,8	10948,052
477,3	11040,938
477,7	11136,138
478,2	11229,738
478,6	11315,281
479,1	11401,195
479,5	11485,538
480	11562,481
480,4	11649,652
480,9	11722,681
481,3	11792,224
481,8	11861,224
482,2	11927,424
482,7	11994,224
483,1	12061,395
483,6	12113,081
484	12158,538
484,5	12211,681
484,9	12247,624
485,4	12284,281
485,8	12302,252
486,3	12325,452
486,7	12347,138
487,2	12371,538
487,6	12387,252
488,1	12404,51
488,5	12408,31
489	12435,024
489,4	12442,452
489,9	12442,938
490,4	12436,567
490,8	12435,624
491,3	12432,91
491,7	12427,795
492,2	12414,967
492,6	12399,024
493,1	12384,71
493,5	12358,281
494	12323,624
494,4	12293,967
494,9	12249,967
495,3	12205,11
495,8	12161,824
496,2	12120,167
496,7	12081,938
497,1	12045,224
497,6	11997,138
498	11960,052
498,5	11921,052
498,9	11873,995
499,4	11821,567
499,8	11764,167
500,3	11698,567
500,7	11631,138
501,2	11571,138
501,6	11502,024
502,1	11436,281
502,5	11368,795
503	11310,424
503,4	11251,481
503,9	11181,11
504,3	11117,824
504,8	11042,138
505,2	10968,738
505,7	10897,652
506,1	10818,595
506,6	10724,51
507	10648,938
507,5	10560,31
507,9	10472,995
508,4	10384,938
508,8	10304,71
509,3	10215,224
509,7	10138,252
510,2	10052,338
510,6	9967,767
511,1	9891,167
511,5	9801,567
512	9697,367
512,4	9612,11
512,9	9528,224
513,3	9447,567
513,8	9354,11
514,2	9254,024
514,7	9170,081
515,1	9088,967
515,6	8996,824
516	8902,195
516,5	8806,795
516,9	8718,824
517,4	8638,167
517,8	8548,081
518,3	8461,224
518,7	8375,167
519,2	8293,167
519,6	8203,681
520,1	8118,224
520,5	8023,224
521	7929,052
521,4	7842,51
521,9	7762,624
522,3	7667,11
522,8	7575,11
523,2	7493,967
523,7	7413,195
524,1	7337,71
524,6	7247,367
525	7162,452
525,5	7077,167
525,9	7005,195
526,4	6916,281
526,8	6834,738
527,3	6759,081
527,7	6689,71
528,2	6613,938
528,6	6540,738
529,1	6469,567
529,5	6399,338
530	6332,424
530,4	6255,51
530,9	6177,967
531,3	6102,367
531,8	6036,138
532,2	5967,624
532,6	5893,995
533,1	5820,881
533,5	5755,252
534	5692,138
534,4	5632,795
534,9	5564,51
535,3	5492,167
535,8	5432,852
536,2	5373,11
536,7	5313,11
537,1	5249,281
537,6	5183,224
538	5131,052
538,5	5079,252
538,9	5019,167
539,4	4957,938
539,8	4896,052
540,3	4841,252
540,7	4787,11
541,2	4727,338
541,6	4668,681
542,1	4621,767
542,5	4576,167
543	4530,91
543,4	4480,995
543,9	4432,024
544,3	4375,31
544,8	4326,795
545,2	4272,71
545,7	4226,681
546,1	4182,138
546,5	4140,424
547	4093,138
547,4	4059,167
547,9	4011,31
548,3	3973,452
548,8	3940,338
549,2	3891,538
549,7	3847,167
550,1	3809,31
550,6	3766,624
551	3731,052
551,5	3686,424
551,9	3642,595
552,4	3607,681
552,8	3574,538
553,3	3532,567
553,7	3496,252
554,2	3468,252
554,6	3440,824
555,1	3402,967
555,5	3370,881
555,9	3334,367
556,4	3298,51
556,8	3265,138
557,3	3230,367
557,7	3195,024
558,2	3160,567
558,6	3134,738
559,1	3105,71
559,5	3082,052
560	3059,167
560,4	3025,538
560,9	2998,567
561,3	2970,881
561,8	2940,881
562,2	2917,91
562,7	2890,11
563,1	2860,51
563,6	2832,738
564	2806,538
564,4	2780,138
564,9	2750,652
565,3	2724,224
565,8	2698,624
566,2	2674,31
566,7	2656,31
567,1	2632,281
567,6	2610,567
568	2593,052
568,5	2565,367
568,9	2544,11
569,4	2524,51
569,8	2500,252
570,3	2477,538
570,7	2455,338
571,1	2430,881
571,6	2410,138
572	2393,51
572,5	2370,567
572,9	2350,395
573,4	2334,995
573,8	2317,71
574,3	2296,881
574,7	2281,938
575,2	2254,167
575,6	2234,51
576,1	2220,167
576,5	2203,195
576,9	2180,681
577,4	2160,938
577,8	2136,795
578,3	2123,881
578,7	2103,338
579,2	2086,395
579,6	2062,11
580,1	2044,31
580,5	2033,538
581	2017,824
581,4	2003,51
581,9	1988,138
582,3	1963,681
582,7	1949,767
583,2	1935,11
583,6	1917,652
584,1	1906,595
584,5	1888,167
585	1874,995
585,4	1860,681
585,9	1847,51
586,3	1833,995
586,8	1819,052
587,2	1804,052
587,6	1799,567
588,1	1790,252
588,5	1774,852
589	1762,538
589,4	1750,624
589,9	1741,624
590,3	1730,11
590,8	1710,31
591,2	1699,024
591,7	1697,367
592,1	1680,11
592,5	1670,567
593	1652,395
593,4	1639,881
593,9	1625,767
594,3	1608,024
594,8	1587,252
595,2	1578,024
595,7	1566,767
596,1	1561,795
596,6	1551,395
597	1541,167
597,4	1536,51
597,9	1528,652
598,3	1523,481
598,8	1513,881
599,2	1498,224
599,7	1490,51
600,1	1482,51
600,6	1470,852
601	1464,824
601,4	1456,481
601,9	1449,195
602,3	1442,167
602,8	1433,91
603,2	1421,138
603,7	1415,252
604,1	1404,767
604,6	1393,138
605	1377,852
605,4	1369,967
605,9	1351,51
606,3	1339,281
606,8	1325,424
607,2	1313,852
607,7	1296,195
608,1	1289,367
608,6	1281,595
609	1281,252
609,4	1284,852
609,9	1277,738
610,3	1273,51
610,8	1273,624
611,2	1265,338
611,7	1253,367
612,1	1239,367
612,6	1228,538
613	1218,367
613,4	1204,795
613,9	1193,167
614,3	1184,338
614,8	1178,938
615,2	1170,681
615,7	1163,852
616,1	1158,738
616,6	1147,395
617	1143,052
617,4	1136,652
617,9	1129,138
618,3	1123,995
618,8	1117,367
619,2	1105,852
619,7	1107,995
620,1	1101,024
620,5	1096,538
621	1086,338
621,4	1079,595
621,9	1067,367
622,3	1064,224
622,8	1049,995
623,2	1042,681
623,6	1032,881
624,1	1027,795
624,5	1024,738
625	1023,567
625,4	1018,138
625,9	1014,395
626,3	1005,252
626,8	996,367
627,2	993,395
627,6	978,052
628,1	963,338
628,5	952,281
629	945,91
629,4	940,967
629,9	935,852
630,3	919,567
630,7	913,481
631,2	914,367
631,6	910,11
632,1	901,452
632,5	890,852
633	887,91
633,4	889,224
633,8	886,91
634,3	878,024
634,7	871,71
635,2	864,11
635,6	864,738
636,1	856,052
636,5	845,824
636,9	837,538
637,4	828,995
637,8	819,024
638,3	813,567
638,7	799,652
639,2	794,224
639,6	791,11
640	787,052
640,5	783,938
640,9	777,595
641,4	775,938
641,8	778,367
642,2	776,395
642,7	776,624
643,1	776,538
643,6	771,195
644	771,481
644,5	768,938
644,9	760,595
645,3	750,138
645,8	738,281
646,2	731,424
646,7	729,71
647,1	719,938
647,6	713,881
648	710,881
648,4	704,795
648,9	705,881
649,3	704,138
649,8	697,881
650,2	696,624
650,6	694,738
651,1	690,195
651,5	692,652
652	684,967
652,4	674,024
652,9	672,938
653,3	669,681
653,7	660,367
654,2	658,624
654,6	650,595
655,1	648,31
655,5	654,881
655,9	647,71
656,4	644,624
656,8	637,31
657,3	632,652
657,7	630,452
658,2	622,881
658,6	606,338
659	600,338
659,5	592,938
659,9	593,824
660,4	585,538
660,8	577,052
661,2	571,795
661,7	574,595
662,1	569,167
662,6	565,424
663	562,338
663,4	558,91
663,9	559,31
664,3	553,767
664,8	544,024
665,2	539,195
665,6	537,452
666,1	534,824
666,5	530,881
667	525,452
667,4	526,91
667,9	527,938
668,3	527,481
668,7	524,31
669,2	522,281
669,6	518,538
670,1	516,395
670,5	510,824
670,9	507,738
671,4	502,881
671,8	498,252
672,3	494,081
672,7	491,852
673,1	484,624
673,6	479,024
674	477,995
674,5	474,024
674,9	470,538
675,3	463,167
675,8	460,767
676,2	460,681
676,7	457,167
677,1	448,567
677,5	445,424
678	440,91
678,4	443,224
678,9	440,51
679,3	433,824
679,7	435,338
680,2	429,795
680,6	429,595
681,1	428,395
681,5	424,538
681,9	421,452
682,4	424,652
682,8	417,681
683,3	422,31
683,7	417,824
684,1	413,681
684,6	404,424
685	404,71
685,5	400,51
685,9	397,11
686,3	385,71
686,8	384,852
687,2	386,081
687,7	386,424
688,1	375,91
688,5	374,195
689	374,767
689,4	375,31
689,9	370,881
690,3	363,652
690,7	363,595
691,2	363,652
691,6	358,367
692	356,767
692,5	357,424
692,9	357,367
693,4	353,538
693,8	347,31
694,2	345,138
694,7	340,51
695,1	336,338
695,6	333,395
696	328,367
696,4	325,681
696,9	320,452
697,3	316,452
697,8	313,51
698,2	308,738
698,6	307,195
699,1	305,995
699,5	308,195
699,9	310,967
700,4	306,052
700,8	308,538
701,3	308,138
701,7	302,195
702,1	298,138
702,6	292,167
703	288,91
703,5	289,624
703,9	282,424
704,3	284,31
704,8	280,252
705,2	277,681
705,6	276,567
706,1	272,795
706,5	271,538
707	274,538
707,4	272,138
707,8	272,281
708,3	270,538
708,7	271,938
709,2	274,395
709,6	272,624
710	273,738
710,5	270,91
710,9	273,252
711,3	273,424
711,8	270,481
712,2	267,71
712,7	266,081
713,1	262,681
713,5	259,538
714	255,995
714,4	250,167
714,8	249,281
715,3	242,481
715,7	241,538
716,2	235,652
716,6	235,824
717	228,224
717,5	227,995
717,9	225,995
718,3	226,167
718,8	224,452
719,2	221,31
719,7	217,338
720,1	220,681
720,5	224,652
721	222,967
721,4	223,938
721,8	226,938
722,3	225,767
722,7	227,367
723,2	220,938
723,6	210,51
724	205,052
724,5	201,51
724,9	193,852
725,3	195,138
725,8	187,938
726,2	188,595
726,7	192,881
727,1	192,138
727,5	190,71
728	186,91
728,4	182,624
728,8	184,624
729,3	182,252
729,7	177,71
730,1	178,424
730,6	179,452
731	181,881
731,5	182,252
731,9	179,11
732,3	182,881
732,8	183,481
733,2	184,795
733,6	180,738
734,1	177,538
734,5	178,052
734,9	178,795
735,4	178,081
735,8	171,91
736,3	169,967
736,7	167,052
737,1	167,767
737,6	162,367
738	161,138
738,4	157,652
738,9	163,652
739,3	163,11
739,7	162,852
740,2	157,738
740,6	159,852
741,1	162,252
741,5	157,881
741,9	156,424
742,4	153,624
742,8	155,767
743,2	159,538
743,7	154,052
744,1	146,71
744,5	148,738
745	146,91
745,4	144,452
745,8	145,567
746,3	143,681
746,7	145,652
747,2	147,31
747,6	148,224
748	152,224
748,5	156,367
748,9	147,424
749,3	145,824
749,8	146,567
750,2	144,024
750,6	137,681
751,1	136,167
751,5	129,91
751,9	136,595
752,4	138,995
752,8	137,452
753,3	136,767
753,7	142,224
754,1	130,91
754,6	129,252
755	125,424
755,4	123,338
755,9	121,767
756,3	119,024
756,7	117,538
757,2	124,167
757,6	124,681
758	121,138
758,5	118,452
758,9	116,51
759,3	118,252
759,8	115,11
760,2	111,567
760,6	110,824
761,1	111,024
761,5	110,624
761,9	111,052
762,4	109,052
762,8	106,71
763,3	105,71
763,7	111,167
764,1	114,424
764,6	117,938
765	121,367
765,4	122,938
765,9	121,652
766,3	124,281
766,7	115,795
767,2	111,367
767,6	110,195
768	107,967
768,5	106,624
768,9	107,31
769,3	104,138
769,8	103,595
770,2	106,11
770,6	99,052
771,1	96,567
771,5	99,281
771,9	105,595
772,4	104,11
772,8	105,024
773,2	102,024
773,7	102,995
774,1	104,91
774,5	96,167
775	91,167
775,4	93,738
775,8	89,624
776,3	92,71
776,7	93,281
777,1	91,51
777,6	96,91
778	99,252
778,4	96,51
778,9	101,338
779,3	100,252
779,7	101,224
780,2	103,967
780,6	101,995
781	97,824
781,5	98,538
781,9	96,024
782,3	92,138
782,8	92,31
783,2	89,195
783,6	92,91
784,1	92,995
784,5	86,881
784,9	83,967
785,4	86,452
785,8	84,881
786,2	86,595
786,7	81,424
787,1	78,11
787,5	80,567
788	81,024
788,4	84,024
788,8	84,224
789,3	77,795
789,7	81,795
790,1	81,967
790,6	83,881
791	83,824
791,4	75,652
791,9	73,081
792,3	69,452
792,7	71,967
793,2	71,51
793,6	68,652
794	69,281
794,5	68,824
794,9	70,624
795,3	73,224
795,8	64,995
796,2	67,424
796,6	68,424
797,1	68,252
797,5	68,652
797,9	64,224
798,4	61,252
798,8	59,938
799,2	58,938
799,7	62,995
800,1	61,052
800,5	61,31
801	65,338
801,4	67,052
801,8	66,595
802,2	62,91
802,7	55,738
803,1	57,767
803,5	57,452
804	52,338
804,4	53,567
804,8	57,167
805,3	59,881
805,7	58,167
806,1	53,652
806,6	54,052
807	54,967
807,4	53,881
807,9	46,852
808,3	45,11
808,7	49,452
809,2	53,967
809,6	55,767
810	53,024
810,4	54,195
810,9	56,51
811,3	59,595
811,7	60,11
812,2	64,167
812,6	61,51
813	71,081
813,5	70,881
813,9	72,31
814,3	66,195
814,8	61,481
815,2	52,938
815,6	52,281
816,1	46,481
816,5	47,481
816,9	46,424
817,3	46,881
817,8	51,195
818,2	53,91
818,6	50,567
819,1	49,424
819,5	45,281
819,9	49,224
820,4	49,795
820,8	46,795
821,2	43,138
821,7	47,995
822,1	50,767
822,5	56,11
822,9	53,967
823,4	54,795
823,8	58,652
824,2	61,967
824,7	58,11
825,1	49,424
825,5	40,31
826	36,852
826,4	36,71
826,8	29,481
827,3	30,51
827,7	26,338
828,1	29,624
828,5	35,481
829	30,567
829,4	29,367
829,8	24,852
830,3	18,224
830,7	22,281
831,1	23,852
831,6	17,852
832	23,852
832,4	19,852
832,8	26,967
833,3	30,424
833,7	29,224
834,1	26,91
834,6	29,138
835	29,881
835,4	32,024
835,8	29,738
836,3	26,624
836,7	28,424
837,1	31,138
837,6	31,595
838	27,51
838,4	29,852
838,9	31,538
839,3	33,852
839,7	32,31
840,1	25,367
840,6	25,424
841	31,481
841,4	31,91
841,9	31,452
842,3	31,081
842,7	32,138
843,1	35,938
843,6	38,795
844	32,424
844,4	32,938
844,9	34,167
845,3	32,51
845,7	32,452
846,2	29,91
846,6	26,481
847	29,081
847,4	28,138
847,9	28,252
848,3	28,424
848,7	30,395
849,2	33,767
849,6	32,852
850	34,824
850,4	28,795
850,9	27,738
851,3	28,71
851,7	27,51
852,2	29,395
852,6	33,224
853	29,195
853,4	32,024
853,9	27,681
854,3	26,224
854,7	25,567
855,2	21,567
855,6	20,767
856	18,995
856,4	17,138
856,9	16,738
857,3	17,681
857,7	17,881
858,2	22,995
858,6	20,795
859	23,71
859,4	24,452
859,9	25,224
860,3	22,11
860,7	16,824
861,1	10,51
861,6	8,767
862	11,567
862,4	13,395
862,9	16,024
863,3	18,824
863,7	22,738
864,1	25,395
864,6	27,51
865	25,91
865,4	26,51
865,9	27,452
866,3	25,795
866,7	21,252
867,1	15,824
867,6	16,738
868	15,824
868,4	10,052
868,8	10,481
869,3	10,452
869,7	18,081
870,1	20,138
870,6	16,138
871	14,795
871,4	19,995
871,8	15,938
872,3	16,71
872,7	13,224
873,1	11,224
873,5	14,195
874	12,452
874,4	13,395
874,8	12,995
875,3	13,167
875,7	11,395
876,1	13,167
876,5	10,31
877	8,738
877,4	4,881
877,8	8,281
878,2	14,195
878,7	16,852
879,1	20,567
879,5	24,024
879,9	27,71
880,4	27,71
880,8	26,367
881,2	22,51
881,7	20,881
882,1	21,738
882,5	20,052
882,9	15,195
883,4	14,652
883,8	13,081
884,2	12,052
884,6	10,252
885,1	8,195
885,5	7,938
885,9	13,11
886,3	16,738
886,8	14,538
887,2	14,395
887,6	17,538
888	17,167
888,5	14,681
888,9	9,195
889,3	4,595
889,8	5,052
890,2	5,052
890,6	-1,033
891	-1,719
891,5	2,824
891,9	5,138
892,3	11,081
892,7	15,052
893,2	11,224
893,6	14,567
894	19,224
894,4	15,052
894,9	17,395
895,3	11,452
895,7	11,652
896,1	17,795
896,6	19,424
897	16,11
897,4	22,681
897,8	21,995
898,3	23,367
898,7	22,367
899,1	19,167
899,5	15,224
900	9,452
900,4	2,538
900,8	3,195
901,2	-0,29
901,7	-1,833
902,1	-2,548
902,5	1,167
902,9	3,338
903,4	5,538
903,8	5,681
904,2	8,767
904,6	7,624
905,1	6,081
905,5	7,138
905,9	9,567
906,3	10,767
906,8	9,538
907,2	11,252
907,6	12,081
908	14,71
908,5	10,138
908,9	8,795
909,3	3,338
909,7	3,424
910,2	2,052
910,6	4,338
911	0,252
911,4	4,081
911,9	1,91
912,3	7,395
912,7	11,567
913,1	10,395
913,6	7,852
914	8,281
914,4	7,224
914,8	9,481
915,3	5,567
915,7	3,252
916,1	4,138
916,5	6,138
916,9	10,138
917,4	6,938
917,8	5,624
918,2	4,652
918,6	-1,976
919,1	-5,176
919,5	-3,205
919,9	-4,29
920,3	-2,69
920,8	-3,233
921,2	-4,433
921,6	0,31
922	4,967
922,5	-1,662
922,9	0,167
923,3	-0,976
923,7	-0,49
924,2	0,367
924,6	-1,633
925	-1,462
925,4	0,481
925,8	-5,205
926,3	-4,833
926,7	-5,119
927,1	-0,748
927,5	0,995
928	-2,119
928,4	-1,862
928,8	4,824
929,2	3,367
929,7	5,938
930,1	7,195
930,5	7,081
930,9	14,024
931,3	13,681
931,8	11,652
932,2	14,481
932,6	13,367
933	6,195
933,5	5,395
933,9	1,567
934,3	3,938
934,7	1,938
935,2	5,567
935,6	10,138
936	9,795
936,4	13,595
936,8	14,367
937,3	15,281
937,7	16,395
938,1	13,195
938,5	2,738
939	7,167
939,4	4,11
939,8	3,281
940,2	-0,376
940,6	4,91
941,1	1,795
941,5	9,395
941,9	7,167
942,3	5,852
942,8	7,338
943,2	10,252
943,6	3,338
944	7,995
944,4	5,395
944,9	9,052
945,3	9,51
945,7	3,481
946,1	-2,062
946,6	-2,348
947	-2,862
947,4	2,024
947,8	0,481
948,2	0,51
948,7	4,738
949,1	7,91
949,5	9,224
949,9	8,652
950,3	5,538
950,8	5,195
951,2	1,824
951,6	-2,033
952	2,824
952,5	-0,176
952,9	-2,462
953,3	-3,805
953,7	-5,748
954,1	0,31
954,6	3,195
955	-2,69
955,4	-3,033
955,8	-0,29
956,2	4,452
956,7	8,967
957,1	4,424
957,5	5,767
957,9	9,052
958,3	10,395
958,8	10,51
959,2	9,224
959,6	11,224
960	10,71
960,5	11,91
960,9	13,452
961,3	13,31
961,7	8,881
962,1	5,31
962,6	2,424
963	4,138
963,4	-0,233
963,8	-4,376
964,2	-2,033
964,7	3,11
965,1	5,338
965,5	3,71
965,9	2,824
966,3	6,452
966,8	6,567
967,2	6,538
967,6	6,624
968	-1,633
968,4	-0,433
968,9	-1,09
969,3	-2,376
969,7	-1,433
970,1	-3,205
970,5	-7,319
971	1,738
971,4	-1,233
971,8	1,395
972,2	3,652
972,6	3,195
973,1	3,452
973,5	4,624
973,9	2,71
974,3	3,91
974,7	5,51
975,2	3,281
975,6	2,024
976	6,167
976,4	4,224
976,8	3,081
977,3	3,224
977,7	-0,062
978,1	1,738
978,5	-2,119
978,9	-6,633
979,4	-7,605
979,8	-6,262
980,2	-5,69
980,6	-6,89
981	-10,433
981,5	-7,405
981,9	-7,576
982,3	-3,29
982,7	-1,605
983,1	-5,005
983,6	-3,805
984	-1,89
984,4	1,824
984,8	2,71
985,2	2,281
985,6	-2,519
986,1	3,395
986,5	3,91
986,9	0,452
987,3	3,967
987,7	4,91
988,2	3,138
988,6	6,424
989	3,395
989,4	-0,205
989,8	1,081
990,3	-3,29
990,7	-3,719
991,1	-1,805
991,5	-3,49
991,9	-2,176
992,3	2,652
992,8	4,767
993,2	5,195
993,6	4,281
994	2,938
994,4	5,081
994,9	7,224
995,3	8,395
995,7	5,681
996,1	5,195
996,5	9,024
996,9	8,938
997,4	11,681
997,8	4,938
998,2	2,424
998,6	-5,548
999	-6,976
999,5	-9,09
999,9	-6,176
1000,3	-8,833
1000,7	-5,862
1001,1	-4,205
1001,5	6,395
1002	11,367
1002,4	14,252
1002,8	10,338
1003,2	11,11
1003,6	12,424
1004	13,967
1004,5	8,681
1004,9	6,452
1005,3	-2,748
1005,7	-0,69
1006,1	-3,262
1006,6	-6,49
1007	-11,748
1007,4	-8,948
1007,8	-11,005
1008,2	-8,319
1008,6	-6,433
1009,1	-4,262
1009,5	-5,033
1009,9	1,052
1010,3	4,852
1010,7	3,252
1011,1	7,624
1011,6	1,71
1012	2,052
1012,4	2,652
1012,8	0,195
1013,2	-0,033
1013,6	1,652
1014,1	-2,719
1014,5	1,824
1014,9	-0,205
1015,3	-2,519
1015,7	-2,376
1016,1	-8,09
1016,6	-7,862
1017	-7,233
1017,4	-6,89
1017,8	-6,519
1018,2	1,138
1018,6	-2,519
1019,1	4,767
1019,5	8,367
1019,9	4,452
1020,3	3,195
1020,7	3,538
1021,1	1,595
1021,6	2,881
1022	3,052
1022,4	0,481
1022,8	4,081
1023,2	2,795
1023,6	0,281
1024,1	3,395
1024,5	8,052
1024,9	1,081
1025,3	0,195
1025,7	1,395
1026,1	2,91
1026,6	5,052
1027	2,881
1027,4	-0,833
1027,8	-2,548
1028,2	-7,376
1028,6	-4,033
1029	-7,948
1029,5	-4,233
1029,9	-5,948
1030,3	-9,29
1030,7	-5,205
1031,1	1,795
1031,5	-8,062
1032	-5,833
1032,4	-11,919
1032,8	-9,09
1033,2	-7,205
1033,6	-6,033
1034	-8,49
1034,4	-3,262
1034,9	-0,062
1035,3	-0,033
1035,7	-1,519
1036,1	-4,662
1036,5	-4,662
1036,9	-3,176
1037,4	3,024
1037,8	-5,09
1038,2	-5,805
1038,6	-6,976
1039	-2,576
1039,4	-0,633
1039,8	-9,033
1040,3	-12,176
1040,7	-9,89
1041,1	-4,662
1041,5	-5,748
1041,9	-4,176
1042,3	-5,69
1042,7	2,852
1043,2	1,51
1043,6	2,795
1044	-1,576
1044,4	-0,862
1044,8	-2,49
1045,2	-0,776
1045,6	0,167
1046,1	-2,548
1046,5	-2,005
1046,9	-3,919
1047,3	-4,976
1047,7	-5,69
1048,1	-7,919
1048,5	-9,433
1049	-3,233
1049,4	2,881
1049,8	5,795
1050,2	11,224
1050,6	16,881
1051	17,138
1051,4	16,91
1051,9	13,367
1052,3	11,11
1052,7	12,681
1053,1	6,481
1053,5	5,081
1053,9	3,11
1054,3	3,91
1054,8	8,452
1055,2	5,938
1055,6	8,452
1056	9,567
1056,4	4,081
1056,8	8,767
1057,2	1,252
1057,6	-3,69
1058,1	-2,576
1058,5	-8,919
1058,9	-6,205
1059,3	-4,919
1059,7	-6,948
1060,1	1,024
1060,5	-0,776
1061	0,538
1061,4	4,71
1061,8	4,795
1062,2	4,852
1062,6	6,052
1063	7,452
1063,4	5,824
1063,8	3,995
1064,3	-2,262
1064,7	-0,119
1065,1	1,51
1065,5	-6,433
1065,9	-12,205
1066,3	-8,833
1066,7	-11,633
1067,1	-10,548
1067,6	-12,033
1068	-14,548
1068,4	-7,805
1068,8	-3,119
1069,2	-2,862
1069,6	0,595
1070	7,881
1070,4	7,11
1070,9	3,881
1071,3	1,081
1071,7	-4,119
1072,1	-5,09
1072,5	-7,319
1072,9	-10,833
1073,3	-11,519
1073,7	-8,005
1074,2	-5,29
1074,6	-1,29
1075	0,167
1075,4	3,424
1075,8	3,024
1076,2	4,595
1076,6	9,024
1077	8,481
1077,5	11,138
1077,9	7,367
1078,3	3,767
1078,7	6,452
1079,1	4,91
1079,5	-0,405
1079,9	1,424
1080,3	-3,205
1080,7	-0,462
1081,2	0,252
1081,6	-2,948
1082	-2,519
1082,4	3,167
1082,8	3,538
1083,2	5,252
1083,6	6,852
1084	9,995
1084,5	13,224
1084,9	8,967
1085,3	2,138
1085,7	2,281
1086,1	-0,462
1086,5	-2,348
1086,9	-1,119
1087,3	-0,576
1087,7	0,167
1088,2	2,767
1088,6	3,138
1089	8,252
1089,4	10,681
1089,8	12,481
1090,2	9,91
1090,6	10,852
1091	14,767
1091,4	9,052
1091,9	5,91
1092,3	8,567
1092,7	4,281
1093,1	9,195
1093,5	10,795
1093,9	8,938
1094,3	14,91
1094,7	10,91
1095,1	7,91
1095,5	7,395
1096	0,795
1096,4	-1,348
1096,8	-3,776
1097,2	-5,148
1097,6	3,995
1098	2,052
1098,4	2,767
1098,8	4,367
1099,2	10,91
1099,6	10,938
1100,1	7,652
1100,5	-2,119
1100,9	-3,462
1101,3	-2,576
1101,7	-2,633
1102,1	-6,862
1102,5	-2,89
1102,9	-0,919
1103,3	6,995
1103,7	10,11
1104,2	8,367
1104,6	10,052
1105	6,852
1105,4	5,795
1105,8	4,624
1106,2	1,224
1106,6	0,652
1107	0,881
1107,4	-1,033
1107,8	2,287
1108,3	-0,083
