Data from Subt2_300.txt Node
Date: Sat Aug 26 19:12:18 MSK 2023
User: vat
Spectrometer: MAYP114033
Trigger mode: 0
Integration Time (sec): 1,000000E0
Scans to average: 5
Electric dark correction enabled: true
Nonlinearity correction enabled: false
Boxcar width: 3
XAxis mode: Wavelengths
Number of Pixels in Spectrum: 2068
>>>>>Begin Spectral Data<<<<<
199,4	-1,217
199,9	1,013
200,4	-1,2
200,8	3,248
201,3	3,333
201,8	2,962
202,2	3,819
202,7	6,905
203,2	5,619
203,6	7,019
204,1	-0,267
204,6	-1,495
205	1,676
205,5	2,248
206	2,248
206,4	3,733
206,9	5,048
207,4	10,305
207,8	10,248
208,3	11,133
208,8	9,533
209,2	8,962
209,7	9,705
210,2	9,505
210,6	10,076
211,1	12,99
211,5	10,048
212	14,133
212,5	10,99
212,9	5,733
213,4	7,848
213,9	5,933
214,3	8,419
214,8	10,59
215,3	7,333
215,7	13,276
216,2	17,048
216,7	14,848
217,1	15,705
217,6	13,79
218,1	11,105
218,5	8,39
219	0,876
219,5	5,419
219,9	-0,067
220,4	2,562
220,9	0,076
221,3	-1,152
221,8	0,648
222,3	2,933
222,7	0,876
223,2	5,848
223,6	-1,038
224,1	-1,324
224,6	1,79
225	0,333
225,5	0,705
226	-1,067
226,4	0,905
226,9	4,133
227,4	5,762
227,8	0,048
228,3	1,476
228,8	0,219
229,2	-0,467
229,7	-0,095
230,2	1,19
230,6	2,59
231,1	9,476
231,5	8,476
232	12,362
232,5	14,819
232,9	15,076
233,4	14,876
233,9	15,276
234,3	18,505
234,8	23,105
235,3	22,105
235,7	22,048
236,2	21,705
236,7	21,79
237,1	21,848
237,6	14,076
238,1	10,59
238,5	4,39
239	2,105
239,4	4,219
239,9	1,933
240,4	-1,067
240,8	3,476
241,3	2,362
241,8	9,133
242,2	6,79
242,7	4,248
243,2	6,019
243,6	8,705
244,1	11,905
244,6	16,133
245	14,362
245,5	19,619
245,9	17,505
246,4	15,505
246,9	14,333
247,3	12,705
247,8	13,476
248,3	17,219
248,7	16,848
249,2	19,219
249,7	16,105
250,1	19,533
250,6	16,59
251	17,048
251,5	11,762
252	6,905
252,4	8,819
252,9	14,676
253,4	3,619
253,8	2,162
254,3	0,99
254,8	3,876
255,2	2,705
255,7	-0,952
256,1	-1,324
256,6	7,99
257,1	13,933
257,5	9,19
258	6,905
258,5	8,362
258,9	10,048
259,4	10,39
259,9	12,448
260,3	3,962
260,8	5,876
261,2	8,048
261,7	10,848
262,2	10,933
262,6	10,248
263,1	8,133
263,6	12,505
264	16,276
264,5	17,848
264,9	15,333
265,4	14,133
265,9	14,048
266,3	18,476
266,8	18,076
267,3	13,762
267,7	7,819
268,2	7,333
268,7	8,076
269,1	7,848
269,6	-0,352
270	2,276
270,5	2,248
271	7,505
271,4	10,59
271,9	7,733
272,4	11,305
272,8	12,476
273,3	7,048
273,7	7,362
274,2	4,562
274,7	3,39
275,1	4,733
275,6	1,162
276,1	-1,838
276,5	3,905
277	7,019
277,4	9,848
277,9	12,962
278,4	15,276
278,8	18,79
279,3	22,39
279,8	24,362
280,2	24,705
280,7	25,99
281,1	21,962
281,6	19,419
282,1	16,533
282,5	17,79
283	11,219
283,4	8,162
283,9	6,99
284,4	11,562
284,8	14,105
285,3	13,99
285,8	12,19
286,2	10,905
286,7	12,819
287,1	8,648
287,6	7,076
288,1	-1,324
288,5	0,276
289	-1,81
289,5	1,733
289,9	-3,152
290,4	0,048
290,8	-0,495
291,3	7,933
291,8	8,733
292,2	11,419
292,7	16,219
293,1	17,619
293,6	20,305
294,1	19,305
294,5	16,79
295	15,076
295,5	12,933
295,9	12,19
296,4	13,133
296,8	11,362
297,3	13,962
297,8	7,562
298,2	3,505
298,7	5,648
299,1	0,505
299,6	-0,238
300,1	-3,124
300,5	-5,152
301	1,848
301,5	6,819
301,9	8,048
302,4	8,39
302,8	8,419
303,3	9,648
303,8	8,105
304,2	9,733
304,7	8,248
305,1	2,419
305,6	2,933
306,1	8,905
306,5	9,533
307	10,448
307,4	8,219
307,9	10,362
308,4	11,79
308,8	6,676
309,3	4,762
309,8	4,962
310,2	6,362
310,7	5,162
311,1	4,476
311,6	10,133
312,1	16,79
312,5	15,819
313	14,133
313,4	11,848
313,9	11,848
314,4	9,305
314,8	2,333
315,3	2,762
315,7	-2,295
316,2	-1,552
316,7	-1,667
317,1	4,476
317,6	7,105
318	13,248
318,5	9,533
319	13,648
319,4	15,676
319,9	22,076
320,3	19,876
320,8	17,362
321,3	20,905
321,7	24,533
322,2	24,248
322,6	23,019
323,1	18,133
323,6	13,133
324	10,276
324,5	2,448
324,9	4,733
325,4	3,305
325,9	2,476
326,3	3,819
326,8	7,562
327,2	4,505
327,7	6,19
328,2	1,105
328,6	5,162
329,1	-0,352
329,5	0,333
330	0,562
330,5	8,619
330,9	11,933
331,4	13,533
331,8	13,505
332,3	22,533
332,8	23,79
333,2	24,79
333,7	25,619
334,1	25,419
334,6	21,676
335,1	14,962
335,5	12,705
336	6,59
336,4	4,105
336,9	6,905
337,4	9,048
337,8	12,819
338,3	15,19
338,7	18,105
339,2	20,562
339,7	26,048
340,1	20,048
340,6	16,79
341	13,562
341,5	12,562
342	5,905
342,4	5,59
342,9	1,39
343,3	2,019
343,8	-1,01
344,2	2,19
344,7	12,219
345,2	14,619
345,6	15,39
346,1	19,762
346,5	16,248
347	17,333
347,5	14,819
347,9	11,876
348,4	11,19
348,8	12,705
349,3	8,133
349,8	13,219
350,2	21,705
350,7	19,733
351,1	14,133
351,6	18,305
352	19,79
352,5	27,362
353	38,619
353,4	38,933
353,9	51,505
354,3	64,819
354,8	69,79
355,3	86,105
355,7	100,79
356,2	115,648
356,6	133,733
357,1	159,59
357,5	188,219
358	227,162
358,5	258,19
358,9	296,448
359,4	338,533
359,8	391,162
360,3	445,133
360,8	501,533
361,2	565,59
361,7	642,333
362,1	728,79
362,6	816,305
363	915,019
363,5	1020,619
364	1137,619
364,4	1250,133
364,9	1362,648
365,3	1471,876
365,8	1574,762
366,3	1669,819
366,7	1755,448
367,2	1828,333
367,6	1890,848
368,1	1940,905
368,5	1970,648
369	1983,962
369,5	1986,848
369,9	1971,962
370,4	1940,276
370,8	1893,819
371,3	1834,048
371,7	1766,762
372,2	1699,676
372,7	1618,305
373,1	1532,59
373,6	1442,39
374	1359,076
374,5	1268,219
374,9	1180,048
375,4	1093,219
375,9	1012,19
376,3	933,305
376,8	858,562
377,2	789,505
377,7	726,848
378,2	670,105
378,6	617,848
379,1	567,476
379,5	523,448
380	489,362
380,4	451,819
380,9	416,962
381,4	378,362
381,8	350,162
382,3	326,648
382,7	303,19
383,2	284,219
383,6	264,048
384,1	249,99
384,6	239,076
385	221,876
385,5	203,762
385,9	192,962
386,4	177,076
386,8	165,933
387,3	150,762
387,7	144,162
388,2	137,905
388,7	133,505
389,1	125,076
389,6	116,076
390	109,762
390,5	107,819
390,9	101,905
391,4	96,362
391,9	88,505
392,3	88,333
392,8	86,362
393,2	81,733
393,7	79,419
394,1	73,505
394,6	69,648
395,1	68,476
395,5	59,59
396	59,962
396,4	56,419
396,9	51,448
397,3	55,819
397,8	57,59
398,2	57,448
398,7	61,419
399,2	54,076
399,6	58,962
400,1	59,276
400,5	53,19
401	45,733
401,4	41,219
401,9	42,133
402,4	44,276
402,8	40,648
403,3	40,076
403,7	35,219
404,2	38,305
404,6	42,762
405,1	37,048
405,5	35,762
406	34,248
406,5	35,276
406,9	43,362
407,4	44,59
407,8	42,076
408,3	45,79
408,7	45,39
409,2	47,019
409,6	50,819
410,1	50,705
410,6	54,733
411	58,019
411,5	56,762
411,9	61,276
412,4	64,162
412,8	63,162
413,3	64,219
413,7	65,305
414,2	62,562
414,7	66,762
415,1	73,505
415,6	78,019
416	83,676
416,5	85,219
416,9	88,048
417,4	95,876
417,8	101,019
418,3	99,362
418,8	100,619
419,2	99,019
419,7	100,448
420,1	98,905
420,6	99,076
421	92,933
421,5	96,019
421,9	94,79
422,4	99,562
422,8	102,076
423,3	101,505
423,8	99,362
424,2	100,562
424,7	94,133
425,1	93,39
425,6	92,962
426	91,533
426,5	95,648
426,9	96,019
427,4	97,076
427,9	96,248
428,3	101,619
428,8	99,819
429,2	100,876
429,7	96,876
430,1	100,819
430,6	102,676
431	103,79
431,5	102,933
431,9	100,819
432,4	100,39
432,8	109,39
433,3	106,819
433,8	104,105
434,2	111,848
434,7	114,619
435,1	119,762
435,6	124,276
436	124,505
436,5	133,362
436,9	139,019
437,4	140,762
437,8	144,248
438,3	148,848
438,8	150,076
439,2	152,448
439,7	155,79
440,1	162,476
440,6	171,505
441	169,933
441,5	174,219
441,9	183,019
442,4	186,019
442,8	190,19
443,3	196,79
443,7	201,248
444,2	216,705
444,7	227,99
445,1	238,019
445,6	248,648
446	259,562
446,5	266,705
446,9	273,39
447,4	281,676
447,8	293,476
448,3	306,219
448,7	317,848
449,2	330,99
449,6	347,648
450,1	360,019
450,6	378,848
451	389,219
451,5	401,333
451,9	419,219
452,4	433,448
452,8	448,133
453,3	468,933
453,7	476,476
454,2	496,79
454,6	510,676
455,1	527,933
455,5	543,99
456	568,076
456,4	580,19
456,9	602,219
457,3	615,819
457,8	629,39
458,3	650,933
458,7	669,619
459,2	681,876
459,6	704,905
460,1	730,848
460,5	750,276
461	783,648
461,4	799,676
461,9	819,59
462,3	847,848
462,8	875,048
463,2	891,333
463,7	918,419
464,1	944,505
464,6	974,99
465	1006,305
465,5	1029,905
466	1053,905
466,4	1081,99
466,9	1115,219
467,3	1136,762
467,8	1165,59
468,2	1192,305
468,7	1222,619
469,1	1252,162
469,6	1281,219
470	1305,848
470,5	1337,276
470,9	1358,019
471,4	1382,276
471,8	1401,905
472,3	1428,79
472,7	1456,39
473,2	1480,276
473,6	1502,733
474,1	1537,562
474,5	1571,019
475	1603,733
475,4	1633,505
475,9	1661,276
476,4	1689,933
476,8	1724,705
477,3	1748,219
477,7	1778,305
478,2	1806,448
478,6	1827,39
479,1	1848,476
479,5	1875,419
480	1893,562
480,4	1916,362
480,9	1935,276
481,3	1951,648
481,8	1977,276
482,2	2001,133
482,7	2021,876
483,1	2047,59
483,6	2066,933
484	2081,219
484,5	2110,133
484,9	2125,648
485,4	2151,819
485,8	2172,133
486,3	2189,219
486,7	2213,105
487,2	2236,762
487,6	2250,39
488,1	2274,076
488,5	2283,819
489	2298,733
489,4	2314,048
489,9	2318,848
490,4	2335,076
490,8	2347,133
491,3	2358,79
491,7	2369,076
492,2	2383,79
492,6	2390,905
493,1	2408,219
493,5	2408,619
494	2413,59
494,4	2421,362
494,9	2428,476
495,3	2430,362
495,8	2439,533
496,2	2446,619
496,7	2456,19
497,1	2467,79
497,6	2471,676
498	2477,505
498,5	2488,019
498,9	2491,876
499,4	2493,562
499,8	2506,648
500,3	2505,019
500,7	2511,276
501,2	2517,133
501,6	2509,905
502,1	2517,162
502,5	2522,876
503	2517,99
503,4	2525,533
503,9	2519,648
504,3	2521,305
504,8	2529,562
505,2	2522,219
505,7	2520,762
506,1	2524,105
506,6	2524,133
507	2526,876
507,5	2524,705
507,9	2523,819
508,4	2531,505
508,8	2531,848
509,3	2526,676
509,7	2524,962
510,2	2523,905
510,6	2524,705
511,1	2520,305
511,5	2518,619
512	2513,133
512,4	2513,676
512,9	2510,019
513,3	2511,905
513,8	2506,162
514,2	2507,362
514,7	2502,733
515,1	2505,048
515,6	2499,619
516	2495,448
516,5	2498,533
516,9	2495,648
517,4	2498,248
517,8	2498,19
518,3	2495,419
518,7	2500,19
519,2	2502,533
519,6	2494,019
520,1	2500,019
520,5	2499,048
521	2489,819
521,4	2494,333
521,9	2492,248
522,3	2489,705
522,8	2494,162
523,2	2490,79
523,7	2485,476
524,1	2493,105
524,6	2486,162
525	2483,848
525,5	2483,562
525,9	2475,876
526,4	2475,99
526,8	2469,962
527,3	2470,933
527,7	2475,019
528,2	2474,419
528,6	2471,99
529,1	2479,048
529,5	2478,248
530	2482,962
530,4	2477,59
530,9	2481,619
531,3	2491,162
531,8	2496,533
532,2	2493,962
532,6	2492,305
533,1	2491,876
533,5	2498,762
534	2488,648
534,4	2481,162
534,9	2479,248
535,3	2481,99
535,8	2487,819
536,2	2496,619
536,7	2495,59
537,1	2502,676
537,6	2510,276
538	2516,59
538,5	2515,562
538,9	2514,59
539,4	2514,133
539,8	2514,562
540,3	2522,705
540,7	2522,133
541,2	2523,419
541,6	2528,39
542,1	2532,39
542,5	2532,733
543	2539,305
543,4	2531,133
543,9	2532,59
544,3	2535,076
544,8	2537,676
545,2	2538,505
545,7	2546,276
546,1	2547,076
546,5	2561,019
547	2563,362
547,4	2568,762
547,9	2567,705
548,3	2574,79
548,8	2578,762
549,2	2579,933
549,7	2579,962
550,1	2587,019
550,6	2585,562
551	2592,362
551,5	2590,448
551,9	2587,533
552,4	2600,448
552,8	2602,476
553,3	2593,79
553,7	2596,162
554,2	2602,276
554,6	2614,305
555,1	2618,762
555,5	2608,448
555,9	2610,762
556,4	2622,019
556,8	2626,505
557,3	2630,819
557,7	2631,162
558,2	2633,99
558,6	2645,676
559,1	2649,419
559,5	2646,362
560	2650,19
560,4	2648,276
560,9	2647,648
561,3	2647,562
561,8	2643,419
562,2	2644,219
562,7	2650,79
563,1	2654,676
563,6	2656,333
564	2655,905
564,4	2661,705
564,9	2666,048
565,3	2668,79
565,8	2665,99
566,2	2666,705
566,7	2669,162
567,1	2678,305
567,6	2676,248
568	2674,962
568,5	2672,848
568,9	2671,133
569,4	2677,562
569,8	2680,105
570,3	2673,59
570,7	2674,533
571,1	2675,79
571,6	2678,905
572	2691,362
572,5	2681,676
572,9	2680,505
573,4	2681,79
573,8	2686,219
574,3	2683,219
574,7	2678,162
575,2	2668,99
575,6	2671,448
576,1	2669,448
576,5	2674,419
576,9	2669,419
577,4	2665,048
577,8	2663,962
578,3	2667,648
578,7	2662,876
579,2	2664,905
579,6	2653,962
580,1	2646,933
580,5	2650,848
581	2651,505
581,4	2643,048
581,9	2638,19
582,3	2626,362
582,7	2629,619
583,2	2629,848
583,6	2623,19
584,1	2623,105
584,5	2619,648
585	2621,248
585,4	2614,59
585,9	2602,848
586,3	2604,79
586,8	2607,533
587,2	2599,219
587,6	2598,79
588,1	2598,79
588,5	2597,705
589	2598,79
589,4	2587,619
589,9	2580,362
590,3	2575,533
590,8	2569,133
591,2	2563,419
591,7	2563,905
592,1	2564,019
592,5	2565,19
593	2561,562
593,4	2557,933
593,9	2555,79
594,3	2550,048
594,8	2543,533
595,2	2532,19
595,7	2521,676
596,1	2515,162
596,6	2510,362
597	2504,79
597,4	2506,876
597,9	2504,876
598,3	2503,419
598,8	2501,019
599,2	2493,648
599,7	2487,848
600,1	2481,705
600,6	2468,19
601	2457,876
601,4	2466,448
601,9	2463,476
602,3	2458,733
602,8	2452,59
603,2	2447,19
603,7	2443,905
604,1	2446,105
604,6	2426,99
605	2421,162
605,4	2418,676
605,9	2412,79
606,3	2404,305
606,8	2396,219
607,2	2378,162
607,7	2370,848
608,1	2360,676
608,6	2355,333
609	2353,648
609,4	2351,876
609,9	2348,762
610,3	2348,19
610,8	2342,448
611,2	2336,162
611,7	2324,219
612,1	2312,905
612,6	2307,99
613	2300,962
613,4	2291,933
613,9	2284,219
614,3	2277,505
614,8	2272,905
615,2	2261,819
615,7	2253,076
616,1	2240,962
616,6	2231,39
617	2221,562
617,4	2216,276
617,9	2215,162
618,3	2211,39
618,8	2205,362
619,2	2193,39
619,7	2192,19
620,1	2184,533
620,5	2175,276
621	2152,248
621,4	2143,59
621,9	2131,19
622,3	2128,705
622,8	2113,705
623,2	2101,133
623,6	2088,562
624,1	2089,905
624,5	2079,39
625	2075,733
625,4	2064,59
625,9	2057,133
626,3	2050,876
626,8	2042,676
627,2	2037,819
627,6	2023,19
628,1	2010,819
628,5	2002,39
629	1991,19
629,4	1982,876
629,9	1978,248
630,3	1960,19
630,7	1960,676
631,2	1951,019
631,6	1941,676
632,1	1937,048
632,5	1929,762
633	1919,876
633,4	1915,219
633,8	1899,79
634,3	1887,905
634,7	1872,848
635,2	1859,505
635,6	1850,019
636,1	1838,19
636,5	1818,962
636,9	1812,79
637,4	1807,048
637,8	1798,619
638,3	1791,219
638,7	1777,076
639,2	1762,762
639,6	1765,505
640	1756,59
640,5	1747,448
640,9	1747,648
641,4	1742,848
641,8	1739,019
642,2	1738,848
642,7	1729,905
643,1	1727,79
643,6	1715,819
644	1706,905
644,5	1696,819
644,9	1689,105
645,3	1673,99
645,8	1660,219
646,2	1651,505
646,7	1644,448
647,1	1633,076
647,6	1624,733
648	1619,762
648,4	1615,676
648,9	1611,162
649,3	1596,819
649,8	1592,876
650,2	1586,505
650,6	1586,162
651,1	1574,133
651,5	1570,99
652	1563,076
652,4	1558,305
652,9	1550,562
653,3	1539,733
653,7	1524,219
654,2	1517,219
654,6	1503,762
655,1	1495,448
655,5	1492,59
655,9	1479,962
656,4	1477,162
656,8	1471,133
657,3	1466,276
657,7	1459,962
658,2	1452,362
658,6	1437,676
659	1433,39
659,5	1420,19
659,9	1409,076
660,4	1403,648
660,8	1390,962
661,2	1382,162
661,7	1375,362
662,1	1366,676
662,6	1360,105
663	1354,905
663,4	1340,362
663,9	1339,648
664,3	1333,848
664,8	1320,39
665,2	1310,562
665,6	1300,505
666,1	1291,99
666,5	1285,448
667	1271,819
667,4	1261,933
667,9	1260,562
668,3	1252,848
668,7	1245,733
669,2	1247,133
669,6	1240,076
670,1	1239,476
670,5	1232,476
670,9	1220,133
671,4	1209,933
671,8	1206,476
672,3	1197,048
672,7	1190,933
673,1	1176,219
673,6	1171,79
674	1170,219
674,5	1167,533
674,9	1155,276
675,3	1139,705
675,8	1136,562
676,2	1133,305
676,7	1122,876
677,1	1116,79
677,5	1107,79
678	1105,648
678,4	1104,59
678,9	1090,39
679,3	1086,905
679,7	1081,019
680,2	1066,533
680,6	1056,448
681,1	1049,162
681,5	1043,419
681,9	1041,733
682,4	1035,019
682,8	1028,962
683,3	1032,819
683,7	1033,219
684,1	1028,39
684,6	1017,819
685	1011,448
685,5	1001,333
685,9	993,162
686,3	978,162
686,8	973,533
687,2	966,733
687,7	963,962
688,1	949,533
688,5	950,019
689	946,19
689,4	943,448
689,9	936,39
690,3	926,705
690,7	919,276
691,2	921,99
691,6	912,705
692	906,962
692,5	905,648
692,9	899,733
693,4	897,79
693,8	894,076
694,2	886,19
694,7	879,248
695,1	877,162
695,6	872,533
696	869,419
696,4	861,248
696,9	850,048
697,3	840,819
697,8	833,105
698,2	823,162
698,6	813,39
699,1	806,59
699,5	802,819
699,9	798,533
700,4	794,962
700,8	795,219
701,3	790,819
701,7	784,39
702,1	774,105
702,6	768,476
703	769,448
703,5	765,219
703,9	756,162
704,3	752,019
704,8	745,105
705,2	743,248
705,6	742,276
706,1	733,79
706,5	727,048
707	725,048
707,4	724,362
707,8	719,619
708,3	718,362
708,7	709,248
709,2	704,733
709,6	700,733
710	697,105
710,5	685,162
710,9	686,962
711,3	678,876
711,8	677,019
712,2	673,305
712,7	669,876
713,1	665,505
713,5	663,19
714	657,048
714,4	653,619
714,8	648,533
715,3	642,419
715,7	644,219
716,2	634,362
716,6	632,619
717	627,105
717,5	615,705
717,9	612,305
718,3	609,876
718,8	604,133
719,2	604,419
719,7	599,333
720,1	595,648
720,5	602,362
721	595,305
721,4	590,619
721,8	588,476
722,3	583,333
722,7	586,105
723,2	576,59
723,6	563,133
724	558,905
724,5	553,448
724,9	544,362
725,3	539,39
725,8	529,876
726,2	533,333
726,7	535,133
727,1	534,419
727,5	533,048
728	528,562
728,4	526,505
728,8	521,648
729,3	516,933
729,7	509,962
730,1	507,819
730,6	502,99
731	499,39
731,5	495,533
731,9	490,162
732,3	488,733
732,8	494,248
733,2	491,648
733,6	487,876
734,1	485,419
734,5	481,133
734,9	480,79
735,4	478,59
735,8	467,476
736,3	466,762
736,7	465,39
737,1	468,333
737,6	464,79
738	462,105
738,4	460,048
738,9	462,39
739,3	458,333
739,7	458,79
740,2	452,019
740,6	458,133
741,1	461,448
741,5	452,59
741,9	452,905
742,4	452,476
742,8	446,705
743,2	443,333
743,7	434,762
744,1	423,676
744,5	424,248
745	415,448
745,4	407,705
745,8	405,933
746,3	404,99
746,7	398,79
747,2	400,448
747,6	399,276
748	399,79
748,5	402,819
748,9	398,048
749,3	397,962
749,8	400,905
750,2	398,905
750,6	395,476
751,1	396,162
751,5	391,733
751,9	392,676
752,4	388,619
752,8	387,848
753,3	384,933
753,7	385,048
754,1	377,99
754,6	371,819
755	367,248
755,4	365,076
755,9	359,448
756,3	356,533
756,7	352,648
757,2	355,019
757,6	351,476
758	350,362
758,5	344,105
758,9	342,39
759,3	336,848
759,8	333,133
760,2	326,333
760,6	327,79
761,1	321,133
761,5	323,619
761,9	317,648
762,4	317,733
762,8	315,133
763,3	312,933
763,7	313,819
764,1	314,99
764,6	312,562
765	318,476
765,4	317,648
765,9	319,962
766,3	323,362
766,7	319,048
767,2	318,476
767,6	317,419
768	313,648
768,5	311,762
768,9	307,276
769,3	302,762
769,8	297,619
770,2	297,105
770,6	290,99
771,1	291,762
771,5	290,019
771,9	291,19
772,4	288,39
772,8	287,676
773,2	285,648
773,7	285,876
774,1	282,876
774,5	276,419
775	274,105
775,4	273,876
775,8	273,733
776,3	272,419
776,7	270,962
777,1	266,248
777,6	268,962
778	267,419
778,4	260,19
778,9	260,39
779,3	258,39
779,7	259,076
780,2	259,619
780,6	258,648
781	254,733
781,5	254,305
781,9	253,133
782,3	247,733
782,8	242,248
783,2	237,219
783,6	238,562
784,1	236,676
784,5	235,848
784,9	230,505
785,4	236,933
785,8	238,705
786,2	237,933
786,7	231,99
787,1	226,362
787,5	227,79
788	230,019
788,4	224,505
788,8	218,448
789,3	214,648
789,7	217,305
790,1	222,105
790,6	220,19
791	215,276
791,4	213,905
791,9	213,019
792,3	212,333
792,7	212,676
793,2	202,933
793,6	202,762
794	202,105
794,5	197,848
794,9	199,848
795,3	200,79
795,8	192,99
796,2	199,705
796,6	198,19
797,1	195,876
797,5	194,476
797,9	190,419
798,4	187,79
798,8	188,79
799,2	183,933
799,7	184,79
800,1	184,105
800,5	185,276
801	187,733
801,4	183,448
801,8	180,419
802,2	181,419
802,7	175,333
803,1	175,562
803,5	172,79
804	167,648
804,4	168,676
804,8	168,676
805,3	168,133
805,7	164,362
806,1	161,562
806,6	162,133
807	162,619
807,4	157,876
807,9	153,79
808,3	151,99
808,7	152,562
809,2	154,133
809,6	150,276
810	145,99
810,4	150,162
810,9	149,105
811,3	150,505
811,7	153,162
812,2	153,248
812,6	150,962
813	155,419
813,5	154,476
813,9	153,448
814,3	148,19
814,8	143,905
815,2	138,362
815,6	139,59
816,1	139,733
816,5	138,19
816,9	141,333
817,3	140,162
817,8	141,648
818,2	141,619
818,6	139,333
819,1	134,676
819,5	132,505
819,9	132,162
820,4	130,39
820,8	126,419
821,2	120,076
821,7	120,562
822,1	120,533
822,5	124,476
822,9	123,219
823,4	120,876
823,8	122,962
824,2	128,448
824,7	125,305
825,1	119,362
825,5	116,676
826	113,076
826,4	116,276
826,8	109,99
827,3	114,19
827,7	118,648
828,1	121,533
828,5	116,79
829	116,048
829,4	113,39
829,8	111,99
830,3	109,505
830,7	103,676
831,1	104,476
831,6	104,676
832	101,448
832,4	102,019
832,8	107,905
833,3	103,619
833,7	103,076
834,1	100,619
834,6	98,562
835	101,562
835,4	102,105
835,8	94,619
836,3	93,962
836,7	94,962
837,1	98,248
837,6	102,39
838	97,448
838,4	93,562
838,9	99,648
839,3	95,705
839,7	95,248
840,1	83,076
840,6	78,305
841	83,762
841,4	82,476
841,9	80,533
842,3	82,419
842,7	82,39
843,1	90,248
843,6	93,362
844	90,362
844,4	96,705
844,9	96,419
845,3	97,019
845,7	98,876
846,2	94,133
846,6	91,905
847	92,79
847,4	87,79
847,9	87,533
848,3	85,019
848,7	81,876
849,2	84,505
849,6	80,79
850	80,962
850,4	79,305
850,9	77,448
851,3	74,905
851,7	78,876
852,2	77,819
852,6	82,048
853	81,248
853,4	81,819
853,9	79,619
854,3	80,819
854,7	74,048
855,2	73,048
855,6	72,333
856	71,048
856,4	66,762
856,9	68,048
857,3	66,99
857,7	69,99
858,2	70,933
858,6	67,676
859	65,79
859,4	70,733
859,9	67,219
860,3	68,305
860,7	65,19
861,1	65,562
861,6	65,676
862	66,562
862,4	62,133
862,9	62,476
863,3	61,79
863,7	58,876
864,1	60,105
864,6	57,248
865	55,962
865,4	54,476
865,9	58,476
866,3	53,105
866,7	56,305
867,1	50,162
867,6	53,076
868	52,019
868,4	55,562
868,8	54,733
869,3	54,419
869,7	57,59
870,1	56,733
870,6	54,762
871	-17,781
871,4	-12,21
871,8	-18,381
872,3	-12,924
872,7	-19,495
873,1	-18,638
873,5	-18,81
874	52,876
874,4	47,962
874,8	49,248
875,3	49,362
875,7	49,648
876,1	53,619
876,5	53,19
877	52,105
877,4	47,048
877,8	50,533
878,2	55,248
878,7	59,448
879,1	58,59
879,5	58,448
879,9	60,333
880,4	64,79
880,8	62,933
881,2	52,676
881,7	48,619
882,1	46,933
882,5	44,419
882,9	43,276
883,4	41,19
883,8	43,048
884,2	46,505
884,6	45,762
885,1	43,705
885,5	44,019
885,9	41,476
886,3	41,762
886,8	37,59
887,2	34,562
887,6	33,419
888	35,762
888,5	36,076
888,9	35,762
889,3	31,59
889,8	33,562
890,2	36,59
890,6	33,933
891	35,876
891,5	37,619
891,9	39,133
892,3	41,562
892,7	41,048
893,2	37,819
893,6	41,219
894	37,848
894,4	36,79
894,9	36,562
895,3	34,676
895,7	35,019
896,1	36,876
896,6	38,048
897	38,962
897,4	44,048
897,8	46,59
898,3	47,933
898,7	46,305
899,1	46,019
899,5	44,933
900	39,562
900,4	31,419
900,8	27,733
901,2	24,876
901,7	23,59
902,1	23,276
902,5	23,762
902,9	24,076
903,4	29,905
903,8	30,819
904,2	33,962
904,6	34,99
905,1	34,619
905,5	32,133
905,9	36,448
906,3	37,362
906,8	36,676
907,2	36,876
907,6	34,333
908	34,99
908,5	34,333
908,9	30,905
909,3	22,762
909,7	23,848
910,2	22,19
910,6	25,705
911	20,562
911,4	22,419
911,9	22,819
912,3	23,59
912,7	24,505
913,1	26,333
913,6	24,419
914	27,105
914,4	27,305
914,8	27,276
915,3	27,419
915,7	22,476
916,1	19,648
916,5	20,305
916,9	22,105
917,4	17,905
917,8	19,762
918,2	20,076
918,6	19,648
919,1	22,733
919,5	25,99
919,9	24,076
920,3	23,905
920,8	22,619
921,2	23,333
921,6	23,99
922	21,733
922,5	17,905
922,9	18,676
923,3	20,219
923,7	23,305
924,2	20,476
924,6	20,933
925	20,162
925,4	17,39
925,8	17,305
926,3	17,048
926,7	13,533
927,1	11,848
927,5	14,105
928	11,333
928,4	12,505
928,8	15,505
929,2	15,933
929,7	15,362
930,1	21,105
930,5	15,705
930,9	22,162
931,3	25,248
931,8	24,162
932,2	22,733
932,6	24,533
933	18,79
933,5	23,476
933,9	17,162
934,3	18,133
934,7	15,19
935,2	16,79
935,6	14,933
936	16,562
936,4	18,133
936,8	22,848
937,3	19,305
937,7	20,362
938,1	22,962
938,5	19,619
939	23,476
939,4	20,019
939,8	17,248
940,2	17,076
940,6	19,448
941,1	15,676
941,5	17,99
941,9	11,59
942,3	13,79
942,8	19,876
943,2	22,448
943,6	18,762
944	19,019
944,4	19,105
944,9	24,733
945,3	22,819
945,7	11,848
946,1	11,105
946,6	13,276
947	11,848
947,4	17,305
947,8	17,248
948,2	16,276
948,7	19,019
949,1	15,505
949,5	14,962
949,9	16,962
950,3	12,962
950,8	10,19
951,2	12,448
951,6	10,048
952	13,448
952,5	8,705
952,9	5,59
953,3	5,905
953,7	7,362
954,1	5,676
954,6	12,733
955	14,162
955,4	13,905
955,8	17,448
956,2	18,533
956,7	18,305
957,1	17,905
957,5	17,505
957,9	12,79
958,3	17,19
958,8	18,905
959,2	16,962
959,6	20,762
960	20,248
960,5	21,762
960,9	24,962
961,3	21,19
961,7	16,705
962,1	18,305
962,6	16,305
963	16,533
963,4	9,362
963,8	11,076
964,2	14,848
964,7	17,39
965,1	20,248
965,5	19,476
965,9	18,333
966,3	23,79
966,8	20,733
967,2	19,848
967,6	19,305
968	10,505
968,4	8,876
968,9	10,305
969,3	12,962
969,7	11,219
970,1	11,619
970,5	10,362
971	17,076
971,4	16,562
971,8	16,676
972,2	15,248
972,6	16,305
973,1	11,419
973,5	14,448
973,9	10,419
974,3	11,333
974,7	14,219
975,2	13,819
975,6	10,362
976	14,848
976,4	9,762
976,8	11,933
977,3	13,59
977,7	11,848
978,1	11,333
978,5	11,619
978,9	10,248
979,4	11,676
979,8	10,105
980,2	7,333
980,6	1,19
981	1,79
981,5	4,962
981,9	5,219
982,3	7,648
982,7	10,162
983,1	11,219
983,6	14,733
984	12,762
984,4	10,619
984,8	12,362
985,2	12,819
985,6	9,248
986,1	9,476
986,5	11,705
986,9	9,276
987,3	13,362
987,7	12,648
988,2	11,933
988,6	15,59
989	16,562
989,4	18,933
989,8	20,19
990,3	15,905
990,7	14,333
991,1	13,39
991,5	11,59
991,9	14,048
992,3	14,962
992,8	15,248
993,2	19,133
993,6	22,105
994	26,648
994,4	27,476
994,9	24,448
995,3	21,019
995,7	19,133
996,1	15,276
996,5	15,133
996,9	8,819
997,4	6,933
997,8	5,162
998,2	2,79
998,6	-1,295
999	1,448
999,5	-2,124
999,9	-0,838
1000,3	0,762
1000,7	3,933
1001,1	2,676
1001,5	11,019
1002	11,133
1002,4	14,876
1002,8	14,962
1003,2	18,219
1003,6	21,848
1004	26,39
1004,5	21,019
1004,9	18,162
1005,3	10,79
1005,7	9,59
1006,1	2,505
1006,6	-1,724
1007	-1,61
1007,4	-3,495
1007,8	-0,038
1008,2	6,848
1008,6	10,248
1009,1	14,219
1009,5	10,105
1009,9	8,476
1010,3	15,505
1010,7	10,905
1011,1	9,533
1011,6	9,505
1012	7,648
1012,4	7,933
1012,8	5,99
1013,2	6,562
1013,6	8,79
1014,1	9,648
1014,5	8,705
1014,9	10,048
1015,3	9,59
1015,7	11,39
1016,1	5,105
1016,6	5,448
1017	2,59
1017,4	3,533
1017,8	3,19
1018,2	7,048
1018,6	4,248
1019,1	7,076
1019,5	7,79
1019,9	5,505
1020,3	7,248
1020,7	8,105
1021,1	5,076
1021,6	8,019
1022	11,219
1022,4	7,79
1022,8	13,933
1023,2	11,848
1023,6	9,448
1024,1	17,448
1024,5	18,133
1024,9	12,019
1025,3	17,362
1025,7	14,362
1026,1	13,79
1026,6	15,448
1027	7,533
1027,4	6,048
1027,8	9,076
1028,2	3,676
1028,6	7,79
1029	7,505
1029,5	10,276
1029,9	11,476
1030,3	6,076
1030,7	5,59
1031,1	7,476
1031,5	0,333
1032	-3,181
1032,4	-3,981
1032,8	0,105
1033,2	3,076
1033,6	2,333
1034	5,933
1034,4	8,219
1034,9	13,848
1035,3	11,276
1035,7	12,305
1036,1	16,733
1036,5	18,505
1036,9	19,105
1037,4	23,619
1037,8	17,076
1038,2	16,133
1038,6	9,905
1039	12,19
1039,4	15,505
1039,8	13,133
1040,3	12,99
1040,7	15,619
1041,1	19,533
1041,5	25,419
1041,9	18,019
1042,3	16,562
1042,7	18,19
1043,2	17,59
1043,6	16,048
1044	10,476
1044,4	7,276
1044,8	9,562
1045,2	7,019
1045,6	6,962
1046,1	1,076
1046,5	2,705
1046,9	5,333
1047,3	4,162
1047,7	4,762
1048,1	4,676
1048,5	6,048
1049	13,362
1049,4	19,248
1049,8	16,933
1050,2	19,333
1050,6	23,933
1051	26,79
1051,4	24,476
1051,9	19,562
1052,3	23,048
1052,7	28,733
1053,1	24,219
1053,5	25,933
1053,9	26,39
1054,3	27,962
1054,8	38,419
1055,2	33,648
1055,6	32,162
1056	35,162
1056,4	30,105
1056,8	28,962
1057,2	29,448
1057,6	17,848
1058,1	13,219
1058,5	11,733
1058,9	15,19
1059,3	15,305
1059,7	13,905
1060,1	11,276
1060,5	16,762
1061	20,819
1061,4	20,819
1061,8	18,362
1062,2	14,705
1062,6	17,248
1063	19,39
1063,4	15,276
1063,8	14,533
1064,3	12,762
1064,7	8,762
1065,1	12,819
1065,5	5,933
1065,9	1,819
1066,3	-0,981
1066,7	-5,952
1067,1	-9,981
1067,6	-0,838
1068	-4,752
1068,4	0,248
1068,8	4,905
1069,2	4,762
1069,6	7,848
1070	17,819
1070,4	12,705
1070,9	13,705
1071,3	12,362
1071,7	4,162
1072,1	8,333
1072,5	8,705
1072,9	4,133
1073,3	2,619
1073,7	4,305
1074,2	4,533
1074,6	12,105
1075	7,076
1075,4	9,19
1075,8	8,705
1076,2	10,619
1076,6	7,533
1077	7,305
1077,5	7,476
1077,9	9,019
1078,3	7,076
1078,7	6,305
1079,1	9,448
1079,5	9,448
1079,9	8,248
1080,3	8,219
1080,7	10,533
1081,2	13,762
1081,6	15,476
1082	9,19
1082,4	16,048
1082,8	18,819
1083,2	16,705
1083,6	17,19
1084	16,248
1084,5	18,533
1084,9	15,476
1085,3	9,905
1085,7	14,076
1086,1	10,19
1086,5	12,19
1086,9	13,19
1087,3	12,476
1087,7	15,19
1088,2	15,99
1088,6	8,79
1089	13,905
1089,4	9,419
1089,8	6,99
1090,2	5,419
1090,6	6,848
1091	10,448
1091,4	13,476
1091,9	16,048
1092,3	21,248
1092,7	21,133
1093,1	21,762
1093,5	21,562
1093,9	20,162
1094,3	22,305
1094,7	19,905
1095,1	17,933
1095,5	18,333
1096	15,933
1096,4	14,39
1096,8	12,733
1097,2	7,133
1097,6	8,79
1098	9,733
1098,4	10,162
1098,8	12,448
1099,2	21,59
1099,6	22,133
1100,1	24,419
1100,5	17,876
1100,9	16,562
1101,3	15,962
1101,7	16,476
1102,1	9,762
1102,5	11,19
1102,9	12,333
1103,3	16,762
1103,7	18,019
1104,2	13,362
1104,6	12,648
1105	10,048
1105,4	9,448
1105,8	6,448
1106,2	3,533
1106,6	1,048
1107	3,162
1107,4	1,267
1107,8	2,893
1108,3	0,133
