Data from Subt2_015.txt Node
Date: Sat Aug 26 16:13:49 MSK 2023
User: vat
Spectrometer: MAYP114033
Trigger mode: 0
Integration Time (sec): 1,000000E0
Scans to average: 5
Electric dark correction enabled: true
Nonlinearity correction enabled: false
Boxcar width: 3
XAxis mode: Wavelengths
Number of Pixels in Spectrum: 2068
>>>>>Begin Spectral Data<<<<<
199,4	-1,4
199,9	0,56
200,4	0,067
200,8	-0,171
201,3	0,229
201,8	0,4
202,2	1,286
202,7	2,4
203,2	-0,457
203,6	6,2
204,1	6,6
204,6	7,086
205	9,971
205,5	10,8
206	6,657
206,4	8
206,9	0,4
207,4	0,657
207,8	3,6
208,3	0,286
208,8	1,714
209,2	4,771
209,7	8,4
210,2	10
210,6	7,2
211,1	7,543
211,5	7,086
212	2,8
212,5	3,629
212,9	2,829
213,4	1,257
213,9	1,229
214,3	-5,743
214,8	-1,543
215,3	-0,086
215,7	1,057
216,2	-0,171
216,7	1,171
217,1	1,743
217,6	6,857
218,1	3,686
218,5	1,029
219	-4,714
219,5	-4,514
219,9	-6,314
220,4	-0,457
220,9	-5,771
221,3	-4,343
221,8	-2,8
222,3	5,286
222,7	3,857
223,2	7,4
223,6	6,029
224,1	11,229
224,6	9,971
225	15,057
225,5	10,2
226	10,8
226,4	10,343
226,9	9,571
227,4	8,857
227,8	12
228,3	10,914
228,8	14,171
229,2	15,571
229,7	13,8
230,2	13
230,6	13,486
231,1	14,314
231,5	14,514
232	11,286
232,5	12,571
232,9	14,2
233,4	15,229
233,9	10,514
234,3	7,4
234,8	3,657
235,3	10,143
235,7	6,029
236,2	3,857
236,7	3,257
237,1	7,029
237,6	5,629
238,1	3,2
238,5	-2,8
239	5,714
239,4	11,2
239,9	8,571
240,4	9,657
240,8	12,086
241,3	17,657
241,8	19,629
242,2	13,2
242,7	9,714
243,2	11,629
243,6	14,114
244,1	11,886
244,6	8,029
245	2,229
245,5	-1,086
245,9	1,914
246,4	7,057
246,9	7
247,3	7
247,8	10,086
248,3	12,171
248,7	19,371
249,2	16,114
249,7	11,771
250,1	9,571
250,6	6,571
251	4,857
251,5	6,457
252	5,857
252,4	7,343
252,9	1,371
253,4	2,914
253,8	8,286
254,3	12,543
254,8	11,829
255,2	10,057
255,7	5,457
256,1	14,429
256,6	8,486
257,1	8,914
257,5	5,029
258	8,343
258,5	2,686
258,9	6,771
259,4	-2,086
259,9	-1,6
260,3	-4,543
260,8	-2,2
261,2	-3,886
261,7	-2,4
262,2	-2,914
262,6	1,657
263,1	5,743
263,6	6,829
264	7,429
264,5	10,6
264,9	11,914
265,4	10,8
265,9	12,2
266,3	8,143
266,8	9,143
267,3	2,8
267,7	-3
268,2	-2,543
268,7	-1,429
269,1	-3,571
269,6	-2
270	-5,314
270,5	-5,114
271	-4,257
271,4	-5,686
271,9	-2,657
272,4	-1,171
272,8	1,914
273,3	1,143
273,7	5,714
274,2	3,314
274,7	9,771
275,1	7,886
275,6	4,2
276,1	4,686
276,5	9,657
277	7,086
277,4	10,257
277,9	3,686
278,4	1,429
278,8	1,514
279,3	-2,857
279,8	-5,857
280,2	-4,257
280,7	-4,771
281,1	-4
281,6	-7,086
282,1	-3,686
282,5	-3,971
283	1,314
283,4	-1,514
283,9	-4,943
284,4	-3,229
284,8	1,686
285,3	3
285,8	5,143
286,2	-1,4
286,7	0,6
287,1	8,4
287,6	4,914
288,1	3,743
288,5	4,171
289	4,086
289,5	7,743
289,9	4,714
290,4	0,343
290,8	3,257
291,3	5,143
291,8	2,886
292,2	5,543
292,7	6,743
293,1	10,343
293,6	12,229
294,1	11,686
294,5	8,571
295	7,886
295,5	5,2
295,9	0,514
296,4	-2,4
296,8	0,086
297,3	1,429
297,8	0,714
298,2	1,086
298,7	2,829
299,1	3,543
299,6	7,229
300,1	7,571
300,5	8,086
301	9,029
301,5	11,2
301,9	12,143
302,4	12,829
302,8	10,543
303,3	10,743
303,8	8,171
304,2	10,6
304,7	11
305,1	5,8
305,6	7,2
306,1	8,8
306,5	3,057
307	1,6
307,4	-1,743
307,9	-2,829
308,4	-2,886
308,8	-0,4
309,3	-0,743
309,8	3,743
310,2	8,286
310,7	8
311,1	6,543
311,6	5,8
312,1	-1,229
312,5	1,229
313	-3,2
313,4	-6,371
313,9	-7,429
314,4	-3,457
314,8	-1,2
315,3	1,457
315,7	-1,171
316,2	0,057
316,7	-4,086
317,1	-0,086
317,6	-2,286
318	-2,886
318,5	-3,286
319	-1,114
319,4	-4,829
319,9	-3,971
320,3	0,114
320,8	0
321,3	3,857
321,7	6,543
322,2	2,943
322,6	8,857
323,1	15,2
323,6	11,543
324	10,657
324,5	6,714
324,9	6,029
325,4	9,657
325,9	4,857
326,3	3
326,8	2,057
327,2	5,571
327,7	5,257
328,2	4,286
328,6	2,057
329,1	4,971
329,5	4,686
330	-0,229
330,5	-3,8
330,9	-2,829
331,4	-4
331,8	-2,171
332,3	-1,8
332,8	0,743
333,2	4,514
333,7	7,171
334,1	5,714
334,6	8,571
335,1	5,371
335,5	7,257
336	2,886
336,4	5,543
336,9	0,257
337,4	3,629
337,8	1,686
338,3	3,086
338,7	3
339,2	1,686
339,7	-1,686
340,1	5,514
340,6	1,4
341	0,686
341,5	4,086
342	4,2
342,4	10,6
342,9	16,371
343,3	10,771
343,8	14,2
344,2	17,2
344,7	18,314
345,2	18,571
345,6	15,143
346,1	9
346,5	10,514
347	11,114
347,5	12,4
347,9	13,629
348,4	12,457
348,8	13,543
349,3	16,743
349,8	17,629
350,2	17,857
350,7	18,686
351,1	16,686
351,6	20,6
352	24,486
352,5	34
353	42,314
353,4	49,8
353,9	58,943
354,3	70,743
354,8	83,029
355,3	98,886
355,7	108
356,2	130,8
356,6	154,2
357,1	179,914
357,5	207,543
358	242,229
358,5	282,657
358,9	338
359,4	387,457
359,8	445,029
360,3	514,743
360,8	590,914
361,2	674,086
361,7	766,2
362,1	864,743
362,6	975,829
363	1101,543
363,5	1222,057
364	1353,314
364,4	1484,4
364,9	1620,286
365,3	1756,286
365,8	1880,571
366,3	1996,543
366,7	2105,514
367,2	2196,143
367,6	2276,686
368,1	2336,286
368,5	2370,657
369	2395,6
369,5	2396,6
369,9	2387,114
370,4	2352,057
370,8	2301,143
371,3	2231,171
371,7	2151,971
372,2	2058,657
372,7	1965
373,1	1852,114
373,6	1746,257
374	1636,343
374,5	1532,743
374,9	1426,286
375,4	1330,743
375,9	1224,314
376,3	1132,8
376,8	1043,143
377,2	957,143
377,7	878,686
378,2	810,771
378,6	739,886
379,1	680,429
379,5	626,229
380	574,743
380,4	529,657
380,9	486,486
381,4	444,314
381,8	405,829
382,3	372,143
382,7	344,743
383,2	326,771
383,6	305,2
384,1	287,229
384,6	265,571
385	247,257
385,5	231,943
385,9	211,286
386,4	192,457
386,8	180,971
387,3	163,2
387,7	157,4
388,2	146,429
388,7	136,914
389,1	130,914
389,6	121,829
390	112,314
390,5	106,343
390,9	95,857
391,4	92
391,9	88,371
392,3	82,943
392,8	80,686
393,2	75,657
393,7	68,914
394,1	62,343
394,6	59,771
395,1	55,914
395,5	53,086
396	46,2
396,4	45,543
396,9	48,457
397,3	49,829
397,8	47,857
398,2	48,514
398,7	44,857
399,2	48,343
399,6	42,571
400,1	38,2
400,5	38,8
401	31,571
401,4	28,114
401,9	32,286
402,4	31,2
402,8	38,6
403,3	43,029
403,7	48,4
404,2	58,886
404,6	60,4
405,1	58,657
405,5	62,914
406	63,886
406,5	64,057
406,9	64,743
407,4	62,143
407,8	68,714
408,3	75,314
408,7	77,429
409,2	79,429
409,6	87,457
410,1	90,6
410,6	100,114
411	102,2
411,5	109,914
411,9	117,057
412,4	127,371
412,8	134,457
413,3	142,914
413,7	151,629
414,2	166,829
414,7	173,343
415,1	180,686
415,6	191,086
416	198,314
416,5	209,543
416,9	217,6
417,4	222,086
417,8	229,543
418,3	244,829
418,8	255,971
419,2	268,571
419,7	277,086
420,1	289,514
420,6	310,429
421	323,229
421,5	334,971
421,9	346,171
422,4	359,771
422,8	379,943
423,3	396,257
423,8	409,971
424,2	431,714
424,7	456,114
425,1	477,886
425,6	497,971
426	516,914
426,5	541,286
426,9	563,4
427,4	592,229
427,9	612,771
428,3	644,371
428,8	678,171
429,2	710,743
429,7	750,029
430,1	786,029
430,6	820,857
431	858,057
431,5	896,457
431,9	940,486
432,4	982,971
432,8	1021,514
433,3	1065,343
433,8	1112,343
434,2	1160,8
434,7	1212,743
435,1	1271,314
435,6	1327,686
436	1388,829
436,5	1454,771
436,9	1521,971
437,4	1595,943
437,8	1671,686
438,3	1746,257
438,8	1824,714
439,2	1908,257
439,7	1992,857
440,1	2077
440,6	2169,114
441	2256,857
441,5	2348,286
441,9	2451,143
442,4	2557,486
442,8	2662,857
443,3	2773,514
443,7	2887,514
444,2	3004,686
444,7	3123,571
445,1	3250,8
445,6	3379,686
446	3504,114
446,5	3636,543
446,9	3766,114
447,4	3912,629
447,8	4054,629
448,3	4198,029
448,7	4343,029
449,2	4501,629
449,6	4665,029
450,1	4834,457
450,6	4989,171
451	5150
451,5	5327,286
451,9	5501,857
452,4	5684,429
452,8	5864,114
453,3	6040,314
453,7	6234,029
454,2	6442,086
454,6	6633
455,1	6831,571
455,5	7022,314
456	7224,743
456,4	7429,686
456,9	7640,829
457,3	7849,2
457,8	8065,743
458,3	8272,886
458,7	8501,371
459,2	8725,8
459,6	8943,457
460,1	9165,571
460,5	9389,286
461	9614,971
461,4	9857,229
461,9	10086,514
462,3	10319,086
462,8	10563,457
463,2	10788,429
463,7	11020,314
464,1	11242,371
464,6	11459,4
465	11683,057
465,5	11911,629
466	12137,629
466,4	12370,886
466,9	12597,6
467,3	12837,8
467,8	13078,971
468,2	13307,686
468,7	13536,857
469,1	13762,943
469,6	13990,343
470	14217,314
470,5	14425,771
470,9	14638,743
471,4	14849,514
471,8	15055,943
472,3	15251,457
472,7	15460,4
473,2	15657,343
473,6	15858,971
474,1	16043,029
474,5	16239,857
475	16435,829
475,4	16635,943
475,9	16816,029
476,4	16998,514
476,8	17163,657
477,3	17343,686
477,7	17513,8
478,2	17666,371
478,6	17832,314
479,1	17975,114
479,5	18116,029
480	18254,286
480,4	18391,686
480,9	18516,286
481,3	18630,143
481,8	18730,143
482,2	18835,429
482,7	18924,829
483,1	19034,6
483,6	19127,857
484	19209,6
484,5	19295,286
484,9	19370,8
485,4	19438,371
485,8	19507,857
486,3	19555,886
486,7	19590,229
487,2	19636,429
487,6	19665,371
488,1	19688,514
488,5	19713,686
489	19724,257
489,4	19743,971
489,9	19757,429
490,4	19751,371
490,8	19749,914
491,3	19745,371
491,7	19714,486
492,2	19703,343
492,6	19667,286
493,1	19622,143
493,5	19575,057
494	19521,943
494,4	19460,657
494,9	19416,4
495,3	19347,686
495,8	19283,886
496,2	19224,943
496,7	19156,257
497,1	19089,4
497,6	19020,829
498	18937,371
498,5	18855,4
498,9	18766,257
499,4	18677,714
499,8	18586,743
500,3	18485,171
500,7	18391,514
501,2	18308,714
501,6	18222
502,1	18121,8
502,5	18018,914
503	17922,486
503,4	17821
503,9	17700,086
504,3	17586,086
504,8	17463,457
505,2	17337,114
505,7	17216,371
506,1	17087,771
506,6	16952,629
507	16828,086
507,5	16688,114
507,9	16554,314
508,4	16429,314
508,8	16289
509,3	16156,457
509,7	16015,971
510,2	15871,543
510,6	15737,829
511,1	15591,457
511,5	15448,143
512	15302,629
512,4	15155,4
512,9	15021,229
513,3	14890,771
513,8	14739,914
514,2	14602,086
514,7	14455,857
515,1	14315,429
515,6	14180,371
516	14039,886
516,5	13901,143
516,9	13770,171
517,4	13623,143
517,8	13483,143
518,3	13343,257
518,7	13193,286
519,2	13051,686
519,6	12907,686
520,1	12762,771
520,5	12631,114
521	12491,343
521,4	12355,343
521,9	12222,543
522,3	12096,343
522,8	11960,057
523,2	11821,714
523,7	11694,743
524,1	11561,343
524,6	11422,829
525	11295,743
525,5	11171
525,9	11045,971
526,4	10921,086
526,8	10795,4
527,3	10687,343
527,7	10571,171
528,2	10452,714
528,6	10335,486
529,1	10217,457
529,5	10110,971
530	9994,4
530,4	9885,057
530,9	9781,429
531,3	9679,486
531,8	9566,8
532,2	9460,029
532,6	9364,171
533,1	9261,829
533,5	9156,714
534	9059,171
534,4	8954,029
534,9	8860,429
535,3	8771,257
535,8	8669,686
536,2	8575,543
536,7	8477,914
537,1	8381,771
537,6	8292,457
538	8194,429
538,5	8099,571
538,9	8004,429
539,4	7913,429
539,8	7836,657
540,3	7752,314
540,7	7666,971
541,2	7592,971
541,6	7513,114
542,1	7443,2
542,5	7371,143
543	7289,029
543,4	7215,943
543,9	7149,629
544,3	7078,029
544,8	7009,886
545,2	6938,086
545,7	6872,514
546,1	6805,343
546,5	6733,714
547	6660,657
547,4	6594,057
547,9	6536,829
548,3	6469,714
548,8	6404,6
549,2	6348,886
549,7	6292,314
550,1	6242,114
550,6	6186,8
551	6122,714
551,5	6071,4
551,9	6013,543
552,4	5956,657
552,8	5910,429
553,3	5846,829
553,7	5794,371
554,2	5746,057
554,6	5689,571
555,1	5646,514
555,5	5596,2
555,9	5539,343
556,4	5498,343
556,8	5448,514
557,3	5402,286
557,7	5363,486
558,2	5317,971
558,6	5271,571
559,1	5233,543
559,5	5192,171
560	5146,886
560,4	5102,829
560,9	5060,4
561,3	5020
561,8	4983,714
562,2	4946,971
562,7	4902,457
563,1	4866,314
563,6	4839,714
564	4806,457
564,4	4766,086
564,9	4729,514
565,3	4692,8
565,8	4659,829
566,2	4628,486
566,7	4580,229
567,1	4540,457
567,6	4505,314
568	4468,629
568,5	4430,543
568,9	4395,314
569,4	4355,686
569,8	4319,457
570,3	4287,8
570,7	4261,657
571,1	4233,8
571,6	4205,229
572	4174,771
572,5	4150,829
572,9	4127,6
573,4	4091,4
573,8	4057,114
574,3	4022,8
574,7	3996,543
575,2	3973,457
575,6	3946,257
576,1	3923,114
576,5	3903,143
576,9	3876,229
577,4	3853,4
577,8	3825
578,3	3803,486
578,7	3771,429
579,2	3738,543
579,6	3710,714
580,1	3684,086
580,5	3666,429
581	3639,743
581,4	3613,857
581,9	3591,257
582,3	3566,514
582,7	3544,343
583,2	3519,514
583,6	3490,943
584,1	3470,4
584,5	3440,571
585	3423,029
585,4	3400,143
585,9	3370,943
586,3	3356,114
586,8	3334,629
587,2	3311,229
587,6	3285,857
588,1	3264,857
588,5	3248,257
589	3226,057
589,4	3194,886
589,9	3177,943
590,3	3160,714
590,8	3133,971
591,2	3110,2
591,7	3090,771
592,1	3081,486
592,5	3066,829
593	3039,514
593,4	3016,171
593,9	3009,714
594,3	2992,429
594,8	2970
595,2	2954,943
595,7	2942
596,1	2926,829
596,6	2911,8
597	2898,2
597,4	2877,114
597,9	2865,4
598,3	2844,914
598,8	2825,8
599,2	2818,343
599,7	2803,029
600,1	2786,343
600,6	2775,6
601	2765,457
601,4	2754,286
601,9	2739,143
602,3	2717,286
602,8	2705,629
603,2	2689,514
603,7	2674,143
604,1	2657,286
604,6	2640,057
605	2628,914
605,4	2611,2
605,9	2598,314
606,3	2585,286
606,8	2573,686
607,2	2556,086
607,7	2541,971
608,1	2525,8
608,6	2519,543
609	2504,686
609,4	2486,143
609,9	2470,143
610,3	2464,314
610,8	2449,257
611,2	2439,371
611,7	2421,486
612,1	2409,171
612,6	2398,029
613	2383,029
613,4	2361,629
613,9	2349,571
614,3	2334,229
614,8	2319,914
615,2	2304
615,7	2290,457
616,1	2279,743
616,6	2270,257
617	2259,571
617,4	2241,629
617,9	2228,6
618,3	2208,743
618,8	2197,686
619,2	2181,629
619,7	2167,971
620,1	2155,057
620,5	2142,429
621	2128,857
621,4	2123,914
621,9	2112,486
622,3	2098,229
622,8	2083,857
623,2	2065,771
623,6	2055,657
624,1	2043,429
624,5	2024,914
625	2007,771
625,4	1997,857
625,9	1979,971
626,3	1969,229
626,8	1958,686
627,2	1947,657
627,6	1934,714
628,1	1926,2
628,5	1912,943
629	1907,257
629,4	1891,4
629,9	1879,971
630,3	1861,857
630,7	1849,2
631,2	1833,6
631,6	1819,371
632,1	1802,543
632,5	1794,257
633	1777,086
633,4	1774,143
633,8	1765,8
634,3	1751,114
634,7	1744,314
635,2	1734,2
635,6	1721,914
636,1	1715
636,5	1697,086
636,9	1679,971
637,4	1670,943
637,8	1658,943
638,3	1648,486
638,7	1633,4
639,2	1620,829
639,6	1611,086
640	1605,171
640,5	1601,286
640,9	1591,8
641,4	1578,229
641,8	1567,829
642,2	1559,457
642,7	1557,4
643,1	1550
643,6	1536,286
644	1521,229
644,5	1514,514
644,9	1508,6
645,3	1501,829
645,8	1485,229
646,2	1472,371
646,7	1463,114
647,1	1462,714
647,6	1452,457
648	1443,571
648,4	1430,657
648,9	1427,429
649,3	1422,171
649,8	1413,629
650,2	1405,171
650,6	1393,371
651,1	1388,286
651,5	1380,857
652	1372,714
652,4	1364,2
652,9	1354,114
653,3	1342,086
653,7	1338,657
654,2	1326,686
654,6	1318,886
655,1	1304,114
655,5	1293,629
655,9	1289,314
656,4	1279,571
656,8	1273,686
657,3	1268,2
657,7	1258,057
658,2	1252,057
658,6	1249,429
659	1242,571
659,5	1232,257
659,9	1222,886
660,4	1214,829
660,8	1207,371
661,2	1201,657
661,7	1188,2
662,1	1180,229
662,6	1172,571
663	1162,457
663,4	1153,714
663,9	1149,229
664,3	1143
664,8	1137,6
665,2	1123,429
665,6	1119,743
666,1	1114
666,5	1102,8
667	1092,371
667,4	1078,343
667,9	1067,514
668,3	1063,371
668,7	1056
669,2	1047,714
669,6	1044,314
670,1	1038,514
670,5	1026,743
670,9	1020,543
671,4	1011,371
671,8	997,971
672,3	992,229
672,7	983,086
673,1	970,171
673,6	966,6
674	954,714
674,5	947,571
674,9	942,771
675,3	931,714
675,8	926,943
676,2	922,229
676,7	919,6
677,1	920,371
677,5	913,543
678	909,457
678,4	906,8
678,9	900,2
679,3	892
679,7	884,486
680,2	877,4
680,6	868,143
681,1	862,8
681,5	851,686
681,9	846,029
682,4	839,714
682,8	833,114
683,3	821,629
683,7	820,629
684,1	810,114
684,6	804,943
685	794,971
685,5	792,514
685,9	786,857
686,3	784,229
686,8	778,686
687,2	778,371
687,7	771,086
688,1	771,257
688,5	760,971
689	756
689,4	748,543
689,9	743,171
690,3	732,514
690,7	730,943
691,2	723,629
691,6	718,657
692	714,829
692,5	713,886
692,9	705,829
693,4	703,829
693,8	690,686
694,2	682,486
694,7	682,629
695,1	672,714
695,6	665,514
696	659,429
696,4	654,257
696,9	660,457
697,3	652,771
697,8	647,029
698,2	644,514
698,6	642,229
699,1	643,571
699,5	635,743
699,9	631,229
700,4	631,514
700,8	627,057
701,3	623,657
701,7	620,086
702,1	611,771
702,6	610,571
703	600,543
703,5	595,886
703,9	589,886
704,3	585,714
704,8	580,686
705,2	577,143
705,6	570,343
706,1	569,971
706,5	563,943
707	561,486
707,4	559,8
707,8	554,2
708,3	548,143
708,7	548,457
709,2	539,629
709,6	536,143
710	531,429
710,5	525,029
710,9	520,371
711,3	519,6
711,8	514,4
712,2	515,514
712,7	513,114
713,1	510,514
713,5	503,057
714	503,314
714,4	500,343
714,8	493,429
715,3	489,143
715,7	481,086
716,2	475,343
716,6	478,286
717	470,114
717,5	462,686
717,9	463,686
718,3	454,8
718,8	455,229
719,2	450,486
719,7	445,943
720,1	440,057
720,5	436,229
721	431,086
721,4	433,514
721,8	428,571
722,3	427,171
722,7	421,057
723,2	420,029
723,6	416,143
724	410,429
724,5	405,171
724,9	395,686
725,3	393,514
725,8	386,914
726,2	382,457
726,7	384,829
727,1	386,143
727,5	378,886
728	379,343
728,4	378,171
728,8	380,314
729,3	379,714
729,7	370
730,1	363,971
730,6	365,743
731	365,314
731,5	363,771
731,9	359,514
732,3	357,314
732,8	361,429
733,2	360,8
733,6	358
734,1	359,343
734,5	351,2
734,9	348,629
735,4	342,114
735,8	335,543
736,3	328,114
736,7	329,6
737,1	329,771
737,6	332,343
738	333,114
738,4	336
738,9	339,371
739,3	341,343
739,7	342,171
740,2	341,371
740,6	339,6
741,1	335,114
741,5	332
741,9	325,057
742,4	322,314
742,8	315,229
743,2	307,057
743,7	307,143
744,1	306,314
744,5	304,343
745	305,314
745,4	301,114
745,8	302,286
746,3	300,371
746,7	293,371
747,2	285,571
747,6	280,571
748	274,029
748,5	272,286
748,9	269,571
749,3	268,086
749,8	269,829
750,2	270,457
750,6	274,629
751,1	274,343
751,5	275,057
751,9	270,943
752,4	266,514
752,8	260,2
753,3	261,571
753,7	261,829
754,1	259,914
754,6	253,486
755	253,8
755,4	251,429
755,9	247,629
756,3	248,057
756,7	239,571
757,2	237,343
757,6	240,229
758	237,686
758,5	240,143
758,9	241,771
759,3	235,771
759,8	236,571
760,2	235,8
760,6	234,429
761,1	230,343
761,5	235,114
761,9	234,314
762,4	231,457
762,8	229,057
763,3	230,714
763,7	221,286
764,1	220,2
764,6	212,029
765	212,6
765,4	213,429
765,9	213,8
766,3	210,8
766,7	215,629
767,2	216,486
767,6	218,143
768	217
768,5	216,943
768,9	211,829
769,3	212,514
769,8	213,057
770,2	207,143
770,6	200,629
771,1	197,057
771,5	194,943
771,9	197,486
772,4	193,343
772,8	187,229
773,2	191,257
773,7	194
774,1	189,429
774,5	188,257
775	183,914
775,4	187,086
775,8	191,457
776,3	192,714
776,7	188,629
777,1	192,771
777,6	189,771
778	191,543
778,4	186,343
778,9	187,114
779,3	179,286
779,7	176,6
780,2	174,257
780,6	176,514
781	175,943
781,5	173,371
781,9	169,171
782,3	167,8
782,8	170,8
783,2	172,343
783,6	174,543
784,1	167,629
784,5	164,686
784,9	161,657
785,4	159,229
785,8	159,514
786,2	157,829
786,7	151,143
787,1	155,514
787,5	156,829
788	158,4
788,4	160,314
788,8	157,943
789,3	154,857
789,7	160,543
790,1	155,457
790,6	155,743
791	150,714
791,4	144,4
791,9	146,257
792,3	144,171
792,7	135,743
793,2	137,086
793,6	138,943
794	143,514
794,5	147,971
794,9	143,943
795,3	141,686
795,8	139,771
796,2	136,914
796,6	130,771
797,1	134,171
797,5	133,543
797,9	132,886
798,4	134,629
798,8	138,2
799,2	142,229
799,7	144,029
800,1	140,514
800,5	139,229
801	137,629
801,4	135,6
801,8	132,543
802,2	128,314
802,7	129,514
803,1	128,314
803,5	126,771
804	128,257
804,4	126,4
804,8	128,371
805,3	130,629
805,7	126,657
806,1	120,629
806,6	122,314
807	117,029
807,4	116,486
807,9	115,4
808,3	108,8
808,7	102,257
809,2	103,743
809,6	101,571
810	102,686
810,4	99,857
810,9	96,943
811,3	96,286
811,7	101,2
812,2	100,657
812,6	95,086
813	93,2
813,5	94,714
813,9	93,257
814,3	95,143
814,8	95,2
815,2	92,857
815,6	97,686
816,1	97,914
816,5	99,829
816,9	94,771
817,3	94,029
817,8	95,343
818,2	95,886
818,6	90,4
819,1	90,571
819,5	88,4
819,9	93,343
820,4	94,286
820,8	94,229
821,2	89,257
821,7	91
822,1	90,943
822,5	90,629
822,9	91,943
823,4	89,371
823,8	87,257
824,2	87,829
824,7	86,343
825,1	86,771
825,5	84,229
826	78,4
826,4	78,571
826,8	68,943
827,3	68,571
827,7	71,143
828,1	65,486
828,5	64,943
829	64,886
829,4	66,029
829,8	78,857
830,3	80,829
830,7	74,571
831,1	75,771
831,6	75,943
832	70,943
832,4	67,486
832,8	62,743
833,3	62,457
833,7	64,543
834,1	61,543
834,6	62,4
835	67,657
835,4	73
835,8	67,314
836,3	64,657
836,7	64,257
837,1	64,343
837,6	60,514
838	61,286
838,4	52,543
838,9	52,629
839,3	54,486
839,7	58,343
840,1	62,743
840,6	62,657
841	60,314
841,4	64,143
841,9	65
842,3	63
842,7	61,829
843,1	61,257
843,6	63,657
844	69,029
844,4	62,914
844,9	60,886
845,3	57,857
845,7	58,4
846,2	54,057
846,6	53,114
847	48,171
847,4	48,943
847,9	49,2
848,3	53,257
848,7	49,914
849,2	55,2
849,6	54,4
850	53,057
850,4	55,943
850,9	56,286
851,3	54,257
851,7	57,514
852,2	52,514
852,6	48,657
853	50,429
853,4	49,914
853,9	53,857
854,3	56,114
854,7	47,571
855,2	46,343
855,6	47,543
856	46,286
856,4	48,171
856,9	47,457
857,3	43,057
857,7	47,543
858,2	44
858,6	45,2
859	44,886
859,4	39,514
859,9	35,486
860,3	37,886
860,7	41,914
861,1	46,971
861,6	46,457
862	47,257
862,4	50,286
862,9	48
863,3	47,6
863,7	41,229
864,1	41,943
864,6	46,657
865	44,857
865,4	43,943
865,9	48,714
866,3	47,114
866,7	45,457
867,1	41,8
867,6	32,914
868	28,371
868,4	27,086
868,8	24,714
869,3	30,629
869,7	34,771
870,1	33,457
870,6	31,486
871	-19,514
871,4	-19,257
871,8	-20,171
872,3	-27,629
872,7	-35,143
873,1	-33,171
873,5	-27,771
874	29,4
874,4	31,6
874,8	31,771
875,3	33,057
875,7	34,714
876,1	34,543
876,5	32,829
877	28,657
877,4	24,029
877,8	22,143
878,2	18,057
878,7	21,629
879,1	19,971
879,5	19,657
879,9	16,286
880,4	20,286
880,8	20,571
881,2	23,057
881,7	23,571
882,1	29,343
882,5	26,971
882,9	31,514
883,4	29,771
883,8	26,086
884,2	26,229
884,6	22,657
885,1	14,486
885,5	17,143
885,9	17,429
886,3	13,086
886,8	16,829
887,2	15,486
887,6	16,857
888	22,457
888,5	18,971
888,9	17,029
889,3	21,143
889,8	22,771
890,2	23,4
890,6	21,743
891	20,571
891,5	20,429
891,9	19,686
892,3	19,486
892,7	21,086
893,2	23,657
893,6	22,029
894	19,171
894,4	22,229
894,9	18,2
895,3	17,229
895,7	12,029
896,1	8,771
896,6	13,629
897	12,886
897,4	10,543
897,8	15,171
898,3	14,171
898,7	11,514
899,1	12,4
899,5	12,571
900	14,629
900,4	16,343
900,8	16,057
901,2	18,143
901,7	21,771
902,1	24,8
902,5	23,8
902,9	20,657
903,4	16,171
903,8	15,257
904,2	13,029
904,6	16
905,1	9,886
905,5	8,829
905,9	11,829
906,3	12,686
906,8	12,314
907,2	11,486
907,6	9,914
908	13,2
908,5	16,6
908,9	16,057
909,3	17,371
909,7	19,171
910,2	23,829
910,6	26,143
911	25,486
911,4	21,657
911,9	21,229
912,3	23,4
912,7	20,571
913,1	19,486
913,6	16,457
914	16,743
914,4	15,114
914,8	18,771
915,3	21,743
915,7	24,8
916,1	22,686
916,5	22
916,9	24,857
917,4	21,286
917,8	18,629
918,2	16,2
918,6	18,286
919,1	17,771
919,5	20,6
919,9	20,457
920,3	22,086
920,8	22,514
921,2	22,029
921,6	21,086
922	23,486
922,5	17,829
922,9	13,857
923,3	16,629
923,7	12,314
924,2	11,743
924,6	9,6
925	9,914
925,4	8,114
925,8	8,057
926,3	8,657
926,7	15,171
927,1	18,514
927,5	20,029
928	18,057
928,4	20,029
928,8	19,771
929,2	21,457
929,7	17,114
930,1	11,771
930,5	11,857
930,9	13,8
931,3	14,229
931,8	15,886
932,2	14,429
932,6	16,914
933	18,057
933,5	12,771
933,9	12,686
934,3	12,114
934,7	8,629
935,2	5,429
935,6	3,571
936	6,429
936,4	10
936,8	6,457
937,3	10
937,7	9,829
938,1	12,6
938,5	8,857
939	8,086
939,4	8,971
939,8	11,486
940,2	11,657
940,6	12,8
941,1	11,286
941,5	15,914
941,9	10,371
942,3	8
942,8	7,086
943,2	4,743
943,6	10,4
944	9,314
944,4	6,086
944,9	9,143
945,3	8,771
945,7	13,029
946,1	12,886
946,6	8,314
947	12,057
947,4	14,086
947,8	12,314
948,2	12,6
948,7	5,229
949,1	6,457
949,5	5,629
949,9	4,486
950,3	1,629
950,8	2,2
951,2	1,057
951,6	2,657
952	-0,629
952,5	-0,857
952,9	-2,571
953,3	-1,571
953,7	1,057
954,1	6,914
954,6	6,8
955	9,057
955,4	13,886
955,8	13,2
956,2	14,857
956,7	15,4
957,1	8,657
957,5	11
957,9	11,086
958,3	5,543
958,8	8,057
959,2	8,657
959,6	7,343
960	12,657
960,5	9,229
960,9	10,743
961,3	15,314
961,7	10,771
962,1	5,343
962,6	2,314
963	3,029
963,4	5,6
963,8	6,057
964,2	2,714
964,7	2,943
965,1	4,457
965,5	3,514
965,9	-2,171
966,3	-2,2
966,8	-4,086
967,2	-4,657
967,6	-3,486
968	-1,629
968,4	-0,457
968,9	1,4
969,3	-1,543
969,7	0,6
970,1	1,657
970,5	8,829
971	8,143
971,4	11,486
971,8	10,743
972,2	14,629
972,6	11,143
973,1	9,171
973,5	1,857
973,9	1,657
974,3	1,314
974,7	0,371
975,2	-3,229
975,6	-0,371
976	-0,114
976,4	-2
976,8	0,371
977,3	0,971
977,7	1,714
978,1	2,429
978,5	2,029
978,9	1,6
979,4	3,943
979,8	4
980,2	5,886
980,6	6,971
981	7,229
981,5	1,657
981,9	2,029
982,3	7,2
982,7	1,6
983,1	-2,714
983,6	-4,943
984	-11,514
984,4	-5,771
984,8	-5,943
985,2	-9,686
985,6	-7,371
986,1	-8
986,5	-3,714
986,9	1,086
987,3	0,971
987,7	-1,143
988,2	-4,629
988,6	-1,343
989	0,886
989,4	-3,457
989,8	0,171
990,3	0,4
990,7	6,514
991,1	4,943
991,5	6,686
991,9	6,029
992,3	11,514
992,8	9,143
993,2	6,829
993,6	2,286
994	10,429
994,4	6,829
994,9	6,229
995,3	5,229
995,7	5,514
996,1	7,371
996,5	6,486
996,9	-1,629
997,4	-2,2
997,8	1,914
998,2	-1,886
998,6	-4,514
999	-9,8
999,5	-8,771
999,9	-1,086
1000,3	-4,8
1000,7	-8,429
1001,1	-6,6
1001,5	-5,743
1002	-3,486
1002,4	-1,486
1002,8	-8,514
1003,2	-4,771
1003,6	-4,486
1004	-3,257
1004,5	-2,486
1004,9	-2,571
1005,3	-2,057
1005,7	0,543
1006,1	-0,371
1006,6	-1,343
1007	-2,743
1007,4	-0,857
1007,8	0,714
1008,2	0,514
1008,6	2,2
1009,1	5,714
1009,5	7,857
1009,9	8,714
1010,3	6,771
1010,7	6,914
1011,1	6,029
1011,6	12,6
1012	12,657
1012,4	8,914
1012,8	6,686
1013,2	9,171
1013,6	8,829
1014,1	8
1014,5	0,371
1014,9	-1,229
1015,3	-0,171
1015,7	0,571
1016,1	-0,086
1016,6	-1,914
1017	0,771
1017,4	3,629
1017,8	4,371
1018,2	0,4
1018,6	2,171
1019,1	-0,286
1019,5	1,629
1019,9	-0,6
1020,3	-1,086
1020,7	-6,2
1021,1	-5,4
1021,6	-3,743
1022	-0,743
1022,4	-5,029
1022,8	-8,629
1023,2	-8,171
1023,6	-1,4
1024,1	4,886
1024,5	0,2
1024,9	-2,629
1025,3	3,2
1025,7	4,914
1026,1	0,429
1026,6	-6,2
1027	-7,429
1027,4	-9,2
1027,8	-2,943
1028,2	1,229
1028,6	1,857
1029	0,457
1029,5	2,314
1029,9	-4,229
1030,3	-3,514
1030,7	-7,486
1031,1	-8,171
1031,5	-8,571
1032	-6,429
1032,4	-5,629
1032,8	-0,857
1033,2	1,114
1033,6	1,971
1034	-1,743
1034,4	-1,257
1034,9	0,286
1035,3	2,8
1035,7	8,143
1036,1	10,629
1036,5	5,429
1036,9	7,229
1037,4	10,143
1037,8	10,286
1038,2	12,829
1038,6	8,429
1039	1,486
1039,4	6,543
1039,8	5,6
1040,3	10,857
1040,7	14,143
1041,1	8,086
1041,5	8,571
1041,9	16,086
1042,3	18,857
1042,7	16,429
1043,2	15,171
1043,6	6,943
1044	8,686
1044,4	9,2
1044,8	9,629
1045,2	3,771
1045,6	1
1046,1	-3,429
1046,5	5,857
1046,9	7,914
1047,3	4
1047,7	-0,657
1048,1	-0,686
1048,5	0,686
1049	1,857
1049,4	-4,4
1049,8	-6,371
1050,2	-3,714
1050,6	-3,371
1051	-1,314
1051,4	4,8
1051,9	-1,257
1052,3	4,8
1052,7	5,943
1053,1	6,257
1053,5	8,143
1053,9	13,371
1054,3	7,829
1054,8	14,914
1055,2	13,886
1055,6	7,743
1056	9,6
1056,4	14,886
1056,8	14,829
1057,2	13,457
1057,6	6,657
1058,1	8,571
1058,5	11,543
1058,9	14,486
1059,3	13,686
1059,7	10,429
1060,1	11,6
1060,5	15,686
1061	12,714
1061,4	12,457
1061,8	5,229
1062,2	1,6
1062,6	-3,486
1063	-2,2
1063,4	-0,971
1063,8	-3,6
1064,3	0,743
1064,7	5,686
1065,1	4,4
1065,5	7,971
1065,9	4,2
1066,3	3,886
1066,7	6,171
1067,1	7,2
1067,6	7,743
1068	8,714
1068,4	7,771
1068,8	8,571
1069,2	7,143
1069,6	7,057
1070	2,771
1070,4	-0,4
1070,9	-8,114
1071,3	-5,686
1071,7	-0,429
1072,1	1,8
1072,5	-2,543
1072,9	1,629
1073,3	-1,143
1073,7	6,257
1074,2	2,4
1074,6	-0,657
1075	1,857
1075,4	9,057
1075,8	3,2
1076,2	7,943
1076,6	8,971
1077	7,4
1077,5	9,486
1077,9	5,514
1078,3	0,829
1078,7	5,4
1079,1	0,8
1079,5	1
1079,9	1,286
1080,3	0,457
1080,7	1,429
1081,2	1,114
1081,6	2,029
1082	4,457
1082,4	2,629
1082,8	5,257
1083,2	2,257
1083,6	-1,971
1084	-0,171
1084,5	-1,971
1084,9	-3,6
1085,3	-6,914
1085,7	-7,6
1086,1	-1,2
1086,5	1,543
1086,9	3,143
1087,3	5,343
1087,7	4,2
1088,2	10,943
1088,6	12,257
1089	7,857
1089,4	5,057
1089,8	2,314
1090,2	-2,571
1090,6	3,314
1091	3,543
1091,4	0,143
1091,9	0,629
1092,3	4,657
1092,7	0,257
1093,1	5,486
1093,5	4,257
1093,9	3,686
1094,3	7,6
1094,7	11,543
1095,1	14,057
1095,5	19,6
1096	21,2
1096,4	20,086
1096,8	17,543
1097,2	17,771
1097,6	15,857
1098	13,114
1098,4	11,543
1098,8	5,486
1099,2	3,914
1099,6	3,029
1100,1	5
1100,5	3,229
1100,9	-1,029
1101,3	-2,114
1101,7	-0,943
1102,1	3,8
1102,5	2,4
1102,9	1,743
1103,3	-3
1103,7	3,171
1104,2	7,343
1104,6	6,343
1105	2,629
1105,4	4,057
1105,8	0,886
1106,2	5,343
1106,6	2,143
1107	-0,143
1107,4	1
1107,8	0,52
1108,3	0,1
