Data from Subt2_214.txt Node
Date: Sat Aug 26 18:48:23 MSK 2023
User: vat
Spectrometer: MAYP114033
Trigger mode: 0
Integration Time (sec): 1,000000E0
Scans to average: 5
Electric dark correction enabled: true
Nonlinearity correction enabled: false
Boxcar width: 3
XAxis mode: Wavelengths
Number of Pixels in Spectrum: 2068
>>>>>Begin Spectral Data<<<<<
199,4	0,25
199,9	2,5
200,4	0,4
200,8	0,986
201,3	-3,671
201,8	-0,929
202,2	-3,129
202,7	-0,157
203,2	-2,386
203,6	-1,386
204,1	-5,357
204,6	-0,271
205	-0,957
205,5	-1,386
206	-0,243
206,4	0,1
206,9	0,957
207,4	4,843
207,8	1,929
208,3	3,929
208,8	7,586
209,2	9,414
209,7	8,643
210,2	9,729
210,6	10,529
211,1	15,5
211,5	10,929
212	9,729
212,5	1,786
212,9	3,5
213,4	4,471
213,9	3,643
214,3	4,643
214,8	8,014
215,3	9,757
215,7	13,9
216,2	14,671
216,7	13,786
217,1	11,157
217,6	11,7
218,1	6,643
218,5	4,271
219	-0,529
219,5	-0,614
219,9	-3,643
220,4	4,671
220,9	0,186
221,3	3,357
221,8	8,386
222,3	13,3
222,7	14,3
223,2	15,871
223,6	9,014
224,1	5,671
224,6	5,1
225	-2,214
225,5	-5,014
226	-6,214
226,4	-7,243
226,9	-5,357
227,4	-0,014
227,8	-3,1
228,3	-0,786
228,8	1,957
229,2	0,071
229,7	-0,357
230,2	-1,043
230,6	1,929
231,1	7,271
231,5	8,1
232	6,929
232,5	6,9
232,9	8,5
233,4	12,986
233,9	11,5
234,3	8,557
234,8	6,329
235,3	4,957
235,7	12,443
236,2	13,271
236,7	10,014
237,1	8,757
237,6	6,671
238,1	4,614
238,5	-1,7
239	-9,843
239,4	-10,871
239,9	-10,414
240,4	-12,329
240,8	-5,9
241,3	-3,529
241,8	5,443
242,2	7,814
242,7	6,871
243,2	7,986
243,6	11,043
244,1	11,5
244,6	15,9
245	13,129
245,5	14,614
245,9	12,843
246,4	13,157
246,9	11,586
247,3	9,014
247,8	7,929
248,3	7,271
248,7	6,443
249,2	8,643
249,7	7,271
250,1	7,7
250,6	6,386
251	6,157
251,5	7,9
252	7,186
252,4	6,186
252,9	2,871
253,4	0,843
253,8	-1,357
254,3	-4,186
254,8	-1,786
255,2	-2,414
255,7	-1,414
256,1	1,271
256,6	-0,357
257,1	0,271
257,5	-1,071
258	-2,329
258,5	-2,814
258,9	-2,1
259,4	-4,757
259,9	-2,671
260,3	-2,5
260,8	-5,7
261,2	-6,071
261,7	-5,643
262,2	-8,9
262,6	-9,1
263,1	-8,357
263,6	-2,157
264	6,443
264,5	8,414
264,9	7,757
265,4	13,614
265,9	16,443
266,3	17,5
266,8	14,843
267,3	12,843
267,7	9,786
268,2	11,471
268,7	8,643
269,1	5,414
269,6	2,186
270	0,671
270,5	-3,3
271	-5,671
271,4	-6,957
271,9	-8,586
272,4	-4,357
272,8	-1,357
273,3	-3,214
273,7	2,671
274,2	8,529
274,7	10,271
275,1	14,243
275,6	13,014
276,1	8,871
276,5	10,586
277	9,129
277,4	7,643
277,9	7,443
278,4	5,643
278,8	6,814
279,3	10,471
279,8	11,929
280,2	9,957
280,7	11,357
281,1	6,071
281,6	7,214
282,1	4,1
282,5	3,043
283	1,814
283,4	2,729
283,9	-0,871
284,4	4,3
284,8	3,586
285,3	3,129
285,8	2,214
286,2	2,643
286,7	2,729
287,1	3,329
287,6	2,129
288,1	-3,014
288,5	2,614
289	8,329
289,5	9,157
289,9	9,243
290,4	12,471
290,8	14,186
291,3	19,671
291,8	17,414
292,2	13,129
292,7	16,643
293,1	16,843
293,6	14,129
294,1	14,043
294,5	12,5
295	10,471
295,5	8,957
295,9	7,071
296,4	3,529
296,8	2,7
297,3	0,643
297,8	0,243
298,2	-1,186
298,7	3,186
299,1	1,957
299,6	3,643
300,1	5,729
300,5	11,757
301	8,786
301,5	13,471
301,9	10,157
302,4	8,957
302,8	10,871
303,3	8,5
303,8	-0,586
304,2	5,014
304,7	2,243
305,1	0,357
305,6	0,986
306,1	6,414
306,5	10,157
307	15,529
307,4	16,243
307,9	16,643
308,4	17,471
308,8	12,243
309,3	3,671
309,8	1,386
310,2	-0,214
310,7	-6,757
311,1	-9,1
311,6	-7,643
312,1	-3,757
312,5	-0,386
313	-1,786
313,4	-2,929
313,9	2,043
314,4	3,471
314,8	-1,157
315,3	-0,5
315,7	-3,3
316,2	-0,814
316,7	-0,643
317,1	2,529
317,6	2,7
318	10,329
318,5	6,729
319	8,329
319,4	9,157
319,9	16,529
320,3	12,671
320,8	13,471
321,3	11,871
321,7	18,414
322,2	20,586
322,6	19,5
323,1	8,157
323,6	7,814
324	3,386
324,5	3,043
324,9	1,357
325,4	-4,786
325,9	-4,586
326,3	1,386
326,8	0,843
327,2	3,214
327,7	2,471
328,2	2,729
328,6	8,357
329,1	5,386
329,5	4,729
330	3,957
330,5	6,471
330,9	7,757
331,4	4,929
331,8	5,243
332,3	10,186
332,8	12,414
333,2	14,871
333,7	14,1
334,1	15,386
334,6	12,843
335,1	3,1
335,5	1,014
336	-1,157
336,4	-2,443
336,9	1,757
337,4	-1,614
337,8	1,671
338,3	8,157
338,7	7,671
339,2	9,729
339,7	12,957
340,1	8,157
340,6	4,986
341	0,329
341,5	2,757
342	1,1
342,4	-1,557
342,9	-5,3
343,3	-5,3
343,8	-1,186
344,2	2,043
344,7	6,186
345,2	7,3
345,6	4,671
346,1	7,043
346,5	5,214
347	2,186
347,5	1,7
347,9	1,386
348,4	-0,843
348,8	3,043
349,3	5,729
349,8	11,843
350,2	22,1
350,7	26,757
351,1	25,014
351,6	35,471
352	38,557
352,5	39,214
353	44,814
353,4	48,329
353,9	57,757
354,3	73,071
354,8	83,271
355,3	105,929
355,7	128,157
356,2	150,414
356,6	176,557
357,1	208,414
357,5	244,843
358	290,157
358,5	338,7
358,9	392,929
359,4	460,157
359,8	528,186
360,3	609,3
360,8	694,243
361,2	790,814
361,7	892,786
362,1	1018,643
362,6	1146,043
363	1286,443
363,5	1434,729
364	1593,1
364,4	1745,357
364,9	1910,214
365,3	2057,329
365,8	2199,957
366,3	2334,957
366,7	2459,271
367,2	2568,671
367,6	2661,9
368,1	2727,843
368,5	2780,014
369	2806,329
369,5	2815,3
369,9	2792,243
370,4	2743,643
370,8	2685,157
371,3	2606,671
371,7	2513,5
372,2	2408,1
372,7	2291,329
373,1	2168,186
373,6	2043,786
374	1917,957
374,5	1791,843
374,9	1665,614
375,4	1547,043
375,9	1437,386
376,3	1327,757
376,8	1223,471
377,2	1124,414
377,7	1028,729
378,2	944,271
378,6	865,671
379,1	784,986
379,5	723,271
380	665,957
380,4	609,586
380,9	560,643
381,4	510,129
381,8	471,529
382,3	442,443
382,7	406,786
383,2	378,9
383,6	353,3
384,1	331,529
384,6	313,986
385	289,557
385,5	265,871
385,9	245,386
386,4	224,129
386,8	208,329
387,3	192,643
387,7	182,414
388,2	172,1
388,7	158,157
389,1	147,843
389,6	138,471
390	127,5
390,5	119,729
390,9	109,929
391,4	98,557
391,9	92,814
392,3	94,129
392,8	87,357
393,2	80,586
393,7	76,557
394,1	69,214
394,6	69,986
395,1	66,757
395,5	54,957
396	53,671
396,4	53,871
396,9	49,957
397,3	49,471
397,8	47,986
398,2	46,5
398,7	50,614
399,2	51,3
399,6	47,757
400,1	45,871
400,5	43,243
401	40,586
401,4	38,471
401,9	38,814
402,4	38,757
402,8	38,614
403,3	43,843
403,7	41,471
404,2	45,1
404,6	50,271
405,1	46,271
405,5	42,671
406	39,729
406,5	35,243
406,9	39,1
407,4	37,014
407,8	31,671
408,3	36,814
408,7	38,1
409,2	45,157
409,6	51,214
410,1	54,043
410,6	55,957
411	63,9
411,5	67,643
411,9	76,471
412,4	81,671
412,8	83,043
413,3	89,271
413,7	92,014
414,2	94,757
414,7	99,5
415,1	106,643
415,6	111,843
416	118,671
416,5	116,557
416,9	120,9
417,4	128,671
417,8	136,443
418,3	136,786
418,8	142,414
419,2	148,271
419,7	161,643
420,1	173,386
420,6	176,557
421	177,329
421,5	187,186
421,9	193,157
422,4	198,271
422,8	203,814
423,3	205,557
423,8	209,814
424,2	216,157
424,7	222,186
425,1	231,329
425,6	245,557
426	255,986
426,5	270,271
426,9	287,529
427,4	297,014
427,9	302,957
428,3	312,729
428,8	314,729
429,2	320,186
429,7	327,671
430,1	337,557
430,6	353,443
431	371,5
431,5	386,814
431,9	402,871
432,4	425,014
432,8	444,586
433,3	462,986
433,8	482,271
434,2	501,614
434,7	521,443
435,1	544,357
435,6	564,329
436	590,357
436,5	615,957
436,9	638,1
437,4	665,614
437,8	693,7
438,3	729,843
438,8	761,443
439,2	790,329
439,7	823,3
440,1	861,7
440,6	902,7
441	934,957
441,5	965,557
441,9	1005,014
442,4	1039,9
442,8	1075,9
443,3	1118,929
443,7	1154,071
444,2	1203,814
444,7	1249,3
445,1	1298,529
445,6	1350,757
446	1405,043
446,5	1448,443
446,9	1496,443
447,4	1545,271
447,8	1597,3
448,3	1647,957
448,7	1706,157
449,2	1760,871
449,6	1822,757
450,1	1880,843
450,6	1945,557
451	2009,071
451,5	2073,729
451,9	2141,357
452,4	2213,443
452,8	2279,043
453,3	2359,329
453,7	2424,843
454,2	2498,786
454,6	2571,757
455,1	2642,186
455,5	2708,7
456	2789,129
456,4	2859,929
456,9	2944,5
457,3	3016,814
457,8	3090,557
458,3	3173,129
458,7	3257,557
459,2	3334,757
459,6	3411,386
460,1	3491,414
460,5	3574,843
461	3661,357
461,4	3740,5
461,9	3822,357
462,3	3912,729
462,8	4001,9
463,2	4081,329
463,7	4168,271
464,1	4254,386
464,6	4339,014
465	4423,3
465,5	4498,414
466	4585,786
466,4	4666,557
466,9	4753,729
467,3	4835,129
467,8	4916,5
468,2	5004,5
468,7	5086,186
469,1	5170,157
469,6	5254,557
470	5336,671
470,5	5414,986
470,9	5492,3
471,4	5562,957
471,8	5638,957
472,3	5710,586
472,7	5789,243
473,2	5861,243
473,6	5925,014
474,1	6001,586
474,5	6078,3
475	6153,871
475,4	6224,243
475,9	6293,014
476,4	6352,586
476,8	6428,986
477,3	6485,9
477,7	6545,186
478,2	6604,529
478,6	6659,271
479,1	6700,043
479,5	6756,957
480	6801,757
480,4	6851,271
480,9	6890,957
481,3	6926,1
481,8	6963,043
482,2	7002,357
482,7	7032,9
483,1	7063,414
483,6	7096,043
484	7121,214
484,5	7155,814
484,9	7175,386
485,4	7198,471
485,8	7215,671
486,3	7234,043
486,7	7245,957
487,2	7263,214
487,6	7268,843
488,1	7277,157
488,5	7284,414
489	7298,871
489,4	7306,729
489,9	7303,357
490,4	7300,557
490,8	7286,414
491,3	7286,9
491,7	7277,129
492,2	7261,129
492,6	7242,557
493,1	7228,5
493,5	7201,814
494	7180,329
494,4	7157,271
494,9	7131,243
495,3	7105,843
495,8	7079,929
496,2	7050,986
496,7	7026,9
497,1	7004,071
497,6	6970,386
498	6942,786
498,5	6907,3
498,9	6872,386
499,4	6841,757
499,8	6806,843
500,3	6770,071
500,7	6727,243
501,2	6687,3
501,6	6649,757
502,1	6610,043
502,5	6565,814
503	6514,843
503,4	6474,414
503,9	6429,814
504,3	6387,071
504,8	6337,329
505,2	6285,643
505,7	6237,929
506,1	6197,386
506,6	6139,729
507	6092,1
507,5	6039,843
507,9	5987,586
508,4	5940,729
508,8	5889,357
509,3	5833,1
509,7	5788,014
510,2	5736,814
510,6	5682,271
511,1	5627,757
511,5	5570,071
512	5514,214
512,4	5467,071
512,9	5405,471
513,3	5349,871
513,8	5296,786
514,2	5248,157
514,7	5192,557
515,1	5141,529
515,6	5077,9
516	5020,929
516,5	4966,986
516,9	4917,671
517,4	4863,243
517,8	4809,9
518,3	4754,186
518,7	4705,5
519,2	4657,243
519,6	4603,443
520,1	4542,9
520,5	4490,071
521	4431,757
521,4	4382,329
521,9	4334,671
522,3	4290,586
522,8	4244,071
523,2	4203,243
523,7	4150,157
524,1	4112,843
524,6	4060,414
525	4006,243
525,5	3954,043
525,9	3907,271
526,4	3855,414
526,8	3810,129
527,3	3763,957
527,7	3720,271
528,2	3680,214
528,6	3636,471
529,1	3595,129
529,5	3559,043
530	3518,986
530,4	3479,3
530,9	3438,471
531,3	3394,471
531,8	3359,529
532,2	3318,043
532,6	3268,586
533,1	3229,5
533,5	3189,329
534	3148,7
534,4	3112,957
534,9	3077,329
535,3	3037,614
535,8	3003,414
536,2	2973,471
536,7	2939,786
537,1	2910,557
537,6	2882,243
538	2846,414
538,5	2823,7
538,9	2787,157
539,4	2761,643
539,8	2729,3
540,3	2697,786
540,7	2665,957
541,2	2636,786
541,6	2603,071
542,1	2581,757
542,5	2547,186
543	2521,729
543,4	2492,614
543,9	2463,871
544,3	2435,443
544,8	2407,557
545,2	2379,071
545,7	2350,986
546,1	2329,557
546,5	2308,814
547	2289,271
547,4	2270,214
547,9	2249,129
548,3	2229,157
548,8	2209,443
549,2	2184,157
549,7	2160,471
550,1	2141,014
550,6	2119,729
551	2095,529
551,5	2074,186
551,9	2053,757
552,4	2036,3
552,8	2019,471
553,3	1994,214
553,7	1969,014
554,2	1953,7
554,6	1940,271
555,1	1924,529
555,5	1900,929
555,9	1888,871
556,4	1872,586
556,8	1862,014
557,3	1848,929
557,7	1831,071
558,2	1813,243
558,6	1806,1
559,1	1782,329
559,5	1773,186
560	1758,586
560,4	1740,529
560,9	1720,614
561,3	1706,3
561,8	1684,443
562,2	1676,5
562,7	1656,414
563,1	1646,871
563,6	1628,329
564	1623,3
564,4	1605,614
564,9	1594,671
565,3	1578,386
565,8	1567,186
566,2	1555,043
566,7	1548,757
567,1	1534,786
567,6	1525,5
568	1516,414
568,5	1503,957
568,9	1496,9
569,4	1486,043
569,8	1473,986
570,3	1460,271
570,7	1444,786
571,1	1437,157
571,6	1429,843
572	1415,5
572,5	1400,243
572,9	1389,414
573,4	1378,357
573,8	1377,671
574,3	1359,271
574,7	1346,843
575,2	1335,043
575,6	1325,157
576,1	1317,843
576,5	1316,586
576,9	1298,329
577,4	1294,414
577,8	1282,186
578,3	1273,614
578,7	1263,557
579,2	1255,786
579,6	1238,9
580,1	1233,014
580,5	1223,243
581	1219,929
581,4	1212,814
581,9	1202,929
582,3	1191,357
582,7	1186,757
583,2	1178,014
583,6	1171,929
584,1	1166,214
584,5	1155,386
585	1149,5
585,4	1139,214
585,9	1126,243
586,3	1122,729
586,8	1114,729
587,2	1100,1
587,6	1100,557
588,1	1099,3
588,5	1092,329
589	1091,186
589,4	1079,5
589,9	1071,214
590,3	1070,9
590,8	1061,871
591,2	1054,014
591,7	1054,643
592,1	1047,386
592,5	1046,1
593	1040,386
593,4	1026,786
593,9	1016,071
594,3	1005,757
594,8	994,786
595,2	986,357
595,7	980,614
596,1	972,471
596,6	970,843
597	969,014
597,4	963,671
597,9	955,614
598,3	954,643
598,8	948,586
599,2	945,471
599,7	940,986
600,1	934,786
600,6	933,643
601	937,7
601,4	934,214
601,9	929,243
602,3	924,3
602,8	918,271
603,2	913,386
603,7	903,529
604,1	889,786
604,6	881,186
605	873,814
605,4	874,271
605,9	868,614
606,3	859,386
606,8	851,071
607,2	847,7
607,7	840,7
608,1	837,671
608,6	828,271
609	825,9
609,4	828,3
609,9	829,529
610,3	831,014
610,8	827,814
611,2	821,071
611,7	814,5
612,1	808,186
612,6	801,643
613	799,786
613,4	790,957
613,9	784,071
614,3	779,871
614,8	779,329
615,2	774,757
615,7	770,671
616,1	763,757
616,6	754,929
617	753,814
617,4	753,329
617,9	749,357
618,3	746,5
618,8	747,557
619,2	740,129
619,7	742,7
620,1	739,1
620,5	732,614
621	725,986
621,4	721,1
621,9	711,557
622,3	707,614
622,8	699,643
623,2	693,871
623,6	693,529
624,1	690,386
624,5	689,3
625	686,3
625,4	683,271
625,9	681,071
626,3	678,614
626,8	667,871
627,2	663,443
627,6	655,529
628,1	648,014
628,5	649,557
629	642,329
629,4	638,243
629,9	634,757
630,3	628,329
630,7	623,871
631,2	623,329
631,6	615,157
632,1	614,014
632,5	611,557
633	607,9
633,4	603,243
633,8	601,1
634,3	598,186
634,7	593,529
635,2	584,814
635,6	579,214
636,1	576,3
636,5	572,271
636,9	563,814
637,4	557,329
637,8	551,729
638,3	546,529
638,7	540,043
639,2	536,271
639,6	538,614
640	540,643
640,5	538,814
640,9	535,7
641,4	541,957
641,8	540,529
642,2	537,3
642,7	535,614
643,1	535,957
643,6	533,186
644	533,957
644,5	529,671
644,9	529,386
645,3	528,7
645,8	517,729
646,2	512,157
646,7	506,729
647,1	501,271
647,6	494,1
648	489,043
648,4	480,643
648,9	483,414
649,3	477,443
649,8	477,214
650,2	471,643
650,6	472,357
651,1	467,957
651,5	473,757
652	467,986
652,4	467,786
652,9	464,443
653,3	463,929
653,7	455,386
654,2	453,757
654,6	446,1
655,1	449,043
655,5	449,586
655,9	445,957
656,4	445,386
656,8	447,671
657,3	446,3
657,7	446,757
658,2	438,186
658,6	430,271
659	427,3
659,5	421,329
659,9	415,414
660,4	414,957
660,8	407,957
661,2	405,557
661,7	405,129
662,1	402,7
662,6	400,986
663	404,414
663,4	396,843
663,9	396,586
664,3	394,929
664,8	387,843
665,2	381,814
665,6	376,043
666,1	366,986
666,5	368,186
667	365,957
667,4	360,243
667,9	360,786
668,3	360,529
668,7	357,014
669,2	361,129
669,6	357,5
670,1	355,729
670,5	353,9
670,9	353,014
671,4	352,557
671,8	356,186
672,3	354,529
672,7	352,329
673,1	344,586
673,6	342,929
674	340,129
674,5	333,471
674,9	328,614
675,3	318,471
675,8	316,5
676,2	315,014
676,7	312,529
677,1	309,271
677,5	307,614
678	308,271
678,4	313,529
678,9	309,557
679,3	310,3
679,7	309,157
680,2	301,814
680,6	300,157
681,1	297,671
681,5	291,986
681,9	298,043
682,4	298,357
682,8	298,9
683,3	303,443
683,7	308,186
684,1	308,329
684,6	307,043
685	296,329
685,5	290,7
685,9	281,157
686,3	275,329
686,8	268,643
687,2	262,757
687,7	257,043
688,1	254,843
688,5	253,386
689	258,243
689,4	259,957
689,9	255,529
690,3	249,443
690,7	249,586
691,2	251,929
691,6	250,157
692	246,786
692,5	244,757
692,9	244,729
693,4	248,3
693,8	244,414
694,2	239,557
694,7	239,129
695,1	236,5
695,6	234,986
696	237,643
696,4	232,7
696,9	231,186
697,3	228,986
697,8	228,529
698,2	223,243
698,6	221,071
699,1	215,929
699,5	221,529
699,9	220,529
700,4	216,243
700,8	213,386
701,3	217,1
701,7	214,643
702,1	212,443
702,6	207,643
703	211,214
703,5	211,557
703,9	207,929
704,3	210,529
704,8	210,471
705,2	209,557
705,6	208,9
706,1	202,043
706,5	200,729
707	199,471
707,4	196,557
707,8	191,757
708,3	194,186
708,7	186,986
709,2	190,986
709,6	191,243
710	196,243
710,5	189,243
710,9	189,214
711,3	182,814
711,8	184,871
712,2	180,586
712,7	178,186
713,1	174,9
713,5	180,443
714	182,5
714,4	183,443
714,8	184,471
715,3	183,214
715,7	185,814
716,2	181,129
716,6	176,386
717	168,386
717,5	165,9
717,9	169,471
718,3	166,157
718,8	163,9
719,2	161,757
719,7	160,214
720,1	166,443
720,5	169,671
721	161,443
721,4	163,243
721,8	166,043
722,3	165,414
722,7	166,814
723,2	158,443
723,6	151,814
724	150,529
724,5	144,957
724,9	137,614
725,3	132,843
725,8	130,3
726,2	133,243
726,7	134,357
727,1	135,9
727,5	137,5
728	136,843
728,4	140,729
728,8	137,9
729,3	135,643
729,7	131,5
730,1	130,129
730,6	126,443
731	127,386
731,5	127,9
731,9	129,243
732,3	129,329
732,8	134,871
733,2	132,671
733,6	136,071
734,1	134,071
734,5	131,186
734,9	132,871
735,4	135,7
735,8	128,271
736,3	131,186
736,7	128,643
737,1	129,871
737,6	129,129
738	122,814
738,4	117,557
738,9	121,814
739,3	120,9
739,7	122,157
740,2	118,157
740,6	121,871
741,1	124,929
741,5	120,386
741,9	118,386
742,4	117,9
742,8	115,671
743,2	118,9
743,7	116,643
744,1	115,471
744,5	118,271
745	115,443
745,4	106,9
745,8	107,957
746,3	105,986
746,7	102,986
747,2	102,5
747,6	104,3
748	107,7
748,5	110,929
748,9	107,243
749,3	101,614
749,8	101,814
750,2	100,929
750,6	98,7
751,1	100,5
751,5	99,929
751,9	103,957
752,4	108,757
752,8	106,614
753,3	106,271
753,7	108,186
754,1	99,586
754,6	98,757
755	93,357
755,4	91,957
755,9	90,586
756,3	89,5
756,7	89,643
757,2	92,3
757,6	94,071
758	97,557
758,5	96,071
758,9	94,529
759,3	94,843
759,8	89,929
760,2	89,843
760,6	91,814
761,1	88,671
761,5	89,5
761,9	93,986
762,4	91,986
762,8	93,957
763,3	93,5
763,7	92,5
764,1	96,843
764,6	94,186
765	93,786
765,4	94,929
765,9	93,814
766,3	95,386
766,7	90,757
767,2	83,843
767,6	87,843
768	85,386
768,5	80,929
768,9	80,671
769,3	76,157
769,8	74,843
770,2	78,957
770,6	74,243
771,1	75,129
771,5	77,786
771,9	79,386
772,4	83,271
772,8	85,386
773,2	83,243
773,7	82,957
774,1	81,786
774,5	74,9
775	71,957
775,4	72,3
775,8	71,186
776,3	71,643
776,7	72,671
777,1	73,071
777,6	79,643
778	84,671
778,4	78,471
778,9	80,586
779,3	79,014
779,7	78,671
780,2	75,529
780,6	73,071
781	65,329
781,5	67,757
781,9	67,843
782,3	65,843
782,8	65,157
783,2	64,357
783,6	69,471
784,1	69,7
784,5	67,729
784,9	66,9
785,4	74,443
785,8	74,986
786,2	76,643
786,7	72,357
787,1	72,157
787,5	72,329
788	67,614
788,4	61,586
788,8	59,7
789,3	57,243
789,7	57,729
790,1	59,157
790,6	64,586
791	65,271
791,4	66,786
791,9	67,586
792,3	63,1
792,7	62,871
793,2	61,986
793,6	57,329
794	55,5
794,5	55,3
794,9	55,271
795,3	61,414
795,8	55,671
796,2	56,814
796,6	57,614
797,1	58,271
797,5	53,043
797,9	49,7
798,4	47,557
798,8	49,671
799,2	45,557
799,7	44,3
800,1	42,843
800,5	41,243
801	44,814
801,4	42,471
801,8	43,243
802,2	45,5
802,7	42,729
803,1	48,1
803,5	51,5
804	45,5
804,4	52,043
804,8	54,157
805,3	52,329
805,7	52,814
806,1	47,986
806,6	50,271
807	52,1
807,4	46,043
807,9	37,329
808,3	39,529
808,7	40,986
809,2	43,929
809,6	49,5
810	48,614
810,4	49,271
810,9	54,329
811,3	52,957
811,7	50,929
812,2	50,671
812,6	41,643
813	42,129
813,5	44,443
813,9	46,214
814,3	44,386
814,8	44,443
815,2	41,1
815,6	40,129
816,1	44,643
816,5	43,729
816,9	42,1
817,3	45,614
817,8	48,157
818,2	50,5
818,6	49,843
819,1	47,3
819,5	44,243
819,9	45,729
820,4	44,929
820,8	38,186
821,2	35,529
821,7	37,643
822,1	38,071
822,5	43,5
822,9	38,471
823,4	36,471
823,8	41,986
824,2	44,414
824,7	40,014
825,1	35,129
825,5	29,214
826	26,871
826,4	27,529
826,8	24,014
827,3	25,957
827,7	28,3
828,1	33,214
828,5	36,129
829	35,186
829,4	32,757
829,8	35,014
830,3	31,586
830,7	27,129
831,1	25,586
831,6	24,071
832	26,3
832,4	27,871
832,8	27,5
833,3	24,729
833,7	26,814
834,1	22,157
834,6	19,071
835	23,186
835,4	22,9
835,8	17,814
836,3	16,643
836,7	22,5
837,1	23,471
837,6	28,357
838	23,614
838,4	26,214
838,9	32,7
839,3	32,1
839,7	28,157
840,1	24,614
840,6	23,643
841	29,814
841,4	28,814
841,9	26,271
842,3	26,871
842,7	30,071
843,1	32,357
843,6	32,929
844	29,7
844,4	32,329
844,9	30,729
845,3	35,986
845,7	31,614
846,2	32,671
846,6	30,271
847	32,1
847,4	29,014
847,9	33,557
848,3	30,271
848,7	32,329
849,2	31,3
849,6	27,129
850	28,871
850,4	26,043
850,9	25,529
851,3	28,5
851,7	28,757
852,2	30,071
852,6	33,529
853	33,157
853,4	30,643
853,9	25,929
854,3	21,986
854,7	21,129
855,2	21,7
855,6	21,414
856	15,443
856,4	15,386
856,9	18,386
857,3	22,786
857,7	23,929
858,2	30,386
858,6	31,586
859	35,386
859,4	38,557
859,9	35,871
860,3	29,071
860,7	26,3
861,1	22,643
861,6	19,957
862	14,129
862,4	11,671
862,9	13,329
863,3	13,3
863,7	12,186
864,1	10,443
864,6	10,386
865	16,043
865,4	17,157
865,9	19,5
866,3	23,157
866,7	23,786
867,1	19,471
867,6	22,129
868	17,3
868,4	15,414
868,8	17,043
869,3	14,443
869,7	15,214
870,1	14,557
870,6	12,786
871	-7,071
871,4	-0,786
871,8	-7,471
872,3	-3,957
872,7	-3,329
873,1	0,671
873,5	1,071
874	24,271
874,4	19,386
874,8	16,7
875,3	13,1
875,7	12,043
876,1	10,843
876,5	9,329
877	8,243
877,4	7,786
877,8	14,357
878,2	14,043
878,7	14,471
879,1	15,529
879,5	16,986
879,9	16,414
880,4	17,729
880,8	13,443
881,2	13,329
881,7	11,871
882,1	11,243
882,5	10,557
882,9	10,814
883,4	9,643
883,8	12,271
884,2	16,586
884,6	17,786
885,1	16,957
885,5	17,243
885,9	15,586
886,3	17,129
886,8	15,129
887,2	12,1
887,6	7,157
888	7,214
888,5	8,357
888,9	5,5
889,3	2,843
889,8	2,071
890,2	1,271
890,6	1,5
891	3,586
891,5	0,671
891,9	3,129
892,3	1,729
892,7	4,5
893,2	8,843
893,6	14,786
894	15,043
894,4	14,814
894,9	18,186
895,3	20,586
895,7	20,929
896,1	17,386
896,6	14,529
897	17,1
897,4	22,929
897,8	23,614
898,3	26,729
898,7	19,557
899,1	18,614
899,5	17,957
900	7,471
900,4	0,557
900,8	-3,929
901,2	-9,157
901,7	-4,357
902,1	-3,986
902,5	-2,414
902,9	0,271
903,4	4,929
903,8	8,243
904,2	8,443
904,6	7,271
905,1	6,9
905,5	5,643
905,9	11,614
906,3	12,871
906,8	13,729
907,2	16,9
907,6	20,957
908	21,043
908,5	21,014
908,9	16,443
909,3	12,071
909,7	9,929
910,2	9,243
910,6	10,471
911	9,357
911,4	11,243
911,9	9,729
912,3	10,014
912,7	13,7
913,1	18,1
913,6	13,1
914	14,586
914,4	14,186
914,8	14,443
915,3	13,871
915,7	9,214
916,1	2,357
916,5	6,186
916,9	7,1
917,4	8,271
917,8	10,614
918,2	7,529
918,6	5,043
919,1	6,357
919,5	6,586
919,9	5,814
920,3	3,814
920,8	4,3
921,2	5,9
921,6	9,871
922	11,414
922,5	7,586
922,9	6,843
923,3	2,329
923,7	1,929
924,2	3,5
924,6	3,1
925	2,586
925,4	0,557
925,8	3,671
926,3	3,129
926,7	1,471
927,1	-1,443
927,5	-2,071
928	-5,043
928,4	-2,929
928,8	-2,986
929,2	-1,157
929,7	1,414
930,1	6,043
930,5	3,614
930,9	7,871
931,3	4,1
931,8	1,814
932,2	3,643
932,6	1,357
933	-6,157
933,5	-1,7
933,9	-1,214
934,3	4,5
934,7	2,957
935,2	2,5
935,6	0,443
936	5,529
936,4	3,386
936,8	3,614
937,3	-0,814
937,7	-0,9
938,1	3,271
938,5	2,729
939	5,186
939,4	6,757
939,8	4,071
940,2	9,071
940,6	14,529
941,1	10,786
941,5	15,3
941,9	9,271
942,3	7,186
942,8	10,443
943,2	9,786
943,6	4,214
944	1,9
944,4	1,243
944,9	4,929
945,3	4,443
945,7	-0,614
946,1	-0,414
946,6	-1,043
947	5,071
947,4	7,3
947,8	10,329
948,2	10,129
948,7	13,3
949,1	8,471
949,5	15,557
949,9	12,214
950,3	10,729
950,8	8,471
951,2	8,814
951,6	3,186
952	7,1
952,5	-1,186
952,9	-0,843
953,3	-2,843
953,7	-3,5
954,1	-0,214
954,6	5,7
955	4,414
955,4	3,786
955,8	7,3
956,2	6,757
956,7	11,986
957,1	4,843
957,5	6,157
957,9	6,471
958,3	7,443
958,8	8,186
959,2	12,043
959,6	9,529
960	13,386
960,5	15,586
960,9	20,671
961,3	21,614
961,7	19,043
962,1	15,957
962,6	14,271
963	15,386
963,4	8,214
963,8	3,471
964,2	3,643
964,7	1,9
965,1	5,557
965,5	7,529
965,9	7,929
966,3	11,471
966,8	12,329
967,2	16,557
967,6	19,729
968	15,014
968,4	12,557
968,9	9,1
969,3	11,186
969,7	7,557
970,1	5,586
970,5	1,471
971	4,986
971,4	4,843
971,8	8,5
972,2	4,386
972,6	3,3
973,1	2,329
973,5	3,043
973,9	5,014
974,3	6,871
974,7	11,243
975,2	14,443
975,6	17,043
976	19,586
976,4	18,786
976,8	16,843
977,3	9,043
977,7	0,986
978,1	-1,557
978,5	-2,3
978,9	-7,957
979,4	-8,3
979,8	-10,329
980,2	-2,386
980,6	-2,129
981	1,871
981,5	0,814
981,9	5,129
982,3	8,957
982,7	9,386
983,1	2,843
983,6	5,357
984	2,157
984,4	3,586
984,8	-0,014
985,2	-0,9
985,6	0,357
986,1	2,443
986,5	4,214
986,9	2,729
987,3	4,814
987,7	7,814
988,2	7,1
988,6	3,643
989	6,243
989,4	4,671
989,8	3,929
990,3	3,129
990,7	1,357
991,1	-3,929
991,5	-0,986
991,9	0,414
992,3	1,5
992,8	1,243
993,2	1,557
993,6	1,014
994	4,9
994,4	5,586
994,9	3,729
995,3	0,5
995,7	2,471
996,1	2,414
996,5	5,929
996,9	5,614
997,4	8,7
997,8	2,929
998,2	2,3
998,6	-5,3
999	-8,271
999,5	-10,757
999,9	-11,414
1000,3	-16,471
1000,7	-10,357
1001,1	-10,586
1001,5	-0,9
1002	3,471
1002,4	5,929
1002,8	9,329
1003,2	13,157
1003,6	16,957
1004	22,1
1004,5	17,3
1004,9	14,757
1005,3	12,043
1005,7	12,357
1006,1	6,929
1006,6	0,7
1007	2,557
1007,4	0,929
1007,8	1,157
1008,2	0,329
1008,6	2,671
1009,1	1,957
1009,5	6,357
1009,9	5,014
1010,3	10,129
1010,7	12,329
1011,1	11,586
1011,6	6,157
1012	10,7
1012,4	6,357
1012,8	1,5
1013,2	4,586
1013,6	0,386
1014,1	3,986
1014,5	5,1
1014,9	4,957
1015,3	4,414
1015,7	6,843
1016,1	3,129
1016,6	3,357
1017	1,271
1017,4	2,586
1017,8	1,386
1018,2	6,729
1018,6	4,643
1019,1	4,329
1019,5	3,557
1019,9	5,043
1020,3	3,586
1020,7	4,214
1021,1	1,1
1021,6	2,986
1022	5,243
1022,4	8,243
1022,8	10,386
1023,2	11,671
1023,6	11,129
1024,1	17,271
1024,5	18,614
1024,9	17,243
1025,3	18,014
1025,7	15,214
1026,1	17,3
1026,6	15,671
1027	9,414
1027,4	9,129
1027,8	10,786
1028,2	8,443
1028,6	12,214
1029	9,214
1029,5	12,471
1029,9	14,529
1030,3	15,186
1030,7	11,643
1031,1	15,386
1031,5	6,5
1032	7,5
1032,4	3,843
1032,8	2,929
1033,2	1,5
1033,6	3,986
1034	1,329
1034,4	2,414
1034,9	1,986
1035,3	0,3
1035,7	4,7
1036,1	6,9
1036,5	5,129
1036,9	9,186
1037,4	19,129
1037,8	17,3
1038,2	19,443
1038,6	17,443
1039	18,186
1039,4	24,243
1039,8	15,586
1040,3	9,271
1040,7	8,529
1041,1	12,471
1041,5	12,443
1041,9	6,814
1042,3	-0,071
1042,7	9,9
1043,2	10,214
1043,6	8,271
1044	3,643
1044,4	1,414
1044,8	4,214
1045,2	8,157
1045,6	3,357
1046,1	0,9
1046,5	1,414
1046,9	1,386
1047,3	1,271
1047,7	-1,414
1048,1	-3,071
1048,5	-4,471
1049	3,9
1049,4	10,643
1049,8	14,157
1050,2	14,186
1050,6	20,357
1051	19,329
1051,4	17,386
1051,9	13,071
1052,3	13,5
1052,7	16,071
1053,1	14,671
1053,5	13,671
1053,9	12,5
1054,3	15,557
1054,8	15,386
1055,2	12,1
1055,6	14,5
1056	16,614
1056,4	10,186
1056,8	14,043
1057,2	14,643
1057,6	12,986
1058,1	12,414
1058,5	-0,043
1058,9	-0,243
1059,3	5,271
1059,7	4,671
1060,1	3,043
1060,5	4,443
1061	2,357
1061,4	10,386
1061,8	8,643
1062,2	7,729
1062,6	5,443
1063	7,414
1063,4	6,671
1063,8	7,043
1064,3	3,271
1064,7	3,643
1065,1	0,643
1065,5	0,014
1065,9	1,129
1066,3	2,014
1066,7	1,471
1067,1	0,7
1067,6	3,5
1068	-0,243
1068,4	0,757
1068,8	2,014
1069,2	-0,757
1069,6	-0,729
1070	7,557
1070,4	2,986
1070,9	6,843
1071,3	6,557
1071,7	-0,386
1072,1	-2,529
1072,5	-1,729
1072,9	-9,871
1073,3	-8,043
1073,7	-9,443
1074,2	-10,814
1074,6	-7,357
1075	-1,329
1075,4	2,557
1075,8	4,7
1076,2	5,614
1076,6	12,929
1077	15,071
1077,5	19,471
1077,9	15,871
1078,3	10,386
1078,7	9,671
1079,1	9,443
1079,5	6,671
1079,9	6,843
1080,3	5,557
1080,7	7,1
1081,2	12,814
1081,6	12,757
1082	8,357
1082,4	10,757
1082,8	8,7
1083,2	6,529
1083,6	6,329
1084	2,443
1084,5	4,843
1084,9	5,471
1085,3	-5,443
1085,7	-3,157
1086,1	-5,843
1086,5	-2,9
1086,9	1,414
1087,3	-0,043
1087,7	3,3
1088,2	10,414
1088,6	6,5
1089	12,071
1089,4	6,329
1089,8	3,071
1090,2	2,729
1090,6	5,243
1091	6,5
1091,4	10,529
1091,9	6,129
1092,3	8,814
1092,7	8,386
1093,1	11,014
1093,5	12,357
1093,9	8,614
1094,3	13,157
1094,7	12,014
1095,1	13,014
1095,5	14,786
1096	11,414
1096,4	7,243
1096,8	9,5
1097,2	4,186
1097,6	9,357
1098	8,043
1098,4	8,929
1098,8	9,214
1099,2	16,9
1099,6	14,757
1100,1	11,3
1100,5	7,929
1100,9	8,729
1101,3	8,871
1101,7	7,757
1102,1	-1,3
1102,5	1,186
1102,9	3,757
1103,3	5,443
1103,7	4,329
1104,2	0,729
1104,6	0,043
1105	1,529
1105,4	-0,386
1105,8	-1,5
1106,2	-3,329
1106,6	-3,129
1107	-2,529
1107,4	-1,233
1107,8	-1,26
1108,3	-0,5
