Data from Subt2_258.txt Node
Date: Sat Aug 26 19:00:53 MSK 2023
User: vat
Spectrometer: MAYP114033
Trigger mode: 0
Integration Time (sec): 1,000000E0
Scans to average: 5
Electric dark correction enabled: true
Nonlinearity correction enabled: false
Boxcar width: 3
XAxis mode: Wavelengths
Number of Pixels in Spectrum: 2068
>>>>>Begin Spectral Data<<<<<
199,4	-0,683
199,9	2,687
200,4	1,567
200,8	3,167
201,3	3,481
201,8	4,481
202,2	4,195
202,7	8,91
203,2	4,881
203,6	5,795
204,1	2,252
204,6	0,681
205	6,11
205,5	7,11
206	2,195
206,4	3,738
206,9	3,452
207,4	7,195
207,8	5,167
208,3	-1,262
208,8	-3,719
209,2	-2,662
209,7	-1,919
210,2	-2,233
210,6	-3,776
211,1	2,681
211,5	0,624
212	1,052
212,5	1,652
212,9	1,224
213,4	0,91
213,9	-1,89
214,3	-0,605
214,8	0,367
215,3	0,767
215,7	2,538
216,2	2,338
216,7	4,11
217,1	10,538
217,6	7,852
218,1	10,681
218,5	7,624
219	-3,348
219,5	-2,033
219,9	-6,776
220,4	-2,319
220,9	-2,948
221,3	-3,148
221,8	2,967
222,3	13,881
222,7	15,51
223,2	21,881
223,6	13,395
224,1	11,967
224,6	14,024
225	10,138
225,5	8,11
226	5,338
226,4	2,652
226,9	4,481
227,4	8,281
227,8	3,881
228,3	4,995
228,8	4,081
229,2	3,367
229,7	4,995
230,2	4,281
230,6	6,424
231,1	11,767
231,5	13,252
232	14,91
232,5	16,31
232,9	14,424
233,4	14,367
233,9	8,595
234,3	3,995
234,8	4,681
235,3	3,395
235,7	4,967
236,2	5,281
236,7	3,624
237,1	6,681
237,6	3,652
238,1	0,824
238,5	-1,062
239	0,281
239,4	5,338
239,9	5,252
240,4	3,224
240,8	9,652
241,3	5,624
241,8	6,11
242,2	0,795
242,7	-5,005
243,2	-1,633
243,6	-1,548
244,1	-0,633
244,6	3,767
245	6,081
245,5	9,424
245,9	10,91
246,4	9,795
246,9	10,881
247,3	7,938
247,8	11,795
248,3	15,538
248,7	17,024
249,2	17,795
249,7	16,252
250,1	15,738
250,6	14,852
251	11,967
251,5	8,224
252	7,252
252,4	7,51
252,9	3,938
253,4	1,567
253,8	1,367
254,3	-1,662
254,8	-6,633
255,2	-9,405
255,7	-11,805
256,1	-3,29
256,6	2,167
257,1	1,11
257,5	0,795
258	6,395
258,5	3,967
258,9	1,224
259,4	-1,833
259,9	-4,176
260,3	-4,519
260,8	-0,176
261,2	-0,148
261,7	1,51
262,2	1,852
262,6	-2,348
263,1	-0,719
263,6	2,824
264	7,138
264,5	8,538
264,9	10,024
265,4	16,595
265,9	19,252
266,3	18,567
266,8	17,452
267,3	14,395
267,7	9,881
268,2	16,767
268,7	18,081
269,1	22,224
269,6	19,567
270	25,11
270,5	20,652
271	25,167
271,4	14,71
271,9	11,252
272,4	8,995
272,8	11,224
273,3	3,967
273,7	7,538
274,2	4,995
274,7	10,51
275,1	9,195
275,6	8,652
276,1	6,481
276,5	9,281
277	11,281
277,4	12,624
277,9	12,967
278,4	14,195
278,8	12,995
279,3	17,538
279,8	18,652
280,2	17,652
280,7	17,081
281,1	17,224
281,6	16,281
282,1	17,367
282,5	15,681
283	13,252
283,4	11,767
283,9	13,138
284,4	13,424
284,8	12,195
285,3	8,424
285,8	6,852
286,2	2,424
286,7	0,167
287,1	-4,976
287,6	-5,462
288,1	-7,433
288,5	-1,89
289	-5,09
289,5	0,824
289,9	3,624
290,4	10,138
290,8	7,138
291,3	8,624
291,8	5,367
292,2	5,881
292,7	7,11
293,1	3,595
293,6	0,852
294,1	2,767
294,5	8,024
295	10,481
295,5	10,338
295,9	8,595
296,4	6,738
296,8	6,481
297,3	5,51
297,8	0,595
298,2	-4,348
298,7	1,424
299,1	2,167
299,6	6,424
300,1	7,71
300,5	10,052
301	13,767
301,5	23,195
301,9	18,538
302,4	18,11
302,8	18,881
303,3	16,281
303,8	12,395
304,2	10,967
304,7	2,91
305,1	-0,405
305,6	-3,776
306,1	-0,262
306,5	0,624
307	5,91
307,4	6,795
307,9	10,367
308,4	12,824
308,8	12,881
309,3	11,395
309,8	8,51
310,2	7,995
310,7	2,252
311,1	-0,89
311,6	-3,033
312,1	-0,462
312,5	0,452
313	7,11
313,4	5,11
313,9	8,424
314,4	11,738
314,8	10,31
315,3	10,567
315,7	1,852
316,2	-0,29
316,7	-2,405
317,1	1,167
317,6	-1,033
318	6,567
318,5	3,738
319	11,395
319,4	14,681
319,9	20,281
320,3	17,881
320,8	18,424
321,3	18,538
321,7	20,281
322,2	18,767
322,6	14,024
323,1	6,967
323,6	7,081
324	5,452
324,5	3,081
324,9	4,281
325,4	2,081
325,9	5,195
326,3	8,995
326,8	10,167
327,2	9,91
327,7	10,738
328,2	10,824
328,6	10,681
329,1	0,71
329,5	-0,262
330	-3,69
330,5	-2,605
330,9	-1,862
331,4	0,881
331,8	-1,605
332,3	7,024
332,8	10,138
333,2	11,052
333,7	15,195
334,1	16,567
334,6	10,481
335,1	9,167
335,5	7,852
336	3,795
336,4	6,195
336,9	10,024
337,4	11,995
337,8	14,995
338,3	20,481
338,7	20,51
339,2	20,452
339,7	22,281
340,1	14,852
340,6	8,252
341	4,167
341,5	1,395
342	-0,576
342,4	-1,548
342,9	-4,29
343,3	-2,633
343,8	-2,033
344,2	0,281
344,7	4,024
345,2	2,138
345,6	3,51
346,1	3,138
346,5	-0,233
347	-1,033
347,5	-2,148
347,9	-0,548
348,4	2,338
348,8	3,995
349,3	8,024
349,8	11,024
350,2	20,738
350,7	22,11
351,1	19,424
351,6	21,71
352	21,281
352,5	20,452
353	26,281
353,4	24,538
353,9	34,938
354,3	42,967
354,8	48,052
355,3	64,11
355,7	79,195
356,2	94,081
356,6	111,51
357,1	127,652
357,5	154,51
358	184,052
358,5	207,567
358,9	238,91
359,4	272,538
359,8	306,424
360,3	352,567
360,8	394,71
361,2	446,167
361,7	505,938
362,1	572,51
362,6	643,51
363	724,624
363,5	804,195
364	897,024
364,4	982,252
364,9	1079,967
365,3	1166,195
365,8	1245,424
366,3	1324,767
366,7	1392,938
367,2	1450,852
367,6	1504,767
368,1	1537,252
368,5	1561,138
369	1579,595
369,5	1579,767
369,9	1573,367
370,4	1548,824
370,8	1517,852
371,3	1469,252
371,7	1412,852
372,2	1347,51
372,7	1285,31
373,1	1215,224
373,6	1144,51
374	1071,224
374,5	1003,452
374,9	940,767
375,4	879,595
375,9	812,938
376,3	746,052
376,8	685,652
377,2	632,281
377,7	580,024
378,2	529,338
378,6	484,052
379,1	441,338
379,5	410,567
380	380,11
380,4	343,938
380,9	316,795
381,4	288,452
381,8	261,967
382,3	244,424
382,7	225,338
383,2	206,567
383,6	195,681
384,1	180,452
384,6	172,824
385	164,195
385,5	151,11
385,9	140,424
386,4	132,424
386,8	122,995
387,3	111,71
387,7	102,224
388,2	95,052
388,7	88,795
389,1	82,824
389,6	77,681
390	73,052
390,5	71,395
390,9	68,852
391,4	67,652
391,9	62,481
392,3	64,31
392,8	55,967
393,2	50,452
393,7	49,91
394,1	48,681
394,6	43,367
395,1	46,024
395,5	37,481
396	37,824
396,4	37,024
396,9	34,681
397,3	33,367
397,8	34,481
398,2	30,767
398,7	31,195
399,2	34,11
399,6	38,51
400,1	39,624
400,5	33,167
401	30,367
401,4	26,967
401,9	30,052
402,4	30,538
402,8	23,11
403,3	24,11
403,7	27,195
404,2	30,595
404,6	34,167
405,1	33,195
405,5	29,91
406	31,567
406,5	30,967
406,9	33,167
407,4	32,31
407,8	32,252
408,3	29,424
408,7	25,767
409,2	27,281
409,6	29,595
410,1	29,681
410,6	36,995
411	40,195
411,5	44,795
411,9	55,395
412,4	60,567
412,8	59,881
413,3	61,51
413,7	53,338
414,2	53,31
414,7	58,052
415,1	58,938
415,6	60,395
416	61,452
416,5	65,938
416,9	67,424
417,4	74,995
417,8	77,538
418,3	75,795
418,8	79,852
419,2	80,481
419,7	77,224
420,1	83,338
420,6	80,424
421	74,224
421,5	78,852
421,9	76,91
422,4	78,424
422,8	82,567
423,3	84,71
423,8	83,11
424,2	84,995
424,7	87,167
425,1	86,938
425,6	90,538
426	90,652
426,5	91,795
426,9	96,395
427,4	95,91
427,9	86,738
428,3	88,824
428,8	87,424
429,2	83,567
429,7	75,538
430,1	71,424
430,6	74,538
431	78,51
431,5	79,567
431,9	75,91
432,4	82,281
432,8	88,481
433,3	88,538
433,8	89,938
434,2	93,567
434,7	93,938
435,1	95,967
435,6	95,081
436	98,91
436,5	106,852
436,9	105,452
437,4	106,024
437,8	110,338
438,3	115,995
438,8	118,424
439,2	121,281
439,7	125,51
440,1	133,738
440,6	141,252
441	138,538
441,5	148,967
441,9	154,424
442,4	156,71
442,8	159,138
443,3	167,024
443,7	177,624
444,2	193,367
444,7	193,195
445,1	205,424
445,6	215,51
446	226,224
446,5	227,71
446,9	230,195
447,4	238,881
447,8	249,538
448,3	257,11
448,7	264,91
449,2	275,395
449,6	287,738
450,1	295,652
450,6	306,338
451	319,624
451,5	332,367
451,9	346,052
452,4	358,938
452,8	370,824
453,3	389,681
453,7	399,481
454,2	416,338
454,6	430,795
455,1	443,71
455,5	455,281
456	475,595
456,4	485,795
456,9	503,595
457,3	516,767
457,8	526,195
458,3	547,995
458,7	563,995
459,2	576,652
459,6	597,195
460,1	616,881
460,5	634,338
461	660,281
461,4	674,738
461,9	694,852
462,3	719,338
462,8	739,738
463,2	754,967
463,7	774,967
464,1	793,195
464,6	819,624
465	842,681
465,5	861,367
466	879,081
466,4	900,852
466,9	931,367
467,3	950,995
467,8	971,452
468,2	998,424
468,7	1025,281
469,1	1052,567
469,6	1077,91
470	1092,824
470,5	1119,31
470,9	1138,567
471,4	1149,538
471,8	1168,338
472,3	1189,995
472,7	1217,024
473,2	1239,31
473,6	1260,081
474,1	1287,71
474,5	1317,738
475	1341,795
475,4	1371,738
475,9	1390,281
476,4	1420,538
476,8	1447,71
477,3	1465,595
477,7	1492,195
478,2	1516,452
478,6	1530,081
479,1	1551,595
479,5	1566,452
480	1585,91
480,4	1613,767
480,9	1633,195
481,3	1650,395
481,8	1675,881
482,2	1693,624
482,7	1712,224
483,1	1731,995
483,6	1747,138
484	1756,538
484,5	1776,567
484,9	1789,738
485,4	1811,795
485,8	1827,624
486,3	1840,938
486,7	1855,652
487,2	1873,824
487,6	1889,767
488,1	1902,767
488,5	1914,11
489	1935,024
489,4	1953,595
489,9	1962,824
490,4	1976,652
490,8	1986,281
491,3	2006,595
491,7	2017,424
492,2	2027,081
492,6	2038,052
493,1	2055,081
493,5	2061,567
494	2068,795
494,4	2076,967
494,9	2088,252
495,3	2101,624
495,8	2105,595
496,2	2113,995
496,7	2120,795
497,1	2139,538
497,6	2146,052
498	2154,452
498,5	2158,024
498,9	2166,767
499,4	2171,652
499,8	2194,595
500,3	2198,91
500,7	2203,452
501,2	2211,652
501,6	2212,538
502,1	2219,195
502,5	2224,938
503	2221,881
503,4	2223,881
503,9	2229,252
504,3	2238,195
504,8	2249,224
505,2	2253,338
505,7	2258,795
506,1	2266,738
506,6	2269,795
507	2274,795
507,5	2275,995
507,9	2278,081
508,4	2282,595
508,8	2290,052
509,3	2293,567
509,7	2301,338
510,2	2305,138
510,6	2307,824
511,1	2313,995
511,5	2319,738
512	2323,395
512,4	2327,167
512,9	2329,938
513,3	2340,281
513,8	2343,31
514,2	2350,224
514,7	2358,252
515,1	2364,967
515,6	2372,481
516	2374,71
516,5	2378,652
516,9	2386,367
517,4	2390,338
517,8	2392,481
518,3	2396,652
518,7	2401,852
519,2	2410,91
519,6	2414,767
520,1	2418,967
520,5	2423,681
521	2432,91
521,4	2441,71
521,9	2446,652
522,3	2456,195
522,8	2463,767
523,2	2468,51
523,7	2474,167
524,1	2471,367
524,6	2470,938
525	2476,852
525,5	2474,71
525,9	2480,71
526,4	2486,71
526,8	2490,452
527,3	2501,738
527,7	2509,367
528,2	2520,338
528,6	2529,767
529,1	2536,824
529,5	2546,195
530	2557,395
530,4	2564,11
530,9	2574,938
531,3	2576,824
531,8	2585,881
532,2	2588,224
532,6	2589,338
533,1	2592,195
533,5	2599,652
534	2600,338
534,4	2606,081
534,9	2612,881
535,3	2621,281
535,8	2636,481
536,2	2652,167
536,7	2660,481
537,1	2671,167
537,6	2677,681
538	2686,281
538,5	2698,91
538,9	2696,224
539,4	2700,738
539,8	2711,281
540,3	2720,167
540,7	2729,081
541,2	2733,395
541,6	2736,024
542,1	2756,595
542,5	2761,252
543	2767,824
543,4	2771,824
543,9	2780,795
544,3	2789,795
544,8	2794,767
545,2	2797,252
545,7	2804,967
546,1	2812,91
546,5	2828,138
547	2829,452
547,4	2838,138
547,9	2849,224
548,3	2856,252
548,8	2867,052
549,2	2870,481
549,7	2867,367
550,1	2882,081
550,6	2888,367
551	2897,767
551,5	2909,224
551,9	2906,51
552,4	2914,481
552,8	2932,081
553,3	2932,367
553,7	2936,395
554,2	2941,195
554,6	2946,167
555,1	2963,624
555,5	2973,024
555,9	2976,024
556,4	2985,195
556,8	2991,167
557,3	2996,31
557,7	3001,652
558,2	3002,595
558,6	3006,824
559,1	3012,11
559,5	3018,995
560	3029,367
560,4	3035,795
560,9	3039,71
561,3	3046,881
561,8	3050,252
562,2	3055,281
562,7	3062,995
563,1	3071,424
563,6	3075,11
564	3075,824
564,4	3075,138
564,9	3077,91
565,3	3081,567
565,8	3080,767
566,2	3083,881
566,7	3083,71
567,1	3093,995
567,6	3101,938
568	3106,595
568,5	3100,938
568,9	3105,681
569,4	3095,767
569,8	3101,767
570,3	3098,252
570,7	3092,195
571,1	3098,452
571,6	3107,51
572	3113,852
572,5	3122,281
572,9	3119,395
573,4	3118,967
573,8	3127,281
574,3	3118,281
574,7	3114,852
575,2	3104,51
575,6	3100,138
576,1	3099,538
576,5	3106,138
576,9	3099,567
577,4	3099,595
577,8	3101,195
578,3	3105,824
578,7	3107,11
579,2	3110,795
579,6	3098,881
580,1	3101,424
580,5	3102,567
581	3103,452
581,4	3093,824
581,9	3088,824
582,3	3085,11
582,7	3092,852
583,2	3087,795
583,6	3085,424
584,1	3078,652
584,5	3082,91
585	3079,452
585,4	3071,281
585,9	3060,652
586,3	3054,195
586,8	3051,195
587,2	3046,91
587,6	3047,167
588,1	3043,995
588,5	3044,252
589	3046,11
589,4	3038,91
589,9	3028,881
590,3	3019,852
590,8	3009,31
591,2	3007,681
591,7	3003,767
592,1	2997,71
592,5	3000,052
593	2995,224
593,4	2993,195
593,9	2984,967
594,3	2974,367
594,8	2966,024
595,2	2958,71
595,7	2956,938
596,1	2949,052
596,6	2944,567
597	2947,567
597,4	2942,91
597,9	2937,595
598,3	2930,767
598,8	2919,252
599,2	2922,224
599,7	2919,624
600,1	2911,795
600,6	2907,967
601	2905,395
601,4	2904,995
601,9	2902,852
602,3	2888,195
602,8	2883,938
603,2	2871,024
603,7	2866,481
604,1	2854,252
604,6	2839,795
605	2821,738
605,4	2822,081
605,9	2805,252
606,3	2790,338
606,8	2779,138
607,2	2766,252
607,7	2752,91
608,1	2755,795
608,6	2744,252
609	2743,967
609,4	2745,567
609,9	2736,738
610,3	2738,767
610,8	2731,767
611,2	2717,652
611,7	2712,567
612,1	2700,224
612,6	2692,852
613	2689,424
613,4	2670,167
613,9	2668,652
614,3	2657,567
614,8	2642,081
615,2	2629,852
615,7	2617,567
616,1	2600,595
616,6	2591,081
617	2575,938
617,4	2571,538
617,9	2568,195
618,3	2560,052
618,8	2554,91
619,2	2554,452
619,7	2551,367
620,1	2544,424
620,5	2541,167
621	2527,738
621,4	2521,167
621,9	2505,052
622,3	2495,681
622,8	2481,967
623,2	2467,452
623,6	2447,11
624,1	2432,624
624,5	2423,424
625	2416,024
625,4	2399,167
625,9	2392,481
626,3	2390,824
626,8	2377,824
627,2	2372,91
627,6	2350,167
628,1	2334,252
628,5	2326,424
629	2311,224
629,4	2293,338
629,9	2283,11
630,3	2263,852
630,7	2251,138
631,2	2242,281
631,6	2225,224
632,1	2209,538
632,5	2190,652
633	2175,452
633,4	2168,967
633,8	2163,052
634,3	2148,081
634,7	2134,967
635,2	2125,452
635,6	2121,338
636,1	2117,138
636,5	2101,224
636,9	2088,424
637,4	2078,967
637,8	2063,881
638,3	2056,252
638,7	2041,681
639,2	2023,11
639,6	2011,481
640	2002,938
640,5	1991,338
640,9	1986,852
641,4	1974,824
641,8	1965,881
642,2	1959,938
642,7	1956,424
643,1	1949,767
643,6	1939,367
644	1928,281
644,5	1924,795
644,9	1917,31
645,3	1909,024
645,8	1893,11
646,2	1883,024
646,7	1871,652
647,1	1862,11
647,6	1848,538
648	1843,852
648,4	1826,852
648,9	1822,281
649,3	1804,824
649,8	1801,767
650,2	1795,367
650,6	1789,281
651,1	1773,452
651,5	1771,967
652	1763,367
652,4	1756,081
652,9	1746,424
653,3	1737,824
653,7	1725,052
654,2	1719,281
654,6	1708,081
655,1	1702,31
655,5	1700,252
655,9	1690,367
656,4	1678,681
656,8	1665,538
657,3	1649,195
657,7	1636,995
658,2	1619,967
658,6	1605,538
659	1593,938
659,5	1579,395
659,9	1570,91
660,4	1562,281
660,8	1552,738
661,2	1546,224
661,7	1539,681
662,1	1527,767
662,6	1522,881
663	1515,995
663,4	1510,71
663,9	1507,367
664,3	1492,624
664,8	1476,824
665,2	1465,91
665,6	1458,538
666,1	1448,71
666,5	1436,824
667	1428,195
667,4	1419,595
667,9	1412,995
668,3	1409,424
668,7	1399,167
669,2	1390,51
669,6	1384,91
670,1	1368,624
670,5	1363,567
670,9	1360,081
671,4	1347,481
671,8	1342,138
672,3	1338,281
672,7	1329,11
673,1	1318,367
673,6	1308,052
674	1296,767
674,5	1291,795
674,9	1274,595
675,3	1256,881
675,8	1246,995
676,2	1241,081
676,7	1232,995
677,1	1223,624
677,5	1209,767
678	1205,681
678,4	1203,91
678,9	1196,624
679,3	1187,252
679,7	1178,024
680,2	1166,224
680,6	1154,167
681,1	1146,224
681,5	1137,424
681,9	1131,624
682,4	1128,967
682,8	1124,51
683,3	1123,224
683,7	1124,738
684,1	1115,595
684,6	1106,167
685	1092,91
685,5	1082,824
685,9	1066,252
686,3	1053,71
686,8	1044,852
687,2	1039,51
687,7	1030,567
688,1	1024,852
688,5	1020,71
689	1018,367
689,4	1014,167
689,9	1007,681
690,3	999,852
690,7	995,424
691,2	995,31
691,6	985,967
692	981,452
692,5	976,767
692,9	967,195
693,4	962,852
693,8	954,681
694,2	940,51
694,7	936,995
695,1	928,195
695,6	921,11
696	918,852
696,4	914,138
696,9	908,795
697,3	904,71
697,8	897,738
698,2	894,767
698,6	886,31
699,1	879,224
699,5	871,652
699,9	862,367
700,4	854,938
700,8	847,31
701,3	841,081
701,7	833,51
702,1	828,481
702,6	820,852
703	824,11
703,5	816,938
703,9	811,767
704,3	808,31
704,8	805,167
705,2	797,052
705,6	793,338
706,1	781,052
706,5	777,367
707	771,224
707,4	768,681
707,8	762,824
708,3	762,852
708,7	752,31
709,2	751,51
709,6	744,624
710	748,538
710,5	734,767
710,9	729,652
711,3	722,224
711,8	722,681
712,2	717,452
712,7	714,538
713,1	701,681
713,5	703,767
714	697,995
714,4	689,938
714,8	684,11
715,3	676,795
715,7	673,71
716,2	668,024
716,6	661,367
717	654,795
717,5	648,081
717,9	647,91
718,3	641,681
718,8	633,795
719,2	630,167
719,7	629,852
720,1	626,595
720,5	627,881
721	616,567
721,4	611,91
721,8	611,281
722,3	602,995
722,7	593,452
723,2	587,824
723,6	578,795
724	576,795
724,5	570,652
724,9	563,595
725,3	561,652
725,8	553,024
726,2	552,195
726,7	548,795
727,1	543,11
727,5	541,424
728	538,567
728,4	534,138
728,8	534,824
729,3	523,31
729,7	518,91
730,1	514,938
730,6	514,852
731	512,767
731,5	510,224
731,9	503,967
732,3	509,395
732,8	511,538
733,2	509,652
733,6	504,31
734,1	498,31
734,5	495,395
734,9	497,395
735,4	493,167
735,8	478,538
736,3	480,881
736,7	477,681
737,1	473,938
737,6	471,995
738	466,624
738,4	465,624
738,9	473,138
739,3	462,481
739,7	460,395
740,2	460,252
740,6	461,081
741,1	464,395
741,5	456,938
741,9	452,71
742,4	458,31
742,8	456,795
743,2	450,167
743,7	439,395
744,1	428,024
744,5	423,71
745	420,652
745,4	412,081
745,8	406,795
746,3	408,824
746,7	407,652
747,2	407,167
747,6	411,367
748	410,652
748,5	410,081
748,9	405,081
749,3	400,052
749,8	401,452
750,2	401,395
750,6	394,424
751,1	390,195
751,5	383,681
751,9	384,538
752,4	380,652
752,8	374,681
753,3	371,681
753,7	368,624
754,1	365,395
754,6	363,338
755	357,195
755,4	356,967
755,9	355,91
756,3	349,995
756,7	348,31
757,2	347,881
757,6	348,824
758	352,91
758,5	350,338
758,9	348,538
759,3	348,538
759,8	347,024
760,2	344,338
760,6	340,367
761,1	331,167
761,5	328,71
761,9	320,224
762,4	314,824
762,8	311,195
763,3	304,281
763,7	303,31
764,1	305,138
764,6	303,281
765	308,138
765,4	308,767
765,9	306,024
766,3	307,881
766,7	301,224
767,2	298,481
767,6	297,595
768	293,767
768,5	286,567
768,9	286,567
769,3	281,395
769,8	282,767
770,2	283,481
770,6	281,995
771,1	280,024
771,5	281,481
771,9	282,652
772,4	286,767
772,8	285,252
773,2	281,824
773,7	280,852
774,1	277,938
774,5	275,938
775	269,51
775,4	262,795
775,8	258,881
776,3	256,281
776,7	252,081
777,1	252,567
777,6	252,91
778	254,11
778,4	253,795
778,9	251,195
779,3	246,195
779,7	246,252
780,2	245,481
780,6	241,995
781	236,938
781,5	234,481
781,9	235,452
782,3	234,024
782,8	230,195
783,2	223,738
783,6	228,252
784,1	225,738
784,5	220,624
784,9	215,31
785,4	216,852
785,8	218,567
786,2	220,052
786,7	212,624
787,1	212,481
787,5	212,452
788	210,738
788,4	209,024
788,8	201,595
789,3	198,081
789,7	199,11
790,1	198,481
790,6	202,938
791	201,681
791,4	202,71
791,9	204,367
792,3	200,081
792,7	202,595
793,2	203,024
793,6	200,052
794	200,395
794,5	194,281
794,9	190,852
795,3	192,967
795,8	186,795
796,2	182,795
796,6	183,681
797,1	180,681
797,5	178,224
797,9	174,995
798,4	175,91
798,8	176,424
799,2	175,795
799,7	174,195
800,1	174,738
800,5	173,767
801	178,681
801,4	174,367
801,8	169,138
802,2	171,795
802,7	162,424
803,1	161,624
803,5	161,767
804	152,595
804,4	151,595
804,8	156,31
805,3	154,51
805,7	158,338
806,1	158,567
806,6	162,738
807	165,767
807,4	164,767
807,9	154,652
808,3	151,938
808,7	152,024
809,2	153,338
809,6	150,652
810	148,024
810,4	148,91
810,9	151,452
811,3	150,51
811,7	148,081
812,2	149,395
812,6	142,252
813	149,367
813,5	148,024
813,9	146,795
814,3	142,91
814,8	142,51
815,2	134,995
815,6	136,081
816,1	130,595
816,5	129,338
816,9	127,224
817,3	126,281
817,8	127,824
818,2	126,767
818,6	123,995
819,1	118,367
819,5	115,967
819,9	117,367
820,4	114,71
820,8	111,052
821,2	108,338
821,7	108,71
822,1	116,452
822,5	123,081
822,9	121,91
823,4	121,738
823,8	126,11
824,2	129,11
824,7	126,195
825,1	120,767
825,5	112,595
826	108,252
826,4	107,595
826,8	101,738
827,3	103,652
827,7	103,538
828,1	103,138
828,5	106,252
829	103,91
829,4	104,195
829,8	101,052
830,3	97,881
830,7	96,738
831,1	95,681
831,6	93,995
832	100,767
832,4	98,852
832,8	101,31
833,3	95,967
833,7	94,767
834,1	93,71
834,6	88,31
835	87,052
835,4	88,71
835,8	83,767
836,3	84,338
836,7	85,91
837,1	82,424
837,6	87,224
838	84,538
838,4	84,052
838,9	84,224
839,3	83,252
839,7	88,652
840,1	84,767
840,6	84,452
841	85,224
841,4	86,11
841,9	88,367
842,3	87,024
842,7	81,795
843,1	84,51
843,6	83,081
844	79,767
844,4	79,538
844,9	77,995
845,3	82,538
845,7	82,395
846,2	82,195
846,6	75,252
847	78,51
847,4	77,567
847,9	78,624
848,3	74,395
848,7	70,71
849,2	72,652
849,6	72,71
850	73,71
850,4	70,567
850,9	65,938
851,3	65,852
851,7	69,624
852,2	68,995
852,6	72,938
853	71,452
853,4	68,452
853,9	71,224
854,3	73,881
854,7	68,967
855,2	66,51
855,6	66,938
856	61,652
856,4	62,138
856,9	54,681
857,3	51,824
857,7	56,624
858,2	60,081
858,6	58,424
859	62,195
859,4	65,452
859,9	68,224
860,3	64,367
860,7	58,567
861,1	57,71
861,6	55,795
862	49,11
862,4	46,681
862,9	49,595
863,3	54,167
863,7	54,281
864,1	51,967
864,6	50,995
865	51,938
865,4	50,881
865,9	49,824
866,3	46,452
866,7	49,252
867,1	46,138
867,6	46,195
868	46,852
868,4	45,538
868,8	42,824
869,3	43,795
869,7	43,31
870,1	38,967
870,6	38,138
871	-12,176
871,4	-4,262
871,8	-2,148
872,3	-4,776
872,7	-5,033
873,1	-1,519
873,5	2,967
874	51,824
874,4	47,081
874,8	46,51
875,3	49,881
875,7	48,51
876,1	53,395
876,5	48,31
877	46,967
877,4	40,881
877,8	41,852
878,2	44,51
878,7	44,795
879,1	41,738
879,5	44,652
879,9	47,938
880,4	50,824
880,8	52,024
881,2	43,395
881,7	40,681
882,1	41,852
882,5	38,452
882,9	36,824
883,4	35,281
883,8	35,224
884,2	38,024
884,6	37,538
885,1	33,995
885,5	35,795
885,9	32,91
886,3	36,91
886,8	32,167
887,2	28,195
887,6	29,824
888	30,224
888,5	32,424
888,9	31,795
889,3	29,281
889,8	30,224
890,2	33,738
890,6	29,224
891	28,624
891,5	27,367
891,9	27,224
892,3	26,938
892,7	27,881
893,2	27,938
893,6	31,852
894	32,967
894,4	27,738
894,9	31,852
895,3	31,138
895,7	30,881
896,1	30,224
896,6	33,31
897	35,481
897,4	41,681
897,8	42,995
898,3	47,195
898,7	42,967
899,1	40,11
899,5	36,538
900	30,624
900,4	24,824
900,8	24,224
901,2	17,281
901,7	19,995
902,1	24,11
902,5	23,538
902,9	24,51
903,4	26,452
903,8	25,567
904,2	24,195
904,6	23,195
905,1	24,138
905,5	25,052
905,9	29,31
906,3	33,624
906,8	30,795
907,2	37,767
907,6	40,595
908	36,538
908,5	34,51
908,9	31,938
909,3	25,281
909,7	27,652
910,2	20,767
910,6	20,995
911	19,395
911,4	22,481
911,9	20,624
912,3	21,881
912,7	24,738
913,1	28,51
913,6	23,281
914	28,281
914,4	23,11
914,8	24,167
915,3	19,738
915,7	15,252
916,1	14,224
916,5	16,624
916,9	14,367
917,4	14,338
917,8	13,71
918,2	15,081
918,6	11,395
919,1	12,938
919,5	13,881
919,9	10,995
920,3	14,195
920,8	10,852
921,2	7,938
921,6	7,481
922	7,881
922,5	6,081
922,9	11,395
923,3	9,624
923,7	13,767
924,2	16,967
924,6	21,081
925	20,938
925,4	19,138
925,8	16,681
926,3	15,51
926,7	14,252
927,1	15,024
927,5	16,195
928	13,852
928,4	14,224
928,8	14,224
929,2	15,738
929,7	16,138
930,1	18,538
930,5	14,767
930,9	19,624
931,3	18,281
931,8	14,367
932,2	12,138
932,6	11,024
933	3,91
933,5	4,967
933,9	3,852
934,3	4,31
934,7	4,71
935,2	4,91
935,6	6,538
936	14,995
936,4	14,938
936,8	11,367
937,3	10,767
937,7	11,767
938,1	16,052
938,5	13,138
939	13,138
939,4	14,91
939,8	12,681
940,2	10,281
940,6	11,995
941,1	9,91
941,5	16,91
941,9	12,195
942,3	11,795
942,8	15,224
943,2	21,91
943,6	21,024
944	22,652
944,4	15,967
944,9	13,795
945,3	11,795
945,7	7,024
946,1	-0,033
946,6	-4,49
947	-10,119
947,4	-3,576
947,8	-2,519
948,2	-1,49
948,7	1,11
949,1	5,052
949,5	14,052
949,9	14,538
950,3	7,167
950,8	7,767
951,2	6,395
951,6	3,481
952	8,052
952,5	2,367
952,9	7,481
953,3	10,195
953,7	8,995
954,1	11,538
954,6	15,595
955	12,995
955,4	10,938
955,8	12,481
956,2	11,852
956,7	11,11
957,1	5,567
957,5	4,91
957,9	2,824
958,3	5,824
958,8	6,024
959,2	9,595
959,6	15,852
960	17,424
960,5	20,881
960,9	20,938
961,3	18,024
961,7	13,167
962,1	9,452
962,6	5,624
963	3,195
963,4	-1,948
963,8	-2,033
964,2	0,167
964,7	2,452
965,1	7,395
965,5	6,024
965,9	9,195
966,3	12,195
966,8	13,652
967,2	14,081
967,6	13,824
968	6,11
968,4	8,738
968,9	12,052
969,3	15,481
969,7	13,91
970,1	13,081
970,5	10,167
971	19,424
971,4	20,824
971,8	20,595
972,2	18,338
972,6	19,224
973,1	19,51
973,5	19,538
973,9	13,967
974,3	13,595
974,7	16,681
975,2	13,852
975,6	12,595
976	15,51
976,4	15,881
976,8	16,195
977,3	11,195
977,7	3,91
978,1	6,338
978,5	5,395
978,9	0,452
979,4	0,395
979,8	-1,976
980,2	1,681
980,6	1,081
981	-1,49
981,5	-1,919
981,9	-0,976
982,3	4,31
982,7	5,138
983,1	2,652
983,6	3,624
984	4,052
984,4	7,881
984,8	8,51
985,2	4,367
985,6	1,595
986,1	4,252
986,5	5,281
986,9	2,195
987,3	3,624
987,7	5,995
988,2	5,567
988,6	10,71
989	8,538
989,4	10,452
989,8	11,881
990,3	10,824
990,7	9,452
991,1	11,424
991,5	10,424
991,9	10,881
992,3	12,195
992,8	13,252
993,2	12,738
993,6	9,852
994	11,567
994,4	9,481
994,9	13,567
995,3	12,538
995,7	10,767
996,1	9,795
996,5	13,71
996,9	5,595
997,4	5,367
997,8	-0,748
998,2	-2,09
998,6	-6,119
999	-10,262
999,5	-10,948
999,9	-7,69
1000,3	-7,605
1000,7	0,024
1001,1	-1,062
1001,5	5,681
1002	12,595
1002,4	14,424
1002,8	13,052
1003,2	17,167
1003,6	12,91
1004	18,224
1004,5	13,395
1004,9	12,252
1005,3	8,71
1005,7	13,852
1006,1	10,852
1006,6	8,31
1007	5,167
1007,4	6,652
1007,8	4,31
1008,2	4,424
1008,6	7,367
1009,1	7,395
1009,5	10,824
1009,9	10,681
1010,3	13,11
1010,7	13,252
1011,1	12,51
1011,6	4,367
1012	6,424
1012,4	1,795
1012,8	-2,49
1013,2	2,852
1013,6	6,367
1014,1	10,938
1014,5	15,91
1014,9	12,338
1015,3	14,11
1015,7	18,081
1016,1	9,11
1016,6	5,052
1017	3,624
1017,4	1,252
1017,8	0,538
1018,2	4,595
1018,6	1,738
1019,1	2,795
1019,5	1,681
1019,9	-0,919
1020,3	1,395
1020,7	3,167
1021,1	3,081
1021,6	6,024
1022	9,738
1022,4	11,938
1022,8	16,138
1023,2	19,795
1023,6	22,338
1024,1	25,395
1024,5	24,224
1024,9	20,624
1025,3	20,567
1025,7	14,481
1026,1	10,824
1026,6	11,367
1027	4,938
1027,4	6,624
1027,8	5,11
1028,2	3,967
1028,6	10,91
1029	8,824
1029,5	11,738
1029,9	10,824
1030,3	8,024
1030,7	13,481
1031,1	14,852
1031,5	9,424
1032	9,938
1032,4	4,452
1032,8	8,938
1033,2	11,481
1033,6	7,11
1034	11,424
1034,4	10,395
1034,9	10,31
1035,3	11,852
1035,7	9,995
1036,1	8,138
1036,5	9,252
1036,9	0,91
1037,4	5,767
1037,8	1,738
1038,2	-2,005
1038,6	-0,033
1039	5,338
1039,4	12,452
1039,8	9,11
1040,3	7,424
1040,7	9,31
1041,1	10,995
1041,5	10,481
1041,9	5,195
1042,3	-0,576
1042,7	5,624
1043,2	3,767
1043,6	-2,348
1044	-3,319
1044,4	-5,119
1044,8	-1,205
1045,2	0,024
1045,6	2,395
1046,1	4,51
1046,5	11,31
1046,9	11,681
1047,3	13,424
1047,7	11,367
1048,1	6,395
1048,5	4,081
1049	5,195
1049,4	8,767
1049,8	11,167
1050,2	8,681
1050,6	9,795
1051	17,31
1051,4	13,624
1051,9	12,081
1052,3	10,852
1052,7	7,11
1053,1	3,481
1053,5	0,795
1053,9	-2,919
1054,3	-0,976
1054,8	5,595
1055,2	8,224
1055,6	9,71
1056	11,138
1056,4	9,424
1056,8	11,852
1057,2	14,795
1057,6	7,11
1058,1	3,91
1058,5	1,995
1058,9	6,052
1059,3	13,281
1059,7	9,938
1060,1	7,938
1060,5	9,31
1061	11,91
1061,4	15,681
1061,8	18,024
1062,2	11,31
1062,6	13,995
1063	15,624
1063,4	17,824
1063,8	14,738
1064,3	11,367
1064,7	7,738
1065,1	10,795
1065,5	9,052
1065,9	7,938
1066,3	0,652
1066,7	-1,519
1067,1	-0,633
1067,6	-0,062
1068	-5,805
1068,4	-3,919
1068,8	-0,09
1069,2	5,138
1069,6	3,538
1070	5,795
1070,4	2,252
1070,9	7,252
1071,3	5,681
1071,7	-0,633
1072,1	-0,548
1072,5	-3,49
1072,9	-7,033
1073,3	-2,09
1073,7	-3,948
1074,2	2,252
1074,6	6,767
1075	7,424
1075,4	12,567
1075,8	17,91
1076,2	20,11
1076,6	23,967
1077	18,595
1077,5	20,167
1077,9	18,538
1078,3	19,881
1078,7	19,624
1079,1	14,424
1079,5	12,795
1079,9	13,824
1080,3	10,767
1080,7	14,081
1081,2	17,452
1081,6	15,567
1082	15,281
1082,4	13,281
1082,8	10,31
1083,2	11,938
1083,6	8,71
1084	3,967
1084,5	5,367
1084,9	5,995
1085,3	-0,376
1085,7	3,367
1086,1	2,424
1086,5	2,367
1086,9	5,595
1087,3	3,024
1087,7	0,795
1088,2	7,138
1088,6	3,71
1089	5,938
1089,4	4,995
1089,8	1,081
1090,2	0,71
1090,6	5,052
1091	6,452
1091,4	6,967
1091,9	4,424
1092,3	7,995
1092,7	8,681
1093,1	10,538
1093,5	12,052
1093,9	11,224
1094,3	14,281
1094,7	12,995
1095,1	11,852
1095,5	13,852
1096	12,652
1096,4	11,91
1096,8	12,195
1097,2	12,481
1097,6	16,652
1098	16,681
1098,4	15,852
1098,8	18,795
1099,2	22,567
1099,6	19,052
1100,1	18,452
1100,5	13,71
1100,9	14,738
1101,3	15,252
1101,7	12,852
1102,1	6,395
1102,5	11,595
1102,9	10,024
1103,3	12,652
1103,7	11,71
1104,2	11,538
1104,6	12,167
1105	12,481
1105,4	12,91
1105,8	10,967
1106,2	8,938
1106,6	6,138
1107	4,91
1107,4	3,967
1107,8	4,287
1108,3	-0,383
