Data from Subt2_193.txt Node
Date: Sat Aug 26 18:42:58 MSK 2023
User: vat
Spectrometer: MAYP114033
Trigger mode: 0
Integration Time (sec): 1,000000E0
Scans to average: 5
Electric dark correction enabled: true
Nonlinearity correction enabled: false
Boxcar width: 3
XAxis mode: Wavelengths
Number of Pixels in Spectrum: 2068
>>>>>Begin Spectral Data<<<<<
199,4	-1,117
199,9	-0,627
200,4	0,467
200,8	2,133
201,3	2,305
201,8	2,676
202,2	0,105
202,7	6,133
203,2	5,705
203,6	3,676
204,1	-0,81
204,6	-1,838
205	0,562
205,5	3,276
206	-2,381
206,4	-2,952
206,9	-1,524
207,4	1,962
207,8	1,219
208,3	-1,381
208,8	-3,181
209,2	-1,238
209,7	-0,41
210,2	-1,695
210,6	-2,267
211,1	-0,81
211,5	-2,095
212	-2,752
212,5	-5,152
212,9	-5,61
213,4	-4,638
213,9	-3,467
214,3	-3,724
214,8	1,676
215,3	3,39
215,7	7,676
216,2	13,848
216,7	16,762
217,1	11,933
217,6	16,305
218,1	9,648
218,5	9,048
219	1,619
219,5	-2,352
219,9	-6,981
220,4	3,276
220,9	-0,981
221,3	-1,41
221,8	3,762
222,3	6,59
222,7	5,733
223,2	9,019
223,6	2,476
224,1	4,676
224,6	11,505
225	6,733
225,5	8,19
226	7,99
226,4	9,962
226,9	7,276
227,4	7,162
227,8	-1,067
228,3	1,076
228,8	-0,467
229,2	1,305
229,7	-4,352
230,2	1,19
230,6	3,105
231,1	9,448
231,5	8,733
232	5,448
232,5	1,19
232,9	3,99
233,4	1,648
233,9	-0,667
234,3	-3,324
234,8	-3,61
235,3	-1,438
235,7	3,733
236,2	3,248
236,7	1,733
237,1	4,819
237,6	0,876
238,1	-1,152
238,5	-0,124
239	-4,038
239,4	-1,438
239,9	-2,495
240,4	-7,267
240,8	0,133
241,3	-3,324
241,8	-5,095
242,2	-4,41
242,7	-9,61
243,2	-4,01
243,6	-5,838
244,1	-4,981
244,6	0,876
245	4,448
245,5	4,848
245,9	4,048
246,4	0,276
246,9	5,419
247,3	3,59
247,8	3,933
248,3	2,648
248,7	5,733
249,2	8,162
249,7	8,99
250,1	8,79
250,6	9,305
251	11,39
251,5	11,419
252	6,59
252,4	7,133
252,9	3,819
253,4	-1,952
253,8	-4,352
254,3	-7,238
254,8	-6,181
255,2	-7,524
255,7	-9,381
256,1	-4,638
256,6	-1,238
257,1	0,876
257,5	-2,038
258	-5,095
258,5	-4,981
258,9	-3,295
259,4	-5,238
259,9	-6,352
260,3	-10,038
260,8	-12,21
261,2	-8,552
261,7	-7,352
262,2	-11,981
262,6	-16,81
263,1	-15,781
263,6	-14,352
264	-2,067
264,5	-0,781
264,9	1,19
265,4	8,019
265,9	10,733
266,3	11,705
266,8	12,705
267,3	5,133
267,7	-0,267
268,2	0,076
268,7	-0,095
269,1	-0,295
269,6	-3,181
270	1,962
270,5	-3,495
271	-1,324
271,4	-4,152
271,9	-8,781
272,4	-5,152
272,8	-3,467
273,3	-10,981
273,7	-7,324
274,2	-6,695
274,7	-4,067
275,1	-0,181
275,6	-2,038
276,1	-4,181
276,5	3,162
277	3,162
277,4	2,448
277,9	6,705
278,4	6,276
278,8	6,962
279,3	11,19
279,8	3,619
280,2	7,533
280,7	10,019
281,1	0,876
281,6	0,533
282,1	3,619
282,5	2,676
283	7,219
283,4	6,619
283,9	4,533
284,4	15,105
284,8	15,933
285,3	13,276
285,8	12,419
286,2	7,048
286,7	6,905
287,1	4,419
287,6	1,448
288,1	0,448
288,5	2,333
289	1,733
289,5	5,305
289,9	4,933
290,4	7,305
290,8	4,819
291,3	5,676
291,8	5,619
292,2	2,219
292,7	8,219
293,1	8,99
293,6	14,762
294,1	14,133
294,5	12,762
295	11,876
295,5	13,419
295,9	14,076
296,4	8,562
296,8	2,419
297,3	1,79
297,8	-1,724
298,2	-4,038
298,7	2,619
299,1	-2,895
299,6	-2,724
300,1	-2,524
300,5	-3,324
301	-2,838
301,5	2,79
301,9	-3,238
302,4	-4,21
302,8	-2,124
303,3	-1,695
303,8	-2,838
304,2	1,019
304,7	-2,238
305,1	-2,495
305,6	-4,152
306,1	4,019
306,5	5,248
307	12,419
307,4	12,962
307,9	11,19
308,4	10,848
308,8	8,905
309,3	0,733
309,8	1,505
310,2	-0,667
310,7	-1,381
311,1	3,876
311,6	6,276
312,1	10,533
312,5	14,733
313	13,762
313,4	11,048
313,9	11,619
314,4	7,99
314,8	3,819
315,3	2,933
315,7	-1,038
316,2	-2,467
316,7	-2,524
317,1	1,305
317,6	-1,667
318	5,076
318,5	4,162
319	6,162
319,4	6,876
319,9	7,476
320,3	5,419
320,8	2,562
321,3	1,476
321,7	3,876
322,2	1,476
322,6	3,933
323,1	5,505
323,6	4,933
324	8,819
324,5	6,333
324,9	5,876
325,4	6,762
325,9	6,505
326,3	5,333
326,8	5,59
327,2	2,048
327,7	2,819
328,2	2,048
328,6	1,505
329,1	-2,438
329,5	-0,267
330	-5,838
330,5	-1,152
330,9	1,505
331,4	1,762
331,8	2,105
332,3	8,276
332,8	9,39
333,2	10,448
333,7	12,762
334,1	10,933
334,6	5,39
335,1	-0,41
335,5	-4,324
336	-6,495
336,4	-2,067
336,9	0,79
337,4	7,162
337,8	10,448
338,3	15,362
338,7	17,448
339,2	11,99
339,7	14,476
340,1	10,133
340,6	2,305
341	2,162
341,5	3,248
342	-0,238
342,4	6,276
342,9	-0,038
343,3	-2,438
343,8	2,248
344,2	6,248
344,7	13,276
345,2	17,048
345,6	13,819
346,1	18,962
346,5	18,79
347	12,076
347,5	6,99
347,9	3,59
348,4	-0,324
348,8	1,933
349,3	2,19
349,8	6,705
350,2	17,648
350,7	21,105
351,1	20,819
351,6	27,59
352	33,276
352,5	39,59
353	49,048
353,4	55,162
353,9	65,133
354,3	77,248
354,8	86,762
355,3	103,819
355,7	123,476
356,2	143,276
356,6	164,048
357,1	199,219
357,5	235,39
358	277,648
358,5	317,133
358,9	361,705
359,4	415,248
359,8	479,419
360,3	546,133
360,8	617,648
361,2	707,39
361,7	806,105
362,1	917,933
362,6	1037,79
363	1161,505
363,5	1292,162
364	1444,933
364,4	1583,39
364,9	1726,79
365,3	1865,19
365,8	1998,705
366,3	2124,619
366,7	2240,962
367,2	2335,305
367,6	2415,733
368,1	2485,248
368,5	2527,162
369	2546,733
369,5	2557,848
369,9	2542,848
370,4	2507,819
370,8	2455,762
371,3	2385,305
371,7	2303,905
372,2	2212,048
372,7	2106,876
373,1	2000,962
373,6	1883,076
374	1777,533
374,5	1658,162
374,9	1547,248
375,4	1441,59
375,9	1332,562
376,3	1225,448
376,8	1127,019
377,2	1032,79
377,7	947,99
378,2	869,533
378,6	793,933
379,1	730,933
379,5	672,419
380	625,162
380,4	571,762
380,9	524,59
381,4	482,476
381,8	445,619
382,3	411,19
382,7	380,59
383,2	350,162
383,6	325,79
384,1	309,248
384,6	289,305
385	266,19
385,5	246,99
385,9	225,819
386,4	207,505
386,8	195,819
387,3	176,419
387,7	163,905
388,2	153,962
388,7	140,276
389,1	133,933
389,6	126,505
390	113,705
390,5	111,476
390,9	104,562
391,4	100,762
391,9	97,676
392,3	95,819
392,8	89,076
393,2	81,476
393,7	74,276
394,1	69,019
394,6	66,105
395,1	65,733
395,5	62,705
396	64,533
396,4	69,705
396,9	68,019
397,3	71,362
397,8	72,905
398,2	64,79
398,7	60,162
399,2	57,762
399,6	51,762
400,1	50,333
400,5	43,19
401	37,105
401,4	37,219
401,9	38,19
402,4	41,19
402,8	39,962
403,3	42,019
403,7	41,933
404,2	44,419
404,6	46,562
405,1	50,705
405,5	43,19
406	44,39
406,5	41,99
406,9	42,762
407,4	42,019
407,8	44,905
408,3	48,276
408,7	53,99
409,2	64,276
409,6	70,419
410,1	78,819
410,6	86,019
411	88,19
411,5	87,333
411,9	95,19
412,4	96,762
412,8	105,019
413,3	107,562
413,7	112,076
414,2	120,733
414,7	132,105
415,1	143,362
415,6	153,533
416	158,648
416,5	166,933
416,9	172,562
417,4	181,39
417,8	191,533
418,3	198,762
418,8	209,19
419,2	217,905
419,7	229,933
420,1	243,39
420,6	253,162
421	260,19
421,5	268,819
421,9	276,848
422,4	291,59
422,8	304,99
423,3	316,39
423,8	329,476
424,2	341,39
424,7	358,048
425,1	376,219
425,6	393,476
426	407,505
426,5	431,133
426,9	452,619
427,4	470,19
427,9	487,276
428,3	512,448
428,8	533,505
429,2	556,876
429,7	576,848
430,1	602,59
430,6	636,162
431	673,99
431,5	702,219
431,9	728,419
432,4	767,876
432,8	809,476
433,3	848,219
433,8	884,076
434,2	919,333
434,7	962,819
435,1	1015,705
435,6	1060,533
436	1105,962
436,5	1157,676
436,9	1210,448
437,4	1267,248
437,8	1323,048
438,3	1380,619
438,8	1441,219
439,2	1506,648
439,7	1572,133
440,1	1641,105
440,6	1710,419
441	1777,533
441,5	1849,39
441,9	1930,99
442,4	2005,819
442,8	2083,933
443,3	2164,619
443,7	2248,362
444,2	2345,533
444,7	2437,648
445,1	2534,133
445,6	2629,733
446	2731,419
446,5	2837,333
446,9	2941,733
447,4	3047,848
447,8	3165,905
448,3	3270,848
448,7	3390,876
449,2	3503,848
449,6	3626,162
450,1	3747,19
450,6	3872,219
451	3996,533
451,5	4129,276
451,9	4266,276
452,4	4412,133
452,8	4549,99
453,3	4695,676
453,7	4837,962
454,2	4991,333
454,6	5142,562
455,1	5281,59
455,5	5428,133
456	5579,79
456,4	5731,39
456,9	5889,419
457,3	6041,733
457,8	6189,105
458,3	6356,276
458,7	6519,762
459,2	6688,762
459,6	6857,476
460,1	7019,533
460,5	7182,876
461	7358,819
461,4	7531,019
461,9	7700,733
462,3	7874,648
462,8	8035,848
463,2	8210,533
463,7	8385,448
464,1	8563,19
464,6	8732,99
465	8909,676
465,5	9076,333
466	9266,705
466,4	9434,905
466,9	9609,333
467,3	9778,648
467,8	9946,362
468,2	10103,19
468,7	10277,676
469,1	10435,819
469,6	10608,448
470	10762,876
470,5	10924,019
470,9	11090,819
471,4	11253,39
471,8	11392,705
472,3	11542,619
472,7	11697,39
473,2	11846,505
473,6	11983,362
474,1	12125,219
474,5	12282,362
475	12435,99
475,4	12579,39
475,9	12708,162
476,4	12845,019
476,8	12978,962
477,3	13095,048
477,7	13204,848
478,2	13318,076
478,6	13426,762
479,1	13525,39
479,5	13618,962
480	13714,333
480,4	13815,562
480,9	13908,105
481,3	13984,333
481,8	14059,562
482,2	14135,59
482,7	14208,019
483,1	14276,99
483,6	14341,533
484	14394,362
484,5	14458,648
484,9	14518,448
485,4	14558,048
485,8	14602,076
486,3	14631,762
486,7	14655,676
487,2	14685,276
487,6	14699,276
488,1	14699,305
488,5	14720,648
489	14726,733
489,4	14747,819
489,9	14749,99
490,4	14746,648
490,8	14740,79
491,3	14742,019
491,7	14715,562
492,2	14693,505
492,6	14655,962
493,1	14613,933
493,5	14559,819
494	14511,905
494,4	14459,362
494,9	14423,133
495,3	14381,762
495,8	14333,533
496,2	14288,076
496,7	14245,819
497,1	14200,19
497,6	14151,305
498	14085,305
498,5	14031,248
498,9	13965,39
499,4	13896,905
499,8	13832,048
500,3	13765,105
500,7	13689,705
501,2	13618,933
501,6	13524,848
502,1	13441,876
502,5	13362,505
503	13274,933
503,4	13186,133
503,9	13101,505
504,3	13022,476
504,8	12936,419
505,2	12843,59
505,7	12750,076
506,1	12649,305
506,6	12547,762
507	12441,99
507,5	12334,533
507,9	12226,162
508,4	12123,048
508,8	12022,505
509,3	11923,99
509,7	11819,19
510,2	11721,733
510,6	11619,848
511,1	11519,733
511,5	11417,79
512	11309,219
512,4	11204,419
512,9	11094,676
513,3	10989,733
513,8	10879,076
514,2	10774,676
514,7	10661,305
515,1	10557,476
515,6	10450,648
516	10343,562
516,5	10224,162
516,9	10120,562
517,4	10018,076
517,8	9914,39
518,3	9807,619
518,7	9686,933
519,2	9584,133
519,6	9485,676
520,1	9373,448
520,5	9264,362
521	9155,276
521,4	9051,39
521,9	8969,305
522,3	8872,619
522,8	8770,905
523,2	8678,99
523,7	8585,476
524,1	8493,419
524,6	8399,419
525	8300,648
525,5	8201,733
525,9	8110,048
526,4	8008,676
526,8	7911,076
527,3	7827,619
527,7	7740,19
528,2	7651,105
528,6	7567,733
529,1	7482,333
529,5	7406,448
530	7328,705
530,4	7241,562
530,9	7152,276
531,3	7075,019
531,8	6997,419
532,2	6924,876
532,6	6843,19
533,1	6759,733
533,5	6682,19
534	6613,362
534,4	6534,962
534,9	6457,162
535,3	6380,533
535,8	6313,533
536,2	6249,933
536,7	6187,705
537,1	6113,876
537,6	6051,105
538	5987,933
538,5	5925,619
538,9	5849,648
539,4	5786,019
539,8	5717,533
540,3	5662,219
540,7	5592,019
541,2	5520,019
541,6	5456,648
542,1	5407,933
542,5	5345,505
543	5295,733
543,4	5233,448
543,9	5186,248
544,3	5140,905
544,8	5086,39
545,2	5029,19
545,7	4985,676
546,1	4932,99
546,5	4888,705
547	4835,848
547,4	4787,99
547,9	4737,305
548,3	4699,733
548,8	4653,19
549,2	4604,933
549,7	4563,99
550,1	4526,362
550,6	4482,419
551	4446,533
551,5	4401,048
551,9	4348,533
552,4	4314,476
552,8	4268,905
553,3	4219,476
553,7	4179,362
554,2	4136,505
554,6	4095,419
555,1	4070,876
555,5	4022,333
555,9	3989,848
556,4	3953,619
556,8	3916,905
557,3	3888,876
557,7	3854,019
558,2	3812,39
558,6	3792,448
559,1	3758,133
559,5	3729,562
560	3707,676
560,4	3679,733
560,9	3654,876
561,3	3623,476
561,8	3585,705
562,2	3558,305
562,7	3529,933
563,1	3495,533
563,6	3454,733
564	3423,533
564,4	3398,933
564,9	3376,105
565,3	3342,933
565,8	3321,619
566,2	3301,362
566,7	3282,505
567,1	3256,019
567,6	3232,59
568	3207,219
568,5	3187,219
568,9	3157,905
569,4	3130,333
569,8	3107,362
570,3	3084,333
570,7	3049,162
571,1	3026,133
571,6	3008,476
572	2991,219
572,5	2968,19
572,9	2944,305
573,4	2922,648
573,8	2913,419
574,3	2893,505
574,7	2867,419
575,2	2844,676
575,6	2827,162
576,1	2807,505
576,5	2793,505
576,9	2769,705
577,4	2746,419
577,8	2728,819
578,3	2712,305
578,7	2691,676
579,2	2675,562
579,6	2649,333
580,1	2629,419
580,5	2611,59
581	2595,648
581,4	2576,648
581,9	2557,162
582,3	2535,819
582,7	2516,248
583,2	2499,933
583,6	2484,133
584,1	2463,333
584,5	2445,59
585	2432,933
585,4	2416,19
585,9	2405,962
586,3	2390,248
586,8	2373,105
587,2	2353,305
587,6	2336,19
588,1	2318,105
588,5	2302,305
589	2284,619
589,4	2266,019
589,9	2248,076
590,3	2237,562
590,8	2225,076
591,2	2210,819
591,7	2203,962
592,1	2195,962
592,5	2192,676
593	2184,162
593,4	2167,676
593,9	2150,648
594,3	2141,048
594,8	2121,105
595,2	2103,59
595,7	2087,59
596,1	2077,905
596,6	2067,419
597	2057,276
597,4	2044,505
597,9	2029,705
598,3	2022,533
598,8	2013,248
599,2	1999,162
599,7	1988,076
600,1	1975,99
600,6	1963,619
601	1959,533
601,4	1951,248
601,9	1943,533
602,3	1931,133
602,8	1921,248
603,2	1909,133
603,7	1898,362
604,1	1882,333
604,6	1866,019
605	1845,533
605,4	1841,133
605,9	1832,876
606,3	1820,476
606,8	1805,305
607,2	1797,962
607,7	1783,533
608,1	1777,476
608,6	1766,819
609	1758,19
609,4	1754,076
609,9	1752,648
610,3	1741,79
610,8	1732,276
611,2	1721,133
611,7	1708,505
612,1	1693,705
612,6	1683,533
613	1668,448
613,4	1663,248
613,9	1653,562
614,3	1646,59
614,8	1636,048
615,2	1626,076
615,7	1616,39
616,1	1606,419
616,6	1586,619
617	1580,99
617,4	1570,562
617,9	1566,133
618,3	1560,762
618,8	1554,133
619,2	1542,762
619,7	1541,39
620,1	1531,133
620,5	1525,819
621	1512,733
621,4	1501,99
621,9	1491,562
622,3	1482,305
622,8	1471,019
623,2	1462,619
623,6	1447,39
624,1	1434,048
624,5	1423,962
625	1413,162
625,4	1406,59
625,9	1396,105
626,3	1385,59
626,8	1379,476
627,2	1374,448
627,6	1360,533
628,1	1351,333
628,5	1349,133
629	1336,076
629,4	1329,105
629,9	1317,448
630,3	1307,505
630,7	1305,448
631,2	1296,99
631,6	1286,79
632,1	1282,79
632,5	1271,876
633	1263,533
633,4	1255,505
633,8	1248,162
634,3	1236,505
634,7	1227,333
635,2	1217,905
635,6	1211,333
636,1	1205,705
636,5	1194,276
636,9	1181,133
637,4	1175,619
637,8	1162,019
638,3	1155,619
638,7	1142,733
639,2	1128,076
639,6	1127,105
640	1117,99
640,5	1112,133
640,9	1101,619
641,4	1099,962
641,8	1097,733
642,2	1097,219
642,7	1090,905
643,1	1091,99
643,6	1088,305
644	1087,362
644,5	1078,962
644,9	1072,133
645,3	1061,19
645,8	1045,533
646,2	1041,19
646,7	1024,762
647,1	1017,876
647,6	1013,419
648	1010,705
648,4	1005,933
648,9	1002,476
649,3	991,562
649,8	992,248
650,2	989,362
650,6	983,076
651,1	972,105
651,5	970,562
652	967,476
652,4	963,105
652,9	956,648
653,3	946,933
653,7	934,819
654,2	932,419
654,6	921,048
655,1	914,162
655,5	913,219
655,9	907,162
656,4	903,705
656,8	899,333
657,3	894,448
657,7	892,219
658,2	885,933
658,6	873,733
659	870,476
659,5	859,705
659,9	857,848
660,4	848,076
660,8	841,676
661,2	834,733
661,7	830,219
662,1	823,876
662,6	820,705
663	814,219
663,4	812,076
663,9	807,533
664,3	801,362
664,8	791,362
665,2	785,448
665,6	780,762
666,1	775,39
666,5	770,39
667	763,762
667,4	758,79
667,9	757,162
668,3	749,305
668,7	746,248
669,2	742,562
669,6	733,533
670,1	728,562
670,5	724,933
670,9	721,105
671,4	715,076
671,8	714,819
672,3	710,705
672,7	708,533
673,1	702,676
673,6	698,305
674	696,533
674,5	695,419
674,9	677,562
675,3	669,076
675,8	663,733
676,2	660,39
676,7	652,133
677,1	646,048
677,5	638,305
678	641,39
678,4	637,162
678,9	633,733
679,3	626,99
679,7	624,619
680,2	613,648
680,6	605,362
681,1	603,305
681,5	602,276
681,9	599,105
682,4	597,819
682,8	596,105
683,3	594,362
683,7	597,99
684,1	590,705
684,6	580,248
685	575,19
685,5	568,733
685,9	561,476
686,3	555,933
686,8	551,876
687,2	547,048
687,7	544,276
688,1	535,79
688,5	535,99
689	534,99
689,4	534,019
689,9	525,648
690,3	518,648
690,7	515,648
691,2	521,105
691,6	515,648
692	510,819
692,5	505,419
692,9	504,219
693,4	503,79
693,8	498,39
694,2	483,333
694,7	480,962
695,1	475,219
695,6	473,705
696	473,962
696,4	470,19
696,9	464,876
697,3	463,905
697,8	459,019
698,2	456,248
698,6	454,219
699,1	448,162
699,5	445,248
699,9	446,219
700,4	445,419
700,8	441,19
701,3	442,076
701,7	433,905
702,1	429,533
702,6	425,962
703	422,276
703,5	419,962
703,9	416,448
704,3	411,819
704,8	409,99
705,2	408,648
705,6	407,305
706,1	405,419
706,5	400,219
707	400,048
707,4	394,105
707,8	389,933
708,3	385,962
708,7	385,133
709,2	380,79
709,6	377,419
710	374,533
710,5	372,876
710,9	371,876
711,3	367,905
711,8	362,905
712,2	359,276
712,7	355,876
713,1	353,105
713,5	353,79
714	351,762
714,4	347,619
714,8	346,162
715,3	343,676
715,7	344,076
716,2	339,905
716,6	338,676
717	333,619
717,5	330,305
717,9	329,505
718,3	325,248
718,8	322,619
719,2	318,562
719,7	307,19
720,1	309,219
720,5	313,676
721	309,705
721,4	312,19
721,8	315,905
722,3	314,219
722,7	325,162
723,2	316,933
723,6	307,562
724	302,848
724,5	297,905
724,9	292,705
725,3	290,79
725,8	278,162
726,2	280,076
726,7	280,762
727,1	280,476
727,5	279,533
728	275,133
728,4	269,648
728,8	271,448
729,3	268,819
729,7	263,619
730,1	261,362
730,6	260,362
731	258,79
731,5	259,562
731,9	255,19
732,3	254,933
732,8	261,076
733,2	258,362
733,6	256,162
734,1	255,705
734,5	253,705
734,9	256,562
735,4	256,133
735,8	246,59
736,3	250,905
736,7	248,562
737,1	245,305
737,6	245,133
738	240,162
738,4	236,248
738,9	240,505
739,3	232,333
739,7	230,019
740,2	227,162
740,6	229,505
741,1	230,162
741,5	224,619
741,9	220,562
742,4	223,848
742,8	222,533
743,2	224,448
743,7	215,133
744,1	210,219
744,5	208,59
745	204,39
745,4	196,619
745,8	197,276
746,3	195,59
746,7	199,562
747,2	198,848
747,6	207,733
748	210,733
748,5	214,133
748,9	208,933
749,3	204,19
749,8	204,562
750,2	206,419
750,6	196,848
751,1	197,448
751,5	195,962
751,9	201,162
752,4	202,419
752,8	198,933
753,3	194,562
753,7	200,476
754,1	195,019
754,6	193,619
755	188,19
755,4	186,333
755,9	184,99
756,3	181,276
756,7	174,048
757,2	174,105
757,6	171,905
758	168,362
758,5	166,39
758,9	163,648
759,3	170,533
759,8	172,248
760,2	172,705
760,6	170,676
761,1	172,419
761,5	175,505
761,9	172,362
762,4	162,905
762,8	161,619
763,3	157,819
763,7	155,59
764,1	153,019
764,6	151,105
765	157,419
765,4	160,848
765,9	159,019
766,3	163,305
766,7	164,333
767,2	162,533
767,6	160,79
768	158,933
768,5	160,476
768,9	162,59
769,3	158,333
769,8	158,99
770,2	162,276
770,6	158,848
771,1	159,19
771,5	154,019
771,9	153,99
772,4	150,705
772,8	144,962
773,2	144,19
773,7	142,905
774,1	136,99
774,5	135,39
775	132,733
775,4	135,019
775,8	132,962
776,3	131,962
776,7	130,962
777,1	133,19
777,6	136,448
778	135,19
778,4	134,648
778,9	139,648
779,3	135,533
779,7	135,562
780,2	136,448
780,6	134,648
781	131,019
781,5	125,59
781,9	125,362
782,3	125,362
782,8	122,39
783,2	116,733
783,6	114,99
784,1	113,362
784,5	114,362
784,9	112,505
785,4	115,876
785,8	119,876
786,2	121,419
786,7	124,448
787,1	127,476
787,5	128,076
788	126,076
788,4	120,819
788,8	117,905
789,3	113,19
789,7	109,562
790,1	105,79
790,6	109,419
791	105,362
791,4	109,448
791,9	103,248
792,3	101,676
792,7	103,705
793,2	103,848
793,6	100,962
794	105,533
794,5	100,876
794,9	105,819
795,3	110,705
795,8	108,362
796,2	107,19
796,6	104,79
797,1	100,219
797,5	95,048
797,9	96,705
798,4	94,448
798,8	89,819
799,2	87,048
799,7	83,933
800,1	83,762
800,5	88,533
801	91,19
801,4	88,933
801,8	88,419
802,2	90,162
802,7	88,962
803,1	89,676
803,5	90,476
804	81,762
804,4	84,562
804,8	85,276
805,3	87,419
805,7	90,648
806,1	92,933
806,6	91,133
807	90,048
807,4	87,076
807,9	82,333
808,3	76,048
808,7	76,019
809,2	75,99
809,6	76,076
810	80,19
810,4	80,876
810,9	86,39
811,3	91,105
811,7	92,533
812,2	92,762
812,6	88,905
813	88,048
813,5	84,59
813,9	84,276
814,3	81,105
814,8	77,39
815,2	73,305
815,6	75,276
816,1	78,533
816,5	83,105
816,9	81,79
817,3	81,248
817,8	84,476
818,2	87,019
818,6	85,848
819,1	81,419
819,5	78,705
819,9	78,79
820,4	78,19
820,8	72,133
821,2	65,79
821,7	67,819
822,1	70,648
822,5	75,505
822,9	75,79
823,4	76,648
823,8	78,562
824,2	81,648
824,7	78,476
825,1	68,39
825,5	59,448
826	53,019
826,4	54,962
826,8	53,676
827,3	54,562
827,7	49,676
828,1	56,133
828,5	57,648
829	59,076
829,4	55,219
829,8	49,905
830,3	47,905
830,7	51,248
831,1	48,705
831,6	48,505
832	51,619
832,4	50,362
832,8	52,562
833,3	49,333
833,7	44,619
834,1	42,79
834,6	41,848
835	43,962
835,4	45,219
835,8	41,676
836,3	42,505
836,7	48,333
837,1	46,848
837,6	50,076
838	44,105
838,4	44,276
838,9	47,933
839,3	47,076
839,7	45,448
840,1	41,905
840,6	38,933
841	40,248
841,4	39,076
841,9	41,79
842,3	39,933
842,7	37,762
843,1	41,019
843,6	44,848
844	41,362
844,4	42,59
844,9	43,562
845,3	45,048
845,7	43,705
846,2	45,305
846,6	38,248
847	42,59
847,4	43,59
847,9	42,019
848,3	41,562
848,7	44,076
849,2	44,419
849,6	44,305
850	44,476
850,4	38,448
850,9	37,962
851,3	39,133
851,7	42,048
852,2	40,705
852,6	45,933
853	44,905
853,4	46,048
853,9	41,79
854,3	41,962
854,7	39,076
855,2	36,505
855,6	35,99
856	34,19
856,4	33,876
856,9	32,133
857,3	31,676
857,7	28,819
858,2	33,562
858,6	30,533
859	31,619
859,4	34,876
859,9	36,79
860,3	34,79
860,7	36,962
861,1	36,219
861,6	31,848
862	29,305
862,4	24,162
862,9	26,533
863,3	24,819
863,7	25,762
864,1	24,105
864,6	27,905
865	28,276
865,4	29,905
865,9	29,705
866,3	25,105
866,7	19,676
867,1	17,676
867,6	19,99
868	17,733
868,4	18,248
868,8	17,648
869,3	24,733
869,7	29,933
870,1	26,79
870,6	24,248
871	9,676
871,4	15,162
871,8	12,848
872,3	14,505
872,7	9,79
873,1	11,133
873,5	10,362
874	26,133
874,4	22,533
874,8	20,133
875,3	20,019
875,7	20,19
876,1	26,99
876,5	26,276
877	26,362
877,4	20,962
877,8	26,705
878,2	26,876
878,7	30,019
879,1	25,419
879,5	28,219
879,9	28,448
880,4	30,905
880,8	27,562
881,2	24,133
881,7	20,848
882,1	22,905
882,5	18,476
882,9	18,048
883,4	19,419
883,8	18,676
884,2	15,79
884,6	17,562
885,1	16,619
885,5	17,133
885,9	16,333
886,3	14,819
886,8	15,362
887,2	16,648
887,6	16,59
888	14,448
888,5	14,933
888,9	12,876
889,3	11,19
889,8	9,019
890,2	9,448
890,6	4,676
891	8,59
891,5	6,59
891,9	8,048
892,3	10,705
892,7	13,59
893,2	15,848
893,6	20,533
894	19,619
894,4	18,419
894,9	23,133
895,3	24,99
895,7	28,248
896,1	23,733
896,6	25,962
897	24,676
897,4	30,048
897,8	26,276
898,3	24,248
898,7	15,162
899,1	16,99
899,5	12,733
900	7,105
900,4	5,59
900,8	3,933
901,2	1,762
901,7	5,276
902,1	6,105
902,5	8,933
902,9	12,448
903,4	12,19
903,8	12,79
904,2	9,819
904,6	13,533
905,1	13,133
905,5	9,705
905,9	12,105
906,3	13,39
906,8	18,076
907,2	24,962
907,6	22,619
908	25,876
908,5	23,362
908,9	20,476
909,3	17,333
909,7	14,219
910,2	11,162
910,6	11,448
911	4,39
911,4	9,933
911,9	12,019
912,3	12,276
912,7	15,819
913,1	16,362
913,6	13,448
914	20,933
914,4	15,305
914,8	14,419
915,3	13,819
915,7	10,276
916,1	8,133
916,5	11,448
916,9	8,019
917,4	13,133
917,8	11,876
918,2	10,162
918,6	6,876
919,1	10,476
919,5	11,762
919,9	15,133
920,3	10,79
920,8	9,419
921,2	14,79
921,6	14,619
922	14,59
922,5	8,448
922,9	6,762
923,3	6,333
923,7	9,562
924,2	5,076
924,6	7,876
925	6,676
925,4	9,105
925,8	9,19
926,3	12,79
926,7	8,162
927,1	7,762
927,5	10,876
928	5,819
928,4	2,819
928,8	-0,495
929,2	-1,924
929,7	1,648
930,1	1,676
930,5	-2,152
930,9	6,162
931,3	8,476
931,8	12,248
932,2	13,762
932,6	11,933
933	8,476
933,5	5,419
933,9	3,448
934,3	6,19
934,7	0,676
935,2	-0,495
935,6	0,619
936	6,99
936,4	11,505
936,8	7,59
937,3	6,676
937,7	9,733
938,1	13,476
938,5	12,505
939	9,562
939,4	8,562
939,8	11,79
940,2	10,819
940,6	10,419
941,1	7,79
941,5	10,99
941,9	9,419
942,3	9,448
942,8	11,019
943,2	14,276
943,6	10,276
944	9,419
944,4	7,819
944,9	3,39
945,3	2,019
945,7	-0,21
946,1	-3,552
946,6	-1,21
947	-3,838
947,4	-2,01
947,8	6,448
948,2	3,905
948,7	1,505
949,1	2,305
949,5	8,248
949,9	10,019
950,3	8,19
950,8	8,248
951,2	10,676
951,6	12,505
952	15,105
952,5	6,419
952,9	8,448
953,3	6,19
953,7	4,19
954,1	7,762
954,6	8,676
955	5,619
955,4	7,048
955,8	8,248
956,2	8,448
956,7	10,048
957,1	6,476
957,5	6,19
957,9	10,248
958,3	10,733
958,8	8,733
959,2	14,676
959,6	15,219
960	13,848
960,5	15,99
960,9	14,076
961,3	12,733
961,7	9,362
962,1	4,362
962,6	5,848
963	8,705
963,4	-0,638
963,8	-5,467
964,2	-2,181
964,7	-0,038
965,1	0,876
965,5	-3,095
965,9	-1,981
966,3	8,79
966,8	11,848
967,2	11,39
967,6	12,876
968	8,562
968,4	7,019
968,9	6,419
969,3	4,162
969,7	1,676
970,1	3,933
970,5	1,79
971	6,648
971,4	8,962
971,8	5,933
972,2	3,19
972,6	2,619
973,1	0,962
973,5	0,248
973,9	1,533
974,3	1,305
974,7	2,905
975,2	6,276
975,6	8,133
976	8,733
976,4	7,562
976,8	5,39
977,3	2,99
977,7	2,99
978,1	1,648
978,5	-1,61
978,9	-3,781
979,4	-4,238
979,8	-6,524
980,2	-4,752
980,6	-9,867
981	-10,095
981,5	-7,152
981,9	-5,952
982,3	-5,724
982,7	-4,838
983,1	-6,867
983,6	-2,667
984	-4,895
984,4	-3,324
984,8	-7,01
985,2	-1,238
985,6	-2,695
986,1	3,219
986,5	4,019
986,9	-1,381
987,3	-1,124
987,7	3,762
988,2	-0,838
988,6	2,962
989	-0,438
989,4	2,562
989,8	5,705
990,3	1,819
990,7	-1,81
991,1	0,562
991,5	1,076
991,9	-0,781
992,3	-0,295
992,8	1,819
993,2	3,133
993,6	6,933
994	8,248
994,4	7,905
994,9	9,933
995,3	3,219
995,7	-0,524
996,1	5,79
996,5	5,219
996,9	2,419
997,4	3,962
997,8	2,448
998,2	1,562
998,6	2,019
999	-3,895
999,5	-6,781
999,9	-7,41
1000,3	-10,638
1000,7	-11,095
1001,1	-8,724
1001,5	-3,695
1002	1,476
1002,4	6,562
1002,8	7,762
1003,2	8,876
1003,6	9,19
1004	14,219
1004,5	11,476
1004,9	5,962
1005,3	1,276
1005,7	1,733
1006,1	-1,124
1006,6	0,533
1007	-3,238
1007,4	-4,667
1007,8	-0,667
1008,2	-2,867
1008,6	-2,21
1009,1	-1,41
1009,5	0,019
1009,9	1,99
1010,3	5,105
1010,7	4,876
1011,1	8,019
1011,6	8,962
1012	11,019
1012,4	6,933
1012,8	5,419
1013,2	7,19
1013,6	3,562
1014,1	3,505
1014,5	4,333
1014,9	4,39
1015,3	2,619
1015,7	4,79
1016,1	2,648
1016,6	5,248
1017	7,533
1017,4	2,419
1017,8	-0,552
1018,2	5,048
1018,6	-0,267
1019,1	-2,324
1019,5	-4,152
1019,9	-8,038
1020,3	-5,524
1020,7	-4,981
1021,1	-9,752
1021,6	-9,324
1022	-2,61
1022,4	-1,41
1022,8	2,676
1023,2	6,019
1023,6	6,848
1024,1	13,276
1024,5	17,19
1024,9	10,105
1025,3	10,076
1025,7	6,39
1026,1	5,305
1026,6	5,048
1027	3,476
1027,4	3,333
1027,8	4,905
1028,2	0,419
1028,6	7,733
1029	6,19
1029,5	10,248
1029,9	7,848
1030,3	3,648
1030,7	3,562
1031,1	9,848
1031,5	-0,867
1032	-4,752
1032,4	-5,238
1032,8	-3,638
1033,2	3,419
1033,6	0,419
1034	-2,781
1034,4	-2,381
1034,9	4,619
1035,3	1,448
1035,7	2,99
1036,1	-2,724
1036,5	2,219
1036,9	3,105
1037,4	12,162
1037,8	5,133
1038,2	6,048
1038,6	3,562
1039	9,39
1039,4	10,99
1039,8	6,276
1040,3	1,648
1040,7	4,39
1041,1	5,962
1041,5	8,133
1041,9	0,962
1042,3	0,419
1042,7	4,133
1043,2	7,248
1043,6	7,019
1044	9,276
1044,4	7,333
1044,8	13,048
1045,2	9,819
1045,6	11,248
1046,1	8,79
1046,5	8,476
1046,9	4,076
1047,3	3,819
1047,7	0,962
1048,1	3,933
1048,5	1,876
1049	1,59
1049,4	3,248
1049,8	2,562
1050,2	6,448
1050,6	11,39
1051	14,933
1051,4	11,905
1051,9	10,733
1052,3	17,705
1052,7	20,019
1053,1	13,933
1053,5	14,105
1053,9	11,876
1054,3	14,676
1054,8	17,79
1055,2	15,848
1055,6	17,448
1056	21,362
1056,4	16,619
1056,8	16,962
1057,2	15,99
1057,6	11,248
1058,1	6,962
1058,5	0,219
1058,9	1,248
1059,3	1,105
1059,7	-2,267
1060,1	-1,324
1060,5	2,848
1061	1,876
1061,4	2,819
1061,8	0,39
1062,2	0,076
1062,6	3,162
1063	8,505
1063,4	7,79
1063,8	3,79
1064,3	6,533
1064,7	7,962
1065,1	9,39
1065,5	0,162
1065,9	-4,124
1066,3	-6,467
1066,7	-2,352
1067,1	-3,181
1067,6	0,533
1068	-3,61
1068,4	3,419
1068,8	7,705
1069,2	12,476
1069,6	11,162
1070	14,276
1070,4	11,133
1070,9	16,419
1071,3	15,848
1071,7	12,419
1072,1	8,848
1072,5	6,962
1072,9	-0,01
1073,3	-0,181
1073,7	-4,152
1074,2	-4,867
1074,6	-1,695
1075	-1,895
1075,4	0,676
1075,8	5,276
1076,2	3,076
1076,6	7,619
1077	5,105
1077,5	1,648
1077,9	0,79
1078,3	0,276
1078,7	0,305
1079,1	-1,352
1079,5	-4,181
1079,9	-1,095
1080,3	0,419
1080,7	1,676
1081,2	5,39
1081,6	6,448
1082	6,933
1082,4	8,562
1082,8	11,019
1083,2	10,676
1083,6	11,962
1084	6,305
1084,5	4,619
1084,9	2,162
1085,3	-4,61
1085,7	-9,952
1086,1	-12,181
1086,5	-12,61
1086,9	-5,61
1087,3	-1,267
1087,7	5,39
1088,2	7,476
1088,6	7,676
1089	10,448
1089,4	9,362
1089,8	3,333
1090,2	-2,295
1090,6	-3,01
1091	1,276
1091,4	4,676
1091,9	2,99
1092,3	1,419
1092,7	0,848
1093,1	6,305
1093,5	2,705
1093,9	-1,695
1094,3	3,362
1094,7	1,962
1095,1	2,876
1095,5	6,533
1096	-1,124
1096,4	0,962
1096,8	1,562
1097,2	-4,924
1097,6	-0,495
1098	2,419
1098,4	2,219
1098,8	8,448
1099,2	12,876
1099,6	14,219
1100,1	11,162
1100,5	5,505
1100,9	0,419
1101,3	2,333
1101,7	-2,152
1102,1	-5,895
1102,5	-4,267
1102,9	0,162
1103,3	7,933
1103,7	12,419
1104,2	9,19
1104,6	10,562
1105	10,705
1105,4	10,448
1105,8	8,248
1106,2	3,076
1106,6	1,39
1107	1,733
1107,4	2,4
1107,8	0,973
1108,3	-0,117
