Data from Subt2_287.txt Node
Date: Sat Aug 26 19:09:23 MSK 2023
User: vat
Spectrometer: MAYP114033
Trigger mode: 0
Integration Time (sec): 1,000000E0
Scans to average: 5
Electric dark correction enabled: true
Nonlinearity correction enabled: false
Boxcar width: 3
XAxis mode: Wavelengths
Number of Pixels in Spectrum: 2068
>>>>>Begin Spectral Data<<<<<
199,4	-0,367
199,9	0,133
200,4	0,933
200,8	1,733
201,3	0,733
201,8	4,619
202,2	3,048
202,7	7,476
203,2	7,476
203,6	6,448
204,1	4,962
204,6	4,419
205	3,59
205,5	2,705
206	0,448
206,4	-1,038
206,9	-1,352
207,4	2,419
207,8	2,162
208,3	-1,21
208,8	0,39
209,2	4,933
209,7	4,905
210,2	7,676
210,6	5,19
211,1	5,248
211,5	1,333
212	2,676
212,5	-1,238
212,9	-0,524
213,4	0,648
213,9	0,848
214,3	5,162
214,8	7,276
215,3	8,448
215,7	12,276
216,2	13,562
216,7	11,59
217,1	8,39
217,6	10,99
218,1	14,905
218,5	8,876
219	-1,01
219,5	2,362
219,9	-1,924
220,4	6,162
220,9	4,533
221,3	3,362
221,8	9,99
222,3	16,505
222,7	16,105
223,2	21,048
223,6	15,99
224,1	10,79
224,6	12,105
225	5,59
225,5	1,019
226	-4,752
226,4	-8,981
226,9	-6,524
227,4	-4,038
227,8	-7,895
228,3	-5,038
228,8	-2,495
229,2	5,59
229,7	9,248
230,2	10,162
230,6	13,362
231,1	18,848
231,5	21,562
232	22,533
232,5	17,276
232,9	18,705
233,4	18,933
233,9	14,562
234,3	12,733
234,8	11,219
235,3	6,419
235,7	10,362
236,2	9,333
236,7	5,962
237,1	9,533
237,6	6,162
238,1	3,019
238,5	3,276
239	-0,21
239,4	3,048
239,9	4,619
240,4	3,79
240,8	6,905
241,3	8,705
241,8	11,533
242,2	12,105
242,7	5,59
243,2	4,762
243,6	3,019
244,1	6,619
244,6	12,219
245	11,876
245,5	9,676
245,9	7,648
246,4	10,162
246,9	9,762
247,3	9,648
247,8	11,962
248,3	16,333
248,7	18,048
249,2	20,876
249,7	17,762
250,1	14,99
250,6	7,705
251	4,905
251,5	0,362
252	-0,81
252,4	5,705
252,9	4,076
253,4	6,276
253,8	8,448
254,3	5,248
254,8	5,705
255,2	5,819
255,7	0,019
256,1	2,876
256,6	6,705
257,1	12,533
257,5	9,476
258	10,19
258,5	10,276
258,9	9,733
259,4	7,676
259,9	7,162
260,3	0,562
260,8	-0,752
261,2	0,905
261,7	6,362
262,2	2,848
262,6	6,19
263,1	9,476
263,6	11,533
264	15,59
264,5	17,333
264,9	10,39
265,4	18,048
265,9	12,99
266,3	12,619
266,8	13,99
267,3	14,819
267,7	12,505
268,2	8,848
268,7	8,619
269,1	13,79
269,6	5,019
270	7,933
270,5	4,533
271	3,219
271,4	11,848
271,9	7,905
272,4	9,533
272,8	11,476
273,3	7,905
273,7	15,648
274,2	17,333
274,7	17,305
275,1	19,162
275,6	15,733
276,1	14,248
276,5	18,305
277	14,79
277,4	14,59
277,9	13,876
278,4	15,962
278,8	16,819
279,3	18,476
279,8	15,59
280,2	16,419
280,7	17,419
281,1	13,905
281,6	10,876
282,1	11,962
282,5	14,105
283	10,248
283,4	9,048
283,9	7,762
284,4	12,762
284,8	15,705
285,3	13,448
285,8	15,848
286,2	20,076
286,7	16,676
287,1	13,676
287,6	10,905
288,1	5,562
288,5	4,876
289	2,362
289,5	3,562
289,9	6,476
290,4	8,705
290,8	9,848
291,3	16,762
291,8	18,133
292,2	17,162
292,7	19,762
293,1	18,39
293,6	19,162
294,1	17,19
294,5	15,362
295	15,133
295,5	18,819
295,9	14,505
296,4	14,276
296,8	13,505
297,3	11,962
297,8	3,276
298,2	-0,838
298,7	-0,981
299,1	-0,895
299,6	-1,724
300,1	1,305
300,5	4,876
301	11,59
301,5	19,648
301,9	15,933
302,4	13,562
302,8	13,876
303,3	10,648
303,8	4,562
304,2	5,933
304,7	0,333
305,1	0,562
305,6	-0,21
306,1	4,362
306,5	7,362
307	12,048
307,4	14,219
307,9	15,533
308,4	13,848
308,8	11,562
309,3	5,619
309,8	3,162
310,2	4,276
310,7	-3,095
311,1	-1,438
311,6	0,048
312,1	5,762
312,5	12,048
313	9,533
313,4	8,733
313,9	11,619
314,4	8,533
314,8	7,59
315,3	4,648
315,7	-2,752
316,2	-3,552
316,7	-3,21
317,1	-2,267
317,6	0,562
318	5,962
318,5	7,648
319	12,133
319,4	17,162
319,9	20,305
320,3	20,076
320,8	17,076
321,3	15,19
321,7	15,476
322,2	17,505
322,6	18,248
323,1	13,79
323,6	12,99
324	12,79
324,5	12,048
324,9	12,819
325,4	11,79
325,9	10,276
326,3	11,248
326,8	13,59
327,2	8,676
327,7	9,219
328,2	7,762
328,6	11,705
329,1	9,705
329,5	11,648
330	14,762
330,5	21,448
330,9	22,533
331,4	23,876
331,8	19,476
332,3	27,705
332,8	28,505
333,2	22,133
333,7	25,162
334,1	22,705
334,6	20,162
335,1	17,133
335,5	12,876
336	5,648
336,4	6,876
336,9	6,162
337,4	8,705
337,8	8,162
338,3	12,248
338,7	12,933
339,2	15,39
339,7	16,533
340,1	12,933
340,6	13,448
341	12,648
341,5	8,105
342	4,648
342,4	3,762
342,9	0,133
343,3	1,476
343,8	0,419
344,2	4,19
344,7	8,876
345,2	7,705
345,6	11,619
346,1	15,905
346,5	13,19
347	7,676
347,5	6,39
347,9	9,79
348,4	9,962
348,8	9,133
349,3	11,476
349,8	16,848
350,2	25,905
350,7	25,933
351,1	23,705
351,6	29,476
352	32,476
352,5	34,79
353	39,505
353,4	44,448
353,9	60,59
354,3	72,619
354,8	82,962
355,3	105,933
355,7	128,133
356,2	150,362
356,6	179,105
357,1	209,848
357,5	246,933
358	290,962
358,5	333,219
358,9	380,619
359,4	442,076
359,8	505,819
360,3	581,419
360,8	661,648
361,2	757,562
361,7	860,362
362,1	981,933
362,6	1106,476
363	1236,133
363,5	1374,705
364	1529,248
364,4	1676,59
364,9	1834,505
365,3	1983,648
365,8	2121,79
366,3	2256,648
366,7	2372,39
367,2	2473,99
367,6	2561,019
368,1	2622,276
368,5	2664,705
369	2691,505
369,5	2695,39
369,9	2678,276
370,4	2631,79
370,8	2571,39
371,3	2489,219
371,7	2395,562
372,2	2290,59
372,7	2177,79
373,1	2060,705
373,6	1943,39
374	1822,819
374,5	1706,448
374,9	1589,933
375,4	1478,419
375,9	1370,476
376,3	1263,133
376,8	1160,676
377,2	1069,762
377,7	980,248
378,2	901,076
378,6	824,819
379,1	756,076
379,5	700,048
380	649,676
380,4	593,762
380,9	547,876
381,4	497,619
381,8	463,448
382,3	429,99
382,7	396,448
383,2	368,962
383,6	345,562
384,1	324,19
384,6	309,219
385	284,933
385,5	266,59
385,9	247,619
386,4	224,819
386,8	208,762
387,3	192,648
387,7	185,133
388,2	173,019
388,7	161,79
389,1	151,048
389,6	146,448
390	138,562
390,5	134,162
390,9	123,362
391,4	116,905
391,9	108,79
392,3	103,619
392,8	93,648
393,2	85,505
393,7	79,762
394,1	71,619
394,6	68,933
395,1	69,762
395,5	65,619
396	66,219
396,4	66,276
396,9	63,39
397,3	65,819
397,8	64,562
398,2	61,19
398,7	58,848
399,2	57,733
399,6	56,219
400,1	51,648
400,5	48,133
401	44,676
401,4	40,933
401,9	47,219
402,4	49,133
402,8	44,933
403,3	52,619
403,7	49,933
404,2	54,248
404,6	57,476
405,1	51,505
405,5	47,762
406	49,648
406,5	45,333
406,9	48,733
407,4	44,762
407,8	41,733
408,3	43,905
408,7	44,419
409,2	48,333
409,6	54,019
410,1	54,105
410,6	58,219
411	63,962
411,5	64,876
411,9	68,79
412,4	69,905
412,8	69,133
413,3	69,448
413,7	71,076
414,2	65,648
414,7	68,99
415,1	77,305
415,6	80,248
416	80,876
416,5	84,505
416,9	83,905
417,4	92,048
417,8	99,79
418,3	98,676
418,8	104,448
419,2	107,962
419,7	106,733
420,1	111,448
420,6	112,448
421	108,19
421,5	107,79
421,9	105,476
422,4	106,019
422,8	114,219
423,3	111,419
423,8	107,933
424,2	103,219
424,7	99,505
425,1	101,105
425,6	100,962
426	95,819
426,5	98,619
426,9	105,076
427,4	107,162
427,9	103,962
428,3	104,448
428,8	102,248
429,2	101,048
429,7	99,705
430,1	94,562
430,6	96,505
431	99,448
431,5	98,619
431,9	100,619
432,4	102,59
432,8	105,876
433,3	110,019
433,8	113,305
434,2	117,762
434,7	121,648
435,1	121,705
435,6	124,476
436	129,505
436,5	132,333
436,9	132,19
437,4	136,848
437,8	141,162
438,3	151,562
438,8	157,648
439,2	161,819
439,7	168,676
440,1	180,133
440,6	186,505
441	188,962
441,5	195,533
441,9	206,648
442,4	211,533
442,8	220,705
443,3	230,733
443,7	238,933
444,2	249,362
444,7	253,076
445,1	258,848
445,6	270,905
446	280,362
446,5	284,905
446,9	290,19
447,4	305,133
447,8	320,048
448,3	333,362
448,7	342,848
449,2	357,448
449,6	376,562
450,1	394,305
450,6	406,219
451	420,362
451,5	434,562
451,9	456,333
452,4	475,105
452,8	482,933
453,3	501,333
453,7	519,419
454,2	538,048
454,6	560,019
455,1	575,105
455,5	588,676
456	617,419
456,4	634,733
456,9	659,99
457,3	681,448
457,8	695,79
458,3	724,162
458,7	744,448
459,2	769,562
459,6	796,619
460,1	812,619
460,5	832,876
461	866,59
461,4	882,819
461,9	907,419
462,3	928,505
462,8	956,533
463,2	985,476
463,7	1013,048
464,1	1041,19
464,6	1074,819
465	1109,162
465,5	1137,99
466	1164,933
466,4	1193,733
466,9	1228,533
467,3	1254,476
467,8	1283,333
468,2	1312,419
468,7	1343,419
469,1	1376,79
469,6	1409,648
470	1438,19
470,5	1471,105
470,9	1497,048
471,4	1532,048
471,8	1564,733
472,3	1599,762
472,7	1629,762
473,2	1660,105
473,6	1685,733
474,1	1724,819
474,5	1755,276
475	1786,219
475,4	1813,448
475,9	1846,79
476,4	1880,619
476,8	1917,562
477,3	1945,962
477,7	1979,505
478,2	2010,333
478,6	2040,076
479,1	2062,362
479,5	2092,933
480	2123,133
480,4	2152,219
480,9	2175,533
481,3	2198,333
481,8	2224,819
482,2	2253,276
482,7	2279,076
483,1	2291,905
483,6	2315,762
484	2333,305
484,5	2360,219
484,9	2380,419
485,4	2404,762
485,8	2422,962
486,3	2443,448
486,7	2463,905
487,2	2487,276
487,6	2504,248
488,1	2515,276
488,5	2532,59
489	2555,019
489,4	2583,105
489,9	2593,248
490,4	2609,705
490,8	2620,476
491,3	2643,676
491,7	2654,333
492,2	2667,419
492,6	2670,162
493,1	2683,562
493,5	2688,733
494	2693,076
494,4	2702,619
494,9	2708,562
495,3	2711,105
495,8	2724,39
496,2	2732,019
496,7	2734,676
497,1	2756,819
497,6	2762,59
498	2777,39
498,5	2784,19
498,9	2782,619
499,4	2789,848
499,8	2808,933
500,3	2805,99
500,7	2805,19
501,2	2801,676
501,6	2797,762
502,1	2802,276
502,5	2806,105
503	2801,848
503,4	2807,79
503,9	2810,276
504,3	2816,533
504,8	2824,962
505,2	2828,819
505,7	2824,619
506,1	2828,162
506,6	2827,648
507	2835,762
507,5	2837,962
507,9	2834,448
508,4	2839,476
508,8	2844,362
509,3	2844,019
509,7	2841,248
510,2	2835,048
510,6	2828,162
511,1	2827,562
511,5	2823,362
512	2823,533
512,4	2822,962
512,9	2820,562
513,3	2821,648
513,8	2822,248
514,2	2823,476
514,7	2821,476
515,1	2816,333
515,6	2808,162
516	2805,505
516,5	2805,219
516,9	2808,162
517,4	2806,305
517,8	2805,933
518,3	2800,676
518,7	2800,79
519,2	2802,362
519,6	2798,819
520,1	2797,905
520,5	2797,59
521	2796,419
521,4	2801,933
521,9	2801,705
522,3	2799,79
522,8	2796,305
523,2	2792,733
523,7	2794,19
524,1	2790,819
524,6	2783,133
525	2778,962
525,5	2779,419
525,9	2782,79
526,4	2781,076
526,8	2776,905
527,3	2775,876
527,7	2788,048
528,2	2789,59
528,6	2789,305
529,1	2789,562
529,5	2791,476
530	2789,819
530,4	2795,019
530,9	2788,362
531,3	2791,676
531,8	2793,19
532,2	2794,133
532,6	2792,819
533,1	2800,305
533,5	2803,99
534	2802,79
534,4	2805,362
534,9	2806,076
535,3	2806,105
535,8	2807,505
536,2	2811,562
536,7	2808,876
537,1	2812,019
537,6	2813,619
538	2814,99
538,5	2819,048
538,9	2821,419
539,4	2818,476
539,8	2823,762
540,3	2833,248
540,7	2834,076
541,2	2836,048
541,6	2840,476
542,1	2847,648
542,5	2852,019
543	2854,533
543,4	2850,848
543,9	2854,762
544,3	2858,562
544,8	2852,819
545,2	2850,305
545,7	2850,933
546,1	2854,219
546,5	2857,933
547	2861,762
547,4	2867,019
547,9	2871,648
548,3	2879,305
548,8	2885,076
549,2	2880,105
549,7	2877,933
550,1	2882,676
550,6	2883,19
551	2892,105
551,5	2896,619
551,9	2898,219
552,4	2903,305
552,8	2911,819
553,3	2910,476
553,7	2910,19
554,2	2913,362
554,6	2916,39
555,1	2924,248
555,5	2932,619
555,9	2940,19
556,4	2944,876
556,8	2952,105
557,3	2957,876
557,7	2961,962
558,2	2959,305
558,6	2965,648
559,1	2962,219
559,5	2962,876
560	2966,648
560,4	2966,362
560,9	2965,39
561,3	2966,733
561,8	2965,476
562,2	2973,99
562,7	2975,962
563,1	2976,133
563,6	2975,79
564	2978,533
564,4	2975,333
564,9	2975,219
565,3	2970,762
565,8	2977,505
566,2	2981,648
566,7	2988,419
567,1	2992,219
567,6	3000,19
568	2998,676
568,5	3003,048
568,9	2999,533
569,4	2998,648
569,8	2995,219
570,3	2989,39
570,7	2986,076
571,1	2986,59
571,6	2984,562
572	2991,248
572,5	2992,905
572,9	2993,448
573,4	2995,933
573,8	3000,619
574,3	3000,99
574,7	2999,648
575,2	2992,762
575,6	2988,019
576,1	2990,619
576,5	2992,762
576,9	2988,248
577,4	2984,505
577,8	2979,876
578,3	2981,162
578,7	2975,99
579,2	2971,105
579,6	2960,362
580,1	2957,648
580,5	2953,676
581	2953,705
581,4	2946,59
581,9	2945,048
582,3	2943,19
582,7	2937,962
583,2	2936,19
583,6	2938,448
584,1	2932,362
584,5	2928,248
585	2924,933
585,4	2913,705
585,9	2913,819
586,3	2909,219
586,8	2909,133
587,2	2905,819
587,6	2909,705
588,1	2908,19
588,5	2904,505
589	2901,905
589,4	2899,676
589,9	2883,876
590,3	2882,333
590,8	2872,248
591,2	2867,076
591,7	2865,533
592,1	2863,248
592,5	2856,362
593	2855,476
593,4	2848,162
593,9	2842,248
594,3	2833,819
594,8	2827,733
595,2	2823,733
595,7	2822,79
596,1	2819,276
596,6	2816,648
597	2811,819
597,4	2809,99
597,9	2805,99
598,3	2802,905
598,8	2792,905
599,2	2787,448
599,7	2785,219
600,1	2782,276
600,6	2769,876
601	2766,419
601,4	2764,933
601,9	2762,333
602,3	2760,362
602,8	2753,448
603,2	2744,476
603,7	2747,876
604,1	2740,305
604,6	2723,048
605	2710,105
605,4	2698,333
605,9	2685,133
606,3	2678,448
606,8	2667,933
607,2	2663,39
607,7	2656,133
608,1	2656,533
608,6	2651,276
609	2652,333
609,4	2651,476
609,9	2645,19
610,3	2632,133
610,8	2626,133
611,2	2616,933
611,7	2610,362
612,1	2599,733
612,6	2590,39
613	2583,99
613,4	2574,648
613,9	2564,733
614,3	2556,762
614,8	2547,305
615,2	2535,819
615,7	2522,705
616,1	2516,562
616,6	2515,448
617	2505,59
617,4	2495,133
617,9	2493,933
618,3	2492,676
618,8	2490,019
619,2	2474,848
619,7	2458,448
620,1	2450,162
620,5	2440,248
621	2424,448
621,4	2409,819
621,9	2393,162
622,3	2389,276
622,8	2377,933
623,2	2371,276
623,6	2361,562
624,1	2353,533
624,5	2346,99
625	2343,648
625,4	2329,876
625,9	2317,905
626,3	2305,362
626,8	2293,905
627,2	2284,533
627,6	2263,162
628,1	2244,248
628,5	2235,105
629	2233,79
629,4	2227,448
629,9	2221,733
630,3	2204,705
630,7	2194,59
631,2	2193,962
631,6	2183,533
632,1	2166,876
632,5	2152,39
633	2139,676
633,4	2135,876
633,8	2128,848
634,3	2111,933
634,7	2102,19
635,2	2092,19
635,6	2084,59
636,1	2073,533
636,5	2056,076
636,9	2045,619
637,4	2036,99
637,8	2023,39
638,3	2015,762
638,7	2005,562
639,2	1991,59
639,6	1984,448
640	1974,333
640,5	1966,505
640,9	1961,362
641,4	1952,762
641,8	1946,905
642,2	1940,219
642,7	1937,276
643,1	1930,876
643,6	1922,705
644	1912,333
644,5	1910,676
644,9	1902,019
645,3	1898,562
645,8	1881,762
646,2	1879,019
646,7	1866,905
647,1	1855,419
647,6	1836,476
648	1824,533
648,4	1810,219
648,9	1808,162
649,3	1791,562
649,8	1788,333
650,2	1781,619
650,6	1782,048
651,1	1772,79
651,5	1770,362
652	1761,476
652,4	1754,276
652,9	1737,79
653,3	1726,848
653,7	1708,905
654,2	1702,162
654,6	1683,933
655,1	1673,305
655,5	1674,162
655,9	1671,962
656,4	1665,419
656,8	1659,933
657,3	1652,162
657,7	1651,59
658,2	1644,505
658,6	1627,848
659	1615,219
659,5	1605,162
659,9	1596,762
660,4	1586,619
660,8	1569,533
661,2	1553,648
661,7	1546,505
662,1	1538,79
662,6	1529,133
663	1519,876
663,4	1509,362
663,9	1506,933
664,3	1501,79
664,8	1487,848
665,2	1477,448
665,6	1466,676
666,1	1457,705
666,5	1449,419
667	1439,19
667,4	1430,59
667,9	1421,133
668,3	1418,048
668,7	1411,048
669,2	1404,79
669,6	1397,219
670,1	1389,505
670,5	1381,219
670,9	1376,333
671,4	1362,848
671,8	1358,219
672,3	1349,705
672,7	1344,962
673,1	1335,333
673,6	1328,648
674	1319,733
674,5	1308,105
674,9	1296,476
675,3	1282,248
675,8	1270,619
676,2	1264,505
676,7	1254,619
677,1	1249,219
677,5	1246,476
678	1243,305
678,4	1243,876
678,9	1232,848
679,3	1223,819
679,7	1217,848
680,2	1204,476
680,6	1190,105
681,1	1179,99
681,5	1173,648
681,9	1171,419
682,4	1164,876
682,8	1158,333
683,3	1160,248
683,7	1156,505
684,1	1150,219
684,6	1138,59
685	1129,248
685,5	1121,219
685,9	1110,505
686,3	1094,076
686,8	1091,819
687,2	1086,305
687,7	1075,276
688,1	1063,876
688,5	1061,162
689	1062,419
689,4	1062,19
689,9	1052,876
690,3	1041,648
690,7	1039,276
691,2	1040,333
691,6	1030,762
692	1017,619
692,5	1011,762
692,9	1005,19
693,4	1001,19
693,8	994,79
694,2	982,39
694,7	973,705
695,1	968,19
695,6	963,562
696	960,133
696,4	952,276
696,9	946,905
697,3	943,933
697,8	941,562
698,2	936,076
698,6	930,819
699,1	929,705
699,5	927,048
699,9	918,619
700,4	909,248
700,8	903,648
701,3	902,048
701,7	889,505
702,1	875,305
702,6	868,562
703	864,848
703,5	861,99
703,9	852,733
704,3	845,676
704,8	843,505
705,2	843,19
705,6	838,819
706,1	833,219
706,5	825,762
707	824,048
707,4	818,419
707,8	810,39
708,3	804,876
708,7	800,276
709,2	796,419
709,6	793,248
710	791,905
710,5	785,076
710,9	782,876
711,3	779,362
711,8	774,705
712,2	765,619
712,7	760,448
713,1	757,133
713,5	754,333
714	752,362
714,4	744,19
714,8	737,733
715,3	733,962
715,7	733,19
716,2	721,619
716,6	710,39
717	698,39
717,5	691,248
717,9	692,419
718,3	686,476
718,8	682,733
719,2	680,476
719,7	678,79
720,1	683,848
720,5	689,533
721	677,476
721,4	674,133
721,8	671,076
722,3	663,048
722,7	662,819
723,2	649,848
723,6	628,562
724	628,79
724,5	626,276
724,9	617,419
725,3	617,762
725,8	609,99
726,2	609,133
726,7	612,505
727,1	601,848
727,5	599,076
728	593,676
728,4	587,133
728,8	583,99
729,3	576,59
729,7	574,362
730,1	575,133
730,6	570,333
731	566,99
731,5	565,533
731,9	563,276
732,3	565,819
732,8	562,59
733,2	559,19
733,6	554,619
734,1	550,905
734,5	546,419
734,9	547,99
735,4	543,648
735,8	537,076
736,3	539,162
736,7	537,505
737,1	535,59
737,6	533,533
738	524,962
738,4	519,819
738,9	520,905
739,3	515,676
739,7	510,933
740,2	507,333
740,6	506,648
741,1	507,305
741,5	496,619
741,9	497,105
742,4	495,933
742,8	496,39
743,2	495,248
743,7	484,59
744,1	477,619
744,5	482,248
745	475,19
745,4	463,762
745,8	459,562
746,3	455,705
746,7	456,076
747,2	457,248
747,6	460,048
748	456,076
748,5	462,79
748,9	455,59
749,3	453,248
749,8	448,39
750,2	440,248
750,6	432,419
751,1	432,848
751,5	426,476
751,9	429,733
752,4	427,305
752,8	427,99
753,3	428,19
753,7	428,676
754,1	422,762
754,6	415,219
755	408,762
755,4	404,505
755,9	400,133
756,3	397,248
756,7	390,533
757,2	390,076
757,6	393,848
758	392,248
758,5	392,219
758,9	389,276
759,3	385,019
759,8	384,248
760,2	381,105
760,6	373,076
761,1	371,39
761,5	371,048
761,9	366,333
762,4	365,819
762,8	360,905
763,3	357,419
763,7	359,962
764,1	355,476
764,6	354,619
765	359,676
765,4	358,419
765,9	360,276
766,3	358,848
766,7	349,39
767,2	350,133
767,6	346,648
768	338,105
768,5	333,39
768,9	330,333
769,3	329,619
769,8	331,019
770,2	330,476
770,6	325,905
771,1	329,419
771,5	327,648
771,9	328,733
772,4	325,562
772,8	324,248
773,2	322,676
773,7	320,905
774,1	319,562
774,5	313,505
775	305,819
775,4	305,219
775,8	303,448
776,3	302,39
776,7	299,162
777,1	291,59
777,6	294,19
778	298,99
778,4	294,362
778,9	290,876
779,3	283,505
779,7	282,219
780,2	285,219
780,6	286,962
781	280,333
781,5	276,133
781,9	277,476
782,3	278,848
782,8	276,39
783,2	273,619
783,6	270,162
784,1	267,533
784,5	267,819
784,9	263,762
785,4	261,048
785,8	261,276
786,2	259,19
786,7	257,619
787,1	256,476
787,5	255,733
788	256,962
788,4	255,676
788,8	253,819
789,3	251,705
789,7	248,876
790,1	247,362
790,6	253,133
791	248,076
791,4	250,39
791,9	243,476
792,3	239,419
792,7	243,19
793,2	237,619
793,6	228,305
794	233,962
794,5	226,19
794,9	232,962
795,3	233,648
795,8	226,076
796,2	228,219
796,6	225,333
797,1	219,448
797,5	220,79
797,9	211,819
798,4	205,79
798,8	204,419
799,2	199,819
799,7	201,676
800,1	200,248
800,5	200,933
801	203,705
801,4	205,362
801,8	205,39
802,2	204,876
802,7	199,076
803,1	197,448
803,5	193,562
804	191,105
804,4	191,733
804,8	188,933
805,3	190,905
805,7	193,362
806,1	190,905
806,6	193,19
807	192,105
807,4	184,933
807,9	178,733
808,3	176,019
808,7	172,419
809,2	173,59
809,6	171,79
810	167,248
810,4	168,59
810,9	174,476
811,3	175,619
811,7	177,79
812,2	179,619
812,6	174,476
813	179,305
813,5	179,819
813,9	176,648
814,3	173,876
814,8	173,676
815,2	166,676
815,6	164,819
816,1	162,505
816,5	164,048
816,9	166,648
817,3	165,333
817,8	168,733
818,2	168,019
818,6	162,733
819,1	159,019
819,5	154,533
819,9	152,048
820,4	149,733
820,8	143,333
821,2	139,105
821,7	142,305
822,1	143,99
822,5	148,962
822,9	146,105
823,4	148,59
823,8	147,39
824,2	148,333
824,7	146,305
825,1	140,162
825,5	129,533
826	122,162
826,4	120,333
826,8	115,705
827,3	119,419
827,7	117,076
828,1	120,705
828,5	125,305
829	126,848
829,4	123,905
829,8	120,562
830,3	114,848
830,7	112,533
831,1	111,99
831,6	109,648
832	108,333
832,4	107,305
832,8	113,505
833,3	112,219
833,7	113,848
834,1	109,305
834,6	105,19
835	110,019
835,4	110,762
835,8	103,762
836,3	104,905
836,7	102,448
837,1	104,305
837,6	109,076
838	106,476
838,4	100,476
838,9	102,048
839,3	99,533
839,7	101,105
840,1	91,562
840,6	88,848
841	88,505
841,4	91,533
841,9	89,333
842,3	89,648
842,7	92,276
843,1	98,448
843,6	98,99
844	95,248
844,4	99,333
844,9	103,019
845,3	98,219
845,7	97,305
846,2	93,619
846,6	87,39
847	90,105
847,4	90,048
847,9	86,276
848,3	87,162
848,7	85,333
849,2	89,819
849,6	89,448
850	89,076
850,4	81,933
850,9	81,162
851,3	80,562
851,7	80,79
852,2	76,79
852,6	84,79
853	88,162
853,4	86,733
853,9	88,705
854,3	90,019
854,7	85,105
855,2	84,733
855,6	80,105
856	73,962
856,4	74,105
856,9	70,562
857,3	72,219
857,7	77,962
858,2	84,248
858,6	85,305
859	86,962
859,4	86,133
859,9	83,933
860,3	79,533
860,7	77,162
861,1	73,076
861,6	68,819
862	65,419
862,4	68,448
862,9	70,59
863,3	71,676
863,7	72,333
864,1	70,962
864,6	70,476
865	68,39
865,4	68,962
865,9	72,848
866,3	69,59
866,7	64,39
867,1	60,419
867,6	59,705
868	64,276
868,4	57,105
868,8	51,276
869,3	53,933
869,7	60,333
870,1	57,505
870,6	61,448
871	0,99
871,4	10,762
871,8	8,362
872,3	10,019
872,7	4,505
873,1	9,105
873,5	6,533
874	65,419
874,4	57,905
874,8	57,848
875,3	55,419
875,7	55,476
876,1	57,476
876,5	54,819
877	51,619
877,4	49,105
877,8	56,048
878,2	59,962
878,7	58,619
879,1	57,076
879,5	57,019
879,9	58,676
880,4	63,019
880,8	59,933
881,2	55,648
881,7	53,476
882,1	51,248
882,5	49,419
882,9	44,933
883,4	40,276
883,8	40,276
884,2	41,276
884,6	43,762
885,1	43,419
885,5	45,248
885,9	48,162
886,3	51,219
886,8	45,248
887,2	42,562
887,6	39,705
888	41,105
888,5	42,248
888,9	41,162
889,3	38,162
889,8	43,419
890,2	44,133
890,6	41,419
891	37,876
891,5	39,105
891,9	33,248
892,3	34,819
892,7	31,533
893,2	31,733
893,6	38,362
894	43,562
894,4	38,562
894,9	41,59
895,3	40,648
895,7	43,362
896,1	39,19
896,6	37,705
897	37,276
897,4	44,162
897,8	50,019
898,3	49,79
898,7	42,533
899,1	44,076
899,5	38,305
900	29,762
900,4	24,819
900,8	16,705
901,2	16,305
901,7	19,476
902,1	23,819
902,5	30,733
902,9	32,476
903,4	30,59
903,8	32,105
904,2	30,248
904,6	32,305
905,1	26,848
905,5	24,533
905,9	28,248
906,3	30,648
906,8	33,705
907,2	36,333
907,6	37,305
908	41,362
908,5	37,39
908,9	36,105
909,3	35,39
909,7	35,59
910,2	31,933
910,6	31,762
911	26,162
911,4	30,848
911,9	30,648
912,3	29,105
912,7	28,562
913,1	31,619
913,6	27,733
914	28,562
914,4	24,676
914,8	28,533
915,3	27,762
915,7	26,076
916,1	26,676
916,5	28,248
916,9	29,619
917,4	29,019
917,8	26,962
918,2	23,933
918,6	21,619
919,1	19,59
919,5	19,333
919,9	18,505
920,3	18,933
920,8	17,362
921,2	20,59
921,6	20,648
922	21,448
922,5	20,59
922,9	20,733
923,3	18,019
923,7	19,276
924,2	18,533
924,6	18,962
925	18,962
925,4	20,276
925,8	17,962
926,3	21,876
926,7	17,762
927,1	20,048
927,5	23,419
928	22,962
928,4	19,848
928,8	23,305
929,2	20,019
929,7	23,019
930,1	20,79
930,5	20,276
930,9	21,619
931,3	26,076
931,8	23,733
932,2	24,619
932,6	23,105
933	20,333
933,5	14,476
933,9	16,219
934,3	16,105
934,7	16,905
935,2	19,19
935,6	15,676
936	16,505
936,4	19,448
936,8	16,876
937,3	15,59
937,7	15,133
938,1	11,59
938,5	9,133
939	11,076
939,4	13,533
939,8	12,819
940,2	6,619
940,6	7,133
941,1	13,133
941,5	22,676
941,9	18,99
942,3	16,99
942,8	17,648
943,2	20,076
943,6	22,276
944	18,619
944,4	13,762
944,9	13,533
945,3	13,562
945,7	9,419
946,1	9,105
946,6	5,076
947	2,305
947,4	8,933
947,8	14,276
948,2	12,248
948,7	15,362
949,1	17,305
949,5	23,076
949,9	26,19
950,3	18,733
950,8	13,933
951,2	15,39
951,6	13,19
952	15,133
952,5	7,048
952,9	7,962
953,3	9,248
953,7	12,448
954,1	17,133
954,6	18,99
955	17,019
955,4	19,733
955,8	24,248
956,2	23,905
956,7	23,019
957,1	16,905
957,5	19,905
957,9	19,305
958,3	20,562
958,8	15,448
959,2	21,362
959,6	23,476
960	24,048
960,5	21,79
960,9	24,248
961,3	21,419
961,7	21,305
962,1	16,333
962,6	17,305
963	15,933
963,4	15,676
963,8	14,333
964,2	16,705
964,7	15,419
965,1	18,876
965,5	14,705
965,9	18,19
966,3	20,048
966,8	18,876
967,2	20,762
967,6	20,448
968	15,99
968,4	19,848
968,9	20,105
969,3	18,505
969,7	20,219
970,1	21,076
970,5	23,848
971	27,076
971,4	22,076
971,8	20,133
972,2	23,048
972,6	20,39
973,1	17,59
973,5	15,162
973,9	13,762
974,3	13,048
974,7	17,59
975,2	13,048
975,6	12,819
976	14,362
976,4	12,162
976,8	10,79
977,3	12,048
977,7	6,562
978,1	4,79
978,5	2,648
978,9	-2,467
979,4	-4,667
979,8	-4,21
980,2	-3,238
980,6	-3,038
981	1,905
981,5	7,019
981,9	9,79
982,3	11,99
982,7	14,762
983,1	13,133
983,6	15,848
984	9,59
984,4	11,276
984,8	11,933
985,2	17,076
985,6	11,448
986,1	14,448
986,5	11,476
986,9	11,19
987,3	10,105
987,7	8,419
988,2	4,648
988,6	5,99
989	3,905
989,4	7,362
989,8	8,79
990,3	10,248
990,7	13,219
991,1	16,105
991,5	18,476
991,9	20,476
992,3	19,219
992,8	22,705
993,2	16,962
993,6	18,705
994	22,048
994,4	21,99
994,9	21,59
995,3	17,676
995,7	14,819
996,1	14,876
996,5	12,733
996,9	3,133
997,4	4,933
997,8	2,076
998,2	3,933
998,6	-1,352
999	-0,038
999,5	-1,095
999,9	0,99
1000,3	-3,238
1000,7	-1,781
1001,1	-3,895
1001,5	1,562
1002	7,419
1002,4	8,59
1002,8	10,648
1003,2	12,848
1003,6	15,448
1004	19,59
1004,5	18,705
1004,9	17,905
1005,3	13,133
1005,7	17,362
1006,1	13,905
1006,6	11,59
1007	10,99
1007,4	12,533
1007,8	7,048
1008,2	11,219
1008,6	8,962
1009,1	8,476
1009,5	11,905
1009,9	13,076
1010,3	13,733
1010,7	16,705
1011,1	17,819
1011,6	20,162
1012	28,705
1012,4	27,448
1012,8	24,019
1013,2	24,848
1013,6	24,762
1014,1	20,59
1014,5	18,276
1014,9	11,733
1015,3	9,533
1015,7	11,79
1016,1	9,562
1016,6	8,019
1017	13,248
1017,4	9,19
1017,8	9,476
1018,2	10,99
1018,6	10,19
1019,1	10,048
1019,5	8,39
1019,9	-0,21
1020,3	1,962
1020,7	4,476
1021,1	2,133
1021,6	0,448
1022	5,476
1022,4	9,076
1022,8	16,505
1023,2	13,619
1023,6	12,248
1024,1	20,362
1024,5	20,762
1024,9	16,562
1025,3	11,476
1025,7	8,448
1026,1	13,99
1026,6	15,276
1027	10,562
1027,4	13,19
1027,8	15,133
1028,2	14,733
1028,6	22,276
1029	16,848
1029,5	18,733
1029,9	16,076
1030,3	9,248
1030,7	8,019
1031,1	14,933
1031,5	2,105
1032	5,219
1032,4	2,59
1032,8	4,162
1033,2	11,905
1033,6	9,333
1034	3,733
1034,4	9,648
1034,9	9,333
1035,3	6,048
1035,7	5,648
1036,1	1,162
1036,5	4,448
1036,9	10,133
1037,4	14,876
1037,8	8,676
1038,2	9,305
1038,6	8,733
1039	11,219
1039,4	17,019
1039,8	12,076
1040,3	10,562
1040,7	16,619
1041,1	19,962
1041,5	24,105
1041,9	21,305
1042,3	14,219
1042,7	16,848
1043,2	12,733
1043,6	11,19
1044	9,248
1044,4	3,876
1044,8	9,362
1045,2	9,105
1045,6	11,933
1046,1	13,162
1046,5	14,79
1046,9	12,248
1047,3	17,905
1047,7	13,219
1048,1	12,476
1048,5	8,105
1049	9,962
1049,4	10,733
1049,8	16,019
1050,2	12,733
1050,6	22,448
1051	29,419
1051,4	28,619
1051,9	27,39
1052,3	32,076
1052,7	31,448
1053,1	27,676
1053,5	22,876
1053,9	15,19
1054,3	14,505
1054,8	17,162
1055,2	15,505
1055,6	18,162
1056	19,933
1056,4	16,562
1056,8	21,076
1057,2	22,848
1057,6	16,076
1058,1	11,476
1058,5	4,39
1058,9	10,19
1059,3	14,076
1059,7	12,562
1060,1	8,676
1060,5	11,705
1061	18,648
1061,4	19,962
1061,8	15,219
1062,2	14,762
1062,6	13,648
1063	20,076
1063,4	25,362
1063,8	16,905
1064,3	16,276
1064,7	18,419
1065,1	17,733
1065,5	16,105
1065,9	14,505
1066,3	7,333
1066,7	5,848
1067,1	1,562
1067,6	5,076
1068	-2,895
1068,4	-1,638
1068,8	-1,381
1069,2	1,448
1069,6	1,19
1070	10,533
1070,4	4,219
1070,9	8,19
1071,3	5,933
1071,7	4,962
1072,1	5,648
1072,5	5,162
1072,9	0,248
1073,3	4,733
1073,7	5,419
1074,2	6,619
1074,6	8,19
1075	5,648
1075,4	11,019
1075,8	14,333
1076,2	9,448
1076,6	9,733
1077	12,676
1077,5	14,448
1077,9	14,619
1078,3	14,048
1078,7	12,648
1079,1	13,076
1079,5	15,076
1079,9	17,048
1080,3	11,133
1080,7	13,248
1081,2	13,876
1081,6	12,162
1082	12,019
1082,4	14,276
1082,8	11,19
1083,2	12,733
1083,6	12,99
1084	12,762
1084,5	18,19
1084,9	18,848
1085,3	13,219
1085,7	14,79
1086,1	13,505
1086,5	14,962
1086,9	13,305
1087,3	6,848
1087,7	8,933
1088,2	12,048
1088,6	8,762
1089	10,276
1089,4	9,705
1089,8	10,705
1090,2	13,248
1090,6	11,219
1091	11,79
1091,4	15,133
1091,9	15,19
1092,3	16,276
1092,7	16,276
1093,1	16,762
1093,5	19,19
1093,9	19,648
1094,3	19,819
1094,7	19,905
1095,1	17,848
1095,5	17,505
1096	13,105
1096,4	11,676
1096,8	9,705
1097,2	4,448
1097,6	6,876
1098	6,19
1098,4	10,905
1098,8	13,876
1099,2	17,733
1099,6	18,305
1100,1	17,933
1100,5	15,533
1100,9	16,305
1101,3	12,305
1101,7	12,19
1102,1	6,219
1102,5	6,019
1102,9	7,905
1103,3	10,448
1103,7	8,305
1104,2	8,448
1104,6	6,133
1105	4,305
1105,4	1,419
1105,8	1,248
1106,2	-2,267
1106,6	-2,267
1107	-4,467
1107,4	-3,933
1107,8	-1,867
1108,3	-0,217
