Data from Subt2_105.txt Node
Date: Sat Aug 26 18:18:58 MSK 2023
User: vat
Spectrometer: MAYP114033
Trigger mode: 0
Integration Time (sec): 1,000000E0
Scans to average: 5
Electric dark correction enabled: true
Nonlinearity correction enabled: false
Boxcar width: 3
XAxis mode: Wavelengths
Number of Pixels in Spectrum: 2068
>>>>>Begin Spectral Data<<<<<
199,4	-1,283
199,9	0,227
200,4	-4,7
200,8	-4,562
201,3	-4,362
201,8	-1,476
202,2	-2,448
202,7	1,61
203,2	-1,105
203,6	1,638
204,1	-1,619
204,6	-0,448
205	-1,019
205,5	1,067
206	0,524
206,4	0,81
206,9	-0,076
207,4	5,752
207,8	2,667
208,3	2,495
208,8	3,895
209,2	0,81
209,7	1,952
210,2	4,152
210,6	4,295
211,1	4,924
211,5	-0,676
212	-5,648
212,5	-3,276
212,9	-6,505
213,4	-5,533
213,9	-12,876
214,3	-10,619
214,8	-5,076
215,3	-5,762
215,7	-5,933
216,2	-1,162
216,7	0,238
217,1	4,438
217,6	7,752
218,1	8,095
218,5	10,152
219	5,41
219,5	6,21
219,9	2,352
220,4	10,867
220,9	9,067
221,3	6,21
221,8	6,181
222,3	10,552
222,7	11,581
223,2	12,381
223,6	5,552
224,1	2,924
224,6	3,838
225	3,724
225,5	3,41
226	1,667
226,4	5,438
226,9	4,81
227,4	6,552
227,8	3,61
228,3	6,61
228,8	2,067
229,2	-0,733
229,7	-4,419
230,2	-3,505
230,6	-0,762
231,1	6,067
231,5	4,981
232	9,038
232,5	11,152
232,9	14,924
233,4	11,667
233,9	5,924
234,3	2,324
234,8	2,552
235,3	2,01
235,7	2,695
236,2	0,438
236,7	5,838
237,1	9,238
237,6	6,238
238,1	3,724
238,5	-3,448
239	-3,448
239,4	0,124
239,9	-3,019
240,4	-3,933
240,8	-1,562
241,3	-1,619
241,8	3,095
242,2	2,038
242,7	-3,448
243,2	-4,133
243,6	-4,848
244,1	-4,076
244,6	-3,59
245	-3,619
245,5	0,581
245,9	-3,962
246,4	2,667
246,9	2,924
247,3	4,581
247,8	5,924
248,3	8,324
248,7	4,638
249,2	10,095
249,7	4,638
250,1	3,324
250,6	2,381
251	1,495
251,5	1,01
252	1,924
252,4	5,638
252,9	6,352
253,4	2,095
253,8	-2,39
254,3	2,81
254,8	2,467
255,2	-3,305
255,7	-10,99
256,1	-10,219
256,6	-2,762
257,1	2,867
257,5	-3,133
258	-3,362
258,5	0,724
258,9	1,438
259,4	-0,448
259,9	-0,19
260,3	-4,362
260,8	-3,305
261,2	-2,505
261,7	-0,333
262,2	2,581
262,6	2,01
263,1	4,524
263,6	3,781
264	4,438
264,5	7,324
264,9	4,638
265,4	6,381
265,9	4,667
266,3	5,295
266,8	12,924
267,3	14,067
267,7	9,095
268,2	8,781
268,7	10,381
269,1	9,238
269,6	6,61
270	6,01
270,5	6,21
271	6,638
271,4	8,495
271,9	5,752
272,4	13,695
272,8	13,61
273,3	10,81
273,7	9,324
274,2	11,524
274,7	10,152
275,1	10,21
275,6	4,924
276,1	2,324
276,5	4,81
277	3,295
277,4	3,524
277,9	5,524
278,4	6,038
278,8	6,667
279,3	8,21
279,8	8,81
280,2	10,61
280,7	11,467
281,1	6,038
281,6	5,552
282,1	7,181
282,5	1,467
283	-3,905
283,4	-4,733
283,9	-5,619
284,4	2,095
284,8	4,267
285,3	2,21
285,8	9,895
286,2	11,924
286,7	13,895
287,1	8,81
287,6	5,467
288,1	-0,876
288,5	0,781
289	-5,99
289,5	-6,819
289,9	-9,333
290,4	-1,505
290,8	2,352
291,3	9,524
291,8	9,41
292,2	13,552
292,7	16,781
293,1	21,295
293,6	21,295
294,1	16,467
294,5	14,981
295	14,238
295,5	10,295
295,9	5,524
296,4	0,924
296,8	-3,99
297,3	-0,876
297,8	-4,362
298,2	-4,819
298,7	1,524
299,1	3,324
299,6	-0,39
300,1	4,067
300,5	3,295
301	3,667
301,5	7,867
301,9	3,552
302,4	3,124
302,8	7,61
303,3	2,438
303,8	-1,762
304,2	-2,705
304,7	-5,219
305,1	-8,762
305,6	-8,705
306,1	-3,505
306,5	-0,39
307	7,352
307,4	11,981
307,9	12,124
308,4	14,038
308,8	12,467
309,3	6,438
309,8	6,467
310,2	2,295
310,7	-1,819
311,1	-1,048
311,6	1,552
312,1	3,181
312,5	8,067
313	7,438
313,4	6,324
313,9	8,324
314,4	6,752
314,8	3,295
315,3	3,238
315,7	-4,99
316,2	-7,619
316,7	-5,648
317,1	-3,533
317,6	-2,705
318	6,581
318,5	8,838
319	7,952
319,4	10,895
319,9	14,581
320,3	14,695
320,8	13,781
321,3	8,238
321,7	8,238
322,2	15,581
322,6	16,381
323,1	11,181
323,6	6,924
324	6,667
324,5	2,667
324,9	2,495
325,4	-1,733
325,9	-3,59
326,3	0,438
326,8	2,295
327,2	-5,048
327,7	-4,019
328,2	-7,562
328,6	-3,59
329,1	-6,133
329,5	-8,333
330	-8,19
330,5	1,095
330,9	3,838
331,4	8,467
331,8	7,495
332,3	14,324
332,8	13,695
333,2	13,095
333,7	15,181
334,1	18,067
334,6	15,752
335,1	11,152
335,5	11,038
336	10,838
336,4	13,267
336,9	14,638
337,4	14,495
337,8	14,238
338,3	17,61
338,7	14,924
339,2	13,695
339,7	16,838
340,1	9,924
340,6	7,495
341	5,695
341,5	6,267
342	4,124
342,4	3,21
342,9	-4,048
343,3	-2,562
343,8	-2,248
344,2	1,981
344,7	5,695
345,2	7,124
345,6	7,524
346,1	13,495
346,5	9,981
347	10,352
347,5	7,41
347,9	9,181
348,4	10,238
348,8	10,781
349,3	9,838
349,8	17,667
350,2	22,752
350,7	21,267
351,1	15,324
351,6	16,81
352	19,952
352,5	23,667
353	26,724
353,4	26,752
353,9	34,524
354,3	39,181
354,8	44,524
355,3	54,267
355,7	62,295
356,2	72,238
356,6	85,238
357,1	100,838
357,5	123,724
358	150,724
358,5	173,524
358,9	200,01
359,4	232,067
359,8	267,552
360,3	308,181
360,8	345,952
361,2	389,21
361,7	441,781
362,1	499,495
362,6	558,067
363	621,638
363,5	691,267
364	773,81
364,4	850,124
364,9	927,181
365,3	1004,181
365,8	1073,524
366,3	1141,667
366,7	1196,352
367,2	1248,438
367,6	1288,152
368,1	1319,295
368,5	1337,324
369	1350,41
369,5	1348,952
369,9	1341,067
370,4	1314,952
370,8	1289,867
371,3	1250,867
371,7	1204,924
372,2	1151,467
372,7	1100,552
373,1	1043,352
373,6	982,324
374	922,495
374,5	864,01
374,9	808,867
375,4	753,038
375,9	692,067
376,3	641,067
376,8	588,752
377,2	541,095
377,7	494,038
378,2	451,895
378,6	412,295
379,1	377,238
379,5	345,352
380	319,838
380,4	285,752
380,9	262,267
381,4	237,695
381,8	224,724
382,3	210,352
382,7	195,01
383,2	183,095
383,6	174,895
384,1	168,752
384,6	159,61
385	144,038
385,5	133,524
385,9	121,067
386,4	110,867
386,8	102,752
387,3	88,952
387,7	84,867
388,2	84,495
388,7	75,724
389,1	71,924
389,6	67,21
390	63,438
390,5	63,267
390,9	60,638
391,4	56,695
391,9	57,152
392,3	55,838
392,8	48,952
393,2	44,781
393,7	42,867
394,1	38,524
394,6	34,324
395,1	32,724
395,5	30,638
396	37,495
396,4	36,41
396,9	32,438
397,3	34,41
397,8	36,038
398,2	40,495
398,7	38,267
399,2	37,324
399,6	40,038
400,1	42,924
400,5	39,438
401	37,667
401,4	31,952
401,9	37,324
402,4	35,81
402,8	33,895
403,3	38,781
403,7	39,238
404,2	46,21
404,6	51,924
405,1	55,524
405,5	55,867
406	58,324
406,5	52,352
406,9	59,581
407,4	55,952
407,8	60,324
408,3	59,867
408,7	63,695
409,2	69,21
409,6	82,752
410,1	86,038
410,6	95,924
411	102,61
411,5	110,067
411,9	117,867
412,4	126,152
412,8	132,124
413,3	138,895
413,7	146,067
414,2	153,638
414,7	162,895
415,1	178,581
415,6	192,267
416	203,095
416,5	216,324
416,9	224,81
417,4	236,81
417,8	257,41
418,3	272,695
418,8	290,952
419,2	306,438
419,7	322,752
420,1	344,152
420,6	365,952
421	381,095
421,5	401,667
421,9	421,381
422,4	447,267
422,8	472,524
423,3	499,124
423,8	523,152
424,2	549,41
424,7	578,41
425,1	610,924
425,6	639,467
426	669,238
426,5	704,895
426,9	746,352
427,4	784,952
427,9	823,324
428,3	864,095
428,8	915,038
429,2	965,81
429,7	1013,695
430,1	1061,867
430,6	1123,752
431	1180,467
431,5	1239,952
431,9	1296,181
432,4	1362,981
432,8	1434,438
433,3	1509,124
433,8	1578,495
434,2	1657,21
434,7	1748,581
435,1	1833,81
435,6	1926,324
436	2020,524
436,5	2121,21
436,9	2223,552
437,4	2334,981
437,8	2438,095
438,3	2554,752
438,8	2672,638
439,2	2799,438
439,7	2931,01
440,1	3068,552
440,6	3211,152
441	3357,781
441,5	3510,667
441,9	3670,467
442,4	3822,838
442,8	3983,352
443,3	4153,438
443,7	4323,752
444,2	4506,552
444,7	4689,552
445,1	4881,552
445,6	5077,467
446	5280,781
446,5	5481,267
446,9	5680,324
447,4	5893,181
447,8	6118,495
448,3	6347,095
448,7	6580,181
449,2	6816,781
449,6	7069,524
450,1	7322,381
450,6	7577,638
451	7832,752
451,5	8086,667
451,9	8360,61
452,4	8633,038
452,8	8899,867
453,3	9188,324
453,7	9461,381
454,2	9756,324
454,6	10043,095
455,1	10337,095
455,5	10634,381
456	10935,952
456,4	11232,61
456,9	11551,667
457,3	11862,81
457,8	12185,667
458,3	12501,01
458,7	12816,267
459,2	13148,238
459,6	13474,038
460,1	13799,124
460,5	14123,867
461	14455,467
461,4	14790,524
461,9	15125,41
462,3	15462,038
462,8	15817,524
463,2	16157,752
463,7	16496,952
464,1	16844,181
464,6	17178,981
465	17518,924
465,5	17844,352
466	18170,295
466,4	18494,81
466,9	18822,952
467,3	19145,581
467,8	19472,895
468,2	19796,267
468,7	20128,038
469,1	20444,81
469,6	20768,81
470	21078,267
470,5	21382,81
470,9	21682,01
471,4	21979,152
471,8	22264,181
472,3	22551,267
472,7	22830,067
473,2	23106,067
473,6	23365,095
474,1	23635,267
474,5	23901,21
475	24158,295
475,4	24400,724
475,9	24639,781
476,4	24880,381
476,8	25122,267
477,3	25355,124
477,7	25578,781
478,2	25786,667
478,6	25992,524
479,1	26192,381
479,5	26379,581
480	26564,552
480,4	26743,238
480,9	26897,895
481,3	27063,181
481,8	27220,61
482,2	27352,41
482,7	27495,638
483,1	27610,324
483,6	27712,638
484	27810,781
484,5	27902,638
484,9	27977,952
485,4	28068,21
485,8	28118,695
486,3	28180,381
486,7	28226,324
487,2	28282,838
487,6	28326,638
488,1	28358,924
488,5	28382,581
489	28407,038
489,4	28429,181
489,9	28431,867
490,4	28418,524
490,8	28392,21
491,3	28372,267
491,7	28333,724
492,2	28299,295
492,6	28231,067
493,1	28176,724
493,5	28109,552
494	28039,667
494,4	27964,152
494,9	27885,838
495,3	27803,038
495,8	27725,038
496,2	27628,41
496,7	27523,21
497,1	27427,524
497,6	27319,61
498	27211,381
498,5	27084,038
498,9	26976,41
499,4	26847,295
499,8	26742,352
500,3	26612,381
500,7	26474,524
501,2	26334,752
501,6	26198,41
502,1	26044,267
502,5	25904,952
503	25753,695
503,4	25601,095
503,9	25444,695
504,3	25280,667
504,8	25113,267
505,2	24953,181
505,7	24789,552
506,1	24618,667
506,6	24432,61
507	24254,181
507,5	24076,61
507,9	23897,381
508,4	23708,124
508,8	23520,781
509,3	23322,61
509,7	23140,095
510,2	22956,21
510,6	22770,924
511,1	22585,638
511,5	22384,581
512	22176,952
512,4	21990,724
512,9	21779,495
513,3	21580,324
513,8	21370,638
514,2	21157,695
514,7	20958,895
515,1	20769,467
515,6	20565,467
516	20370,581
516,5	20170,181
516,9	19964,781
517,4	19776,01
517,8	19567,695
518,3	19353,324
518,7	19145,952
519,2	18950,495
519,6	18749,895
520,1	18560,952
520,5	18342,038
521	18138,752
521,4	17950,21
521,9	17741,667
522,3	17541,067
522,8	17348,267
523,2	17140,924
523,7	16974,038
524,1	16785,781
524,6	16593,01
525	16420,695
525,5	16241,324
525,9	16048,352
526,4	15880,324
526,8	15690,724
527,3	15524,981
527,7	15356,638
528,2	15179,352
528,6	15011,01
529,1	14849,524
529,5	14681,267
530	14517,238
530,4	14347,867
530,9	14182,152
531,3	14021,867
531,8	13863,352
532,2	13705,552
532,6	13548,752
533,1	13378,381
533,5	13227,781
534	13088,581
534,4	12939,067
534,9	12785,81
535,3	12642,295
535,8	12494,838
536,2	12369,667
536,7	12227,438
537,1	12080,152
537,6	11940,038
538	11817,495
538,5	11678,724
538,9	11539,352
539,4	11406,524
539,8	11272,381
540,3	11140,267
540,7	11017,581
541,2	10874,552
541,6	10750,981
542,1	10639,495
542,5	10516,067
543	10411,01
543,4	10291,352
543,9	10176,867
544,3	10079,952
544,8	9968,238
545,2	9853,467
545,7	9754,067
546,1	9644,295
546,5	9548,295
547	9452,495
547,4	9344,41
547,9	9246,638
548,3	9153,41
548,8	9047,952
549,2	8948,981
549,7	8853,952
550,1	8752,21
550,6	8654,267
551	8559,781
551,5	8468,952
551,9	8383,152
552,4	8300,267
552,8	8215,667
553,3	8131,267
553,7	8043,895
554,2	7963,667
554,6	7888,81
555,1	7805,781
555,5	7719,695
555,9	7642,581
556,4	7566,867
556,8	7501,61
557,3	7431,152
557,7	7356,695
558,2	7281,895
558,6	7214,524
559,1	7138,124
559,5	7069,924
560	6995,981
560,4	6925,324
560,9	6853,21
561,3	6785,238
561,8	6721,581
562,2	6659,295
562,7	6590,295
563,1	6531,181
563,6	6470,067
564	6413,695
564,4	6358,781
564,9	6295,181
565,3	6241,61
565,8	6189,838
566,2	6135,552
566,7	6078,524
567,1	6014,952
567,6	5960,895
568	5906,867
568,5	5852,381
568,9	5794,952
569,4	5737,381
569,8	5685,952
570,3	5641,838
570,7	5584,638
571,1	5538,438
571,6	5484,81
572	5440,552
572,5	5389,067
572,9	5344,21
573,4	5297,01
573,8	5261,895
574,3	5216,838
574,7	5177,324
575,2	5128,895
575,6	5087,781
576,1	5047,095
576,5	5004,41
576,9	4950,495
577,4	4903,61
577,8	4857,524
578,3	4816,41
578,7	4773,295
579,2	4730,667
579,6	4686,667
580,1	4654,61
580,5	4612,924
581	4570,181
581,4	4531,981
581,9	4487,781
582,3	4446,61
582,7	4412,295
583,2	4367,61
583,6	4335,895
584,1	4305,01
584,5	4265,952
585	4238,238
585,4	4195,352
585,9	4152,81
586,3	4123,667
586,8	4091,467
587,2	4051,495
587,6	4021,095
588,1	3994,124
588,5	3966,152
589	3935,381
589,4	3901,124
589,9	3868,467
590,3	3845,01
590,8	3814,552
591,2	3780,324
591,7	3759,895
592,1	3734,552
592,5	3714,41
593	3686,667
593,4	3653,838
593,9	3625,324
594,3	3598,524
594,8	3562,238
595,2	3533,01
595,7	3505,638
596,1	3476,81
596,6	3456,067
597	3433,781
597,4	3410,438
597,9	3389,324
598,3	3372,667
598,8	3349,181
599,2	3328,152
599,7	3302,495
600,1	3280,324
600,6	3260,581
601	3235,752
601,4	3217,067
601,9	3193,695
602,3	3173,438
602,8	3151,381
603,2	3124,438
603,7	3099,695
604,1	3085,695
604,6	3058,552
605	3026,952
605,4	3004,895
605,9	2983,067
606,3	2958,067
606,8	2932,924
607,2	2906,238
607,7	2881,924
608,1	2869,352
608,6	2846,41
609	2832,895
609,4	2823,781
609,9	2807,324
610,3	2792,01
610,8	2777,81
611,2	2759,095
611,7	2745,352
612,1	2724,038
612,6	2705,238
613	2685,181
613,4	2662,238
613,9	2636,581
614,3	2620,181
614,8	2599,81
615,2	2574,495
615,7	2554,695
616,1	2536,895
616,6	2520,695
617	2505,838
617,4	2483,781
617,9	2466,638
618,3	2454,781
618,8	2439,124
619,2	2422,438
619,7	2410,181
620,1	2391,867
620,5	2382,181
621	2362,181
621,4	2347,438
621,9	2324,181
622,3	2305,781
622,8	2283,667
623,2	2273,067
623,6	2251,952
624,1	2238,381
624,5	2217,152
625	2209,238
625,4	2198,924
625,9	2180,438
626,3	2162,924
626,8	2146,21
627,2	2135,781
627,6	2116,21
628,1	2093,895
628,5	2078,124
629	2061,724
629,4	2043,295
629,9	2030,724
630,3	2008,695
630,7	1994,152
631,2	1983,352
631,6	1967,667
632,1	1955,524
632,5	1944,381
633	1926,067
633,4	1916,152
633,8	1909,038
634,3	1893,352
634,7	1879,067
635,2	1862,552
635,6	1851,524
636,1	1842,524
636,5	1821,952
636,9	1800,41
637,4	1786,552
637,8	1769,581
638,3	1759,838
638,7	1742,524
639,2	1722,552
639,6	1713,438
640	1704,781
640,5	1695,638
640,9	1686,438
641,4	1675,495
641,8	1666,124
642,2	1658,038
642,7	1654,781
643,1	1649,21
643,6	1638,981
644	1627,81
644,5	1615,952
644,9	1603,524
645,3	1594,895
645,8	1578,752
646,2	1566,724
646,7	1552,781
647,1	1539,695
647,6	1529,752
648	1520,038
648,4	1505,781
648,9	1495,638
649,3	1486,01
649,8	1477,524
650,2	1475,81
650,6	1470,181
651,1	1458,61
651,5	1451,924
652	1441,724
652,4	1420,867
652,9	1407,895
653,3	1395,81
653,7	1382,438
654,2	1375,41
654,6	1361,324
655,1	1351,752
655,5	1356,21
655,9	1347,867
656,4	1335,21
656,8	1327,438
657,3	1316,781
657,7	1316,524
658,2	1304,467
658,6	1290,095
659	1287,552
659,5	1280,267
659,9	1270,267
660,4	1264,924
660,8	1250,867
661,2	1241,952
661,7	1237,038
662,1	1228,21
662,6	1212,438
663	1201,867
663,4	1189,781
663,9	1184,01
664,3	1175,381
664,8	1160,495
665,2	1144,724
665,6	1142,181
666,1	1135,724
666,5	1130,038
667	1119,61
667,4	1111,667
667,9	1105,724
668,3	1104,21
668,7	1091,581
669,2	1087,752
669,6	1078,181
670,1	1067,867
670,5	1056,095
670,9	1050,581
671,4	1038,295
671,8	1036,238
672,3	1027,41
672,7	1021,61
673,1	1012,695
673,6	1008,61
674	1001,067
674,5	994,295
674,9	979,695
675,3	968,638
675,8	961,295
676,2	956,724
676,7	947,924
677,1	940,981
677,5	930,381
678	931,41
678,4	929,924
678,9	921,295
679,3	915,124
679,7	908,524
680,2	899,81
680,6	890,238
681,1	878,895
681,5	871,41
681,9	866,438
682,4	864,495
682,8	861,038
683,3	856,381
683,7	859,152
684,1	856,695
684,6	846,038
685	834,01
685,5	823,095
685,9	812,895
686,3	804,981
686,8	795,124
687,2	788,467
687,7	780,952
688,1	776,667
688,5	771,952
689	768,038
689,4	763,638
689,9	757,267
690,3	749,695
690,7	747,095
691,2	747,152
691,6	739,895
692	736,667
692,5	732,581
692,9	730,095
693,4	724,495
693,8	719,695
694,2	712,895
694,7	707,01
695,1	699,552
695,6	693,524
696	689,124
696,4	685,41
696,9	678,152
697,3	667,124
697,8	665,295
698,2	662,067
698,6	658,21
699,1	652,552
699,5	653,81
699,9	651,752
700,4	648,267
700,8	644,638
701,3	641,381
701,7	631,638
702,1	621,267
702,6	611,581
703	610,41
703,5	604,695
703,9	597,81
704,3	595,438
704,8	595,638
705,2	597,667
705,6	598,152
706,1	588,61
706,5	584,238
707	577,124
707,4	572,067
707,8	560,695
708,3	557,152
708,7	547,324
709,2	539,381
709,6	538,181
710	543,41
710,5	535,095
710,9	536,067
711,3	532,295
711,8	527,267
712,2	529,895
712,7	521,41
713,1	514,895
713,5	516,124
714	516,467
714,4	511,238
714,8	511,067
715,3	504,438
715,7	506,724
716,2	495,981
716,6	487,952
717	478,638
717,5	474,81
717,9	473,981
718,3	468,067
718,8	464,381
719,2	464,924
719,7	460,81
720,1	460,095
720,5	456,867
721	445,181
721,4	442,295
721,8	439,324
722,3	432,324
722,7	435,267
723,2	425,638
723,6	416,41
724	413,067
724,5	406,981
724,9	400,324
725,3	399,695
725,8	393,81
726,2	391,981
726,7	395,524
727,1	395,924
727,5	398,667
728	392,838
728,4	387,752
728,8	381,095
729,3	381,752
729,7	373,867
730,1	375,267
730,6	368,095
731	366,467
731,5	364,724
731,9	360,781
732,3	358,981
732,8	364,524
733,2	357,61
733,6	360,61
734,1	363,838
734,5	365,067
734,9	368,295
735,4	366,952
735,8	356,295
736,3	355,124
736,7	352,152
737,1	348,067
737,6	341,952
738	336,438
738,4	333,01
738,9	337,895
739,3	336,495
739,7	332,838
740,2	330,41
740,6	335,295
741,1	336,981
741,5	330,695
741,9	323,724
742,4	320,324
742,8	316,038
743,2	317,067
743,7	308,21
744,1	299,838
744,5	300,01
745	297,752
745,4	293,867
745,8	296,724
746,3	292,724
746,7	294,41
747,2	294,295
747,6	297,152
748	299,895
748,5	303,924
748,9	297,667
749,3	293,381
749,8	293,038
750,2	293,152
750,6	285,495
751,1	283,81
751,5	278,352
751,9	281,81
752,4	284,267
752,8	279,381
753,3	278,895
753,7	282,952
754,1	273,867
754,6	269,895
755	262,324
755,4	257,41
755,9	255,038
756,3	248,81
756,7	244,352
757,2	247,981
757,6	248,267
758	248,124
758,5	248,581
758,9	246,952
759,3	251,667
759,8	248,61
760,2	247,667
760,6	241,438
761,1	237,352
761,5	235,724
761,9	230,81
762,4	225,952
762,8	223,067
763,3	213,867
763,7	216,267
764,1	218,124
764,6	215,524
765	219,752
765,4	218,352
765,9	224,495
766,3	229,752
766,7	229,038
767,2	225,267
767,6	228,267
768	222,438
768,5	219,667
768,9	210,981
769,3	210,238
769,8	204,981
770,2	204,981
770,6	198,752
771,1	203,524
771,5	203,867
771,9	208,81
772,4	205,981
772,8	208,495
773,2	209,838
773,7	207,381
774,1	202,952
774,5	195,352
775	191,038
775,4	191,638
775,8	187,038
776,3	186,924
776,7	187,295
777,1	184,581
777,6	191,352
778	191,324
778,4	189,81
778,9	192,01
779,3	185,952
779,7	184,01
780,2	188,01
780,6	182,667
781	176,981
781,5	172,01
781,9	168,867
782,3	168,838
782,8	166,124
783,2	157,21
783,6	160,324
784,1	159,81
784,5	159,752
784,9	161,638
785,4	161,295
785,8	162,581
786,2	164,524
786,7	163,01
787,1	164,81
787,5	162,952
788	162,01
788,4	162,667
788,8	159,752
789,3	159,267
789,7	160,067
790,1	156,124
790,6	156,124
791	149,61
791,4	150,324
791,9	147,838
792,3	143,924
792,7	146,695
793,2	145,381
793,6	147,895
794	149,952
794,5	143,495
794,9	145,067
795,3	147,524
795,8	140,61
796,2	142,267
796,6	139,552
797,1	139,867
797,5	137,524
797,9	135,752
798,4	131,867
798,8	132,781
799,2	128,524
799,7	128,01
800,1	123,781
800,5	130,038
801	133,21
801,4	134,067
801,8	129,524
802,2	133,152
802,7	133,124
803,1	136,295
803,5	136,381
804	130,81
804,4	130,61
804,8	130,838
805,3	126,381
805,7	122,295
806,1	117,095
806,6	113,867
807	112,638
807,4	108,295
807,9	104,324
808,3	102,438
808,7	101,924
809,2	106,781
809,6	107,495
810	111,667
810,4	113,981
810,9	117,01
811,3	120,41
811,7	120,61
812,2	122,638
812,6	115,924
813	115,124
813,5	114,867
813,9	112,038
814,3	108,838
814,8	107,695
815,2	99,524
815,6	97,638
816,1	95,124
816,5	97,467
816,9	100,638
817,3	102,324
817,8	109,152
818,2	111,552
818,6	110,781
819,1	109,181
819,5	103,781
819,9	103,095
820,4	101,095
820,8	92,124
821,2	88,924
821,7	94,41
822,1	98,038
822,5	101,838
822,9	98,695
823,4	98,781
823,8	104,867
824,2	105,267
824,7	95,895
825,1	88,467
825,5	80,524
826	73,41
826,4	71,781
826,8	65,581
827,3	66,667
827,7	72,152
828,1	73,267
828,5	75,952
829	78,924
829,4	79,324
829,8	77,867
830,3	76,067
830,7	74,895
831,1	76,838
831,6	78,038
832	81,695
832,4	78,438
832,8	89,324
833,3	86,552
833,7	81,467
834,1	80,21
834,6	75,781
835	73,01
835,4	74,21
835,8	61,067
836,3	60,038
836,7	64,924
837,1	64,152
837,6	67,524
838	66,924
838,4	64,838
838,9	65,267
839,3	67,295
839,7	66,095
840,1	61,095
840,6	59,924
841	62,724
841,4	63,21
841,9	62,952
842,3	62,067
842,7	61,467
843,1	63,781
843,6	66,181
844	63,181
844,4	65,438
844,9	69,524
845,3	69,838
845,7	67,838
846,2	65,581
846,6	58,924
847	59,81
847,4	60,438
847,9	56,61
848,3	52,724
848,7	53,752
849,2	55,838
849,6	54,438
850	55,21
850,4	52,838
850,9	57,467
851,3	59,981
851,7	63,124
852,2	62,124
852,6	66,867
853	62,181
853,4	61,038
853,9	52,524
854,3	51,981
854,7	50,724
855,2	50,924
855,6	48,752
856	52,21
856,4	48,552
856,9	49,695
857,3	48,238
857,7	45,41
858,2	45,238
858,6	47,238
859	47,724
859,4	51,324
859,9	50,667
860,3	47,295
860,7	45,924
861,1	50,124
861,6	46,381
862	43,895
862,4	38,81
862,9	39,124
863,3	44,638
863,7	42,267
864,1	38,61
864,6	36,895
865	33,552
865,4	37,695
865,9	42,381
866,3	34,81
866,7	34,895
867,1	30,924
867,6	33,838
868	32,495
868,4	31,352
868,8	29,467
869,3	33,41
869,7	41,01
870,1	40,124
870,6	38,695
871	-13,19
871,4	-11,19
871,8	-14,19
872,3	-12,762
872,7	-20,733
873,1	-20,476
873,5	-21,733
874	34,867
874,4	31,495
874,8	30,495
875,3	31,381
875,7	30,152
876,1	33,152
876,5	33,695
877	29,867
877,4	29,781
877,8	28,952
878,2	30,924
878,7	35,21
879,1	36,838
879,5	38,295
879,9	40,438
880,4	38,038
880,8	36,981
881,2	29,524
881,7	27,781
882,1	24,952
882,5	20,267
882,9	15,638
883,4	19,667
883,8	21,295
884,2	26,467
884,6	23,124
885,1	20,352
885,5	24,581
885,9	26,495
886,3	26,352
886,8	24,924
887,2	19,667
887,6	20,181
888	22,038
888,5	20,552
888,9	17,838
889,3	13,61
889,8	13,581
890,2	17,638
890,6	14,21
891	12,438
891,5	11,867
891,9	14,01
892,3	14,41
892,7	15,095
893,2	14,667
893,6	20,61
894	23,324
894,4	25,124
894,9	25,667
895,3	29,495
895,7	31,724
896,1	30,467
896,6	32,352
897	31,238
897,4	32,638
897,8	34,038
898,3	32,524
898,7	27,838
899,1	29,467
899,5	24,324
900	20,124
900,4	16,181
900,8	12,581
901,2	9,752
901,7	8,867
902,1	9,952
902,5	14,067
902,9	17,467
903,4	18,638
903,8	19,81
904,2	18,352
904,6	20,81
905,1	19,095
905,5	17,524
905,9	19,152
906,3	19,867
906,8	22,124
907,2	24,41
907,6	22,838
908	20,381
908,5	15,752
908,9	10,638
909,3	9,038
909,7	7,867
910,2	8,238
910,6	11,61
911	7,524
911,4	8,981
911,9	8,524
912,3	7,467
912,7	7,924
913,1	11,01
913,6	6,524
914	11,324
914,4	11,267
914,8	13,81
915,3	12,41
915,7	11,324
916,1	7,01
916,5	10,981
916,9	8,638
917,4	10,895
917,8	11,867
918,2	12,838
918,6	9,581
919,1	11,61
919,5	10,552
919,9	11,981
920,3	8,381
920,8	6,695
921,2	7,41
921,6	12,152
922	9,01
922,5	7,695
922,9	8,724
923,3	9,295
923,7	9,267
924,2	8,124
924,6	4,381
925	8,067
925,4	7,952
925,8	9,381
926,3	11,01
926,7	10,352
927,1	10,267
927,5	12,467
928	7,152
928,4	6,638
928,8	5,81
929,2	5,324
929,7	7,724
930,1	11,295
930,5	10,61
930,9	19,267
931,3	20,324
931,8	18,495
932,2	19,495
932,6	17,438
933	10,324
933,5	10,295
933,9	7,01
934,3	7,01
934,7	3,924
935,2	2,324
935,6	1,152
936	6,295
936,4	7,724
936,8	9,438
937,3	8,524
937,7	11,752
938,1	14,895
938,5	13,781
939	13,438
939,4	9,324
939,8	7,095
940,2	6,981
940,6	6,752
941,1	4,638
941,5	12,067
941,9	11,295
942,3	12,495
942,8	13,01
943,2	14,41
943,6	13,467
944	17,181
944,4	13,695
944,9	8,524
945,3	9,638
945,7	2,81
946,1	-3,305
946,6	-3,619
947	-10,562
947,4	-10,219
947,8	-5,248
948,2	-7,676
948,7	-5,076
949,1	-1,876
949,5	2,067
949,9	3,495
950,3	2,01
950,8	3,61
951,2	3,267
951,6	-0,076
952	5,21
952,5	-1,305
952,9	-0,962
953,3	0,867
953,7	-1,533
954,1	3,352
954,6	10,695
955	9,01
955,4	10,41
955,8	11,952
956,2	5,838
956,7	7,181
957,1	0,552
957,5	-1,59
957,9	-3,276
958,3	-5,876
958,8	-2,248
959,2	3,752
959,6	5,238
960	10,495
960,5	13,61
960,9	14,981
961,3	15,41
961,7	12,152
962,1	11,095
962,6	9,467
963	6,067
963,4	1,038
963,8	0,724
964,2	6,667
964,7	4,781
965,1	3,895
965,5	4,381
965,9	4,381
966,3	7,067
966,8	6,038
967,2	3,467
967,6	4,638
968	4,695
968,4	2,581
968,9	1,981
969,3	4,667
969,7	5,067
970,1	5,181
970,5	4,438
971	10,81
971,4	8,667
971,8	9,124
972,2	6,038
972,6	5,124
973,1	5,295
973,5	8,124
973,9	6,752
974,3	8,095
974,7	13,21
975,2	13,038
975,6	13,467
976	13,552
976,4	10,352
976,8	5,295
977,3	3,524
977,7	-2,505
978,1	0,038
978,5	-5,048
978,9	-5,448
979,4	-6,733
979,8	-8,248
980,2	-2,876
980,6	1,324
981	0,124
981,5	5,381
981,9	7,581
982,3	8,838
982,7	12,267
983,1	7,895
983,6	7,695
984	5,581
984,4	5,581
984,8	3,21
985,2	2,495
985,6	-1,419
986,1	-1,962
986,5	-1,019
986,9	-4,133
987,3	-1,619
987,7	-0,076
988,2	1,01
988,6	2,152
989	5,981
989,4	2,467
989,8	5,181
990,3	0,724
990,7	-3,476
991,1	-5,248
991,5	-2,448
991,9	-0,248
992,3	1,467
992,8	0,381
993,2	2,61
993,6	4,352
994	10,724
994,4	8,295
994,9	4,981
995,3	1,41
995,7	1,21
996,1	1,552
996,5	5,295
996,9	0,238
997,4	2,667
997,8	-0,762
998,2	0,267
998,6	-2,848
999	-5,19
999,5	-9,762
999,9	-8,848
1000,3	-12,076
1000,7	-9,019
1001,1	-7,79
1001,5	-4,162
1002	1,467
1002,4	5,581
1002,8	4,438
1003,2	10,495
1003,6	12,067
1004	14,895
1004,5	13,324
1004,9	10,295
1005,3	5,61
1005,7	6,352
1006,1	3,01
1006,6	1,467
1007	1,552
1007,4	6,324
1007,8	5,095
1008,2	4,981
1008,6	11,438
1009,1	7,752
1009,5	8,952
1009,9	3,524
1010,3	1,438
1010,7	2,781
1011,1	8,467
1011,6	2,124
1012	4,667
1012,4	2,238
1012,8	3,01
1013,2	4,61
1013,6	5,838
1014,1	0,895
1014,5	1,267
1014,9	1,581
1015,3	-1,962
1015,7	-0,019
1016,1	-0,333
1016,6	-1,562
1017	-0,533
1017,4	-0,905
1017,8	-3,476
1018,2	2,295
1018,6	-1,933
1019,1	-4,162
1019,5	-3,362
1019,9	-8,019
1020,3	-7,848
1020,7	-7,476
1021,1	-7,305
1021,6	-2,476
1022	-2,019
1022,4	-6,105
1022,8	-3,762
1023,2	-2,248
1023,6	-0,99
1024,1	2,067
1024,5	1,238
1024,9	1,495
1025,3	4,895
1025,7	7,838
1026,1	6,981
1026,6	6,238
1027	0,81
1027,4	1,895
1027,8	1,038
1028,2	-3,076
1028,6	-0,505
1029	-3,019
1029,5	0,781
1029,9	1,181
1030,3	1,981
1030,7	3,81
1031,1	6,667
1031,5	2,438
1032	5,41
1032,4	2,752
1032,8	4,152
1033,2	5,838
1033,6	4,124
1034	5,895
1034,4	4,952
1034,9	5,552
1035,3	6,495
1035,7	9,124
1036,1	3,552
1036,5	0,295
1036,9	-1,419
1037,4	2,724
1037,8	-0,133
1038,2	-1,105
1038,6	-3,248
1039	3,695
1039,4	14,552
1039,8	6,552
1040,3	7,381
1040,7	8,867
1041,1	10,067
1041,5	10,352
1041,9	5,295
1042,3	-1,048
1042,7	8,01
1043,2	4,038
1043,6	2,524
1044	1,295
1044,4	-1,59
1044,8	1,724
1045,2	-2,048
1045,6	-1,59
1046,1	-1,648
1046,5	-0,39
1046,9	-4,276
1047,3	-5,876
1047,7	-8,276
1048,1	-3,533
1048,5	-5,505
1049	0,638
1049,4	5,695
1049,8	8,924
1050,2	14,324
1050,6	16,724
1051	14,524
1051,4	14,81
1051,9	7,981
1052,3	11,952
1052,7	10,095
1053,1	7,324
1053,5	7,81
1053,9	9,438
1054,3	8,752
1054,8	17,324
1055,2	12,61
1055,6	15,067
1056	13,838
1056,4	8,838
1056,8	7,581
1057,2	9,324
1057,6	3,152
1058,1	-1,048
1058,5	-2,105
1058,9	2,124
1059,3	5,781
1059,7	8,067
1060,1	9,067
1060,5	11,01
1061	11,381
1061,4	13,21
1061,8	16,495
1062,2	11,21
1062,6	11,952
1063	9,638
1063,4	4,352
1063,8	2,352
1064,3	1,124
1064,7	-3,905
1065,1	-0,276
1065,5	-9,705
1065,9	-7,562
1066,3	-7,448
1066,7	-7,962
1067,1	-9,762
1067,6	-6,305
1068	-11,448
1068,4	-6,362
1068,8	-6,99
1069,2	-3,019
1069,6	-3,848
1070	-1,048
1070,4	-1,105
1070,9	3,952
1071,3	3,581
1071,7	-0,362
1072,1	-1,19
1072,5	0,81
1072,9	0,21
1073,3	-0,619
1073,7	-6,648
1074,2	-4,248
1074,6	0,924
1075	1,895
1075,4	1,067
1075,8	4,552
1076,2	-0,533
1076,6	3,181
1077	2,238
1077,5	0,924
1077,9	-0,39
1078,3	-1,562
1078,7	-5,848
1079,1	-5,819
1079,5	-5,476
1079,9	-5,59
1080,3	-8,59
1080,7	-6,476
1081,2	0,152
1081,6	-0,448
1082	-3,219
1082,4	0,124
1082,8	1,152
1083,2	1,438
1083,6	0,638
1084	-1,276
1084,5	3,067
1084,9	4,981
1085,3	-0,276
1085,7	0,067
1086,1	0,895
1086,5	-2,476
1086,9	0,21
1087,3	-3,819
1087,7	-1,705
1088,2	0,152
1088,6	-2,362
1089	-2,59
1089,4	-1,362
1089,8	-1,162
1090,2	-0,733
1090,6	-1,876
1091	2,667
1091,4	6,152
1091,9	6,095
1092,3	7,495
1092,7	4,01
1093,1	5,695
1093,5	5,724
1093,9	1,838
1094,3	7,61
1094,7	5,552
1095,1	3,781
1095,5	1,524
1096	-1,105
1096,4	2,581
1096,8	3,867
1097,2	-3,048
1097,6	3,381
1098	8,324
1098,4	12,324
1098,8	14,752
1099,2	16,352
1099,6	13,581
1100,1	11,838
1100,5	6,038
1100,9	3,438
1101,3	2,638
1101,7	0,038
1102,1	-3,19
1102,5	0,695
1102,9	4,41
1103,3	7,638
1103,7	6,41
1104,2	4,21
1104,6	4,21
1105	3,81
1105,4	2,667
1105,8	-0,59
1106,2	-2,105
1106,6	-1,276
1107	-1,048
1107,4	0,433
1107,8	0,907
1108,3	0,167
