Data from Subt2_143.txt Node
Date: Sat Aug 26 18:29:23 MSK 2023
User: vat
Spectrometer: MAYP114033
Trigger mode: 0
Integration Time (sec): 1,000000E0
Scans to average: 5
Electric dark correction enabled: true
Nonlinearity correction enabled: false
Boxcar width: 3
XAxis mode: Wavelengths
Number of Pixels in Spectrum: 2068
>>>>>Begin Spectral Data<<<<<
199,4	0,667
199,9	2,027
200,4	-0,733
200,8	3,61
201,3	0,952
201,8	3,895
202,2	-0,619
202,7	3,638
203,2	1,981
203,6	1,952
204,1	-1,905
204,6	0,524
205	-0,762
205,5	5,124
206	2,838
206,4	1,838
206,9	3,21
207,4	1,695
207,8	0,124
208,3	-1,105
208,8	-1,848
209,2	0,952
209,7	3,295
210,2	3,381
210,6	6,952
211,1	12,524
211,5	8,267
212	9,695
212,5	7,238
212,9	5,467
213,4	3,667
213,9	0,495
214,3	-2,819
214,8	4,667
215,3	2,181
215,7	1,495
216,2	3,038
216,7	4,467
217,1	4,724
217,6	4,952
218,1	-1,133
218,5	0,181
219	-6,276
219,5	-4,248
219,9	-8,133
220,4	-0,676
220,9	-3,962
221,3	-1,905
221,8	-3,962
222,3	2,438
222,7	-0,276
223,2	4,381
223,6	-3,276
224,1	-2,79
224,6	-3,19
225	-2,019
225,5	-3,676
226	-2,619
226,4	-2,448
226,9	-1,076
227,4	0,352
227,8	-3,19
228,3	-3,305
228,8	-3,505
229,2	0,638
229,7	1,61
230,2	5,181
230,6	6,038
231,1	17,01
231,5	16,981
232	17,124
232,5	12,724
232,9	12,638
233,4	8,752
233,9	3,981
234,3	-1,505
234,8	-2,39
235,3	-3,305
235,7	-4,99
236,2	-6,819
236,7	-9,619
237,1	-5,276
237,6	-5,933
238,1	-7,99
238,5	-12,933
239	-11,362
239,4	-7,648
239,9	-5,505
240,4	-3,076
240,8	-0,39
241,3	-1,819
241,8	4,438
242,2	6,752
242,7	2,524
243,2	5,495
243,6	3,752
244,1	4,438
244,6	10,695
245	8,752
245,5	3,838
245,9	2,724
246,4	0,01
246,9	3,695
247,3	1,381
247,8	0,638
248,3	1,038
248,7	4,81
249,2	11,381
249,7	9,924
250,1	8,552
250,6	5,724
251	8,924
251,5	9,638
252	6,867
252,4	1,981
252,9	1,295
253,4	-7,19
253,8	-6,219
254,3	-8,533
254,8	-11,219
255,2	-12,448
255,7	-11,705
256,1	-5,876
256,6	-2,362
257,1	1,381
257,5	-4,19
258	-3,39
258,5	-3,733
258,9	-3,305
259,4	-7,59
259,9	-2,676
260,3	-8,333
260,8	-9,733
261,2	-7,276
261,7	-2,248
262,2	-3,476
262,6	-3,105
263,1	-2,19
263,6	1,952
264	5,238
264,5	9,61
264,9	5,81
265,4	8,095
265,9	7,181
266,3	5,438
266,8	5,324
267,3	5,067
267,7	-0,562
268,2	0,581
268,7	-0,59
269,1	-0,733
269,6	-6,99
270	-10,248
270,5	-10,933
271	-7,162
271,4	-9,562
271,9	-12,619
272,4	-9,533
272,8	-6,962
273,3	-8,876
273,7	-8,076
274,2	-11,733
274,7	-8,248
275,1	-8,048
275,6	-10,99
276,1	-11,276
276,5	-6,733
277	-7,762
277,4	-4,362
277,9	-5,19
278,4	-2,562
278,8	-1,448
279,3	1,352
279,8	0,61
280,2	2,924
280,7	1,438
281,1	-3,076
281,6	-1,419
282,1	-2,619
282,5	-3,79
283	-5,705
283,4	-7,105
283,9	-6,848
284,4	1,61
284,8	-1,362
285,3	-0,048
285,8	0,095
286,2	0,524
286,7	0,667
287,1	-0,133
287,6	-5,133
288,1	-6,59
288,5	-4,248
289	-4,962
289,5	-2,476
289,9	-2,505
290,4	-0,476
290,8	1,124
291,3	3,352
291,8	6,095
292,2	6,895
292,7	11,267
293,1	9,352
293,6	10,324
294,1	11,695
294,5	11,924
295	9,895
295,5	10,581
295,9	8,895
296,4	12,524
296,8	9,924
297,3	8,41
297,8	8,238
298,2	2,838
298,7	6,781
299,1	2,61
299,6	-0,248
300,1	3,524
300,5	3,152
301	4,724
301,5	10,924
301,9	7,238
302,4	4,238
302,8	3,752
303,3	-2,648
303,8	-6,305
304,2	-5,362
304,7	-10,162
305,1	-17,162
305,6	-17,276
306,1	-8,848
306,5	-3,905
307	0,867
307,4	-0,162
307,9	0,552
308,4	5,695
308,8	7,981
309,3	1,438
309,8	-1,333
310,2	-1,676
310,7	-7,019
311,1	-6,676
311,6	-7,248
312,1	-3,019
312,5	-0,39
313	2,152
313,4	-0,505
313,9	2,638
314,4	3,781
314,8	1,21
315,3	-3,876
315,7	-7,762
316,2	-10,248
316,7	-7,962
317,1	-1,448
317,6	-1,105
318	6,867
318,5	5,581
319	7,181
319,4	8,152
319,9	13,867
320,3	7,667
320,8	4,41
321,3	2,724
321,7	8,038
322,2	9,81
322,6	6,124
323,1	0,924
323,6	1,352
324	3,01
324,5	0,41
324,9	-2,076
325,4	-9,248
325,9	-3,048
326,3	-0,562
326,8	1,095
327,2	-0,305
327,7	-0,162
328,2	0,324
328,6	6,381
329,1	-0,79
329,5	-2,162
330	-3,162
330,5	0,324
330,9	5,438
331,4	6,238
331,8	5,952
332,3	13,41
332,8	12,895
333,2	12,838
333,7	11,724
334,1	6,038
334,6	4,524
335,1	1,752
335,5	0,495
336	-4,248
336,4	-3,419
336,9	1,838
337,4	5,01
337,8	7,952
338,3	12,095
338,7	12,924
339,2	12,61
339,7	12,124
340,1	6,467
340,6	5,581
341	-0,933
341,5	-4,705
342	-8,59
342,4	-7,048
342,9	-6,762
343,3	-8,419
343,8	-5,79
344,2	-0,905
344,7	4,781
345,2	1,781
345,6	4,638
346,1	4,181
346,5	4,867
347	-2,133
347,5	-3,133
347,9	-2,59
348,4	1,01
348,8	-0,39
349,3	2,581
349,8	2,924
350,2	10,981
350,7	9,495
351,1	4,581
351,6	9,181
352	13,295
352,5	14,324
353	23,752
353,4	26,267
353,9	34,895
354,3	49,324
354,8	53,724
355,3	69,067
355,7	83,038
356,2	92,695
356,6	108,181
357,1	128,81
357,5	146,981
358	176,781
358,5	199,181
358,9	230,61
359,4	268,724
359,8	310,181
360,3	356,752
360,8	404,81
361,2	456,695
361,7	519,21
362,1	585,752
362,6	661,895
363	739,124
363,5	822,01
364	914,581
364,4	1009,781
364,9	1105,524
365,3	1204,01
365,8	1287,352
366,3	1372,61
366,7	1442,724
367,2	1509,867
367,6	1559,352
368,1	1603,038
368,5	1618,638
369	1631,61
369,5	1631,124
369,9	1621,267
370,4	1594,067
370,8	1565,495
371,3	1510,467
371,7	1465,924
372,2	1400,581
372,7	1330,238
373,1	1261,067
373,6	1186,038
374	1108,552
374,5	1037,124
374,9	959,61
375,4	892,838
375,9	828,01
376,3	761,981
376,8	698,924
377,2	641,895
377,7	588,41
378,2	538,438
378,6	491,981
379,1	449,495
379,5	413,01
380	384,067
380,4	351,724
380,9	321,638
381,4	291,267
381,8	274,724
382,3	258,895
382,7	241,552
383,2	223,581
383,6	206,838
384,1	196,381
384,6	189,152
385	173,381
385,5	157,467
385,9	142,667
386,4	131,152
386,8	121,981
387,3	108,41
387,7	102,01
388,2	97,524
388,7	90,21
389,1	88,895
389,6	85,781
390	81,81
390,5	78,667
390,9	74,181
391,4	66,61
391,9	63,581
392,3	61,352
392,8	52,867
393,2	47,181
393,7	46,895
394,1	40,324
394,6	35,667
395,1	37,124
395,5	30,838
396	32,952
396,4	31,781
396,9	30,524
397,3	35,781
397,8	41,952
398,2	37,838
398,7	40,01
399,2	41,067
399,6	47,352
400,1	46,838
400,5	41,124
401	39,61
401,4	36,724
401,9	38,552
402,4	41,724
402,8	33,21
403,3	35,924
403,7	35,495
404,2	35,581
404,6	40,895
405,1	38,438
405,5	34,438
406	36,838
406,5	32,552
406,9	39,324
407,4	39,61
407,8	40,667
408,3	43,81
408,7	47,21
409,2	51,61
409,6	59,724
410,1	61,524
410,6	66,724
411	72,667
411,5	76,01
411,9	80,867
412,4	85,324
412,8	89,724
413,3	93,467
413,7	95,724
414,2	99,067
414,7	108,381
415,1	120,41
415,6	129,238
416	135,781
416,5	141,152
416,9	148,552
417,4	158,667
417,8	165,924
418,3	172,524
418,8	184,81
419,2	194,867
419,7	205,552
420,1	217,41
420,6	230,067
421	240,895
421,5	250,095
421,9	255,695
422,4	267,381
422,8	279,895
423,3	294,095
423,8	300,267
424,2	314,181
424,7	325,552
425,1	343,981
425,6	362,667
426	377,667
426,5	392,952
426,9	418,324
427,4	432,295
427,9	448,381
428,3	470,267
428,8	488,552
429,2	511,352
429,7	535,181
430,1	551,152
430,6	581,095
431	611,381
431,5	636,81
431,9	661,695
432,4	699,238
432,8	735,295
433,3	777,895
433,8	812,524
434,2	852,21
434,7	897,752
435,1	946,467
435,6	987,838
436	1030,581
436,5	1077,181
436,9	1121,81
437,4	1176,952
437,8	1231,552
438,3	1288,152
438,8	1343,552
439,2	1406,152
439,7	1476,838
440,1	1550,381
440,6	1618,124
441	1681,01
441,5	1752,695
441,9	1832,038
442,4	1910,21
442,8	1978,724
443,3	2068,867
443,7	2149,838
444,2	2245,81
444,7	2338,267
445,1	2430,61
445,6	2530,61
446	2634,067
446,5	2726,552
446,9	2824,581
447,4	2931,267
447,8	3039,724
448,3	3149,752
448,7	3257,61
449,2	3373,381
449,6	3492,981
450,1	3621,552
450,6	3741,695
451	3866,61
451,5	3993,981
451,9	4132,61
452,4	4267,838
452,8	4401,381
453,3	4540,01
453,7	4678,324
454,2	4826,324
454,6	4971,324
455,1	5121,038
455,5	5273,324
456	5427,381
456,4	5582,295
456,9	5737,152
457,3	5891,838
457,8	6050,695
458,3	6210,238
458,7	6366,381
459,2	6528,838
459,6	6697,181
460,1	6862,638
460,5	7021,552
461	7196,667
461,4	7355,21
461,9	7515,438
462,3	7683,295
462,8	7847,352
463,2	8020,095
463,7	8197,552
464,1	8367,152
464,6	8541,21
465	8719,124
465,5	8889,667
466	9051,81
466,4	9209,867
466,9	9377,61
467,3	9534,981
467,8	9699,352
468,2	9864,495
468,7	10023,524
469,1	10189,867
469,6	10353,838
470	10508,61
470,5	10670,181
470,9	10825,095
471,4	10970,438
471,8	11124,181
472,3	11270,838
472,7	11418,067
473,2	11554,181
473,6	11679,838
474,1	11811,295
474,5	11952,267
475	12078,21
475,4	12208,695
475,9	12338,695
476,4	12469,038
476,8	12593,81
477,3	12713,667
477,7	12836,067
478,2	12950,21
478,6	13060,267
479,1	13158,638
479,5	13262,124
480	13362,724
480,4	13463,41
480,9	13537,867
481,3	13614,895
481,8	13692,41
482,2	13760,667
482,7	13814,61
483,1	13883,124
483,6	13936,581
484	13987,724
484,5	14037,981
484,9	14085,01
485,4	14132,181
485,8	14176,267
486,3	14203,067
486,7	14228,324
487,2	14261,895
487,6	14289,667
488,1	14297,638
488,5	14317,067
489	14329,781
489,4	14347,238
489,9	14343,724
490,4	14333,952
490,8	14335,267
491,3	14329,581
491,7	14307,124
492,2	14287,952
492,6	14259,552
493,1	14242,124
493,5	14205,495
494	14157,81
494,4	14113,381
494,9	14072,352
495,3	14037,181
495,8	13989,552
496,2	13937,552
496,7	13888,41
497,1	13849,467
497,6	13802,352
498	13754,695
498,5	13691,752
498,9	13636,295
499,4	13570,667
499,8	13521,581
500,3	13456,238
500,7	13386,124
501,2	13310,495
501,6	13222,267
502,1	13143,581
502,5	13079,152
503	12988,524
503,4	12899,124
503,9	12822,667
504,3	12741,324
504,8	12676,61
505,2	12585,495
505,7	12491,495
506,1	12410,124
506,6	12325,324
507	12228,61
507,5	12143,952
507,9	12049,467
508,4	11964,838
508,8	11863,238
509,3	11772,21
509,7	11675,324
510,2	11586,324
510,6	11479,524
511,1	11383,01
511,5	11273,381
512	11184,381
512,4	11075,267
512,9	10972,295
513,3	10868,21
513,8	10765,867
514,2	10658,181
514,7	10553,381
515,1	10433,295
515,6	10328,267
516	10217,752
516,5	10103,638
516,9	9997,181
517,4	9893,81
517,8	9796,924
518,3	9702,724
518,7	9603,667
519,2	9504,038
519,6	9409,524
520,1	9314,581
520,5	9210,467
521	9104,01
521,4	9007,552
521,9	8912,952
522,3	8815,695
522,8	8719,067
523,2	8620,867
523,7	8527,981
524,1	8439,01
524,6	8347,924
525	8251,124
525,5	8162,21
525,9	8072,467
526,4	7978,695
526,8	7890,495
527,3	7807,81
527,7	7718,352
528,2	7625,61
528,6	7530,867
529,1	7439,638
529,5	7359,867
530	7269,61
530,4	7179,838
530,9	7091,695
531,3	7018,838
531,8	6944,095
532,2	6870,181
532,6	6783,781
533,1	6700,124
533,5	6619,81
534	6544,495
534,4	6465,438
534,9	6389,981
535,3	6314,238
535,8	6247,21
536,2	6191,81
536,7	6126,381
537,1	6056,152
537,6	5987,381
538	5917,41
538,5	5852,724
538,9	5778,867
539,4	5704,067
539,8	5635,867
540,3	5574,952
540,7	5512,981
541,2	5448,724
541,6	5380,952
542,1	5327,267
542,5	5265,324
543	5208,438
543,4	5146,724
543,9	5090,438
544,3	5033,467
544,8	4976,981
545,2	4915,724
545,7	4865,295
546,1	4820,095
546,5	4768,095
547	4708,867
547,4	4663,61
547,9	4617,238
548,3	4572,724
548,8	4519,038
549,2	4458,524
549,7	4418,238
550,1	4379,724
550,6	4330,267
551	4283,61
551,5	4240,895
551,9	4197,01
552,4	4159,838
552,8	4114,41
553,3	4069,124
553,7	4026,524
554,2	3990,267
554,6	3949,638
555,1	3915,638
555,5	3873,181
555,9	3840,152
556,4	3799,695
556,8	3766,81
557,3	3729,895
557,7	3696,781
558,2	3659,638
558,6	3633,467
559,1	3588,095
559,5	3558,01
560	3525,752
560,4	3493,638
560,9	3455,238
561,3	3420,495
561,8	3383,524
562,2	3358,324
562,7	3328,038
563,1	3302,752
563,6	3264,924
564	3232,81
564,4	3203,324
564,9	3172,724
565,3	3141,067
565,8	3111,61
566,2	3077,924
566,7	3057,038
567,1	3029,952
567,6	3004,438
568	2976,324
568,5	2950,895
568,9	2922,638
569,4	2892,781
569,8	2866,638
570,3	2843,21
570,7	2812,638
571,1	2795,01
571,6	2767,467
572	2755,552
572,5	2741,295
572,9	2714,21
573,4	2692,695
573,8	2678,667
574,3	2648,352
574,7	2629,267
575,2	2600,495
575,6	2574,895
576,1	2552,81
576,5	2529,867
576,9	2504,038
577,4	2483,352
577,8	2457,524
578,3	2432,124
578,7	2410,181
579,2	2392,181
579,6	2371,981
580,1	2354,438
580,5	2338,838
581	2326,61
581,4	2308,981
581,9	2289,352
582,3	2268,267
582,7	2251,581
583,2	2231,067
583,6	2210,181
584,1	2191,067
584,5	2172,61
585	2152,895
585,4	2139,152
585,9	2117,752
586,3	2099,895
586,8	2084,467
587,2	2066,181
587,6	2052,952
588,1	2043,724
588,5	2030,181
589	2022,152
589,4	2007,152
589,9	1993,867
590,3	1981,61
590,8	1969,752
591,2	1952,41
591,7	1938,552
592,1	1921,295
592,5	1912,152
593	1897,381
593,4	1877,524
593,9	1858,324
594,3	1846,324
594,8	1829,381
595,2	1818,095
595,7	1803,238
596,1	1789,438
596,6	1781,381
597	1772,61
597,4	1761,352
597,9	1752,867
598,3	1743,067
598,8	1731,495
599,2	1721,581
599,7	1713,41
600,1	1703,581
600,6	1688,524
601	1676,124
601,4	1664,524
601,9	1658,667
602,3	1644,01
602,8	1627,41
603,2	1610,01
603,7	1596,381
604,1	1583,724
604,6	1565,267
605	1545,81
605,4	1538,61
605,9	1532,41
606,3	1518,21
606,8	1508,181
607,2	1498,61
607,7	1487,581
608,1	1481,867
608,6	1473,181
609	1465,895
609,4	1459,552
609,9	1449,924
610,3	1440,295
610,8	1439,238
611,2	1428,552
611,7	1414,152
612,1	1399,038
612,6	1395,838
613	1389,638
613,4	1379,981
613,9	1368,124
614,3	1359,952
614,8	1353,695
615,2	1351,724
615,7	1342,238
616,1	1333,924
616,6	1321,695
617	1309,924
617,4	1304,267
617,9	1297,724
618,3	1284,267
618,8	1278,524
619,2	1266,952
619,7	1261,838
620,1	1255,152
620,5	1244,781
621	1231,552
621,4	1222,324
621,9	1211,038
622,3	1205,238
622,8	1196,838
623,2	1191,495
623,6	1184,095
624,1	1181,838
624,5	1174,381
625	1170,981
625,4	1163,952
625,9	1152,238
626,3	1141,095
626,8	1132,781
627,2	1130,895
627,6	1118,238
628,1	1102,438
628,5	1095,352
629	1090,295
629,4	1083,895
629,9	1074,038
630,3	1054,124
630,7	1047,21
631,2	1043,981
631,6	1035,752
632,1	1028,067
632,5	1021,838
633	1016,381
633,4	1012,752
633,8	1006,81
634,3	996,352
634,7	989,895
635,2	979,238
635,6	973,752
636,1	964,152
636,5	955,352
636,9	947,41
637,4	937,781
637,8	921,924
638,3	915,495
638,7	906,095
639,2	896,695
639,6	894,752
640	892,095
640,5	889,295
640,9	892,695
641,4	887,924
641,8	885,095
642,2	881,581
642,7	877,924
643,1	873,981
643,6	864,724
644	859,124
644,5	857,924
644,9	850,01
645,3	843,495
645,8	833,838
646,2	828,638
646,7	829,124
647,1	823,352
647,6	821,124
648	819,01
648,4	814,381
648,9	807,752
649,3	800,038
649,8	796,295
650,2	792,467
650,6	783,724
651,1	773,267
651,5	773,695
652	769,295
652,4	761,324
652,9	756,295
653,3	749,695
653,7	743,267
654,2	740,838
654,6	731,095
655,1	733,41
655,5	737,61
655,9	729,581
656,4	726,41
656,8	722,152
657,3	718,352
657,7	716,295
658,2	703,81
658,6	694,438
659	693,581
659,5	684,038
659,9	682,124
660,4	677,124
660,8	670,638
661,2	665,352
661,7	659,924
662,1	653,267
662,6	650,924
663	643,267
663,4	639,838
663,9	638,838
664,3	636,838
664,8	626,638
665,2	618,752
665,6	612,067
666,1	608,41
666,5	604,381
667	597,752
667,4	592,438
667,9	593,095
668,3	589,81
668,7	587,038
669,2	584,41
669,6	575,124
670,1	571,61
670,5	566,895
670,9	564,495
671,4	563,381
671,8	558,752
672,3	555,952
672,7	557,752
673,1	549,781
673,6	547,352
674	542,752
674,5	533,495
674,9	529,324
675,3	521,838
675,8	515,495
676,2	515,724
676,7	508,667
677,1	502,552
677,5	496,524
678	496,295
678,4	497,581
678,9	493,667
679,3	490,152
679,7	487,638
680,2	484,067
680,6	484,181
681,1	481,781
681,5	476,952
681,9	476,552
682,4	472,124
682,8	472,01
683,3	470,695
683,7	470,581
684,1	463,267
684,6	456,695
685	451,324
685,5	448,752
685,9	441,438
686,3	437,038
686,8	433,181
687,2	429,038
687,7	425,41
688,1	420,61
688,5	415,81
689	413,895
689,4	411,01
689,9	407,21
690,3	401,438
690,7	403,552
691,2	400,152
691,6	402,724
692	404,381
692,5	401,095
692,9	398,067
693,4	402,581
693,8	396,01
694,2	395,838
694,7	386,124
695,1	379,952
695,6	380,495
696	374,981
696,4	369,152
696,9	364,238
697,3	357,038
697,8	354,324
698,2	348,01
698,6	346,638
699,1	349,438
699,5	348,81
699,9	346,952
700,4	346,524
700,8	346,924
701,3	346,952
701,7	340,324
702,1	336,867
702,6	330,867
703	332,038
703,5	329,752
703,9	327,952
704,3	332,267
704,8	330,924
705,2	330,381
705,6	330,838
706,1	324,981
706,5	323,781
707	316,495
707,4	312,381
707,8	306,495
708,3	303,381
708,7	303,752
709,2	303,295
709,6	298,324
710	304,01
710,5	297,438
710,9	296,467
711,3	292,295
711,8	288,667
712,2	288,467
712,7	288,495
713,1	285,667
713,5	285,924
714	288,781
714,4	285,552
714,8	281,752
715,3	278,067
715,7	275,695
716,2	269,352
716,6	267,038
717	260,867
717,5	260,324
717,9	261,21
718,3	256,467
718,8	254,952
719,2	256,467
719,7	254,495
720,1	257,238
720,5	259,295
721	254,038
721,4	254,438
721,8	254,467
722,3	248,152
722,7	246,238
723,2	238,638
723,6	230,01
724	228,838
724,5	226,067
724,9	221,895
725,3	221,152
725,8	212,467
726,2	212,295
726,7	208,438
727,1	207,352
727,5	203,495
728	200,524
728,4	199,724
728,8	203,21
729,3	202,695
729,7	202,324
730,1	198,61
730,6	198,552
731	198,467
731,5	198,21
731,9	197,467
732,3	196,095
732,8	198,838
733,2	198,038
733,6	196,152
734,1	194,981
734,5	193,438
734,9	192,638
735,4	192,724
735,8	186,81
736,3	191,324
736,7	194,924
737,1	193,01
737,6	191,781
738	191,152
738,4	188,21
738,9	193,581
739,3	189,867
739,7	185,181
740,2	183,41
740,6	186,752
741,1	188,381
741,5	182,781
741,9	179,752
742,4	179,524
742,8	180,495
743,2	182,724
743,7	175,324
744,1	164,038
744,5	163,552
745	159,467
745,4	151,724
745,8	146,695
746,3	139,21
746,7	138,41
747,2	145,095
747,6	148,038
748	152,124
748,5	155,724
748,9	154,524
749,3	160,095
749,8	160,01
750,2	157,067
750,6	155,552
751,1	155,352
751,5	153,438
751,9	159,838
752,4	158,267
752,8	157,21
753,3	156,752
753,7	158,667
754,1	151,381
754,6	149,867
755	142,21
755,4	140,152
755,9	138,981
756,3	138,238
756,7	135,752
757,2	136,324
757,6	139,495
758	141,41
758,5	142,124
758,9	140,552
759,3	139,952
759,8	140,381
760,2	146,095
760,6	141,838
761,1	139,181
761,5	136,181
761,9	136,038
762,4	134,095
762,8	132,295
763,3	126,267
763,7	128,467
764,1	132,267
764,6	132,81
765	134,867
765,4	134,752
765,9	137,067
766,3	139,924
766,7	135,267
767,2	128,381
767,6	129,638
768	127,667
768,5	128,552
768,9	121,867
769,3	118,352
769,8	113,41
770,2	118,952
770,6	114,752
771,1	115,181
771,5	114,267
771,9	115,724
772,4	113,81
772,8	115,324
773,2	115,238
773,7	113,724
774,1	111,324
774,5	104,352
775	104,752
775,4	104,152
775,8	105,495
776,3	103,781
776,7	105,181
777,1	102,352
777,6	111,667
778	110,781
778,4	110,381
778,9	111,667
779,3	109,924
779,7	108,895
780,2	109,952
780,6	104,924
781	102,41
781,5	99,467
781,9	100,067
782,3	94,238
782,8	95,438
783,2	94,295
783,6	96,152
784,1	96,695
784,5	94,952
784,9	92,067
785,4	94,952
785,8	93,181
786,2	95,495
786,7	89,438
787,1	86,781
787,5	89,467
788	90,124
788,4	92,838
788,8	94,61
789,3	92,695
789,7	92,638
790,1	93,924
790,6	93,838
791	88,952
791,4	88,952
791,9	81,324
792,3	75,838
792,7	81,067
793,2	76,181
793,6	75,41
794	80,638
794,5	74,638
794,9	81,667
795,3	86,895
795,8	84,952
796,2	87,838
796,6	89,21
797,1	86,41
797,5	84,295
797,9	75,952
798,4	72,01
798,8	67,981
799,2	66,638
799,7	66,638
800,1	65,067
800,5	66,181
801	74,41
801,4	78,067
801,8	77,61
802,2	79,238
802,7	74,267
803,1	72,238
803,5	73,581
804	66,181
804,4	62,21
804,8	62,381
805,3	59,895
805,7	60,867
806,1	62,495
806,6	58,638
807	61,495
807,4	61,981
807,9	61,438
808,3	61,752
808,7	63,838
809,2	63,752
809,6	70,81
810	67,81
810,4	64,124
810,9	61,552
811,3	64,495
811,7	63,667
812,2	68,238
812,6	62,638
813	63,838
813,5	67,124
813,9	75,467
814,3	73,438
814,8	72,467
815,2	64,238
815,6	64,524
816,1	66,781
816,5	64,552
816,9	58,038
817,3	55,438
817,8	61,21
818,2	63,781
818,6	60,867
819,1	56,695
819,5	56,981
819,9	60,21
820,4	61,438
820,8	57,438
821,2	53,381
821,7	56,924
822,1	60,067
822,5	68,01
822,9	66,467
823,4	65,495
823,8	63,552
824,2	68,695
824,7	62,238
825,1	55,752
825,5	44,21
826	36,01
826,4	35,524
826,8	32,238
827,3	31,352
827,7	32,952
828,1	34,724
828,5	39,181
829	44,038
829,4	44,038
829,8	39,152
830,3	39,61
830,7	37,381
831,1	42,295
831,6	41,238
832	44,438
832,4	42,524
832,8	45,895
833,3	42,952
833,7	43,61
834,1	39,01
834,6	34,61
835	32,295
835,4	35,41
835,8	34,495
836,3	33,295
836,7	36,352
837,1	36,952
837,6	40,895
838	39,41
838,4	36,381
838,9	37,924
839,3	34,01
839,7	34,695
840,1	30,41
840,6	27,295
841	31,552
841,4	30,238
841,9	30,124
842,3	32,752
842,7	32,095
843,1	30,695
843,6	33,524
844	27,695
844,4	32,867
844,9	33,638
845,3	35,352
845,7	33,61
846,2	35,781
846,6	36,438
847	36,01
847,4	32,181
847,9	35,524
848,3	36,381
848,7	36,038
849,2	40,381
849,6	34,124
850	40,267
850,4	40,638
850,9	34,181
851,3	32,124
851,7	33,981
852,2	30,867
852,6	37,495
853	34,61
853,4	32,381
853,9	32,581
854,3	33,438
854,7	35,695
855,2	33,581
855,6	29,981
856	25,438
856,4	25,038
856,9	25,781
857,3	24,81
857,7	23,21
858,2	26,095
858,6	25,895
859	25,667
859,4	25,324
859,9	22,495
860,3	17,238
860,7	14,952
861,1	16,638
861,6	14,495
862	16,238
862,4	14,181
862,9	15,638
863,3	21,095
863,7	19,895
864,1	18,667
864,6	19,495
865	20,467
865,4	23,61
865,9	25,81
866,3	18,152
866,7	20,238
867,1	17,524
867,6	21,21
868	18,41
868,4	16,981
868,8	19,324
869,3	28,695
869,7	29,324
870,1	28,552
870,6	23,781
871	-56,39
871,4	-54,248
871,8	-58,59
872,3	-59,848
872,7	-61,733
873,1	-62,648
873,5	-57,619
874	22,924
874,4	20,295
874,8	16,895
875,3	18,095
875,7	17,01
876,1	23,352
876,5	21,038
877	17,638
877,4	15,867
877,8	21,381
878,2	22,667
878,7	25,038
879,1	18,038
879,5	18,067
879,9	21,838
880,4	24,895
880,8	25,324
881,2	21,838
881,7	17,038
882,1	18,952
882,5	13,267
882,9	13,952
883,4	8,581
883,8	3,638
884,2	2,238
884,6	5,724
885,1	8,524
885,5	13,324
885,9	13,524
886,3	18,124
886,8	19,01
887,2	17,895
887,6	15,238
888	14,381
888,5	13,381
888,9	10,781
889,3	7,352
889,8	7,495
890,2	7,495
890,6	5,552
891	2,924
891,5	5,295
891,9	5,124
892,3	7,352
892,7	7,381
893,2	8,238
893,6	11,352
894	14,781
894,4	11,067
894,9	11,61
895,3	12,067
895,7	15,181
896,1	14,61
896,6	12,838
897	11,752
897,4	13,667
897,8	14,467
898,3	18,124
898,7	15,267
899,1	14,01
899,5	12,524
900	3,924
900,4	3,438
900,8	1,495
901,2	-5,733
901,7	-8,562
902,1	-6,819
902,5	-1,733
902,9	5,924
903,4	6,952
903,8	11,667
904,2	13,095
904,6	16,867
905,1	17,238
905,5	15,724
905,9	17,095
906,3	20,152
906,8	17,695
907,2	23,238
907,6	21,381
908	24,467
908,5	21,867
908,9	16,238
909,3	10,152
909,7	7,781
910,2	3,267
910,6	7,552
911	-2,076
911,4	1,01
911,9	1,352
912,3	1,01
912,7	2,781
913,1	4,152
913,6	-3,276
914	2,581
914,4	-2,562
914,8	3,01
915,3	3,895
915,7	7,952
916,1	7,381
916,5	16,238
916,9	16,781
917,4	23,867
917,8	18,181
918,2	12,952
918,6	6,124
919,1	6,838
919,5	4,095
919,9	5,152
920,3	-0,648
920,8	1,667
921,2	3,952
921,6	5,438
922	1,981
922,5	-1,448
922,9	-5,648
923,3	-6,019
923,7	-3,876
924,2	-3,19
924,6	-2,162
925	5,124
925,4	6,838
925,8	8,924
926,3	7,467
926,7	3,238
927,1	7,695
927,5	8,067
928	1,867
928,4	-0,648
928,8	-2,248
929,2	1,724
929,7	3,038
930,1	4,152
930,5	1,895
930,9	5,61
931,3	4,01
931,8	3,61
932,2	4,152
932,6	5,01
933	-3,848
933,5	-4,248
933,9	-5,533
934,3	1,895
934,7	2,495
935,2	5,067
935,6	4,352
936	7,895
936,4	14,724
936,8	15,895
937,3	7,01
937,7	10,438
938,1	9,724
938,5	5,41
939	7,295
939,4	1,61
939,8	-0,048
940,2	1,667
940,6	2,295
941,1	0,152
941,5	7,952
941,9	4,581
942,3	4,038
942,8	4,181
943,2	8,752
943,6	5,381
944	3,981
944,4	-2,848
944,9	-3,105
945,3	-1,505
945,7	-3,676
946,1	-4,762
946,6	-4,876
947	-7,105
947,4	-2,505
947,8	3,838
948,2	1,01
948,7	2,952
949,1	1,381
949,5	5,467
949,9	10,352
950,3	9,524
950,8	4,038
951,2	6,21
951,6	3,01
952	4,924
952,5	-1,79
952,9	-2,99
953,3	-4,905
953,7	-3,333
954,1	0,552
954,6	4,952
955	3,667
955,4	6,095
955,8	5,61
956,2	6,952
956,7	9,438
957,1	4,667
957,5	6,524
957,9	7,724
958,3	6,267
958,8	7,752
959,2	10,438
959,6	14,524
960	11,467
960,5	13,352
960,9	16,238
961,3	13,895
961,7	10,981
962,1	7,095
962,6	1,267
963	3,181
963,4	-8,448
963,8	-10,705
964,2	-7,333
964,7	-4,505
965,1	3,095
965,5	3,352
965,9	3,981
966,3	12,495
966,8	11,324
967,2	14,238
967,6	11,381
968	3,467
968,4	7,324
968,9	9,124
969,3	9,381
969,7	4,61
970,1	4,181
970,5	5,381
971	9,667
971,4	3,838
971,8	4,352
972,2	3,81
972,6	5,067
973,1	2,324
973,5	3,267
973,9	0,095
974,3	-1,133
974,7	2,895
975,2	1,981
975,6	5,038
976	6,495
976,4	1,895
976,8	2,295
977,3	3,438
977,7	-1,562
978,1	-0,99
978,5	-1,79
978,9	-3,619
979,4	-2,333
979,8	-4,333
980,2	-2,676
980,6	-7,276
981	-3,648
981,5	-1,819
981,9	-1,619
982,3	0,381
982,7	4,152
983,1	1,924
983,6	2,752
984	-1,905
984,4	-3,333
984,8	-4,99
985,2	-7,819
985,6	-11,19
986,1	-8,648
986,5	-3,248
986,9	-6,733
987,3	-7,733
987,7	-5,905
988,2	-4,333
988,6	-5,162
989	-5,933
989,4	-11,648
989,8	-7,933
990,3	-9,048
990,7	-8,933
991,1	-9,276
991,5	-3,162
991,9	0,21
992,3	4,181
992,8	3,61
993,2	4,21
993,6	4,781
994	6,352
994,4	-0,962
994,9	-2,19
995,3	-4,933
995,7	-5,905
996,1	-5,219
996,5	-5,19
996,9	-5,505
997,4	2,01
997,8	-2,59
998,2	-4,962
998,6	-11,19
999	-11,048
999,5	-12,733
999,9	-14,848
1000,3	-18,019
1000,7	-13,99
1001,1	-11,848
1001,5	-2,219
1002	0,638
1002,4	3,867
1002,8	3,667
1003,2	4,924
1003,6	8,495
1004	11,095
1004,5	5,01
1004,9	5,267
1005,3	2,124
1005,7	3,238
1006,1	-0,419
1006,6	-2,819
1007	-0,99
1007,4	1,867
1007,8	-0,676
1008,2	-1,59
1008,6	-3,076
1009,1	-1,876
1009,5	-3,648
1009,9	-1,333
1010,3	-1,476
1010,7	2,267
1011,1	1,524
1011,6	5,095
1012	10,21
1012,4	7,81
1012,8	0,867
1013,2	4,124
1013,6	2,038
1014,1	6,438
1014,5	8,867
1014,9	2,267
1015,3	-1,076
1015,7	-0,305
1016,1	-0,505
1016,6	-3,705
1017	-4,019
1017,4	-6,733
1017,8	-6,848
1018,2	-0,962
1018,6	-2,619
1019,1	-3,676
1019,5	-2,048
1019,9	-2,276
1020,3	-2,333
1020,7	1,21
1021,1	-0,762
1021,6	3,095
1022	6,067
1022,4	5,038
1022,8	2,152
1023,2	2,438
1023,6	3,524
1024,1	9,181
1024,5	11,152
1024,9	3,81
1025,3	6,324
1025,7	9,924
1026,1	15,095
1026,6	11,01
1027	4,924
1027,4	3,924
1027,8	5,152
1028,2	5,352
1028,6	6,981
1029	3,181
1029,5	6,781
1029,9	7,381
1030,3	7,324
1030,7	11,152
1031,1	11,524
1031,5	8,01
1032	5,152
1032,4	5,438
1032,8	7,352
1033,2	6,61
1033,6	2,867
1034	1,581
1034,4	0,524
1034,9	2,295
1035,3	-2,305
1035,7	-1,219
1036,1	-6,276
1036,5	-9,962
1036,9	-8,59
1037,4	-9,305
1037,8	-9,276
1038,2	-9,362
1038,6	-11,705
1039	-2,048
1039,4	8,124
1039,8	3,295
1040,3	8,124
1040,7	6,438
1041,1	13,895
1041,5	14,952
1041,9	5,952
1042,3	1,924
1042,7	6,981
1043,2	4,838
1043,6	6,181
1044	-2,219
1044,4	-2,019
1044,8	2,638
1045,2	4,667
1045,6	6,867
1046,1	4,181
1046,5	4,838
1046,9	8,381
1047,3	7,181
1047,7	6,438
1048,1	0,21
1048,5	-1,848
1049	6,41
1049,4	12,61
1049,8	11,352
1050,2	14,952
1050,6	21,467
1051	27,381
1051,4	23,095
1051,9	17,667
1052,3	15,467
1052,7	18,667
1053,1	13,067
1053,5	9,21
1053,9	7,238
1054,3	10,952
1054,8	12,981
1055,2	6,81
1055,6	6,467
1056	6,467
1056,4	5,438
1056,8	3,152
1057,2	0,267
1057,6	-2,133
1058,1	-2,076
1058,5	-7,19
1058,9	-3,562
1059,3	-6,276
1059,7	-6,305
1060,1	-2,39
1060,5	0,752
1061	1,952
1061,4	5,581
1061,8	5,524
1062,2	4,067
1062,6	8,267
1063	5,524
1063,4	1,581
1063,8	-0,39
1064,3	-5,476
1064,7	-5,99
1065,1	-3,59
1065,5	-9,933
1065,9	-13,905
1066,3	-14,276
1066,7	-14,162
1067,1	-12,276
1067,6	-8,99
1068	-14,676
1068,4	-7,59
1068,8	0,467
1069,2	-2,248
1069,6	-2,819
1070	1,952
1070,4	-2,562
1070,9	-1,648
1071,3	-7,076
1071,7	-13,448
1072,1	-11,448
1072,5	-12,448
1072,9	-16,276
1073,3	-12,419
1073,7	-11,619
1074,2	-8,933
1074,6	-6,562
1075	-3,248
1075,4	-2,762
1075,8	0,838
1076,2	-2,848
1076,6	1,724
1077	1,981
1077,5	7,038
1077,9	3,781
1078,3	5,495
1078,7	1,524
1079,1	-1,133
1079,5	-2,59
1079,9	-4,876
1080,3	-8,019
1080,7	-5,419
1081,2	-2,562
1081,6	-2,562
1082	1,981
1082,4	4,752
1082,8	7,724
1083,2	4,752
1083,6	4,895
1084	2,41
1084,5	7,867
1084,9	5,467
1085,3	-0,848
1085,7	-3,105
1086,1	-1,876
1086,5	-3,648
1086,9	1,438
1087,3	-3,79
1087,7	-5,19
1088,2	-3,019
1088,6	-5,79
1089	-5,676
1089,4	-5,99
1089,8	-10,962
1090,2	-9,819
1090,6	-9,648
1091	-5,048
1091,4	-0,933
1091,9	-0,133
1092,3	-1,848
1092,7	-2,048
1093,1	3,41
1093,5	5,467
1093,9	3,01
1094,3	6,524
1094,7	3,324
1095,1	6,695
1095,5	6,981
1096	-0,105
1096,4	1,01
1096,8	2,381
1097,2	-4,133
1097,6	-0,59
1098	-0,133
1098,4	0,524
1098,8	6,467
1099,2	10,667
1099,6	7,952
1100,1	8,952
1100,5	8,467
1100,9	5,438
1101,3	6,01
1101,7	2,238
1102,1	-0,333
1102,5	2,067
1102,9	6,638
1103,3	8,067
1103,7	12,581
1104,2	9,352
1104,6	9,667
1105	4,867
1105,4	3,61
1105,8	0,067
1106,2	-2,619
1106,6	-5,248
1107	-2,648
1107,4	-3,2
1107,8	-0,493
1108,3	-0,633
