Data from Subt2_230.txt Node
Date: Sat Aug 26 18:51:58 MSK 2023
User: vat
Spectrometer: MAYP114033
Trigger mode: 0
Integration Time (sec): 1,000000E0
Scans to average: 5
Electric dark correction enabled: true
Nonlinearity correction enabled: false
Boxcar width: 3
XAxis mode: Wavelengths
Number of Pixels in Spectrum: 2068
>>>>>Begin Spectral Data<<<<<
199,4	-0,117
199,9	2,573
200,4	0,833
200,8	3,248
201,3	3,819
201,8	5,848
202,2	4,133
202,7	6,162
203,2	3,562
203,6	3,79
204,1	1,962
204,6	-1,038
205	1,333
205,5	2,733
206	1,762
206,4	1,476
206,9	1,848
207,4	1,533
207,8	2,533
208,3	-2,238
208,8	-2,638
209,2	-1,21
209,7	0,105
210,2	2,39
210,6	1,619
211,1	2,733
211,5	-1,352
212	-0,952
212,5	-5,781
212,9	-7,867
213,4	-10,01
213,9	-9,181
214,3	-7,752
214,8	-1,552
215,3	-3,238
215,7	3,048
216,2	5,39
216,7	7,019
217,1	4,848
217,6	8,962
218,1	9,676
218,5	11,533
219	4,448
219,5	4,048
219,9	-0,495
220,4	5,705
220,9	0,19
221,3	-4,81
221,8	-4,924
222,3	1,219
222,7	2,962
223,2	6,076
223,6	3,39
224,1	5,362
224,6	14,133
225	13,305
225,5	6,99
226	7,733
226,4	9,105
226,9	8,448
227,4	8,762
227,8	-0,667
228,3	0,676
228,8	7,99
229,2	6,762
229,7	5,419
230,2	9,362
230,6	11,819
231,1	16,305
231,5	16,162
232	11,933
232,5	12,933
232,9	14,419
233,4	13,305
233,9	8,848
234,3	9,305
234,8	7,648
235,3	6,59
235,7	6,99
236,2	3,248
236,7	0,419
237,1	2,448
237,6	-0,067
238,1	-0,667
238,5	-0,552
239	-2,21
239,4	2,448
239,9	-1,867
240,4	-1,095
240,8	3,905
241,3	4,248
241,8	4,933
242,2	4,962
242,7	0,305
243,2	5,905
243,6	3,048
244,1	5,19
244,6	10,076
245	9,305
245,5	12,819
245,9	10,876
246,4	9,733
246,9	11,019
247,3	5,762
247,8	-0,695
248,3	2,19
248,7	0,59
249,2	6,762
249,7	5,762
250,1	6,219
250,6	5,733
251	12,305
251,5	11,619
252	5,619
252,4	5,19
252,9	2,676
253,4	0,105
253,8	2,276
254,3	0,076
254,8	-1,838
255,2	-1,924
255,7	-6,181
256,1	-2,41
256,6	-0,81
257,1	-5,867
257,5	-10,181
258	-10,695
258,5	-5,152
258,9	-3,981
259,4	-4,81
259,9	-4,352
260,3	-2,724
260,8	-2,552
261,2	-2,381
261,7	-2,181
262,2	-3,21
262,6	-7,81
263,1	-7,181
263,6	-0,152
264	2,533
264,5	5,848
264,9	5,99
265,4	11,533
265,9	12,419
266,3	14,59
266,8	14,248
267,3	13,219
267,7	10,076
268,2	11,848
268,7	14,448
269,1	17,619
269,6	11,533
270	8,705
270,5	6,905
271	9,676
271,4	5,962
271,9	-3,638
272,4	-0,724
272,8	-0,724
273,3	-7,21
273,7	-2,81
274,2	-1,695
274,7	-5,467
275,1	0,533
275,6	2,59
276,1	1,79
276,5	12,362
277	10,762
277,4	6,99
277,9	11,59
278,4	13,562
278,8	9,705
279,3	16,59
279,8	11,59
280,2	13,505
280,7	16,848
281,1	13,876
281,6	7,962
282,1	9,305
282,5	2,048
283	-0,381
283,4	-2,61
283,9	-5,752
284,4	-2,752
284,8	-0,152
285,3	-5,495
285,8	0,419
286,2	-0,381
286,7	-1,124
287,1	-4,695
287,6	-5,867
288,1	-9,781
288,5	-4,352
289	-9,238
289,5	-4,981
289,9	-7,667
290,4	1,019
290,8	1,533
291,3	6,105
291,8	5,019
292,2	8,276
292,7	10,305
293,1	13,819
293,6	13,076
294,1	13,076
294,5	13,19
295	12,533
295,5	10,476
295,9	7,562
296,4	7,162
296,8	2,619
297,3	1,533
297,8	-3,324
298,2	-3,81
298,7	2,419
299,1	3,448
299,6	3,819
300,1	5,819
300,5	5,076
301	11,448
301,5	15,305
301,9	6,905
302,4	4,505
302,8	5,476
303,3	3,219
303,8	1,648
304,2	-3,238
304,7	-6,267
305,1	-5,352
305,6	-3,267
306,1	-0,952
306,5	3,876
307	10,133
307,4	14,305
307,9	13,419
308,4	12,276
308,8	7,248
309,3	5,048
309,8	1,533
310,2	-1,467
310,7	-6,124
311,1	-8,124
311,6	-5,238
312,1	0,019
312,5	-0,067
313	-1,438
313,4	-1,324
313,9	0,848
314,4	1,562
314,8	-1,181
315,3	-5,352
315,7	-7,524
316,2	-5,781
316,7	-4,181
317,1	-1,038
317,6	0,905
318	10,819
318,5	16,648
319	18,79
319,4	17,733
319,9	20,076
320,3	20,133
320,8	18,419
321,3	17,076
321,7	12,562
322,2	10,019
322,6	15,39
323,1	8,39
323,6	6,076
324	6,562
324,5	2,533
324,9	5,99
325,4	6,333
325,9	6,333
326,3	9,362
326,8	11,848
327,2	10,933
327,7	9,476
328,2	6,162
328,6	7,876
329,1	-0,867
329,5	-1,524
330	-5,067
330,5	-2,295
330,9	-0,552
331,4	-0,524
331,8	0,39
332,3	7,248
332,8	8,419
333,2	8,848
333,7	9,79
334,1	9,448
334,6	10,019
335,1	3,933
335,5	4,648
336	2,905
336,4	3,648
336,9	6,876
337,4	11,619
337,8	11,162
338,3	17,648
338,7	17,162
339,2	17,933
339,7	18,79
340,1	15,019
340,6	12,505
341	12,105
341,5	10,276
342	5,79
342,4	4,733
342,9	2,476
343,3	3,133
343,8	1,076
344,2	2,619
344,7	7,105
345,2	9,219
345,6	8,962
346,1	8,076
346,5	3,105
347	-0,352
347,5	-2,781
347,9	-1,581
348,4	0,162
348,8	2,676
349,3	11,762
349,8	14,476
350,2	24,848
350,7	27,648
351,1	29,505
351,6	30,99
352	38,762
352,5	37,476
353	52,019
353,4	54,905
353,9	71,676
354,3	78,105
354,8	92,076
355,3	107,505
355,7	132,362
356,2	151,648
356,6	183,19
357,1	211,762
357,5	254,162
358	302,562
358,5	351,619
358,9	407,39
359,4	471,076
359,8	541,505
360,3	624,79
360,8	710,905
361,2	810,305
361,7	921,476
362,1	1048,819
362,6	1181,676
363	1326,99
363,5	1474,076
364	1638,962
364,4	1801,905
364,9	1970,933
365,3	2134,533
365,8	2293,105
366,3	2437,305
366,7	2571,962
367,2	2691,019
367,6	2785,533
368,1	2864,933
368,5	2910,476
369	2931,79
369,5	2940,048
369,9	2922,619
370,4	2876,048
370,8	2817,505
371,3	2727,733
371,7	2628,762
372,2	2520,476
372,7	2395,848
373,1	2265,333
373,6	2132,533
374	2003,648
374,5	1875,848
374,9	1750,476
375,4	1633,105
375,9	1513,562
376,3	1400,619
376,8	1291,505
377,2	1187,905
377,7	1086,562
378,2	998,59
378,6	913,819
379,1	837,962
379,5	767,848
380	708,562
380,4	644,276
380,9	593,448
381,4	538,248
381,8	493,762
382,3	456,362
382,7	424,019
383,2	394,876
383,6	369,79
384,1	346,133
384,6	328,448
385	304,39
385,5	280,619
385,9	259,705
386,4	234,962
386,8	217,419
387,3	199,19
387,7	182,705
388,2	171,419
388,7	159,762
389,1	147,79
389,6	140,39
390	131,448
390,5	123,276
390,9	117,019
391,4	106,848
391,9	103,305
392,3	100,59
392,8	90,962
393,2	80,19
393,7	74,333
394,1	65,448
394,6	65,048
395,1	60,676
395,5	54,419
396	55,333
396,4	58,048
396,9	58,59
397,3	63,076
397,8	60,733
398,2	58,19
398,7	57,362
399,2	54,305
399,6	52,39
400,1	50,762
400,5	41,162
401	40,276
401,4	35,448
401,9	37,39
402,4	37,019
402,8	33,562
403,3	34,762
403,7	35,219
404,2	34,619
404,6	39,105
405,1	32,219
405,5	31,305
406	32,619
406,5	25,819
406,9	30,019
407,4	28,533
407,8	25,619
408,3	29,248
408,7	27,79
409,2	30,105
409,6	37,676
410,1	36,876
410,6	41,248
411	42,99
411,5	45,076
411,9	52,419
412,4	51,876
412,8	53,99
413,3	54,562
413,7	53,933
414,2	53,162
414,7	56,99
415,1	59,905
415,6	62,648
416	63,819
416,5	66,648
416,9	62,59
417,4	66,019
417,8	72,562
418,3	70,962
418,8	75,219
419,2	75,276
419,7	75,362
420,1	84,276
420,6	91,105
421	83,276
421,5	83,019
421,9	80,848
422,4	80,076
422,8	80,905
423,3	78,733
423,8	70,819
424,2	71,419
424,7	70,99
425,1	74,362
425,6	74,676
426	74,762
426,5	77,533
426,9	85,276
427,4	84,533
427,9	78,905
428,3	75,962
428,8	73,219
429,2	69,505
429,7	62,19
430,1	54,505
430,6	54,39
431	55,705
431,5	53,419
431,9	49,362
432,4	50,933
432,8	53,848
433,3	54,79
433,8	53,762
434,2	56,048
434,7	62,733
435,1	66,705
435,6	68,762
436	67,99
436,5	72,362
436,9	72,333
437,4	69,248
437,8	66,362
438,3	67,876
438,8	68,476
439,2	68,819
439,7	69,39
440,1	72,476
440,6	84,676
441	79,99
441,5	84,819
441,9	89,019
442,4	90,933
442,8	91,79
443,3	95,533
443,7	94,762
444,2	98,533
444,7	97,819
445,1	98,362
445,6	99,476
446	102,505
446,5	100,162
446,9	96,505
447,4	101,076
447,8	105,362
448,3	113,705
448,7	120,762
449,2	127,076
449,6	134,133
450,1	137,676
450,6	146,362
451	151,019
451,5	151,676
451,9	153,933
452,4	158,876
452,8	162,705
453,3	175,019
453,7	174,59
454,2	176,39
454,6	181,476
455,1	188,59
455,5	192,59
456	205,933
456,4	207,848
456,9	215,448
457,3	223,219
457,8	225,533
458,3	234,562
458,7	237,162
459,2	232,648
459,6	237,905
460,1	247,933
460,5	251,305
461	259,505
461,4	259,048
461,9	264,876
462,3	276,019
462,8	284,133
463,2	286,562
463,7	296,619
464,1	309,562
464,6	326,619
465	335,59
465,5	343,905
466	353,676
466,4	359,79
466,9	370,276
467,3	375,419
467,8	376,362
468,2	383,448
468,7	391,19
469,1	400,219
469,6	411,648
470	417,562
470,5	423,19
470,9	431,362
471,4	436,419
471,8	439,99
472,3	447,305
472,7	455,219
473,2	458,248
473,6	462,733
474,1	473,619
474,5	484,048
475	493,276
475,4	497,562
475,9	503,762
476,4	516,505
476,8	524,448
477,3	525,276
477,7	532,448
478,2	540,133
478,6	540,362
479,1	544,248
479,5	544,59
480	550,076
480,4	563,79
480,9	562,962
481,3	567,162
481,8	574,648
482,2	575,276
482,7	580,733
483,1	580,162
483,6	579,019
484	583,962
484,5	589,648
484,9	592,648
485,4	599,733
485,8	604,448
486,3	610,476
486,7	611,619
487,2	615,505
487,6	612,333
488,1	613,848
488,5	611,705
489	614,733
489,4	619,59
489,9	616,79
490,4	620,048
490,8	622,048
491,3	624,333
491,7	622,848
492,2	620,019
492,6	618,39
493,1	623,276
493,5	620,362
494	616,476
494,4	616,505
494,9	613,362
495,3	607,476
495,8	602,848
496,2	596,819
496,7	589,733
497,1	593,905
497,6	588,819
498	591,505
498,5	594,876
498,9	591,962
499,4	591,048
499,8	595,733
500,3	588,933
500,7	580,562
501,2	575,39
501,6	563,933
502,1	560,59
502,5	556,362
503	549,905
503,4	542,619
503,9	543,248
504,3	538,19
504,8	540,048
505,2	537,048
505,7	532,019
506,1	528,562
506,6	521,533
507	516,933
507,5	518,819
507,9	515,162
508,4	510,676
508,8	506,59
509,3	496,648
509,7	497,362
510,2	493,676
510,6	481,905
511,1	471,762
511,5	466,99
512	457,876
512,4	457,79
512,9	449,333
513,3	445,533
513,8	441,819
514,2	439,676
514,7	432,133
515,1	431,648
515,6	425,648
516	423,219
516,5	420,19
516,9	416,362
517,4	412,505
517,8	410,876
518,3	404,79
518,7	396,533
519,2	393,419
519,6	382,762
520,1	380,305
520,5	373,733
521	366,248
521,4	359,219
521,9	356,076
522,3	350,733
522,8	347,276
523,2	341,819
523,7	335,99
524,1	333,333
524,6	328,133
525	322,99
525,5	315,19
525,9	314,248
526,4	307,905
526,8	303,333
527,3	298,076
527,7	298,705
528,2	297,248
528,6	292,162
529,1	288,933
529,5	285,962
530	283,762
530,4	284,305
530,9	283,048
531,3	281,048
531,8	278,533
532,2	268,762
532,6	264,133
533,1	261,59
533,5	250,562
534	241,133
534,4	237,619
534,9	233,99
535,3	231,876
535,8	224,133
536,2	224,39
536,7	227,562
537,1	228,448
537,6	222,362
538	221,848
538,5	222,59
538,9	221,476
539,4	216,333
539,8	211,419
540,3	205,648
540,7	203,362
541,2	200,448
541,6	198,848
542,1	203,419
542,5	202,219
543	197,048
543,4	195,648
543,9	197,162
544,3	197,448
544,8	194,705
545,2	189,819
545,7	189,676
546,1	191,962
546,5	193,705
547	189,133
547,4	187,59
547,9	181,648
548,3	182,048
548,8	176,99
549,2	174,019
549,7	170,305
550,1	171,705
550,6	171,562
551	171,733
551,5	165,219
551,9	165,276
552,4	166,019
552,8	161,019
553,3	154,648
553,7	149,876
554,2	153,105
554,6	152,476
555,1	153,562
555,5	147,962
555,9	152,476
556,4	154,105
556,8	149,162
557,3	145,876
557,7	149,076
558,2	143,105
558,6	143,762
559,1	139,248
559,5	135,39
560	138,105
560,4	137,79
560,9	134,476
561,3	131,505
561,8	127,562
562,2	130,305
562,7	132,019
563,1	135,733
563,6	129,133
564	127,648
564,4	129,39
564,9	131,305
565,3	128,162
565,8	123,019
566,2	119,048
566,7	125,276
567,1	125,733
567,6	124,448
568	123,39
568,5	125,076
568,9	127,362
569,4	125,333
569,8	123,905
570,3	122,133
570,7	119,448
571,1	118,248
571,6	114,648
572	116,362
572,5	113,733
572,9	107,933
573,4	108,162
573,8	110,105
574,3	104,448
574,7	106,59
575,2	103,905
575,6	104,848
576,1	106,19
576,5	109,133
576,9	108,619
577,4	112,562
577,8	106,448
578,3	104,533
578,7	105,048
579,2	108,105
579,6	98,219
580,1	95,705
580,5	98,733
581	102,79
581,4	103,248
581,9	102,048
582,3	99,105
582,7	108,162
583,2	104,59
583,6	102,362
584,1	100,848
584,5	101,448
585	105,048
585,4	100,448
585,9	91,248
586,3	99,476
586,8	98,905
587,2	93,733
587,6	98,648
588,1	99,448
588,5	99,99
589	109,533
589,4	105,933
589,9	104,133
590,3	105,448
590,8	99,133
591,2	95,162
591,7	100,562
592,1	97,076
592,5	101,448
593	101,59
593,4	102,476
593,9	98,933
594,3	97,19
594,8	90,933
595,2	88,59
595,7	81,876
596,1	81,162
596,6	83,933
597	85,733
597,4	88,733
597,9	92,448
598,3	96,19
598,8	93,619
599,2	96,419
599,7	91,819
600,1	90,39
600,6	83,333
601	82,619
601,4	82,162
601,9	86,762
602,3	83,419
602,8	86,19
603,2	87,733
603,7	87,648
604,1	84,876
604,6	78,848
605	73,505
605,4	74,276
605,9	71,705
606,3	68,048
606,8	68,105
607,2	67,105
607,7	67,619
608,1	72,362
608,6	74,59
609	78,448
609,4	82,048
609,9	82,276
610,3	80,962
610,8	79,248
611,2	78,619
611,7	75,505
612,1	70,79
612,6	71,79
613	76,219
613,4	78,676
613,9	75,962
614,3	71,19
614,8	69,162
615,2	69,562
615,7	67,076
616,1	67,619
616,6	65,819
617	68,048
617,4	71,676
617,9	75,219
618,3	76,219
618,8	80,648
619,2	75,676
619,7	79,962
620,1	80,876
620,5	83,962
621	82,39
621,4	82,99
621,9	77,076
622,3	83,019
622,8	80,076
623,2	78,876
623,6	73,19
624,1	73,905
624,5	71,219
625	76,676
625,4	73,105
625,9	73,39
626,3	73,762
626,8	70,962
627,2	73,79
627,6	69,419
628,1	63,876
628,5	63,448
629	55,476
629,4	56,562
629,9	58,848
630,3	48,99
630,7	48,676
631,2	51,019
631,6	46,19
632,1	54,133
632,5	52,905
633	54,619
633,4	57,876
633,8	59,905
634,3	59,848
634,7	63,876
635,2	55,905
635,6	55,876
636,1	54,705
636,5	50,733
636,9	47,79
637,4	48,048
637,8	42,533
638,3	44,648
638,7	39,933
639,2	35,162
639,6	38,933
640	38,505
640,5	34,905
640,9	36,562
641,4	37,819
641,8	43,876
642,2	48,448
642,7	53,105
643,1	60,562
643,6	58,962
644	62,048
644,5	65,676
644,9	63,59
645,3	65,019
645,8	58,933
646,2	55,476
646,7	56,676
647,1	55,848
647,6	55,705
648	58,419
648,4	52,19
648,9	56,019
649,3	56,219
649,8	59,79
650,2	56,533
650,6	55,162
651,1	50,962
651,5	54,648
652	51,219
652,4	45,905
652,9	43,733
653,3	46,762
653,7	43,533
654,2	48,105
654,6	45,762
655,1	48,419
655,5	57,362
655,9	57,762
656,4	59,648
656,8	62,533
657,3	59,819
657,7	62,39
658,2	59,99
658,6	55,19
659	53,733
659,5	46,933
659,9	44,876
660,4	42,676
660,8	38,419
661,2	36,276
661,7	37,39
662,1	36,99
662,6	37,962
663	38,476
663,4	35,933
663,9	40,676
664,3	40,562
664,8	37,962
665,2	38,219
665,6	37,276
666,1	35,39
666,5	36,333
667	33,848
667,4	35,533
667,9	38,505
668,3	34,448
668,7	34,819
669,2	40,648
669,6	45,048
670,1	48,019
670,5	46,59
670,9	45,448
671,4	48,333
671,8	52,448
672,3	51,219
672,7	53,648
673,1	48,248
673,6	44,876
674	46,819
674,5	43,19
674,9	36,99
675,3	34,048
675,8	30,905
676,2	35,59
676,7	39,648
677,1	37,876
677,5	40,819
678	42,305
678,4	44,362
678,9	40,162
679,3	36,962
679,7	34,933
680,2	33,419
680,6	33,59
681,1	34,162
681,5	32,933
681,9	38,705
682,4	39,79
682,8	40,819
683,3	45,99
683,7	48,533
684,1	50,819
684,6	49,276
685	42,79
685,5	41,219
685,9	40,905
686,3	33,79
686,8	34,705
687,2	33,933
687,7	32,162
688,1	33,448
688,5	34,905
689	37,762
689,4	39,676
689,9	35,362
690,3	30,476
690,7	33,962
691,2	40,333
691,6	39,105
692	36,019
692,5	36,276
692,9	37,648
693,4	39,105
693,8	38,219
694,2	34,676
694,7	35,762
695,1	32,905
695,6	32,905
696	34,59
696,4	35,59
696,9	29,733
697,3	26,248
697,8	23,248
698,2	23,076
698,6	24,762
699,1	23,362
699,5	25,305
699,9	30,39
700,4	28,105
700,8	30,133
701,3	33,105
701,7	29,733
702,1	26,419
702,6	24,79
703	26,105
703,5	27,362
703,9	25,962
704,3	24,848
704,8	23,819
705,2	23,448
705,6	24,819
706,1	20,476
706,5	21,733
707	27,448
707,4	31,676
707,8	29,476
708,3	32,705
708,7	32,219
709,2	33,79
709,6	31,848
710	28,933
710,5	26,305
710,9	29,79
711,3	27,019
711,8	28,305
712,2	29,362
712,7	29,79
713,1	27,848
713,5	27,619
714	27,419
714,4	27,362
714,8	27,705
715,3	25,533
715,7	26,276
716,2	21,848
716,6	24,648
717	22,562
717,5	21,219
717,9	22,448
718,3	22,99
718,8	25,648
719,2	29,219
719,7	27,362
720,1	34,048
720,5	42,962
721	38,39
721,4	39,105
721,8	41,733
722,3	40,819
722,7	41,962
723,2	31,648
723,6	22,019
724	20,59
724,5	16,933
724,9	10,362
725,3	8,105
725,8	6,248
726,2	7,476
726,7	6,962
727,1	10,219
727,5	13,905
728	18,105
728,4	20,133
728,8	16,733
729,3	21,362
729,7	22,048
730,1	20,276
730,6	22,219
731	17,19
731,5	18,276
731,9	19,676
732,3	19,819
732,8	22,79
733,2	22,762
733,6	17,019
734,1	21,419
734,5	19,448
734,9	23,905
735,4	23,79
735,8	17,648
736,3	22,676
736,7	24,39
737,1	22,162
737,6	22,476
738	19,905
738,4	17,219
738,9	21,162
739,3	16,848
739,7	19,505
740,2	16,39
740,6	21,248
741,1	22,59
741,5	20,848
741,9	21,733
742,4	28,476
742,8	27,076
743,2	28,048
743,7	22,305
744,1	18,676
744,5	19,562
745	18,305
745,4	8,562
745,8	8,99
746,3	9,876
746,7	13,362
747,2	14,505
747,6	20,99
748	25,219
748,5	29,419
748,9	30,19
749,3	31,619
749,8	29,39
750,2	29,076
750,6	22,219
751,1	19,99
751,5	16,162
751,9	18,505
752,4	18,362
752,8	17,79
753,3	18,448
753,7	23,476
754,1	20,533
754,6	21,248
755	14,762
755,4	12,962
755,9	12,848
756,3	10,533
756,7	8,933
757,2	11,562
757,6	14,048
758	18,705
758,5	20,476
758,9	20,848
759,3	24,905
759,8	21,105
760,2	25,076
760,6	23,305
761,1	21,762
761,5	20,876
761,9	21,533
762,4	17,533
762,8	14,876
763,3	8,333
763,7	10,733
764,1	11,848
764,6	13,733
765	16,276
765,4	18,333
765,9	25,59
766,3	29,333
766,7	24,619
767,2	24,99
767,6	24,076
768	21,333
768,5	21,105
768,9	16,19
769,3	10,933
769,8	13,533
770,2	13,219
770,6	11,99
771,1	14,019
771,5	7,705
771,9	9,39
772,4	15,876
772,8	12,362
773,2	11,905
773,7	9,448
774,1	6,876
774,5	8,99
775	8,019
775,4	8,59
775,8	10,162
776,3	9,476
776,7	11,648
777,1	13,019
777,6	16,962
778	23,562
778,4	17,162
778,9	20,248
779,3	17,99
779,7	19,162
780,2	16,562
780,6	14,705
781	8,076
781,5	4,419
781,9	3,276
782,3	4,533
782,8	7,333
783,2	7,676
783,6	10,99
784,1	14,362
784,5	20,076
784,9	19,39
785,4	18,648
785,8	16,733
786,2	15,648
786,7	12,762
787,1	9,048
787,5	8,59
788	10,676
788,4	10,219
788,8	6,076
789,3	6,562
789,7	6,848
790,1	8,848
790,6	13,219
791	8,59
791,4	11,476
791,9	10,762
792,3	8,076
792,7	12,933
793,2	10,962
793,6	6,819
794	11,162
794,5	8,676
794,9	12,848
795,3	18,305
795,8	12,476
796,2	18,362
796,6	21,619
797,1	19,962
797,5	16,505
797,9	12,99
798,4	8,648
798,8	8,876
799,2	6,162
799,7	5,905
800,1	6,276
800,5	7,705
801	13,505
801,4	12,39
801,8	10,59
802,2	11,79
802,7	7,048
803,1	10,79
803,5	14,476
804	11,19
804,4	16,419
804,8	18,419
805,3	16,19
805,7	19,905
806,1	16,79
806,6	16,419
807	17,733
807,4	15,905
807,9	12,105
808,3	11,219
808,7	10,333
809,2	9,676
809,6	9,219
810	10,105
810,4	11,048
810,9	14,448
811,3	13,648
811,7	13,076
812,2	16,476
812,6	15,819
813	17,305
813,5	16,133
813,9	16,333
814,3	20,133
814,8	17,676
815,2	13,876
815,6	12,59
816,1	9,219
816,5	10,705
816,9	14,019
817,3	14,362
817,8	25,39
818,2	28,648
818,6	27,762
819,1	27,819
819,5	27,619
819,9	24,105
820,4	21,333
820,8	13,562
821,2	4,219
821,7	5,448
822,1	10,99
822,5	11,248
822,9	14,762
823,4	15,876
823,8	19,362
824,2	28,362
824,7	25,648
825,1	17,762
825,5	16,933
826	12,219
826,4	11,276
826,8	6,162
827,3	6,79
827,7	7,59
828,1	13,876
828,5	15,533
829	15,419
829,4	13,505
829,8	12,105
830,3	7,333
830,7	6,105
831,1	1,962
831,6	-0,81
832	2,19
832,4	2,476
832,8	6,19
833,3	7,048
833,7	8,105
834,1	8,39
834,6	8,305
835	5,876
835,4	9,39
835,8	3,648
836,3	2,076
836,7	4,848
837,1	4,162
837,6	2,848
838	5,019
838,4	4,476
838,9	6,562
839,3	5,333
839,7	4,076
840,1	0,019
840,6	1,219
841	1,19
841,4	0,248
841,9	2,133
842,3	2,448
842,7	3,705
843,1	5,905
843,6	6,962
844	6,733
844,4	9,219
844,9	11,133
845,3	13,99
845,7	10,59
846,2	8,562
846,6	5,99
847	5,733
847,4	2,59
847,9	3,79
848,3	3,333
848,7	8,076
849,2	13,248
849,6	13,59
850	15,933
850,4	14,219
850,9	11,276
851,3	12,162
851,7	13,133
852,2	10,219
852,6	13,076
853	9,048
853,4	8,648
853,9	7,648
854,3	7,676
854,7	6,133
855,2	6,819
855,6	4,276
856	5,133
856,4	3,476
856,9	2,448
857,3	4,39
857,7	4,39
858,2	12,076
858,6	14,762
859	19,962
859,4	19,705
859,9	21,39
860,3	14,562
860,7	13,962
861,1	8,79
861,6	6,276
862	3,19
862,4	3,762
862,9	2,048
863,3	2,419
863,7	0,99
864,1	-0,067
864,6	-3,867
865	-4,638
865,4	0,733
865,9	4,476
866,3	5,762
866,7	5,476
867,1	0,59
867,6	6,905
868	5,99
868,4	3,362
868,8	3,476
869,3	3,79
869,7	9,819
870,1	9,933
870,6	5,79
871	-47,352
871,4	-41,781
871,8	-45,295
872,3	-40,781
872,7	-44,181
873,1	-37,924
873,5	-31,81
874	18,39
874,4	13,848
874,8	11,762
875,3	9,619
875,7	7,162
876,1	8,562
876,5	5,419
877	6,162
877,4	5,79
877,8	11,076
878,2	14,362
878,7	18,648
879,1	13,019
879,5	13,248
879,9	15,219
880,4	12,648
880,8	10,048
881,2	6,019
881,7	2,819
882,1	6,276
882,5	3,848
882,9	3,933
883,4	4,933
883,8	3,505
884,2	5,933
884,6	2,676
885,1	2,105
885,5	3,048
885,9	5,533
886,3	7,905
886,8	7,819
887,2	1,133
887,6	3,133
888	2,019
888,5	4,962
888,9	3,305
889,3	-0,867
889,8	-0,524
890,2	4,276
890,6	-1,41
891	-2,267
891,5	-4,124
891,9	-6,924
892,3	-3,781
892,7	0,019
893,2	0,505
893,6	9,19
894	12,305
894,4	11,819
894,9	13,105
895,3	9,905
895,7	6,219
896,1	5,79
896,6	4,676
897	2,333
897,4	7,648
897,8	12,476
898,3	13,476
898,7	10,933
899,1	10,219
899,5	7,848
900	3,076
900,4	0,533
900,8	-5,181
901,2	-5,81
901,7	-6,581
902,1	-2,724
902,5	-1,352
902,9	-0,295
903,4	-1,667
903,8	-1,41
904,2	0,676
904,6	4,705
905,1	2,648
905,5	6,162
905,9	12,476
906,3	14,905
906,8	17,333
907,2	17,105
907,6	21,476
908	21,819
908,5	16,676
908,9	12,505
909,3	7,362
909,7	8,505
910,2	6,39
910,6	6,076
911	-0,01
911,4	3,105
911,9	1,59
912,3	5,162
912,7	5,19
913,1	11,562
913,6	7,419
914	13,99
914,4	8,39
914,8	12,619
915,3	7,933
915,7	6,448
916,1	0,933
916,5	3,419
916,9	1,905
917,4	3,362
917,8	1,533
918,2	2,905
918,6	0,19
919,1	1,79
919,5	1,248
919,9	-2,152
920,3	0,79
920,8	1,619
921,2	1,048
921,6	-0,981
922	-2,095
922,5	-1,038
922,9	0,648
923,3	-2,352
923,7	-0,552
924,2	-0,667
924,6	4,305
925	8,933
925,4	5,076
925,8	4,962
926,3	8,648
926,7	4,362
927,1	5,79
927,5	7,048
928	3,333
928,4	1,962
928,8	2,762
929,2	0,162
929,7	4,162
930,1	5,048
930,5	2,162
930,9	2,048
931,3	1,362
931,8	3,933
932,2	8,79
932,6	7,905
933	2,79
933,5	5,705
933,9	9,705
934,3	14,133
934,7	11,762
935,2	9,248
935,6	12,876
936	22,105
936,4	17,876
936,8	20,076
937,3	17,562
937,7	18,048
938,1	24,019
938,5	16,619
939	11,448
939,4	14,305
939,8	9,276
940,2	8,648
940,6	7,39
941,1	-2,01
941,5	3,876
941,9	3,99
942,3	2,162
942,8	2,048
943,2	3,648
943,6	1,619
944	4,79
944,4	2,076
944,9	-0,552
945,3	0,333
945,7	-3,724
946,1	-4,238
946,6	-4,295
947	-6,152
947,4	-4,438
947,8	-1,038
948,2	-2,752
948,7	1,105
949,1	2,705
949,5	9,876
949,9	14,59
950,3	14,962
950,8	12,933
951,2	14,933
951,6	14,962
952	14,99
952,5	9,105
952,9	8,676
953,3	5,99
953,7	4,676
954,1	5,219
954,6	5,819
955	6,619
955,4	8,59
955,8	7,619
956,2	8,419
956,7	12,048
957,1	8,99
957,5	13,19
957,9	10,619
958,3	8,819
958,8	9,59
959,2	14,848
959,6	18,905
960	22,819
960,5	22,19
960,9	27,19
961,3	26,59
961,7	21,705
962,1	14,562
962,6	13,448
963	11,848
963,4	8,133
963,8	6,019
964,2	7,533
964,7	9,505
965,1	11,333
965,5	4,39
965,9	2,133
966,3	2,619
966,8	0,162
967,2	1,733
967,6	1,448
968	2,362
968,4	7,219
968,9	8,676
969,3	11,276
969,7	9,105
970,1	6,705
970,5	6,876
971	7,562
971,4	6,505
971,8	8,362
972,2	6,448
972,6	6,819
973,1	7,162
973,5	8,105
973,9	7,79
974,3	5,59
974,7	5,733
975,2	5,99
975,6	9,448
976	11,59
976,4	11,219
976,8	11,076
977,3	11,819
977,7	11,048
978,1	7,648
978,5	3,248
978,9	-1,238
979,4	-2,495
979,8	-4,038
980,2	-1,038
980,6	-4,895
981	0,219
981,5	3,048
981,9	4,362
982,3	6,133
982,7	5,905
983,1	0,505
983,6	1,076
984	-3,781
984,4	-1,41
984,8	0,733
985,2	-1,638
985,6	-3,238
986,1	2,533
986,5	5,133
986,9	1,048
987,3	3,276
987,7	3,619
988,2	4,476
988,6	7,133
989	4,019
989,4	6,048
989,8	9,876
990,3	3,819
990,7	-0,21
991,1	-1,295
991,5	-0,581
991,9	4,019
992,3	5,162
992,8	8,076
993,2	11,19
993,6	15,105
994	19,476
994,4	20,733
994,9	16,162
995,3	13,019
995,7	12,019
996,1	9,648
996,5	10,39
996,9	6,562
997,4	5,676
997,8	5,733
998,2	3,333
998,6	-3,352
999	-6,238
999,5	-9,438
999,9	-6,781
1000,3	-10,41
1000,7	-9,695
1001,1	-10,267
1001,5	-2,724
1002	6,248
1002,4	7,276
1002,8	7,076
1003,2	11,676
1003,6	15,933
1004	18,933
1004,5	12,819
1004,9	10,276
1005,3	8,505
1005,7	6,076
1006,1	0,219
1006,6	-2,895
1007	-3,352
1007,4	-0,152
1007,8	-1,324
1008,2	2,533
1008,6	4,476
1009,1	8,105
1009,5	8,333
1009,9	9,248
1010,3	10,333
1010,7	11,933
1011,1	12,562
1011,6	13,848
1012	18,133
1012,4	16,505
1012,8	15,933
1013,2	18,476
1013,6	17,276
1014,1	16,076
1014,5	14,162
1014,9	9,848
1015,3	9,562
1015,7	11,819
1016,1	8,333
1016,6	7,162
1017	9,905
1017,4	10,676
1017,8	7,505
1018,2	8,533
1018,6	1,505
1019,1	1,305
1019,5	0,076
1019,9	-3,438
1020,3	-3,324
1020,7	4,048
1021,1	0,133
1021,6	2,019
1022	7,448
1022,4	5,276
1022,8	5,648
1023,2	6,648
1023,6	3,105
1024,1	10,305
1024,5	12,162
1024,9	5,762
1025,3	12,219
1025,7	13,648
1026,1	12,448
1026,6	16,248
1027	16,819
1027,4	23,533
1027,8	26,333
1028,2	23,133
1028,6	25,19
1029	24,533
1029,5	24,19
1029,9	18,476
1030,3	10,905
1030,7	12,076
1031,1	13,848
1031,5	5,819
1032	5,676
1032,4	3,19
1032,8	5,59
1033,2	8,876
1033,6	5,419
1034	3,59
1034,4	4,362
1034,9	9,39
1035,3	6,019
1035,7	7,419
1036,1	5,59
1036,5	5,105
1036,9	7,876
1037,4	17,59
1037,8	12,533
1038,2	13,848
1038,6	13,619
1039	18,533
1039,4	23,705
1039,8	18,533
1040,3	14,19
1040,7	14,59
1041,1	14,876
1041,5	16,333
1041,9	14,19
1042,3	13,505
1042,7	17,019
1043,2	13,533
1043,6	8,448
1044	7,048
1044,4	5,019
1044,8	0,99
1045,2	-2,838
1045,6	-0,467
1046,1	4,133
1046,5	4,248
1046,9	6,362
1047,3	5,305
1047,7	5,419
1048,1	5,019
1048,5	3,219
1049	5,333
1049,4	14,305
1049,8	14,333
1050,2	16,962
1050,6	25,619
1051	30,676
1051,4	24,619
1051,9	18,476
1052,3	16,933
1052,7	16,19
1053,1	11,248
1053,5	5,676
1053,9	5,562
1054,3	7,676
1054,8	9,476
1055,2	9,448
1055,6	13,762
1056	13,276
1056,4	9,333
1056,8	9,333
1057,2	10,648
1057,6	11,648
1058,1	7,133
1058,5	2,619
1058,9	7,448
1059,3	14,019
1059,7	10,819
1060,1	12,162
1060,5	8,619
1061	9,848
1061,4	6,848
1061,8	6,762
1062,2	1,476
1062,6	5,476
1063	6,305
1063,4	4,648
1063,8	5,762
1064,3	3,733
1064,7	7,048
1065,1	7,59
1065,5	4,362
1065,9	1,419
1066,3	4,39
1066,7	3,79
1067,1	3,419
1067,6	-0,467
1068	-1,524
1068,4	-4,81
1068,8	0,39
1069,2	2,99
1069,6	1,276
1070	7,562
1070,4	4,59
1070,9	4,162
1071,3	5,733
1071,7	-0,124
1072,1	-2,181
1072,5	-0,41
1072,9	-1,095
1073,3	0,476
1073,7	3,219
1074,2	2,362
1074,6	6,276
1075	5,962
1075,4	4,933
1075,8	4,39
1076,2	4,19
1076,6	7,076
1077	9,305
1077,5	8,048
1077,9	7,105
1078,3	3,848
1078,7	1,533
1079,1	1,99
1079,5	-1,838
1079,9	-0,781
1080,3	-0,752
1080,7	-2,038
1081,2	4,562
1081,6	9,933
1082	7,276
1082,4	12,505
1082,8	10,105
1083,2	8,505
1083,6	11,476
1084	8,762
1084,5	5,99
1084,9	7,39
1085,3	0,105
1085,7	1,676
1086,1	3,79
1086,5	5,79
1086,9	10,733
1087,3	7,876
1087,7	7,962
1088,2	10,99
1088,6	4,248
1089	3,476
1089,4	-0,638
1089,8	-6,695
1090,2	-4,095
1090,6	-3,981
1091	-0,438
1091,4	10,105
1091,9	9,905
1092,3	13,048
1092,7	11,676
1093,1	10,648
1093,5	10,476
1093,9	7,219
1094,3	3,59
1094,7	0,905
1095,1	1,076
1095,5	3,19
1096	3,876
1096,4	3,676
1096,8	-1,438
1097,2	-0,267
1097,6	6,962
1098	4,848
1098,4	7,133
1098,8	5,762
1099,2	10,419
1099,6	13,676
1100,1	9,876
1100,5	5,648
1100,9	6,048
1101,3	4,219
1101,7	5,476
1102,1	1,333
1102,5	3,162
1102,9	6,99
1103,3	10,448
1103,7	11,99
1104,2	9,048
1104,6	10,619
1105	7,848
1105,4	5,79
1105,8	2,648
1106,2	-1,524
1106,6	-3,895
1107	-1,495
1107,4	-3,633
1107,8	-0,907
1108,3	-0,617
