Data from Subt2_081.txt Node
Date: Sat Aug 26 16:40:09 MSK 2023
User: vat
Spectrometer: MAYP114033
Trigger mode: 0
Integration Time (sec): 1,000000E0
Scans to average: 5
Electric dark correction enabled: true
Nonlinearity correction enabled: false
Boxcar width: 3
XAxis mode: Wavelengths
Number of Pixels in Spectrum: 2068
>>>>>Begin Spectral Data<<<<<
199,4	-0,05
199,9	-2,28
200,4	-4,1
200,8	-3
201,3	-0,857
201,8	1,714
202,2	2,8
202,7	4,314
203,2	6,143
203,6	10,686
204,1	11
204,6	12,686
205	12,286
205,5	10,4
206	11,171
206,4	12,971
206,9	10,371
207,4	11,143
207,8	5,286
208,3	3,2
208,8	6,743
209,2	8,371
209,7	8,457
210,2	11,629
210,6	12,514
211,1	16,886
211,5	19,371
212	13,171
212,5	9,257
212,9	9,2
213,4	10,257
213,9	7,8
214,3	9,571
214,8	5,714
215,3	8,486
215,7	8,8
216,2	11,257
216,7	3,629
217,1	2,6
217,6	-1
218,1	2,8
218,5	6,229
219	13,4
219,5	9,257
219,9	12,971
220,4	19,6
220,9	19,629
221,3	16,743
221,8	12,8
222,3	6,657
222,7	8,314
223,2	7,6
223,6	2,886
224,1	7,6
224,6	9,314
225	8,543
225,5	14,943
226	11,057
226,4	17,457
226,9	16,229
227,4	16,486
227,8	14,886
228,3	18,657
228,8	11,486
229,2	14,857
229,7	8,771
230,2	14,886
230,6	10,714
231,1	14,8
231,5	18,171
232	23,8
232,5	22,886
232,9	23,914
233,4	21,057
233,9	23,229
234,3	20,771
234,8	16,286
235,3	12,057
235,7	15,486
236,2	13,714
236,7	16,029
237,1	15,2
237,6	11,314
238,1	10,2
238,5	9,543
239	8,114
239,4	10,229
239,9	7,114
240,4	5,714
240,8	10,6
241,3	10,343
241,8	8,371
242,2	6,171
242,7	6,371
243,2	7,029
243,6	9,171
244,1	8,086
244,6	8,314
245	10,629
245,5	12,057
245,9	10,714
246,4	5,914
246,9	3,886
247,3	0,371
247,8	1,686
248,3	6,857
248,7	13,057
249,2	9,486
249,7	12,171
250,1	9,857
250,6	16,029
251	16,143
251,5	8,171
252	4,8
252,4	9
252,9	10,6
253,4	13
253,8	6,029
254,3	3,857
254,8	5,543
255,2	1,543
255,7	2,143
256,1	0,943
256,6	3,771
257,1	12,314
257,5	16,857
258	17,143
258,5	18,086
258,9	20
259,4	23,143
259,9	23,571
260,3	20,486
260,8	20,686
261,2	23,629
261,7	22,486
262,2	17,686
262,6	13,114
263,1	5,657
263,6	5,343
264	2,143
264,5	1,771
264,9	1,114
265,4	10,229
265,9	14,6
266,3	17,743
266,8	15,114
267,3	19,2
267,7	17,686
268,2	23,029
268,7	16,514
269,1	12,429
269,6	16,971
270	22,914
270,5	22,514
271	21,171
271,4	13,543
271,9	13,657
272,4	16,057
272,8	7,2
273,3	0,114
273,7	-2,686
274,2	-5,371
274,7	-1,4
275,1	-4,629
275,6	-6,571
276,1	3,743
276,5	9,829
277	7,2
277,4	11,114
277,9	8,743
278,4	12,829
278,8	19,143
279,3	12,914
279,8	11,6
280,2	16,029
280,7	16,229
281,1	19,114
281,6	20
282,1	16,629
282,5	18,943
283	13,057
283,4	9,686
283,9	6,029
284,4	6,771
284,8	4
285,3	-0,629
285,8	-2,429
286,2	0,6
286,7	0,057
287,1	2,743
287,6	5,4
288,1	7,229
288,5	11,771
289	12,171
289,5	9,086
289,9	8
290,4	8,057
290,8	7,686
291,3	8,371
291,8	3,371
292,2	5,886
292,7	10,714
293,1	12,629
293,6	14,686
294,1	8,914
294,5	11,714
295	13,486
295,5	13,771
295,9	17,457
296,4	15,086
296,8	12,171
297,3	14,886
297,8	12,6
298,2	13,457
298,7	11,2
299,1	9
299,6	15,543
300,1	18,514
300,5	20,086
301	20,286
301,5	25,371
301,9	24,343
302,4	25,4
302,8	20,829
303,3	19,543
303,8	17,429
304,2	14,143
304,7	8,4
305,1	7,171
305,6	2,714
306,1	4,971
306,5	6,4
307	7,229
307,4	7,886
307,9	8,257
308,4	13,943
308,8	18,086
309,3	16,314
309,8	17
310,2	17,771
310,7	21,371
311,1	21,114
311,6	17,229
312,1	18,857
312,5	18,286
313	13,514
313,4	12,6
313,9	12,829
314,4	14,229
314,8	16,571
315,3	14,486
315,7	17,8
316,2	20,829
316,7	21,057
317,1	17,914
317,6	18,086
318	17,143
318,5	16,543
319	13
319,4	11,429
319,9	13,2
320,3	17,4
320,8	14,371
321,3	15
321,7	13,829
322,2	13,2
322,6	12,229
323,1	6,829
323,6	3,514
324	4,314
324,5	2,571
324,9	4
325,4	7,314
325,9	13,2
326,3	17,8
326,8	19,2
327,2	19,286
327,7	18,686
328,2	18,857
328,6	18,857
329,1	13,943
329,5	13,971
330	12,114
330,5	11,657
330,9	15,371
331,4	11,857
331,8	17,514
332,3	23,543
332,8	21,171
333,2	19,029
333,7	21,771
334,1	17,543
334,6	23,457
335,1	16,771
335,5	13
336	9,686
336,4	9,657
336,9	13,629
337,4	17,6
337,8	12,571
338,3	14,629
338,7	15,057
339,2	23,029
339,7	23,571
340,1	20,286
340,6	14,857
341	20,143
341,5	21,486
342	19,543
342,4	15,2
342,9	16,943
343,3	16,943
343,8	21,657
344,2	20,343
344,7	20,2
345,2	19,057
345,6	22,8
346,1	27,6
346,5	29,057
347	32,743
347,5	27,314
347,9	28,229
348,4	32,886
348,8	31,714
349,3	29,543
349,8	30,171
350,2	29,171
350,7	34,886
351,1	35,914
351,6	38,571
352	46,914
352,5	51,771
353	58,4
353,4	63,771
353,9	73,4
354,3	87,257
354,8	98,371
355,3	113,886
355,7	134,429
356,2	156,714
356,6	186,971
357,1	217,343
357,5	255,6
358	304,486
358,5	353,343
358,9	408,8
359,4	477,343
359,8	544,514
360,3	625,4
360,8	711,886
361,2	808,8
361,7	914,486
362,1	1031,371
362,6	1159,143
363	1302,657
363,5	1453,029
364	1607,6
364,4	1765,771
364,9	1923,829
365,3	2083,086
365,8	2230,943
366,3	2368,429
366,7	2494,6
367,2	2609,686
367,6	2697,629
368,1	2767,029
368,5	2812,486
369	2840,914
369,5	2845,371
369,9	2822,029
370,4	2778
370,8	2714,771
371,3	2640,171
371,7	2543,2
372,2	2430,2
372,7	2306
373,1	2184,257
373,6	2051,514
374	1926,286
374,5	1796,486
374,9	1674,171
375,4	1557,429
375,9	1444,457
376,3	1335,743
376,8	1228
377,2	1129,086
377,7	1038,229
378,2	949,771
378,6	868,029
379,1	796,457
379,5	731,657
380	679,171
380,4	625,943
380,9	575,8
381,4	536,629
381,8	496,257
382,3	458,629
382,7	418,143
383,2	383,971
383,6	356,571
384,1	330
384,6	299,714
385	278,629
385,5	259,829
385,9	245,457
386,4	227,6
386,8	212,4
387,3	197,829
387,7	189,143
388,2	176,714
388,7	163,429
389,1	151,714
389,6	140,543
390	131,571
390,5	121,686
390,9	116,2
391,4	111,886
391,9	106,457
392,3	95,571
392,8	92,2
393,2	79,714
393,7	82,171
394,1	80,657
394,6	75,514
395,1	75,6
395,5	80,429
396	77,629
396,4	78,086
396,9	74,371
397,3	62,886
397,8	57,514
398,2	51,686
398,7	43,943
399,2	41,171
399,6	43,857
400,1	33,514
400,5	38,257
401	37,8
401,4	39,857
401,9	43,343
402,4	46,571
402,8	41,2
403,3	46,571
403,7	46,457
404,2	46,457
404,6	45,2
405,1	44,2
405,5	37,971
406	38,771
406,5	37,257
406,9	32,914
407,4	33,743
407,8	35,286
408,3	36,571
408,7	44,657
409,2	47,8
409,6	49,314
410,1	56,429
410,6	57,029
411	54,857
411,5	52,629
411,9	48,171
412,4	52,457
412,8	54,171
413,3	50,457
413,7	53,886
414,2	59,286
414,7	66,771
415,1	71,114
415,6	74,457
416	79
416,5	79,857
416,9	83,857
417,4	83,286
417,8	86,457
418,3	92,114
418,8	87,286
419,2	89,314
419,7	97
420,1	96,514
420,6	103,257
421	101,2
421,5	99,886
421,9	102,743
422,4	103,286
422,8	106,914
423,3	106,886
423,8	107,086
424,2	107,8
424,7	108,429
425,1	108,286
425,6	110,829
426	110,171
426,5	112,257
426,9	111,371
427,4	112,514
427,9	108,029
428,3	111,257
428,8	113,429
429,2	111,343
429,7	110,029
430,1	112,171
430,6	113,943
431	118,571
431,5	122,171
431,9	121,571
432,4	126,6
432,8	133,543
433,3	135,2
433,8	140,886
434,2	148,2
434,7	148,143
435,1	152,857
435,6	162,629
436	167,571
436,5	176,857
436,9	184,971
437,4	192,8
437,8	202,4
438,3	210,886
438,8	213,457
439,2	217,2
439,7	221,457
440,1	223,514
440,6	230,314
441	234,943
441,5	239,429
441,9	248,943
442,4	265,114
442,8	276,2
443,3	293,4
443,7	300,171
444,2	317,629
444,7	330,743
445,1	341,143
445,6	349,629
446	364,829
446,5	376,486
446,9	395,714
447,4	409
447,8	429,514
448,3	447,143
448,7	465,743
449,2	480,2
449,6	494,486
450,1	517,086
450,6	539,143
451	551,486
451,5	568,943
451,9	588,886
452,4	613,629
452,8	641,657
453,3	662
453,7	683,943
454,2	709,143
454,6	737,943
455,1	760,343
455,5	786,514
456	812,629
456,4	838,571
456,9	865,257
457,3	899,057
457,8	925,743
458,3	958,2
458,7	988,314
459,2	1015,371
459,6	1048,6
460,1	1084,257
460,5	1117,171
461	1146,543
461,4	1180
461,9	1208,486
462,3	1244,143
462,8	1274,429
463,2	1308,457
463,7	1340,457
464,1	1383,314
464,6	1420,8
465	1464,657
465,5	1504,143
466	1544,971
466,4	1578,971
466,9	1623,6
467,3	1656,543
467,8	1700,257
468,2	1734,371
468,7	1773,457
469,1	1816,371
469,6	1858,314
470	1896,571
470,5	1939,4
470,9	1978,486
471,4	2021,943
471,8	2061
472,3	2090,714
472,7	2131,571
473,2	2163,057
473,6	2205,914
474,1	2236,543
474,5	2272,943
475	2314,629
475,4	2359,743
475,9	2406,429
476,4	2450,229
476,8	2483,171
477,3	2528,457
477,7	2576,114
478,2	2617,486
478,6	2657,229
479,1	2688,486
479,5	2728,429
480	2775,343
480,4	2810,371
480,9	2841,914
481,3	2870,371
481,8	2902,086
482,2	2937,114
482,7	2970,657
483,1	3001,8
483,6	3029,143
484	3057,2
484,5	3091
484,9	3118,657
485,4	3147,343
485,8	3169,6
486,3	3195,829
486,7	3229,829
487,2	3259,629
487,6	3285,171
488,1	3314,657
488,5	3337,343
489	3367,286
489,4	3391,143
489,9	3411,486
490,4	3433,286
490,8	3452,257
491,3	3477,286
491,7	3499,171
492,2	3524,886
492,6	3539,371
493,1	3559,829
493,5	3577,657
494	3602,743
494,4	3612,771
494,9	3633
495,3	3646,514
495,8	3670,171
496,2	3686,829
496,7	3696,057
497,1	3708,857
497,6	3726,543
498	3735,029
498,5	3747,457
498,9	3752,143
499,4	3766,571
499,8	3779,457
500,3	3790,286
500,7	3800,629
501,2	3816,457
501,6	3825
502,1	3840,857
502,5	3849,229
503	3860,657
503,4	3873,543
503,9	3891,543
504,3	3898,886
504,8	3909,914
505,2	3916,914
505,7	3924,143
506,1	3933,686
506,6	3937,457
507	3943,057
507,5	3951,629
507,9	3961,486
508,4	3971,143
508,8	3979,886
509,3	3991,229
509,7	4001,543
510,2	4000,829
510,6	4003,286
511,1	4004,4
511,5	4014,143
512	4019,429
512,4	4017,486
512,9	4019,114
513,3	4025,543
513,8	4034,229
514,2	4042,914
514,7	4043,543
515,1	4051,257
515,6	4063,229
516	4072,486
516,5	4080,829
516,9	4081,8
517,4	4089,314
517,8	4091,743
518,3	4090,286
518,7	4093,4
519,2	4089,143
519,6	4089
520,1	4099,8
520,5	4097,543
521	4105,429
521,4	4111,943
521,9	4122,629
522,3	4128,514
522,8	4142,657
523,2	4144,971
523,7	4153,171
524,1	4156,029
524,6	4163,771
525	4167,257
525,5	4175,8
525,9	4179,743
526,4	4181,743
526,8	4179,8
527,3	4189,229
527,7	4196,229
528,2	4199
528,6	4210,114
529,1	4209,8
529,5	4217,657
530	4229,143
530,4	4237,514
530,9	4235,629
531,3	4242,714
531,8	4248,429
532,2	4261,514
532,6	4269,886
533,1	4275,857
533,5	4279,829
534	4296,029
534,4	4309,4
534,9	4319,086
535,3	4324,543
535,8	4329,771
536,2	4339,086
536,7	4347,286
537,1	4352,543
537,6	4355,2
538	4352,657
538,5	4365,543
538,9	4375,086
539,4	4388,114
539,8	4392,829
540,3	4401
540,7	4408,943
541,2	4423,6
541,6	4428,914
542,1	4437,343
542,5	4440,686
543	4442,514
543,4	4453,086
543,9	4458,057
544,3	4466,143
544,8	4475,971
545,2	4489,914
545,7	4496,143
546,1	4516,971
546,5	4525,543
547	4535,457
547,4	4538
547,9	4543
548,3	4542,743
548,8	4553,457
549,2	4554,943
549,7	4566,257
550,1	4578,914
550,6	4589,2
551	4598,829
551,5	4608
551,9	4616,571
552,4	4632,429
552,8	4635,771
553,3	4643,971
553,7	4656,686
554,2	4665,714
554,6	4677,886
555,1	4691,6
555,5	4696,543
555,9	4705,2
556,4	4713,8
556,8	4719,543
557,3	4728,343
557,7	4735,286
558,2	4733,971
558,6	4744,6
559,1	4750,743
559,5	4754,857
560	4759,257
560,4	4758,343
560,9	4767,086
561,3	4782,257
561,8	4786,971
562,2	4789,286
562,7	4798,486
563,1	4801,657
563,6	4807,2
564	4815,714
564,4	4819,314
564,9	4813,857
565,3	4814,143
565,8	4813,971
566,2	4817
566,7	4825,257
567,1	4825,429
567,6	4827,629
568	4838,486
568,5	4852,086
568,9	4852,457
569,4	4857,686
569,8	4851,343
570,3	4855,914
570,7	4853,743
571,1	4853,143
571,6	4851,371
572	4860,171
572,5	4861,2
572,9	4864,971
573,4	4854,629
573,8	4852,086
574,3	4847,629
574,7	4844,743
575,2	4833,514
575,6	4833,029
576,1	4831,257
576,5	4832,971
576,9	4830,086
577,4	4832,343
577,8	4828,457
578,3	4830,543
578,7	4830,743
579,2	4835,2
579,6	4837,514
580,1	4841,286
580,5	4835,829
581	4834,943
581,4	4831,4
581,9	4817,943
582,3	4804,171
582,7	4795,114
583,2	4778,2
583,6	4770,543
584,1	4756,771
584,5	4748,257
585	4744
585,4	4741,971
585,9	4733,829
586,3	4728,286
586,8	4714,029
587,2	4707,829
587,6	4701,114
588,1	4694,857
588,5	4682,829
589	4671,286
589,4	4667,657
589,9	4664,829
590,3	4662,171
590,8	4658,286
591,2	4649,057
591,7	4642,6
592,1	4638,771
592,5	4634,314
593	4629,743
593,4	4621,2
593,9	4605,486
594,3	4598,114
594,8	4595,714
595,2	4593,171
595,7	4584
596,1	4580,943
596,6	4576,114
597	4567,6
597,4	4556,457
597,9	4546,171
598,3	4540,8
598,8	4532,829
599,2	4517,257
599,7	4502,257
600,1	4492,971
600,6	4494,6
601	4482
601,4	4464,8
601,9	4454,457
602,3	4453,229
602,8	4444,086
603,2	4437,914
603,7	4425,429
604,1	4415,029
604,6	4397,886
605	4382,743
605,4	4363,457
605,9	4350,343
606,3	4339,886
606,8	4321,429
607,2	4306,686
607,7	4295,314
608,1	4288,829
608,6	4276,657
609	4266,2
609,4	4253,743
609,9	4239,114
610,3	4223,971
610,8	4214,343
611,2	4192,029
611,7	4173,257
612,1	4162,257
612,6	4145,657
613	4139,029
613,4	4128
613,9	4112,057
614,3	4096,2
614,8	4084,657
615,2	4063,829
615,7	4052,057
616,1	4028,486
616,6	4014,429
617	3992,486
617,4	3984,971
617,9	3968,257
618,3	3956,857
618,8	3937,171
619,2	3926,686
619,7	3911,171
620,1	3899,229
620,5	3885,971
621	3869,2
621,4	3848,714
621,9	3830,714
622,3	3813,629
622,8	3792,486
623,2	3779,629
623,6	3752
624,1	3738,857
624,5	3723
625	3705,2
625,4	3690,8
625,9	3674,743
626,3	3650,314
626,8	3643,686
627,2	3625
627,6	3607,857
628,1	3588,657
628,5	3570,743
629	3559,257
629,4	3546,857
629,9	3520,2
630,3	3500,514
630,7	3488,343
631,2	3470
631,6	3449,743
632,1	3426,343
632,5	3412,2
633	3392,314
633,4	3381,886
633,8	3361,857
634,3	3342,171
634,7	3326,114
635,2	3309,771
635,6	3286,457
636,1	3275,714
636,5	3253,057
636,9	3231,4
637,4	3221,771
637,8	3199,6
638,3	3181,2
638,7	3164,171
639,2	3150,914
639,6	3130,314
640	3119,057
640,5	3099,114
640,9	3087,771
641,4	3072,4
641,8	3057,429
642,2	3035,029
642,7	3022,571
643,1	3014,114
643,6	3001,6
644	2992,857
644,5	2982,829
644,9	2972,914
645,3	2959,086
645,8	2950,114
646,2	2931,686
646,7	2914,314
647,1	2889,057
647,6	2869,457
648	2853,514
648,4	2845,8
648,9	2829,886
649,3	2811,886
649,8	2800,657
650,2	2789,857
650,6	2780,143
651,1	2768,657
651,5	2754,343
652	2741,343
652,4	2728,714
652,9	2712,114
653,3	2698,143
653,7	2686,857
654,2	2674,429
654,6	2655,571
655,1	2631
655,5	2610,2
655,9	2597
656,4	2581,6
656,8	2555,343
657,3	2530,543
657,7	2513,771
658,2	2505,143
658,6	2492,8
659	2477,286
659,5	2462,457
659,9	2453,343
660,4	2439,543
660,8	2430,057
661,2	2411,343
661,7	2392,286
662,1	2379,971
662,6	2363,457
663	2347,857
663,4	2340,057
663,9	2320,743
664,3	2307,286
664,8	2296,286
665,2	2277
665,6	2264,114
666,1	2249,514
666,5	2230,286
667	2215,171
667,4	2205,057
667,9	2191,086
668,3	2178,486
668,7	2165,371
669,2	2150,457
669,6	2132,457
670,1	2122,971
670,5	2104,457
670,9	2097,257
671,4	2085,743
671,8	2071,057
672,3	2062,257
672,7	2054,657
673,1	2037,543
673,6	2025,286
674	2006,914
674,5	1992,029
674,9	1984,514
675,3	1970,771
675,8	1956,2
676,2	1948,914
676,7	1940,2
677,1	1930,686
677,5	1922,029
678	1906,057
678,4	1896,771
678,9	1883,257
679,3	1863,714
679,7	1846,743
680,2	1835,8
680,6	1819,171
681,1	1808,371
681,5	1793,314
681,9	1780,686
682,4	1776,486
682,8	1767,829
683,3	1752,829
683,7	1742,514
684,1	1729,743
684,6	1715,086
685	1703,743
685,5	1683,571
685,9	1671,514
686,3	1664,771
686,8	1650,143
687,2	1634,6
687,7	1624,486
688,1	1619,086
688,5	1612,743
689	1605,914
689,4	1594,286
689,9	1592,371
690,3	1584,571
690,7	1571,8
691,2	1560,514
691,6	1548,629
692	1532,686
692,5	1517,8
692,9	1502,343
693,4	1494,057
693,8	1483,314
694,2	1465,4
694,7	1456,314
695,1	1451,314
695,6	1445,286
696	1437,371
696,4	1422,457
696,9	1415,2
697,3	1408,429
697,8	1397,771
698,2	1389,286
698,6	1377,657
699,1	1360,086
699,5	1355,429
699,9	1347,343
700,4	1339,571
700,8	1334,629
701,3	1316,314
701,7	1303,086
702,1	1299,343
702,6	1290,114
703	1280,486
703,5	1276,571
703,9	1263,914
704,3	1266,429
704,8	1263
705,2	1257,6
705,6	1246,657
706,1	1245,971
706,5	1235,971
707	1228,886
707,4	1215,143
707,8	1208
708,3	1193,629
708,7	1189,543
709,2	1171,857
709,6	1167,629
710	1159,429
710,5	1152,6
710,9	1142,743
711,3	1141,086
711,8	1132,171
712,2	1129,143
712,7	1116,914
713,1	1103,8
713,5	1097,4
714	1087,229
714,4	1078,629
714,8	1072,371
715,3	1062,486
715,7	1053,514
716,2	1052,257
716,6	1042,743
717	1038,857
717,5	1030,829
717,9	1020,543
718,3	1010,886
718,8	1006,057
719,2	998,943
719,7	996,114
720,1	985,943
720,5	978,4
721	968,029
721,4	964,686
721,8	957,143
722,3	945,2
722,7	931,8
723,2	920,829
723,6	914,314
724	908,057
724,5	895,571
724,9	887,8
725,3	880,286
725,8	874,629
726,2	868,343
726,7	860,514
727,1	857,857
727,5	855,571
728	848,486
728,4	848,343
728,8	841,057
729,3	839,114
729,7	834,114
730,1	829,229
730,6	825,914
731	822,171
731,5	812,457
731,9	812,029
732,3	809,771
732,8	807,943
733,2	802,457
733,6	796,943
734,1	790,571
734,5	783,314
734,9	777,771
735,4	769,114
735,8	761,686
736,3	755,029
736,7	749,571
737,1	746,771
737,6	748,8
738	743,371
738,4	744,429
738,9	740,229
739,3	736,057
739,7	734,857
740,2	726,4
740,6	722,114
741,1	717,371
741,5	710,371
741,9	701,771
742,4	697,171
742,8	691,257
743,2	693,171
743,7	686,829
744,1	680,086
744,5	677,171
745	673,629
745,4	667,371
745,8	661,4
746,3	653,057
746,7	645,486
747,2	641,686
747,6	634,943
748	634,514
748,5	630
748,9	622,314
749,3	619,514
749,8	614,314
750,2	610,086
750,6	602,8
751,1	600,543
751,5	593,343
751,9	589,657
752,4	584,171
752,8	585,486
753,3	580,543
753,7	576,829
754,1	569,114
754,6	569,143
755	567,057
755,4	560,314
755,9	555,171
756,3	547,857
756,7	543,714
757,2	543,514
757,6	539,2
758	530,143
758,5	528,2
758,9	521,143
759,3	520,114
759,8	519,829
760,2	515,286
760,6	515
761,1	516,057
761,5	515,914
761,9	514,886
762,4	511,429
762,8	508,543
763,3	498,086
763,7	492,057
764,1	484,943
764,6	481
765	476,143
765,4	476,4
765,9	468,771
766,3	470,8
766,7	472,886
767,2	473,914
767,6	466,486
768	464,914
768,5	459,343
768,9	452,657
769,3	450,229
769,8	443,486
770,2	442,971
770,6	440,829
771,1	439,829
771,5	440,2
771,9	442,943
772,4	442,229
772,8	436,743
773,2	430,943
773,7	432,657
774,1	430,571
774,5	426,6
775	420,771
775,4	416,829
775,8	419,543
776,3	416,6
776,7	414,143
777,1	413,857
777,6	411,171
778	407,829
778,4	399,371
778,9	390,857
779,3	388,114
779,7	383,857
780,2	378,486
780,6	377,057
781	380,629
781,5	383,886
781,9	382,714
782,3	382
782,8	376
783,2	368,714
783,6	361,886
784,1	358,971
784,5	357,029
784,9	353,286
785,4	347,629
785,8	344,8
786,2	344,257
786,7	343,2
787,1	340,371
787,5	333,657
788	333,629
788,4	331,457
788,8	328,314
789,3	327,229
789,7	322,857
790,1	319,2
790,6	317,8
791	315,4
791,4	313,057
791,9	313,629
792,3	307,629
792,7	313,029
793,2	309
793,6	309,6
794	304,829
794,5	305,886
794,9	305,514
795,3	307,514
795,8	301,629
796,2	300,943
796,6	295,514
797,1	293,571
797,5	287,229
797,9	282,086
798,4	276,2
798,8	269,057
799,2	267,171
799,7	268,571
800,1	267,943
800,5	267,771
801	266,8
801,4	264,514
801,8	266,743
802,2	260,571
802,7	259,029
803,1	255,143
803,5	256,086
804	252,543
804,4	250,514
804,8	249,886
805,3	249,771
805,7	244,114
806,1	248,457
806,6	246,886
807	247,229
807,4	245,171
807,9	241,543
808,3	241,457
808,7	235,514
809,2	229,371
809,6	226,771
810	223,143
810,4	229,743
810,9	224,4
811,3	223,086
811,7	226,057
812,2	226,314
812,6	221,771
813	219,486
813,5	212,286
813,9	212,543
814,3	206,714
814,8	205,114
815,2	198,343
815,6	200,371
816,1	201,6
816,5	195,6
816,9	199,229
817,3	201,029
817,8	202,371
818,2	200,343
818,6	198,229
819,1	196,286
819,5	197,314
819,9	189,829
820,4	183,057
820,8	177,571
821,2	180,143
821,7	178,2
822,1	173,314
822,5	174
822,9	179,371
823,4	181,114
823,8	180,571
824,2	182,029
824,7	182,514
825,1	180,457
825,5	180,829
826	173,029
826,4	176,343
826,8	175,829
827,3	172,6
827,7	168,886
828,1	171,343
828,5	167,4
829	166,914
829,4	166,8
829,8	161,314
830,3	157,829
830,7	159,571
831,1	156,429
831,6	151,571
832	145,2
832,4	140,257
832,8	143,029
833,3	143,657
833,7	138,486
834,1	141,371
834,6	140,771
835	147,429
835,4	147,8
835,8	142,629
836,3	138,8
836,7	136,371
837,1	132,171
837,6	131,943
838	124,829
838,4	120,657
838,9	126,029
839,3	128,629
839,7	132,686
840,1	130,4
840,6	131,143
841	134,057
841,4	132,714
841,9	128,514
842,3	128,2
842,7	123,257
843,1	125,429
843,6	129,143
844	129,771
844,4	129,571
844,9	131,429
845,3	127,429
845,7	128,029
846,2	125
846,6	118,429
847	115
847,4	114,943
847,9	110,343
848,3	111,571
848,7	109,6
849,2	112,114
849,6	112,2
850	112,143
850,4	113,886
850,9	111,771
851,3	107,571
851,7	104,686
852,2	95,743
852,6	95,714
853	98,514
853,4	97,886
853,9	97,657
854,3	96,657
854,7	94,429
855,2	96,171
855,6	90,743
856	82,771
856,4	79,714
856,9	79,171
857,3	78,543
857,7	83,029
858,2	85,686
858,6	91,171
859	87,057
859,4	86,743
859,9	87,429
860,3	90,114
860,7	89,371
861,1	88,057
861,6	83
862	88,143
862,4	87,886
862,9	89,457
863,3	86,2
863,7	84,686
864,1	86,886
864,6	90,057
865	89,543
865,4	88,057
865,9	88,229
866,3	91,4
866,7	91,171
867,1	94,486
867,6	90,257
868	93,2
868,4	91,829
868,8	84,314
869,3	82,029
869,7	78,629
870,1	77,057
870,6	74,6
871	124,114
871,4	123,4
871,8	124,114
872,3	124,314
872,7	123,857
873,1	123,286
873,5	131,371
874	79,629
874,4	76,514
874,8	78,429
875,3	74,343
875,7	72,686
876,1	66,057
876,5	66,857
877	62,657
877,4	65,029
877,8	67,629
878,2	67,914
878,7	74,257
879,1	74,829
879,5	70,2
879,9	72,086
880,4	69,143
880,8	63,029
881,2	64,457
881,7	62,943
882,1	63,371
882,5	59,629
882,9	58,343
883,4	60,543
883,8	61,343
884,2	58,4
884,6	54,114
885,1	56,914
885,5	62,629
885,9	69,086
886,3	68,771
886,8	65,486
887,2	65,229
887,6	63,2
888	57,943
888,5	53,857
888,9	47,571
889,3	43,286
889,8	49,6
890,2	46,429
890,6	47,257
891	46,829
891,5	45,943
891,9	49,514
892,3	52
892,7	51,571
893,2	55,629
893,6	54,457
894	55,571
894,4	56,314
894,9	54,371
895,3	55,943
895,7	54,371
896,1	54,629
896,6	54,2
897	50,886
897,4	48,971
897,8	45,314
898,3	47,114
898,7	44,8
899,1	43,2
899,5	42,486
900	42,971
900,4	39,686
900,8	42,543
901,2	39,8
901,7	40,286
902,1	44,6
902,5	47,686
902,9	50,571
903,4	56
903,8	50,029
904,2	51,571
904,6	49,229
905,1	49,2
905,5	47,543
905,9	46,457
906,3	45,886
906,8	49,029
907,2	45,829
907,6	47,286
908	37,857
908,5	40,857
908,9	34,4
909,3	31,343
909,7	29,086
910,2	28,171
910,6	30,657
911	33,371
911,4	28,571
911,9	34,371
912,3	32,771
912,7	33,286
913,1	29,8
913,6	27,457
914	27,2
914,4	28,543
914,8	27,343
915,3	26,4
915,7	26,971
916,1	27,714
916,5	25,943
916,9	26,829
917,4	26,2
917,8	21,857
918,2	22,686
918,6	23,029
919,1	30,457
919,5	33,886
919,9	36
920,3	37,943
920,8	41,971
921,2	47,143
921,6	44,171
922	38,6
922,5	36,543
922,9	32,543
923,3	33,371
923,7	29,286
924,2	24,143
924,6	23,286
925	25,286
925,4	24,343
925,8	24,543
926,3	22,371
926,7	25,229
927,1	28,086
927,5	32,743
928	29,343
928,4	27,686
928,8	33,143
929,2	34,486
929,7	31,143
930,1	29,4
930,5	24,371
930,9	32,114
931,3	35,743
931,8	27,629
932,2	23,657
932,6	26,571
933	19,629
933,5	21,514
933,9	19,829
934,3	18,8
934,7	26,114
935,2	28,743
935,6	29,657
936	33,457
936,4	31,914
936,8	30,143
937,3	27,571
937,7	21,571
938,1	15,657
938,5	16,8
939	19,143
939,4	19,343
939,8	17,571
940,2	20,543
940,6	20,371
941,1	26,514
941,5	25,314
941,9	28,229
942,3	26,743
942,8	24,486
943,2	18,029
943,6	21,571
944	20,257
944,4	16,057
944,9	7,229
945,3	12,686
945,7	13,2
946,1	19,657
946,6	17,829
947	16,629
947,4	21,171
947,8	23,8
948,2	20,114
948,7	21,4
949,1	17,8
949,5	20,086
949,9	21,629
950,3	20,2
950,8	22,429
951,2	25,086
951,6	26,543
952	28,143
952,5	24,629
952,9	17,971
953,3	15,314
953,7	14,743
954,1	10,229
954,6	9,486
955	9,943
955,4	11,457
955,8	17,8
956,2	17,857
956,7	20,714
957,1	21,543
957,5	17,6
957,9	15,8
958,3	16,543
958,8	17,857
959,2	20,6
959,6	19,286
960	18,571
960,5	18,114
960,9	17,629
961,3	15,657
961,7	11,771
962,1	10,629
962,6	8,943
963	8,171
963,4	11,714
963,8	12,4
964,2	12,429
964,7	13,2
965,1	12,2
965,5	9,714
965,9	14,114
966,3	11,486
966,8	12,029
967,2	15,571
967,6	14,057
968	16
968,4	24,4
968,9	27,914
969,3	27,314
969,7	25,686
970,1	22,457
970,5	25,429
971	19,829
971,4	16,657
971,8	14
972,2	19,2
972,6	18,6
973,1	17,829
973,5	16,4
973,9	17,686
974,3	13,971
974,7	9,6
975,2	4,714
975,6	0,371
976	2,971
976,4	1,714
976,8	6,371
977,3	6,6
977,7	7
978,1	10,457
978,5	14,257
978,9	12,371
979,4	14,057
979,8	13,086
980,2	9,8
980,6	11,6
981	9,6
981,5	12,114
981,9	14,743
982,3	13,486
982,7	11,943
983,1	16,457
983,6	13,6
984	16,8
984,4	13,714
984,8	10,114
985,2	11,829
985,6	13,743
986,1	13,057
986,5	14,486
986,9	11,943
987,3	13,571
987,7	14,857
988,2	17,114
988,6	16,771
989	18,971
989,4	19,343
989,8	16,686
990,3	17,2
990,7	11,829
991,1	7,657
991,5	7,029
991,9	9,257
992,3	13
992,8	15,086
993,2	18,257
993,6	24,057
994	20,8
994,4	19,886
994,9	17,2
995,3	14,457
995,7	12
996,1	9,057
996,5	7,829
996,9	10,257
997,4	7,886
997,8	9,743
998,2	10,429
998,6	14,714
999	16,257
999,5	16,2
999,9	19,714
1000,3	26,257
1000,7	22,314
1001,1	21,429
1001,5	18,086
1002	14,514
1002,4	14,914
1002,8	13,371
1003,2	10,771
1003,6	13,8
1004	12,686
1004,5	10,314
1004,9	11,543
1005,3	8,371
1005,7	9,314
1006,1	4,629
1006,6	5,6
1007	4,857
1007,4	8,143
1007,8	7,257
1008,2	8,114
1008,6	-0,057
1009,1	-0,714
1009,5	2,114
1009,9	9,429
1010,3	12,257
1010,7	17,371
1011,1	21,514
1011,6	26,257
1012	28,086
1012,4	25,657
1012,8	17,886
1013,2	16
1013,6	14,829
1014,1	16,971
1014,5	18,257
1014,9	22,971
1015,3	17,914
1015,7	16,371
1016,1	15,229
1016,6	14,4
1017	11,486
1017,4	8,686
1017,8	3,057
1018,2	6,457
1018,6	7,857
1019,1	7,771
1019,5	7,629
1019,9	11,943
1020,3	14
1020,7	17,286
1021,1	17,514
1021,6	15,771
1022	14,343
1022,4	15,971
1022,8	10,029
1023,2	12,229
1023,6	10,4
1024,1	9,914
1024,5	13,143
1024,9	18,743
1025,3	15,429
1025,7	16,829
1026,1	16,543
1026,6	17,314
1027	13,514
1027,4	15,4
1027,8	13,943
1028,2	16,2
1028,6	13,943
1029	10,943
1029,5	15,257
1029,9	17,629
1030,3	18,971
1030,7	16,657
1031,1	10,2
1031,5	8,714
1032	9,429
1032,4	4,029
1032,8	3,571
1033,2	3,229
1033,6	3,114
1034	9,286
1034,4	17,657
1034,9	17,686
1035,3	20,6
1035,7	20,114
1036,1	17,6
1036,5	13,343
1036,9	10,514
1037,4	5,543
1037,8	8,543
1038,2	0,6
1038,6	-1,143
1039	-0,029
1039,4	4,543
1039,8	4,914
1040,3	5,257
1040,7	-0
1041,1	7,114
1041,5	8,371
1041,9	8,057
1042,3	8,314
1042,7	10,571
1043,2	11,829
1043,6	21,686
1044	16,2
1044,4	14,771
1044,8	8,629
1045,2	10,829
1045,6	13,829
1046,1	12,771
1046,5	7,429
1046,9	14,029
1047,3	14,629
1047,7	20,229
1048,1	17,2
1048,5	12,6
1049	15,457
1049,4	11,8
1049,8	11,029
1050,2	11
1050,6	11,486
1051	17,743
1051,4	16,571
1051,9	16,629
1052,3	17,743
1052,7	19,143
1053,1	20,686
1053,5	21,514
1053,9	12,4
1054,3	10,743
1054,8	17,114
1055,2	20,857
1055,6	19,229
1056	21,371
1056,4	20,086
1056,8	23,543
1057,2	25,8
1057,6	16,8
1058,1	15,971
1058,5	15,486
1058,9	15,114
1059,3	19,314
1059,7	14,886
1060,1	15
1060,5	14,486
1061	13,914
1061,4	15,171
1061,8	12,114
1062,2	11,771
1062,6	12,171
1063	13,543
1063,4	11,371
1063,8	11,314
1064,3	12,743
1064,7	13,229
1065,1	9,4
1065,5	15,486
1065,9	10,029
1066,3	7,771
1066,7	5,857
1067,1	3,143
1067,6	2,143
1068	2,2
1068,4	-1,886
1068,8	4,314
1069,2	6,514
1069,6	9,429
1070	11,657
1070,4	18,829
1070,9	16,343
1071,3	18,286
1071,7	15,943
1072,1	23,086
1072,5	22,514
1072,9	20,229
1073,3	18,171
1073,7	20,229
1074,2	21,343
1074,6	23,143
1075	15,286
1075,4	14,6
1075,8	17,057
1076,2	15,114
1076,6	15,8
1077	14,943
1077,5	15,943
1077,9	16,743
1078,3	14,229
1078,7	11,4
1079,1	12,514
1079,5	5,914
1079,9	9,514
1080,3	7,4
1080,7	11,914
1081,2	14,343
1081,6	16,029
1082	15,714
1082,4	18,6
1082,8	14,171
1083,2	13,2
1083,6	10,257
1084	10,029
1084,5	12,143
1084,9	7,457
1085,3	10,229
1085,7	10,314
1086,1	8,629
1086,5	13,743
1086,9	14,886
1087,3	14,686
1087,7	19,114
1088,2	16,8
1088,6	17,086
1089	16,486
1089,4	11,143
1089,8	11,343
1090,2	10,971
1090,6	6,457
1091	12,143
1091,4	12,686
1091,9	17,857
1092,3	16,743
1092,7	16,571
1093,1	13,943
1093,5	17,543
1093,9	17,657
1094,3	18,057
1094,7	18,2
1095,1	17,4
1095,5	18,371
1096	12,571
1096,4	15,914
1096,8	12
1097,2	10,857
1097,6	9,886
1098	13,314
1098,4	7,4
1098,8	12,657
1099,2	9,114
1099,6	10,457
1100,1	13,029
1100,5	13,4
1100,9	12,314
1101,3	17,771
1101,7	20,143
1102,1	18,743
1102,5	17,486
1102,9	7,971
1103,3	4,743
1103,7	3,514
1104,2	3,029
1104,6	1
1105	3,686
1105,4	4,057
1105,8	10
1106,2	9,943
1106,6	8,514
1107	5,4
1107,4	4,567
1107,8	1,16
1108,3	-0,25
