Data from Subt2_052.txt Node
Date: Sat Aug 26 16:29:24 MSK 2023
User: vat
Spectrometer: MAYP114033
Trigger mode: 0
Integration Time (sec): 1,000000E0
Scans to average: 5
Electric dark correction enabled: true
Nonlinearity correction enabled: false
Boxcar width: 3
XAxis mode: Wavelengths
Number of Pixels in Spectrum: 2068
>>>>>Begin Spectral Data<<<<<
199,4	-0,667
199,9	-0,767
200,4	-5,567
200,8	-7,31
201,3	-3,51
201,8	-3,538
202,2	-5,424
202,7	-3,71
203,2	-5,052
203,6	0,176
204,1	1,69
204,6	2,633
205	3,862
205,5	5,69
206	6,69
206,4	11,433
206,9	11,662
207,4	15,89
207,8	8,09
208,3	9,176
208,8	8,976
209,2	9,719
209,7	9,805
210,2	11,89
210,6	8,119
211,1	10,176
211,5	5,976
212	2,433
212,5	-4,595
212,9	-6,395
213,4	-6,595
213,9	-7,224
214,3	-3,91
214,8	1,833
215,3	2,005
215,7	2,719
216,2	5,033
216,7	-0,367
217,1	-0,652
217,6	-3,338
218,1	-4,795
218,5	1,405
219	9,919
219,5	4,662
219,9	6,633
220,4	6,805
220,9	10,033
221,3	9,519
221,8	7,662
222,3	4,09
222,7	5,805
223,2	7,805
223,6	9,862
224,1	8,033
224,6	0,148
225	-0,367
225,5	2,919
226	0,462
226,4	2,119
226,9	1,49
227,4	3,462
227,8	15,605
228,3	18,576
228,8	16,776
229,2	19,833
229,7	16,319
230,2	20,462
230,6	18,919
231,1	12,748
231,5	12,519
232	18,262
232,5	15,233
232,9	15,89
233,4	14,119
233,9	14,548
234,3	11,89
234,8	10,805
235,3	5,348
235,7	12,176
236,2	14,033
236,7	11,862
237,1	8,719
237,6	11,633
238,1	10,805
238,5	9,633
239	4,033
239,4	6,09
239,9	4,976
240,4	4,005
240,8	4,062
241,3	1,433
241,8	-1,624
242,2	-2,567
242,7	-5,51
243,2	-3,395
243,6	0,89
244,1	1,205
244,6	1,805
245	2,519
245,5	5,548
245,9	3,576
246,4	2,805
246,9	4,09
247,3	3,519
247,8	3,805
248,3	3,376
248,7	9,633
249,2	8,833
249,7	7,662
250,1	2,919
250,6	2,548
251	3,233
251,5	2,748
252	-3,967
252,4	-2,11
252,9	-0,081
253,4	1,805
253,8	3,033
254,3	4,805
254,8	5,119
255,2	4,176
255,7	8,319
256,1	6,376
256,6	6,405
257,1	9,605
257,5	10,148
258	14,005
258,5	14,233
258,9	10,148
259,4	12,748
259,9	18,719
260,3	15,662
260,8	16,776
261,2	15,233
261,7	18,548
262,2	17,833
262,6	14,033
263,1	10,976
263,6	9,69
264	3,033
264,5	1,005
264,9	-0,738
265,4	0,976
265,9	4,005
266,3	2,262
266,8	3,405
267,3	10,262
267,7	13,405
268,2	13,605
268,7	9,49
269,1	9,776
269,6	12,519
270	18,462
270,5	18,49
271	17,719
271,4	13,319
271,9	15,976
272,4	14,376
272,8	8,576
273,3	-3,024
273,7	-10,167
274,2	-12,481
274,7	-10,567
275,1	-12,538
275,6	-13,11
276,1	-9,738
276,5	-3,024
277	1,262
277,4	1,662
277,9	0,033
278,4	3,405
278,8	5,948
279,3	3,148
279,8	4,805
280,2	5,148
280,7	3,948
281,1	11,376
281,6	11,376
282,1	13,348
282,5	15,348
283	13,462
283,4	11,519
283,9	11,919
284,4	4,233
284,8	0,033
285,3	-6,481
285,8	-10,195
286,2	-12,452
286,7	-13,881
287,1	-9,738
287,6	-4,795
288,1	0,148
288,5	2,948
289	3,319
289,5	5,319
289,9	6,633
290,4	3,862
290,8	7,805
291,3	6,719
291,8	8,462
292,2	13,433
292,7	14,633
293,1	14,633
293,6	13,548
294,1	6,89
294,5	8,376
295	7,119
295,5	8,519
295,9	7,262
296,4	9,833
296,8	9,69
297,3	10,09
297,8	7,719
298,2	4,633
298,7	-0,681
299,1	1,119
299,6	-1,252
300,1	4,062
300,5	10,233
301	12,29
301,5	15,29
301,9	17,548
302,4	14,548
302,8	11,519
303,3	8,976
303,8	1,605
304,2	-2,595
304,7	-2,938
305,1	-1,567
305,6	-4,795
306,1	2,805
306,5	1,89
307	3,662
307,4	2,805
307,9	3,062
308,4	3,748
308,8	11,576
309,3	4,148
309,8	8,49
310,2	4,548
310,7	11,919
311,1	9,348
311,6	7,576
312,1	7,205
312,5	11,319
313	3,833
313,4	10,319
313,9	10,948
314,4	8,805
314,8	9,805
315,3	5,662
315,7	8,548
316,2	10,176
316,7	8,89
317,1	3,233
317,6	7,548
318	9,405
318,5	13,576
319	11,719
319,4	14,062
319,9	13,662
320,3	16,89
320,8	19,262
321,3	14,805
321,7	9,233
322,2	9,433
322,6	5,148
323,1	6,205
323,6	4,719
324	4,662
324,5	0,205
324,9	4,633
325,4	2,833
325,9	7,976
326,3	5,576
326,8	4,89
327,2	1,376
327,7	10,69
328,2	4,69
328,6	10,376
329,1	7,776
329,5	11,833
330	12,205
330,5	12,462
330,9	10,119
331,4	13,005
331,8	10,862
332,3	14,062
332,8	7,833
333,2	7,576
333,7	9,462
334,1	10,462
334,6	13,148
335,1	12,548
335,5	11,805
336	13,119
336,4	12,576
336,9	16,433
337,4	16,89
337,8	19,49
338,3	20,748
338,7	20,833
339,2	25,805
339,7	27,319
340,1	23,948
340,6	20,319
341	19,919
341,5	20,348
342	20,833
342,4	14,062
342,9	12,605
343,3	13,09
343,8	18,605
344,2	17,062
344,7	14,262
345,2	10,919
345,6	17,662
346,1	20,605
346,5	20,262
347	20,119
347,5	17,948
347,9	19,348
348,4	20,033
348,8	21,176
349,3	19,119
349,8	19,576
350,2	16,29
350,7	21,462
351,1	20,09
351,6	22,462
352	25,49
352,5	31,062
353	41,976
353,4	51,205
353,9	59,919
354,3	74,633
354,8	89,348
355,3	105,719
355,7	128,405
356,2	144,062
356,6	170,719
357,1	198,09
357,5	234,119
358	278,69
358,5	323,633
358,9	373,29
359,4	437,462
359,8	504,148
360,3	579,462
360,8	663,262
361,2	756,805
361,7	861,176
362,1	976,748
362,6	1101,49
363	1235,805
363,5	1388,576
364	1534,948
364,4	1686,919
364,9	1845,119
365,3	1995,948
365,8	2138,69
366,3	2273,033
366,7	2390,605
367,2	2498,862
367,6	2591,29
368,1	2655,233
368,5	2701,662
369	2732,148
369,5	2734,405
369,9	2708,976
370,4	2668,719
370,8	2598,29
371,3	2522,205
371,7	2428,033
372,2	2318,462
372,7	2203,919
373,1	2089,576
373,6	1969,205
374	1849,576
374,5	1722,919
374,9	1603,033
375,4	1491,348
375,9	1384,548
376,3	1277,433
376,8	1179,033
377,2	1091,519
377,7	1008,748
378,2	927,519
378,6	848,005
379,1	779,062
379,5	717,176
380	658,005
380,4	603,262
380,9	555,376
381,4	515,062
381,8	478,69
382,3	441,49
382,7	405,662
383,2	374,119
383,6	346,319
384,1	320,862
384,6	293,262
385	270,548
385,5	250,09
385,9	237,062
386,4	222,519
386,8	208,519
387,3	193,519
387,7	187,262
388,2	178,405
388,7	170,719
389,1	158,49
389,6	146,69
390	136,348
390,5	125,605
390,9	121,09
391,4	117,605
391,9	112,976
392,3	106,862
392,8	103,348
393,2	93,976
393,7	92,976
394,1	86,433
394,6	76,205
395,1	69,948
395,5	69,033
396	67,89
396,4	69,405
396,9	67,833
397,3	60,862
397,8	58,862
398,2	54,148
398,7	48,319
399,2	43,633
399,6	46,433
400,1	41,748
400,5	45,976
401	45,862
401,4	50,748
401,9	54,005
402,4	55,862
402,8	53,348
403,3	53,833
403,7	51,062
404,2	48,49
404,6	44,09
405,1	39,433
405,5	36,605
406	32,319
406,5	29,548
406,9	28,033
407,4	30,462
407,8	31,062
408,3	32,176
408,7	37,148
409,2	40,29
409,6	43,233
410,1	46,833
410,6	46,49
411	46,776
411,5	47,748
411,9	49,062
412,4	51,29
412,8	55,09
413,3	58,005
413,7	63,519
414,2	68,69
414,7	75,262
415,1	73,576
415,6	82,233
416	85,405
416,5	86,376
416,9	88,662
417,4	89,233
417,8	87,776
418,3	94,833
418,8	88,319
419,2	92,805
419,7	95,49
420,1	90,89
420,6	94,376
421	97,405
421,5	93,176
421,9	96,405
422,4	95,519
422,8	95,548
423,3	101,605
423,8	100,519
424,2	103,29
424,7	107,233
425,1	105,09
425,6	107,29
426	107,548
426,5	107,033
426,9	107,633
427,4	104,719
427,9	102,148
428,3	104,719
428,8	107,433
429,2	106,09
429,7	104,833
430,1	104,119
430,6	101,433
431	100,976
431,5	100,948
431,9	97,748
432,4	103,919
432,8	108,148
433,3	111,89
433,8	120,062
434,2	121,205
434,7	122,376
435,1	127,462
435,6	133,233
436	133,605
436,5	141,89
436,9	143,176
437,4	153,062
437,8	158,919
438,3	161,833
438,8	159,948
439,2	168,633
439,7	171,776
440,1	179,376
440,6	186,776
441	192,805
441,5	199,176
441,9	212,862
442,4	224,576
442,8	234,633
443,3	240,748
443,7	244,376
444,2	259,976
444,7	270,376
445,1	280,348
445,6	288,49
446	297,776
446,5	310,805
446,9	328,805
447,4	335,49
447,8	347,948
448,3	361,033
448,7	371,805
449,2	382,462
449,6	396,49
450,1	414,576
450,6	434,719
451	447,776
451,5	460,09
451,9	479,69
452,4	500,205
452,8	521,005
453,3	533,062
453,7	549,433
454,2	570,89
454,6	591,005
455,1	605,919
455,5	629,09
456	651,233
456,4	674,519
456,9	696,405
457,3	724,29
457,8	745,919
458,3	778,405
458,7	801,033
459,2	824,005
459,6	850,348
460,1	879,148
460,5	903,662
461	929,548
461,4	956,976
461,9	983,176
462,3	1014,433
462,8	1046,605
463,2	1078,148
463,7	1106,348
464,1	1143,633
464,6	1175,033
465	1205,376
465,5	1233,348
466	1262,033
466,4	1292,776
466,9	1326,376
467,3	1360,09
467,8	1392,062
468,2	1425,233
468,7	1463,233
469,1	1496,776
469,6	1527,776
470	1563,919
470,5	1593,976
470,9	1624,462
471,4	1659,348
471,8	1693,405
472,3	1722,49
472,7	1760,09
473,2	1783,576
473,6	1819,033
474,1	1851,462
474,5	1887,348
475	1920,062
475,4	1957,233
475,9	1992,062
476,4	2031,69
476,8	2067,405
477,3	2105,976
477,7	2144,233
478,2	2177,833
478,6	2212,09
479,1	2239,205
479,5	2279,319
480	2311,176
480,4	2338,805
480,9	2364,948
481,3	2391,005
481,8	2420,576
482,2	2447,09
482,7	2468,462
483,1	2497,119
483,6	2523,376
484	2548,405
484,5	2574,719
484,9	2597,833
485,4	2624,948
485,8	2647,548
486,3	2664,576
486,7	2688,29
487,2	2707,29
487,6	2726,633
488,1	2746,033
488,5	2765,062
489	2779,005
489,4	2794,605
489,9	2814,719
490,4	2832,29
490,8	2850,805
491,3	2865,348
491,7	2876,319
492,2	2894,919
492,6	2913,319
493,1	2916,805
493,5	2925,319
494	2932,462
494,4	2943,062
494,9	2952,69
495,3	2959,433
495,8	2971,548
496,2	2985,862
496,7	2995,49
497,1	3004,833
497,6	3014,262
498	3024,862
498,5	3035,233
498,9	3033,633
499,4	3039,405
499,8	3045,348
500,3	3051,262
500,7	3053,005
501,2	3057,805
501,6	3066,376
502,1	3071,176
502,5	3071,519
503	3077,376
503,4	3079,433
503,9	3089,519
504,3	3093,662
504,8	3088,119
505,2	3088,148
505,7	3099,262
506,1	3101,776
506,6	3105,49
507	3100,462
507,5	3102,49
507,9	3105,09
508,4	3107,662
508,8	3106,776
509,3	3103,148
509,7	3097,948
510,2	3096,548
510,6	3095,548
511,1	3098,69
511,5	3099,148
512	3094,205
512,4	3096,29
512,9	3101,005
513,3	3109,576
513,8	3106,376
514,2	3104,69
514,7	3103,148
515,1	3101,462
515,6	3099,548
516	3096,262
516,5	3089,605
516,9	3085,09
517,4	3081,805
517,8	3077,119
518,3	3069,548
518,7	3066,462
519,2	3062,548
519,6	3061,119
520,1	3061,29
520,5	3062,776
521	3066,862
521,4	3067,176
521,9	3071,319
522,3	3077,062
522,8	3082,49
523,2	3084,833
523,7	3079,033
524,1	3072,005
524,6	3074,205
525	3074,605
525,5	3070,348
525,9	3063,748
526,4	3062,262
526,8	3064,205
527,3	3066,633
527,7	3069,662
528,2	3060,662
528,6	3061,519
529,1	3055,262
529,5	3054,319
530	3058,205
530,4	3059,09
530,9	3057,376
531,3	3058,976
531,8	3059,976
532,2	3064,319
532,6	3072,062
533,1	3067,805
533,5	3073,748
534	3080,262
534,4	3080,719
534,9	3089,862
535,3	3096,033
535,8	3091,948
536,2	3096,29
536,7	3093,033
537,1	3092,49
537,6	3102,062
538	3094,433
538,5	3093,548
538,9	3095,376
539,4	3104,462
539,8	3110,948
540,3	3114,605
540,7	3113,948
541,2	3120,948
541,6	3125,119
542,1	3132,148
542,5	3127,405
543	3124,262
543,4	3127,405
543,9	3127,233
544,3	3133,748
544,8	3134,862
545,2	3136,948
545,7	3144,948
546,1	3157,405
546,5	3159,262
547	3170,005
547,4	3166,719
547,9	3167,262
548,3	3167,576
548,8	3164,262
549,2	3163,49
549,7	3167,262
550,1	3169,49
550,6	3176,29
551	3188,919
551,5	3196,348
551,9	3205,719
552,4	3209,548
552,8	3210,319
553,3	3212,89
553,7	3213,405
554,2	3211,948
554,6	3209,262
555,1	3212,348
555,5	3216,29
555,9	3220,633
556,4	3222,376
556,8	3224,205
557,3	3225,662
557,7	3233,948
558,2	3233,405
558,6	3238,005
559,1	3242,519
559,5	3245,805
560	3251,548
560,4	3254,119
560,9	3259,376
561,3	3267,605
561,8	3270,119
562,2	3271,605
562,7	3279,262
563,1	3278,919
563,6	3279,69
564	3275,205
564,4	3274,69
564,9	3269,719
565,3	3275,176
565,8	3275,833
566,2	3275,862
566,7	3278,205
567,1	3282,233
567,6	3283,833
568	3296,233
568,5	3289,319
568,9	3284,519
569,4	3292,462
569,8	3295,948
570,3	3300,262
570,7	3293,205
571,1	3283,262
571,6	3289,719
572	3294,09
572,5	3292,348
572,9	3297,176
573,4	3293,662
573,8	3299,719
574,3	3301,833
574,7	3297,462
575,2	3293,748
575,6	3290,005
576,1	3283,176
576,5	3276,833
576,9	3273,433
577,4	3269,148
577,8	3266,49
578,3	3258,576
578,7	3256,033
579,2	3255,262
579,6	3259,49
580,1	3259,833
580,5	3255,862
581	3253,805
581,4	3257,748
581,9	3254,09
582,3	3243,29
582,7	3238,919
583,2	3231,519
583,6	3225,148
584,1	3219,376
584,5	3215,948
585	3209,033
585,4	3209,433
585,9	3203,748
586,3	3197,633
586,8	3196,09
587,2	3193,49
587,6	3188,662
588,1	3186,576
588,5	3179,633
589	3173,433
589,4	3168,09
589,9	3165,605
590,3	3161,833
590,8	3156,948
591,2	3151,719
591,7	3152,376
592,1	3147,148
592,5	3143,548
593	3140,748
593,4	3132,633
593,9	3121,09
594,3	3109,233
594,8	3099,548
595,2	3094,348
595,7	3091,576
596,1	3086,29
596,6	3083,033
597	3079,319
597,4	3082,719
597,9	3078,433
598,3	3072,29
598,8	3065,376
599,2	3064,89
599,7	3055,919
600,1	3048,805
600,6	3043,748
601	3035,09
601,4	3032,119
601,9	3024,69
602,3	3016,005
602,8	3013,376
603,2	3015,233
603,7	3010,119
604,1	3006,176
604,6	2995,548
605	2986,633
605,4	2977,405
605,9	2969,776
606,3	2962,005
606,8	2951,548
607,2	2943,719
607,7	2938,433
608,1	2936,948
608,6	2926,776
609	2918,976
609,4	2912,262
609,9	2905,519
610,3	2897,919
610,8	2889,805
611,2	2875,833
611,7	2862,776
612,1	2849,748
612,6	2837,462
613	2832,776
613,4	2821,005
613,9	2814,69
614,3	2809,662
614,8	2800,948
615,2	2796,69
615,7	2784,548
616,1	2767,605
616,6	2755,262
617	2740,033
617,4	2724,633
617,9	2716,748
618,3	2706,89
618,8	2697,405
619,2	2689,033
619,7	2684,948
620,1	2673,29
620,5	2666,576
621	2652,776
621,4	2641,605
621,9	2627,319
622,3	2619,062
622,8	2603,062
623,2	2597,319
623,6	2588,948
624,1	2586,176
624,5	2576,29
625	2567,005
625,4	2555,89
625,9	2548,119
626,3	2530,433
626,8	2520,119
627,2	2508,748
627,6	2496,776
628,1	2487,29
628,5	2475,148
629	2462,748
629,4	2460,29
629,9	2446,662
630,3	2435,233
630,7	2424,862
631,2	2407,862
631,6	2392,348
632,1	2380,49
632,5	2365,805
633	2351,948
633,4	2335,576
633,8	2316,348
634,3	2309,548
634,7	2303,005
635,2	2294,205
635,6	2278,776
636,1	2269,948
636,5	2259,29
636,9	2253,005
637,4	2243,49
637,8	2233,976
638,3	2218,748
638,7	2214,405
639,2	2199,148
639,6	2191,976
640	2179,462
640,5	2168,748
640,9	2154,405
641,4	2143,69
641,8	2130,776
642,2	2128,033
642,7	2117,09
643,1	2114,719
643,6	2104,919
644	2092,948
644,5	2092,519
644,9	2082,605
645,3	2067,748
645,8	2062,033
646,2	2049,49
646,7	2036,748
647,1	2029,433
647,6	2013,09
648	2006,376
648,4	1997,205
648,9	1987,605
649,3	1977,09
649,8	1974,262
650,2	1964,49
650,6	1956,062
651,1	1947,262
651,5	1935,748
652	1922,805
652,4	1910,776
652,9	1900,862
653,3	1893,005
653,7	1886,605
654,2	1876,319
654,6	1869,919
655,1	1855,49
655,5	1851,548
655,9	1839,09
656,4	1829,148
656,8	1816,09
657,3	1799,833
657,7	1784,348
658,2	1775,69
658,6	1759,605
659	1744,833
659,5	1738,633
659,9	1729,233
660,4	1724,719
660,8	1724,033
661,2	1715,033
661,7	1707,976
662,1	1702,176
662,6	1685,033
663	1681,205
663,4	1670,09
663,9	1658,148
664,3	1651,833
664,8	1645,576
665,2	1635,005
665,6	1622,405
666,1	1607,69
666,5	1596,376
667	1584,548
667,4	1577,005
667,9	1562,605
668,3	1557,09
668,7	1552,89
669,2	1546,69
669,6	1541,833
670,1	1536,462
670,5	1521,805
670,9	1515,462
671,4	1503,405
671,8	1493,119
672,3	1484,033
672,7	1467,919
673,1	1459,29
673,6	1453,233
674	1443,662
674,5	1437,805
674,9	1433,376
675,3	1419,748
675,8	1415,605
676,2	1410,005
676,7	1400,576
677,1	1394,748
677,5	1383,519
678	1371,29
678,4	1366,262
678,9	1357,033
679,3	1340,005
679,7	1332,519
680,2	1322,062
680,6	1311,519
681,1	1303,062
681,5	1291,948
681,9	1282,005
682,4	1278,805
682,8	1268,548
683,3	1256,748
683,7	1250,519
684,1	1240,262
684,6	1235,662
685	1233,005
685,5	1222,576
685,9	1215,662
686,3	1214,576
686,8	1210,09
687,2	1208,69
687,7	1201,376
688,1	1194,462
688,5	1187,862
689	1181,605
689,4	1171,49
689,9	1163,119
690,3	1158,805
690,7	1150,805
691,2	1141,776
691,6	1139,033
692	1128,548
692,5	1118,233
692,9	1107,205
693,4	1101,376
693,8	1094,605
694,2	1081,519
694,7	1072,719
695,1	1070,119
695,6	1067,462
696	1065,262
696,4	1052,776
696,9	1048,09
697,3	1046,348
697,8	1037,176
698,2	1030,148
698,6	1026,833
699,1	1018,805
699,5	1013,09
699,9	1007,005
700,4	998,348
700,8	995,833
701,3	985,633
701,7	973,033
702,1	969,405
702,6	963,748
703	953,633
703,5	948,319
703,9	940,976
704,3	943,633
704,8	942,748
705,2	935,576
705,6	923,148
706,1	922,662
706,5	918,948
707	913,805
707,4	906,433
707,8	901,09
708,3	893,719
708,7	898,49
709,2	888,548
709,6	884,176
710	873,262
710,5	866,462
710,9	856,462
711,3	852,148
711,8	843,519
712,2	839,433
712,7	833,89
713,1	835,405
713,5	827,948
714	825,233
714,4	820,148
714,8	815,348
715,3	814,176
715,7	803,805
716,2	794,062
716,6	792,49
717	783,433
717,5	776,89
717,9	769,919
718,3	760,119
718,8	758,233
719,2	755,148
719,7	749,205
720,1	744,89
720,5	743,319
721	738,69
721,4	736,919
721,8	730,919
722,3	722,262
722,7	711,548
723,2	706,519
723,6	697,462
724	691,748
724,5	680,805
724,9	679,748
725,3	672,776
725,8	669,376
726,2	663,976
726,7	658,548
727,1	648,376
727,5	644,49
728	639,548
728,4	637,405
728,8	636,348
729,3	632,348
729,7	632,948
730,1	629,919
730,6	629,976
731	628,176
731,5	629,89
731,9	628,176
732,3	630,662
732,8	626,548
733,2	626,633
733,6	624,033
734,1	618,605
734,5	607,462
734,9	600,433
735,4	593,948
735,8	588,776
736,3	589,09
736,7	583,719
737,1	581,49
737,6	584,29
738	579,862
738,4	576,919
738,9	579,633
739,3	568,548
739,7	562,862
740,2	555,033
740,6	551,862
741,1	553,433
741,5	551,376
741,9	538,148
742,4	541,633
742,8	541,29
743,2	540,862
743,7	536,462
744,1	527,033
744,5	522,262
745	522,119
745,4	515,89
745,8	515,09
746,3	514,062
746,7	506,49
747,2	506,805
747,6	503,662
748	500,69
748,5	497,862
748,9	487,49
749,3	485,69
749,8	487,519
750,2	486,862
750,6	483,148
751,1	481,062
751,5	480,148
751,9	482,09
752,4	473,376
752,8	466,805
753,3	463,062
753,7	459,748
754,1	453,09
754,6	447,976
755	443,062
755,4	444,49
755,9	445,69
756,3	437,862
756,7	433,748
757,2	437,033
757,6	433,519
758	432,119
758,5	426,29
758,9	420,148
759,3	418,09
759,8	418,633
760,2	414,148
760,6	413,462
761,1	409,29
761,5	413,148
761,9	414,776
762,4	414,948
762,8	412,119
763,3	406,576
763,7	401,719
764,1	396,119
764,6	388,205
765	379,09
765,4	378,576
765,9	373,09
766,3	368,519
766,7	367,948
767,2	370,348
767,6	365,605
768	364,805
768,5	359,062
768,9	355,005
769,3	356,262
769,8	355,462
770,2	355,319
770,6	352,69
771,1	352,119
771,5	349,719
771,9	347,062
772,4	349,09
772,8	346,576
773,2	343,948
773,7	348,519
774,1	350,09
774,5	347,719
775	345,062
775,4	342,805
775,8	339,633
776,3	333,805
776,7	327,119
777,1	326,033
777,6	323,633
778	327,119
778,4	320,348
778,9	318,605
779,3	321,662
779,7	321,233
780,2	312,29
780,6	315,89
781	313,205
781,5	313,176
781,9	315,462
782,3	307,976
782,8	301,548
783,2	301,548
783,6	296,862
784,1	294,376
784,5	293,462
784,9	289,519
785,4	294,748
785,8	291,69
786,2	291,233
786,7	286,433
787,1	280,548
787,5	276,576
788	269,89
788,4	260,805
788,8	262,348
789,3	262,233
789,7	261,548
790,1	263,376
790,6	266,062
791	266,405
791,4	262,376
791,9	260,348
792,3	256,033
792,7	256,29
793,2	254,319
793,6	249,805
794	249,005
794,5	250,262
794,9	250,005
795,3	247,976
795,8	244,662
796,2	241,519
796,6	235,976
797,1	230,862
797,5	229,319
797,9	227,262
798,4	226,833
798,8	221,348
799,2	221,633
799,7	224,233
800,1	225,719
800,5	225,062
801	222,719
801,4	216,776
801,8	215,89
802,2	214,548
802,7	210,919
803,1	206,862
803,5	205,919
804	202,09
804,4	202,662
804,8	203,948
805,3	199,805
805,7	200,29
806,1	203,633
806,6	204,348
807	207,633
807,4	203,862
807,9	203,862
808,3	204,148
808,7	202,005
809,2	196,919
809,6	191,005
810	186,576
810,4	188,948
810,9	183,49
811,3	184,862
811,7	181,319
812,2	185,233
812,6	185,119
813	184,319
813,5	181,29
813,9	182,948
814,3	178,033
814,8	176,376
815,2	169,976
815,6	170,319
816,1	168,205
816,5	167,605
816,9	165,376
817,3	162,805
817,8	168,748
818,2	163,633
818,6	160,433
819,1	162,005
819,5	160,633
819,9	154,862
820,4	152,776
820,8	143,319
821,2	150,748
821,7	151,176
822,1	148,319
822,5	150,29
822,9	156,833
823,4	160,548
823,8	161,576
824,2	158,576
824,7	158,348
825,1	157,576
825,5	156,29
826	153,976
826,4	148,776
826,8	148,119
827,3	145,948
827,7	144,633
828,1	144,576
828,5	144,719
829	142,519
829,4	144,319
829,8	139,948
830,3	138,576
830,7	133,348
831,1	130,976
831,6	125,805
832	122,833
832,4	118,319
832,8	123,49
833,3	118,348
833,7	120,605
834,1	119,033
834,6	114,576
835	118,405
835,4	123,548
835,8	114,576
836,3	114,376
836,7	111,633
837,1	108,319
837,6	107,633
838	101,776
838,4	97,462
838,9	108,233
839,3	110,148
839,7	108,833
840,1	107,462
840,6	109,433
841	110,233
841,4	107,119
841,9	102,176
842,3	102,49
842,7	99,548
843,1	102,862
843,6	101,748
844	103,176
844,4	107,976
844,9	105,462
845,3	99,633
845,7	104,976
846,2	105,976
846,6	108,433
847	106,262
847,4	100,805
847,9	99,233
848,3	104,748
848,7	102,976
849,2	101,833
849,6	99,776
850	95,462
850,4	100,148
850,9	100,805
851,3	96,119
851,7	92,862
852,2	85,719
852,6	83,89
853	89,29
853,4	87,405
853,9	83,405
854,3	82,09
854,7	76,948
855,2	82,519
855,6	78,662
856	72,833
856,4	69,462
856,9	70,69
857,3	71,405
857,7	79,233
858,2	74,805
858,6	81,69
859	79,719
859,4	78,948
859,9	77,976
860,3	77,348
860,7	73,433
861,1	76,205
861,6	74,319
862	76,062
862,4	76,662
862,9	77,948
863,3	73,062
863,7	70,948
864,1	69,605
864,6	66,005
865	64,29
865,4	61,348
865,9	58,205
866,3	61,833
866,7	62,919
867,1	63,833
867,6	61,319
868	65,462
868,4	62,948
868,8	66,633
869,3	65,833
869,7	61,748
870,1	61,462
870,6	64,005
871	51,948
871,4	51,776
871,8	49,119
872,3	49,062
872,7	47,548
873,1	46,262
873,5	46,233
874	55,69
874,4	56,376
874,8	55,233
875,3	54,09
875,7	59,205
876,1	55,148
876,5	56,748
877	55,405
877,4	56,919
877,8	58,348
878,2	61,948
878,7	65,262
879,1	68,776
879,5	64,176
879,9	64,719
880,4	60,976
880,8	58,119
881,2	57,633
881,7	55,948
882,1	53,462
882,5	52,948
882,9	52,833
883,4	59,948
883,8	61,405
884,2	57,462
884,6	55,433
885,1	61,29
885,5	65,148
885,9	65,405
886,3	60,09
886,8	53,519
887,2	55,176
887,6	51,862
888	42,176
888,5	41,376
888,9	37,833
889,3	33,605
889,8	38,005
890,2	32,833
890,6	33,805
891	36,748
891,5	38,262
891,9	39,262
892,3	40,748
892,7	42,233
893,2	46,348
893,6	44,633
894	42,119
894,4	40,148
894,9	41,233
895,3	46,233
895,7	43,69
896,1	42,748
896,6	45,033
897	46,519
897,4	42,49
897,8	38,29
898,3	41,062
898,7	37,519
899,1	35,976
899,5	31,29
900	28,633
900,4	26,519
900,8	31,805
901,2	26,262
901,7	29,805
902,1	29,576
902,5	33,148
902,9	38,176
903,4	43,348
903,8	36,062
904,2	38,89
904,6	30,862
905,1	33,548
905,5	33,205
905,9	31,49
906,3	29,319
906,8	35,033
907,2	32,09
907,6	41,033
908	35,233
908,5	31,519
908,9	31,462
909,3	29,205
909,7	24,205
910,2	21,776
910,6	21,148
911	24,376
911,4	23,633
911,9	22,348
912,3	18,176
912,7	19,862
913,1	17,548
913,6	16,719
914	14,919
914,4	14,976
914,8	16,576
915,3	21,748
915,7	21,348
916,1	23,805
916,5	21,205
916,9	23,319
917,4	22,548
917,8	20,062
918,2	17,205
918,6	17,776
919,1	17,633
919,5	21,519
919,9	20,862
920,3	22,205
920,8	21,519
921,2	27,69
921,6	26,205
922	25,29
922,5	22,976
922,9	21,548
923,3	22,548
923,7	21,405
924,2	15,89
924,6	18,376
925	17,29
925,4	18,262
925,8	19,49
926,3	25,09
926,7	26,548
927,1	28,433
927,5	28,805
928	29,89
928,4	29,748
928,8	31,748
929,2	28,862
929,7	28,09
930,1	29,148
930,5	24,376
930,9	27,633
931,3	27,605
931,8	21,69
932,2	20,433
932,6	21,919
933	17,719
933,5	18,376
933,9	14,176
934,3	14,176
934,7	17,862
935,2	19,319
935,6	18,405
936	20,49
936,4	23,405
936,8	22,062
937,3	20,805
937,7	20,69
938,1	15,262
938,5	11,719
939	12,29
939,4	11,976
939,8	13,262
940,2	13,69
940,6	9,833
941,1	16,462
941,5	20,405
941,9	22,748
942,3	20,033
942,8	16,976
943,2	13,09
943,6	17,09
944	11,748
944,4	6,262
944,9	2,748
945,3	4,433
945,7	6,776
946,1	8,09
946,6	5,662
947	5,805
947,4	10,405
947,8	12,519
948,2	8,49
948,7	11,405
949,1	9,433
949,5	11,605
949,9	14,262
950,3	11,548
950,8	10,119
951,2	14,433
951,6	13,862
952	13,89
952,5	10,348
952,9	7,148
953,3	7,376
953,7	6,919
954,1	7,262
954,6	7,49
955	10,062
955,4	11,633
955,8	16,319
956,2	13,119
956,7	11,919
957,1	7,719
957,5	7,405
957,9	5,176
958,3	6,833
958,8	5,433
959,2	8,719
959,6	13,262
960	17,09
960,5	13,176
960,9	14,948
961,3	15,205
961,7	11,148
962,1	11,062
962,6	4,948
963	4,062
963,4	5,433
963,8	3,776
964,2	0,633
964,7	2,576
965,1	4,776
965,5	5,49
965,9	6,89
966,3	6,462
966,8	11,405
967,2	12,605
967,6	11,148
968	10,776
968,4	17,405
968,9	20,519
969,3	25,348
969,7	21,919
970,1	24,348
970,5	27,605
971	21,233
971,4	20,005
971,8	15,405
972,2	14,662
972,6	14,405
973,1	13,633
973,5	10,233
973,9	16,462
974,3	8,376
974,7	5,976
975,2	1,833
975,6	-4,024
976	-3,081
976,4	-3,367
976,8	-6,824
977,3	-2,138
977,7	-1,452
978,1	-0,795
978,5	5,69
978,9	3,776
979,4	5,062
979,8	5,89
980,2	1,319
980,6	2,662
981	2,119
981,5	-0,052
981,9	-0,51
982,3	-4,195
982,7	-4,652
983,1	0,262
983,6	-4,452
984	3,405
984,4	9,148
984,8	12,719
985,2	14,176
985,6	17,148
986,1	13,605
986,5	14,776
986,9	9,176
987,3	3,49
987,7	0,833
988,2	7,033
988,6	6,719
989	7,69
989,4	14,176
989,8	7,405
990,3	6,005
990,7	5,748
991,1	0,719
991,5	-1,11
991,9	4,69
992,3	2,033
992,8	12,462
993,2	16,433
993,6	17,776
994	16,005
994,4	17,605
994,9	15,376
995,3	15,205
995,7	13,005
996,1	11,09
996,5	6,662
996,9	6,519
997,4	6,29
997,8	1,976
998,2	4,433
998,6	4,348
999	5,633
999,5	7,862
999,9	10,119
1000,3	11,348
1000,7	12,319
1001,1	8,49
1001,5	3,748
1002	0,633
1002,4	-0,138
1002,8	0,633
1003,2	-1,51
1003,6	0,862
1004	0,262
1004,5	1,862
1004,9	5,319
1005,3	3,862
1005,7	-0,367
1006,1	-1,71
1006,6	-0,538
1007	2,262
1007,4	1,405
1007,8	0,919
1008,2	1,833
1008,6	1,833
1009,1	3,919
1009,5	6,776
1009,9	8,805
1010,3	13,433
1010,7	17,548
1011,1	21,662
1011,6	24,033
1012	24,519
1012,4	23,548
1012,8	14,633
1013,2	13,09
1013,6	7,519
1014,1	9,233
1014,5	10,148
1014,9	9,433
1015,3	3,719
1015,7	8,29
1016,1	7,662
1016,6	14,89
1017	12,605
1017,4	9,605
1017,8	5,89
1018,2	6,319
1018,6	10,49
1019,1	8,662
1019,5	3,948
1019,9	8,89
1020,3	11,605
1020,7	15,405
1021,1	19,89
1021,6	14,062
1022	10,576
1022,4	12,548
1022,8	3,748
1023,2	4,033
1023,6	3,748
1024,1	4,69
1024,5	7,319
1024,9	18,205
1025,3	13,005
1025,7	15,776
1026,1	20,119
1026,6	21,348
1027	16,633
1027,4	15,919
1027,8	8,376
1028,2	10,49
1028,6	9,119
1029	1,748
1029,5	2,29
1029,9	3,662
1030,3	9,862
1030,7	10,233
1031,1	7,919
1031,5	6,805
1032	12,662
1032,4	11,776
1032,8	10,205
1033,2	1,948
1033,6	4,348
1034	7,148
1034,4	11,119
1034,9	6,976
1035,3	9,519
1035,7	12,205
1036,1	16,09
1036,5	10,205
1036,9	7,262
1037,4	4,376
1037,8	6,062
1038,2	-4,767
1038,6	-9,567
1039	-9,767
1039,4	-4,395
1039,8	-8,881
1040,3	-7,595
1040,7	-9,967
1041,1	-2,338
1041,5	-2,367
1041,9	-3,31
1042,3	-2,91
1042,7	7,29
1043,2	7,576
1043,6	14,405
1044	8,09
1044,4	9,09
1044,8	5,376
1045,2	7,948
1045,6	6,433
1046,1	6,519
1046,5	4,348
1046,9	11,605
1047,3	13,662
1047,7	13,69
1048,1	9,148
1048,5	2,49
1049	4,348
1049,4	1,462
1049,8	-1,024
1050,2	-3,224
1050,6	-0,51
1051	3,776
1051,4	8,69
1051,9	9,119
1052,3	5,176
1052,7	8,576
1053,1	12,862
1053,5	11,033
1053,9	10,148
1054,3	11,433
1054,8	11,748
1055,2	15,29
1055,6	14,148
1056	8,662
1056,4	7,662
1056,8	4,548
1057,2	5,233
1057,6	-0,424
1058,1	4,976
1058,5	3,89
1058,9	5,519
1059,3	13,89
1059,7	6,262
1060,1	4,69
1060,5	1,433
1061	-4,681
1061,4	2,633
1061,8	1,519
1062,2	1,662
1062,6	9,348
1063	5,376
1063,4	8,833
1063,8	8,862
1064,3	5,233
1064,7	6,976
1065,1	3,976
1065,5	3,062
1065,9	6,633
1066,3	2,348
1066,7	4,233
1067,1	-3,024
1067,6	-1,195
1068	-2,938
1068,4	1,09
1068,8	0,89
1069,2	4,49
1069,6	4,405
1070	10,548
1070,4	6,976
1070,9	6,348
1071,3	4,605
1071,7	6,319
1072,1	12,633
1072,5	13,576
1072,9	13,576
1073,3	17,119
1073,7	19,433
1074,2	19,033
1074,6	17,376
1075	13,69
1075,4	12,833
1075,8	12,433
1076,2	9,49
1076,6	5,948
1077	0,262
1077,5	-0,51
1077,9	0,89
1078,3	1,205
1078,7	0,805
1079,1	2,376
1079,5	-0,995
1079,9	4,776
1080,3	7,519
1080,7	7,005
1081,2	6,805
1081,6	6,433
1082	8,376
1082,4	11,148
1082,8	7,405
1083,2	1,462
1083,6	-0,138
1084	-4,538
1084,5	-3,881
1084,9	-6,881
1085,3	-6,11
1085,7	-4,281
1086,1	-2,795
1086,5	0,776
1086,9	5,319
1087,3	6,49
1087,7	10,148
1088,2	7,89
1088,6	6,062
1089	4,233
1089,4	0,233
1089,8	1,719
1090,2	1,548
1090,6	-2,767
1091	4,262
1091,4	6,062
1091,9	11,176
1092,3	11,119
1092,7	9,405
1093,1	6,176
1093,5	6,633
1093,9	9,176
1094,3	9,205
1094,7	7,548
1095,1	3,976
1095,5	5,062
1096	5,119
1096,4	7,662
1096,8	2,919
1097,2	1,262
1097,6	2,719
1098	8,862
1098,4	6,519
1098,8	7,005
1099,2	3,948
1099,6	5,405
1100,1	9,233
1100,5	8,29
1100,9	5,233
1101,3	7,376
1101,7	11,005
1102,1	12,348
1102,5	13,605
1102,9	8,49
1103,3	9,405
1103,7	8,176
1104,2	8,519
1104,6	6,69
1105	7,176
1105,4	3,176
1105,8	6,805
1106,2	5,376
1106,6	6,462
1107	3,976
1107,4	1,567
1107,8	0,913
1108,3	0,483
