Data from Subt2_273.txt Node
Date: Sat Aug 26 19:04:33 MSK 2023
User: vat
Spectrometer: MAYP114033
Trigger mode: 0
Integration Time (sec): 1,000000E0
Scans to average: 5
Electric dark correction enabled: true
Nonlinearity correction enabled: false
Boxcar width: 3
XAxis mode: Wavelengths
Number of Pixels in Spectrum: 2068
>>>>>Begin Spectral Data<<<<<
199,4	0,383
199,9	1,293
200,4	-0,267
200,8	-0,524
201,3	0,99
201,8	5,448
202,2	5,276
202,7	9,533
203,2	8,505
203,6	6,762
204,1	6,162
204,6	5,733
205	2,762
205,5	3,362
206	2,39
206,4	2,733
206,9	3,076
207,4	5,876
207,8	4,648
208,3	4,876
208,8	3,905
209,2	3,705
209,7	6,305
210,2	11,819
210,6	10,876
211,1	12,876
211,5	8,076
212	11,076
212,5	6,962
212,9	3,99
213,4	2,133
213,9	0,133
214,3	1,362
214,8	5,962
215,3	1,99
215,7	7,276
216,2	10,79
216,7	10,448
217,1	11,876
217,6	13,276
218,1	13,676
218,5	17,39
219	8,848
219,5	10,876
219,9	8,105
220,4	17,505
220,9	15,248
221,3	18,876
221,8	17,819
222,3	23,333
222,7	21,533
223,2	22,705
223,6	12,476
224,1	10,362
224,6	6,419
225	2,19
225,5	3,905
226	1,619
226,4	1,448
226,9	3,448
227,4	5,333
227,8	-0,981
228,3	2,848
228,8	4,162
229,2	10,19
229,7	12,248
230,2	10,219
230,6	12,419
231,1	21,876
231,5	23,533
232	20,105
232,5	15,619
232,9	17,076
233,4	21,276
233,9	15,048
234,3	10,219
234,8	8,105
235,3	7,333
235,7	5,619
236,2	3,762
236,7	3,705
237,1	6,105
237,6	4,505
238,1	0,933
238,5	-3,41
239	-0,838
239,4	2,248
239,9	-4,41
240,4	-4,695
240,8	-0,21
241,3	1,819
241,8	3,848
242,2	-0,295
242,7	-5,724
243,2	1,105
243,6	2,048
244,1	3,676
244,6	5,133
245	6,905
245,5	9,276
245,9	7,305
246,4	7,733
246,9	7,848
247,3	3,962
247,8	1,905
248,3	7,848
248,7	5,019
249,2	9,819
249,7	7,79
250,1	9,905
250,6	8,848
251	13,505
251,5	11,762
252	14,276
252,4	15,105
252,9	12,39
253,4	7,505
253,8	6,276
254,3	3,248
254,8	3,048
255,2	3,305
255,7	2,505
256,1	5,505
256,6	11,219
257,1	14,848
257,5	15,79
258	11,505
258,5	8,848
258,9	6,419
259,4	5,305
259,9	0,505
260,3	-5,552
260,8	-6,038
261,2	-8,152
261,7	-7,21
262,2	-9,067
262,6	-14,952
263,1	-9,067
263,6	-3,467
264	-3,524
264,5	6,79
264,9	4,762
265,4	6,962
265,9	12,933
266,3	10,648
266,8	12,048
267,3	10,105
267,7	2,848
268,2	7,333
268,7	9,219
269,1	12,705
269,6	7,762
270	7,933
270,5	7,619
271	6,019
271,4	6,305
271,9	0,705
272,4	0,79
272,8	3,276
273,3	-1,695
273,7	1,705
274,2	2,048
274,7	-1,124
275,1	5,362
275,6	2,505
276,1	-3,41
276,5	2,876
277	2,848
277,4	3,733
277,9	6,733
278,4	7,448
278,8	7,419
279,3	15,476
279,8	15,048
280,2	16,676
280,7	19,619
281,1	17,705
281,6	16,505
282,1	16,648
282,5	16,248
283	13,505
283,4	11,762
283,9	11,419
284,4	13,79
284,8	14,562
285,3	10,79
285,8	11,733
286,2	14,59
286,7	11,619
287,1	10,076
287,6	7,305
288,1	2,505
288,5	4,79
289	3,362
289,5	1,333
289,9	1,876
290,4	5,305
290,8	5,79
291,3	9,562
291,8	13,819
292,2	10,733
292,7	11,648
293,1	12,448
293,6	8,648
294,1	8,076
294,5	4,162
295	1,476
295,5	2,733
295,9	1,162
296,4	-2,152
296,8	-4,781
297,3	-4,552
297,8	-4,095
298,2	-5,352
298,7	-2,01
299,1	0,848
299,6	3,876
300,1	9,219
300,5	9,162
301	15,476
301,5	20,99
301,9	21,162
302,4	15,076
302,8	14,476
303,3	14,705
303,8	12,876
304,2	3,848
304,7	-2,381
305,1	-8,524
305,6	-4,381
306,1	2,476
306,5	0,448
307	8,333
307,4	15,99
307,9	16,962
308,4	18,219
308,8	13,162
309,3	7,79
309,8	7,648
310,2	3,105
310,7	-2,895
311,1	-3,524
311,6	1,362
312,1	7,99
312,5	8,705
313	6,648
313,4	7,162
313,9	12,762
314,4	13,019
314,8	9,648
315,3	6,362
315,7	2,962
316,2	3,362
316,7	1,048
317,1	5,162
317,6	3,562
318	8,648
318,5	8,562
319	10,333
319,4	12,276
319,9	15,848
320,3	9,762
320,8	8,533
321,3	7,248
321,7	6,762
322,2	7,248
322,6	7,019
323,1	2,076
323,6	3,933
324	3,162
324,5	-2,638
324,9	-0,324
325,4	-2,81
325,9	-0,695
326,3	3,276
326,8	1,705
327,2	2,848
327,7	1,99
328,2	1,305
328,6	4,19
329,1	-2,752
329,5	-4,181
330	-4,81
330,5	-1,181
330,9	3,705
331,4	0,048
331,8	-0,867
332,3	4,419
332,8	3,962
333,2	5,476
333,7	7,105
334,1	4,705
334,6	6,333
335,1	1,505
335,5	3,848
336	-0,924
336,4	-1,095
336,9	-0,152
337,4	3,876
337,8	2,648
338,3	5,562
338,7	2,762
339,2	7,048
339,7	6,819
340,1	2,505
340,6	0,705
341	-0,352
341,5	5,076
342	6,076
342,4	5,619
342,9	3,762
343,3	7,362
343,8	5,733
344,2	10,219
344,7	13,133
345,2	9,99
345,6	11,362
346,1	15,705
346,5	7,505
347	4,076
347,5	0,733
347,9	-1,552
348,4	1,476
348,8	3,219
349,3	1,048
349,8	8,505
350,2	16,476
350,7	17,562
351,1	15,39
351,6	19,505
352	18,79
352,5	19,505
353	26,933
353,4	30,505
353,9	37,305
354,3	47,619
354,8	51,99
355,3	69,933
355,7	92,476
356,2	102,39
356,6	117,962
357,1	143,219
357,5	166,762
358	196,219
358,5	218,848
358,9	247,419
359,4	287,99
359,8	331,648
360,3	380,533
360,8	432,333
361,2	490,619
361,7	563,762
362,1	643,448
362,6	724,905
363	812,962
363,5	904,019
364	1004,419
364,4	1101,962
364,9	1199,476
365,3	1289,59
365,8	1380,619
366,3	1462,248
366,7	1537,876
367,2	1604,79
367,6	1660,848
368,1	1706,305
368,5	1737,59
369	1750,019
369,5	1754,848
369,9	1741,019
370,4	1716,648
370,8	1674,333
371,3	1618,105
371,7	1557,219
372,2	1491,305
372,7	1419,505
373,1	1344,619
373,6	1261,019
374	1191,39
374,5	1116,905
374,9	1042,476
375,4	970,476
375,9	899,619
376,3	830,733
376,8	768,076
377,2	705,162
377,7	643,133
378,2	583,305
378,6	532,962
379,1	492,19
379,5	454,99
380	416,59
380,4	381,305
380,9	352,048
381,4	325,933
381,8	301,448
382,3	276,362
382,7	254,39
383,2	236,876
383,6	218,676
384,1	201,905
384,6	191,705
385	174,762
385,5	164,848
385,9	152,105
386,4	141,305
386,8	138,048
387,3	130,419
387,7	118,905
388,2	119,19
388,7	109,305
389,1	102,448
389,6	95,648
390	85,276
390,5	83,333
390,9	82,905
391,4	74,79
391,9	69,276
392,3	65,248
392,8	60,362
393,2	55,905
393,7	52,333
394,1	45,79
394,6	41,59
395,1	42,476
395,5	41,59
396	46,162
396,4	46,105
396,9	45,648
397,3	49,59
397,8	52,076
398,2	48,105
398,7	47,248
399,2	41,448
399,6	41,248
400,1	40,448
400,5	35,419
401	34,419
401,4	31,962
401,9	33,448
402,4	33,848
402,8	30,676
403,3	35,99
403,7	32,905
404,2	35,219
404,6	41,39
405,1	33,848
405,5	30,362
406	28,933
406,5	22,562
406,9	26,533
407,4	21,733
407,8	18,19
408,3	27,505
408,7	27,648
409,2	31,133
409,6	30,476
410,1	34,219
410,6	38,819
411	38,076
411,5	36,076
411,9	40,276
412,4	45,448
412,8	49,362
413,3	51,276
413,7	50,276
414,2	53,619
414,7	58,333
415,1	62,476
415,6	62,305
416	64,476
416,5	64,305
416,9	65,705
417,4	68,39
417,8	72,562
418,3	75,39
418,8	81,39
419,2	81,619
419,7	86,305
420,1	91,848
420,6	90,476
421	86,048
421,5	87,076
421,9	85,733
422,4	84,619
422,8	82,105
423,3	79,048
423,8	78,19
424,2	76,905
424,7	73,076
425,1	70,19
425,6	78,362
426	74,19
426,5	72,133
426,9	76,476
427,4	74,419
427,9	67,733
428,3	66,076
428,8	58,419
429,2	56,076
429,7	55,362
430,1	49,39
430,6	51,362
431	55,476
431,5	54,048
431,9	51,562
432,4	56,733
432,8	58,648
433,3	61,362
433,8	59,733
434,2	62,733
434,7	66,333
435,1	65,905
435,6	67,733
436	67,962
436,5	71,419
436,9	72,59
437,4	71,505
437,8	72,562
438,3	77,105
438,8	73,019
439,2	71,533
439,7	71,933
440,1	77,962
440,6	80,819
441	77,676
441,5	79,876
441,9	87,505
442,4	88,59
442,8	89,819
443,3	90,219
443,7	97,905
444,2	105,848
444,7	107,076
445,1	107,162
445,6	115,762
446	120,905
446,5	120,762
446,9	115,248
447,4	118,676
447,8	127,59
448,3	134,133
448,7	138,962
449,2	144,962
449,6	155,819
450,1	163,248
450,6	169,39
451	173,476
451,5	180,533
451,9	191,019
452,4	199,819
452,8	201,133
453,3	215,705
453,7	220,219
454,2	228,848
454,6	234,162
455,1	236,762
455,5	235,962
456	254,333
456,4	253,076
456,9	261,876
457,3	267,762
457,8	270,79
458,3	280,276
458,7	292,962
459,2	293,962
459,6	303,762
460,1	313,019
460,5	320,39
461	335,562
461,4	343,876
461,9	354,105
462,3	366,819
462,8	380,876
463,2	387,962
463,7	398,162
464,1	410,105
464,6	424,99
465	434,19
465,5	446,333
466	457,39
466,4	471,762
466,9	489,476
467,3	498,79
467,8	506,619
468,2	517,705
468,7	527,79
469,1	544,733
469,6	557,505
470	566,305
470,5	578,219
470,9	591,019
471,4	602,99
471,8	613,562
472,3	620,133
472,7	632,362
473,2	643,219
473,6	652,79
474,1	666,619
474,5	679,448
475	695,133
475,4	711,848
475,9	730,762
476,4	740,39
476,8	757,419
477,3	766,076
477,7	781,533
478,2	791,876
478,6	799,362
479,1	801,105
479,5	817,676
480	825,248
480,4	841,676
480,9	851,533
481,3	859,933
481,8	871,333
482,2	879,59
482,7	888,448
483,1	899,505
483,6	902,048
484	908,99
484,5	918,448
484,9	927,333
485,4	942,933
485,8	951,048
486,3	962,848
486,7	976,733
487,2	986,276
487,6	999,79
488,1	1003,333
488,5	1007,876
489	1019,19
489,4	1025,476
489,9	1028,419
490,4	1037,933
490,8	1043,019
491,3	1054,933
491,7	1063,648
492,2	1066,248
492,6	1075,99
493,1	1084,333
493,5	1089,19
494	1091,076
494,4	1097,533
494,9	1101,876
495,3	1111,219
495,8	1113,59
496,2	1122,99
496,7	1124,705
497,1	1134,476
497,6	1138,59
498	1150,19
498,5	1158,048
498,9	1163,248
499,4	1167,276
499,8	1179,933
500,3	1184,333
500,7	1186,305
501,2	1183,105
501,6	1179,133
502,1	1185,79
502,5	1190,562
503	1186,39
503,4	1186,819
503,9	1191,562
504,3	1200,905
504,8	1208,419
505,2	1212,533
505,7	1211,076
506,1	1221,219
506,6	1226,819
507	1232,848
507,5	1234,59
507,9	1240,733
508,4	1241,476
508,8	1248,105
509,3	1245,819
509,7	1246,733
510,2	1248,39
510,6	1249,533
511,1	1251,59
511,5	1255,905
512	1255,333
512,4	1268,076
512,9	1274,819
513,3	1285,876
513,8	1292,048
514,2	1298,39
514,7	1301,305
515,1	1308,648
515,6	1306,333
516	1312,076
516,5	1317,276
516,9	1324,19
517,4	1324,362
517,8	1330,762
518,3	1335,133
518,7	1337,448
519,2	1339,219
519,6	1334,705
520,1	1338,162
520,5	1343,19
521	1344,162
521,4	1349,79
521,9	1360,848
522,3	1367,133
522,8	1375,99
523,2	1378,19
523,7	1385,562
524,1	1394,905
524,6	1402,219
525	1403,933
525,5	1408,733
525,9	1414,99
526,4	1418,762
526,8	1419,419
527,3	1424,533
527,7	1432,476
528,2	1441,048
528,6	1442,733
529,1	1447,619
529,5	1457,248
530	1464,99
530,4	1468,99
530,9	1470,99
531,3	1476,876
531,8	1483,933
532,2	1489,105
532,6	1492,762
533,1	1497,676
533,5	1503,19
534	1507,248
534,4	1511,99
534,9	1521,419
535,3	1525,105
535,8	1531,562
536,2	1538,933
536,7	1545,276
537,1	1550,048
537,6	1550,476
538	1555,219
538,5	1567,276
538,9	1569,648
539,4	1575,533
539,8	1583,305
540,3	1594,533
540,7	1600,733
541,2	1603,39
541,6	1600,933
542,1	1611,19
542,5	1619,762
543	1623,448
543,4	1626,019
543,9	1639,19
544,3	1648,419
544,8	1656,276
545,2	1662,476
545,7	1668,048
546,1	1679,648
546,5	1689,305
547	1693,248
547,4	1703,762
547,9	1709,248
548,3	1717,905
548,8	1723,105
549,2	1720,305
549,7	1719,533
550,1	1730,333
550,6	1729,476
551	1736,905
551,5	1735,076
551,9	1735,248
552,4	1745,305
552,8	1753,019
553,3	1750,162
553,7	1758,362
554,2	1762,819
554,6	1772,448
555,1	1779,333
555,5	1783,076
555,9	1790,362
556,4	1797,648
556,8	1797,333
557,3	1807,305
557,7	1810,362
558,2	1814,533
558,6	1816,848
559,1	1814,448
559,5	1813,448
560	1818,848
560,4	1818,019
560,9	1823,79
561,3	1825,648
561,8	1827,933
562,2	1837,419
562,7	1847,305
563,1	1857,19
563,6	1858,962
564	1861,533
564,4	1865,219
564,9	1872,276
565,3	1875,59
565,8	1878,39
566,2	1877,933
566,7	1882,419
567,1	1886,333
567,6	1893,79
568	1893,419
568,5	1894,676
568,9	1892,19
569,4	1890,619
569,8	1896,962
570,3	1895,19
570,7	1890,676
571,1	1896,762
571,6	1899,876
572	1911,619
572,5	1916,705
572,9	1910,105
573,4	1915,276
573,8	1924,819
574,3	1920,905
574,7	1918,048
575,2	1909,019
575,6	1910,362
576,1	1918,762
576,5	1920,533
576,9	1912,362
577,4	1910,476
577,8	1911,59
578,3	1911,619
578,7	1904,819
579,2	1901,048
579,6	1897,905
580,1	1897,733
580,5	1899,962
581	1902,419
581,4	1900,533
581,9	1899,733
582,3	1898,876
582,7	1898,419
583,2	1897,99
583,6	1898,305
584,1	1895,905
584,5	1894,276
585	1895,79
585,4	1885,333
585,9	1878,848
586,3	1883,933
586,8	1880,962
587,2	1873,276
587,6	1877,333
588,1	1875,505
588,5	1876,876
589	1881,019
589,4	1871,533
589,9	1868,19
590,3	1868,105
590,8	1859,562
591,2	1856,648
591,7	1860,19
592,1	1854,019
592,5	1856,676
593	1851,533
593,4	1847,048
593,9	1839,448
594,3	1835,705
594,8	1826,848
595,2	1823,533
595,7	1818,876
596,1	1816,648
596,6	1815,762
597	1823,819
597,4	1824,248
597,9	1826,676
598,3	1824,133
598,8	1816,562
599,2	1815,248
599,7	1810,019
600,1	1801,276
600,6	1794,676
601	1792,019
601,4	1792,162
601,9	1797,305
602,3	1795,39
602,8	1795,562
603,2	1792,39
603,7	1789,333
604,1	1785,019
604,6	1778,648
605	1765,505
605,4	1757,905
605,9	1748,105
606,3	1740,276
606,8	1735,705
607,2	1729,105
607,7	1718,962
608,1	1711,019
608,6	1711,162
609	1715,105
609,4	1713,962
609,9	1705,248
610,3	1696,848
610,8	1693,562
611,2	1694,648
611,7	1684,819
612,1	1673,048
612,6	1666,019
613	1665,733
613,4	1658,476
613,9	1655,219
614,3	1645,362
614,8	1643,59
615,2	1634,19
615,7	1626,419
616,1	1617,019
616,6	1610,219
617	1603,476
617,4	1598,019
617,9	1591,019
618,3	1589,79
618,8	1587,248
619,2	1579,219
619,7	1578,676
620,1	1567,933
620,5	1566,848
621	1559,362
621,4	1547,962
621,9	1537,105
622,3	1535,733
622,8	1525,705
623,2	1526,733
623,6	1515,705
624,1	1508,79
624,5	1504,848
625	1507,562
625,4	1500,59
625,9	1496,19
626,3	1484,276
626,8	1478,39
627,2	1474,533
627,6	1462,562
628,1	1444,619
628,5	1435,676
629	1423,648
629,4	1415,905
629,9	1407,648
630,3	1390,419
630,7	1383,79
631,2	1379,162
631,6	1374,562
632,1	1370,648
632,5	1364,019
633	1360,076
633,4	1357,048
633,8	1354,705
634,3	1347,619
634,7	1335,962
635,2	1326,619
635,6	1319,648
636,1	1310,333
636,5	1299,39
636,9	1287,105
637,4	1283,848
637,8	1276,705
638,3	1273,133
638,7	1264,876
639,2	1257,333
639,6	1257,333
640	1253,876
640,5	1244,076
640,9	1239,876
641,4	1233,19
641,8	1230,762
642,2	1224,19
642,7	1220,648
643,1	1219,962
643,6	1211,99
644	1207,39
644,5	1202,705
644,9	1196,676
645,3	1189,79
645,8	1174,962
646,2	1166,219
646,7	1166,019
647,1	1154,99
647,6	1146,533
648	1138,39
648,4	1134,819
648,9	1136,505
649,3	1126,305
649,8	1121,676
650,2	1116,762
650,6	1113,648
651,1	1112,733
651,5	1105,876
652	1098,648
652,4	1092,162
652,9	1083,99
653,3	1078,762
653,7	1071,19
654,2	1060,448
654,6	1053,105
655,1	1048,276
655,5	1050,133
655,9	1041,705
656,4	1037,705
656,8	1033,733
657,3	1026,476
657,7	1026,219
658,2	1021,762
658,6	1012,362
659	1006,19
659,5	998,876
659,9	988,876
660,4	985,333
660,8	976,048
661,2	969,933
661,7	964,448
662,1	960,048
662,6	956,733
663	948,79
663,4	940,676
663,9	934,048
664,3	927,476
664,8	917,505
665,2	909,133
665,6	896,619
666,1	896,79
666,5	896,848
667	893,933
667,4	884,105
667,9	880,505
668,3	875,59
668,7	871,505
669,2	868,99
669,6	857,876
670,1	849,362
670,5	845,619
670,9	843,362
671,4	836,648
671,8	837,933
672,3	833,876
672,7	833,733
673,1	824,076
673,6	817,476
674	809,448
674,5	805,648
674,9	792,648
675,3	780,819
675,8	773,476
676,2	774,562
676,7	769,819
677,1	765,819
677,5	758,59
678	760,79
678,4	757,533
678,9	755,19
679,3	750,076
679,7	746,476
680,2	740,333
680,6	735,505
681,1	724,419
681,5	721,99
681,9	716,476
682,4	712,648
682,8	712,562
683,3	713,476
683,7	713,962
684,1	713,105
684,6	705,076
685	696,362
685,5	691,448
685,9	677,933
686,3	666,305
686,8	657,505
687,2	653,476
687,7	647,733
688,1	640,848
688,5	635,248
689	636,048
689,4	633,048
689,9	627,019
690,3	617,99
690,7	612,448
691,2	612,79
691,6	609,476
692	605,59
692,5	602,819
692,9	604,219
693,4	602,019
693,8	598,676
694,2	590,99
694,7	582,848
695,1	571,99
695,6	572,733
696	567,076
696,4	564,419
696,9	559,962
697,3	555,848
697,8	555,533
698,2	552,819
698,6	546,819
699,1	545,076
699,5	545,59
699,9	544,505
700,4	540,505
700,8	535,59
701,3	537,39
701,7	526,505
702,1	520,248
702,6	514,333
703	511,876
703,5	510,448
703,9	507,762
704,3	504,648
704,8	504,219
705,2	502,048
705,6	495,533
706,1	488,248
706,5	484,019
707	482,419
707,4	480,362
707,8	477,276
708,3	476,448
708,7	478,362
709,2	481,276
709,6	473,705
710	476,533
710,5	467,105
710,9	467,019
711,3	462,419
711,8	456,59
712,2	452,105
712,7	454,99
713,1	445,733
713,5	447,848
714	445,019
714,4	440,705
714,8	437,248
715,3	432,076
715,7	429,876
716,2	421,59
716,6	418,133
717	411,505
717,5	406,848
717,9	405,476
718,3	399,99
718,8	393,648
719,2	396,676
719,7	394,133
720,1	396,076
720,5	397,848
721	390,019
721,4	388,362
721,8	390,162
722,3	383,762
722,7	383,933
723,2	372,876
723,6	359,619
724	357,133
724,5	351,619
724,9	345,59
725,3	342,448
725,8	332,848
726,2	336,333
726,7	339,705
727,1	339,648
727,5	340,79
728	337,705
728,4	338,333
728,8	337,448
729,3	332,59
729,7	328,333
730,1	329,248
730,6	328,933
731	324,19
731,5	319,59
731,9	317,162
732,3	317,333
732,8	319,219
733,2	315,333
733,6	309,333
734,1	308,39
734,5	307,59
734,9	308,848
735,4	308,848
735,8	301,962
736,3	304,305
736,7	302,505
737,1	306,219
737,6	304,419
738	302,648
738,4	297,533
738,9	298,876
739,3	293,59
739,7	292,848
740,2	287,562
740,6	289,705
741,1	287,248
741,5	283,59
741,9	282,619
742,4	284,905
742,8	285,99
743,2	286,333
743,7	282,448
744,1	278,248
744,5	276,133
745	270,562
745,4	263,19
745,8	259,419
746,3	254,076
746,7	250,848
747,2	253,105
747,6	258,305
748	263,533
748,5	262,79
748,9	257,59
749,3	257,076
749,8	258,362
750,2	257,333
750,6	246,505
751,1	244,105
751,5	239,762
751,9	243,848
752,4	243,819
752,8	240,076
753,3	232,133
753,7	235,933
754,1	233,99
754,6	230,619
755	224,676
755,4	225,619
755,9	224,676
756,3	219,476
756,7	215,305
757,2	214,162
757,6	218,676
758	218,905
758,5	215,048
758,9	213,048
759,3	220,19
759,8	222,076
760,2	219,933
760,6	218,99
761,1	219,762
761,5	217,305
761,9	214,419
762,4	208,733
762,8	203,533
763,3	200,219
763,7	195,848
764,1	193,848
764,6	193,305
765	192,619
765,4	195,848
765,9	199,476
766,3	197,19
766,7	194,619
767,2	192,99
767,6	196,476
768	195,99
768,5	189,762
768,9	189,619
769,3	192,276
769,8	191,562
770,2	194,79
770,6	188,476
771,1	190,362
771,5	195,219
771,9	194,419
772,4	192,19
772,8	190,362
773,2	186,162
773,7	183,619
774,1	180,076
774,5	172,19
775	165,419
775,4	161,905
775,8	161,476
776,3	162,505
776,7	164,419
777,1	162,248
777,6	168,076
778	174,048
778,4	174,048
778,9	172,076
779,3	167,876
779,7	167,905
780,2	171,305
780,6	164,448
781	154,19
781,5	149,419
781,9	150,162
782,3	148,476
782,8	144,162
783,2	140,276
783,6	142,162
784,1	144,99
784,5	145,848
784,9	143,705
785,4	146,19
785,8	147,048
786,2	143,305
786,7	140,305
787,1	136,962
787,5	137,19
788	140,533
788,4	136,419
788,8	134,476
789,3	133,105
789,7	136,676
790,1	139,676
790,6	146,533
791	136,933
791,4	140,219
791,9	136,419
792,3	135,333
792,7	135,39
793,2	134,562
793,6	128,105
794	133,676
794,5	127,419
794,9	132,39
795,3	135,99
795,8	131,448
796,2	130,533
796,6	128,933
797,1	126,562
797,5	125,933
797,9	122,019
798,4	114,048
798,8	112,562
799,2	108,276
799,7	109,39
800,1	107,162
800,5	106,876
801	109,962
801,4	113,162
801,8	111,19
802,2	113,248
802,7	107,219
803,1	107,648
803,5	107,705
804	99,219
804,4	102,133
804,8	102,162
805,3	103,362
805,7	105,876
806,1	105,819
806,6	107,905
807	108,505
807,4	104,305
807,9	98,79
808,3	97,419
808,7	99,448
809,2	103,162
809,6	103,533
810	105,162
810,4	104,505
810,9	110,676
811,3	108,39
811,7	105,162
812,2	104,305
812,6	101,362
813	104,619
813,5	104,162
813,9	98,619
814,3	99,762
814,8	95,848
815,2	93,048
815,6	90,305
816,1	87,362
816,5	87,79
816,9	91,762
817,3	88,933
817,8	100,619
818,2	97,733
818,6	94,048
819,1	91,933
819,5	91,619
819,9	90,733
820,4	90,562
820,8	79,333
821,2	73,562
821,7	76,59
822,1	79,39
822,5	82,219
822,9	82,019
823,4	79,476
823,8	82,048
824,2	87,648
824,7	82,248
825,1	73,105
825,5	65,762
826	61,39
826,4	64,733
826,8	61,648
827,3	63,762
827,7	63,876
828,1	67,276
828,5	66,99
829	65,076
829,4	63,048
829,8	57,705
830,3	51,562
830,7	51,762
831,1	53,648
831,6	53,305
832	56,562
832,4	54,505
832,8	59,762
833,3	64,705
833,7	64,962
834,1	62,562
834,6	63,048
835	63,505
835,4	66,419
835,8	61,676
836,3	57,305
836,7	60,533
837,1	56,676
837,6	58,705
838	53,39
838,4	51,305
838,9	55,362
839,3	53,676
839,7	51,562
840,1	51,219
840,6	48,219
841	54,362
841,4	53,276
841,9	48,733
842,3	47,333
842,7	43,505
843,1	45,333
843,6	46,162
844	42,39
844,4	42,505
844,9	47,105
845,3	52,39
845,7	54,762
846,2	54,59
846,6	52,019
847	54,276
847,4	58,705
847,9	53,59
848,3	49,733
848,7	50,476
849,2	49,619
849,6	46,962
850	46,733
850,4	42,248
850,9	46,705
851,3	48,39
851,7	47,333
852,2	48,362
852,6	52,105
853	50,733
853,4	48,076
853,9	44,39
854,3	43,448
854,7	43,505
855,2	40,905
855,6	44,305
856	40,533
856,4	40,448
856,9	39,819
857,3	41,562
857,7	43,562
858,2	48,133
858,6	45,762
859	48,419
859,4	48,419
859,9	48,99
860,3	44,733
860,7	46,362
861,1	45,219
861,6	41,848
862	40,933
862,4	42,305
862,9	41,048
863,3	40,505
863,7	36,019
864,1	35,619
864,6	33,019
865	35,876
865,4	36,219
865,9	43,676
866,3	41,79
866,7	45,39
867,1	45,648
867,6	45,533
868	41,905
868,4	38,248
868,8	31,476
869,3	33,562
869,7	34,505
870,1	31,39
870,6	32,248
871	-19,752
871,4	-13,267
871,8	-12,324
872,3	-11,267
872,7	-14,21
873,1	-13,181
873,5	-9,895
874	38,019
874,4	37,276
874,8	32,419
875,3	33,39
875,7	30,162
876,1	33,99
876,5	29,305
877	30,048
877,4	21,362
877,8	27,905
878,2	28,105
878,7	28,905
879,1	24,733
879,5	30,876
879,9	34,648
880,4	40,105
880,8	38,362
881,2	36,762
881,7	36,99
882,1	38,648
882,5	33,219
882,9	28,619
883,4	24,562
883,8	24,162
884,2	22,076
884,6	21,705
885,1	22,19
885,5	26,19
885,9	27,105
886,3	32,448
886,8	31,448
887,2	31,905
887,6	29,505
888	27,505
888,5	25,305
888,9	25,019
889,3	16,333
889,8	15,133
890,2	14,819
890,6	12,905
891	11,533
891,5	10,648
891,9	17,505
892,3	22,305
892,7	24,19
893,2	29,133
893,6	35,133
894	37,105
894,4	37,39
894,9	32,162
895,3	29,648
895,7	29,819
896,1	24,276
896,6	23,362
897	18,79
897,4	25,505
897,8	27,819
898,3	31,848
898,7	27,048
899,1	28,276
899,5	28,105
900	26,819
900,4	20,276
900,8	13,562
901,2	7,048
901,7	8,248
902,1	7,905
902,5	9,676
902,9	10,105
903,4	11,705
903,8	17,448
904,2	21,219
904,6	22,39
905,1	22,848
905,5	17,876
905,9	20,505
906,3	22,19
906,8	22,676
907,2	21,933
907,6	23,276
908	22,619
908,5	21,676
908,9	12,905
909,3	9,019
909,7	6,476
910,2	10,876
910,6	14,733
911	14,476
911,4	18,733
911,9	29,648
912,3	27,162
912,7	30,39
913,1	28,648
913,6	21,733
914	25,705
914,4	22,419
914,8	21,276
915,3	22,619
915,7	21,705
916,1	20,562
916,5	23,933
916,9	17,99
917,4	19,076
917,8	18,99
918,2	16,19
918,6	12,162
919,1	15,676
919,5	16,905
919,9	19,248
920,3	15,162
920,8	12,848
921,2	14,562
921,6	14,733
922	12,933
922,5	8,533
922,9	8,99
923,3	10,162
923,7	11,819
924,2	9,962
924,6	13,619
925	7,562
925,4	11,133
925,8	12,448
926,3	16,933
926,7	15,962
927,1	17,905
927,5	18,39
928	20,876
928,4	18,876
928,8	19,276
929,2	15,676
929,7	15,076
930,1	19,19
930,5	17,79
930,9	22,562
931,3	24,79
931,8	23,476
932,2	25,59
932,6	24,505
933	18,333
933,5	18,305
933,9	21,533
934,3	20,162
934,7	17,19
935,2	16,248
935,6	17,79
936	21,848
936,4	22,048
936,8	15,79
937,3	15,133
937,7	20,59
938,1	22,905
938,5	19,962
939	17,533
939,4	18,133
939,8	17,476
940,2	20,476
940,6	19,505
941,1	16,819
941,5	24,562
941,9	23,562
942,3	18,762
942,8	21,362
943,2	18,676
943,6	13,705
944	10,848
944,4	8,305
944,9	6,048
945,3	10,19
945,7	5,276
946,1	3,133
946,6	-0,981
947	3,162
947,4	5,076
947,8	8,048
948,2	4,533
948,7	6,419
949,1	7,733
949,5	18,048
949,9	14,476
950,3	12,619
950,8	11,648
951,2	12,419
951,6	8,79
952	14,362
952,5	7,019
952,9	8,619
953,3	5,219
953,7	7,362
954,1	11,848
954,6	16,476
955	15,333
955,4	15,876
955,8	18,162
956,2	18,819
956,7	17,305
957,1	12,762
957,5	13,59
957,9	10,562
958,3	12,276
958,8	12,419
959,2	15,105
959,6	19,448
960	19,362
960,5	22,048
960,9	25,848
961,3	23,733
961,7	21,619
962,1	21,762
962,6	18,419
963	20,876
963,4	14,905
963,8	10,648
964,2	16,876
964,7	18,819
965,1	17,648
965,5	20,276
965,9	15,933
966,3	21,333
966,8	21,733
967,2	15,905
967,6	16,733
968	13,39
968,4	11,99
968,9	15,219
969,3	15,733
969,7	14,505
970,1	18,79
970,5	15,733
971	23,076
971,4	20,19
971,8	20,019
972,2	17,876
972,6	15,705
973,1	13,219
973,5	13,39
973,9	7,79
974,3	10,99
974,7	11,048
975,2	13,162
975,6	16,248
976	16,448
976,4	13,533
976,8	12,933
977,3	9,39
977,7	7,305
978,1	1,905
978,5	-2,695
978,9	-5,467
979,4	-4,238
979,8	-4,295
980,2	-2,152
980,6	-4,752
981	0,076
981,5	6,19
981,9	5,39
982,3	7,419
982,7	9,19
983,1	8,305
983,6	13,59
984	13,19
984,4	11,019
984,8	11,905
985,2	10,248
985,6	7,962
986,1	9,819
986,5	9,59
986,9	4,533
987,3	4,676
987,7	7,133
988,2	3,59
988,6	5,619
989	4,076
989,4	2,876
989,8	4,762
990,3	0,248
990,7	4,076
991,1	8,39
991,5	7,105
991,9	10,962
992,3	12,133
992,8	12,905
993,2	16,19
993,6	13,562
994	14,533
994,4	15,876
994,9	12,733
995,3	9,962
995,7	7,705
996,1	8,19
996,5	7,076
996,9	5,39
997,4	5,219
997,8	0,59
998,2	1,905
998,6	-6,495
999	-6,695
999,5	-5,781
999,9	-2,152
1000,3	-4,781
1000,7	-1,267
1001,1	-5,352
1001,5	4,59
1002	11,962
1002,4	10,819
1002,8	9,133
1003,2	15,276
1003,6	16,876
1004	23,876
1004,5	22,362
1004,9	17,962
1005,3	15,505
1005,7	15,076
1006,1	11,562
1006,6	8,276
1007	8,648
1007,4	7,248
1007,8	5,99
1008,2	7,705
1008,6	11,248
1009,1	7,305
1009,5	10,019
1009,9	7,476
1010,3	10,533
1010,7	9,248
1011,1	11,476
1011,6	9,048
1012	15,59
1012,4	13,048
1012,8	13,562
1013,2	18,162
1013,6	19,19
1014,1	17,848
1014,5	14,219
1014,9	11,533
1015,3	10,933
1015,7	11,476
1016,1	6,105
1016,6	4,733
1017	8,79
1017,4	10,933
1017,8	9,219
1018,2	10,676
1018,6	9,933
1019,1	5,848
1019,5	5,448
1019,9	-2,752
1020,3	-0,438
1020,7	3,762
1021,1	8,876
1021,6	7,133
1022	11,533
1022,4	11,362
1022,8	17,019
1023,2	15,876
1023,6	14,705
1024,1	17,848
1024,5	19,448
1024,9	16,648
1025,3	15,448
1025,7	14,105
1026,1	14,248
1026,6	16,59
1027	6,933
1027,4	7,19
1027,8	10,019
1028,2	10,305
1028,6	13,419
1029	8,99
1029,5	8,619
1029,9	12,705
1030,3	9,762
1030,7	8,476
1031,1	11,048
1031,5	6,505
1032	9,219
1032,4	5,39
1032,8	5,076
1033,2	5,562
1033,6	7,419
1034	6,619
1034,4	7,333
1034,9	6,048
1035,3	6,162
1035,7	6,819
1036,1	3,276
1036,5	1,419
1036,9	2,133
1037,4	7,876
1037,8	6,905
1038,2	6,876
1038,6	4,105
1039	11,59
1039,4	14,562
1039,8	11,533
1040,3	7,048
1040,7	10,076
1041,1	11,533
1041,5	15,19
1041,9	12,076
1042,3	10,419
1042,7	13,105
1043,2	12,505
1043,6	7,105
1044	7,99
1044,4	10,362
1044,8	12,39
1045,2	13,533
1045,6	15,505
1046,1	15,762
1046,5	22,39
1046,9	17,533
1047,3	12,648
1047,7	11,448
1048,1	10,39
1048,5	9,676
1049	9,248
1049,4	11,505
1049,8	12,705
1050,2	14,59
1050,6	21,276
1051	21,876
1051,4	16,419
1051,9	19,648
1052,3	20,505
1052,7	20,99
1053,1	19,219
1053,5	12,162
1053,9	8,162
1054,3	11,019
1054,8	8,305
1055,2	5,533
1055,6	7,305
1056	8,562
1056,4	7,99
1056,8	11,648
1057,2	9,848
1057,6	7,39
1058,1	4,219
1058,5	1,419
1058,9	2,819
1059,3	6,476
1059,7	8,162
1060,1	10,505
1060,5	13,933
1061	20,219
1061,4	22,105
1061,8	22,848
1062,2	22,733
1062,6	20,19
1063	20,99
1063,4	18,333
1063,8	12,733
1064,3	9,276
1064,7	7,162
1065,1	4,048
1065,5	0,619
1065,9	0,076
1066,3	3,39
1066,7	2,762
1067,1	2,962
1067,6	6,276
1068	3,648
1068,4	6,99
1068,8	4,648
1069,2	3,962
1069,6	4,876
1070	7,419
1070,4	4,762
1070,9	6,876
1071,3	8,448
1071,7	11,562
1072,1	11,305
1072,5	9,076
1072,9	9,39
1073,3	10,305
1073,7	10,448
1074,2	7,39
1074,6	6,219
1075	1,362
1075,4	3,905
1075,8	10,848
1076,2	9,419
1076,6	10,733
1077	10,876
1077,5	15,962
1077,9	15,476
1078,3	14,305
1078,7	10,819
1079,1	11,162
1079,5	10,333
1079,9	13,59
1080,3	9,933
1080,7	14,762
1081,2	22,248
1081,6	19,933
1082	17,248
1082,4	22,076
1082,8	19,648
1083,2	20,076
1083,6	19,419
1084	10,533
1084,5	10,819
1084,9	6,276
1085,3	-4,067
1085,7	-1,41
1086,1	-2,238
1086,5	0,362
1086,9	4,962
1087,3	4,962
1087,7	10,533
1088,2	17,39
1088,6	9,648
1089	11,305
1089,4	5,619
1089,8	2,962
1090,2	-0,038
1090,6	1,19
1091	0,448
1091,4	8,133
1091,9	4,99
1092,3	8,99
1092,7	10,733
1093,1	18,99
1093,5	16,362
1093,9	15,933
1094,3	16,79
1094,7	15,476
1095,1	12,619
1095,5	11,276
1096	4,476
1096,4	4,762
1096,8	5,19
1097,2	1,762
1097,6	7,59
1098	9,362
1098,4	10,476
1098,8	12,133
1099,2	21,248
1099,6	17,648
1100,1	16,905
1100,5	10,276
1100,9	11,79
1101,3	11,162
1101,7	9,448
1102,1	1,362
1102,5	7,276
1102,9	11,99
1103,3	17,848
1103,7	16,19
1104,2	14,933
1104,6	16,19
1105	13,533
1105,4	10,248
1105,8	5,676
1106,2	1,533
1106,6	0,219
1107	0,048
1107,4	-1,9
1107,8	0,333
1108,3	-0,567
