Data from Subt2_318.txt Node
Date: Sat Aug 26 19:16:53 MSK 2023
User: vat
Spectrometer: MAYP114033
Trigger mode: 0
Integration Time (sec): 1,000000E0
Scans to average: 5
Electric dark correction enabled: true
Nonlinearity correction enabled: false
Boxcar width: 3
XAxis mode: Wavelengths
Number of Pixels in Spectrum: 2068
>>>>>Begin Spectral Data<<<<<
199,4	0,067
199,9	1,807
200,4	1,5
200,8	4,91
201,3	4,91
201,8	6,652
202,2	4,281
202,7	8,424
203,2	8,281
203,6	8,767
204,1	3,395
204,6	0,624
205	0,624
205,5	2,595
206	0,081
206,4	1,024
206,9	2,938
207,4	6,424
207,8	8,881
208,3	7,51
208,8	9,624
209,2	13,767
209,7	13,424
210,2	12,195
210,6	10,081
211,1	13,195
211,5	11,052
212	10,252
212,5	8,367
212,9	4,795
213,4	6,767
213,9	8,938
214,3	6,967
214,8	9,881
215,3	10,881
215,7	9,31
216,2	15,424
216,7	16,795
217,1	12,881
217,6	18,367
218,1	21,395
218,5	17,852
219	16,367
219,5	14,081
219,9	7,567
220,4	20,852
220,9	20,51
221,3	16,71
221,8	22,11
222,3	22,367
222,7	23,424
223,2	25,91
223,6	15,31
224,1	8,51
224,6	13,11
225	5,138
225,5	5,967
226	4,224
226,4	5,51
226,9	7,652
227,4	11,081
227,8	3,795
228,3	8,424
228,8	8,081
229,2	10,595
229,7	9,052
230,2	8,938
230,6	12,138
231,1	19,824
231,5	22,424
232	26,481
232,5	21,224
232,9	24,224
233,4	24,51
233,9	22,51
234,3	18,281
234,8	15,424
235,3	9,281
235,7	13,91
236,2	14,11
236,7	10,652
237,1	9,652
237,6	6,738
238,1	5,624
238,5	3,452
239	0,31
239,4	2,538
239,9	2,881
240,4	1,281
240,8	7,252
241,3	5,51
241,8	8,624
242,2	10,738
242,7	3,395
243,2	3,71
243,6	1,424
244,1	2,167
244,6	5,195
245	1,995
245,5	1,31
245,9	2,195
246,4	1,452
246,9	6,71
247,3	1,71
247,8	5,052
248,3	12,195
248,7	12,281
249,2	16,11
249,7	20,081
250,1	17,252
250,6	17,995
251	19,738
251,5	16,681
252	15,938
252,4	19,195
252,9	16,767
253,4	14,967
253,8	14,538
254,3	11,767
254,8	12,024
255,2	12,481
255,7	7,71
256,1	6,395
256,6	11,795
257,1	14,281
257,5	10,795
258	11,167
258,5	13,681
258,9	13,852
259,4	13,567
259,9	11,252
260,3	6,167
260,8	4,338
261,2	0,052
261,7	-2,433
262,2	-4,862
262,6	-2,976
263,1	-0,748
263,6	2,452
264	10,195
264,5	15,252
264,9	13,024
265,4	13,195
265,9	10,938
266,3	12,71
266,8	16,024
267,3	9,881
267,7	7,967
268,2	7,31
268,7	8,652
269,1	11,767
269,6	4,795
270	5,91
270,5	5,452
271	5,938
271,4	8,224
271,9	3,252
272,4	5,967
272,8	9,595
273,3	3,31
273,7	6,081
274,2	2,652
274,7	4,252
275,1	9,424
275,6	5,11
276,1	3,767
276,5	8,167
277	6,538
277,4	11,881
277,9	13,681
278,4	15,738
278,8	19,424
279,3	18,71
279,8	21,538
280,2	24,31
280,7	22,167
281,1	19,595
281,6	19,51
282,1	18,567
282,5	20,538
283	17,052
283,4	13,652
283,9	14,081
284,4	17,595
284,8	19,224
285,3	17,195
285,8	19,281
286,2	17,252
286,7	20,138
287,1	18,224
287,6	15,738
288,1	10,31
288,5	13,138
289	7,224
289,5	13,624
289,9	8,967
290,4	12,081
290,8	12,252
291,3	13,11
291,8	13,595
292,2	14,224
292,7	14,481
293,1	15,167
293,6	16,252
294,1	15,624
294,5	17,567
295	13,624
295,5	12,767
295,9	8,31
296,4	8,424
296,8	6,024
297,3	4,967
297,8	2,91
298,2	0,252
298,7	5,252
299,1	3,167
299,6	2,852
300,1	5,31
300,5	8,595
301	9,167
301,5	16,681
301,9	13,538
302,4	14,367
302,8	18,967
303,3	15,281
303,8	9,224
304,2	9,91
304,7	4,91
305,1	3,424
305,6	6,338
306,1	9,624
306,5	13,881
307	18,567
307,4	22,938
307,9	22,138
308,4	26,138
308,8	23,738
309,3	18,424
309,8	14,424
310,2	15,51
310,7	8,138
311,1	10,338
311,6	10,767
312,1	12,138
312,5	14,824
313	16,795
313,4	13,681
313,9	20,081
314,4	20,424
314,8	14,31
315,3	13,224
315,7	12,024
316,2	11,624
316,7	13,938
317,1	15,052
317,6	13,995
318	18,852
318,5	14,795
319	13,024
319,4	14,052
319,9	21,024
320,3	19,71
320,8	16,281
321,3	15,395
321,7	21,138
322,2	22,024
322,6	22,338
323,1	14,167
323,6	10,624
324	13,281
324,5	13,595
324,9	12,024
325,4	11,852
325,9	15,595
326,3	16,881
326,8	21,138
327,2	17,767
327,7	16,31
328,2	18,71
328,6	15,624
329,1	5,91
329,5	7,852
330	6,138
330,5	11,052
330,9	17,91
331,4	12,652
331,8	11,938
332,3	16,71
332,8	13,481
333,2	10,452
333,7	10,652
334,1	6,138
334,6	6,738
335,1	7,281
335,5	8,052
336	3,224
336,4	5,338
336,9	13,738
337,4	14,452
337,8	17,338
338,3	19,795
338,7	23,738
339,2	29,31
339,7	29,481
340,1	16,481
340,6	16,252
341	13,052
341,5	10,338
342	5,081
342,4	0,024
342,9	-0,662
343,3	3,852
343,8	1,224
344,2	2,052
344,7	10,852
345,2	6,195
345,6	12,367
346,1	14,681
346,5	12,824
347	13,938
347,5	17,595
347,9	14,881
348,4	20,424
348,8	18,224
349,3	15,995
349,8	19,195
350,2	24,91
350,7	21,881
351,1	18,71
351,6	20,252
352	25,995
352,5	33,595
353	38,595
353,4	42,481
353,9	52,624
354,3	68,281
354,8	80,51
355,3	97,167
355,7	114,995
356,2	138,11
356,6	160,967
357,1	187,595
357,5	213,938
358	254,024
358,5	289,11
358,9	330,795
359,4	379,938
359,8	436,367
360,3	502,367
360,8	572,024
361,2	643,71
361,7	732,395
362,1	827,367
362,6	929,31
363	1040,681
363,5	1156,681
364	1286,51
364,4	1417,881
364,9	1543,567
365,3	1668,052
365,8	1784,395
366,3	1894,967
366,7	1991,995
367,2	2079,652
367,6	2146,681
368,1	2202,481
368,5	2236,195
369	2254,367
369,5	2259,567
369,9	2245,395
370,4	2202,881
370,8	2152,395
371,3	2085,052
371,7	2014,767
372,2	1932,224
372,7	1835,338
373,1	1739,338
373,6	1644,481
374	1547,31
374,5	1447,852
374,9	1346,424
375,4	1253,995
375,9	1160,024
376,3	1066,71
376,8	979,652
377,2	899,767
377,7	825,281
378,2	758,11
378,6	691,995
379,1	634,31
379,5	585,624
380	540,595
380,4	495,652
380,9	458,081
381,4	422,652
381,8	391,052
382,3	366,195
382,7	342,452
383,2	319,11
383,6	299,138
384,1	275,424
384,6	257,881
385	238,852
385,5	221,71
385,9	201,938
386,4	186,652
386,8	174,738
387,3	165,052
387,7	154,424
388,2	148,338
388,7	137,652
389,1	130,852
389,6	124,538
390	115,167
390,5	110,252
390,9	103,395
391,4	96,538
391,9	87,452
392,3	86,367
392,8	76,938
393,2	70,967
393,7	66,795
394,1	63,738
394,6	60,224
395,1	63,995
395,5	57,91
396	60,252
396,4	59,024
396,9	56,538
397,3	59,767
397,8	57,624
398,2	50,538
398,7	54,481
399,2	51,167
399,6	55,252
400,1	54,681
400,5	48,652
401	47,767
401,4	46,624
401,9	45,167
402,4	46,824
402,8	42,195
403,3	44,824
403,7	40,938
404,2	48,11
404,6	51,881
405,1	46,481
405,5	43,91
406	44,31
406,5	41,681
406,9	45,767
407,4	37,081
407,8	36,738
408,3	40,538
408,7	41,595
409,2	44,11
409,6	46,281
410,1	48,567
410,6	55,51
411	57,767
411,5	60,481
411,9	58,852
412,4	61,081
412,8	63,081
413,3	59,595
413,7	57,738
414,2	55,481
414,7	57,424
415,1	67,281
415,6	68,567
416	71,424
416,5	77,967
416,9	79,91
417,4	86,081
417,8	93,338
418,3	92,024
418,8	95,681
419,2	95,624
419,7	94,91
420,1	94,652
420,6	93,71
421	88,824
421,5	90,081
421,9	90,052
422,4	92,395
422,8	91,338
423,3	92,081
423,8	89,11
424,2	87,11
424,7	86,967
425,1	85,31
425,6	81,224
426	81,852
426,5	84,138
426,9	91,395
427,4	89,281
427,9	84,967
428,3	85,795
428,8	87,224
429,2	85,624
429,7	79,367
430,1	74,424
430,6	78,424
431	83,281
431,5	82,767
431,9	81,538
432,4	86,652
432,8	93,538
433,3	97,852
433,8	94,91
434,2	95,995
434,7	96,224
435,1	101,481
435,6	102,024
436	99,624
436,5	98,71
436,9	101,71
437,4	101,595
437,8	103,91
438,3	104,281
438,8	104,538
439,2	109,795
439,7	116,595
440,1	120,652
440,6	128,681
441	126,71
441,5	131,938
441,9	136,881
442,4	137,11
442,8	137,681
443,3	141,767
443,7	144,224
444,2	155,138
444,7	160,281
445,1	171,452
445,6	183,138
446	188,767
446,5	189,338
446,9	189,767
447,4	195,367
447,8	204,51
448,3	206,567
448,7	207,71
449,2	217,452
449,6	231,567
450,1	238,681
450,6	252,91
451	261,595
451,5	273,052
451,9	290,51
452,4	301,252
452,8	308,767
453,3	324,881
453,7	329,024
454,2	336,71
454,6	346,51
455,1	352,252
455,5	358,11
456	378,081
456,4	385,281
456,9	401,967
457,3	419,338
457,8	425,91
458,3	442,824
458,7	459,567
459,2	467,081
459,6	486,195
460,1	500,024
460,5	506,995
461	531,424
461,4	538,167
461,9	553,31
462,3	570,824
462,8	586,167
463,2	597,881
463,7	619,138
464,1	634,881
464,6	660,452
465	682,252
465,5	699,538
466	717,681
466,4	735,881
466,9	753,91
467,3	767,367
467,8	781,367
468,2	797,081
468,7	812,395
469,1	833,481
469,6	852,595
470	870,538
470,5	892,167
470,9	915,91
471,4	930,31
471,8	947,167
472,3	966,252
472,7	986,395
473,2	1000,224
473,6	1019,567
474,1	1038,052
474,5	1060,395
475	1086,11
475,4	1102,852
475,9	1125,452
476,4	1145,91
476,8	1159,938
477,3	1173,052
477,7	1192,824
478,2	1211,052
478,6	1227,824
479,1	1237,938
479,5	1251,338
480	1268,195
480,4	1292,538
480,9	1305,652
481,3	1316,71
481,8	1334,852
482,2	1351,11
482,7	1368,595
483,1	1386,595
483,6	1394,395
484	1408,11
484,5	1424,624
484,9	1434,91
485,4	1447,195
485,8	1461,938
486,3	1475,995
486,7	1490,567
487,2	1501,281
487,6	1512,167
488,1	1520,395
488,5	1531,395
489	1543,024
489,4	1551,195
489,9	1559,995
490,4	1570,652
490,8	1575,481
491,3	1589,967
491,7	1595,424
492,2	1601,51
492,6	1604,938
493,1	1612,138
493,5	1614,538
494	1616,995
494,4	1620,852
494,9	1627,024
495,3	1634,995
495,8	1639,995
496,2	1646,681
496,7	1655,024
497,1	1664,252
497,6	1667,224
498	1677,395
498,5	1680,024
498,9	1680,652
499,4	1677,624
499,8	1683,052
500,3	1684,31
500,7	1681,252
501,2	1673,567
501,6	1669,967
502,1	1672,31
502,5	1675,167
503	1674,338
503,4	1672,395
503,9	1671,852
504,3	1678,567
504,8	1684,938
505,2	1688,281
505,7	1686,167
506,1	1686,595
506,6	1691,11
507	1692,852
507,5	1690,338
507,9	1687,967
508,4	1684,424
508,8	1686,71
509,3	1684,51
509,7	1683,624
510,2	1681,852
510,6	1678,367
511,1	1680,395
511,5	1681,652
512	1677,595
512,4	1675,081
512,9	1675,224
513,3	1678,281
513,8	1681,138
514,2	1677,395
514,7	1676,31
515,1	1680,452
515,6	1678,538
516	1674,281
516,5	1678,224
516,9	1678,71
517,4	1678,281
517,8	1680,338
518,3	1672,995
518,7	1673,767
519,2	1673,652
519,6	1671,481
520,1	1670,624
520,5	1666,71
521	1662,195
521,4	1668,967
521,9	1674,252
522,3	1676,367
522,8	1672,852
523,2	1675,424
523,7	1678,281
524,1	1680,71
524,6	1677,395
525	1671,081
525,5	1666,624
525,9	1670,738
526,4	1662,367
526,8	1663,224
527,3	1665,11
527,7	1670,852
528,2	1674,338
528,6	1676,652
529,1	1676,852
529,5	1690,738
530	1691,138
530,4	1692,024
530,9	1692,481
531,3	1697,452
531,8	1703,252
532,2	1706,595
532,6	1700,395
533,1	1703,424
533,5	1706,052
534	1701,91
534,4	1700,681
534,9	1702,395
535,3	1699,338
535,8	1699,595
536,2	1702,052
536,7	1703,052
537,1	1711,567
537,6	1713,624
538	1719,195
538,5	1724,852
538,9	1726,738
539,4	1731,51
539,8	1733,167
540,3	1734,652
540,7	1739,681
541,2	1731,995
541,6	1740,51
542,1	1749,624
542,5	1753,738
543	1756,11
543,4	1756,024
543,9	1759,567
544,3	1773,938
544,8	1766,567
545,2	1767,567
545,7	1767,652
546,1	1774,281
546,5	1781,452
547	1779,795
547,4	1778,395
547,9	1782,567
548,3	1786,681
548,8	1786,824
549,2	1785,395
549,7	1786,795
550,1	1794,624
550,6	1797,538
551	1804,567
551,5	1807,138
551,9	1812,71
552,4	1818,024
552,8	1816,224
553,3	1815,195
553,7	1815,595
554,2	1816,938
554,6	1819,195
555,1	1821,167
555,5	1824,252
555,9	1833,595
556,4	1834,481
556,8	1837,31
557,3	1843,881
557,7	1846,652
558,2	1850,738
558,6	1856,881
559,1	1853,767
559,5	1858,738
560	1862,481
560,4	1856,31
560,9	1853,71
561,3	1848,995
561,8	1846,967
562,2	1851,938
562,7	1852,195
563,1	1857,052
563,6	1859,71
564	1863,852
564,4	1869,252
564,9	1869,024
565,3	1868,938
565,8	1871,367
566,2	1869,281
566,7	1875,31
567,1	1877,652
567,6	1881,71
568	1882,595
568,5	1886,595
568,9	1883,938
569,4	1886,281
569,8	1884,224
570,3	1888,252
570,7	1882,938
571,1	1884,938
571,6	1882,138
572	1886,595
572,5	1886,252
572,9	1886,281
573,4	1883,795
573,8	1889,195
574,3	1882,824
574,7	1883,338
575,2	1881,91
575,6	1877,91
576,1	1876,481
576,5	1881,195
576,9	1877,852
577,4	1883,424
577,8	1878,767
578,3	1876,452
578,7	1878,652
579,2	1883,681
579,6	1873,367
580,1	1871,938
580,5	1868,738
581	1872,167
581,4	1871,738
581,9	1864,081
582,3	1857,081
582,7	1859,224
583,2	1859,452
583,6	1861,881
584,1	1858,367
584,5	1858,538
585	1861,595
585,4	1848,795
585,9	1846,795
586,3	1847,624
586,8	1842,652
587,2	1836,51
587,6	1834,224
588,1	1835,595
588,5	1843,681
589	1840,195
589,4	1832,652
589,9	1830,624
590,3	1827,11
590,8	1825,31
591,2	1819,767
591,7	1817,51
592,1	1816,995
592,5	1815,052
593	1813,824
593,4	1812,167
593,9	1804,138
594,3	1797,081
594,8	1790,91
595,2	1781,452
595,7	1775,024
596,1	1766,424
596,6	1765,138
597	1768,452
597,4	1769,195
597,9	1769,281
598,3	1770,167
598,8	1772,252
599,2	1766,081
599,7	1762,967
600,1	1752,51
600,6	1746,51
601	1740,738
601,4	1743,624
601,9	1739,767
602,3	1742,024
602,8	1736,852
603,2	1732,967
603,7	1728,281
604,1	1726,852
604,6	1716,652
605	1712,481
605,4	1709,052
605,9	1707,11
606,3	1697,852
606,8	1696,595
607,2	1689,424
607,7	1682,938
608,1	1673,767
608,6	1670,824
609	1668,195
609,4	1672,024
609,9	1670,738
610,3	1669,624
610,8	1664,338
611,2	1664,395
611,7	1656,167
612,1	1650,167
612,6	1646,424
613	1640,452
613,4	1628,71
613,9	1627,195
614,3	1621,395
614,8	1620,738
615,2	1610,367
615,7	1604,938
616,1	1592,881
616,6	1587,395
617	1581,595
617,4	1573,081
617,9	1562,681
618,3	1561,567
618,8	1557,624
619,2	1553,595
619,7	1556,081
620,1	1542,081
620,5	1538,138
621	1532,824
621,4	1529,252
621,9	1519,824
622,3	1513,31
622,8	1503,167
623,2	1501,938
623,6	1494,91
624,1	1485,795
624,5	1478,452
625	1477,795
625,4	1474,995
625,9	1469,71
626,3	1463,71
626,8	1451,824
627,2	1449,424
627,6	1435,624
628,1	1417,681
628,5	1415,367
629	1401,452
629,4	1393,081
629,9	1389,252
630,3	1378,91
630,7	1376,652
631,2	1378,881
631,6	1365,424
632,1	1365,081
632,5	1361,224
633	1361,681
633,4	1356,824
633,8	1349,452
634,3	1335,967
634,7	1332,71
635,2	1326,167
635,6	1320,395
636,1	1311,195
636,5	1299,967
636,9	1294,081
637,4	1289,31
637,8	1271,567
638,3	1260,767
638,7	1255,767
639,2	1242,938
639,6	1242,452
640	1237,91
640,5	1229,252
640,9	1230,252
641,4	1228,595
641,8	1224,452
642,2	1222,31
642,7	1221,252
643,1	1215,052
643,6	1209,824
644	1204,967
644,5	1204,852
644,9	1195,224
645,3	1188,081
645,8	1173,681
646,2	1173,967
646,7	1169,31
647,1	1166,624
647,6	1153,367
648	1147,91
648,4	1145,652
648,9	1145,252
649,3	1129,624
649,8	1127,652
650,2	1118,538
650,6	1117,652
651,1	1109,767
651,5	1104,538
652	1096,767
652,4	1089,138
652,9	1084,595
653,3	1083,452
653,7	1075,538
654,2	1071,852
654,6	1062,195
655,1	1058,995
655,5	1063,195
655,9	1056,681
656,4	1049,138
656,8	1042,652
657,3	1037,738
657,7	1038,31
658,2	1030,195
658,6	1017,367
659	1011,252
659,5	998,652
659,9	992,481
660,4	986,795
660,8	973,538
661,2	968,681
661,7	966,595
662,1	965,567
662,6	965,995
663	966,51
663,4	961,995
663,9	959,71
664,3	950,91
664,8	940,081
665,2	928,51
665,6	916,51
666,1	908,824
666,5	901,881
667	895,881
667,4	891,91
667,9	890,195
668,3	885,31
668,7	883,595
669,2	876,71
669,6	870,367
670,1	866,081
670,5	860,91
670,9	855,11
671,4	847,51
671,8	844,995
672,3	840,767
672,7	833,881
673,1	822,595
673,6	816,795
674	814,824
674,5	810,71
674,9	801,738
675,3	792,052
675,8	790,281
676,2	788,424
676,7	780,881
677,1	773,795
677,5	767,824
678	766,738
678,4	768,567
678,9	763,195
679,3	757,91
679,7	756,252
680,2	745,167
680,6	740,71
681,1	736,938
681,5	732,395
681,9	727,967
682,4	731,31
682,8	728,881
683,3	733,252
683,7	732,167
684,1	726,224
684,6	716,281
685	714,424
685,5	706,481
685,9	696,31
686,3	687,624
686,8	681,281
687,2	681,681
687,7	674,538
688,1	667,71
688,5	662,995
689	665,681
689,4	665,795
689,9	657,624
690,3	646,881
690,7	645,995
691,2	644,51
691,6	643,452
692	640,681
692,5	632,252
692,9	634,51
693,4	630,252
693,8	624,395
694,2	616,852
694,7	610,367
695,1	600,767
695,6	600,795
696	593,852
696,4	591,567
696,9	587,624
697,3	582,652
697,8	575,252
698,2	573,852
698,6	572,367
699,1	570,31
699,5	568,224
699,9	565,281
700,4	560,995
700,8	560,738
701,3	556,995
701,7	546,338
702,1	545,252
702,6	544,681
703	544,481
703,5	543,338
703,9	539,452
704,3	536,024
704,8	534,452
705,2	527,081
705,6	518,538
706,1	515,481
706,5	512,681
707	513,281
707,4	512,652
707,8	507,11
708,3	507,967
708,7	502,738
709,2	498,024
709,6	493,51
710	491,367
710,5	483,452
710,9	485,938
711,3	480,652
711,8	483,938
712,2	477,852
712,7	475,224
713,1	470,652
713,5	474,31
714	470,767
714,4	465,11
714,8	460,052
715,3	456,567
715,7	453,824
716,2	446,081
716,6	440,281
717	435,681
717,5	435,195
717,9	432,31
718,3	432,395
718,8	431,424
719,2	432,652
719,7	430,852
720,1	429,824
720,5	426,767
721	424,652
721,4	421,938
721,8	417,91
722,3	410,938
722,7	406,652
723,2	395,367
723,6	388,71
724	382,452
724,5	381,967
724,9	381,024
725,3	380,081
725,8	373,795
726,2	379,967
726,7	379,31
727,1	379,252
727,5	375,11
728	371,424
728,4	370,538
728,8	370,367
729,3	362,938
729,7	361,167
730,1	357,681
730,6	358,138
731	351,081
731,5	347,195
731,9	345,167
732,3	349,338
732,8	349,938
733,2	345,395
733,6	338,367
734,1	338,652
734,5	337,767
734,9	336,624
735,4	335,51
735,8	329,424
736,3	334,338
736,7	334,195
737,1	333,367
737,6	328,452
738	324,652
738,4	316,367
738,9	318,852
739,3	313,795
739,7	312,281
740,2	309,252
740,6	314,795
741,1	320,338
741,5	316,967
741,9	314,624
742,4	318,795
742,8	317,052
743,2	316,024
743,7	308,138
744,1	296,881
744,5	295,967
745	288,738
745,4	278,852
745,8	275,767
746,3	277,167
746,7	273,824
747,2	275,538
747,6	278,538
748	284,195
748,5	287,052
748,9	284,052
749,3	282,881
749,8	286,11
750,2	285,824
750,6	282,51
751,1	283,452
751,5	277,11
751,9	280,995
752,4	278,767
752,8	275,11
753,3	274,481
753,7	278,738
754,1	270,252
754,6	268,652
755	262,338
755,4	259,024
755,9	256,967
756,3	252,795
756,7	245,11
757,2	246,767
757,6	249,11
758	250,11
758,5	249,052
758,9	247,138
759,3	247,767
759,8	249,195
760,2	246,938
760,6	240,824
761,1	237,424
761,5	234,052
761,9	232,852
762,4	228,081
762,8	225,11
763,3	217,738
763,7	219,167
764,1	218,481
764,6	217,31
765	217,938
765,4	218,538
765,9	217,452
766,3	220,224
766,7	217,11
767,2	214,852
767,6	213,824
768	207,767
768,5	205,195
768,9	203,71
769,3	203,51
769,8	202,51
770,2	201,167
770,6	199,538
771,1	202,195
771,5	203,767
771,9	203,767
772,4	205,424
772,8	205,652
773,2	205,71
773,7	203,252
774,1	201,395
774,5	191,967
775	191,567
775,4	185,424
775,8	181,652
776,3	183,538
776,7	182,967
777,1	180,052
777,6	186,024
778	182,852
778,4	180,795
778,9	182,567
779,3	175,652
779,7	181,195
780,2	183,738
780,6	181,367
781	181,081
781,5	182,881
781,9	184,681
782,3	184,252
782,8	184,195
783,2	176,852
783,6	182,652
784,1	180,338
784,5	178,795
784,9	170,995
785,4	178,052
785,8	170,967
786,2	174,71
786,7	162,395
787,1	159,481
787,5	157,852
788	158,824
788,4	154,738
788,8	155,395
789,3	153,052
789,7	159,51
790,1	159,395
790,6	159,967
791	156,938
791,4	155,881
791,9	152,71
792,3	146,31
792,7	144,281
793,2	143,052
793,6	143,224
794	144,252
794,5	137,967
794,9	140,024
795,3	146,71
795,8	145,138
796,2	145,195
796,6	141,481
797,1	142,31
797,5	142,71
797,9	137,71
798,4	136,51
798,8	133,052
799,2	136,452
799,7	140,167
800,1	136,224
800,5	136,738
801	143,71
801,4	136,51
801,8	134,91
802,2	130,395
802,7	123,795
803,1	125,967
803,5	123,11
804	116,395
804,4	120,452
804,8	125,252
805,3	122,652
805,7	121,224
806,1	118,738
806,6	121,71
807	121,367
807,4	119,71
807,9	113,567
808,3	115,11
808,7	116,452
809,2	120,938
809,6	124,367
810	119,652
810,4	120,11
810,9	122,767
811,3	122,024
811,7	124,138
812,2	124,395
812,6	117,052
813	121,824
813,5	121,938
813,9	117,567
814,3	115,167
814,8	109,452
815,2	102,538
815,6	102,538
816,1	100,51
816,5	98,395
816,9	98,824
817,3	96,51
817,8	101,91
818,2	104,281
818,6	101,052
819,1	98,281
819,5	93,824
819,9	94,224
820,4	95,795
820,8	92,424
821,2	85,395
821,7	88,824
822,1	90,852
822,5	101,452
822,9	97,881
823,4	96,824
823,8	99,081
824,2	101,281
824,7	97,338
825,1	90,795
825,5	79,795
826	78,938
826,4	75,767
826,8	71,51
827,3	77,224
827,7	77,852
828,1	82,281
828,5	83,31
829	78,652
829,4	80,795
829,8	77,881
830,3	73,11
830,7	71,795
831,1	75,452
831,6	76,995
832	85,424
832,4	84,052
832,8	87,024
833,3	83,224
833,7	81,795
834,1	75,995
834,6	73,452
835	71,167
835,4	70,652
835,8	66,338
836,3	69,052
836,7	71,71
837,1	68,881
837,6	72,852
838	71,738
838,4	70,91
838,9	71,281
839,3	70,252
839,7	68,824
840,1	66,681
840,6	61,795
841	61,595
841,4	59,024
841,9	59,938
842,3	59,195
842,7	58,967
843,1	63,11
843,6	67,51
844	67,995
844,4	74,081
844,9	77,195
845,3	72,681
845,7	71,395
846,2	65,167
846,6	59,167
847	58,852
847,4	56,338
847,9	54,652
848,3	59,024
848,7	56,995
849,2	62,71
849,6	57,281
850	61,538
850,4	60,91
850,9	62,824
851,3	64,995
851,7	67,938
852,2	64,938
852,6	70,11
853	65,767
853,4	61,738
853,9	54,71
854,3	53,938
854,7	51,824
855,2	52,452
855,6	54,51
856	48,567
856,4	50,252
856,9	50,91
857,3	49,767
857,7	55,167
858,2	58,881
858,6	60,281
859	66,567
859,4	67,567
859,9	62,795
860,3	55,881
860,7	49,767
861,1	45,595
861,6	38,338
862	35,567
862,4	31,252
862,9	37,31
863,3	40,795
863,7	42,281
864,1	44,081
864,6	46,652
865	47,31
865,4	50,881
865,9	54,681
866,3	53,624
866,7	53,595
867,1	50,081
867,6	47,252
868	45,024
868,4	43,91
868,8	38,824
869,3	38,681
869,7	41,11
870,1	40,11
870,6	41,852
871	40,938
871,4	41,052
871,8	40,424
872,3	43,024
872,7	38,967
873,1	39,995
873,5	39,338
874	38,824
874,4	37,767
874,8	35,195
875,3	34,852
875,7	31,852
876,1	35,538
876,5	38,11
877	38,767
877,4	39,795
877,8	43,624
878,2	45,024
878,7	48,281
879,1	44,338
879,5	44,11
879,9	46,167
880,4	47,167
880,8	45,367
881,2	44,395
881,7	40,224
882,1	41,11
882,5	39,081
882,9	36,224
883,4	30,881
883,8	31,538
884,2	30,052
884,6	27,538
885,1	31,71
885,5	31,881
885,9	34,567
886,3	36,338
886,8	35,081
887,2	31,767
887,6	37,852
888	32,71
888,5	35,91
888,9	34,052
889,3	32,967
889,8	31,738
890,2	31,624
890,6	26,224
891	23,195
891,5	18,081
891,9	17,395
892,3	19,338
892,7	19,31
893,2	23,51
893,6	27,538
894	31,738
894,4	30,138
894,9	28,881
895,3	28,138
895,7	28,738
896,1	25,824
896,6	22,795
897	22,281
897,4	30,567
897,8	31,681
898,3	31,195
898,7	32,195
899,1	31,452
899,5	34,424
900	31,624
900,4	27,681
900,8	27,738
901,2	26,71
901,7	25,367
902,1	28,052
902,5	29,367
902,9	30,224
903,4	32,024
903,8	31,652
904,2	32,367
904,6	29,967
905,1	28,452
905,5	28,595
905,9	31,424
906,3	28,652
906,8	31,938
907,2	33,167
907,6	34,452
908	34,824
908,5	29,167
908,9	28,338
909,3	26,567
909,7	27,652
910,2	24,795
910,6	30,652
911	24,91
911,4	30,91
911,9	25,024
912,3	25,624
912,7	26,738
913,1	30,681
913,6	25,31
914	29,852
914,4	22,11
914,8	25,052
915,3	24,91
915,7	18,452
916,1	14,624
916,5	18,938
916,9	20,852
917,4	25,224
917,8	28,738
918,2	23,71
918,6	19,167
919,1	21,881
919,5	21,567
919,9	21,31
920,3	19,595
920,8	14,538
921,2	17,995
921,6	23,424
922	22,567
922,5	19,795
922,9	18,452
923,3	16,367
923,7	20,31
924,2	17,852
924,6	16,967
925	14,51
925,4	11,281
925,8	9,967
926,3	14,195
926,7	10,252
927,1	14,91
927,5	16,91
928	18,452
928,4	18,138
928,8	20,738
929,2	16,91
929,7	22,767
930,1	23,567
930,5	19,738
930,9	22,652
931,3	24,767
931,8	20,424
932,2	20,91
932,6	15,452
933	7,652
933,5	6,767
933,9	6,281
934,3	9,624
934,7	12,31
935,2	12,91
935,6	14,31
936	19,024
936,4	24,424
936,8	26,052
937,3	22,91
937,7	24,367
938,1	28,738
938,5	24,51
939	23,652
939,4	21,224
939,8	15,252
940,2	16,71
940,6	15,31
941,1	13,224
941,5	19,938
941,9	20,481
942,3	20,567
942,8	24,081
943,2	18,938
943,6	14,395
944	10,91
944,4	11,652
944,9	9,624
945,3	9,624
945,7	1,51
946,1	3,995
946,6	6,938
947	8,51
947,4	11,367
947,8	13,71
948,2	12,738
948,7	20,338
949,1	20,338
949,5	26,224
949,9	28,367
950,3	22,481
950,8	24,31
951,2	23,138
951,6	18,51
952	21,738
952,5	14,652
952,9	14,452
953,3	14,824
953,7	9,652
954,1	15,11
954,6	21,481
955	23,338
955,4	23,71
955,8	25,367
956,2	24,424
956,7	30,881
957,1	25,824
957,5	22,367
957,9	19,767
958,3	18,71
958,8	17,224
959,2	17,71
959,6	18,795
960	18,11
960,5	21,91
960,9	19,938
961,3	19,024
961,7	15,624
962,1	17,824
962,6	14,224
963	15,767
963,4	9,71
963,8	12,881
964,2	16,652
964,7	16,338
965,1	17,91
965,5	13,024
965,9	12,938
966,3	21,31
966,8	17,938
967,2	17,652
967,6	20,195
968	16,338
968,4	23,738
968,9	24,481
969,3	20,71
969,7	18,081
970,1	20,824
970,5	17,481
971	18,995
971,4	14,052
971,8	14,338
972,2	11,452
972,6	13,71
973,1	10,71
973,5	19,681
973,9	18,167
974,3	19,224
974,7	18,738
975,2	19,681
975,6	19,367
976	20,338
976,4	11,852
976,8	12,052
977,3	8,224
977,7	7,681
978,1	4,224
978,5	2,195
978,9	0,852
979,4	2,367
979,8	-1,348
980,2	5,167
980,6	-0,005
981	4,595
981,5	7,767
981,9	6,738
982,3	7,167
982,7	13,452
983,1	8,652
983,6	11,081
984	10,081
984,4	12,938
984,8	11,424
985,2	9,824
985,6	4,538
986,1	7,11
986,5	10,852
986,9	6,91
987,3	3,167
987,7	6,767
988,2	6,281
988,6	9,881
989	11,024
989,4	6,338
989,8	10,452
990,3	9,052
990,7	8,367
991,1	10,024
991,5	12,024
991,9	9,767
992,3	15,852
992,8	17,938
993,2	17,452
993,6	18,767
994	21,767
994,4	21,938
994,9	25,224
995,3	23,824
995,7	22,338
996,1	23,281
996,5	22,938
996,9	16,995
997,4	14,824
997,8	9,824
998,2	5,852
998,6	-0,633
999	-0,805
999,5	-5,776
999,9	-2,233
1000,3	-5,148
1000,7	-4,09
1001,1	-1,89
1001,5	3,51
1002	9,881
1002,4	15,31
1002,8	15,452
1003,2	19,081
1003,6	21,252
1004	23,881
1004,5	21,567
1004,9	19,31
1005,3	16,51
1005,7	19,738
1006,1	15,024
1006,6	10,967
1007	11,138
1007,4	12,967
1007,8	10,224
1008,2	6,452
1008,6	2,881
1009,1	3,681
1009,5	8,681
1009,9	7,367
1010,3	7,052
1010,7	4,167
1011,1	9,824
1011,6	7,91
1012	13,167
1012,4	10,367
1012,8	10,995
1013,2	18,481
1013,6	23,538
1014,1	23,738
1014,5	22,852
1014,9	21,224
1015,3	18,767
1015,7	17,824
1016,1	8,738
1016,6	7,995
1017	6,31
1017,4	9,024
1017,8	6,024
1018,2	9,938
1018,6	6,31
1019,1	8,11
1019,5	6,452
1019,9	3,852
1020,3	4,624
1020,7	8,024
1021,1	5,824
1021,6	11,481
1022	14,681
1022,4	13,11
1022,8	14,824
1023,2	12,567
1023,6	9,795
1024,1	15,538
1024,5	13,224
1024,9	7,452
1025,3	8,138
1025,7	10,252
1026,1	13,71
1026,6	13,824
1027	10,338
1027,4	15,024
1027,8	13,967
1028,2	11,71
1028,6	13,424
1029	11,024
1029,5	15,51
1029,9	12,081
1030,3	5,195
1030,7	9,395
1031,1	15,51
1031,5	12,652
1032	14,481
1032,4	11,938
1032,8	16,652
1033,2	20,338
1033,6	18,31
1034	13,424
1034,4	12,31
1034,9	13,252
1035,3	11,11
1035,7	12,595
1036,1	10,624
1036,5	9,167
1036,9	11,51
1037,4	12,767
1037,8	9,024
1038,2	12,938
1038,6	8,567
1039	8,538
1039,4	16,91
1039,8	14,738
1040,3	17,31
1040,7	18,338
1041,1	16,567
1041,5	17,995
1041,9	15,71
1042,3	11,824
1042,7	15,281
1043,2	11,795
1043,6	8,395
1044	9,081
1044,4	9,795
1044,8	11,595
1045,2	13,71
1045,6	15,052
1046,1	11,995
1046,5	17,167
1046,9	11,967
1047,3	7,538
1047,7	4,738
1048,1	1,367
1048,5	0,11
1049	7,481
1049,4	10,738
1049,8	12,338
1050,2	16,938
1050,6	26,824
1051	28,395
1051,4	26,624
1051,9	19,852
1052,3	25,738
1052,7	28,938
1053,1	23,795
1053,5	23,881
1053,9	23,995
1054,3	23,395
1054,8	34,538
1055,2	26,71
1055,6	30,795
1056	36,481
1056,4	32,424
1056,8	27,081
1057,2	25,538
1057,6	17,91
1058,1	13,224
1058,5	7,967
1058,9	9,195
1059,3	8,367
1059,7	10,481
1060,1	12,938
1060,5	16,481
1061	16,91
1061,4	10,767
1061,8	11,995
1062,2	10,252
1062,6	14,881
1063	19,367
1063,4	16,024
1063,8	16,738
1064,3	16,224
1064,7	14,824
1065,1	12,338
1065,5	4,224
1065,9	-0,89
1066,3	-4,205
1066,7	-6,09
1067,1	-3,119
1067,6	-2,233
1068	-2,548
1068,4	3,395
1068,8	7,31
1069,2	11,167
1069,6	12,024
1070	15,738
1070,4	11,967
1070,9	11,338
1071,3	9,052
1071,7	3,795
1072,1	3,024
1072,5	1,567
1072,9	2,167
1073,3	3,824
1073,7	7,367
1074,2	7,052
1074,6	12,024
1075	10,052
1075,4	13,11
1075,8	14,624
1076,2	14,881
1076,6	15,052
1077	14,138
1077,5	14,224
1077,9	13,51
1078,3	13,081
1078,7	8,338
1079,1	5,91
1079,5	5,338
1079,9	7,481
1080,3	6,71
1080,7	8,767
1081,2	13,824
1081,6	16,11
1082	18,138
1082,4	22,31
1082,8	23,11
1083,2	18,367
1083,6	18,652
1084	13,252
1084,5	17,024
1084,9	10,795
1085,3	3,652
1085,7	3,91
1086,1	3,738
1086,5	6,767
1086,9	9,967
1087,3	3,738
1087,7	4,881
1088,2	6,452
1088,6	6,138
1089	11,024
1089,4	7,11
1089,8	8,024
1090,2	7,138
1090,6	9,624
1091	11,995
1091,4	14,195
1091,9	12,481
1092,3	9,052
1092,7	4,824
1093,1	8,51
1093,5	9,395
1093,9	8,395
1094,3	9,31
1094,7	10,395
1095,1	16,081
1095,5	18,652
1096	12,595
1096,4	11,024
1096,8	13,338
1097,2	12,424
1097,6	14,081
1098	12,795
1098,4	13,138
1098,8	18,281
1099,2	26,91
1099,6	23,738
1100,1	22,11
1100,5	17,652
1100,9	16,31
1101,3	13,738
1101,7	12,995
1102,1	5,967
1102,5	7,71
1102,9	7,395
1103,3	11,995
1103,7	14,052
1104,2	13,424
1104,6	13,452
1105	12,281
1105,4	11,252
1105,8	8,51
1106,2	3,395
1106,6	1,224
1107	1,11
1107,4	-0,033
1107,8	0,727
1108,3	-1,333
