Data from Subt2_100.txt Node
Date: Sat Aug 26 16:44:49 MSK 2023
User: vat
Spectrometer: MAYP114033
Trigger mode: 0
Integration Time (sec): 1,000000E0
Scans to average: 5
Electric dark correction enabled: true
Nonlinearity correction enabled: false
Boxcar width: 3
XAxis mode: Wavelengths
Number of Pixels in Spectrum: 2068
>>>>>Begin Spectral Data<<<<<
199,4	-0,5
199,9	-2,1
200,4	-4,367
200,8	-1,271
201,3	0,643
201,8	0,586
202,2	0,043
202,7	3,814
203,2	5,757
203,6	9,129
204,1	8,414
204,6	9,214
205	12,614
205,5	13,414
206	12,3
206,4	13,614
206,9	11,471
207,4	13,386
207,8	10,357
208,3	6,3
208,8	6,7
209,2	8,7
209,7	6,186
210,2	11,671
210,6	8,357
211,1	7,386
211,5	12,329
212	10,157
212,5	3,214
212,9	5,357
213,4	3,271
213,9	5,386
214,3	7,614
214,8	6,9
215,3	8,786
215,7	12,5
216,2	13,129
216,7	11,7
217,1	11,471
217,6	12,557
218,1	10,729
218,5	12,271
219	19,071
219,5	20,786
219,9	22,729
220,4	22,157
220,9	21,614
221,3	21,557
221,8	17,671
222,3	10,329
222,7	7,729
223,2	6,643
223,6	5,871
224,1	8,643
224,6	5,671
225	7,186
225,5	13,843
226	12,414
226,4	15,671
226,9	10,9
227,4	9,557
227,8	13,471
228,3	19,243
228,8	13,071
229,2	19,871
229,7	16,529
230,2	24,9
230,6	25,786
231,1	28,929
231,5	30,414
232	35,3
232,5	30,329
232,9	30,271
233,4	27,7
233,9	26,1
234,3	20,9
234,8	15,357
235,3	11,3
235,7	15,071
236,2	12,957
236,7	13,843
237,1	9,5
237,6	9,243
238,1	10,614
238,5	13,1
239	9,357
239,4	10,986
239,9	9,3
240,4	12,329
240,8	12,957
241,3	11,243
241,8	8,757
242,2	6,1
242,7	9,7
243,2	10,814
243,6	12,3
244,1	12,386
244,6	7,729
245	10,214
245,5	12,557
245,9	8,529
246,4	9,843
246,9	7,043
247,3	4,871
247,8	10,757
248,3	13,529
248,7	17,357
249,2	15,386
249,7	11,271
250,1	14,157
250,6	14,129
251	11,471
251,5	5,814
252	2,529
252,4	7,157
252,9	10,014
253,4	6,3
253,8	5,357
254,3	6,186
254,8	10,214
255,2	10,614
255,7	13,557
256,1	10,843
256,6	18,1
257,1	21,843
257,5	26,329
258	19,586
258,5	19,871
258,9	13,186
259,4	16,557
259,9	14,929
260,3	14,243
260,8	14,814
261,2	21,757
261,7	19,443
262,2	22,814
262,6	22,386
263,1	18,9
263,6	22,357
264	16,643
264,5	16,729
264,9	15,414
265,4	13,271
265,9	15,186
266,3	16,843
266,8	13,671
267,3	17,471
267,7	16,186
268,2	17,557
268,7	19,929
269,1	14,643
269,6	15,014
270	19,871
270,5	19,814
271	18,386
271,4	14,786
271,9	15,1
272,4	19,129
272,8	14,357
273,3	9,871
273,7	7,386
274,2	3,957
274,7	8,129
275,1	3,443
275,6	6,5
276,1	10,157
276,5	13,614
277	13,5
277,4	20,443
277,9	18,5
278,4	23,9
278,8	22,529
279,3	18,329
279,8	19,186
280,2	18,414
280,7	11,3
281,1	13,357
281,6	10,671
282,1	10,414
282,5	13,329
283	9,329
283,4	13,414
283,9	10,871
284,4	10,843
284,8	8,986
285,3	2,9
285,8	0,786
286,2	-3,243
286,7	-8,529
287,1	-3,129
287,6	-1,014
288,1	1,814
288,5	7,386
289	10,043
289,5	9,157
289,9	9,671
290,4	13,7
290,8	16,614
291,3	15,614
291,8	15,414
292,2	17,243
292,7	21,3
293,1	20,929
293,6	17,529
294,1	11,243
294,5	12,7
295	5,614
295,5	8,614
295,9	12,129
296,4	15,214
296,8	12,529
297,3	17,214
297,8	19,443
298,2	26,329
298,7	19,557
299,1	16,471
299,6	17,471
300,1	16,7
300,5	15,786
301	14,729
301,5	10,986
301,9	12,043
302,4	11,871
302,8	11,443
303,3	14,186
303,8	11,243
304,2	11,9
304,7	17,1
305,1	22,071
305,6	21,729
306,1	22,386
306,5	22,529
307	21,643
307,4	18,357
307,9	15,586
308,4	8,614
308,8	11,871
309,3	11,643
309,8	13,7
310,2	15,414
310,7	22,471
311,1	19,643
311,6	25,557
312,1	25,071
312,5	23,614
313	21,957
313,4	22,186
313,9	21,443
314,4	22,157
314,8	22,414
315,3	19,529
315,7	22,7
316,2	20,271
316,7	20,471
317,1	16,7
317,6	14,586
318	16,7
318,5	19,957
319	19,071
319,4	17,814
319,9	17,814
320,3	17,129
320,8	20,357
321,3	13,814
321,7	13,529
322,2	12,643
322,6	14,557
323,1	16,014
323,6	13,729
324	13,1
324,5	14,586
324,9	11,843
325,4	11,5
325,9	16,129
326,3	18,386
326,8	18,414
327,2	19,871
327,7	22,786
328,2	24,071
328,6	25,5
329,1	21,729
329,5	18,9
330	23,929
330,5	22,186
330,9	21,9
331,4	20,157
331,8	22,471
332,3	25,357
332,8	21,471
333,2	15,7
333,7	19,443
334,1	22,014
334,6	22,5
335,1	17,786
335,5	15,443
336	16,557
336,4	19,614
336,9	19,1
337,4	14,7
337,8	13,586
338,3	14,671
338,7	15,814
339,2	19,9
339,7	21,843
340,1	20,729
340,6	17,443
341	23,986
341,5	24,557
342	22,071
342,4	21,271
342,9	15,014
343,3	14,757
343,8	18,443
344,2	20,186
344,7	20,043
345,2	18,843
345,6	19,729
346,1	22,957
346,5	20,7
347	21,586
347,5	14,271
347,9	10,957
348,4	16,014
348,8	15,643
349,3	15,757
349,8	19,7
350,2	18,214
350,7	22,043
351,1	23,671
351,6	26,3
352	33,871
352,5	37,7
353	48,9
353,4	55,986
353,9	65,671
354,3	79,471
354,8	85,5
355,3	96,3
355,7	115,9
356,2	131,814
356,6	158,614
357,1	185,529
357,5	214,443
358	258,729
358,5	299,329
358,9	339,871
359,4	390,986
359,8	448,071
360,3	510,786
360,8	585,186
361,2	660,871
361,7	745,329
362,1	846,043
362,6	949,729
363	1059,7
363,5	1183,729
364	1304,157
364,4	1433,271
364,9	1560,7
365,3	1682,357
365,8	1802,957
366,3	1916,186
366,7	2015,7
367,2	2105,243
367,6	2175,014
368,1	2233,5
368,5	2275,214
369	2295,614
369,5	2296,129
369,9	2268,929
370,4	2233,729
370,8	2184,386
371,3	2123,671
371,7	2047,3
372,2	1958,214
372,7	1858,014
373,1	1764,214
373,6	1664,357
374	1557,986
374,5	1450,9
374,9	1345,986
375,4	1249,243
375,9	1163,414
376,3	1074,843
376,8	989,529
377,2	912,929
377,7	840,786
378,2	772,243
378,6	705,9
379,1	647,329
379,5	595,014
380	549,729
380,4	505,214
380,9	466,5
381,4	434,9
381,8	405,586
382,3	373,529
382,7	344,843
383,2	312,786
383,6	290,671
384,1	271,5
384,6	245,271
385	225,3
385,5	210,5
385,9	198,9
386,4	192,329
386,8	184,443
387,3	165,529
387,7	160,643
388,2	153,671
388,7	142,414
389,1	132,271
389,6	121,929
390	109,357
390,5	106,9
390,9	105,443
391,4	105,071
391,9	99,3
392,3	92,729
392,8	91,243
393,2	86,529
393,7	85,5
394,1	76,586
394,6	66,586
395,1	63,586
395,5	64,1
396	61,586
396,4	61,986
396,9	61,129
397,3	57,1
397,8	54,3
398,2	53,329
398,7	46,614
399,2	41,814
399,6	43,1
400,1	32,586
400,5	37,471
401	41,929
401,4	42,871
401,9	44,443
402,4	45,471
402,8	43,757
403,3	45,071
403,7	42,843
404,2	40,471
404,6	40,043
405,1	40,214
405,5	37,986
406	33,5
406,5	34,471
406,9	31,329
407,4	27,529
407,8	26,5
408,3	26,871
408,7	33,243
409,2	37,757
409,6	39,957
410,1	45,471
410,6	51,614
411	50,643
411,5	51,614
411,9	48,186
412,4	48,157
412,8	51,043
413,3	52,671
413,7	51,929
414,2	58,643
414,7	65,386
415,1	69,186
415,6	77,729
416	84,557
416,5	86,786
416,9	88,414
417,4	92,529
417,8	90,5
418,3	94,929
418,8	87,7
419,2	84,386
419,7	87,614
420,1	84,557
420,6	84,614
421	87,843
421,5	87,9
421,9	95,386
422,4	97,214
422,8	94,214
423,3	97,586
423,8	98,814
424,2	99,757
424,7	95,643
425,1	91,786
425,6	92,243
426	92,3
426,5	93,729
426,9	91,5
427,4	90,071
427,9	85,729
428,3	85,414
428,8	84,5
429,2	80,1
429,7	79,129
430,1	78,757
430,6	78,014
431	79,643
431,5	80,214
431,9	77,357
432,4	79,3
432,8	79,957
433,3	76,586
433,8	78,671
434,2	84,671
434,7	84,243
435,1	84,5
435,6	93,129
436	95,729
436,5	102,414
436,9	102,386
437,4	107,529
437,8	106,3
438,3	112,471
438,8	104,5
439,2	105,7
439,7	107,529
440,1	110,957
440,6	112,671
441	118,243
441,5	120,1
441,9	131,9
442,4	143,471
442,8	150,529
443,3	157,643
443,7	158,929
444,2	168,529
444,7	176,071
445,1	179,786
445,6	179,214
446	184,157
446,5	189,386
446,9	199,1
447,4	205,357
447,8	211,386
448,3	220,157
448,7	224,871
449,2	229,157
449,6	233,614
450,1	242,614
450,6	252,9
451	258,129
451,5	265,843
451,9	277,9
452,4	289,843
452,8	305,1
453,3	312,157
453,7	317,9
454,2	329,757
454,6	340,386
455,1	350,586
455,5	363,586
456	375,357
456,4	390,586
456,9	402,786
457,3	420,186
457,8	437,729
458,3	455,3
458,7	467,443
459,2	479,643
459,6	490,529
460,1	505,129
460,5	521,557
461	530,1
461,4	545,186
461,9	559,129
462,3	574,529
462,8	592,786
463,2	615,014
463,7	626,014
464,1	646,357
464,6	662,414
465	683,671
465,5	705,071
466	723,1
466,4	738,071
466,9	760,757
467,3	775,957
467,8	798,671
468,2	810,129
468,7	825,3
469,1	841,9
469,6	860,386
470	879,271
470,5	901,929
470,9	917,443
471,4	945,1
471,8	964,129
472,3	983,586
472,7	1005,414
473,2	1021,014
473,6	1042,243
474,1	1056,871
474,5	1072,871
475	1094,957
475,4	1109,786
475,9	1130,729
476,4	1150,071
476,8	1166,643
477,3	1189,729
477,7	1210,243
478,2	1226,129
478,6	1251,814
479,1	1266,071
479,5	1288,929
480	1306,471
480,4	1324,3
480,9	1344,814
481,3	1355,643
481,8	1371,471
482,2	1387,014
482,7	1400,729
483,1	1417,5
483,6	1430,271
484	1438,643
484,5	1461,529
484,9	1476,443
485,4	1492,157
485,8	1500,7
486,3	1511,071
486,7	1527,757
487,2	1542,071
487,6	1553,329
488,1	1565,814
488,5	1575,871
489	1590,243
489,4	1601,986
489,9	1612,729
490,4	1626,729
490,8	1633,557
491,3	1644,557
491,7	1652,357
492,2	1661,671
492,6	1672,243
493,1	1676,957
493,5	1679,757
494	1690,443
494,4	1695,957
494,9	1702,786
495,3	1712,1
495,8	1721,5
496,2	1733,871
496,7	1744,214
497,1	1753,957
497,6	1758,186
498	1769,843
498,5	1779,729
498,9	1785,3
499,4	1794,957
499,8	1804,9
500,3	1811,414
500,7	1823,243
501,2	1831,014
501,6	1836,071
502,1	1840,729
502,5	1839,443
503	1846,443
503,4	1846,471
503,9	1851,386
504,3	1854,271
504,8	1855,757
505,2	1859,529
505,7	1866,643
506,1	1865,043
506,6	1872,586
507	1874,643
507,5	1876,643
507,9	1886,729
508,4	1893,671
508,8	1899,729
509,3	1907,271
509,7	1911,7
510,2	1911,443
510,6	1919,043
511,1	1924,586
511,5	1928,929
512	1934,043
512,4	1940,586
512,9	1945,643
513,3	1958,557
513,8	1962,157
514,2	1968,7
514,7	1974,214
515,1	1977,471
515,6	1978,643
516	1984,557
516,5	1988,1
516,9	1985,814
517,4	1985,243
517,8	1986,071
518,3	1992,729
518,7	1998,271
519,2	2003,729
519,6	2005,786
520,1	2022,3
520,5	2029,529
521	2035,814
521,4	2037,786
521,9	2044,786
522,3	2054,957
522,8	2061,357
523,2	2063,814
523,7	2070,586
524,1	2080,757
524,6	2084,957
525	2089,586
525,5	2095,1
525,9	2099,1
526,4	2105,329
526,8	2102,929
527,3	2104,614
527,7	2112,5
528,2	2117,471
528,6	2114,557
529,1	2120,129
529,5	2122,757
530	2138,186
530,4	2148,814
530,9	2155,443
531,3	2161,414
531,8	2176,071
532,2	2183,843
532,6	2199,443
533,1	2197,386
533,5	2205,471
534	2214,443
534,4	2222,271
534,9	2228,643
535,3	2239,671
535,8	2239,129
536,2	2251,214
536,7	2258,443
537,1	2263,043
537,6	2272,071
538	2277,9
538,5	2285,957
538,9	2298,3
539,4	2311,957
539,8	2312,586
540,3	2318,643
540,7	2326,786
541,2	2332,529
541,6	2338,3
542,1	2344,043
542,5	2341,871
543	2355,271
543,4	2363,329
543,9	2369,5
544,3	2375,329
544,8	2381,271
545,2	2384,643
545,7	2394,729
546,1	2399,7
546,5	2410,071
547	2415,1
547,4	2423,643
547,9	2432,7
548,3	2439,986
548,8	2444,3
549,2	2447,414
549,7	2453,471
550,1	2461,729
550,6	2466,357
551	2473,243
551,5	2479,271
551,9	2490,586
552,4	2499,643
552,8	2503,3
553,3	2510,1
553,7	2517,414
554,2	2520,929
554,6	2527,186
555,1	2529,529
555,5	2535,671
555,9	2544,1
556,4	2546,843
556,8	2552,443
557,3	2562,129
557,7	2570,386
558,2	2575,186
558,6	2584,443
559,1	2588,471
559,5	2594,186
560	2601,786
560,4	2607,329
560,9	2611,014
561,3	2616,729
561,8	2624,3
562,2	2630,957
562,7	2636,014
563,1	2641,929
563,6	2641,757
564	2650,729
564,4	2660,929
564,9	2658,757
565,3	2665,471
565,8	2670,529
566,2	2669,129
566,7	2670,157
567,1	2668,414
567,6	2666,729
568	2673,071
568,5	2673,157
568,9	2673,814
569,4	2680,871
569,8	2686,586
570,3	2689,986
570,7	2684,843
571,1	2678,129
571,6	2674,814
572	2681,129
572,5	2675,471
572,9	2680,157
573,4	2673,586
573,8	2680,957
574,3	2687,729
574,7	2692,586
575,2	2688,186
575,6	2691,614
576,1	2685,329
576,5	2691,557
576,9	2692,757
577,4	2694,043
577,8	2691,814
578,3	2690,443
578,7	2692,471
579,2	2693,586
579,6	2692,643
580,1	2691,557
580,5	2688,014
581	2684,614
581,4	2689,243
581,9	2681,529
582,3	2676,586
582,7	2676,329
583,2	2670,586
583,6	2662,7
584,1	2655,986
584,5	2646,671
585	2642,586
585,4	2635,243
585,9	2633,329
586,3	2631,071
586,8	2627,671
587,2	2625,929
587,6	2625,243
588,1	2627,957
588,5	2632,271
589	2622,671
589,4	2620,243
589,9	2622,7
590,3	2618,214
590,8	2616,1
591,2	2611,271
591,7	2602,671
592,1	2604,329
592,5	2598,757
593	2590,271
593,4	2590,243
593,9	2579,214
594,3	2569,386
594,8	2560,929
595,2	2552,357
595,7	2552,129
596,1	2547,529
596,6	2546,757
597	2549,443
597,4	2547,814
597,9	2554,843
598,3	2551,871
598,8	2538,186
599,2	2538,757
599,7	2526,357
600,1	2515,357
600,6	2511,414
601	2502,129
601,4	2497,5
601,9	2494,757
602,3	2489,014
602,8	2486,214
603,2	2481,786
603,7	2474,814
604,1	2473,357
604,6	2464,757
605	2461,557
605,4	2454,043
605,9	2443,729
606,3	2433,643
606,8	2421,586
607,2	2407,043
607,7	2399,243
608,1	2395,243
608,6	2385,557
609	2380,243
609,4	2377,186
609,9	2374,843
610,3	2367,214
610,8	2364,3
611,2	2347,3
611,7	2344,614
612,1	2335,329
612,6	2325,357
613	2321,843
613,4	2313,329
613,9	2299,5
614,3	2297,414
614,8	2283,7
615,2	2277,757
615,7	2277,129
616,1	2265,214
616,6	2261,643
617	2255,271
617,4	2243,529
617,9	2228,786
618,3	2225,729
618,8	2210,929
619,2	2201,071
619,7	2189,671
620,1	2181,529
620,5	2171,214
621	2167,271
621,4	2153,957
621,9	2141,329
622,3	2136,186
622,8	2120,814
623,2	2111,871
623,6	2101,157
624,1	2094,557
624,5	2087,071
625	2083,557
625,4	2069,529
625,9	2066,243
626,3	2058,814
626,8	2054,014
627,2	2041,414
627,6	2026,643
628,1	2015,443
628,5	2005,7
629	2000,957
629,4	1985,157
629,9	1974,643
630,3	1966,329
630,7	1963,129
631,2	1951,071
631,6	1942,786
632,1	1927,3
632,5	1920,129
633	1905,643
633,4	1897,5
633,8	1877,957
634,3	1869,5
634,7	1859,729
635,2	1846,643
635,6	1834,643
636,1	1832,957
636,5	1821,357
636,9	1822,757
637,4	1814,786
637,8	1802,043
638,3	1795,3
638,7	1790,386
639,2	1777,557
639,6	1770,214
640	1756,871
640,5	1745,643
640,9	1741,986
641,4	1739,757
641,8	1726,557
642,2	1722,129
642,7	1707,214
643,1	1701,014
643,6	1691,871
644	1681,1
644,5	1666,757
644,9	1659,357
645,3	1651,843
645,8	1648,014
646,2	1639,329
646,7	1627,271
647,1	1624,271
647,6	1615,729
648	1607,071
648,4	1592,614
648,9	1586,386
649,3	1571,929
649,8	1571,5
650,2	1555,986
650,6	1550,529
651,1	1541,986
651,5	1535,9
652	1528,043
652,4	1522,843
652,9	1511,757
653,3	1505,271
653,7	1496,557
654,2	1489,586
654,6	1478,071
655,1	1464,614
655,5	1456,957
655,9	1444,786
656,4	1438,186
656,8	1429,671
657,3	1419,357
657,7	1412,186
658,2	1407,643
658,6	1394,243
659	1388,586
659,5	1377,071
659,9	1368,9
660,4	1364,671
660,8	1358,671
661,2	1346,871
661,7	1340,357
662,1	1331,243
662,6	1323,843
663	1314,471
663,4	1300,443
663,9	1292,671
664,3	1287,757
664,8	1283,414
665,2	1279,786
665,6	1276,3
666,1	1268,929
666,5	1266,9
667	1251,614
667,4	1246,843
667,9	1235,614
668,3	1223,386
668,7	1209,7
669,2	1201,929
669,6	1191,214
670,1	1192,271
670,5	1175,843
670,9	1170,1
671,4	1168,5
671,8	1164,129
672,3	1157,243
672,7	1150,614
673,1	1140,043
673,6	1131,414
674	1122,329
674,5	1111,043
674,9	1098,643
675,3	1089,271
675,8	1080,357
676,2	1079,643
676,7	1076,7
677,1	1073,471
677,5	1063,357
678	1061,814
678,4	1057,414
678,9	1049,814
679,3	1027,957
679,7	1018,843
680,2	1015,643
680,6	1010,9
681,1	1002,129
681,5	989,443
681,9	984,871
682,4	984,986
682,8	979,129
683,3	961,586
683,7	951,843
684,1	942,986
684,6	940,729
685	932,557
685,5	925,129
685,9	921,329
686,3	925,1
686,8	922,757
687,2	920,843
687,7	916,014
688,1	913,129
688,5	909,643
689	903,414
689,4	894,271
689,9	888,414
690,3	886,471
690,7	877,9
691,2	873,014
691,6	865,214
692	859,729
692,5	852,129
692,9	842,986
693,4	835,357
693,8	830,329
694,2	822,7
694,7	822,186
695,1	817,186
695,6	812,529
696	811,643
696,4	799,929
696,9	796,586
697,3	794,1
697,8	784,929
698,2	780,071
698,6	777,129
699,1	765,529
699,5	764,929
699,9	754,9
700,4	741,643
700,8	741,043
701,3	732,471
701,7	723,586
702,1	722,786
702,6	717,471
703	712,243
703,5	714,443
703,9	704,014
704,3	701,3
704,8	700,386
705,2	692,9
705,6	684,129
706,1	683,386
706,5	677,386
707	673,957
707,4	673,9
707,8	664,986
708,3	666,5
708,7	666,014
709,2	660,243
709,6	655,471
710	651,271
710,5	647,871
710,9	641,871
711,3	634,786
711,8	628,214
712,2	625,786
712,7	624,443
713,1	621,043
713,5	610,843
714	611,157
714,4	606,986
714,8	607,729
715,3	601,186
715,7	592,1
716,2	585,214
716,6	588,3
717	580,671
717,5	578,129
717,9	570,9
718,3	565,1
718,8	563,157
719,2	561,1
719,7	555,071
720,1	552,214
720,5	546,757
721	542,586
721,4	542,129
721,8	541,529
722,3	541,414
722,7	533,157
723,2	528,243
723,6	522,471
724	517,671
724,5	509,443
724,9	496,814
725,3	485,957
725,8	481,329
726,2	476,871
726,7	476,957
727,1	473,929
727,5	473,3
728	478,271
728,4	475,443
728,8	473,271
729,3	473,357
729,7	471,186
730,1	466,471
730,6	462,386
731	458,129
731,5	457,843
731,9	457,5
732,3	459,843
732,8	454,871
733,2	454,957
733,6	452,671
734,1	448,757
734,5	441,414
734,9	434,929
735,4	429,529
735,8	430,643
736,3	428,043
736,7	428,443
737,1	425,5
737,6	427,814
738	424,1
738,4	421,529
738,9	417,557
739,3	411,186
739,7	406,043
740,2	403,929
740,6	400,414
741,1	398,3
741,5	391,986
741,9	381,986
742,4	380,586
742,8	381,614
743,2	379,871
743,7	377,329
744,1	373,157
744,5	371,414
745	367,471
745,4	366,129
745,8	362,243
746,3	360,271
746,7	357,043
747,2	360,129
747,6	361,814
748	365,3
748,5	360,414
748,9	357,3
749,3	354,586
749,8	351,586
750,2	345,129
750,6	341,271
751,1	343,214
751,5	343,1
751,9	339,871
752,4	336,071
752,8	334,643
753,3	331,614
753,7	328,786
754,1	317,157
754,6	312,957
755	309,243
755,4	305,929
755,9	303,843
756,3	306,671
756,7	304,271
757,2	306,986
757,6	306,329
758	303,786
758,5	303,529
758,9	304,929
759,3	300,157
759,8	300,814
760,2	301,329
760,6	297,329
761,1	297,357
761,5	294,214
761,9	290,7
762,4	290,557
762,8	285,043
763,3	276,929
763,7	277,757
764,1	272,414
764,6	270,729
765	266,843
765,4	264,414
765,9	257,7
766,3	260,043
766,7	258,614
767,2	261,386
767,6	258,414
768	261,957
768,5	258,157
768,9	261,7
769,3	259,986
769,8	258,614
770,2	259,9
770,6	257,871
771,1	253,986
771,5	256,243
771,9	253,729
772,4	257,243
772,8	254,529
773,2	249,929
773,7	250,843
774,1	249,071
774,5	246,929
775	242,786
775,4	238,757
775,8	237,471
776,3	237,1
776,7	238,014
777,1	237,129
777,6	229,786
778	230,386
778,4	223,386
778,9	220,7
779,3	216,243
779,7	208,586
780,2	206,814
780,6	209,643
781	209,071
781,5	209,671
781,9	207,443
782,3	208,757
782,8	211,5
783,2	208,357
783,6	198,329
784,1	197,986
784,5	197,1
784,9	197,5
785,4	192,9
785,8	186,271
786,2	184,157
786,7	188,7
787,1	184,614
787,5	185,986
788	185,871
788,4	183,729
788,8	184,129
789,3	182,243
789,7	183,071
790,1	185,729
790,6	181,129
791	176,014
791,4	174,214
791,9	177,471
792,3	175,814
792,7	177,357
793,2	167,986
793,6	169,729
794	172,814
794,5	176,3
794,9	173,357
795,3	173,271
795,8	169,471
796,2	175,557
796,6	167,786
797,1	165,329
797,5	161,929
797,9	159,614
798,4	159,471
798,8	157,957
799,2	156,214
799,7	160,357
800,1	156,9
800,5	153,957
801	153,757
801,4	150,3
801,8	151,271
802,2	150,843
802,7	150,986
803,1	146,929
803,5	153,271
804	151,7
804,4	151,9
804,8	152,671
805,3	146,871
805,7	144,3
806,1	151,529
806,6	144,329
807	140,243
807,4	139,586
807,9	135,586
808,3	134,671
808,7	139,014
809,2	134,386
809,6	137,186
810	141,957
810,4	143,014
810,9	138,557
811,3	138,671
811,7	132,814
812,2	133,957
812,6	129,986
813	127,414
813,5	125,043
813,9	124,643
814,3	124,271
814,8	124,614
815,2	119,357
815,6	116,071
816,1	113,929
816,5	111,357
816,9	111,329
817,3	110,786
817,8	114,529
818,2	115,871
818,6	120,329
819,1	121,529
819,5	120,671
819,9	121,1
820,4	122,129
820,8	113,443
821,2	116,5
821,7	114,871
822,1	112,786
822,5	111,9
822,9	116,157
823,4	114,014
823,8	113,414
824,2	108,586
824,7	108,186
825,1	106,3
825,5	111,814
826	105,471
826,4	105,9
826,8	107,129
827,3	109,957
827,7	110,5
828,1	115,271
828,5	110,471
829	108,471
829,4	108,386
829,8	106,129
830,3	103,729
830,7	96,7
831,1	88,386
831,6	83,386
832	83,043
832,4	81,414
832,8	84,186
833,3	77,243
833,7	82,786
834,1	83,071
834,6	86,043
835	89,814
835,4	90,471
835,8	85,129
836,3	85,843
836,7	79,014
837,1	81,214
837,6	76,329
838	75,071
838,4	70,986
838,9	76,129
839,3	80,557
839,7	82,129
840,1	79,129
840,6	82,357
841	80,643
841,4	82,529
841,9	77,014
842,3	77,471
842,7	78,071
843,1	82,671
843,6	83,586
844	83,329
844,4	83,557
844,9	86,614
845,3	80,757
845,7	80,986
846,2	79,271
846,6	78,357
847	72,729
847,4	71,129
847,9	66,414
848,3	71,214
848,7	70,414
849,2	69,329
849,6	66,129
850	68,129
850,4	69,071
850,9	68,643
851,3	62,986
851,7	62,957
852,2	55,357
852,6	58,557
853	62,5
853,4	59,129
853,9	59,814
854,3	61,5
854,7	59,386
855,2	59,5
855,6	52,329
856	46,214
856,4	48,643
856,9	47,357
857,3	47,614
857,7	51,786
858,2	53,1
858,6	59,443
859	58,957
859,4	57,071
859,9	57,271
860,3	54,871
860,7	51,614
861,1	55,814
861,6	53,1
862	56,529
862,4	57,071
862,9	57,186
863,3	54,414
863,7	50,671
864,1	48,471
864,6	46,586
865	46,243
865,4	44,214
865,9	38,386
866,3	39,814
866,7	43,329
867,1	44,586
867,6	48,214
868	49,786
868,4	45,929
868,8	55,386
869,3	56,757
869,7	51,671
870,1	53,529
870,6	48,9
871	54,986
871,4	57,129
871,8	53,729
872,3	51,5
872,7	53,129
873,1	52,071
873,5	56,757
874	48,471
874,4	48,129
874,8	45,329
875,3	47,757
875,7	45,786
876,1	40,014
876,5	40,271
877	38,014
877,4	40,557
877,8	45,157
878,2	43,1
878,7	50,871
879,1	54,3
879,5	53,757
879,9	51,329
880,4	47,957
880,8	44,186
881,2	48,5
881,7	46,786
882,1	43,071
882,5	39,671
882,9	41,586
883,4	43,671
883,8	42,786
884,2	39,157
884,6	35,471
885,1	39,7
885,5	39,814
885,9	44,329
886,3	43,443
886,8	38,957
887,2	36,871
887,6	33,757
888	32,071
888,5	35,814
888,9	34,214
889,3	29,329
889,8	33,7
890,2	33,329
890,6	35,786
891	35,471
891,5	34,414
891,9	31,357
892,3	35,071
892,7	37,729
893,2	41,986
893,6	44,1
894	43,671
894,4	45,357
894,9	42,757
895,3	43,214
895,7	40,414
896,1	39,557
896,6	37,957
897	36,129
897,4	24,243
897,8	27,586
898,3	33,729
898,7	30,786
899,1	27,814
899,5	24,671
900	26,271
900,4	33,729
900,8	37,5
901,2	30,471
901,7	33,471
902,1	36,443
902,5	36,7
902,9	35,243
903,4	35,414
903,8	25,614
904,2	29,957
904,6	28,986
905,1	28,957
905,5	26,129
905,9	28,871
906,3	27,529
906,8	32,014
907,2	26,986
907,6	28,043
908	23,386
908,5	31,271
908,9	29,929
909,3	28,871
909,7	30,557
910,2	29,671
910,6	30,414
911	31,214
911,4	23,843
911,9	28,014
912,3	28,214
912,7	24,043
913,1	19,186
913,6	16,871
914	18,043
914,4	18,157
914,8	14,957
915,3	14,614
915,7	14,557
916,1	19,386
916,5	19,986
916,9	19,643
917,4	22,443
917,8	17,614
918,2	12,871
918,6	14,643
919,1	16,214
919,5	18,957
919,9	19,414
920,3	20,157
920,8	24,557
921,2	32,357
921,6	31,871
922	29,3
922,5	26,786
922,9	23,843
923,3	24,043
923,7	20,643
924,2	15,729
924,6	14,243
925	17,614
925,4	18,529
925,8	17,443
926,3	19,671
926,7	19,3
927,1	25,414
927,5	26,471
928	22,671
928,4	24,329
928,8	30,529
929,2	28,043
929,7	26,214
930,1	23,814
930,5	23,786
930,9	28,1
931,3	24,757
931,8	17,471
932,2	15,329
932,6	21,386
933	15,043
933,5	14,071
933,9	12,214
934,3	8,186
934,7	10,814
935,2	14,214
935,6	11,929
936	16,5
936,4	19,9
936,8	18,643
937,3	25,157
937,7	30,5
938,1	24,986
938,5	24,214
939	27,3
939,4	25,529
939,8	26,157
940,2	18,271
940,6	12,3
941,1	18,7
941,5	21,214
941,9	18,3
942,3	14,129
942,8	17,271
943,2	21,729
943,6	24,414
944	21,214
944,4	16,186
944,9	14,043
945,3	20,471
945,7	18,243
946,1	15,729
946,6	13,329
947	13,1
947,4	12,986
947,8	12,186
948,2	11,471
948,7	12,557
949,1	13,614
949,5	15,986
949,9	15,243
950,3	20,157
950,8	21,471
951,2	20,643
951,6	24,414
952	25,129
952,5	22,843
952,9	19,129
953,3	14,443
953,7	14,243
954,1	13,614
954,6	10,529
955	6,557
955,4	5,814
955,8	15,929
956,2	15,529
956,7	15,7
957,1	15,071
957,5	12,471
957,9	15,929
958,3	18,329
958,8	11,986
959,2	16,471
959,6	18,929
960	20,014
960,5	18,329
960,9	17,843
961,3	18,3
961,7	14,3
962,1	12,014
962,6	5,529
963	3,586
963,4	5,586
963,8	8,271
964,2	5,871
964,7	7,443
965,1	7,957
965,5	12,471
965,9	12,129
966,3	11,386
966,8	9,471
967,2	9,414
967,6	10,729
968	10,614
968,4	11,7
968,9	14,5
969,3	12,814
969,7	11,243
970,1	12,643
970,5	16,7
971	12,043
971,4	12,386
971,8	12,529
972,2	16,414
972,6	16,814
973,1	19,414
973,5	19,729
973,9	23,214
974,3	18,3
974,7	15,957
975,2	12,586
975,6	7,786
976	7,471
976,4	4,1
976,8	5,3
977,3	11,3
977,7	9,1
978,1	6,757
978,5	15,243
978,9	12,5
979,4	13,1
979,8	15,386
980,2	10,014
980,6	14,986
981	21,129
981,5	21,729
981,9	19,786
982,3	15,929
982,7	11,557
983,1	16,843
983,6	14,871
984	13,386
984,4	11,129
984,8	12,043
985,2	13,986
985,6	15,586
986,1	13,843
986,5	9,529
986,9	12,9
987,3	10,414
987,7	12,7
988,2	12,471
988,6	11,786
989	11,843
989,4	15,329
989,8	9,957
990,3	10,271
990,7	6,757
991,1	6,729
991,5	7,357
991,9	11,157
992,3	11,3
992,8	16,586
993,2	23,386
993,6	28,557
994	32,243
994,4	32,957
994,9	30,871
995,3	28,3
995,7	23,443
996,1	14,443
996,5	11,243
996,9	9,443
997,4	9,014
997,8	8,443
998,2	15,557
998,6	14,443
999	18,357
999,5	20,214
999,9	23,357
1000,3	25,043
1000,7	23,3
1001,1	16,529
1001,5	13,271
1002	8,871
1002,4	7,643
1002,8	6,643
1003,2	5,729
1003,6	8,786
1004	12,471
1004,5	17,843
1004,9	22,529
1005,3	19,671
1005,7	17,7
1006,1	15,3
1006,6	12,471
1007	12,243
1007,4	7,586
1007,8	5,614
1008,2	6,529
1008,6	3,871
1009,1	-0,186
1009,5	4,614
1009,9	7,386
1010,3	12,471
1010,7	17,614
1011,1	21,214
1011,6	24,871
1012	29,214
1012,4	26,243
1012,8	22,757
1013,2	19,814
1013,6	14,1
1014,1	14,414
1014,5	12,957
1014,9	17,7
1015,3	15,614
1015,7	14,9
1016,1	18,671
1016,6	22,586
1017	21,986
1017,4	19,129
1017,8	12,986
1018,2	5,671
1018,6	9,129
1019,1	8,5
1019,5	3,957
1019,9	6,614
1020,3	9,586
1020,7	10,843
1021,1	18,786
1021,6	13,357
1022	6,929
1022,4	11,957
1022,8	8,7
1023,2	8,214
1023,6	9,271
1024,1	11,214
1024,5	14,071
1024,9	23,471
1025,3	22,729
1025,7	25,757
1026,1	27,929
1026,6	30,271
1027	26,271
1027,4	28,871
1027,8	22,757
1028,2	21,729
1028,6	19,443
1029	14,271
1029,5	14,671
1029,9	15,157
1030,3	14,186
1030,7	16,1
1031,1	13,557
1031,5	10,357
1032	11,386
1032,4	8,129
1032,8	10,3
1033,2	8,871
1033,6	12,643
1034	15,586
1034,4	20,729
1034,9	20,443
1035,3	23,757
1035,7	24,043
1036,1	27,243
1036,5	23,443
1036,9	24,071
1037,4	24,014
1037,8	26,929
1038,2	22,186
1038,6	16,443
1039	12,271
1039,4	12,071
1039,8	11,3
1040,3	6,557
1040,7	5,243
1041,1	8,329
1041,5	12,271
1041,9	12,243
1042,3	14,3
1042,7	15,929
1043,2	24,271
1043,6	28,957
1044	25,043
1044,4	22,643
1044,8	20,643
1045,2	19,471
1045,6	21,729
1046,1	17,071
1046,5	13,871
1046,9	19,614
1047,3	20,357
1047,7	19,014
1048,1	18,129
1048,5	10,729
1049	15,786
1049,4	14,471
1049,8	10,243
1050,2	13,071
1050,6	18,957
1051	23,071
1051,4	24,814
1051,9	20,3
1052,3	20,529
1052,7	20,814
1053,1	22,386
1053,5	21,3
1053,9	18,671
1054,3	16,986
1054,8	21,414
1055,2	23,071
1055,6	22,871
1056	18,186
1056,4	18,243
1056,8	17,7
1057,2	21,586
1057,6	9,557
1058,1	11,243
1058,5	10,957
1058,9	14,9
1059,3	19,586
1059,7	16,986
1060,1	16,386
1060,5	20,814
1061	15,843
1061,4	20,014
1061,8	15,157
1062,2	9,5
1062,6	10,643
1063	8,843
1063,4	12,529
1063,8	15,329
1064,3	9,529
1064,7	10,271
1065,1	8,729
1065,5	12,957
1065,9	15,014
1066,3	9,614
1066,7	10,271
1067,1	10,757
1067,6	15,129
1068	16,157
1068,4	15,157
1068,8	15,043
1069,2	13,843
1069,6	14,871
1070	18,214
1070,4	15,7
1070,9	15,729
1071,3	11,3
1071,7	9,243
1072,1	16,471
1072,5	17,471
1072,9	21,071
1073,3	21,014
1073,7	16,557
1074,2	22,214
1074,6	19,586
1075	19,986
1075,4	15,843
1075,8	11,557
1076,2	9,5
1076,6	9,643
1077	1,7
1077,5	5,986
1077,9	4,5
1078,3	3,786
1078,7	4,157
1079,1	9,014
1079,5	6,9
1079,9	13,186
1080,3	13,843
1080,7	15,5
1081,2	13,414
1081,6	16,129
1082	13,243
1082,4	16,643
1082,8	14,671
1083,2	11,014
1083,6	7,271
1084	6,957
1084,5	5,014
1084,9	5,729
1085,3	7,529
1085,7	3,757
1086,1	0,043
1086,5	2,814
1086,9	6,129
1087,3	6,9
1087,7	9,3
1088,2	7,729
1088,6	8,786
1089	12,014
1089,4	9,329
1089,8	9,157
1090,2	7,814
1090,6	0,386
1091	7,7
1091,4	8,157
1091,9	12,729
1092,3	10,7
1092,7	6,557
1093,1	5,157
1093,5	6,529
1093,9	3,957
1094,3	9,843
1094,7	7,729
1095,1	5,557
1095,5	10,443
1096	4,843
1096,4	6,757
1096,8	1,5
1097,2	-0,786
1097,6	-0,271
1098	1,643
1098,4	2,843
1098,8	6,443
1099,2	1,671
1099,6	5,357
1100,1	3,557
1100,5	3,186
1100,9	2,071
1101,3	1,3
1101,7	8,186
1102,1	14,614
1102,5	12,757
1102,9	10,443
1103,3	10,014
1103,7	13,671
1104,2	15,5
1104,6	14,271
1105	11,357
1105,4	10,3
1105,8	11,271
1106,2	10,529
1106,6	7,729
1107	3,529
1107,4	-1,467
1107,8	-0,46
1108,3	0,85
