Data from Subt2_200.txt Node
Date: Sat Aug 26 18:44:43 MSK 2023
User: vat
Spectrometer: MAYP114033
Trigger mode: 0
Integration Time (sec): 1,000000E0
Scans to average: 5
Electric dark correction enabled: true
Nonlinearity correction enabled: false
Boxcar width: 3
XAxis mode: Wavelengths
Number of Pixels in Spectrum: 2068
>>>>>Begin Spectral Data<<<<<
199,4	-0,383
199,9	2,767
200,4	4,333
200,8	7,252
201,3	5,938
201,8	11,11
202,2	8,167
202,7	11,052
203,2	6,795
203,6	1,167
204,1	-2,49
204,6	-4,548
205	-6,776
205,5	-3,633
206	-6,376
206,4	-6,062
206,9	-4,348
207,4	-7,262
207,8	-2,69
208,3	-5,805
208,8	-3,405
209,2	-2,205
209,7	-1,09
210,2	3,91
210,6	6,595
211,1	3,624
211,5	-1,205
212	-3,148
212,5	-1,462
212,9	-3,233
213,4	-4,519
213,9	-4,49
214,3	-0,548
214,8	5,281
215,3	1,052
215,7	-1,033
216,2	2,824
216,7	2,024
217,1	4,252
217,6	4,395
218,1	2,424
218,5	7,795
219	1,91
219,5	-0,519
219,9	-1,376
220,4	3,767
220,9	2,967
221,3	4,852
221,8	4,595
222,3	11,167
222,7	13,795
223,2	12,681
223,6	7,51
224,1	7,881
224,6	10,138
225	4,481
225,5	3,167
226	1,224
226,4	4,681
226,9	4,71
227,4	5,31
227,8	1,51
228,3	6,652
228,8	6,252
229,2	10,681
229,7	10,252
230,2	7,11
230,6	8,595
231,1	14,138
231,5	17,824
232	20,967
232,5	19,224
232,9	19,31
233,4	22,024
233,9	17,224
234,3	10,652
234,8	6,281
235,3	1,195
235,7	-3,548
236,2	-3,462
236,7	-3,348
237,1	0,052
237,6	-1,205
238,1	-0,576
238,5	-1,919
239	0,881
239,4	3,824
239,9	1,595
240,4	0,195
240,8	7,71
241,3	6,11
241,8	9,052
242,2	7,824
242,7	4,024
243,2	5,967
243,6	1,681
244,1	0,538
244,6	-0,548
245	-1,405
245,5	-0,776
245,9	-4,805
246,4	-1,319
246,9	4,424
247,3	0,31
247,8	3,052
248,3	5,052
248,7	7,71
249,2	9,51
249,7	5,652
250,1	5,51
250,6	4,167
251	3,738
251,5	7,881
252	5,138
252,4	7,967
252,9	7,367
253,4	3,624
253,8	7,224
254,3	10,481
254,8	7,567
255,2	3,51
255,7	2,481
256,1	3,881
256,6	5,138
257,1	5,91
257,5	-0,433
258	-0,319
258,5	3,452
258,9	4,11
259,4	4,367
259,9	4,91
260,3	0,31
260,8	-2,062
261,2	-1,148
261,7	3,738
262,2	-1,776
262,6	-6,348
263,1	-4,062
263,6	-0,262
264	5,824
264,5	6,967
264,9	2,967
265,4	7,481
265,9	6,452
266,3	7,31
266,8	7,624
267,3	7,081
267,7	3,995
268,2	4,681
268,7	5,367
269,1	10,738
269,6	6,081
270	7,767
270,5	2,852
271	-0,348
271,4	-1,805
271,9	-6,29
272,4	-5,405
272,8	-2,633
273,3	-6,548
273,7	-0,69
274,2	1,052
274,7	2,138
275,1	3,338
275,6	1,938
276,1	-2,062
276,5	1,195
277	1,081
277,4	3,738
277,9	8,452
278,4	14,481
278,8	16,767
279,3	19,481
279,8	20,824
280,2	20,767
280,7	20,281
281,1	9,052
281,6	4,167
282,1	1,51
282,5	-1,062
283	-3,262
283,4	-5,662
283,9	-4,49
284,4	5,252
284,8	7,281
285,3	4,424
285,8	7,167
286,2	4,738
286,7	5,938
287,1	2,538
287,6	0,195
288,1	0,538
288,5	5,395
289	4,052
289,5	6,51
289,9	5,738
290,4	9,652
290,8	8,995
291,3	8,852
291,8	9,252
292,2	7,938
292,7	9,252
293,1	7,367
293,6	4,052
294,1	5,452
294,5	5,31
295	1,881
295,5	3,195
295,9	2,538
296,4	2,31
296,8	0,424
297,3	-0,348
297,8	-6,89
298,2	-5,205
298,7	-1,919
299,1	-0,119
299,6	-0,09
300,1	2,452
300,5	2,395
301	8,51
301,5	9,424
301,9	4,224
302,4	1,652
302,8	0,795
303,3	-2,033
303,8	-5,605
304,2	-6,89
304,7	-6,776
305,1	-7,633
305,6	-7,376
306,1	0,452
306,5	3,31
307	6,281
307,4	9,795
307,9	10,081
308,4	16,395
308,8	11,881
309,3	9,624
309,8	8,91
310,2	10,31
310,7	4,624
311,1	3,395
311,6	0,224
312,1	5,138
312,5	10,024
313	13,052
313,4	11,795
313,9	13,852
314,4	12,31
314,8	12,424
315,3	11,652
315,7	-0,376
316,2	-6,348
316,7	-8,605
317,1	-3,576
317,6	-3,262
318	0,624
318,5	0,51
319	6,11
319,4	11,71
319,9	18,424
320,3	19,052
320,8	20,167
321,3	17,824
321,7	19,881
322,2	20,881
322,6	20,252
323,1	14,595
323,6	7,595
324	5,31
324,5	3,51
324,9	-1,119
325,4	-5,462
325,9	-2,69
326,3	-1,319
326,8	1,938
327,2	-1,348
327,7	-3,233
328,2	-0,948
328,6	4,795
329,1	-2,576
329,5	-0,319
330	-2,748
330,5	4,424
330,9	5,538
331,4	7,395
331,8	3,795
332,3	9,824
332,8	12,195
333,2	14,052
333,7	12,481
334,1	17,71
334,6	13,938
335,1	6,481
335,5	9,424
336	5,538
336,4	6,795
336,9	12,338
337,4	9,338
337,8	9,852
338,3	16,652
338,7	15,367
339,2	14,91
339,7	16,338
340,1	9,51
340,6	9,624
341	8,852
341,5	11,052
342	5,71
342,4	5,681
342,9	5,31
343,3	6,252
343,8	6,281
344,2	6,167
344,7	8,852
345,2	7,738
345,6	6,052
346,1	8,167
346,5	7,338
347	6,595
347,5	8,195
347,9	12,995
348,4	14,481
348,8	17,081
349,3	13,567
349,8	18,452
350,2	24,052
350,7	20,681
351,1	16,481
351,6	21,281
352	25,224
352,5	29,424
353	36,167
353,4	39,081
353,9	54,281
354,3	64,91
354,8	75,424
355,3	92,395
355,7	111,224
356,2	130,024
356,6	158,052
357,1	190,681
357,5	225,11
358	267,795
358,5	306,824
358,9	358,652
359,4	414,824
359,8	476,881
360,3	546,767
360,8	623,995
361,2	711,538
361,7	814,052
362,1	926,624
362,6	1044,71
363	1170,595
363,5	1300,767
364	1445,624
364,4	1589,767
364,9	1737,052
365,3	1875,224
365,8	2012,795
366,3	2141,11
366,7	2259,024
367,2	2367,167
367,6	2451,91
368,1	2519,11
368,5	2561,824
369	2587,51
369,5	2589,824
369,9	2571,167
370,4	2526,052
370,8	2466,51
371,3	2382,367
371,7	2299,081
372,2	2198,195
372,7	2096,995
373,1	1987,167
373,6	1863,081
374	1753,595
374,5	1646,167
374,9	1529,767
375,4	1418,11
375,9	1306,795
376,3	1205,967
376,8	1111,652
377,2	1012,081
377,7	922,624
378,2	845,624
378,6	776,595
379,1	710,052
379,5	653,024
380	606,452
380,4	557,624
380,9	512,738
381,4	467,252
381,8	429,91
382,3	400,11
382,7	366,395
383,2	339,681
383,6	320,738
384,1	304,081
384,6	287,481
385	265,081
385,5	246,195
385,9	230,11
386,4	212,281
386,8	200,51
387,3	181,224
387,7	172,224
388,2	161,881
388,7	149,024
389,1	140,395
389,6	129,767
390	118,71
390,5	116,881
390,9	106,852
391,4	100,024
391,9	94,824
392,3	88,367
392,8	78,967
393,2	74,824
393,7	68,852
394,1	62,138
394,6	57,281
395,1	58,138
395,5	50,824
396	55,024
396,4	51,052
396,9	48,738
397,3	52,681
397,8	55,138
398,2	50,138
398,7	51,052
399,2	51,052
399,6	51,795
400,1	47,681
400,5	42,567
401	40,395
401,4	35,938
401,9	38,967
402,4	36,338
402,8	33,452
403,3	41,395
403,7	43,624
404,2	48,424
404,6	54,91
405,1	52,51
405,5	51,681
406	52,31
406,5	48,738
406,9	51,738
407,4	48,995
407,8	50,795
408,3	56,681
408,7	55,881
409,2	62,71
409,6	66,624
410,1	68,738
410,6	78,424
411	83,595
411,5	87,652
411,9	98,481
412,4	101,167
412,8	103,567
413,3	109,71
413,7	107,767
414,2	111,338
414,7	118,967
415,1	128,081
415,6	138,11
416	147,995
416,5	156,081
416,9	162,395
417,4	172,338
417,8	182,51
418,3	190,567
418,8	200,281
419,2	210,167
419,7	219,481
420,1	232,967
420,6	243,281
421	247,71
421,5	260,938
421,9	268,481
422,4	282,51
422,8	296,167
423,3	310,71
423,8	320,395
424,2	331,938
424,7	342,081
425,1	356,338
425,6	372,081
426	382,424
426,5	398,71
426,9	421,138
427,4	444,338
427,9	458,681
428,3	480,452
428,8	500,567
429,2	527,224
429,7	550,395
430,1	568,167
430,6	594,567
431	625,367
431,5	652,224
431,9	675,195
432,4	709,567
432,8	742,71
433,3	785,11
433,8	819,767
434,2	858,624
434,7	900,252
435,1	945,624
435,6	985,367
436	1031,452
436,5	1076,367
436,9	1122,252
437,4	1168,138
437,8	1219,681
438,3	1272,681
438,8	1325,881
439,2	1384,795
439,7	1443,367
440,1	1503,567
440,6	1570,767
441	1631,595
441,5	1702,567
441,9	1773,224
442,4	1837,795
442,8	1911,938
443,3	1992,91
443,7	2071,338
444,2	2154,138
444,7	2236,967
445,1	2319,91
445,6	2413,195
446	2506,224
446,5	2589,852
446,9	2675,138
447,4	2771,338
447,8	2866,71
448,3	2974,567
448,7	3080,567
449,2	3186,995
449,6	3303,538
450,1	3418,167
450,6	3537,71
451	3651,167
451,5	3769,938
451,9	3885,995
452,4	4015,31
452,8	4132,138
453,3	4265,881
453,7	4395,767
454,2	4528,852
454,6	4660,452
455,1	4793,195
455,5	4913,795
456	5059,481
456,4	5196,395
456,9	5334,024
457,3	5478,224
457,8	5612,11
458,3	5761,91
458,7	5909,967
459,2	6057,967
459,6	6207,538
460,1	6366,138
460,5	6513,424
461	6676,367
461,4	6824,595
461,9	6983,167
462,3	7135,595
462,8	7289,767
463,2	7436,938
463,7	7597,224
464,1	7752,71
464,6	7911,195
465	8065,795
465,5	8225,167
466	8383,767
466,4	8535,795
466,9	8690,11
467,3	8840,738
467,8	8997,995
468,2	9157,538
468,7	9310,881
469,1	9461,624
469,6	9610,967
470	9755,624
470,5	9902,252
470,9	10041,11
471,4	10164,31
471,8	10304,51
472,3	10441,624
472,7	10581,281
473,2	10708,995
473,6	10833,995
474,1	10967,995
474,5	11105,852
475	11221,51
475,4	11346,281
475,9	11459,681
476,4	11577,338
476,8	11694,71
477,3	11804,224
477,7	11910,91
478,2	12013,367
478,6	12105,052
479,1	12196,624
479,5	12294,052
480	12382,481
480,4	12463,538
480,9	12537,938
481,3	12612,081
481,8	12689,567
482,2	12748,852
482,7	12816,395
483,1	12869,024
483,6	12924,567
484	12978,881
484,5	13037,51
484,9	13080,052
485,4	13131,538
485,8	13156,11
486,3	13190,138
486,7	13215,424
487,2	13235,424
487,6	13245,481
488,1	13257,281
488,5	13268,881
489	13279,081
489,4	13276,167
489,9	13274,252
490,4	13270,881
490,8	13260,538
491,3	13252,024
491,7	13235,71
492,2	13220,081
492,6	13209,052
493,1	13185,081
493,5	13145,367
494	13112,224
494,4	13074,91
494,9	13027,624
495,3	12987,338
495,8	12939,938
496,2	12893,11
496,7	12839,338
497,1	12786,938
497,6	12728,11
498	12677,31
498,5	12616,367
498,9	12561,052
499,4	12488,938
499,8	12440,538
500,3	12369,767
500,7	12302,338
501,2	12234,795
501,6	12157,224
502,1	12074,824
502,5	12011,938
503	11938,481
503,4	11866,081
503,9	11782,481
504,3	11701,881
504,8	11621,738
505,2	11539,31
505,7	11450,995
506,1	11362,367
506,6	11268,824
507	11176,938
507,5	11086,481
507,9	11001,538
508,4	10912,624
508,8	10815,31
509,3	10714,51
509,7	10625,424
510,2	10532,395
510,6	10428,281
511,1	10324,767
511,5	10222,995
512	10126,167
512,4	10035,195
512,9	9934,481
513,3	9838,081
513,8	9748,481
514,2	9656,938
514,7	9551,995
515,1	9457,738
515,6	9357,967
516	9262,11
516,5	9165,938
516,9	9067,881
517,4	8972,967
517,8	8886,91
518,3	8798,824
518,7	8705,71
519,2	8613,367
519,6	8520,024
520,1	8428,538
520,5	8321,452
521	8229,367
521,4	8130,481
521,9	8037,681
522,3	7946,567
522,8	7858,881
523,2	7769,51
523,7	7690,138
524,1	7604,624
524,6	7510,481
525	7428,281
525,5	7345,795
525,9	7265,024
526,4	7176,424
526,8	7097,795
527,3	7013,224
527,7	6938,424
528,2	6857,824
528,6	6777,424
529,1	6697,452
529,5	6626,081
530	6549,281
530,4	6472,51
530,9	6398,995
531,3	6325,595
531,8	6254,052
532,2	6185,081
532,6	6116,995
533,1	6045,452
533,5	5979,481
534	5911,224
534,4	5843,567
534,9	5784,51
535,3	5713,967
535,8	5646,052
536,2	5584,824
536,7	5526,481
537,1	5463,967
537,6	5406,51
538	5346,824
538,5	5290,452
538,9	5218,624
539,4	5165,338
539,8	5105,852
540,3	5051,138
540,7	4988,081
541,2	4926,424
541,6	4873,824
542,1	4838,424
542,5	4790,138
543	4731,881
543,4	4685,681
543,9	4642,195
544,3	4594,767
544,8	4543,424
545,2	4495,91
545,7	4441,624
546,1	4404,081
546,5	4357,824
547	4312,31
547,4	4270,167
547,9	4228,881
548,3	4185,681
548,8	4143,481
549,2	4094,052
549,7	4049,967
550,1	4016,31
550,6	3980,31
551	3944,595
551,5	3908,481
551,9	3873,51
552,4	3846,824
552,8	3816,995
553,3	3776,081
553,7	3734,795
554,2	3698,138
554,6	3669,367
555,1	3640,395
555,5	3608,824
555,9	3578,71
556,4	3544,367
556,8	3511,71
557,3	3481,681
557,7	3447,967
558,2	3408,281
558,6	3370,767
559,1	3335,681
559,5	3311,595
560	3291,338
560,4	3269,024
560,9	3236,452
561,3	3216,71
561,8	3195,31
562,2	3171,424
562,7	3141,51
563,1	3118,852
563,6	3085,624
564	3061,995
564,4	3028,767
564,9	3001,967
565,3	2974,224
565,8	2956,481
566,2	2927,224
566,7	2909,395
567,1	2889,824
567,6	2870,681
568	2852,424
568,5	2832,824
568,9	2804,881
569,4	2782,681
569,8	2761,795
570,3	2738,11
570,7	2721,71
571,1	2699,11
571,6	2686,995
572	2674,91
572,5	2658,224
572,9	2633,31
573,4	2617,71
573,8	2599,852
574,3	2579,595
574,7	2551,767
575,2	2530,452
575,6	2507,481
576,1	2492,681
576,5	2474,938
576,9	2451,881
577,4	2431,795
577,8	2410,452
578,3	2384,595
578,7	2362,967
579,2	2348,624
579,6	2325,51
580,1	2310,395
580,5	2298,938
581	2288,138
581,4	2278,167
581,9	2270,824
582,3	2251,652
582,7	2243,795
583,2	2222,138
583,6	2205,052
584,1	2191,081
584,5	2173,452
585	2157,881
585,4	2136,938
585,9	2115,881
586,3	2112,11
586,8	2102,91
587,2	2086,681
587,6	2081,767
588,1	2070,938
588,5	2064,681
589	2048,51
589,4	2029,624
589,9	2014,138
590,3	1998,367
590,8	1982,252
591,2	1967,681
591,7	1957,567
592,1	1954,71
592,5	1948,738
593	1935,852
593,4	1931,681
593,9	1919,595
594,3	1904,481
594,8	1887,395
595,2	1871,138
595,7	1858,795
596,1	1847,224
596,6	1829,938
597	1819,395
597,4	1811,567
597,9	1803,91
598,3	1802,081
598,8	1793,138
599,2	1785,052
599,7	1781,11
600,1	1771,138
600,6	1760,91
601	1753,538
601,4	1741,852
601,9	1728,881
602,3	1716,052
602,8	1702,795
603,2	1691,595
603,7	1682,938
604,1	1672,195
604,6	1656,795
605	1641,281
605,4	1638,395
605,9	1624,995
606,3	1610,824
606,8	1599,767
607,2	1589,881
607,7	1575,938
608,1	1571,652
608,6	1561,338
609	1561,51
609,4	1562,11
609,9	1556,71
610,3	1547,252
610,8	1544,91
611,2	1536,395
611,7	1522,081
612,1	1506,652
612,6	1492,767
613	1480,11
613,4	1469,11
613,9	1459,567
614,3	1448,252
614,8	1445,795
615,2	1434,424
615,7	1428,652
616,1	1423,195
616,6	1416,795
617	1403,081
617,4	1398,852
617,9	1391,452
618,3	1389,881
618,8	1379,881
619,2	1368,367
619,7	1360,11
620,1	1354,367
620,5	1349,11
621	1335,024
621,4	1329,052
621,9	1323,31
622,3	1316,995
622,8	1305,538
623,2	1299,71
623,6	1289,424
624,1	1286,081
624,5	1275,024
625	1265,967
625,4	1258,652
625,9	1251,338
626,3	1244,795
626,8	1235,081
627,2	1227,738
627,6	1216,595
628,1	1205,081
628,5	1197,938
629	1189,652
629,4	1178,252
629,9	1165,795
630,3	1153,51
630,7	1139,595
631,2	1135,681
631,6	1127,395
632,1	1119,395
632,5	1114,51
633	1114,31
633,4	1108,281
633,8	1106,91
634,3	1096,567
634,7	1087,11
635,2	1081,91
635,6	1076,252
636,1	1064,595
636,5	1054,11
636,9	1039,824
637,4	1035,424
637,8	1026,767
638,3	1020,11
638,7	1005,681
639,2	1001,11
639,6	996,51
640	996,224
640,5	991,424
640,9	984,681
641,4	979,995
641,8	981,138
642,2	974,424
642,7	979,995
643,1	978,538
643,6	970,681
644	972,367
644,5	965,624
644,9	956,252
645,3	953,995
645,8	935,881
646,2	933,624
646,7	927,624
647,1	916,11
647,6	912,681
648	913,71
648,4	903,852
648,9	904,081
649,3	893,11
649,8	890,481
650,2	885,395
650,6	877,881
651,1	863,652
651,5	868,081
652	857,224
652,4	849,395
652,9	841,824
653,3	838,595
653,7	833,395
654,2	833,11
654,6	819,11
655,1	819,024
655,5	819,71
655,9	812,138
656,4	807,338
656,8	803,338
657,3	798,367
657,7	794,224
658,2	785,167
658,6	773,452
659	768,652
659,5	756,595
659,9	750,624
660,4	745,595
660,8	737,91
661,2	732,024
661,7	728,024
662,1	724,452
662,6	727,138
663	726,195
663,4	721,624
663,9	717,824
664,3	711,51
664,8	702,51
665,2	693,681
665,6	683,795
666,1	680,367
666,5	675,595
667	667,338
667,4	666,681
667,9	669,11
668,3	663,767
668,7	661,481
669,2	652,395
669,6	647,71
670,1	647,024
670,5	635,395
670,9	627,824
671,4	628,938
671,8	625,51
672,3	620,652
672,7	615,652
673,1	607,081
673,6	608,824
674	606,881
674,5	601,024
674,9	593,824
675,3	587,11
675,8	583,538
676,2	582,681
676,7	575,252
677,1	572,738
677,5	568,995
678	570,252
678,4	569,338
678,9	564,252
679,3	560,995
679,7	558,51
680,2	548,538
680,6	540,31
681,1	536,138
681,5	537,481
681,9	533,967
682,4	535,71
682,8	535,367
683,3	541,024
683,7	541,824
684,1	537,138
684,6	529,052
685	526,538
685,5	514,081
685,9	505,967
686,3	495,024
686,8	490,367
687,2	488,452
687,7	480,995
688,1	472,252
688,5	473,595
689	473,995
689,4	471,567
689,9	466,967
690,3	456,024
690,7	457,795
691,2	461,452
691,6	455,71
692	449,052
692,5	446,395
692,9	448,167
693,4	451,052
693,8	446,024
694,2	438,938
694,7	434,252
695,1	431,11
695,6	430,195
696	423,881
696,4	418,852
696,9	412,31
697,3	407,567
697,8	405,538
698,2	401,767
698,6	398,281
699,1	394,167
699,5	393,652
699,9	392,424
700,4	389,995
700,8	389,995
701,3	394,481
701,7	385,367
702,1	380,395
702,6	375,91
703	376,652
703,5	374,71
703,9	369,824
704,3	358,852
704,8	358,281
705,2	358,338
705,6	353,024
706,1	349,681
706,5	350,024
707	345,224
707,4	347,538
707,8	342,71
708,3	344,767
708,7	345,567
709,2	338,138
709,6	331,995
710	337,51
710,5	332,595
710,9	335,681
711,3	329,481
711,8	326,624
712,2	329,595
712,7	327,167
713,1	323,681
713,5	320,567
714	318,452
714,4	313,081
714,8	311,71
715,3	307,395
715,7	305,367
716,2	297,852
716,6	295,024
717	288,11
717,5	283,652
717,9	283,081
718,3	281,024
718,8	274,252
719,2	274,11
719,7	276,338
720,1	282,024
720,5	288,138
721	281,567
721,4	282,824
721,8	290,424
722,3	285,567
722,7	284,081
723,2	273,367
723,6	264,567
724	261,852
724,5	255,11
724,9	249,11
725,3	249,938
725,8	244,367
726,2	247,681
726,7	249,024
727,1	248,595
727,5	249,595
728	243,452
728,4	241,224
728,8	243,681
729,3	239,595
729,7	236,938
730,1	235,481
730,6	232,795
731	232,681
731,5	232,31
731,9	227,367
732,3	230,767
732,8	228,824
733,2	229,51
733,6	226,424
734,1	228,452
734,5	223,624
734,9	226,795
735,4	223,252
735,8	221,995
736,3	222,624
736,7	221,224
737,1	220,452
737,6	223,995
738	218,338
738,4	211,567
738,9	211,081
739,3	207,167
739,7	206,652
740,2	206,052
740,6	205,738
741,1	207,281
741,5	208,567
741,9	207,881
742,4	207,538
742,8	206,71
743,2	202,881
743,7	193,624
744,1	187,252
744,5	186,31
745	182,881
745,4	177,852
745,8	178,738
746,3	178,395
746,7	180,11
747,2	181,338
747,6	187,795
748	189,024
748,5	191,51
748,9	186,024
749,3	183,281
749,8	184,738
750,2	185,281
750,6	177,738
751,1	176,024
751,5	172,824
751,9	173,31
752,4	176,281
752,8	174,024
753,3	174,195
753,7	174,91
754,1	168,852
754,6	166,824
755	163,052
755,4	159,852
755,9	157,024
756,3	151,224
756,7	146,595
757,2	150,995
757,6	151,052
758	156,252
758,5	154,595
758,9	153,652
759,3	154,224
759,8	153,51
760,2	151,081
760,6	152,052
761,1	145,852
761,5	144,195
761,9	145,481
762,4	143,481
762,8	145,167
763,3	145,452
763,7	144,395
764,1	148,995
764,6	151,024
765	151,052
765,4	151,024
765,9	151,452
766,3	154,452
766,7	148,91
767,2	145,538
767,6	146,11
768	144,11
768,5	142,395
768,9	138,481
769,3	133,338
769,8	135,652
770,2	132,681
770,6	127,938
771,1	129,481
771,5	128,995
771,9	130,51
772,4	129,91
772,8	128,995
773,2	128,91
773,7	127,481
774,1	125,767
774,5	123,281
775	121,452
775,4	121,367
775,8	118,938
776,3	117,967
776,7	120,024
777,1	119,681
777,6	120,138
778	122,567
778,4	118,795
778,9	122,681
779,3	123,852
779,7	124,252
780,2	125,138
780,6	127,281
781	122,91
781,5	123,252
781,9	122,824
782,3	120,738
782,8	117,167
783,2	110,624
783,6	112,195
784,1	112,852
784,5	113,595
784,9	111,31
785,4	111,738
785,8	117,395
786,2	120,995
786,7	121,367
787,1	117,681
787,5	118,167
788	111,624
788,4	110,338
788,8	102,11
789,3	97,738
789,7	97,395
790,1	97,024
790,6	99,51
791	101,167
791,4	104,195
791,9	104,91
792,3	103,567
792,7	99,538
793,2	98,967
793,6	94,738
794	94,595
794,5	88,51
794,9	87,91
795,3	90,652
795,8	86,967
796,2	87,452
796,6	85,138
797,1	86,224
797,5	87,91
797,9	85,024
798,4	81,738
798,8	83,538
799,2	84,138
799,7	87,91
800,1	87,167
800,5	90,852
801	95,938
801,4	97,71
801,8	95,938
802,2	93,681
802,7	88,452
803,1	88,281
803,5	83,538
804	76,138
804,4	74,424
804,8	75,967
805,3	79,138
805,7	81,167
806,1	79,71
806,6	81,31
807	78,395
807,4	76,681
807,9	72,852
808,3	68,938
808,7	66,081
809,2	72,624
809,6	70,824
810	74,624
810,4	72,595
810,9	73,195
811,3	75,767
811,7	77,338
812,2	75,767
812,6	74,395
813	82,881
813,5	86,767
813,9	84,967
814,3	80,51
814,8	80,081
815,2	73,424
815,6	74,224
816,1	66,567
816,5	67,824
816,9	67,595
817,3	66,224
817,8	66,452
818,2	67,71
818,6	63,51
819,1	62,51
819,5	59,481
819,9	61,938
820,4	64,167
820,8	60,481
821,2	55,995
821,7	58,024
822,1	60,91
822,5	67,967
822,9	64,738
823,4	65,338
823,8	67,852
824,2	73,281
824,7	72,224
825,1	64,195
825,5	52,652
826	49,395
826,4	48,538
826,8	46,11
827,3	45,738
827,7	42,738
828,1	45,995
828,5	49,424
829	48,595
829,4	45,252
829,8	42,652
830,3	39,024
830,7	37,224
831,1	40,71
831,6	41,824
832	44,652
832,4	45,681
832,8	50,681
833,3	51,338
833,7	51,91
834,1	51,424
834,6	51,624
835	52,167
835,4	55,91
835,8	52,538
836,3	52,081
836,7	55,881
837,1	52,11
837,6	51,052
838	47,824
838,4	47,052
838,9	47,91
839,3	42,967
839,7	42,881
840,1	39,481
840,6	36,024
841	41,11
841,4	37,681
841,9	36,967
842,3	40,595
842,7	39,424
843,1	41,052
843,6	44,738
844	41,081
844,4	45,624
844,9	45,367
845,3	43,767
845,7	46,138
846,2	42,652
846,6	36,11
847	41,91
847,4	33,881
847,9	34,11
848,3	36,452
848,7	30,31
849,2	34,281
849,6	32,51
850	32,881
850,4	35,052
850,9	36,567
851,3	37,567
851,7	41,824
852,2	40,567
852,6	46,395
853	43,767
853,4	44,252
853,9	41,224
854,3	36,767
854,7	34,624
855,2	35,595
855,6	33,224
856	30,738
856,4	29,195
856,9	29,224
857,3	31,367
857,7	34,138
858,2	38,338
858,6	40,995
859	45,11
859,4	46,195
859,9	47,252
860,3	44,852
860,7	43,852
861,1	42,11
861,6	34,967
862	30,052
862,4	27,595
862,9	26,11
863,3	27,481
863,7	23,852
864,1	23,395
864,6	28,452
865	23,452
865,4	26,367
865,9	28,252
866,3	25,224
866,7	26,395
867,1	21,281
867,6	21,081
868	24,338
868,4	24,938
868,8	22,395
869,3	24,538
869,7	28,281
870,1	28,424
870,6	25,424
871	10,995
871,4	13,367
871,8	10,195
872,3	11,938
872,7	8,967
873,1	12,567
873,5	14,167
874	28,338
874,4	23,081
874,8	20,51
875,3	22,281
875,7	16,338
876,1	13,567
876,5	13,281
877	9,081
877,4	5,824
877,8	12,281
878,2	15,11
878,7	22,481
879,1	25,424
879,5	28,224
879,9	32,767
880,4	36,71
880,8	35,995
881,2	29,052
881,7	28,995
882,1	26,624
882,5	22,938
882,9	24,767
883,4	22,167
883,8	19,538
884,2	22,538
884,6	18,224
885,1	18,624
885,5	20,138
885,9	14,424
886,3	18,224
886,8	18,281
887,2	16,824
887,6	17,938
888	17,11
888,5	14,138
888,9	17,338
889,3	13,252
889,8	11,195
890,2	6,738
890,6	3,081
891	6,281
891,5	7,11
891,9	8,081
892,3	11,481
892,7	13,881
893,2	17,138
893,6	23,481
894	20,452
894,4	18,11
894,9	17,338
895,3	18,252
895,7	23,31
896,1	20,395
896,6	19,681
897	24,138
897,4	30,195
897,8	29,338
898,3	30,367
898,7	24,938
899,1	28,595
899,5	26,538
900	18,624
900,4	17,424
900,8	19,31
901,2	11,738
901,7	12,224
902,1	13,024
902,5	14,252
902,9	16,195
903,4	14,738
903,8	12,595
904,2	13,852
904,6	12,31
905,1	10,11
905,5	8,852
905,9	10,252
906,3	12,452
906,8	13,967
907,2	15,481
907,6	19,967
908	21,852
908,5	20,51
908,9	15,767
909,3	12,224
909,7	9,852
910,2	9,538
910,6	8,91
911	3,824
911,4	4,71
911,9	7,995
912,3	8,367
912,7	11,424
913,1	14,595
913,6	9,31
914	12,281
914,4	13,424
914,8	15,195
915,3	12,91
915,7	12,195
916,1	10,767
916,5	14,138
916,9	12,71
917,4	8,052
917,8	7,881
918,2	9,052
918,6	2,452
919,1	1,138
919,5	3,681
919,9	4,881
920,3	7,795
920,8	6,452
921,2	4,995
921,6	7,081
922	7,367
922,5	6,024
922,9	6,31
923,3	5,195
923,7	5,081
924,2	6,595
924,6	6,967
925	6,567
925,4	4,595
925,8	4,31
926,3	2,624
926,7	-0,29
927,1	1,252
927,5	4,31
928	3,738
928,4	-0,119
928,8	0,367
929,2	1,967
929,7	5,595
930,1	5,452
930,5	4,738
930,9	7,71
931,3	9,538
931,8	10,281
932,2	7,31
932,6	7,995
933	1,71
933,5	0,824
933,9	3,31
934,3	6,252
934,7	-0,576
935,2	3,252
935,6	1,224
936	3,51
936,4	6,395
936,8	2,367
937,3	0,195
937,7	8,595
938,1	12,652
938,5	12,081
939	15,852
939,4	15,567
939,8	15,91
940,2	19,767
940,6	17,167
941,1	12,338
941,5	17,081
941,9	13,795
942,3	14,024
942,8	14,595
943,2	15,252
943,6	9,281
944	11,71
944,4	8,567
944,9	8,938
945,3	7,31
945,7	3,052
946,1	-2,09
946,6	-0,348
947	-1,29
947,4	3,424
947,8	5,91
948,2	5,938
948,7	7,995
949,1	7,795
949,5	13,195
949,9	11,224
950,3	4,967
950,8	4,91
951,2	2,224
951,6	0,624
952	6,052
952,5	1,481
952,9	4,481
953,3	4,024
953,7	4,51
954,1	9,538
954,6	12,824
955	10,995
955,4	11,624
955,8	13,795
956,2	13,624
956,7	10,51
957,1	5,424
957,5	4,595
957,9	6,281
958,3	6,624
958,8	1,252
959,2	5,51
959,6	10,91
960	10,624
960,5	14,167
960,9	13,538
961,3	13,052
961,7	13,081
962,1	8,995
962,6	6,052
963	7,224
963,4	-2,29
963,8	-2,262
964,2	0,338
964,7	-2,148
965,1	0,652
965,5	-0,29
965,9	0,252
966,3	9,681
966,8	7,91
967,2	7,167
967,6	11,595
968	9,738
968,4	10,224
968,9	13,395
969,3	16,538
969,7	13,595
970,1	13,081
970,5	10,395
971	13,338
971,4	14,71
971,8	9,881
972,2	4,652
972,6	5,767
973,1	5,281
973,5	8,681
973,9	8,424
974,3	7,281
974,7	13,51
975,2	11,738
975,6	13,71
976	18,481
976,4	12,195
976,8	10,31
977,3	9,31
977,7	2,767
978,1	2,852
978,5	-0,519
978,9	-7,319
979,4	-4,148
979,8	-6,29
980,2	-3,576
980,6	-3,462
981	-0,062
981,5	0,252
981,9	3,167
982,3	4,71
982,7	8,852
983,1	4,395
983,6	9,11
984	6,338
984,4	6,795
984,8	4,31
985,2	4,567
985,6	3,567
986,1	6,681
986,5	5,052
986,9	-0,148
987,3	1,338
987,7	2,652
988,2	0,967
988,6	-0,005
989	-3,462
989,4	-4,29
989,8	-2,348
990,3	-4,033
990,7	-4,348
991,1	-4,462
991,5	-3,29
991,9	2,281
992,3	4,767
992,8	10,424
993,2	13,567
993,6	16,738
994	21,224
994,4	17,824
994,9	11,51
995,3	8,852
995,7	2,938
996,1	-0,176
996,5	-0,576
996,9	-6,748
997,4	-2,319
997,8	-1,233
998,2	-2,319
998,6	-6,405
999	-5,033
999,5	-5,176
999,9	-3,49
1000,3	-4,805
1000,7	-0,89
1001,1	-0,262
1001,5	8,024
1002	14,252
1002,4	14,481
1002,8	12,938
1003,2	12,91
1003,6	9,395
1004	12,595
1004,5	6,824
1004,9	1,567
1005,3	-4,548
1005,7	-1,033
1006,1	-3,519
1006,6	-0,462
1007	-0,69
1007,4	0,91
1007,8	-1,033
1008,2	1,481
1008,6	3,338
1009,1	2,852
1009,5	5,052
1009,9	2,852
1010,3	4,481
1010,7	8,138
1011,1	8,538
1011,6	6,567
1012	11,738
1012,4	7,795
1012,8	4,538
1013,2	10,51
1013,6	8,824
1014,1	12,424
1014,5	13,938
1014,9	11,195
1015,3	10,052
1015,7	13,767
1016,1	6,052
1016,6	4,938
1017	1,224
1017,4	0,51
1017,8	2,481
1018,2	6,424
1018,6	-1,205
1019,1	0,852
1019,5	1,195
1019,9	-0,776
1020,3	-1,548
1020,7	-0,662
1021,1	-6,176
1021,6	1,51
1022	2,738
1022,4	5,967
1022,8	12,081
1023,2	10,681
1023,6	8,138
1024,1	12,767
1024,5	16,595
1024,9	14,91
1025,3	12,71
1025,7	12,281
1026,1	18,11
1026,6	17,71
1027	14,567
1027,4	11,567
1027,8	11,481
1028,2	7,395
1028,6	9,538
1029	3,481
1029,5	9,224
1029,9	12,452
1030,3	9,852
1030,7	12,595
1031,1	17,367
1031,5	10,595
1032	8,081
1032,4	1,052
1032,8	1,481
1033,2	5,738
1033,6	1,967
1034	0,11
1034,4	0,367
1034,9	2,681
1035,3	0,138
1035,7	-1,119
1036,1	-7,09
1036,5	-7,805
1036,9	-6,205
1037,4	-0,205
1037,8	1,424
1038,2	2,652
1038,6	2,738
1039	5,938
1039,4	10,995
1039,8	5,624
1040,3	1,652
1040,7	2,024
1041,1	3,252
1041,5	5,081
1041,9	4,195
1042,3	2,195
1042,7	8,995
1043,2	7,71
1043,6	3,167
1044	3,167
1044,4	1,91
1044,8	6,081
1045,2	7,881
1045,6	6,395
1046,1	3,31
1046,5	2,252
1046,9	0,967
1047,3	-0,319
1047,7	-6,148
1048,1	-14,605
1048,5	-14,862
1049	-8,633
1049,4	-3,49
1049,8	-0,833
1050,2	0,795
1050,6	6,024
1051	13,481
1051,4	13,538
1051,9	12,71
1052,3	16,595
1052,7	14,481
1053,1	7,938
1053,5	7,767
1053,9	9,024
1054,3	6,195
1054,8	10,224
1055,2	9,052
1055,6	12,567
1056	17,167
1056,4	13,681
1056,8	13,795
1057,2	15,738
1057,6	10,252
1058,1	4,052
1058,5	-3,176
1058,9	-0,719
1059,3	1,624
1059,7	-2,805
1060,1	-1,005
1060,5	-0,548
1061	2,681
1061,4	6,995
1061,8	9,624
1062,2	12,481
1062,6	15,624
1063	15,767
1063,4	18,824
1063,8	16,567
1064,3	15,938
1064,7	10,424
1065,1	7,367
1065,5	1,452
1065,9	1,624
1066,3	-2,29
1066,7	-4,69
1067,1	-5,49
1067,6	0,138
1068	-4,919
1068,4	-3,662
1068,8	-5,433
1069,2	-6,433
1069,6	-3,576
1070	2,538
1070,4	-3,09
1070,9	-0,919
1071,3	1,424
1071,7	-0,633
1072,1	2,652
1072,5	0,738
1072,9	-6,205
1073,3	-4,205
1073,7	-1,748
1074,2	-2,319
1074,6	1,167
1075	0,367
1075,4	1,995
1075,8	6,167
1076,2	6,681
1076,6	6,395
1077	7,995
1077,5	8,138
1077,9	4,11
1078,3	2,967
1078,7	3,224
1079,1	3,424
1079,5	1,881
1079,9	1,195
1080,3	-1,205
1080,7	0,281
1081,2	8,738
1081,6	6,51
1082	5,967
1082,4	9,967
1082,8	13,252
1083,2	12,795
1083,6	17,938
1084	10,167
1084,5	12,681
1084,9	7,967
1085,3	4,024
1085,7	0,824
1086,1	2,252
1086,5	0,081
1086,9	5,795
1087,3	2,338
1087,7	5,795
1088,2	6,51
1088,6	4,995
1089	7,167
1089,4	5,424
1089,8	3,281
1090,2	4,338
1090,6	2,738
1091	5,31
1091,4	7,681
1091,9	2,167
1092,3	4,195
1092,7	2,452
1093,1	5,824
1093,5	5,51
1093,9	2,167
1094,3	6,881
1094,7	9,138
1095,1	7,852
1095,5	9,167
1096	5,967
1096,4	8,024
1096,8	7,567
1097,2	4,31
1097,6	6,481
1098	6,481
1098,4	6,852
1098,8	8,252
1099,2	14,081
1099,6	14,738
1100,1	10,195
1100,5	6,624
1100,9	9,11
1101,3	8,51
1101,7	7,71
1102,1	2,481
1102,5	4,224
1102,9	9,167
1103,3	15,681
1103,7	15,452
1104,2	13,71
1104,6	12,967
1105	9,852
1105,4	9,195
1105,8	6,224
1106,2	1,024
1106,6	-1,748
1107	-1,319
1107,4	-1,5
1107,8	1,407
1108,3	-0,383
