Data from Subt2_134.txt Node
Date: Sat Aug 26 18:26:53 MSK 2023
User: vat
Spectrometer: MAYP114033
Trigger mode: 0
Integration Time (sec): 1,000000E0
Scans to average: 5
Electric dark correction enabled: true
Nonlinearity correction enabled: false
Boxcar width: 3
XAxis mode: Wavelengths
Number of Pixels in Spectrum: 2068
>>>>>Begin Spectral Data<<<<<
199,4	-0,167
199,9	-1,647
200,4	-0
200,8	1,262
201,3	0,09
201,8	5,005
202,2	2,376
202,7	6,805
203,2	8,319
203,6	4,119
204,1	1,862
204,6	2,433
205	0,233
205,5	4,176
206	0,976
206,4	-1,281
206,9	-0,31
207,4	-0,938
207,8	-1,795
208,3	-5,481
208,8	-7,652
209,2	-5,167
209,7	-4,652
210,2	-0,767
210,6	2,376
211,1	3,605
211,5	0,633
212	1,005
212,5	-2,195
212,9	-2,481
213,4	-6,024
213,9	-8,195
214,3	-8,967
214,8	-2,252
215,3	-5,338
215,7	-4,395
216,2	-2,71
216,7	-0,652
217,1	-2,138
217,6	0,376
218,1	-4,681
218,5	-2,595
219	-10,11
219,5	-5,91
219,9	-8,195
220,4	-4,795
220,9	-5,424
221,3	-0,795
221,8	2,548
222,3	10,233
222,7	5,29
223,2	4,719
223,6	1,348
224,1	-1,881
224,6	-2,224
225	-9,852
225,5	-12,51
226	-13,51
226,4	-11,567
226,9	-5,824
227,4	-2,395
227,8	-13,31
228,3	-7,938
228,8	-7,967
229,2	-6,424
229,7	-8,367
230,2	-11,338
230,6	-8,967
231,1	1,433
231,5	2,033
232	2,719
232,5	2,748
232,9	5,49
233,4	4,405
233,9	0,433
234,3	-1,567
234,8	-3,881
235,3	-6,138
235,7	-6,024
236,2	-1,11
236,7	1,548
237,1	2,948
237,6	1,776
238,1	1,49
238,5	0,633
239	2,748
239,4	0,405
239,9	-1,138
240,4	-1,652
240,8	1,748
241,3	-1,881
241,8	1,462
242,2	0,119
242,7	-5,281
243,2	-7,024
243,6	-7,567
244,1	-6,367
244,6	0,119
245	-0,338
245,5	0,605
245,9	0,09
246,4	0,919
246,9	-0,024
247,3	-3,052
247,8	-2,91
248,3	-0,624
248,7	0,376
249,2	4,69
249,7	5,919
250,1	10,348
250,6	8,776
251	7,262
251,5	8,519
252	6,262
252,4	4,948
252,9	5,29
253,4	1,405
253,8	1,233
254,3	1,29
254,8	-0,824
255,2	-2,595
255,7	-2,31
256,1	-1,424
256,6	0,748
257,1	6,862
257,5	6,976
258	5,119
258,5	9,348
258,9	8,005
259,4	2,462
259,9	-1,052
260,3	-6,052
260,8	-5,967
261,2	-4,624
261,7	-4,967
262,2	-6,452
262,6	-5,51
263,1	-2,195
263,6	-1,881
264	2,176
264,5	3,462
264,9	0,776
265,4	1,29
265,9	3,69
266,3	3,748
266,8	5,005
267,3	2,519
267,7	-3,795
268,2	-3,452
268,7	-0,795
269,1	-0,11
269,6	1,519
270	5,09
270,5	2,833
271	8,005
271,4	4,776
271,9	-2,595
272,4	2,433
272,8	1,948
273,3	-2,052
273,7	1,005
274,2	1,433
274,7	4,433
275,1	10,262
275,6	2,89
276,1	-1,338
276,5	-0,995
277	-1,11
277,4	-0,881
277,9	1,662
278,4	1,948
278,8	4,319
279,3	8,548
279,8	7,148
280,2	7,205
280,7	9,348
281,1	3,005
281,6	2,005
282,1	3,233
282,5	0,69
283	2,69
283,4	0,662
283,9	-0,91
284,4	4,348
284,8	6,148
285,3	3,948
285,8	2,405
286,2	0,633
286,7	-1,281
287,1	-2,51
287,6	-3,881
288,1	-9,481
288,5	-8,481
289	-10,91
289,5	-7,052
289,9	-7,338
290,4	-6,138
290,8	-4,195
291,3	-0,11
291,8	0,462
292,2	5,376
292,7	4,662
293,1	0,862
293,6	1,605
294,1	-2,995
294,5	-5,424
295	-3,481
295,5	-7,052
295,9	-9,567
296,4	-6,452
296,8	-8,338
297,3	-5,71
297,8	-4,852
298,2	-9,91
298,7	-3,252
299,1	-0,338
299,6	-0,338
300,1	4,719
300,5	4,576
301	9,462
301,5	12,976
301,9	9,262
302,4	1,976
302,8	1,948
303,3	-6,138
303,8	-8,452
304,2	-8,338
304,7	-8,081
305,1	-12,224
305,6	-10,11
306,1	-1,167
306,5	1,776
307	9,719
307,4	6,49
307,9	3,348
308,4	4,405
308,8	3,148
309,3	-0,567
309,8	-1,281
310,2	-1,795
310,7	-0,481
311,1	-0,967
311,6	0,148
312,1	2,148
312,5	1,205
313	5,29
313,4	0,89
313,9	2,033
314,4	1,262
314,8	0,005
315,3	0,662
315,7	-3,252
316,2	-10,538
316,7	-9,624
317,1	-6,281
317,6	-4,195
318	2,005
318,5	0,805
319	1,833
319,4	4,233
319,9	7,633
320,3	2,605
320,8	-0,338
321,3	1,348
321,7	5,148
322,2	6,433
322,6	9,605
323,1	2,776
323,6	2,29
324	3,376
324,5	-2,767
324,9	-2,567
325,4	-3,824
325,9	-0,11
326,3	3,005
326,8	4,09
327,2	5,605
327,7	7,405
328,2	7,748
328,6	8,776
329,1	2,862
329,5	-0,31
330	1,09
330,5	2,005
330,9	2,148
331,4	0,976
331,8	-3,338
332,3	-0,767
332,8	3,433
333,2	3,662
333,7	6,005
334,1	7,69
334,6	7,319
335,1	6,176
335,5	6,605
336	6,519
336,4	6,49
336,9	10,176
337,4	10,49
337,8	10,405
338,3	17,376
338,7	16,805
339,2	12,633
339,7	13,176
340,1	5,833
340,6	2,948
341	1,89
341,5	2,948
342	-2,11
342,4	-0,624
342,9	-4,595
343,3	-0,91
343,8	-0,081
344,2	0,233
344,7	2,69
345,2	5,748
345,6	6,49
346,1	8,519
346,5	2,662
347	1,005
347,5	-0,224
347,9	-0,224
348,4	2,633
348,8	5,805
349,3	10,29
349,8	14,148
350,2	19,519
350,7	19,119
351,1	15,633
351,6	14,319
352	18,919
352,5	19,89
353	27,69
353,4	31,605
353,9	41,748
354,3	56,49
354,8	67,605
355,3	84,09
355,7	100,976
356,2	122,948
356,6	150,348
357,1	181,919
357,5	207,576
358	248,605
358,5	283,376
358,9	332,69
359,4	383,662
359,8	437,462
360,3	503,69
360,8	580,348
361,2	662,29
361,7	754,833
362,1	853,776
362,6	962,348
363	1083,262
363,5	1210,262
364	1345,205
364,4	1480,719
364,9	1617,062
365,3	1749,833
365,8	1879,233
366,3	1996,719
366,7	2098,776
367,2	2192,89
367,6	2264,205
368,1	2326,69
368,5	2365,319
369	2382,89
369,5	2394,262
369,9	2380,09
370,4	2335,576
370,8	2282,976
371,3	2209,748
371,7	2127,405
372,2	2035,69
372,7	1929,719
373,1	1828,405
373,6	1723,633
374	1621,748
374,5	1520,319
374,9	1419,976
375,4	1320,119
375,9	1220,348
376,3	1120,462
376,8	1030,69
377,2	947,919
377,7	866,148
378,2	790,205
378,6	722,662
379,1	657,919
379,5	604,89
380	558,433
380,4	509,776
380,9	468,176
381,4	427,29
381,8	397,662
382,3	371,09
382,7	343,148
383,2	319,319
383,6	295,233
384,1	274,033
384,6	260,233
385	235,948
385,5	221,405
385,9	201,176
386,4	182,176
386,8	171,748
387,3	155,776
387,7	146,176
388,2	140,719
388,7	126,89
389,1	124,005
389,6	118,405
390	109,462
390,5	108,176
390,9	102,748
391,4	94,576
391,9	89,062
392,3	85,805
392,8	81,633
393,2	74,205
393,7	64,69
394,1	54,262
394,6	49,605
395,1	52,09
395,5	44,176
396	42,948
396,4	40,119
396,9	42,405
397,3	48,605
397,8	49,776
398,2	43,148
398,7	46,433
399,2	44,805
399,6	48,833
400,1	46,405
400,5	40,376
401	40,033
401,4	39,976
401,9	39,405
402,4	40,719
402,8	33,662
403,3	36,69
403,7	37,033
404,2	36,948
404,6	40,005
405,1	40,205
405,5	39,548
406	49,09
406,5	45,433
406,9	50,348
407,4	52,862
407,8	55,548
408,3	59,262
408,7	57,033
409,2	62,662
409,6	72,49
410,1	73,09
410,6	80,205
411	85,69
411,5	88,376
411,9	99,233
412,4	100,405
412,8	103,005
413,3	111,262
413,7	111,462
414,2	115,462
414,7	126,29
415,1	137,062
415,6	146,976
416	157,462
416,5	168,205
416,9	181,576
417,4	191,49
417,8	204,89
418,3	214,976
418,8	225,633
419,2	239,462
419,7	251,862
420,1	266,776
420,6	282,348
421	289,405
421,5	305,148
421,9	322,29
422,4	334,719
422,8	350,576
423,3	363,548
423,8	378,433
424,2	395,976
424,7	415,433
425,1	434,005
425,6	460,748
426	482,633
426,5	507,662
426,9	537,262
427,4	563,148
427,9	585,49
428,3	618,062
428,8	645,319
429,2	676,605
429,7	706,833
430,1	737,776
430,6	779,748
431	819,548
431,5	855,405
431,9	889,69
432,4	936,576
432,8	989,89
433,3	1040,148
433,8	1086,89
434,2	1143,033
434,7	1200,519
435,1	1262,919
435,6	1320,462
436	1381,062
436,5	1453,348
436,9	1521,148
437,4	1591,49
437,8	1666,605
438,3	1744,976
438,8	1831,033
439,2	1918,862
439,7	2006,148
440,1	2102,719
440,6	2194,605
441	2291,89
441,5	2398,262
441,9	2497,148
442,4	2596,519
442,8	2702,776
443,3	2816,776
443,7	2938,519
444,2	3063,862
444,7	3190,376
445,1	3325,148
445,6	3460,062
446	3599,605
446,5	3733,719
446,9	3867,89
447,4	4003,605
447,8	4152,005
448,3	4306,233
448,7	4460,605
449,2	4620,319
449,6	4790,148
450,1	4959,233
450,6	5141,662
451	5308,405
451,5	5488,405
451,9	5677,462
452,4	5853,833
452,8	6033,233
453,3	6229,176
453,7	6412,633
454,2	6612,205
454,6	6810,89
455,1	7008,433
455,5	7207,376
456	7416,805
456,4	7625,205
456,9	7839,262
457,3	8046,948
457,8	8245,919
458,3	8466,005
458,7	8696,719
459,2	8922,862
459,6	9144,062
460,1	9369,062
460,5	9600,148
461	9841,405
461,4	10063,176
461,9	10290,605
462,3	10523,148
462,8	10752,262
463,2	10978,033
463,7	11212,376
464,1	11436,233
464,6	11665,005
465	11891,862
465,5	12111,89
466	12343,919
466,4	12573,119
466,9	12796,719
467,3	13017,119
467,8	13252,09
468,2	13484,862
468,7	13708,29
469,1	13935,233
469,6	14162,805
470	14377,433
470,5	14596,633
470,9	14803,262
471,4	14999,862
471,8	15205,748
472,3	15391,005
472,7	15581,005
473,2	15776,49
473,6	15966,919
474,1	16155,49
474,5	16347,376
475	16536,09
475,4	16716,062
475,9	16897,719
476,4	17071,49
476,8	17236,29
477,3	17398,719
477,7	17553,748
478,2	17682,948
478,6	17826,805
479,1	17955,719
479,5	18082,376
480	18210,29
480,4	18335,462
480,9	18439,376
481,3	18559,233
481,8	18662,319
482,2	18757,405
482,7	18844,433
483,1	18922,29
483,6	18993,433
484	19068,805
484,5	19145,062
484,9	19203,862
485,4	19268,205
485,8	19313,776
486,3	19376,548
486,7	19413,262
487,2	19450,405
487,6	19475,833
488,1	19506,833
488,5	19530,462
489	19563,49
489,4	19565,948
489,9	19576,233
490,4	19581,262
490,8	19570,748
491,3	19553,89
491,7	19530,005
492,2	19495,662
492,6	19466,605
493,1	19424,405
493,5	19366,976
494	19314,376
494,4	19269,576
494,9	19208,548
495,3	19151,005
495,8	19086,919
496,2	19029,176
496,7	18962,005
497,1	18901,89
497,6	18832,605
498	18760,005
498,5	18692,119
498,9	18606,119
499,4	18515,519
499,8	18443,49
500,3	18355,433
500,7	18263,348
501,2	18169,433
501,6	18060,119
502,1	17958,862
502,5	17866,719
503	17755,005
503,4	17647,033
503,9	17537,548
504,3	17424,433
504,8	17314,462
505,2	17204,262
505,7	17087,69
506,1	16976,262
506,6	16844,833
507	16719,519
507,5	16593,49
507,9	16462,462
508,4	16330,233
508,8	16189,462
509,3	16043,49
509,7	15923,376
510,2	15783,776
510,6	15639,633
511,1	15515,833
511,5	15385,833
512	15247,976
512,4	15127,033
512,9	14986,233
513,3	14849,548
513,8	14724,776
514,2	14576,29
514,7	14431,176
515,1	14293,69
515,6	14149,405
516	13993,805
516,5	13862,605
516,9	13719,776
517,4	13583,976
517,8	13449,576
518,3	13312,119
518,7	13165,405
519,2	13041,69
519,6	12896,405
520,1	12761,49
520,5	12616,405
521	12468,176
521,4	12330,662
521,9	12206,719
522,3	12068,205
522,8	11943,233
523,2	11811,205
523,7	11679,919
524,1	11560,576
524,6	11428,119
525	11296,833
525,5	11172,348
525,9	11036,89
526,4	10913,033
526,8	10790,748
527,3	10660,176
527,7	10552,262
528,2	10434,348
528,6	10315,119
529,1	10202,433
529,5	10087,005
530	9981,29
530,4	9868,862
530,9	9755,748
531,3	9640,605
531,8	9537,148
532,2	9423,405
532,6	9313,433
533,1	9202,862
533,5	9100,49
534	8989,119
534,4	8881,662
534,9	8774,919
535,3	8680,805
535,8	8584,119
536,2	8487,919
536,7	8393,148
537,1	8296,748
537,6	8214,948
538	8118,948
538,5	8027,976
538,9	7931,348
539,4	7847,205
539,8	7758,805
540,3	7673,548
540,7	7588,576
541,2	7504,49
541,6	7420,605
542,1	7343,148
542,5	7252,433
543	7175,176
543,4	7088,262
543,9	7001,719
544,3	6926,519
544,8	6839,319
545,2	6758,519
545,7	6697,176
546,1	6625,919
546,5	6564,176
547	6495,576
547,4	6422,062
547,9	6356,862
548,3	6291,833
548,8	6216,633
549,2	6141,548
549,7	6073,233
550,1	6013,29
550,6	5960,29
551	5907,348
551,5	5847,348
551,9	5787,319
552,4	5731,89
552,8	5669,433
553,3	5605,462
553,7	5542,862
554,2	5482,662
554,6	5431,948
555,1	5374,319
555,5	5321,148
555,9	5281,605
556,4	5230,748
556,8	5179,319
557,3	5136,376
557,7	5087,548
558,2	5041,662
558,6	4994,148
559,1	4936,719
559,5	4888,862
560	4845,119
560,4	4792,748
560,9	4741,719
561,3	4697,948
561,8	4656,805
562,2	4613,548
562,7	4574,205
563,1	4537,576
563,6	4498,262
564	4457,948
564,4	4409,976
564,9	4366,719
565,3	4331,719
565,8	4291,633
566,2	4248,148
566,7	4212,69
567,1	4179,005
567,6	4151,49
568	4110,862
568,5	4068,262
568,9	4031,205
569,4	3994,205
569,8	3953,405
570,3	3912,233
570,7	3869,062
571,1	3841,433
571,6	3813,062
572	3783,348
572,5	3750,49
572,9	3715,233
573,4	3685,948
573,8	3662,919
574,3	3633,062
574,7	3595,919
575,2	3564,919
575,6	3533,09
576,1	3508,176
576,5	3481,719
576,9	3449,662
577,4	3419,405
577,8	3390,405
578,3	3362,776
578,7	3337,29
579,2	3310,662
579,6	3279,233
580,1	3244,948
580,5	3214,119
581	3192,976
581,4	3161,776
581,9	3136,976
582,3	3108,719
582,7	3088,462
583,2	3067,233
583,6	3048,633
584,1	3024,69
584,5	3002,748
585	2969,833
585,4	2939,862
585,9	2915,205
586,3	2895,519
586,8	2868,576
587,2	2842,405
587,6	2821,233
588,1	2809,776
588,5	2788,776
589	2765,09
589,4	2740,548
589,9	2721,833
590,3	2702,548
590,8	2681,89
591,2	2660,49
591,7	2649,205
592,1	2631,233
592,5	2611,862
593	2588,205
593,4	2570,433
593,9	2546,89
594,3	2522,519
594,8	2500,833
595,2	2480,262
595,7	2466,49
596,1	2449,348
596,6	2432,748
597	2421,233
597,4	2407,348
597,9	2394,205
598,3	2382,519
598,8	2367,548
599,2	2356,89
599,7	2342,69
600,1	2326,148
600,6	2312,29
601	2291,49
601,4	2278,005
601,9	2261,005
602,3	2240,233
602,8	2227,433
603,2	2211,719
603,7	2197,005
604,1	2184,376
604,6	2162,548
605	2143,605
605,4	2139,376
605,9	2119,262
606,3	2100,548
606,8	2086,576
607,2	2070,805
607,7	2056,862
608,1	2051,005
608,6	2032,519
609	2026,233
609,4	2022,69
609,9	2005,662
610,3	1996,405
610,8	1986,805
611,2	1967,89
611,7	1951,748
612,1	1930,433
612,6	1915,233
613	1904,719
613,4	1890,776
613,9	1876,262
614,3	1864,319
614,8	1853,719
615,2	1840,605
615,7	1827,29
616,1	1809,948
616,6	1794,09
617	1780,548
617,4	1766,833
617,9	1757,148
618,3	1748,833
618,8	1738,862
619,2	1731,462
619,7	1723,348
620,1	1709,49
620,5	1703,805
621	1688,405
621,4	1681,005
621,9	1664,633
622,3	1652,948
622,8	1635,376
623,2	1630,062
623,6	1617,719
624,1	1611,09
624,5	1596,462
625	1592,462
625,4	1583,776
625,9	1577,805
626,3	1561,319
626,8	1543,976
627,2	1529,119
627,6	1514,09
628,1	1493,805
628,5	1484,948
629	1473,29
629,4	1463,576
629,9	1458,548
630,3	1445,862
630,7	1430,919
631,2	1427,033
631,6	1414,433
632,1	1406,176
632,5	1398,948
633	1387,862
633,4	1379,748
633,8	1375,776
634,3	1360,433
634,7	1346,49
635,2	1331,148
635,6	1321,405
636,1	1310,348
636,5	1294,862
636,9	1283,233
637,4	1278,433
637,8	1271,348
638,3	1264,433
638,7	1253,148
639,2	1240,919
639,6	1240,719
640	1232,576
640,5	1222,319
640,9	1212,89
641,4	1207,376
641,8	1202,148
642,2	1197,205
642,7	1190,433
643,1	1186,205
643,6	1179,119
644	1175,919
644,5	1170,119
644,9	1161,062
645,3	1152,09
645,8	1141,233
646,2	1135,119
646,7	1127,005
647,1	1113,948
647,6	1104,262
648	1097,976
648,4	1090,205
648,9	1080,033
649,3	1071,805
649,8	1066,833
650,2	1063,862
650,6	1058,233
651,1	1045,833
651,5	1044,062
652	1040,262
652,4	1034,319
652,9	1024,576
653,3	1015,776
653,7	1002,119
654,2	1000,462
654,6	988,49
655,1	984,176
655,5	980,805
655,9	973,148
656,4	965,919
656,8	968,376
657,3	961,833
657,7	958,205
658,2	950,09
658,6	939,405
659	933,376
659,5	926,205
659,9	916,833
660,4	907,548
660,8	900,033
661,2	893,09
661,7	883,376
662,1	878,776
662,6	872,29
663	865,205
663,4	859,462
663,9	853,548
664,3	848,262
664,8	840,176
665,2	830,405
665,6	823,062
666,1	819,719
666,5	814,748
667	806,519
667,4	798,005
667,9	795,548
668,3	788,376
668,7	781,919
669,2	776,462
669,6	769,119
670,1	768,862
670,5	760,833
670,9	758,948
671,4	757,433
671,8	754,862
672,3	752,148
672,7	750,29
673,1	743,119
673,6	735,633
674	728,662
674,5	723,948
674,9	714,633
675,3	705,005
675,8	699,405
676,2	695,405
676,7	693,519
677,1	685,69
677,5	675,805
678	674,205
678,4	670,433
678,9	663,376
679,3	656,89
679,7	653,119
680,2	643,833
680,6	639,548
681,1	636,062
681,5	635,605
681,9	633,205
682,4	631,319
682,8	628,09
683,3	624,833
683,7	624,433
684,1	623,633
684,6	611,862
685	603,776
685,5	596,862
685,9	587,49
686,3	581,833
686,8	574,348
687,2	566,919
687,7	561,548
688,1	560,433
688,5	555,376
689	558,005
689,4	557,719
689,9	555,033
690,3	548,919
690,7	545,719
691,2	541,662
691,6	538,976
692	535,49
692,5	534,548
692,9	532,062
693,4	528,948
693,8	528,148
694,2	522,89
694,7	513,633
695,1	508,005
695,6	504,033
696	497,519
696,4	495,348
696,9	484,776
697,3	476,605
697,8	477,233
698,2	468,519
698,6	465,005
699,1	462,748
699,5	459,919
699,9	461,148
700,4	458,062
700,8	453,376
701,3	456,776
701,7	453,348
702,1	449,062
702,6	446,29
703	442,405
703,5	444,29
703,9	439,519
704,3	436,348
704,8	430,519
705,2	427,462
705,6	423,776
706,1	421,833
706,5	417,462
707	419,29
707,4	415,748
707,8	413,719
708,3	414,033
708,7	408,519
709,2	408,205
709,6	405,833
710	404,576
710,5	395,919
710,9	395,976
711,3	394,319
711,8	391,119
712,2	389,462
712,7	385,433
713,1	378,662
713,5	377,776
714	371,09
714,4	362,805
714,8	362,176
715,3	353,519
715,7	353,862
716,2	347,69
716,6	348,519
717	345,319
717,5	340,119
717,9	340,948
718,3	339,005
718,8	332,519
719,2	334,09
719,7	330,233
720,1	329,919
720,5	335,49
721	328,633
721,4	330,919
721,8	336,005
722,3	330,519
722,7	331,319
723,2	324,69
723,6	315,376
724	313,862
724,5	306,319
724,9	299,919
725,3	297,633
725,8	290,662
726,2	291,633
726,7	294,748
727,1	290,89
727,5	288,319
728	284,662
728,4	284,433
728,8	279,662
729,3	274,462
729,7	270,262
730,1	272,69
730,6	271,233
731	267,29
731,5	266,233
731,9	265,833
732,3	270,433
732,8	270,49
733,2	266,319
733,6	265,119
734,1	266,69
734,5	264,233
734,9	267,576
735,4	263,605
735,8	257,49
736,3	258,148
736,7	254,405
737,1	251,576
737,6	252,205
738	249,062
738,4	244,633
738,9	248,148
739,3	240,605
739,7	241,919
740,2	239,319
740,6	239,148
741,1	239,119
741,5	239,233
741,9	233,833
742,4	238,062
742,8	239,176
743,2	242,348
743,7	232,948
744,1	225,748
744,5	220,833
745	219,719
745,4	215,005
745,8	211,29
746,3	207,062
746,7	207,805
747,2	210,119
747,6	212,605
748	214,033
748,5	213,176
748,9	205,09
749,3	201,348
749,8	200,319
750,2	198,548
750,6	196,976
751,1	199,29
751,5	199,433
751,9	206,405
752,4	211,605
752,8	214,948
753,3	210,233
753,7	214,033
754,1	208,376
754,6	200,033
755	191,776
755,4	183,348
755,9	182,919
756,3	181,748
756,7	176,605
757,2	177,833
757,6	183,148
758	186,205
758,5	185,433
758,9	180,69
759,3	183,233
759,8	180,89
760,2	177,233
760,6	171,919
761,1	167,119
761,5	166,519
761,9	161,519
762,4	160,976
762,8	160,262
763,3	156,748
763,7	158,89
764,1	164,433
764,6	166,605
765	170,033
765,4	170,376
765,9	173,919
766,3	177,319
766,7	171,805
767,2	166,262
767,6	163,833
768	163,319
768,5	160,49
768,9	154,89
769,3	152,319
769,8	153,519
770,2	157,205
770,6	154,033
771,1	157,633
771,5	158,633
771,9	163,462
772,4	166,748
772,8	167,862
773,2	168,89
773,7	168,662
774,1	161,633
774,5	153,262
775	144,605
775,4	139,748
775,8	136,605
776,3	134,262
776,7	135,805
777,1	133,719
777,6	136,776
778	141,862
778,4	137,348
778,9	137,862
779,3	134,862
779,7	134,376
780,2	136,062
780,6	139,033
781	131,748
781,5	132,033
781,9	132,776
782,3	129,062
782,8	125,69
783,2	124,09
783,6	123,348
784,1	124,348
784,5	125,519
784,9	123,433
785,4	122,29
785,8	121,919
786,2	127,29
786,7	123,948
787,1	121,576
787,5	119,776
788	118,005
788,4	118,376
788,8	117,005
789,3	110,662
789,7	112,805
790,1	117,462
790,6	120,719
791	118,176
791,4	119,862
791,9	118,833
792,3	115,662
792,7	114,633
793,2	109,29
793,6	104,119
794	104,948
794,5	100,748
794,9	102,376
795,3	105,69
795,8	103,719
796,2	106,519
796,6	109,29
797,1	110,462
797,5	109,69
797,9	106,062
798,4	103,976
798,8	102,262
799,2	99,062
799,7	98,519
800,1	94,148
800,5	93,948
801	95,405
801,4	91,49
801,8	92,119
802,2	90,948
802,7	84,205
803,1	87,062
803,5	89,09
804	88,148
804,4	91,148
804,8	89,062
805,3	91,919
805,7	95,519
806,1	94,148
806,6	89,176
807	89,919
807,4	84,833
807,9	78,919
808,3	74,348
808,7	73,119
809,2	73,719
809,6	78,69
810	72,348
810,4	76,176
810,9	79,633
811,3	81,29
811,7	83,376
812,2	87,148
812,6	85,433
813	91,976
813,5	93,262
813,9	95,405
814,3	93,005
814,8	89,548
815,2	82,919
815,6	79,776
816,1	78,433
816,5	76,176
816,9	74,548
817,3	75,005
817,8	77,348
818,2	77,005
818,6	76,89
819,1	73,69
819,5	68,662
819,9	69,062
820,4	67,576
820,8	63,319
821,2	61,376
821,7	63,776
822,1	66,233
822,5	71,605
822,9	68,119
823,4	66,348
823,8	65,29
824,2	66,062
824,7	58,376
825,1	52,576
825,5	46,176
826	42,662
826,4	41,462
826,8	38,976
827,3	40,805
827,7	45,948
828,1	49,49
828,5	51,319
829	46,662
829,4	48,576
829,8	49,119
830,3	46,205
830,7	39,776
831,1	41,233
831,6	38,805
832	42,919
832,4	41,148
832,8	42,576
833,3	41,348
833,7	42,319
834,1	39,29
834,6	40,89
835	44,348
835,4	44,348
835,8	39,662
836,3	40,833
836,7	45,033
837,1	46,033
837,6	48,776
838	48,319
838,4	49,719
838,9	55,805
839,3	52,748
839,7	51,062
840,1	41,433
840,6	38,605
841	41,748
841,4	38,548
841,9	36,405
842,3	37,833
842,7	36,519
843,1	42,605
843,6	45,49
844	42,976
844,4	45,919
844,9	51,69
845,3	51,148
845,7	54,89
846,2	52,719
846,6	49,062
847	46,205
847,4	48,548
847,9	47,062
848,3	46,176
848,7	44,862
849,2	47,348
849,6	41,405
850	48,29
850,4	39,319
850,9	37,005
851,3	41,662
851,7	44,633
852,2	39,976
852,6	49,862
853	43,69
853,4	47,062
853,9	45,062
854,3	42,433
854,7	36,776
855,2	35,833
855,6	32,29
856	31,119
856,4	27,89
856,9	25,805
857,3	25,462
857,7	29,205
858,2	35,005
858,6	31,29
859	33,033
859,4	33,405
859,9	32,69
860,3	30,29
860,7	26,862
861,1	26,348
861,6	31,89
862	32,005
862,4	32,433
862,9	34,319
863,3	34,09
863,7	30,519
864,1	30,719
864,6	23,976
865	23,29
865,4	26,748
865,9	28,005
866,3	23,148
866,7	21,605
867,1	16,805
867,6	18,89
868	15,233
868,4	12,405
868,8	9,662
869,3	15,548
869,7	23,89
870,1	22,205
870,6	17,462
871	-57,395
871,4	-52,338
871,8	-55,138
872,3	-54,624
872,7	-58,995
873,1	-55,881
873,5	-48,767
874	28,605
874,4	25,376
874,8	25,319
875,3	24,89
875,7	21,776
876,1	24,805
876,5	19,49
877	16,29
877,4	11,348
877,8	15,919
878,2	19,833
878,7	24,69
879,1	22,89
879,5	26,462
879,9	28,605
880,4	31,833
880,8	30,119
881,2	27,405
881,7	25,948
882,1	26,462
882,5	23,919
882,9	23,49
883,4	20,948
883,8	20,148
884,2	18,776
884,6	15,605
885,1	12,776
885,5	14,833
885,9	11,376
886,3	16,662
886,8	16,148
887,2	13,176
887,6	13,462
888	18,176
888,5	16,69
888,9	18,29
889,3	14,519
889,8	13,633
890,2	13,976
890,6	14,948
891	11,319
891,5	15,405
891,9	15,576
892,3	16,919
892,7	17,148
893,2	16,89
893,6	16,69
894	20,176
894,4	15,233
894,9	15,662
895,3	16,69
895,7	19,69
896,1	18,605
896,6	19,062
897	15,49
897,4	19,833
897,8	21,919
898,3	19,662
898,7	16,262
899,1	15,633
899,5	17,005
900	10,005
900,4	10,233
900,8	4,148
901,2	2,49
901,7	-0,338
902,1	2,919
902,5	2,948
902,9	8,633
903,4	4,433
903,8	11,862
904,2	10,719
904,6	9,376
905,1	10,119
905,5	3,119
905,9	4,319
906,3	7,319
906,8	5,633
907,2	9,376
907,6	13,719
908	12,233
908,5	14,948
908,9	12,233
909,3	9,776
909,7	10,805
910,2	8,29
910,6	11,433
911	8,148
911,4	11,319
911,9	11,748
912,3	10,748
912,7	14,205
913,1	18,062
913,6	11,976
914	15,976
914,4	13,062
914,8	15,776
915,3	15,148
915,7	6,319
916,1	-2,481
916,5	3,405
916,9	-0,452
917,4	0,09
917,8	-1,281
918,2	-2,624
918,6	-2,881
919,1	2,605
919,5	2,319
919,9	2,319
920,3	2,348
920,8	1,376
921,2	-1,481
921,6	-3,252
922	-1,767
922,5	-3,652
922,9	0,69
923,3	1,148
923,7	0,805
924,2	3,033
924,6	6,176
925	7,09
925,4	5,919
925,8	3,833
926,3	-0,024
926,7	-0,024
927,1	5,376
927,5	8,805
928	2,548
928,4	-5,738
928,8	-3,824
929,2	0,176
929,7	-0,481
930,1	-6,481
930,5	-9,967
930,9	-4,767
931,3	3,09
931,8	1,519
932,2	0,319
932,6	2,062
933	-0,138
933,5	3,005
933,9	1,348
934,3	5,976
934,7	1,576
935,2	0,49
935,6	-0,624
936	-1,367
936,4	-1,167
936,8	-2,024
937,3	-7,281
937,7	0,833
938,1	2,462
938,5	-2,51
939	4,548
939,4	4,319
939,8	5,148
940,2	2,69
940,6	1,748
941,1	4,633
941,5	10,69
941,9	2,433
942,3	1,919
942,8	0,348
943,2	6,862
943,6	0,69
944	-5,538
944,4	-5,367
944,9	0,633
945,3	2,09
945,7	-0,995
946,1	-7,31
946,6	-6,395
947	-4,024
947,4	-4,195
947,8	-4,767
948,2	-12,51
948,7	-7,51
949,1	-8,538
949,5	-5,252
949,9	-0,624
950,3	-0,567
950,8	1,805
951,2	4,462
951,6	0,919
952	7,89
952,5	2,662
952,9	-1,738
953,3	-2,367
953,7	-4,967
954,1	1,462
954,6	4,09
955	3,519
955,4	6,405
955,8	9,09
956,2	11,405
956,7	12,176
957,1	5,548
957,5	7,233
957,9	7,262
958,3	6,862
958,8	9,69
959,2	12,862
959,6	16,605
960	18,548
960,5	20,348
960,9	15,919
961,3	12,89
961,7	3,776
962,1	-3,367
962,6	-5,567
963	-5,395
963,4	-7,624
963,8	-4,967
964,2	-1,967
964,7	2,433
965,1	6,633
965,5	4,605
965,9	3,69
966,3	5,49
966,8	0,49
967,2	1,919
967,6	5,176
968	-0,31
968,4	2,776
968,9	1,833
969,3	4,748
969,7	5,833
970,1	5,29
970,5	1,49
971	8,919
971,4	7,062
971,8	9,576
972,2	8,176
972,6	5,89
973,1	5,262
973,5	6,919
973,9	4,633
974,3	5,919
974,7	9,576
975,2	6,89
975,6	10,062
976	10,49
976,4	8,605
976,8	8,205
977,3	6,062
977,7	-2,567
978,1	-6,252
978,5	-4,452
978,9	-6,91
979,4	-10,738
979,8	-14,081
980,2	-15,481
980,6	-13,138
981	-8,881
981,5	-8,824
981,9	-9,424
982,3	-3,938
982,7	-2,338
983,1	-2,595
983,6	-2,252
984	-0,852
984,4	0,69
984,8	3,376
985,2	0,833
985,6	-3,11
986,1	-2,338
986,5	0,69
986,9	-6,967
987,3	-6,881
987,7	-6,281
988,2	-7,995
988,6	-4,91
989	-4,452
989,4	-4,11
989,8	-2,281
990,3	-4,252
990,7	-6,31
991,1	-2,538
991,5	2,633
991,9	1,919
992,3	4,776
992,8	9,148
993,2	11,119
993,6	13,548
994	15,376
994,4	11,433
994,9	12,205
995,3	7,833
995,7	5,576
996,1	0,548
996,5	-2,11
996,9	-8,681
997,4	-6,967
997,8	-8,052
998,2	-13,852
998,6	-18,224
999	-14,738
999,5	-14,738
999,9	-11,31
1000,3	-16,31
1000,7	-13,052
1001,1	-7,31
1001,5	1,09
1002	3,462
1002,4	5,976
1002,8	6,633
1003,2	10,233
1003,6	11,833
1004	12,776
1004,5	8,148
1004,9	7,348
1005,3	6,633
1005,7	8,633
1006,1	7,005
1006,6	1,033
1007	1,748
1007,4	-0,652
1007,8	-1,452
1008,2	-5,738
1008,6	-5,367
1009,1	-7,852
1009,5	-5,281
1009,9	-2,652
1010,3	3,29
1010,7	2,376
1011,1	5,433
1011,6	2,262
1012	8,862
1012,4	10,576
1012,8	4,805
1013,2	4,948
1013,6	4,805
1014,1	8,062
1014,5	10,319
1014,9	5,776
1015,3	1,376
1015,7	0,948
1016,1	0,89
1016,6	0,519
1017	-3,11
1017,4	-6,281
1017,8	-6,452
1018,2	-1,967
1018,6	-4,824
1019,1	-9,195
1019,5	-4,881
1019,9	-3,824
1020,3	-0,167
1020,7	2,148
1021,1	0,862
1021,6	4,548
1022	10,033
1022,4	6,605
1022,8	6,662
1023,2	3,262
1023,6	3,862
1024,1	7,319
1024,5	7,662
1024,9	4,433
1025,3	0,376
1025,7	-0,195
1026,1	4,09
1026,6	5,005
1027	0,148
1027,4	0,29
1027,8	-1,71
1028,2	-0,081
1028,6	2,376
1029	-0,224
1029,5	-1,11
1029,9	-3,624
1030,3	-4,481
1030,7	-3,138
1031,1	0,605
1031,5	-0,367
1032	-2,624
1032,4	-2,567
1032,8	4,005
1033,2	9,262
1033,6	6,948
1034	5,69
1034,4	4,49
1034,9	8,376
1035,3	4,319
1035,7	4,262
1036,1	-3,824
1036,5	-4,852
1036,9	-6,367
1037,4	-5,595
1037,8	-7,795
1038,2	-7,881
1038,6	-9,224
1039	-1,881
1039,4	0,719
1039,8	-0,11
1040,3	-1,595
1040,7	-2,967
1041,1	4,148
1041,5	4,433
1041,9	0,09
1042,3	1,576
1042,7	5,405
1043,2	3,976
1043,6	1,262
1044	-3,31
1044,4	-4,538
1044,8	-6,481
1045,2	-8,167
1045,6	-8,51
1046,1	-8,795
1046,5	-5,481
1046,9	-7,967
1047,3	-8,252
1047,7	-7,938
1048,1	-10,995
1048,5	-12,138
1049	-7,052
1049,4	0,605
1049,8	2,805
1050,2	3,148
1050,6	8,519
1051	18,176
1051,4	15,376
1051,9	7,548
1052,3	9,405
1052,7	13,233
1053,1	8,662
1053,5	10,348
1053,9	3,719
1054,3	3,49
1054,8	17,405
1055,2	10,119
1055,6	5,576
1056	8,405
1056,4	2,69
1056,8	5,69
1057,2	4,405
1057,6	-3,595
1058,1	-5,852
1058,5	-4,338
1058,9	-0,681
1059,3	2,062
1059,7	1,976
1060,1	7,062
1060,5	8,09
1061	7,776
1061,4	4,29
1061,8	4,548
1062,2	3,948
1062,6	4,005
1063	2,976
1063,4	0,176
1063,8	-1,71
1064,3	-3,567
1064,7	-6,424
1065,1	-9,052
1065,5	-9,024
1065,9	-9,367
1066,3	-12,224
1066,7	-11,195
1067,1	-12,052
1067,6	-5,138
1068	-6,367
1068,4	-5,424
1068,8	-4,024
1069,2	1,948
1069,6	5,29
1070	11,176
1070,4	2,09
1070,9	1,148
1071,3	0,09
1071,7	-3,31
1072,1	-3,024
1072,5	-10,338
1072,9	-12,481
1073,3	-10,338
1073,7	-10,052
1074,2	-10,681
1074,6	-6,367
1075	-9,967
1075,4	-4,824
1075,8	-4,91
1076,2	-3,71
1076,6	-0,31
1077	-4,395
1077,5	-6,138
1077,9	-5,367
1078,3	-5,681
1078,7	-5,224
1079,1	-5,681
1079,5	-9,767
1079,9	-8,481
1080,3	-10,138
1080,7	-8,224
1081,2	-2,595
1081,6	-2,367
1082	-5,824
1082,4	3,433
1082,8	4,348
1083,2	9,576
1083,6	7,09
1084	4,519
1084,5	9,462
1084,9	6,433
1085,3	-2,481
1085,7	-0,681
1086,1	-5,624
1086,5	-4,052
1086,9	-5,824
1087,3	-5,281
1087,7	0,776
1088,2	2,548
1088,6	-0,51
1089	1,09
1089,4	0,662
1089,8	1,348
1090,2	-6,024
1090,6	-5,652
1091	-5,51
1091,4	-0,052
1091,9	1,948
1092,3	3,205
1092,7	5,719
1093,1	9,633
1093,5	8,976
1093,9	8,576
1094,3	7,348
1094,7	0,576
1095,1	1,09
1095,5	-3,767
1096	-8,567
1096,4	-7,938
1096,8	-7,738
1097,2	-11,995
1097,6	-2,767
1098	-2,138
1098,4	3,348
1098,8	12,633
1099,2	19,319
1099,6	20,833
1100,1	21,319
1100,5	14,49
1100,9	12,548
1101,3	9,633
1101,7	1,576
1102,1	-6,738
1102,5	-6,11
1102,9	-2,995
1103,3	2,49
1103,7	2,576
1104,2	1,319
1104,6	2,405
1105	0,89
1105,4	1,033
1105,8	-0,767
1106,2	-4,767
1106,6	-4,624
1107	-4,024
1107,4	-2,7
1107,8	0,673
1108,3	-0,317
