Data from Subt2_290.txt Node
Date: Sat Aug 26 19:09:38 MSK 2023
User: vat
Spectrometer: MAYP114033
Trigger mode: 0
Integration Time (sec): 1,000000E0
Scans to average: 5
Electric dark correction enabled: true
Nonlinearity correction enabled: false
Boxcar width: 3
XAxis mode: Wavelengths
Number of Pixels in Spectrum: 2068
>>>>>Begin Spectral Data<<<<<
199,4	-0,267
199,9	4,993
200,4	5,367
200,8	4,176
201,3	2,348
201,8	7,319
202,2	5,405
202,7	10,662
203,2	7,776
203,6	5,576
204,1	3,89
204,6	6,748
205	6,005
205,5	8,633
206	6,662
206,4	7,062
206,9	7,805
207,4	12,148
207,8	10,89
208,3	8,605
208,8	10,376
209,2	5,833
209,7	8,376
210,2	10,319
210,6	9,948
211,1	10,205
211,5	7,776
212	6,805
212,5	11,176
212,9	7,119
213,4	8,348
213,9	6,719
214,3	6,548
214,8	10,976
215,3	12,176
215,7	11,119
216,2	14,89
216,7	17,005
217,1	15,633
217,6	18,49
218,1	14,433
218,5	9,605
219	5,205
219,5	5,176
219,9	0,348
220,4	9,69
220,9	7,976
221,3	11,119
221,8	15,49
222,3	20,605
222,7	23,748
223,2	23,005
223,6	14,548
224,1	13,519
224,6	16,405
225	12,919
225,5	10,319
226	7,119
226,4	10,776
226,9	13,462
227,4	18,29
227,8	12,433
228,3	14,605
228,8	15,548
229,2	16,033
229,7	15,662
230,2	15,548
230,6	15,433
231,1	21,605
231,5	22,719
232	26,348
232,5	27,29
232,9	25,405
233,4	26,433
233,9	24,89
234,3	24,633
234,8	24,548
235,3	23,176
235,7	21,862
236,2	22,176
236,7	21,776
237,1	20,148
237,6	9,805
238,1	4,862
238,5	1,176
239	4,29
239,4	8,948
239,9	5,833
240,4	9,605
240,8	18,033
241,3	17,805
241,8	20,262
242,2	15,49
242,7	9,49
243,2	13,948
243,6	10,119
244,1	7,433
244,6	12,033
245	10,862
245,5	14,062
245,9	12,605
246,4	10,319
246,9	13,433
247,3	13,29
247,8	13,233
248,3	16,862
248,7	16,062
249,2	17,262
249,7	17,748
250,1	16,748
250,6	17,233
251	17,376
251,5	14,519
252	12,805
252,4	14,233
252,9	11,262
253,4	7,148
253,8	4,033
254,3	3,462
254,8	6,49
255,2	3,433
255,7	3,176
256,1	2,776
256,6	2,576
257,1	5,948
257,5	4,919
258	-0,452
258,5	2,09
258,9	-0,767
259,4	1,919
259,9	4,805
260,3	2,033
260,8	-0,424
261,2	1,748
261,7	0,148
262,2	3,262
262,6	0,976
263,1	4,662
263,6	7,919
264	15,005
264,5	16,976
264,9	17,976
265,4	17,405
265,9	21,805
266,3	20,519
266,8	20,719
267,3	14,719
267,7	13,633
268,2	14,662
268,7	19,862
269,1	16,605
269,6	13,062
270	14,633
270,5	16,09
271	17,205
271,4	15,776
271,9	8,062
272,4	10,319
272,8	9,205
273,3	3,233
273,7	6,719
274,2	2,719
274,7	2,405
275,1	5,148
275,6	3,948
276,1	4,833
276,5	8,433
277	5,09
277,4	5,89
277,9	6,262
278,4	8,176
278,8	12,09
279,3	16,748
279,8	18,405
280,2	20,919
280,7	22,633
281,1	21,662
281,6	19,833
282,1	16,948
282,5	12,919
283	13,833
283,4	11,976
283,9	13,719
284,4	19,09
284,8	18,033
285,3	19,576
285,8	19,69
286,2	12,776
286,7	13,633
287,1	13,319
287,6	9,548
288,1	6,748
288,5	5,176
289	4,49
289,5	11,262
289,9	8,519
290,4	9,519
290,8	10,376
291,3	17,29
291,8	17,548
292,2	16,405
292,7	18,405
293,1	18,919
293,6	20,919
294,1	20,433
294,5	16,89
295	16,69
295,5	17,976
295,9	15,919
296,4	13,719
296,8	9,976
297,3	9,233
297,8	9,062
298,2	4,033
298,7	8,805
299,1	7,462
299,6	8,119
300,1	9,548
300,5	11,233
301	15,033
301,5	22,948
301,9	17,29
302,4	13,233
302,8	17,09
303,3	13,376
303,8	8,776
304,2	7,519
304,7	2,519
305,1	3,548
305,6	5,69
306,1	10,976
306,5	10,976
307	19,548
307,4	20,376
307,9	21,205
308,4	20,748
308,8	19,805
309,3	12,719
309,8	9,548
310,2	6,148
310,7	-0,71
311,1	-1,052
311,6	0,09
312,1	2,119
312,5	7,433
313	13,805
313,4	12,719
313,9	17,948
314,4	18,719
314,8	16,348
315,3	14,89
315,7	7,148
316,2	3,262
316,7	3,862
317,1	9,405
317,6	8,662
318	15,148
318,5	17,005
319	20,119
319,4	22,605
319,9	25,576
320,3	21,119
320,8	18,69
321,3	17,29
321,7	20,862
322,2	21,748
322,6	20,805
323,1	16,805
323,6	16,176
324	17,519
324,5	11,805
324,9	8,719
325,4	10,376
325,9	13,862
326,3	14,662
326,8	14,005
327,2	13,862
327,7	15,319
328,2	17,433
328,6	15,462
329,1	10,176
329,5	7,748
330	9,176
330,5	14,433
330,9	18,976
331,4	16,805
331,8	15,433
332,3	22,519
332,8	23,176
333,2	20,69
333,7	20,176
334,1	17,89
334,6	16,748
335,1	13,348
335,5	11,462
336	10,062
336,4	15,519
336,9	19,462
337,4	18,69
337,8	18,176
338,3	20,833
338,7	17,605
339,2	17,748
339,7	15,948
340,1	5,348
340,6	8,09
341	3,233
341,5	4,262
342	4,119
342,4	5,719
342,9	4,405
343,3	11,719
343,8	9,033
344,2	13,833
344,7	18,09
345,2	19,262
345,6	21,633
346,1	25,205
346,5	19,69
347	14,49
347,5	15,548
347,9	18,262
348,4	18,69
348,8	17,776
349,3	16,633
349,8	24,405
350,2	32,919
350,7	29,519
351,1	28,319
351,6	32,09
352	36,148
352,5	41,948
353	46,662
353,4	52,262
353,9	66,033
354,3	75,576
354,8	86,576
355,3	104,662
355,7	121,605
356,2	140,976
356,6	165,148
357,1	195,462
357,5	226,719
358	267,662
358,5	304,919
358,9	355,633
359,4	409,176
359,8	470,862
360,3	544,148
360,8	622,29
361,2	709,148
361,7	809,519
362,1	914,576
362,6	1031,433
363	1155,062
363,5	1281,719
364	1422,89
364,4	1565,405
364,9	1701,833
365,3	1842,29
365,8	1969,662
366,3	2092,119
366,7	2199,576
367,2	2298,062
367,6	2369,462
368,1	2437,662
368,5	2474,405
369	2496,833
369,5	2504,776
369,9	2485,748
370,4	2442,176
370,8	2389,805
371,3	2311,605
371,7	2229,176
372,2	2138,062
372,7	2030,376
373,1	1926,89
373,6	1815,49
374	1703,862
374,5	1594,205
374,9	1482,405
375,4	1377,148
375,9	1274,262
376,3	1172,948
376,8	1082,233
377,2	998,919
377,7	917,405
378,2	842,233
378,6	771,348
379,1	708,833
379,5	658,919
380	606,919
380,4	556,09
380,9	508,948
381,4	471,69
381,8	437,805
382,3	407,176
382,7	375,433
383,2	350,948
383,6	326,348
384,1	312,09
384,6	287,748
385	266,348
385,5	250,719
385,9	234,005
386,4	216,319
386,8	203,519
387,3	186,748
387,7	180,062
388,2	170,205
388,7	156,433
389,1	145,748
389,6	135,919
390	130,919
390,5	125,148
390,9	119,262
391,4	113,062
391,9	104,862
392,3	101,062
392,8	91,205
393,2	83,405
393,7	78,033
394,1	70,205
394,6	66,719
395,1	69,119
395,5	63,69
396	72,176
396,4	68,548
396,9	68,548
397,3	71,062
397,8	68,748
398,2	69,69
398,7	69,576
399,2	66,405
399,6	67,976
400,1	65,49
400,5	56,748
401	59,748
401,4	48,805
401,9	47,176
402,4	44,805
402,8	40,405
403,3	43,09
403,7	44,09
404,2	40,605
404,6	49,033
405,1	47,376
405,5	42,29
406	43,005
406,5	39,262
406,9	43,233
407,4	41,348
407,8	38,119
408,3	38,605
408,7	38,662
409,2	42,462
409,6	45,148
410,1	48,062
410,6	52,462
411	51,633
411,5	53,319
411,9	57,433
412,4	57,233
412,8	56,919
413,3	54,205
413,7	54,776
414,2	56,89
414,7	62,548
415,1	69,948
415,6	72,776
416	76,062
416,5	79,062
416,9	80,176
417,4	85,548
417,8	89,005
418,3	90,033
418,8	94,233
419,2	98,005
419,7	104,148
420,1	108,776
420,6	109,919
421	109,205
421,5	109,576
421,9	112,548
422,4	115,176
422,8	111,976
423,3	110,319
423,8	106,919
424,2	107,805
424,7	110,119
425,1	105,433
425,6	107,005
426	104,348
426,5	107,576
426,9	115,348
427,4	112,262
427,9	104,205
428,3	105,519
428,8	103,89
429,2	104,062
429,7	102,062
430,1	96,062
430,6	100,462
431	104,862
431,5	106,319
431,9	103,348
432,4	109,862
432,8	111,462
433,3	114,233
433,8	113,119
434,2	122,09
434,7	125,033
435,1	129,176
435,6	129,719
436	133,09
436,5	142,576
436,9	142,49
437,4	141,09
437,8	145,376
438,3	150,633
438,8	153,748
439,2	157,776
439,7	159,833
440,1	173,09
440,6	184,805
441	187,405
441,5	194,119
441,9	201,976
442,4	208,205
442,8	216,776
443,3	224,662
443,7	227,205
444,2	240,29
444,7	246,176
445,1	256,976
445,6	267,033
446	275,576
446,5	281,89
446,9	287,262
447,4	297,89
447,8	315,405
448,3	330,29
448,7	345,233
449,2	359,862
449,6	378,662
450,1	396,776
450,6	416,119
451	425,29
451,5	437,005
451,9	455,348
452,4	474,09
452,8	484,376
453,3	505,833
453,7	517,748
454,2	539,605
454,6	561,49
455,1	580,405
455,5	595,233
456	620,719
456,4	638,348
456,9	658,862
457,3	680,233
457,8	693,605
458,3	714,919
458,7	735,433
459,2	753,033
459,6	776,005
460,1	802,119
460,5	825,49
461	860,348
461,4	880,233
461,9	906,233
462,3	939,805
462,8	965,062
463,2	985,633
463,7	1013,405
464,1	1035,776
464,6	1069,69
465	1098,662
465,5	1124,348
466	1154,719
466,4	1188,719
466,9	1222,262
467,3	1254,405
467,8	1285,176
468,2	1316,005
468,7	1343,548
469,1	1374,919
469,6	1409,033
470	1432,405
470,5	1462,062
470,9	1490,89
471,4	1518,948
471,8	1548,862
472,3	1581,519
472,7	1609,348
473,2	1641,576
473,6	1675,062
474,1	1707,376
474,5	1744,405
475	1781,776
475,4	1813,833
475,9	1845,519
476,4	1876,348
476,8	1905,433
477,3	1929,262
477,7	1959,205
478,2	1982,862
478,6	2002,405
479,1	2027,376
479,5	2058,719
480	2085,205
480,4	2123,005
480,9	2145,748
481,3	2171,948
481,8	2206,805
482,2	2231,89
482,7	2255,776
483,1	2278,748
483,6	2296,233
484	2322,462
484,5	2349,805
484,9	2368,719
485,4	2396,148
485,8	2414,776
486,3	2434,948
486,7	2455,948
487,2	2469,576
487,6	2487,233
488,1	2504,69
488,5	2510,805
489	2530,433
489,4	2551,919
489,9	2562,462
490,4	2581,69
490,8	2596,948
491,3	2616,548
491,7	2638,405
492,2	2651,119
492,6	2659,548
493,1	2676,233
493,5	2682,862
494	2683,776
494,4	2690,233
494,9	2694,005
495,3	2701,205
495,8	2708,148
496,2	2717,49
496,7	2724,49
497,1	2740,29
497,6	2749,719
498	2763,462
498,5	2772,262
498,9	2774,49
499,4	2779,662
499,8	2792,49
500,3	2798,976
500,7	2799,576
501,2	2800,176
501,6	2793,433
502,1	2804,09
502,5	2803,49
503	2803,262
503,4	2801,205
503,9	2796,862
504,3	2804,976
504,8	2813,09
505,2	2813,519
505,7	2812,548
506,1	2817,319
506,6	2817,776
507	2830,462
507,5	2827,948
507,9	2831,262
508,4	2827,033
508,8	2829,319
509,3	2825,348
509,7	2828,576
510,2	2821,433
510,6	2816,233
511,1	2814,376
511,5	2813,09
512	2807,376
512,4	2805,519
512,9	2799,805
513,3	2800,69
513,8	2795,233
514,2	2799,148
514,7	2799,148
515,1	2804,69
515,6	2797,29
516	2794,748
516,5	2797,176
516,9	2799,49
517,4	2793,176
517,8	2801,948
518,3	2795,405
518,7	2800,89
519,2	2804,919
519,6	2799,348
520,1	2802,119
520,5	2801,662
521	2785,033
521,4	2786,119
521,9	2786,005
522,3	2781,89
522,8	2774,062
523,2	2775,005
523,7	2769,633
524,1	2769,319
524,6	2769,805
525	2762,662
525,5	2761,405
525,9	2769,605
526,4	2760,033
526,8	2762,176
527,3	2769,205
527,7	2774,576
528,2	2775,09
528,6	2770,09
529,1	2768,605
529,5	2778,148
530	2779,748
530,4	2779,005
530,9	2772,862
531,3	2776,662
531,8	2784,805
532,2	2786,662
532,6	2783,919
533,1	2785,148
533,5	2790,519
534	2795,033
534,4	2800,148
534,9	2801,548
535,3	2799,69
535,8	2801,519
536,2	2806,405
536,7	2808,062
537,1	2806,348
537,6	2808,89
538	2813,605
538,5	2816,776
538,9	2815,348
539,4	2815,633
539,8	2813,805
540,3	2818,119
540,7	2818,405
541,2	2817,89
541,6	2821,033
542,1	2827,405
542,5	2826,176
543	2827,605
543,4	2826,919
543,9	2830,576
544,3	2833,605
544,8	2833,319
545,2	2836,776
545,7	2843,062
546,1	2848,69
546,5	2854,976
547	2855,948
547,4	2860,833
547,9	2864,062
548,3	2870,033
548,8	2876,405
549,2	2878,919
549,7	2885,176
550,1	2890,89
550,6	2887,805
551	2894,662
551,5	2900,919
551,9	2902,376
552,4	2909,833
552,8	2904,376
553,3	2901,662
553,7	2909,233
554,2	2916,862
554,6	2912,433
555,1	2913,148
555,5	2907,348
555,9	2920,89
556,4	2927,376
556,8	2923,005
557,3	2922,062
557,7	2927,862
558,2	2931,376
558,6	2943,205
559,1	2939,348
559,5	2939,09
560	2947,005
560,4	2946,633
560,9	2942,605
561,3	2944,005
561,8	2947,633
562,2	2951,633
562,7	2959,49
563,1	2966,176
563,6	2968,119
564	2972,862
564,4	2972,862
564,9	2965,262
565,3	2966,748
565,8	2968,805
566,2	2969,405
566,7	2971,148
567,1	2970,348
567,6	2976,205
568	2982,49
568,5	2985,262
568,9	2984,862
569,4	2981,376
569,8	2982,519
570,3	2987,119
570,7	2979,062
571,1	2980,062
571,6	2976,119
572	2978,748
572,5	2982,662
572,9	2981,033
573,4	2980,805
573,8	2989,062
574,3	2987,176
574,7	2992,09
575,2	2984,005
575,6	2981,548
576,1	2983,776
576,5	2988,548
576,9	2977,89
577,4	2978,005
577,8	2968,519
578,3	2969,205
578,7	2965,033
579,2	2968,233
579,6	2955,519
580,1	2952,262
580,5	2942,776
581	2946,262
581,4	2944,662
581,9	2943,348
582,3	2935,233
582,7	2936,462
583,2	2932,348
583,6	2934,033
584,1	2930,205
584,5	2925,776
585	2918,748
585,4	2906,519
585,9	2903,348
586,3	2909,119
586,8	2899,548
587,2	2890,748
587,6	2889,548
588,1	2890,005
588,5	2887,948
589	2880,205
589,4	2870,376
589,9	2868,948
590,3	2858,805
590,8	2852,605
591,2	2845,748
591,7	2844,805
592,1	2840,119
592,5	2840,719
593	2835,719
593,4	2837,262
593,9	2831,405
594,3	2825,262
594,8	2813,976
595,2	2808,376
595,7	2804,119
596,1	2800,919
596,6	2793,719
597	2792,833
597,4	2799,09
597,9	2803,319
598,3	2803,462
598,8	2794,948
599,2	2786,919
599,7	2785,233
600,1	2775,976
600,6	2758,833
601	2752,833
601,4	2749,148
601,9	2747,862
602,3	2743,433
602,8	2742,462
603,2	2738,148
603,7	2736,748
604,1	2728,633
604,6	2716,405
605	2699,805
605,4	2696,176
605,9	2685,89
606,3	2668,89
606,8	2654,976
607,2	2648,462
607,7	2635,833
608,1	2638,376
608,6	2634,005
609	2629,148
609,4	2632,776
609,9	2629,119
610,3	2619,833
610,8	2614,948
611,2	2603,976
611,7	2590,833
612,1	2585,005
612,6	2574,919
613	2564,805
613,4	2556,119
613,9	2546,862
614,3	2534,49
614,8	2529,548
615,2	2512,519
615,7	2506,862
616,1	2501,833
616,6	2488,89
617	2486,948
617,4	2482,89
617,9	2474,719
618,3	2471,376
618,8	2459,776
619,2	2448,376
619,7	2446,89
620,1	2432,405
620,5	2425,576
621	2407,319
621,4	2397,833
621,9	2381,948
622,3	2376,033
622,8	2362,519
623,2	2356,09
623,6	2348,005
624,1	2345,348
624,5	2333,319
625	2333,376
625,4	2318,29
625,9	2309,976
626,3	2299,29
626,8	2285,776
627,2	2279,205
627,6	2264,005
628,1	2249,833
628,5	2242,719
629	2229,062
629,4	2222,976
629,9	2209,176
630,3	2191,662
630,7	2189,462
631,2	2183,119
631,6	2174,49
632,1	2169,862
632,5	2154,662
633	2149,805
633,4	2142,433
633,8	2128,09
634,3	2113,605
634,7	2103,519
635,2	2085,49
635,6	2072,462
636,1	2055,49
636,5	2042,29
636,9	2030,233
637,4	2020,405
637,8	2007,748
638,3	1995,805
638,7	1989,148
639,2	1981,433
639,6	1974,576
640	1963,805
640,5	1953,748
640,9	1948,062
641,4	1943,89
641,8	1936,576
642,2	1929,176
642,7	1923,29
643,1	1922,176
643,6	1911,205
644	1904,205
644,5	1900,348
644,9	1894,576
645,3	1886,233
645,8	1872,29
646,2	1860,862
646,7	1856,148
647,1	1843,662
647,6	1833,89
648	1820,548
648,4	1808,805
648,9	1803,176
649,3	1792,376
649,8	1782,89
650,2	1775,29
650,6	1770,09
651,1	1763,148
651,5	1760,633
652	1750,49
652,4	1745,49
652,9	1734,405
653,3	1726,548
653,7	1712,262
654,2	1704,519
654,6	1692,09
655,1	1684,033
655,5	1678,348
655,9	1672,833
656,4	1658,462
656,8	1650,062
657,3	1637,776
657,7	1630,205
658,2	1620,376
658,6	1603,348
659	1594,976
659,5	1588,033
659,9	1572,719
660,4	1566,548
660,8	1553,405
661,2	1544,519
661,7	1540,548
662,1	1531,862
662,6	1521,633
663	1516,833
663,4	1507,148
663,9	1504,205
664,3	1494,205
664,8	1482,776
665,2	1467,49
665,6	1459,176
666,1	1455,548
666,5	1451,433
667	1442,633
667,4	1436,29
667,9	1427,748
668,3	1424,033
668,7	1415,233
669,2	1407,605
669,6	1395,719
670,1	1384,662
670,5	1372,376
670,9	1363,833
671,4	1351,748
671,8	1347,976
672,3	1339,119
672,7	1330,89
673,1	1321,09
673,6	1317,805
674	1312,062
674,5	1303,662
674,9	1287,776
675,3	1276,49
675,8	1270,405
676,2	1263,633
676,7	1253,262
677,1	1242,605
677,5	1237,776
678	1233,862
678,4	1227,605
678,9	1217,433
679,3	1207,719
679,7	1199,29
680,2	1186,776
680,6	1182,262
681,1	1177,348
681,5	1172,69
681,9	1169,862
682,4	1168,033
682,8	1167,033
683,3	1170,062
683,7	1162,005
684,1	1153,405
684,6	1143,176
685	1132,433
685,5	1124,576
685,9	1107,262
686,3	1095,948
686,8	1084,576
687,2	1080,176
687,7	1072,519
688,1	1064,976
688,5	1056,348
689	1056,948
689,4	1050,09
689,9	1046,805
690,3	1036,776
690,7	1030,433
691,2	1029,29
691,6	1021,319
692	1015,005
692,5	1012,348
692,9	1006,862
693,4	1002,005
693,8	996,976
694,2	984,748
694,7	979,719
695,1	971,776
695,6	964,119
696	955,976
696,4	951,176
696,9	943,948
697,3	933,862
697,8	931,062
698,2	923,233
698,6	919,262
699,1	915,69
699,5	911,662
699,9	906,576
700,4	902,919
700,8	896,405
701,3	895,89
701,7	884,976
702,1	878,062
702,6	873,033
703	870,005
703,5	869,205
703,9	861,005
704,3	857,462
704,8	852,233
705,2	850,233
705,6	842,633
706,1	835,062
706,5	828,69
707	826,69
707,4	822,376
707,8	818,719
708,3	811,062
708,7	804,005
709,2	800,405
709,6	791,748
710	784,376
710,5	771,748
710,9	768,862
711,3	765,49
711,8	766,833
712,2	761,033
712,7	758,433
713,1	757,89
713,5	757,148
714	755,976
714,4	745,862
714,8	740,405
715,3	733,319
715,7	730,805
716,2	723,748
716,6	716,833
717	706,69
717,5	705,719
717,9	701,605
718,3	697,148
718,8	690,862
719,2	686,29
719,7	685,605
720,1	685,69
720,5	685,662
721	674,148
721,4	672,462
721,8	672,005
722,3	665,005
722,7	664,262
723,2	649,776
723,6	634,405
724	632,148
724,5	624,605
724,9	619,033
725,3	612,09
725,8	600,862
726,2	603,662
726,7	601,776
727,1	596,662
727,5	594,633
728	583,89
728,4	583,719
728,8	580,862
729,3	572,605
729,7	567,49
730,1	567,29
730,6	565,548
731	566,148
731,5	563,119
731,9	556,29
732,3	559,433
732,8	563,205
733,2	557,148
733,6	551,805
734,1	550,833
734,5	546,119
734,9	548,205
735,4	547,176
735,8	537,862
736,3	541,005
736,7	537,205
737,1	530,605
737,6	527,205
738	521,033
738,4	508,748
738,9	510,862
739,3	502,633
739,7	500,262
740,2	496,319
740,6	495,748
741,1	499,776
741,5	494,09
741,9	494,09
742,4	491,633
742,8	491,748
743,2	494,719
743,7	490,548
744,1	478,49
744,5	482,033
745	475,348
745,4	469,605
745,8	463,69
746,3	454,405
746,7	451,548
747,2	455,062
747,6	457,805
748	459,805
748,5	460,233
748,9	456,405
749,3	455,262
749,8	455,776
750,2	451,462
750,6	441,576
751,1	434,262
751,5	432,776
751,9	431,976
752,4	430,09
752,8	424,148
753,3	418,919
753,7	420,29
754,1	413,662
754,6	404,462
755	398,976
755,4	398,805
755,9	395,262
756,3	395,805
756,7	392,405
757,2	393,033
757,6	394,205
758	393,976
758,5	388,948
758,9	390,433
759,3	384,748
759,8	380,748
760,2	378,805
760,6	377,548
761,1	374,633
761,5	373,976
761,9	366,805
762,4	363,976
762,8	359,119
763,3	356,005
763,7	354,976
764,1	354,376
764,6	350,519
765	353,233
765,4	354,776
765,9	352,09
766,3	354,548
766,7	348,69
767,2	347,09
767,6	345,805
768	339,348
768,5	335,405
768,9	339,005
769,3	333,633
769,8	331,49
770,2	331,405
770,6	331,119
771,1	333,033
771,5	331,233
771,9	329,662
772,4	329,319
772,8	330,919
773,2	325,062
773,7	320,119
774,1	314,29
774,5	308,148
775	303,976
775,4	300,662
775,8	294,176
776,3	294,69
776,7	294,833
777,1	297,633
777,6	300,176
778	301,176
778,4	299,205
778,9	300,29
779,3	294,862
779,7	294,319
780,2	291,148
780,6	289,033
781	285,662
781,5	281,376
781,9	278,776
782,3	276,605
782,8	272,433
783,2	267,719
783,6	265,49
784,1	260,033
784,5	257,605
784,9	256,462
785,4	256,09
785,8	256,719
786,2	257,719
786,7	257,376
787,1	255,205
787,5	254,662
788	254,776
788,4	256,348
788,8	251,49
789,3	251,262
789,7	248,862
790,1	249,233
790,6	250,348
791	245,719
791,4	242,29
791,9	237,462
792,3	228,148
792,7	231,69
793,2	226,29
793,6	222,405
794	224,833
794,5	219,319
794,9	223,319
795,3	226,376
795,8	219,919
796,2	225,49
796,6	227,005
797,1	224,605
797,5	222,862
797,9	215,348
798,4	208,748
798,8	206,662
799,2	198,719
799,7	196,805
800,1	193,633
800,5	194,576
801	201,233
801,4	202,062
801,8	198,862
802,2	200,348
802,7	196,319
803,1	195,148
803,5	193,548
804	184,748
804,4	189,89
804,8	193,633
805,3	196,919
805,7	198,405
806,1	198,805
806,6	203,205
807	205,49
807,4	198,462
807,9	190,919
808,3	184,662
808,7	180,748
809,2	178,29
809,6	176,119
810	171,462
810,4	171,09
810,9	171,69
811,3	173,49
811,7	174,633
812,2	175,605
812,6	167,662
813	172,576
813,5	174,833
813,9	172,833
814,3	169,205
814,8	164,176
815,2	159,005
815,6	163,748
816,1	160,605
816,5	156,119
816,9	157,148
817,3	157,262
817,8	163,519
818,2	160,976
818,6	154,862
819,1	151,69
819,5	149,805
819,9	151,376
820,4	147,262
820,8	140,948
821,2	138,89
821,7	145,29
822,1	146,033
822,5	148,319
822,9	142,462
823,4	141,148
823,8	145,719
824,2	149,205
824,7	139,89
825,1	135,29
825,5	129,405
826	127,548
826,4	126,805
826,8	121,919
827,3	120,919
827,7	121,633
828,1	124,633
828,5	130,605
829	126,605
829,4	122,862
829,8	115,805
830,3	115,262
830,7	113,719
831,1	110,948
831,6	106,062
832	109,948
832,4	113,262
832,8	118,49
833,3	117,262
833,7	115,862
834,1	114,833
834,6	113,69
835	116,062
835,4	115,605
835,8	107,862
836,3	104,89
836,7	104,205
837,1	104,348
837,6	105,576
838	99,862
838,4	100,29
838,9	102,548
839,3	99,462
839,7	102,719
840,1	98,148
840,6	95,433
841	97,233
841,4	95,49
841,9	97,148
842,3	97,433
842,7	92,719
843,1	94,09
843,6	97,062
844	98,976
844,4	102,09
844,9	104,348
845,3	106,89
845,7	106,29
846,2	106,033
846,6	99,49
847	98,148
847,4	92,776
847,9	88,748
848,3	86,919
848,7	86,148
849,2	86,776
849,6	84,776
850	84,433
850,4	85,433
850,9	86,862
851,3	89,662
851,7	92,89
852,2	88,605
852,6	93,719
853	90,662
853,4	87,462
853,9	87,176
854,3	82,69
854,7	81,119
855,2	85,29
855,6	87,176
856	84,405
856,4	82,319
856,9	77,805
857,3	78,062
857,7	77,976
858,2	81,005
858,6	76,033
859	75,376
859,4	76,29
859,9	75,776
860,3	71,262
860,7	72,662
861,1	72,119
861,6	68,633
862	68,519
862,4	66,948
862,9	67,148
863,3	69,205
863,7	64,376
864,1	60,005
864,6	62,662
865	63,176
865,4	64,976
865,9	70,433
866,3	67,49
866,7	68,576
867,1	66,319
867,6	67,548
868	64,319
868,4	62,033
868,8	54,89
869,3	57,262
869,7	62,319
870,1	58,262
870,6	56,662
871	9,462
871,4	15,348
871,8	13,805
872,3	18,319
872,7	14,148
873,1	15,433
873,5	13,09
874	57,205
874,4	54,576
874,8	53,233
875,3	51,29
875,7	46,719
876,1	51,576
876,5	52,919
877	58,005
877,4	53,662
877,8	57,576
878,2	60,919
878,7	64,976
879,1	62,348
879,5	63,833
879,9	63,633
880,4	66,376
880,8	63,005
881,2	58,319
881,7	53,376
882,1	52,119
882,5	48,519
882,9	48,548
883,4	46,662
883,8	50,662
884,2	48,662
884,6	46,262
885,1	45,233
885,5	45,719
885,9	42,49
886,3	44,776
886,8	41,348
887,2	41,833
887,6	46,662
888	50,29
888,5	52,69
888,9	55,348
889,3	52,405
889,8	52,519
890,2	49,948
890,6	41,89
891	39,005
891,5	37,176
891,9	34,262
892,3	38,176
892,7	38,919
893,2	38,776
893,6	43,948
894	44,776
894,4	45,433
894,9	45,776
895,3	44,148
895,7	45,805
896,1	45,376
896,6	44,062
897	45,119
897,4	48,348
897,8	52,433
898,3	51,776
898,7	46,919
899,1	44,519
899,5	45,576
900	39,89
900,4	33,919
900,8	32,319
901,2	26,862
901,7	28,033
902,1	31,948
902,5	32,662
902,9	35,605
903,4	36,833
903,8	33,348
904,2	33,576
904,6	34,69
905,1	33,262
905,5	32,09
905,9	31,176
906,3	31,919
906,8	34,805
907,2	37,519
907,6	37,205
908	37,062
908,5	36,862
908,9	35,262
909,3	31,776
909,7	31,776
910,2	31,062
910,6	33,862
911	31,062
911,4	31,633
911,9	32,262
912,3	30,919
912,7	32,662
913,1	34,605
913,6	29,262
914	30,233
914,4	26,862
914,8	25,376
915,3	22,548
915,7	18,748
916,1	15,519
916,5	18,948
916,9	20,09
917,4	19,919
917,8	24,89
918,2	23,576
918,6	18,776
919,1	22,462
919,5	18,462
919,9	20,176
920,3	22,462
920,8	21,005
921,2	24,548
921,6	28,719
922	25,519
922,5	26,29
922,9	24,519
923,3	23,633
923,7	22,605
924,2	19,148
924,6	20,348
925	17,633
925,4	18,833
925,8	18,719
926,3	19,29
926,7	15,69
927,1	17,948
927,5	17,433
928	15,748
928,4	15,748
928,8	18,833
929,2	17,748
929,7	20,433
930,1	23,976
930,5	22,148
930,9	31,176
931,3	30,119
931,8	28,09
932,2	25,719
932,6	22,719
933	16,719
933,5	16,405
933,9	14,348
934,3	13,433
934,7	10,833
935,2	17,805
935,6	22,633
936	25,89
936,4	26,433
936,8	22,919
937,3	23,919
937,7	25,233
938,1	21,862
938,5	15,29
939	16,405
939,4	14,576
939,8	15,89
940,2	17,805
940,6	17,519
941,1	16,462
941,5	22,519
941,9	22,262
942,3	21,005
942,8	20,462
943,2	15,719
943,6	12,462
944	18,433
944,4	20,233
944,9	20,405
945,3	20,405
945,7	17,09
946,1	18,233
946,6	17,348
947	12,89
947,4	13,862
947,8	14,519
948,2	15,89
948,7	18,862
949,1	16,519
949,5	24,462
949,9	26,605
950,3	21,262
950,8	19,062
951,2	19,29
951,6	17,376
952	23,462
952,5	17,519
952,9	13,433
953,3	15,205
953,7	14,405
954,1	19,062
954,6	25,176
955	25,262
955,4	23,662
955,8	29,233
956,2	27,433
956,7	30,948
957,1	25,033
957,5	22,119
957,9	19,29
958,3	20,205
958,8	15,948
959,2	17,976
959,6	17,919
960	17,862
960,5	18,319
960,9	23,119
961,3	23,633
961,7	24,205
962,1	22,176
962,6	22,719
963	22,119
963,4	17,319
963,8	15,29
964,2	15,462
964,7	12,205
965,1	14,633
965,5	13,29
965,9	13,576
966,3	16,262
966,8	10,262
967,2	12,633
967,6	13,662
968	6,69
968,4	6,605
968,9	10,29
969,3	14,748
969,7	17,69
970,1	19,062
970,5	19,09
971	25,005
971,4	26,576
971,8	25,119
972,2	23,005
972,6	23,605
973,1	18,148
973,5	18,633
973,9	20,005
974,3	15,633
974,7	19,519
975,2	20,433
975,6	15,233
976	17,176
976,4	12,719
976,8	10,862
977,3	9,605
977,7	4,833
978,1	0,776
978,5	0,033
978,9	-0,481
979,4	3,262
979,8	2,719
980,2	6,548
980,6	4,033
981	6,233
981,5	13,605
981,9	14,633
982,3	18,405
982,7	19,005
983,1	15,548
983,6	16,633
984	15,148
984,4	12,519
984,8	12,605
985,2	10,948
985,6	5,09
986,1	6,976
986,5	10,576
986,9	5,233
987,3	6,862
987,7	5,176
988,2	1,29
988,6	5,348
989	4,205
989,4	4,776
989,8	7,519
990,3	6,005
990,7	6,29
991,1	10,119
991,5	11,033
991,9	15,205
992,3	14,062
992,8	20,319
993,2	20,033
993,6	21,976
994	22,376
994,4	26,148
994,9	22,719
995,3	21,148
995,7	16,948
996,1	17,376
996,5	15,719
996,9	10,605
997,4	7,062
997,8	6,576
998,2	6,09
998,6	0,148
999	-2,852
999,5	-4,852
999,9	0,462
1000,3	0,662
1000,7	0,348
1001,1	-2,167
1001,5	6,119
1002	11,719
1002,4	13,548
1002,8	11,09
1003,2	13,176
1003,6	17,633
1004	22,548
1004,5	16,719
1004,9	16,605
1005,3	17,748
1005,7	19,748
1006,1	12,89
1006,6	8,233
1007	7,519
1007,4	8,262
1007,8	6,348
1008,2	2,376
1008,6	4,633
1009,1	9,205
1009,5	9,89
1009,9	7,433
1010,3	10,433
1010,7	10,233
1011,1	10,605
1011,6	8,89
1012	12,976
1012,4	14,176
1012,8	16,233
1013,2	17,862
1013,6	16,033
1014,1	18,633
1014,5	18,776
1014,9	14,719
1015,3	13,433
1015,7	11,976
1016,1	8,605
1016,6	9,462
1017	14,062
1017,4	11,605
1017,8	11,033
1018,2	11,976
1018,6	9,119
1019,1	11,29
1019,5	10,405
1019,9	4,719
1020,3	6,262
1020,7	5,805
1021,1	4,433
1021,6	8,519
1022	9,119
1022,4	9,69
1022,8	12,348
1023,2	8,948
1023,6	11,09
1024,1	16,176
1024,5	17,062
1024,9	14,462
1025,3	16,033
1025,7	13,948
1026,1	18,262
1026,6	16,205
1027	10,29
1027,4	11,49
1027,8	14,319
1028,2	12,119
1028,6	15,748
1029	10,519
1029,5	13,576
1029,9	13,662
1030,3	8,062
1030,7	5,576
1031,1	12,119
1031,5	6,919
1032	7,548
1032,4	6,062
1032,8	9,919
1033,2	14,205
1033,6	13,776
1034	8,376
1034,4	9,862
1034,9	14,919
1035,3	11,605
1035,7	13,633
1036,1	13,776
1036,5	14,119
1036,9	16,49
1037,4	20,548
1037,8	13,89
1038,2	16,605
1038,6	9,919
1039	10,176
1039,4	17,005
1039,8	16,148
1040,3	13,576
1040,7	11,919
1041,1	15,062
1041,5	19,948
1041,9	14,948
1042,3	10,433
1042,7	9,948
1043,2	8,433
1043,6	10,376
1044	4,719
1044,4	4,662
1044,8	11,833
1045,2	7,548
1045,6	10,005
1046,1	11,776
1046,5	15,433
1046,9	16,09
1047,3	13,09
1047,7	7,976
1048,1	9,376
1048,5	6,576
1049	12,462
1049,4	16,662
1049,8	20,319
1050,2	21,148
1050,6	25,948
1051	28,062
1051,4	26,49
1051,9	19,262
1052,3	17,205
1052,7	16,09
1053,1	15,205
1053,5	9,89
1053,9	9,205
1054,3	11,49
1054,8	19,062
1055,2	18,576
1055,6	19,148
1056	20,49
1056,4	22,119
1056,8	24,062
1057,2	19,862
1057,6	12,719
1058,1	9,262
1058,5	6,033
1058,9	8,176
1059,3	8,519
1059,7	7,09
1060,1	13,262
1060,5	18,805
1061	21,805
1061,4	20,805
1061,8	19,319
1062,2	21,319
1062,6	21,262
1063	21,119
1063,4	19,319
1063,8	17,005
1064,3	17,29
1064,7	18,148
1065,1	17,433
1065,5	14,49
1065,9	7,976
1066,3	2,548
1066,7	1,948
1067,1	1,062
1067,6	-0,052
1068	-8,367
1068,4	-6,824
1068,8	-0,681
1069,2	2,148
1069,6	1,348
1070	5,005
1070,4	3,862
1070,9	8,033
1071,3	10,633
1071,7	7,376
1072,1	7,69
1072,5	6,433
1072,9	6,205
1073,3	6,233
1073,7	7,119
1074,2	7,919
1074,6	9,89
1075	10,633
1075,4	15,176
1075,8	19,148
1076,2	17,69
1076,6	22,233
1077	19,205
1077,5	19,348
1077,9	16,062
1078,3	14,176
1078,7	10,29
1079,1	15,376
1079,5	13,29
1079,9	13,833
1080,3	12,433
1080,7	13,948
1081,2	19,462
1081,6	17,519
1082	13,405
1082,4	17,119
1082,8	17,405
1083,2	19,948
1083,6	19,548
1084	12,719
1084,5	16,748
1084,9	14,519
1085,3	5,576
1085,7	7,033
1086,1	4,376
1086,5	4,948
1086,9	13,662
1087,3	9,205
1087,7	13,005
1088,2	18,89
1088,6	19,405
1089	21,748
1089,4	21,605
1089,8	14,89
1090,2	13,176
1090,6	11,919
1091	11,919
1091,4	12,233
1091,9	12,462
1092,3	14,49
1092,7	13,062
1093,1	19,262
1093,5	20,062
1093,9	16,748
1094,3	15,805
1094,7	10,548
1095,1	9,119
1095,5	10,09
1096	4,719
1096,4	3,69
1096,8	7,49
1097,2	4,148
1097,6	12,662
1098	14,519
1098,4	21,719
1098,8	22,233
1099,2	27,69
1099,6	26,09
1100,1	26,862
1100,5	21,262
1100,9	18,176
1101,3	12,29
1101,7	14,805
1102,1	9,49
1102,5	12,89
1102,9	12,919
1103,3	15,176
1103,7	16,948
1104,2	13,605
1104,6	11,519
1105	10,49
1105,4	6,405
1105,8	4,719
1106,2	1,062
1106,6	-1,652
1107	-0,11
1107,4	-0,133
1107,8	0,793
1108,3	-0,617
