Data from Subt2_124.txt Node
Date: Sat Aug 26 18:24:18 MSK 2023
User: vat
Spectrometer: MAYP114033
Trigger mode: 0
Integration Time (sec): 1,000000E0
Scans to average: 5
Electric dark correction enabled: true
Nonlinearity correction enabled: false
Boxcar width: 3
XAxis mode: Wavelengths
Number of Pixels in Spectrum: 2068
>>>>>Begin Spectral Data<<<<<
199,4	-0,183
199,9	0,027
200,4	-4,033
200,8	-3,933
201,3	-3,505
201,8	0,095
202,2	-1,305
202,7	0,952
203,2	2,067
203,6	4,324
204,1	3,781
204,6	2,038
205	-0,476
205,5	0,952
206	-0,39
206,4	-1,105
206,9	0,067
207,4	7,781
207,8	10,238
208,3	8,581
208,8	6,152
209,2	6,267
209,7	9,638
210,2	10,067
210,6	1,838
211,1	-0,276
211,5	-1,705
212	1,267
212,5	0,752
212,9	-7,248
213,4	-9,419
213,9	-9,59
214,3	-5,933
214,8	-2,219
215,3	-6,762
215,7	-3,448
216,2	1,21
216,7	3,267
217,1	1,524
217,6	-1,705
218,1	-3,876
218,5	-2,133
219	-10,133
219,5	-7,705
219,9	-13,962
220,4	-4,419
220,9	-3,819
221,3	-4,762
221,8	0,752
222,3	7,295
222,7	5,638
223,2	10,581
223,6	2,924
224,1	-0,076
224,6	4,295
225	-1,99
225,5	-6,848
226	-8,876
226,4	-6,99
226,9	-4,133
227,4	-1,562
227,8	-9,648
228,3	-8,248
228,8	-6,162
229,2	-2,876
229,7	-4,762
230,2	-1,733
230,6	3,781
231,1	15,067
231,5	14,295
232	14,952
232,5	13,867
232,9	19,095
233,4	17,324
233,9	12,324
234,3	6,867
234,8	9,381
235,3	4,61
235,7	1,924
236,2	-0,933
236,7	-5,848
237,1	-6,105
237,6	-10,076
238,1	-10,362
238,5	-12,276
239	-8,619
239,4	-8,79
239,9	-5,076
240,4	-7,105
240,8	0,467
241,3	-4,419
241,8	0,552
242,2	-2,19
242,7	-5,533
243,2	-3,705
243,6	-3,905
244,1	-6,076
244,6	0,238
245	2,724
245,5	5,295
245,9	7,495
246,4	8,067
246,9	10,81
247,3	10,667
247,8	9,095
248,3	11,067
248,7	7,61
249,2	9,438
249,7	5,724
250,1	8,724
250,6	5,552
251	6,181
251,5	7,667
252	9,867
252,4	7,181
252,9	2,038
253,4	-4,676
253,8	-5,305
254,3	-4,676
254,8	-8,533
255,2	-10,59
255,7	-11,476
256,1	-2,705
256,6	-2,933
257,1	-0,733
257,5	-4,533
258	-5,99
258,5	-4,562
258,9	-3,476
259,4	-8,19
259,9	-3,819
260,3	-4,305
260,8	-3,648
261,2	-2,962
261,7	0,552
262,2	-1,419
262,6	-4,219
263,1	-1,076
263,6	-1,219
264	2,438
264,5	5,495
264,9	-1,705
265,4	2,352
265,9	5,81
266,3	5,952
266,8	6,41
267,3	6,438
267,7	4,124
268,2	4,781
268,7	3,724
269,1	3,81
269,6	0,41
270	5,038
270,5	0,667
271	0,467
271,4	2,752
271,9	-0,39
272,4	3,752
272,8	6,095
273,3	-2,619
273,7	-1,305
274,2	-3,305
274,7	-1,562
275,1	2,838
275,6	3,067
276,1	-0,419
276,5	2,552
277	3,61
277,4	5,381
277,9	7,667
278,4	3,152
278,8	1,695
279,3	4,324
279,8	5,552
280,2	8,895
280,7	8,095
281,1	4,01
281,6	8,524
282,1	6,924
282,5	6,038
283	8,895
283,4	4,81
283,9	7,267
284,4	10,638
284,8	8,581
285,3	7,695
285,8	11,781
286,2	5,724
286,7	3,152
287,1	1,581
287,6	-1,333
288,1	-2,562
288,5	2,295
289	-4,99
289,5	2,41
289,9	4,352
290,4	7,095
290,8	9,81
291,3	12,867
291,8	11,724
292,2	13,124
292,7	13,267
293,1	16,01
293,6	12,21
294,1	10,552
294,5	6,924
295	2,324
295,5	2,895
295,9	-2,505
296,4	-5,619
296,8	-6,505
297,3	-3,076
297,8	-7,648
298,2	-6,705
298,7	-2,733
299,1	-1,219
299,6	-6,133
300,1	-0,076
300,5	-3,59
301	7,038
301,5	6,495
301,9	1,981
302,4	-0,819
302,8	5,352
303,3	3,038
303,8	-0,848
304,2	-7,048
304,7	-5,048
305,1	-9,476
305,6	-6,533
306,1	1,238
306,5	0,067
307	9,324
307,4	13,01
307,9	14,981
308,4	19,495
308,8	15,752
309,3	9,352
309,8	8,695
310,2	2,295
310,7	-0,219
311,1	-1,619
311,6	-2,59
312,1	1,667
312,5	2,067
313	3,781
313,4	6,41
313,9	11,495
314,4	7,467
314,8	8,952
315,3	10,038
315,7	7,038
316,2	6,038
316,7	1,81
317,1	0,438
317,6	3,552
318	6,552
318,5	4,267
319	5,724
319,4	4,324
319,9	9,067
320,3	7,01
320,8	3,924
321,3	2,152
321,7	6,152
322,2	5,152
322,6	9,638
323,1	5,295
323,6	4,495
324	6,21
324,5	5,752
324,9	1,752
325,4	4,067
325,9	0,61
326,3	4,238
326,8	8,21
327,2	6,724
327,7	6,467
328,2	4,81
328,6	6,61
329,1	4,038
329,5	-0,076
330	-1,476
330,5	1,752
330,9	1,324
331,4	5,352
331,8	1,381
332,3	4,724
332,8	5,324
333,2	3,581
333,7	7,41
334,1	10,267
334,6	5,924
335,1	0,095
335,5	-0,79
336	-1,019
336,4	-2,933
336,9	-2,133
337,4	-2,99
337,8	-0,762
338,3	9,41
338,7	12,781
339,2	14,238
339,7	18,295
340,1	13,038
340,6	9,838
341	9,752
341,5	7,324
342	3,267
342,4	0,495
342,9	-5,248
343,3	-6,905
343,8	-7,648
344,2	-8,19
344,7	-5,276
345,2	-7,619
345,6	-2,876
346,1	6,095
346,5	2,638
347	4,095
347,5	4,895
347,9	5,952
348,4	8,324
348,8	8,838
349,3	4,781
349,8	11,067
350,2	15,695
350,7	15,895
351,1	12,438
351,6	18,724
352	17,81
352,5	19,038
353	25,495
353,4	28,267
353,9	35,438
354,3	43,61
354,8	48,21
355,3	61,238
355,7	74,667
356,2	87,381
356,6	100,124
357,1	114,752
357,5	135,181
358	158,381
358,5	181,124
358,9	206,238
359,4	234,095
359,8	269,038
360,3	310,295
360,8	348,152
361,2	392,524
361,7	445,552
362,1	505,724
362,6	571,695
363	638,152
363,5	709,924
364	791,61
364,4	868,924
364,9	947,838
365,3	1022,952
365,8	1093,495
366,3	1162,095
366,7	1225,867
367,2	1284,01
367,6	1329,838
368,1	1365,781
368,5	1392,838
369	1404,552
369,5	1412,752
369,9	1400,524
370,4	1373,181
370,8	1341,124
371,3	1302,124
371,7	1253,638
372,2	1203,667
372,7	1142,552
373,1	1083,981
373,6	1021,952
374	968,61
374,5	901,752
374,9	841,724
375,4	781,524
375,9	724,495
376,3	667,238
376,8	613,267
377,2	559,267
377,7	511,724
378,2	465,267
378,6	421,552
379,1	380,324
379,5	348,01
380	322,152
380,4	292,467
380,9	271,095
381,4	250,01
381,8	235,895
382,3	222,924
382,7	209,667
383,2	193,667
383,6	180,324
384,1	166,924
384,6	156,495
385	141,381
385,5	130,895
385,9	116,41
386,4	108,324
386,8	101,295
387,3	92,781
387,7	89,952
388,2	89,324
388,7	81,324
389,1	82,295
389,6	77,438
390	73,638
390,5	75,81
390,9	69,667
391,4	63,61
391,9	62,095
392,3	53,295
392,8	50,352
393,2	42,924
393,7	38,638
394,1	35,095
394,6	32,952
395,1	34,981
395,5	34,152
396	33,61
396,4	39,238
396,9	37,724
397,3	42,181
397,8	44,638
398,2	44,41
398,7	47,267
399,2	48,752
399,6	47,238
400,1	49,352
400,5	42,181
401	41,781
401,4	34,667
401,9	33,438
402,4	35,581
402,8	34,724
403,3	36,495
403,7	32,981
404,2	34,381
404,6	39,81
405,1	41,81
405,5	39,01
406	42,952
406,5	45,867
406,9	54,981
407,4	57,752
407,8	63,152
408,3	66,295
408,7	64,067
409,2	69,495
409,6	73,552
410,1	78,467
410,6	82,581
411	86,724
411,5	96,352
411,9	105,495
412,4	113,695
412,8	118,124
413,3	126,267
413,7	133,438
414,2	142,01
414,7	151,01
415,1	165,981
415,6	176,324
416	186,867
416,5	199,238
416,9	207,067
417,4	218,838
417,8	235,495
418,3	248,981
418,8	262,381
419,2	278,181
419,7	295,667
420,1	316,695
420,6	335,61
421	345,752
421,5	368,524
421,9	386,067
422,4	406,981
422,8	423,352
423,3	448,01
423,8	467,838
424,2	492,81
424,7	514,238
425,1	540,467
425,6	567,438
426	599,038
426,5	629,095
426,9	667,667
427,4	703,838
427,9	735,752
428,3	777,124
428,8	815,952
429,2	854,638
429,7	892,352
430,1	933,067
430,6	981,952
431	1034,01
431,5	1086,267
431,9	1135,552
432,4	1200,124
432,8	1264,552
433,3	1328,667
433,8	1392,752
434,2	1464,01
434,7	1536,838
435,1	1619,838
435,6	1698,067
436	1782,095
436,5	1872,781
436,9	1960,495
437,4	2056,067
437,8	2153,381
438,3	2255,895
438,8	2360,81
439,2	2464,952
439,7	2576,352
440,1	2699,695
440,6	2819,924
441	2943,895
441,5	3076,581
441,9	3210,524
442,4	3351,01
442,8	3496,124
443,3	3645,867
443,7	3796,495
444,2	3953,724
444,7	4112,781
445,1	4275,524
445,6	4450,981
446	4627,895
446,5	4801,867
446,9	4986,438
447,4	5175,781
447,8	5363,952
448,3	5566,038
448,7	5767,895
449,2	5974,695
449,6	6187,067
450,1	6403,638
450,6	6632,581
451	6859,238
451,5	7090,667
451,9	7328,467
452,4	7566,152
452,8	7802,581
453,3	8047,667
453,7	8290,552
454,2	8550,667
454,6	8808,41
455,1	9060,01
455,5	9314,324
456	9582,238
456,4	9848,924
456,9	10118,667
457,3	10388,781
457,8	10654,838
458,3	10947,924
458,7	11237,267
459,2	11540,295
459,6	11824,124
460,1	12117,324
460,5	12409,352
461	12714,695
461,4	13005,324
461,9	13300,667
462,3	13582,638
462,8	13891,067
463,2	14181,267
463,7	14476,81
464,1	14772,238
464,6	15057,724
465	15357,638
465,5	15655,895
466	15942,01
466,4	16234,781
466,9	16531,724
467,3	16810,61
467,8	17104,124
468,2	17384,781
468,7	17669,781
469,1	17950,524
469,6	18232,067
470	18504,152
470,5	18782,267
470,9	19049,667
471,4	19302,667
471,8	19548,495
472,3	19811,238
472,7	20058,695
473,2	20309,924
473,6	20545,81
474,1	20779,781
474,5	21021,267
475	21274,581
475,4	21488,552
475,9	21717,838
476,4	21925,581
476,8	22140,895
477,3	22346,095
477,7	22545,038
478,2	22714,752
478,6	22897,381
479,1	23060,438
479,5	23232,667
480	23387,124
480,4	23537,781
480,9	23675,41
481,3	23817,095
481,8	23954,552
482,2	24092,095
482,7	24198,781
483,1	24312,924
483,6	24415,495
484	24514,41
484,5	24601,838
484,9	24678,352
485,4	24742,238
485,8	24827,781
486,3	24879,638
486,7	24932,895
487,2	24984,124
487,6	25018,495
488,1	25037,867
488,5	25053,895
489	25052,038
489,4	25070,981
489,9	25068,81
490,4	25060,267
490,8	25060,552
491,3	25053,181
491,7	25030,552
492,2	24996,21
492,6	24946,695
493,1	24890,438
493,5	24831,324
494	24754,41
494,4	24703,981
494,9	24632,267
495,3	24555,01
495,8	24473,238
496,2	24409,038
496,7	24318,81
497,1	24242,267
497,6	24131,124
498	24038,21
498,5	23942,895
498,9	23842,981
499,4	23727,038
499,8	23619,781
500,3	23497,352
500,7	23387,638
501,2	23263,067
501,6	23135,638
502,1	23020,381
502,5	22893,752
503	22774,181
503,4	22648,581
503,9	22504,895
504,3	22382,324
504,8	22234,524
505,2	22082,267
505,7	21931,038
506,1	21775,61
506,6	21604,381
507	21445,724
507,5	21272,781
507,9	21109,81
508,4	20948,695
508,8	20775,524
509,3	20612,038
509,7	20462,952
510,2	20303,81
510,6	20123,838
511,1	19968,781
511,5	19792,438
512	19626,781
512,4	19447,838
512,9	19255,267
513,3	19071,381
513,8	18903,524
514,2	18721,21
514,7	18547,495
515,1	18369,952
515,6	18189,695
516	18010,01
516,5	17823,038
516,9	17637,781
517,4	17451,895
517,8	17275,981
518,3	17098,21
518,7	16910,952
519,2	16739,295
519,6	16568,552
520,1	16394,495
520,5	16217,21
521	16025,381
521,4	15853,524
521,9	15691,067
522,3	15523,381
522,8	15356,524
523,2	15197,067
523,7	15034,952
524,1	14875,01
524,6	14695,238
525	14529,667
525,5	14364,41
525,9	14200,352
526,4	14029,495
526,8	13868,095
527,3	13715,495
527,7	13574,924
528,2	13421,581
528,6	13265,267
529,1	13120,41
529,5	12986,038
530	12843,552
530,4	12695,724
530,9	12550,181
531,3	12402,067
531,8	12263,381
532,2	12121,124
532,6	11973,781
533,1	11833,067
533,5	11695,067
534	11559,267
534,4	11425,61
534,9	11296,867
535,3	11152,781
535,8	11017,552
536,2	10898,638
536,7	10778,981
537,1	10656,695
537,6	10538,752
538	10430,352
538,5	10335,067
538,9	10225,238
539,4	10104,324
539,8	9989,295
540,3	9875,495
540,7	9765,467
541,2	9637,295
541,6	9517,581
542,1	9411,81
542,5	9311,552
543	9212,524
543,4	9107,552
543,9	9010,267
544,3	8925,695
544,8	8829,981
545,2	8730,838
545,7	8634,238
546,1	8536,01
546,5	8452,581
547	8359,01
547,4	8263,495
547,9	8175,238
548,3	8094,01
548,8	8013,324
549,2	7922,438
549,7	7831,752
550,1	7752,381
550,6	7670,352
551	7589,181
551,5	7506,867
551,9	7421,352
552,4	7347,295
552,8	7279,238
553,3	7194,467
553,7	7116,924
554,2	7051,038
554,6	6982,667
555,1	6914,295
555,5	6850,095
555,9	6783,752
556,4	6723,667
556,8	6662,895
557,3	6598,295
557,7	6528,238
558,2	6466,067
558,6	6402,152
559,1	6332,181
559,5	6274,238
560	6215,81
560,4	6154,61
560,9	6098,181
561,3	6039,467
561,8	5980,638
562,2	5933,724
562,7	5872,381
563,1	5819,638
563,6	5758,724
564	5703,381
564,4	5643,952
564,9	5592,838
565,3	5539,952
565,8	5494,295
566,2	5443,724
566,7	5402,124
567,1	5359,838
567,6	5310,81
568	5267,438
568,5	5213,695
568,9	5164,552
569,4	5119,495
569,8	5073,438
570,3	5025,724
570,7	4984,01
571,1	4938,352
571,6	4897,238
572	4862,295
572,5	4818,095
572,9	4774,21
573,4	4725,61
573,8	4694,124
574,3	4648,895
574,7	4606,01
575,2	4554,495
575,6	4517,295
576,1	4480,695
576,5	4453,324
576,9	4409,867
577,4	4372,695
577,8	4339,238
578,3	4306,181
578,7	4267,552
579,2	4234,667
579,6	4192,667
580,1	4152,752
580,5	4121,438
581	4087,924
581,4	4057,495
581,9	4016,81
582,3	3976,324
582,7	3942,552
583,2	3909,552
583,6	3879,295
584,1	3847,924
584,5	3812,324
585	3780,124
585,4	3746,067
585,9	3714,695
586,3	3684,981
586,8	3653,924
587,2	3617,981
587,6	3594,81
588,1	3572,438
588,5	3547,781
589	3517,781
589,4	3493,667
589,9	3457,638
590,3	3432,552
590,8	3400,067
591,2	3375,524
591,7	3350,81
592,1	3328,21
592,5	3300,124
593	3282,752
593,4	3259,495
593,9	3232,895
594,3	3206,495
594,8	3185,81
595,2	3167,181
595,7	3149,295
596,1	3125,381
596,6	3105,381
597	3090,381
597,4	3071,752
597,9	3049,581
598,3	3029,552
598,8	3010,581
599,2	2994,752
599,7	2972,667
600,1	2950,81
600,6	2930,038
601	2907,267
601,4	2893,952
601,9	2875,324
602,3	2852,838
602,8	2831,895
603,2	2810,61
603,7	2788,838
604,1	2767,867
604,6	2739,838
605	2719,41
605,4	2702,924
605,9	2685,752
606,3	2658,838
606,8	2644,324
607,2	2626,981
607,7	2607,21
608,1	2583,438
608,6	2564,838
609	2549,295
609,4	2540,181
609,9	2517,838
610,3	2500,924
610,8	2488,581
611,2	2478,01
611,7	2459,21
612,1	2441,524
612,6	2426,724
613	2413,295
613,4	2391,638
613,9	2371,952
614,3	2354,41
614,8	2341,352
615,2	2323,152
615,7	2309,552
616,1	2294,267
616,6	2279,695
617	2260,552
617,4	2243,695
617,9	2226,267
618,3	2209,838
618,8	2194,41
619,2	2175,724
619,7	2166,667
620,1	2157,181
620,5	2145,524
621	2127,467
621,4	2115,095
621,9	2098,638
622,3	2082,838
622,8	2063,41
623,2	2046,038
623,6	2030,295
624,1	2020,41
624,5	1999,095
625	1984,124
625,4	1970,467
625,9	1958,838
626,3	1946,41
626,8	1925,467
627,2	1911,752
627,6	1901,295
628,1	1884,581
628,5	1876,638
629	1855,867
629,4	1841,781
629,9	1829,438
630,3	1816,238
630,7	1803,952
631,2	1795,781
631,6	1781,781
632,1	1773,352
632,5	1760,495
633	1753,552
633,4	1738,695
633,8	1731,095
634,3	1714,41
634,7	1700,552
635,2	1686,352
635,6	1673,81
636,1	1662,895
636,5	1647,352
636,9	1628,724
637,4	1616,81
637,8	1602,981
638,3	1596,324
638,7	1582,581
639,2	1564,638
639,6	1560,381
640	1546,038
640,5	1535,552
640,9	1521,152
641,4	1509,781
641,8	1500,924
642,2	1491,238
642,7	1481,467
643,1	1481,238
643,6	1472,095
644	1468,41
644,5	1464,352
644,9	1455,781
645,3	1446,981
645,8	1432,038
646,2	1423,267
646,7	1408,81
647,1	1393,781
647,6	1380,838
648	1372,81
648,4	1364,124
648,9	1358,895
649,3	1347,952
649,8	1343,352
650,2	1338,438
650,6	1326,781
651,1	1316,752
651,5	1315,038
652	1302,667
652,4	1290,895
652,9	1287,524
653,3	1280,695
653,7	1271,381
654,2	1263,152
654,6	1247,295
655,1	1241,295
655,5	1237,695
655,9	1225,238
656,4	1213,981
656,8	1207,495
657,3	1198,381
657,7	1193,581
658,2	1183,981
658,6	1170,238
659	1163,124
659,5	1154,552
659,9	1145,638
660,4	1137,095
660,8	1124,438
661,2	1115,352
661,7	1113,895
662,1	1102,238
662,6	1092,752
663	1084,752
663,4	1076,41
663,9	1072,181
664,3	1062,638
664,8	1044,924
665,2	1034,238
665,6	1028,238
666,1	1019,352
666,5	1014,124
667	1002,524
667,4	997,067
667,9	994,638
668,3	991,81
668,7	981,524
669,2	978,524
669,6	967,781
670,1	961,01
670,5	954,495
670,9	946,952
671,4	941,267
671,8	942,267
672,3	938,695
672,7	933,752
673,1	925,181
673,6	918,895
674	912,667
674,5	903,667
674,9	887,238
675,3	875,381
675,8	869,352
676,2	864,895
676,7	855,467
677,1	846,838
677,5	841,638
678	841,752
678,4	837,895
678,9	829,495
679,3	824,352
679,7	818,981
680,2	812,467
680,6	800,724
681,1	791,381
681,5	786,838
681,9	787,867
682,4	786,095
682,8	782,467
683,3	781,924
683,7	781,61
684,1	780,295
684,6	771,638
685	760,752
685,5	750,495
685,9	741,038
686,3	732,752
686,8	728,667
687,2	722,267
687,7	712,838
688,1	704,781
688,5	698,552
689	695,124
689,4	688,867
689,9	683,438
690,3	675,41
690,7	677,352
691,2	675,924
691,6	674,924
692	671,752
692,5	667,838
692,9	664,724
693,4	660,067
693,8	653,895
694,2	648,781
694,7	639,438
695,1	632,895
695,6	628,467
696	622,524
696,4	622,838
696,9	615,324
697,3	607,81
697,8	605,752
698,2	600,81
698,6	598,838
699,1	593,067
699,5	587,038
699,9	582,495
700,4	574,524
700,8	571,124
701,3	568,81
701,7	559,01
702,1	553,01
702,6	546,495
703	542,324
703,5	543,495
703,9	537,61
704,3	538,238
704,8	536,295
705,2	534,438
705,6	530,667
706,1	527,781
706,5	523,181
707	523,124
707,4	517,21
707,8	513,152
708,3	508,095
708,7	507,581
709,2	502,581
709,6	498,581
710	497,238
710,5	491,152
710,9	489,41
711,3	486,695
711,8	482,724
712,2	480,838
712,7	473,981
713,1	469,238
713,5	464,552
714	462,467
714,4	459,038
714,8	454,467
715,3	449,638
715,7	452,438
716,2	444,781
716,6	443,581
717	435,695
717,5	431,867
717,9	432,124
718,3	427,067
718,8	420,352
719,2	417,495
719,7	411,524
720,1	414,952
720,5	414,867
721	404,695
721,4	403,238
721,8	404,238
722,3	400,095
722,7	404,695
723,2	392,381
723,6	383,581
724	383,095
724,5	377,181
724,9	370,41
725,3	366,324
725,8	356,524
726,2	362,124
726,7	358,381
727,1	353,01
727,5	350,781
728	348,295
728,4	347,952
728,8	349,381
729,3	339,238
729,7	337,095
730,1	338,667
730,6	338,524
731	337,695
731,5	336,267
731,9	328,038
732,3	331,381
732,8	332,81
733,2	328,324
733,6	325,781
734,1	323,495
734,5	322,61
734,9	326,238
735,4	324,067
735,8	317,352
736,3	319,324
736,7	314,324
737,1	313,438
737,6	308,952
738	305,81
738,4	304,638
738,9	308,952
739,3	307,781
739,7	308,724
740,2	302,838
740,6	306,41
741,1	306,61
741,5	298,924
741,9	297,581
742,4	291,238
742,8	291,095
743,2	291,095
743,7	280,238
744,1	270,295
744,5	270,638
745	264,01
745,4	262,238
745,8	261,952
746,3	257,695
746,7	258,638
747,2	261,181
747,6	261,495
748	266,038
748,5	266,181
748,9	259,495
749,3	260,381
749,8	260,952
750,2	260,638
750,6	258,381
751,1	255,952
751,5	253,238
751,9	254,895
752,4	253,21
752,8	253,867
753,3	249,038
753,7	248,495
754,1	241,495
754,6	236,124
755	231,467
755,4	230,524
755,9	223,181
756,3	222,152
756,7	217,238
757,2	222,21
757,6	228,238
758	229,267
758,5	230,867
758,9	228,981
759,3	229,695
759,8	226,781
760,2	219,61
760,6	214,152
761,1	213,752
761,5	202,324
761,9	201,295
762,4	199,238
762,8	199,21
763,3	201,152
763,7	200,381
764,1	194,781
764,6	200,667
765	203,181
765,4	202,324
765,9	200,438
766,3	199,238
766,7	197,238
767,2	198,124
767,6	199,324
768	196,238
768,5	196,381
768,9	198,295
769,3	193,638
769,8	188,61
770,2	186,124
770,6	179,295
771,1	183,895
771,5	184,895
771,9	184,724
772,4	187,267
772,8	189,581
773,2	188,667
773,7	192,267
774,1	186,552
774,5	176,01
775	172,238
775,4	172,41
775,8	167,724
776,3	169,381
776,7	168,695
777,1	166,667
777,6	172,01
778	175,667
778,4	173,695
778,9	177,295
779,3	175,238
779,7	175,981
780,2	176,352
780,6	174,181
781	169,067
781,5	165,667
781,9	160,181
782,3	156,667
782,8	152,467
783,2	150,124
783,6	152,781
784,1	154,295
784,5	151,324
784,9	153,752
785,4	155,067
785,8	154,295
786,2	154,41
786,7	148,467
787,1	145,981
787,5	146,724
788	145,01
788,4	145,467
788,8	144,724
789,3	144,867
789,7	146,781
790,1	142,41
790,6	140,667
791	135,695
791,4	134,21
791,9	131,895
792,3	128,552
792,7	129,752
793,2	128,038
793,6	128,924
794	135,381
794,5	131,581
794,9	131,438
795,3	131,524
795,8	125,981
796,2	127,61
796,6	125,21
797,1	122,267
797,5	121,467
797,9	121,267
798,4	117,81
798,8	116,952
799,2	113,581
799,7	116,867
800,1	113,695
800,5	113,267
801	114,695
801,4	115,152
801,8	114,095
802,2	116,295
802,7	111,752
803,1	111,267
803,5	112,352
804	108,495
804,4	110,352
804,8	109,124
805,3	110,752
805,7	110,638
806,1	112,867
806,6	114,324
807	111,61
807,4	108,267
807,9	108,895
808,3	106,295
808,7	107,781
809,2	112,524
809,6	114,667
810	113,038
810,4	110,724
810,9	109,095
811,3	111,752
811,7	110,638
812,2	107,01
812,6	101,095
813	106,267
813,5	108,352
813,9	106,781
814,3	101,638
814,8	96,238
815,2	91,124
815,6	91,81
816,1	91,124
816,5	91,695
816,9	92,61
817,3	91,638
817,8	100,952
818,2	102,067
818,6	96,181
819,1	91,867
819,5	89,667
819,9	89,438
820,4	89,638
820,8	80,381
821,2	74,581
821,7	78,467
822,1	79,895
822,5	83,095
822,9	80,095
823,4	79,552
823,8	84,495
824,2	88,752
824,7	86,067
825,1	76,295
825,5	69,867
826	66,752
826,4	68,181
826,8	60,495
827,3	61,01
827,7	58,581
828,1	61,324
828,5	61,724
829	59,524
829,4	58,295
829,8	57,524
830,3	56,238
830,7	57,038
831,1	61,81
831,6	61,867
832	67,352
832,4	66,181
832,8	68,067
833,3	65,352
833,7	62,867
834,1	61,21
834,6	58,41
835	56,838
835,4	59,095
835,8	55,838
836,3	58,581
836,7	61,41
837,1	61,295
837,6	68,238
838	65,267
838,4	61,095
838,9	61,867
839,3	57,152
839,7	59,152
840,1	54,752
840,6	47,81
841	54,581
841,4	56,724
841,9	61,324
842,3	63,181
842,7	57,267
843,1	57,924
843,6	64,467
844	56,067
844,4	55,838
844,9	52,981
845,3	55,352
845,7	58,695
846,2	56,124
846,6	48,495
847	52,838
847,4	53,295
847,9	53,438
848,3	48,924
848,7	49,238
849,2	54,695
849,6	53,295
850	53,438
850,4	46,838
850,9	45,095
851,3	47,667
851,7	50,01
852,2	49,267
852,6	53,495
853	51,581
853,4	57,61
853,9	56,781
854,3	55,867
854,7	52,41
855,2	49,952
855,6	44,895
856	42,61
856,4	35,352
856,9	33,781
857,3	31,581
857,7	31,895
858,2	35,924
858,6	38,867
859	43,867
859,4	47,924
859,9	46,781
860,3	43,352
860,7	41,581
861,1	36,21
861,6	33,781
862	32,838
862,4	34,467
862,9	35,695
863,3	40,41
863,7	38,095
864,1	40,095
864,6	42,495
865	39,267
865,4	36,41
865,9	37,295
866,3	29,41
866,7	30,495
867,1	23,81
867,6	23,438
868	23,095
868,4	23,81
868,8	23,81
869,3	27,781
869,7	30,381
870,1	35,81
870,6	31,352
871	-46,048
871,4	-40,99
871,8	-42,819
872,3	-42,333
872,7	-42,99
873,1	-49,333
873,5	-46,39
874	29,467
874,4	22,438
874,8	18,867
875,3	20,438
875,7	15,467
876,1	22,41
876,5	23,638
877	25,352
877,4	22,152
877,8	26,61
878,2	23,895
878,7	28,524
879,1	23,952
879,5	21,295
879,9	22,124
880,4	26,81
880,8	27,867
881,2	27,781
881,7	25,952
882,1	32,924
882,5	30,067
882,9	28,01
883,4	21,21
883,8	22,41
884,2	23,81
884,6	22,61
885,1	16,324
885,5	21,438
885,9	18,238
886,3	28,295
886,8	19,21
887,2	15,124
887,6	14,781
888	15,238
888,5	14,181
888,9	16,581
889,3	7,895
889,8	12,01
890,2	15,952
890,6	15,61
891	14,952
891,5	14,438
891,9	15,752
892,3	17,924
892,7	22,324
893,2	24,095
893,6	27,524
894	32,438
894,4	30,181
894,9	28,952
895,3	29,867
895,7	26,781
896,1	20,638
896,6	19,124
897	17,067
897,4	19,124
897,8	21,524
898,3	20,438
898,7	19,552
899,1	20,695
899,5	16,581
900	11,61
900,4	10,981
900,8	4,581
901,2	4,752
901,7	7,038
902,1	12,552
902,5	16,581
902,9	16,438
903,4	19,952
903,8	20,981
904,2	16,781
904,6	13,41
905,1	11,181
905,5	8,438
905,9	15,181
906,3	12,895
906,8	17,181
907,2	23,495
907,6	24,981
908	22,752
908,5	22,01
908,9	14,438
909,3	9,81
909,7	9,895
910,2	4,724
910,6	4,924
911	2,467
911,4	7,181
911,9	8,695
912,3	10,01
912,7	12,781
913,1	21,01
913,6	17,01
914	21,895
914,4	16,524
914,8	16,924
915,3	15,495
915,7	10,638
916,1	5,638
916,5	12,181
916,9	13,638
917,4	15,61
917,8	16,81
918,2	15,752
918,6	14,21
919,1	13,095
919,5	12,724
919,9	9,838
920,3	11,038
920,8	8,867
921,2	11,924
921,6	8,581
922	8,324
922,5	8,381
922,9	7,181
923,3	2,924
923,7	9,381
924,2	9,552
924,6	12,581
925	15,324
925,4	12,124
925,8	8,581
926,3	7,01
926,7	1,038
927,1	-0,305
927,5	2,41
928	-4,076
928,4	-5,762
928,8	-4,19
929,2	-1,905
929,7	3,695
930,1	3,152
930,5	2,095
930,9	3,267
931,3	6,267
931,8	11,381
932,2	13,924
932,6	11,01
933	4,381
933,5	4,095
933,9	5,552
934,3	4,81
934,7	-1,762
935,2	-1,99
935,6	-4,505
936	3,695
936,4	4,895
936,8	6,152
937,3	7,381
937,7	11,667
938,1	14,581
938,5	11,21
939	10,067
939,4	9,781
939,8	11,924
940,2	7,41
940,6	7,838
941,1	2,781
941,5	9,495
941,9	8,381
942,3	6,038
942,8	4,238
943,2	6,867
943,6	4,41
944	2,467
944,4	-1,648
944,9	-3,019
945,3	-4,019
945,7	-9,705
946,1	-11,305
946,6	-14,533
947	-8,676
947,4	-5,219
947,8	-2,362
948,2	-2,448
948,7	1,867
949,1	1,181
949,5	8,495
949,9	5,238
950,3	4,61
950,8	3,181
951,2	5,524
951,6	0,895
952	4,667
952,5	-1,505
952,9	-0,876
953,3	-1,619
953,7	-4,533
954,1	-0,99
954,6	4,181
955	4,095
955,4	7,752
955,8	9,895
956,2	8,781
956,7	17,038
957,1	10,981
957,5	13,381
957,9	12,467
958,3	9,981
958,8	10,638
959,2	15,21
959,6	11,181
960	8,552
960,5	7,81
960,9	10,724
961,3	10,781
961,7	8,181
962,1	5,781
962,6	8,752
963	8,752
963,4	5,238
963,8	5,067
964,2	6,895
964,7	5,638
965,1	7,067
965,5	4,095
965,9	8,581
966,3	9,41
966,8	4,495
967,2	3,495
967,6	4,638
968	-1,019
968,4	-0,733
968,9	1,781
969,3	6,638
969,7	4,295
970,1	9,467
970,5	8,267
971	14,181
971,4	10,381
971,8	12,067
972,2	8,152
972,6	14,695
973,1	8,781
973,5	7,495
973,9	4,581
974,3	8,381
974,7	6,295
975,2	11,381
975,6	6,095
976	8,924
976,4	9,552
976,8	10,438
977,3	9,781
977,7	6,838
978,1	2,095
978,5	2,095
978,9	-2,048
979,4	-2,962
979,8	-2,648
980,2	-5,048
980,6	-6,162
981	-2,705
981,5	-0,333
981,9	0,41
982,3	3,41
982,7	3,495
983,1	3,067
983,6	3,124
984	1,381
984,4	2,695
984,8	3,267
985,2	1,41
985,6	-2,762
986,1	-1,933
986,5	2,981
986,9	-3,848
987,3	-6,362
987,7	-4,505
988,2	-7,219
988,6	-3,076
989	-2,762
989,4	-7,933
989,8	-5,448
990,3	-6,076
990,7	-5,762
991,1	-0,562
991,5	-0,762
991,9	1,895
992,3	3,924
992,8	9,495
993,2	6,724
993,6	6,495
994	3,981
994,4	4,038
994,9	3,124
995,3	2,181
995,7	-3,248
996,1	-0,076
996,5	-0,676
996,9	-2,19
997,4	0,21
997,8	-1,248
998,2	-3,562
998,6	-5,59
999	-6,333
999,5	-9,962
999,9	-9,362
1000,3	-12,562
1000,7	-12,105
1001,1	-11,705
1001,5	-5,733
1002	3,21
1002,4	7,524
1002,8	8,295
1003,2	10,724
1003,6	10,495
1004	15,181
1004,5	11,295
1004,9	5,038
1005,3	-2,019
1005,7	1,61
1006,1	-0,876
1006,6	1,895
1007	0,324
1007,4	1,01
1007,8	-1,819
1008,2	1,01
1008,6	-0,562
1009,1	-6,019
1009,5	-6,533
1009,9	-7,162
1010,3	-4,048
1010,7	-0,59
1011,1	1,81
1011,6	1,41
1012	7,124
1012,4	4,41
1012,8	3,267
1013,2	7,095
1013,6	5,838
1014,1	6,895
1014,5	3,581
1014,9	3,352
1015,3	2,61
1015,7	3,124
1016,1	-4,419
1016,6	-4,99
1017	-3,305
1017,4	0,867
1017,8	-0,39
1018,2	3,895
1018,6	3,352
1019,1	4,581
1019,5	4,724
1019,9	-3,019
1020,3	-5,733
1020,7	-5,505
1021,1	-10,162
1021,6	-11,362
1022	-10,133
1022,4	-11,133
1022,8	-5,876
1023,2	-6,448
1023,6	-2,133
1024,1	4,667
1024,5	11,752
1024,9	6,638
1025,3	7,324
1025,7	4,467
1026,1	6,867
1026,6	2,152
1027	-1,99
1027,4	-3,019
1027,8	-1,705
1028,2	-1,59
1028,6	5,01
1029	4,781
1029,5	12,324
1029,9	9,381
1030,3	0,838
1030,7	3,695
1031,1	6,81
1031,5	1,381
1032	1,21
1032,4	-2,933
1032,8	3,695
1033,2	8,81
1033,6	6,981
1034	1,724
1034,4	3,381
1034,9	3,552
1035,3	1,295
1035,7	-4,79
1036,1	-8,248
1036,5	-9,39
1036,9	-6,876
1037,4	-1,105
1037,8	-10,905
1038,2	-9,905
1038,6	-8,676
1039	-6,505
1039,4	0,21
1039,8	-5,79
1040,3	-11,162
1040,7	0,41
1041,1	2,238
1041,5	3,467
1041,9	1,095
1042,3	2,524
1042,7	10,61
1043,2	9,61
1043,6	6,124
1044	2,638
1044,4	2,752
1044,8	6,438
1045,2	3,981
1045,6	1,181
1046,1	3,81
1046,5	7,552
1046,9	6,61
1047,3	4,638
1047,7	3,352
1048,1	-1,333
1048,5	0,61
1049	-0,276
1049,4	-0,219
1049,8	3,067
1050,2	5,667
1050,6	10,181
1051	15,067
1051,4	13,238
1051,9	11,867
1052,3	14,352
1052,7	12,867
1053,1	7,581
1053,5	6,038
1053,9	1,41
1054,3	-1,762
1054,8	3,724
1055,2	-1,305
1055,6	0,381
1056	4,81
1056,4	4,724
1056,8	9,752
1057,2	11,724
1057,6	5,695
1058,1	2,552
1058,5	-6,076
1058,9	-3,105
1059,3	-8,076
1059,7	-11,905
1060,1	-10,248
1060,5	-6,848
1061	-4,705
1061,4	-1,533
1061,8	-2,676
1062,2	-2,133
1062,6	-0,362
1063	4,152
1063,4	0,867
1063,8	-0,676
1064,3	-0,962
1064,7	-3,99
1065,1	-0,476
1065,5	0,667
1065,9	-8,105
1066,3	-8,933
1066,7	-9,505
1067,1	-12,59
1067,6	-8,705
1068	-12,905
1068,4	-13,619
1068,8	-7,705
1069,2	-6,019
1069,6	-4,648
1070	2,581
1070,4	-2,362
1070,9	-4,876
1071,3	-6,333
1071,7	-9,733
1072,1	-9,219
1072,5	-10,819
1072,9	-14,39
1073,3	-9,876
1073,7	-9,133
1074,2	-11,619
1074,6	-6,39
1075	-8,876
1075,4	-4,762
1075,8	-3,59
1076,2	-5,048
1076,6	0,41
1077	2,181
1077,5	0,895
1077,9	0,438
1078,3	-1,048
1078,7	-0,762
1079,1	0,41
1079,5	-2,133
1079,9	2,038
1080,3	0,152
1080,7	2,352
1081,2	8,01
1081,6	10,495
1082	6,61
1082,4	10,724
1082,8	5,467
1083,2	4,352
1083,6	5,41
1084	0,124
1084,5	0,41
1084,9	-1,19
1085,3	-6,705
1085,7	-4,505
1086,1	-6,39
1086,5	-7,276
1086,9	-4,848
1087,3	-4,762
1087,7	-2,505
1088,2	1,324
1088,6	0,181
1089	6,267
1089,4	9,01
1089,8	5,952
1090,2	1,381
1090,6	2,752
1091	7,01
1091,4	10,267
1091,9	8,867
1092,3	6,867
1092,7	6,038
1093,1	8,552
1093,5	8,695
1093,9	3,924
1094,3	8,295
1094,7	3,238
1095,1	-0,762
1095,5	0,981
1096	0,21
1096,4	-1,933
1096,8	-1,133
1097,2	-9,762
1097,6	-1,276
1098	2,667
1098,4	4,552
1098,8	7,552
1099,2	14,695
1099,6	13,667
1100,1	14,21
1100,5	6,352
1100,9	6,895
1101,3	5,21
1101,7	4,667
1102,1	-3,248
1102,5	0,181
1102,9	1,267
1103,3	4,638
1103,7	4,724
1104,2	6,381
1104,6	3,324
1105	4,267
1105,4	0,41
1105,8	0,01
1106,2	-1,562
1106,6	-2,648
1107	-4,476
1107,4	-3,5
1107,8	-1,453
1108,3	-0,533
