Data from Subt2_203.txt Node
Date: Sat Aug 26 18:45:43 MSK 2023
User: vat
Spectrometer: MAYP114033
Trigger mode: 0
Integration Time (sec): 1,000000E0
Scans to average: 5
Electric dark correction enabled: true
Nonlinearity correction enabled: false
Boxcar width: 3
XAxis mode: Wavelengths
Number of Pixels in Spectrum: 2068
>>>>>Begin Spectral Data<<<<<
199,4	-0,367
199,9	-0,487
200,4	-3,867
200,8	-1,71
201,3	-3,367
201,8	-1,652
202,2	-3,624
202,7	2,462
203,2	2,662
203,6	4,319
204,1	-0,567
204,6	-0,824
205	-0,167
205,5	0,605
206	-7,11
206,4	-9,824
206,9	-7,138
207,4	-1,595
207,8	1,748
208,3	-1,967
208,8	-0,71
209,2	1,605
209,7	5,862
210,2	8,233
210,6	10,262
211,1	10,176
211,5	6,976
212	7,376
212,5	8,576
212,9	6,433
213,4	4,462
213,9	-1,052
214,3	-1,224
214,8	7,062
215,3	2,576
215,7	3,719
216,2	4,948
216,7	2,748
217,1	1,319
217,6	-0,767
218,1	-3,252
218,5	2,033
219	-4,081
219,5	0,233
219,9	-3,138
220,4	6,576
220,9	7,748
221,3	4,376
221,8	4,376
222,3	7,376
222,7	3,519
223,2	8,49
223,6	3,605
224,1	1,405
224,6	5,233
225	1,033
225,5	-1,024
226	-1,367
226,4	-0,395
226,9	-1,624
227,4	0,376
227,8	-7,595
228,3	-7,652
228,8	-6,795
229,2	-3,052
229,7	-3,624
230,2	-4,681
230,6	-1,195
231,1	7,576
231,5	11,005
232	13,176
232,5	13,348
232,9	13,805
233,4	14,719
233,9	12,69
234,3	10,633
234,8	10,233
235,3	6,976
235,7	3,976
236,2	2,862
236,7	3,205
237,1	7,605
237,6	6,09
238,1	2,033
238,5	2,09
239	1,605
239,4	0,862
239,9	0,833
240,4	-4,967
240,8	-6,024
241,3	-7,995
241,8	-5,624
242,2	-10,652
242,7	-10,395
243,2	-12,881
243,6	-12,938
244,1	-7,367
244,6	0,462
245	-1,11
245,5	3,148
245,9	0,29
246,4	2,576
246,9	2,69
247,3	-0,31
247,8	-2,881
248,3	-1,538
248,7	-0,195
249,2	3,548
249,7	2,833
250,1	7,919
250,6	7,062
251	12,062
251,5	15,262
252	17,176
252,4	17,776
252,9	16,205
253,4	7,062
253,8	5,29
254,3	0,69
254,8	-2,91
255,2	-7,91
255,7	-13,824
256,1	-10,967
256,6	-5,452
257,1	-0,767
257,5	-3,624
258	-3,481
258,5	-0,738
258,9	3,633
259,4	0,405
259,9	-0,91
260,3	-4,795
260,8	-3,681
261,2	-2,824
261,7	-2,738
262,2	-8,852
262,6	-8,252
263,1	-5,652
263,6	-4,138
264	-1,195
264,5	2,205
264,9	1,605
265,4	7,176
265,9	5,49
266,3	5,005
266,8	10,205
267,3	10,09
267,7	6,033
268,2	7,576
268,7	7,719
269,1	5,433
269,6	-1,11
270	-1,91
270,5	-4,624
271	-4,938
271,4	-6,652
271,9	-11,195
272,4	-5,652
272,8	-1,995
273,3	-5,395
273,7	-0,881
274,2	1,348
274,7	2,948
275,1	7,176
275,6	7,605
276,1	6,605
276,5	8,49
277	7,29
277,4	7,176
277,9	6,062
278,4	8,49
278,8	8,776
279,3	11,833
279,8	10,348
280,2	9,833
280,7	9,519
281,1	6,948
281,6	5,89
282,1	1,805
282,5	3,348
283	2,776
283,4	2,376
283,9	3,29
284,4	8,519
284,8	7,976
285,3	8,519
285,8	11,348
286,2	10,662
286,7	9,862
287,1	10,033
287,6	6,69
288,1	4,576
288,5	7,776
289	1,948
289,5	4,833
289,9	4,319
290,4	7,176
290,8	5,633
291,3	8,748
291,8	10,976
292,2	10,605
292,7	12,662
293,1	12,319
293,6	7,49
294,1	9,176
294,5	6,033
295	3,748
295,5	5,719
295,9	0,89
296,4	-2,795
296,8	-4,138
297,3	-2,538
297,8	-4,138
298,2	-6,195
298,7	-5,881
299,1	-3,138
299,6	2,119
300,1	6,148
300,5	5,662
301	9,948
301,5	14,89
301,9	10,519
302,4	6,69
302,8	3,405
303,3	2,548
303,8	-2,052
304,2	-2,567
304,7	-5,681
305,1	-8,538
305,6	-4,024
306,1	5,89
306,5	6,605
307	13,09
307,4	13,462
307,9	15,776
308,4	17,319
308,8	12,176
309,3	1,862
309,8	-1,51
310,2	-4,881
310,7	-4,567
311,1	-11,252
311,6	-7,824
312,1	-3,71
312,5	-1,052
313	0,462
313,4	2,633
313,9	4,833
314,4	9,948
314,8	10,262
315,3	6,119
315,7	7,205
316,2	6,548
316,7	5,005
317,1	6,205
317,6	4,119
318	10,119
318,5	11,519
319	12,062
319,4	16,376
319,9	21,519
320,3	21,405
320,8	20,376
321,3	18,833
321,7	24,49
322,2	23,119
322,6	16,919
323,1	12,233
323,6	7,919
324	9,348
324,5	3,033
324,9	-0,91
325,4	-3,595
325,9	0,033
326,3	-0,481
326,8	-0,624
327,2	-4,052
327,7	0,233
328,2	-2,567
328,6	2,89
329,1	-0,081
329,5	-1,052
330	-0,767
330,5	5,919
330,9	7,319
331,4	11,119
331,8	6,919
332,3	11,776
332,8	13,748
333,2	13,176
333,7	15,29
334,1	12,262
334,6	8,862
335,1	6,662
335,5	3,662
336	-1,024
336,4	0,09
336,9	1,948
337,4	5,776
337,8	4,862
338,3	9,433
338,7	12,49
339,2	14,69
339,7	15,405
340,1	8,805
340,6	5,89
341	5,29
341,5	5,49
342	2,033
342,4	0,148
342,9	-5,195
343,3	-0,71
343,8	-1,31
344,2	1,462
344,7	3,262
345,2	2,776
345,6	5,776
346,1	12,29
346,5	4,319
347	2,348
347,5	2,405
347,9	4,09
348,4	4,662
348,8	5,462
349,3	5,805
349,8	12,376
350,2	22,748
350,7	20,748
351,1	19,89
351,6	24,119
352	27,405
352,5	34,119
353	37,462
353,4	35,176
353,9	49,119
354,3	61,119
354,8	70,89
355,3	89,633
355,7	105,633
356,2	128,348
356,6	151,29
357,1	176,919
357,5	206,776
358	244,233
358,5	275,633
358,9	320,09
359,4	369,176
359,8	429,176
360,3	496,862
360,8	565,062
361,2	644,719
361,7	743,09
362,1	844,833
362,6	951,662
363	1063,062
363,5	1178,576
364	1308,49
364,4	1439,862
364,9	1570,205
365,3	1692,69
365,8	1814,605
366,3	1933,862
366,7	2047,462
367,2	2135,948
367,6	2207,49
368,1	2264,662
368,5	2303,033
369	2326,69
369,5	2329,833
369,9	2311,862
370,4	2279,919
370,8	2230,69
371,3	2165,49
371,7	2094,205
372,2	2003,49
372,7	1912,49
373,1	1808,948
373,6	1701,805
374	1601,262
374,5	1491,748
374,9	1385,662
375,4	1286,462
375,9	1182,748
376,3	1092,119
376,8	1010,576
377,2	929,833
377,7	855,633
378,2	783,119
378,6	720,519
379,1	661,519
379,5	608,49
380	559,176
380,4	506,119
380,9	464,062
381,4	426,605
381,8	392,805
382,3	365,233
382,7	335,948
383,2	310,29
383,6	294,948
384,1	276,576
384,6	261,548
385	243,719
385,5	225,776
385,9	207,176
386,4	189,348
386,8	176,519
387,3	160,89
387,7	145,119
388,2	133,148
388,7	120,519
389,1	113,719
389,6	109,805
390	99,519
390,5	96,662
390,9	95,005
391,4	94,348
391,9	90,833
392,3	89,262
392,8	82,662
393,2	76,176
393,7	70,748
394,1	62,348
394,6	57,605
395,1	56,548
395,5	49,005
396	49,405
396,4	51,919
396,9	50,69
397,3	52,148
397,8	52,205
398,2	50,633
398,7	50,376
399,2	50,062
399,6	49,319
400,1	48,49
400,5	45,033
401	43,262
401,4	39,176
401,9	40,348
402,4	39,776
402,8	34,433
403,3	37,919
403,7	39,405
404,2	37,633
404,6	42,033
405,1	37,833
405,5	35,176
406	35,633
406,5	33,205
406,9	33,233
407,4	30,862
407,8	29,005
408,3	35,433
408,7	36,69
409,2	43,976
409,6	49,49
410,1	55,033
410,6	62,062
411	68,976
411,5	73,405
411,9	80,319
412,4	82,005
412,8	87,976
413,3	94,69
413,7	101,519
414,2	106,662
414,7	112,576
415,1	125,119
415,6	132,176
416	137,319
416,5	143,262
416,9	149,948
417,4	157,919
417,8	171,29
418,3	176,005
418,8	186,919
419,2	191,89
419,7	201,005
420,1	211,69
420,6	217,548
421	219,148
421,5	227,09
421,9	238,005
422,4	251,433
422,8	258,376
423,3	267,776
423,8	283,348
424,2	294,89
424,7	306,662
425,1	317,662
425,6	334,09
426	347,948
426,5	363,062
426,9	378,376
427,4	389,605
427,9	397,548
428,3	415,89
428,8	427,262
429,2	442,148
429,7	457,376
430,1	478,69
430,6	506,49
431	535,862
431,5	556,948
431,9	576,662
432,4	606,176
432,8	632,462
433,3	657,09
433,8	682,576
434,2	712,119
434,7	745,719
435,1	784,005
435,6	817,576
436	855,805
436,5	892,89
436,9	929,805
437,4	969,29
437,8	1010,662
438,3	1055,748
438,8	1103,69
439,2	1148,662
439,7	1198,633
440,1	1248,462
440,6	1301,433
441	1350,433
441,5	1404,062
441,9	1459,519
442,4	1516,062
442,8	1574,776
443,3	1639,062
443,7	1702,376
444,2	1773,662
444,7	1842,005
445,1	1917,09
445,6	1995,662
446	2069,148
446,5	2140,805
446,9	2215,348
447,4	2291,405
447,8	2371,405
448,3	2452,348
448,7	2533,348
449,2	2621,148
449,6	2718,376
450,1	2807,176
450,6	2906,748
451	3003,69
451,5	3099,833
451,9	3202,49
452,4	3306,89
452,8	3402,09
453,3	3514,605
453,7	3613,262
454,2	3716,976
454,6	3823,205
455,1	3927,605
455,5	4033,605
456	4146,09
456,4	4253,233
456,9	4372,89
457,3	4495,262
457,8	4613,005
458,3	4734,576
458,7	4852,89
459,2	4976,49
459,6	5094,005
460,1	5207,033
460,5	5317,69
461	5448,633
461,4	5566,576
461,9	5696,29
462,3	5821,176
462,8	5953,719
463,2	6081,662
463,7	6212,376
464,1	6334,319
464,6	6468,433
465	6598,062
465,5	6724,348
466	6851,062
466,4	6974,348
466,9	7102,319
467,3	7222,062
467,8	7343,69
468,2	7459,376
468,7	7585,09
469,1	7705,376
469,6	7830,09
470	7960,205
470,5	8078,319
470,9	8193,233
471,4	8303,176
471,8	8406,548
472,3	8518,605
472,7	8625,833
473,2	8720,976
473,6	8827,062
474,1	8936,805
474,5	9051,462
475	9155,376
475,4	9258,262
475,9	9365,976
476,4	9466,862
476,8	9559,576
477,3	9640,376
477,7	9725,205
478,2	9818,176
478,6	9892,29
479,1	9952,29
479,5	10027,09
480	10102,948
480,4	10183,176
480,9	10235,862
481,3	10289,348
481,8	10347,49
482,2	10407,605
482,7	10454,119
483,1	10498,719
483,6	10537,748
484	10583,948
484,5	10618,69
484,9	10656,09
485,4	10694,89
485,8	10721,576
486,3	10751,462
486,7	10765,433
487,2	10783,205
487,6	10798,948
488,1	10812,948
488,5	10817,033
489	10822,005
489,4	10817,29
489,9	10822,462
490,4	10821,205
490,8	10812,148
491,3	10794,89
491,7	10783,89
492,2	10764,976
492,6	10735,376
493,1	10706,376
493,5	10671,833
494	10648,376
494,4	10616,49
494,9	10568,548
495,3	10533,948
495,8	10500,233
496,2	10458,748
496,7	10415,376
497,1	10369,776
497,6	10327,919
498	10301,976
498,5	10250,862
498,9	10203,262
499,4	10146,776
499,8	10108,233
500,3	10059,462
500,7	9998,433
501,2	9923,319
501,6	9861,176
502,1	9807,719
502,5	9757,405
503	9694,833
503,4	9622,519
503,9	9555,633
504,3	9496,919
504,8	9431,462
505,2	9352,405
505,7	9276,776
506,1	9199,29
506,6	9129,462
507	9051,548
507,5	8973,09
507,9	8897,205
508,4	8823,205
508,8	8744,719
509,3	8665,348
509,7	8601,633
510,2	8529,948
510,6	8458,262
511,1	8376,948
511,5	8300,119
512	8223,719
512,4	8142,29
512,9	8055,976
513,3	7977,748
513,8	7898,748
514,2	7823,919
514,7	7741,348
515,1	7657,69
515,6	7581,89
516	7495,433
516,5	7413,405
516,9	7320,748
517,4	7238,633
517,8	7160,862
518,3	7089,519
518,7	7005,976
519,2	6926,062
519,6	6861,833
520,1	6799,833
520,5	6725,148
521	6648,69
521,4	6570,776
521,9	6496,548
522,3	6430,005
522,8	6347,519
523,2	6266,69
523,7	6201,976
524,1	6128,976
524,6	6052,948
525	5986,89
525,5	5914,976
525,9	5846,319
526,4	5784,119
526,8	5710,376
527,3	5653,148
527,7	5598,033
528,2	5536,433
528,6	5469,805
529,1	5400,633
529,5	5337,262
530	5281,148
530,4	5215,519
530,9	5152,033
531,3	5087,376
531,8	5025,633
532,2	4976,148
532,6	4910,119
533,1	4850,719
533,5	4792,719
534	4729,776
534,4	4675,433
534,9	4624,519
535,3	4566,633
535,8	4518,319
536,2	4465,919
536,7	4416,376
537,1	4372,862
537,6	4328,805
538	4281,005
538,5	4237,548
538,9	4186,148
539,4	4139,176
539,8	4091,89
540,3	4050,062
540,7	4001,348
541,2	3953,205
541,6	3908,09
542,1	3870,519
542,5	3832,948
543	3791,69
543,4	3748,605
543,9	3715,176
544,3	3681,148
544,8	3643,976
545,2	3607,976
545,7	3572,319
546,1	3540,662
546,5	3508,748
547	3472,519
547,4	3437,033
547,9	3400,576
548,3	3367,948
548,8	3329,69
549,2	3293,633
549,7	3262,376
550,1	3231,148
550,6	3195,748
551	3168,148
551,5	3133,69
551,9	3098,862
552,4	3075,576
552,8	3037,833
553,3	2999,69
553,7	2970,862
554,2	2941,119
554,6	2919,519
555,1	2899,89
555,5	2867,348
555,9	2850,548
556,4	2827,376
556,8	2802,576
557,3	2777,519
557,7	2751,776
558,2	2725,49
558,6	2705,176
559,1	2672,548
559,5	2654,005
560	2634,605
560,4	2611,605
560,9	2589,605
561,3	2568,633
561,8	2545,805
562,2	2529,405
562,7	2506,69
563,1	2492,176
563,6	2473,005
564	2451,405
564,4	2429,062
564,9	2409,005
565,3	2385,89
565,8	2365,605
566,2	2340,119
566,7	2321,262
567,1	2303,29
567,6	2288,062
568	2265,805
568,5	2251,605
568,9	2234,205
569,4	2220,09
569,8	2204,976
570,3	2185,205
570,7	2165,348
571,1	2155,348
571,6	2142,69
572	2130,719
572,5	2115,148
572,9	2094,89
573,4	2081,748
573,8	2073,49
574,3	2052,005
574,7	2030,805
575,2	2010,29
575,6	1995,89
576,1	1985,033
576,5	1972,062
576,9	1952,462
577,4	1938,319
577,8	1922,176
578,3	1910,948
578,7	1891,605
579,2	1879,69
579,6	1858,719
580,1	1841,348
580,5	1836,005
581	1826,462
581,4	1813,605
581,9	1804,205
582,3	1788,148
582,7	1781,948
583,2	1772,005
583,6	1752,49
584,1	1746,433
584,5	1737,776
585	1724,69
585,4	1709,748
585,9	1699,976
586,3	1694,348
586,8	1685,09
587,2	1665,033
587,6	1655,719
588,1	1652,948
588,5	1645,148
589	1633,519
589,4	1618,376
589,9	1611,148
590,3	1600,919
590,8	1586,119
591,2	1573,776
591,7	1567,662
592,1	1557,205
592,5	1552,205
593	1541,262
593,4	1536,433
593,9	1521,633
594,3	1508,89
594,8	1496,919
595,2	1487,09
595,7	1479,348
596,1	1467,262
596,6	1460,148
597	1455,776
597,4	1449,348
597,9	1443,062
598,3	1438,433
598,8	1429,719
599,2	1424,462
599,7	1416,776
600,1	1407,833
600,6	1398,633
601	1391,633
601,4	1386,805
601,9	1378,748
602,3	1370,519
602,8	1361,376
603,2	1353,948
603,7	1343,176
604,1	1331,805
604,6	1313,49
605	1303,69
605,4	1299,005
605,9	1289,919
606,3	1281,033
606,8	1271,948
607,2	1259,919
607,7	1255,005
608,1	1246,09
608,6	1240,919
609	1236,919
609,4	1233,89
609,9	1230,662
610,3	1227,69
610,8	1224,519
611,2	1219,119
611,7	1205,405
612,1	1195,776
612,6	1190,433
613	1186,319
613,4	1180,862
613,9	1172,119
614,3	1161,633
614,8	1158,376
615,2	1150,948
615,7	1144,205
616,1	1133,319
616,6	1123,49
617	1115,719
617,4	1113,576
617,9	1109,233
618,3	1101,748
618,8	1095,976
619,2	1089,605
619,7	1089,776
620,1	1083,033
620,5	1079,519
621	1070,29
621,4	1070,69
621,9	1061,519
622,3	1059,005
622,8	1047,205
623,2	1041,89
623,6	1026,176
624,1	1020,49
624,5	1010,89
625	1007,49
625,4	998,862
625,9	991,462
626,3	988,49
626,8	987,119
627,2	982,005
627,6	969,633
628,1	962,433
628,5	958,919
629	953,833
629,4	942,062
629,9	935,005
630,3	924,49
630,7	922,09
631,2	914,348
631,6	905,262
632,1	903,919
632,5	900,519
633	900,433
633,4	899,09
633,8	894,805
634,3	879,862
634,7	876,062
635,2	866,948
635,6	860,433
636,1	850,119
636,5	843,805
636,9	833,719
637,4	835,519
637,8	823,062
638,3	813,205
638,7	807,548
639,2	799,348
639,6	794,719
640	789,805
640,5	786,49
640,9	782,348
641,4	781,005
641,8	778,805
642,2	777,605
642,7	773,948
643,1	778,376
643,6	773,519
644	770,148
644,5	770,405
644,9	760,205
645,3	755,919
645,8	748,176
646,2	743,605
646,7	739,576
647,1	733,576
647,6	722,69
648	726,719
648,4	717,805
648,9	711,319
649,3	698,462
649,8	697,262
650,2	696,89
650,6	692,948
651,1	680,148
651,5	681,605
652	678,462
652,4	675,319
652,9	668,205
653,3	665,805
653,7	662,805
654,2	664,519
654,6	653,862
655,1	650,119
655,5	651,776
655,9	645,548
656,4	639,176
656,8	638,805
657,3	632,205
657,7	635,033
658,2	629,29
658,6	622,462
659	620,862
659,5	617,148
659,9	609,919
660,4	610,119
660,8	600,262
661,2	599,805
661,7	597,062
662,1	592,519
662,6	590,69
663	589,033
663,4	580,176
663,9	579,69
664,3	571,548
664,8	559,29
665,2	554,376
665,6	548,548
666,1	543,119
666,5	541,519
667	533,919
667,4	531,748
667,9	531,205
668,3	527,976
668,7	520,576
669,2	516,976
669,6	509,662
670,1	507,519
670,5	499,319
670,9	497,576
671,4	490,433
671,8	495,919
672,3	494,405
672,7	495,233
673,1	491,605
673,6	493,233
674	495,919
674,5	495,005
674,9	479,376
675,3	471,89
675,8	469,29
676,2	465,719
676,7	464,033
677,1	451,633
677,5	449,633
678	453,148
678,4	456,233
678,9	451,319
679,3	449,29
679,7	448,548
680,2	445,319
680,6	435,976
681,1	432,69
681,5	426,062
681,9	424,205
682,4	420,662
682,8	413,576
683,3	418,976
683,7	423,033
684,1	421,89
684,6	416,69
685	410,776
685,5	408,833
685,9	404,148
686,3	392,148
686,8	387,319
687,2	382,148
687,7	382,49
688,1	379,605
688,5	377,262
689	378,519
689,4	379,576
689,9	379,033
690,3	375,29
690,7	370,662
691,2	370,062
691,6	371,49
692	369,405
692,5	364,748
692,9	363,376
693,4	362,576
693,8	361,49
694,2	358,405
694,7	351,69
695,1	346,262
695,6	345,719
696	341,776
696,4	338,576
696,9	328,776
697,3	325,776
697,8	324,805
698,2	323,319
698,6	323,919
699,1	319,919
699,5	319,005
699,9	321,805
700,4	314,69
700,8	309,919
701,3	308,033
701,7	300,233
702,1	297,719
702,6	294,033
703	293,662
703,5	297,005
703,9	295,69
704,3	292,262
704,8	295,205
705,2	295,433
705,6	296,805
706,1	291,376
706,5	290,576
707	289,119
707,4	287,69
707,8	282,748
708,3	282,748
708,7	278,919
709,2	277,348
709,6	272,49
710	274,29
710,5	273,919
710,9	273,233
711,3	266,49
711,8	264,633
712,2	269,948
712,7	266,805
713,1	263,576
713,5	262,262
714	261,948
714,4	256,576
714,8	253,233
715,3	245,005
715,7	243,405
716,2	237,09
716,6	234,833
717	227,862
717,5	228,233
717,9	232,405
718,3	232,776
718,8	234,862
719,2	232,748
719,7	229,833
720,1	230,148
720,5	234,233
721	228,605
721,4	227,633
721,8	228,976
722,3	223,348
722,7	224,633
723,2	219,862
723,6	210,69
724	203,376
724,5	199,548
724,9	193,89
725,3	197,576
725,8	192,062
726,2	194,862
726,7	198,205
727,1	202,976
727,5	202,405
728	199,49
728,4	199,89
728,8	200,662
729,3	194,805
729,7	191,69
730,1	188,005
730,6	188,119
731	184,633
731,5	180,833
731,9	178,862
732,3	180,348
732,8	181,662
733,2	180,919
733,6	176,919
734,1	176,919
734,5	174,89
734,9	176,376
735,4	176,548
735,8	170,948
736,3	172,09
736,7	172,433
737,1	173,09
737,6	172,805
738	168,148
738,4	167,005
738,9	166,833
739,3	166,176
739,7	168,862
740,2	166,976
740,6	170,662
741,1	171,319
741,5	164,576
741,9	168,433
742,4	169,176
742,8	163,862
743,2	165,348
743,7	160,605
744,1	157,862
744,5	162,176
745	158,805
745,4	152,976
745,8	150,376
746,3	150,719
746,7	149,662
747,2	153,062
747,6	154,462
748	156,662
748,5	156,633
748,9	154,548
749,3	149,376
749,8	149,548
750,2	147,09
750,6	144,319
751,1	140,462
751,5	138,462
751,9	142,748
752,4	146,748
752,8	143,776
753,3	142,29
753,7	144,548
754,1	137,405
754,6	133,805
755	128,205
755,4	122,776
755,9	123,69
756,3	121,376
756,7	117,033
757,2	121,548
757,6	125,662
758	126,976
758,5	124,976
758,9	121,69
759,3	122,805
759,8	123,69
760,2	121,119
760,6	117,348
761,1	117,09
761,5	116,433
761,9	117,605
762,4	116,919
762,8	116,262
763,3	116,633
763,7	113,748
764,1	112,405
764,6	113,69
765	113,948
765,4	110,776
765,9	109,062
766,3	109,062
766,7	111,49
767,2	110,29
767,6	112,005
768	112,576
768,5	110,319
768,9	108,89
769,3	111,49
769,8	112,719
770,2	113,89
770,6	113,605
771,1	114,29
771,5	117,233
771,9	120,862
772,4	118,462
772,8	118,89
773,2	118,776
773,7	113,519
774,1	112,405
774,5	105,748
775	100,89
775,4	102,719
775,8	94,09
776,3	93,033
776,7	94,405
777,1	91,29
777,6	95,319
778	99,462
778,4	94,805
778,9	103,29
779,3	101,49
779,7	101,69
780,2	100,605
780,6	96,662
781	92,348
781,5	87,376
781,9	85,948
782,3	82,776
782,8	83,576
783,2	83,262
783,6	88,862
784,1	85,69
784,5	91,062
784,9	85,376
785,4	87,033
785,8	86,462
786,2	85,405
786,7	82,176
787,1	84,576
787,5	82,605
788	86,776
788,4	87,89
788,8	85,69
789,3	87,719
789,7	88,148
790,1	84,605
790,6	83,633
791	77,005
791,4	75,119
791,9	74,033
792,3	70,519
792,7	70,976
793,2	71,29
793,6	73,805
794	78,119
794,5	78,49
794,9	78,148
795,3	79,976
795,8	79,976
796,2	83,576
796,6	82,519
797,1	80,205
797,5	77,119
797,9	76,205
798,4	76,062
798,8	71,348
799,2	67,519
799,7	68,576
800,1	69,748
800,5	71,633
801	76,748
801,4	72,033
801,8	72,548
802,2	72,233
802,7	67,833
803,1	66,405
803,5	67,348
804	60,148
804,4	64,719
804,8	66,548
805,3	67,405
805,7	68,748
806,1	64,662
806,6	67,348
807	67,319
807,4	67,119
807,9	62,09
808,3	61,633
808,7	59,348
809,2	65,576
809,6	64,69
810	66,005
810,4	60,919
810,9	62,948
811,3	62,719
811,7	64,576
812,2	66,033
812,6	63,348
813	67,148
813,5	70,29
813,9	69,405
814,3	66,519
814,8	65,148
815,2	60,319
815,6	56,919
816,1	55,148
816,5	53,262
816,9	52,376
817,3	53,633
817,8	59,319
818,2	61,319
818,6	58,49
819,1	55,605
819,5	54,548
819,9	57,69
820,4	56,49
820,8	47,433
821,2	40,719
821,7	45,405
822,1	48,719
822,5	56,519
822,9	52,176
823,4	52,09
823,8	55,376
824,2	58,948
824,7	54,433
825,1	45,376
825,5	34,319
826	33,405
826,4	34,519
826,8	30,662
827,3	29,405
827,7	31,89
828,1	38,633
828,5	42,69
829	41,633
829,4	38,633
829,8	37,719
830,3	40,605
830,7	38,805
831,1	34,919
831,6	36,605
832	40,719
832,4	42,176
832,8	47,29
833,3	42,548
833,7	38,633
834,1	40,462
834,6	38,548
835	38,205
835,4	39,348
835,8	33,433
836,3	35,576
836,7	40,405
837,1	37,805
837,6	37,748
838	38,233
838,4	36,519
838,9	37,462
839,3	35,576
839,7	36,976
840,1	31,69
840,6	27,119
841	27,748
841,4	28,462
841,9	31,462
842,3	29,262
842,7	28,119
843,1	33,405
843,6	36,776
844	35,148
844,4	39,062
844,9	41,576
845,3	46,319
845,7	44,719
846,2	44,262
846,6	40,833
847	37,633
847,4	35,033
847,9	31,29
848,3	27,319
848,7	30,805
849,2	32,09
849,6	32,262
850	36,348
850,4	35,062
850,9	35,89
851,3	39,119
851,7	36,605
852,2	34,119
852,6	37,462
853	35,205
853,4	34,948
853,9	35,605
854,3	33,748
854,7	34,29
855,2	37,89
855,6	37,319
856	36,833
856,4	34,062
856,9	28,405
857,3	31,29
857,7	32,09
858,2	34,462
858,6	32,033
859	32,376
859,4	33,519
859,9	34,862
860,3	31,062
860,7	29,833
861,1	26,348
861,6	26,433
862	27,976
862,4	25,548
862,9	27,862
863,3	28,119
863,7	23,519
864,1	21,205
864,6	20,09
865	17,605
865,4	19,748
865,9	18,148
866,3	15,576
866,7	16,433
867,1	17,49
867,6	19,862
868	18,748
868,4	15,833
868,8	15,576
869,3	19,119
869,7	23,862
870,1	19,776
870,6	15,833
871	-59,395
871,4	-54,538
871,8	-57,195
872,3	-56,481
872,7	-57,71
873,1	-57,138
873,5	-54,852
874	19,29
874,4	17,062
874,8	19,49
875,3	19,348
875,7	17,005
876,1	18,262
876,5	16,233
877	12,376
877,4	10,548
877,8	11,519
878,2	15,348
878,7	17,348
879,1	19,148
879,5	21,805
879,9	24,49
880,4	22,633
880,8	21,319
881,2	16,119
881,7	11,862
882,1	11,748
882,5	8,719
882,9	12,233
883,4	13,176
883,8	15,405
884,2	16,519
884,6	19,89
885,1	18,576
885,5	21,148
885,9	20,776
886,3	26,176
886,8	22,519
887,2	17,033
887,6	13,89
888	12,948
888,5	13,605
888,9	9,776
889,3	5,976
889,8	5,262
890,2	10,062
890,6	7,833
891	7,805
891,5	2,519
891,9	4,262
892,3	5,405
892,7	7,033
893,2	8,062
893,6	12,605
894	16,49
894,4	15,919
894,9	16,005
895,3	14,776
895,7	19,205
896,1	13,319
896,6	11,09
897	10,548
897,4	18,605
897,8	24,062
898,3	25,49
898,7	17,776
899,1	19,09
899,5	18,262
900	12,69
900,4	6,519
900,8	0,09
901,2	-5,91
901,7	-2,395
902,1	1,462
902,5	5,376
902,9	8,09
903,4	11,719
903,8	13,262
904,2	16,576
904,6	15,776
905,1	14,29
905,5	13,29
905,9	11,005
906,3	8,376
906,8	7,376
907,2	8,005
907,6	9,09
908	12,062
908,5	14,033
908,9	13,662
909,3	14,576
909,7	12,605
910,2	14,833
910,6	17,005
911	9,919
911,4	8,833
911,9	10,633
912,3	10,005
912,7	18,119
913,1	16,376
913,6	11,748
914	17,062
914,4	14,948
914,8	15,09
915,3	12,748
915,7	7,005
916,1	7,176
916,5	9,948
916,9	5,605
917,4	4,948
917,8	7,776
918,2	7,976
918,6	2,919
919,1	1,348
919,5	2,405
919,9	5,662
920,3	6,833
920,8	2,976
921,2	4,633
921,6	6,948
922	7,233
922,5	5,462
922,9	5,833
923,3	2,633
923,7	3,462
924,2	2,205
924,6	1,29
925	0,033
925,4	-2,31
925,8	-5,138
926,3	-1,824
926,7	-3,367
927,1	0,976
927,5	3,719
928	4,805
928,4	4,262
928,8	8,348
929,2	7,662
929,7	10,29
930,1	9,176
930,5	8,548
930,9	8,319
931,3	10,719
931,8	9,09
932,2	9,148
932,6	8,862
933	1,805
933,5	5,29
933,9	6,033
934,3	5,605
934,7	-0,081
935,2	2,033
935,6	1,148
936	5,862
936,4	4,69
936,8	6,205
937,3	4,719
937,7	9,919
938,1	11,833
938,5	7,462
939	6,176
939,4	5,805
939,8	6,176
940,2	10,062
940,6	12,662
941,1	7,719
941,5	16,148
941,9	17,805
942,3	14,633
942,8	14,719
943,2	13,205
943,6	8,319
944	7,29
944,4	3,09
944,9	-0,938
945,3	1,462
945,7	-3,91
946,1	-9,138
946,6	-10,281
947	-10,824
947,4	-5,738
947,8	-1,081
948,2	-2,91
948,7	1,205
949,1	5,148
949,5	7,776
949,9	14,433
950,3	12,548
950,8	13,69
951,2	12,748
951,6	11,576
952	15,119
952,5	16,233
952,9	11,633
953,3	7,976
953,7	5,005
954,1	11,005
954,6	14,148
955	13,262
955,4	11,005
955,8	10,576
956,2	13,433
956,7	16,319
957,1	9,09
957,5	7,69
957,9	6,89
958,3	7,262
958,8	10,976
959,2	10,519
959,6	11,919
960	16,233
960,5	17,748
960,9	18,119
961,3	13,919
961,7	12,462
962,1	9,89
962,6	5,833
963	3,519
963,4	-2,824
963,8	-5,31
964,2	0,548
964,7	-0,652
965,1	4,548
965,5	8,89
965,9	10,49
966,3	11,405
966,8	12,519
967,2	12,176
967,6	9,262
968	3,176
968,4	0,976
968,9	2,376
969,3	8,662
969,7	5,919
970,1	7,119
970,5	6,976
971	11,348
971,4	11,233
971,8	7,748
972,2	3,919
972,6	5,348
973,1	0,376
973,5	3,119
973,9	4,633
974,3	4,49
974,7	11,148
975,2	13,262
975,6	13,433
976	16,833
976,4	14,976
976,8	9,205
977,3	4,89
977,7	-1,681
978,1	-4,252
978,5	-6,852
978,9	-9,281
979,4	-7,967
979,8	-6,395
980,2	-1,31
980,6	-4,91
981	-1,938
981,5	2,148
981,9	2,748
982,3	2,719
982,7	7,262
983,1	2,548
983,6	6,89
984	6,976
984,4	6,405
984,8	8,433
985,2	6,919
985,6	-1,424
986,1	1,49
986,5	3,719
986,9	-3,452
987,3	1,319
987,7	2,633
988,2	1,576
988,6	8,176
989	8,719
989,4	4,662
989,8	8,89
990,3	2,462
990,7	1,062
991,1	1,948
991,5	-1,595
991,9	-0,51
992,3	2,205
992,8	1,662
993,2	3,348
993,6	4,519
994	7,633
994,4	7,262
994,9	4,005
995,3	3,405
995,7	4,576
996,1	3,405
996,5	2,919
996,9	-3,167
997,4	2,89
997,8	0,89
998,2	0,262
998,6	-6,338
999	-5,881
999,5	-12,138
999,9	-4,195
1000,3	-9,31
1000,7	-7,338
1001,1	-6,91
1001,5	-1,91
1002	2,262
1002,4	5,605
1002,8	0,805
1003,2	2,062
1003,6	2,548
1004	4,776
1004,5	4,033
1004,9	5,348
1005,3	2,176
1005,7	5,119
1006,1	1,433
1006,6	0,89
1007	2,862
1007,4	3,005
1007,8	-4,795
1008,2	-0,452
1008,6	1,148
1009,1	6,548
1009,5	7,833
1009,9	7,176
1010,3	7,69
1010,7	12,405
1011,1	11,033
1011,6	7,948
1012	10,948
1012,4	9,862
1012,8	3,576
1013,2	6,69
1013,6	4,748
1014,1	5,948
1014,5	5,748
1014,9	0,833
1015,3	-1,024
1015,7	3,119
1016,1	2,433
1016,6	2,205
1017	3,833
1017,4	1,576
1017,8	0,919
1018,2	6,005
1018,6	2,748
1019,1	2,89
1019,5	0,862
1019,9	-1,681
1020,3	0,49
1020,7	1,948
1021,1	0,519
1021,6	3,319
1022	5,005
1022,4	7,119
1022,8	10,948
1023,2	9,262
1023,6	4,148
1024,1	10,348
1024,5	9,433
1024,9	1,148
1025,3	2,148
1025,7	-1,538
1026,1	5,29
1026,6	11,09
1027	6,519
1027,4	4,919
1027,8	5,948
1028,2	3,09
1028,6	6,519
1029	2,805
1029,5	6,005
1029,9	3,062
1030,3	3,776
1030,7	6,519
1031,1	7,605
1031,5	0,862
1032	-0,338
1032,4	-4,967
1032,8	-1,795
1033,2	-0,595
1033,6	-2,11
1034	0,033
1034,4	3,348
1034,9	6,719
1035,3	4,233
1035,7	2,033
1036,1	2,119
1036,5	3,262
1036,9	3,49
1037,4	6,462
1037,8	-1,481
1038,2	-1,195
1038,6	-1,281
1039	1,776
1039,4	5,548
1039,8	2,376
1040,3	1,262
1040,7	3,062
1041,1	7,176
1041,5	7,09
1041,9	4,062
1042,3	7,262
1042,7	11,262
1043,2	11,405
1043,6	14,233
1044	10,233
1044,4	10,062
1044,8	10,062
1045,2	4,776
1045,6	2,29
1046,1	-1,167
1046,5	-1,624
1046,9	-0,91
1047,3	-4,51
1047,7	-3,51
1048,1	-6,595
1048,5	-6,338
1049	-0,967
1049,4	4,09
1049,8	7,29
1050,2	12,062
1050,6	16,376
1051	22,005
1051,4	21,433
1051,9	17,433
1052,3	20,548
1052,7	19,033
1053,1	18,405
1053,5	16,462
1053,9	12,662
1054,3	13,262
1054,8	18,462
1055,2	11,205
1055,6	14,805
1056	15,119
1056,4	9,776
1056,8	8,376
1057,2	7,69
1057,6	-0,31
1058,1	-2,681
1058,5	-8,252
1058,9	-7,481
1059,3	-1,995
1059,7	0,548
1060,1	3,233
1060,5	4,976
1061	8,576
1061,4	11,776
1061,8	13,776
1062,2	11,576
1062,6	14,919
1063	14,062
1063,4	14,519
1063,8	11,805
1064,3	7,69
1064,7	5,49
1065,1	2,548
1065,5	-3,281
1065,9	-4,624
1066,3	-5,395
1066,7	-10,367
1067,1	-10,624
1067,6	-9,195
1068	-11,852
1068,4	-7,938
1068,8	-7,11
1069,2	-3,795
1069,6	2,49
1070	4,062
1070,4	2,89
1070,9	4,719
1071,3	3,862
1071,7	-0,424
1072,1	-2,338
1072,5	-3,624
1072,9	-5,938
1073,3	-5,081
1073,7	-6,081
1074,2	-5,595
1074,6	-1,338
1075	-2,481
1075,4	-2,795
1075,8	1,062
1076,2	-3,31
1076,6	-0,195
1077	0,633
1077,5	4,719
1077,9	6,119
1078,3	6,719
1078,7	3,776
1079,1	3,776
1079,5	3,205
1079,9	0,176
1080,3	-4,538
1080,7	-6,595
1081,2	-5,281
1081,6	-2,481
1082	0,548
1082,4	7,148
1082,8	12,49
1083,2	14,148
1083,6	16,29
1084	14,576
1084,5	12,462
1084,9	7,205
1085,3	-0,938
1085,7	-2,338
1086,1	-4,767
1086,5	-4,167
1086,9	-1,252
1087,3	-0,91
1087,7	3,033
1088,2	3,29
1088,6	-0,967
1089	2,976
1089,4	2,548
1089,8	-0,224
1090,2	0,862
1090,6	3,09
1091	9,348
1091,4	15,376
1091,9	13,605
1092,3	17,09
1092,7	17,976
1093,1	18,433
1093,5	17,548
1093,9	12,576
1094,3	11,348
1094,7	10,405
1095,1	10,405
1095,5	10,262
1096	9,233
1096,4	6,119
1096,8	5,605
1097,2	2,605
1097,6	6,09
1098	5,719
1098,4	8,348
1098,8	11,719
1099,2	19,062
1099,6	21,376
1100,1	20,776
1100,5	14,719
1100,9	11,348
1101,3	8,005
1101,7	3,205
1102,1	0,176
1102,5	1,605
1102,9	2,49
1103,3	5,919
1103,7	6,548
1104,2	7,119
1104,6	8,948
1105	5,605
1105,4	4,062
1105,8	2,748
1106,2	0,548
1106,6	-0,167
1107	-0,195
1107,4	-0,7
1107,8	0,473
1108,3	-0,617
