Data from Subt2_161.txt Node
Date: Sat Aug 26 18:34:13 MSK 2023
User: vat
Spectrometer: MAYP114033
Trigger mode: 0
Integration Time (sec): 1,000000E0
Scans to average: 5
Electric dark correction enabled: true
Nonlinearity correction enabled: false
Boxcar width: 3
XAxis mode: Wavelengths
Number of Pixels in Spectrum: 2068
>>>>>Begin Spectral Data<<<<<
199,4	-0,3
199,9	-1,84
200,4	-3,167
200,8	-2,8
201,3	-3,457
201,8	-1,2
202,2	-5,114
202,7	-2,314
203,2	-0,343
203,6	0,829
204,1	-0,514
204,6	-1
205	-1,257
205,5	4,114
206	2,2
206,4	1
206,9	-1,4
207,4	0,286
207,8	0,6
208,3	-2,057
208,8	-5,914
209,2	-3,886
209,7	-1,029
210,2	3
210,6	2,171
211,1	2,771
211,5	1
212	4,571
212,5	0,486
212,9	-2,457
213,4	-1,257
213,9	-3,543
214,3	-4,286
214,8	2
215,3	-1,286
215,7	0,686
216,2	3,086
216,7	1,114
217,1	-1,571
217,6	0,657
218,1	-0,4
218,5	-2,971
219	-7,2
219,5	-11,714
219,9	-16,343
220,4	-3,771
220,9	-6,943
221,3	-8,8
221,8	-6,171
222,3	-3,314
222,7	-1,943
223,2	3
223,6	-6,171
224,1	-4,8
224,6	-4,886
225	-6,571
225,5	-6,743
226	-4,629
226,4	-6,057
226,9	-3,771
227,4	-4,971
227,8	-10,2
228,3	-6,457
228,8	-5,429
229,2	-2,971
229,7	-3,371
230,2	-4
230,6	2,829
231,1	10,914
231,5	10,257
232	11,6
232,5	6,229
232,9	10,914
233,4	13,686
233,9	9,829
234,3	8,086
234,8	7,829
235,3	9,143
235,7	16,429
236,2	13,057
236,7	9,514
237,1	9,229
237,6	2,886
238,1	5,971
238,5	-1,314
239	-4,571
239,4	-0,914
239,9	3,171
240,4	3,343
240,8	8,257
241,3	2,714
241,8	5,4
242,2	3,543
242,7	-2,229
243,2	-8,771
243,6	-11,114
244,1	-7,229
244,6	-4,829
245	-3,229
245,5	-2,657
245,9	-3,171
246,4	0,743
246,9	3,657
247,3	-0,429
247,8	-0,686
248,3	0,4
248,7	1
249,2	2,029
249,7	2,8
250,1	0,486
250,6	0,229
251	2,514
251,5	2,429
252	-0,857
252,4	1,486
252,9	-3,286
253,4	-4,4
253,8	-8,286
254,3	-6,429
254,8	-6,943
255,2	-6,886
255,7	-7
256,1	-4,8
256,6	-2,543
257,1	6,571
257,5	1,486
258	2,429
258,5	1,429
258,9	-2
259,4	-3,943
259,9	-0,771
260,3	-7,429
260,8	-8,486
261,2	-7,543
261,7	-2,686
262,2	-2,486
262,6	-0,343
263,1	-2,771
263,6	0,457
264	6,029
264,5	6,914
264,9	3,886
265,4	4,2
265,9	3,686
266,3	5,229
266,8	6,314
267,3	3,029
267,7	-1,857
268,2	-1,886
268,7	-0,286
269,1	0,2
269,6	-0,943
270	-4,2
270,5	-7,6
271	-3,686
271,4	-2,029
271,9	-7,429
272,4	-1,714
272,8	-3,571
273,3	-3,457
273,7	0,629
274,2	1,6
274,7	1,971
275,1	6,286
275,6	0,543
276,1	2,086
276,5	6,571
277	8,343
277,4	5,286
277,9	7,429
278,4	9,886
278,8	16,257
279,3	15,486
279,8	13,8
280,2	13,629
280,7	18,571
281,1	15,171
281,6	10,657
282,1	9,2
282,5	7,457
283	8,229
283,4	3,629
283,9	1,857
284,4	3,571
284,8	7,229
285,3	2,886
285,8	5,6
286,2	-2,143
286,7	-1,486
287,1	-6,629
287,6	-7,686
288,1	-9,771
288,5	-7,086
289	-8,829
289,5	-3,457
289,9	-1,514
290,4	3,514
290,8	0,314
291,3	2,029
291,8	1,543
292,2	-3,571
292,7	1,686
293,1	2,114
293,6	1,6
294,1	3,057
294,5	5,286
295	5,229
295,5	10,8
295,9	8,457
296,4	3,114
296,8	0,257
297,3	1,943
297,8	-3,686
298,2	-5,8
298,7	-2,457
299,1	-2,829
299,6	-0,029
300,1	0,657
300,5	2,343
301	3,029
301,5	9,143
301,9	5,629
302,4	1,171
302,8	2,886
303,3	4,886
303,8	-2,486
304,2	-1,714
304,7	-6,114
305,1	-7,257
305,6	-2,257
306,1	2,743
306,5	-0,657
307	9,286
307,4	14,286
307,9	14,029
308,4	13,429
308,8	8,943
309,3	3,543
309,8	3,257
310,2	1,514
310,7	-3,429
311,1	-2,257
311,6	-2,6
312,1	-1,457
312,5	0,343
313	0,514
313,4	0,229
313,9	3,086
314,4	1,143
314,8	-2,429
315,3	0,6
315,7	-4,943
316,2	-2,229
316,7	-1,943
317,1	3,2
317,6	5,143
318	12,143
318,5	8,829
319	12,6
319,4	11,914
319,9	13,257
320,3	8,714
320,8	8,4
321,3	7,371
321,7	10,143
322,2	10,714
322,6	9,086
323,1	6,6
323,6	4,8
324	3,571
324,5	2,314
324,9	-0,429
325,4	1,771
325,9	10,057
326,3	8,714
326,8	10,657
327,2	1,457
327,7	-1,543
328,2	-2,8
328,6	-3,629
329,1	-15,6
329,5	-15,943
330	-18,657
330,5	-9,114
330,9	-1,229
331,4	1,143
331,8	-0,286
332,3	5,286
332,8	7,914
333,2	11,114
333,7	13,771
334,1	12,314
334,6	9,571
335,1	4,371
335,5	4,314
336	1,171
336,4	1,286
336,9	1,629
337,4	3,286
337,8	4,257
338,3	6,886
338,7	7,314
339,2	8,914
339,7	8,629
340,1	5,286
340,6	1,086
341	-2,029
341,5	2,571
342	-0,257
342,4	-2,914
342,9	-3,8
343,3	-2,657
343,8	-1,543
344,2	1,114
344,7	3,6
345,2	4,857
345,6	6,914
346,1	9,286
346,5	6,571
347	1,8
347,5	1,314
347,9	3,371
348,4	4,286
348,8	3,829
349,3	7,429
349,8	11,114
350,2	22,371
350,7	22,343
351,1	15,829
351,6	17,543
352	23,971
352,5	19,629
353	26,571
353,4	26,6
353,9	38,286
354,3	48,314
354,8	55,629
355,3	68,6
355,7	83,486
356,2	95,171
356,6	110,171
357,1	129,171
357,5	152,686
358	180,543
358,5	202,514
358,9	231,771
359,4	269,543
359,8	315,629
360,3	363,343
360,8	409,486
361,2	468,171
361,7	534,8
362,1	612,286
362,6	690,771
363	768,371
363,5	854,914
364	955,2
364,4	1047,114
364,9	1143,629
365,3	1234,171
365,8	1322,086
366,3	1407,657
366,7	1480,2
367,2	1542,914
367,6	1598,2
368,1	1642,857
368,5	1672,086
369	1683,971
369,5	1689,229
369,9	1678,686
370,4	1652
370,8	1615,8
371,3	1563,029
371,7	1501,886
372,2	1438,514
372,7	1369,2
373,1	1291,943
373,6	1222,457
374	1145,914
374,5	1069,886
374,9	1001,914
375,4	933,829
375,9	864,114
376,3	800,343
376,8	730,457
377,2	674
377,7	616,629
378,2	560,571
378,6	510,6
379,1	462,086
379,5	422,914
380	389,886
380,4	356,143
380,9	327,2
381,4	299,857
381,8	277,429
382,3	260,371
382,7	240,971
383,2	223,686
383,6	203,371
384,1	190,429
384,6	182,286
385	169,086
385,5	152,971
385,9	144,029
386,4	132,2
386,8	128,971
387,3	119,714
387,7	109,857
388,2	104,943
388,7	97,571
389,1	90,8
389,6	87,171
390	80,714
390,5	74,857
390,9	74,229
391,4	67,2
391,9	64,057
392,3	60,743
392,8	51,971
393,2	42,571
393,7	39,057
394,1	30,143
394,6	27,286
395,1	29,914
395,5	26,857
396	30,086
396,4	33,143
396,9	32,629
397,3	33,771
397,8	34,571
398,2	29,343
398,7	28,943
399,2	26,4
399,6	27,114
400,1	26,714
400,5	22,486
401	20,914
401,4	17,8
401,9	16,886
402,4	19,657
402,8	13,086
403,3	17,114
403,7	14,4
404,2	13,743
404,6	18,571
405,1	17,086
405,5	15
406	15,771
406,5	11,343
406,9	17,514
407,4	20,429
407,8	21,629
408,3	29,429
408,7	30,429
409,2	38,171
409,6	47,543
410,1	48,514
410,6	52,057
411	51,514
411,5	49,114
411,9	51,229
412,4	52,2
412,8	53,486
413,3	57,886
413,7	55,886
414,2	56,829
414,7	62,429
415,1	72,4
415,6	78,657
416	78,429
416,5	76,6
416,9	78,857
417,4	82,943
417,8	88,086
418,3	86,829
418,8	88,857
419,2	92,857
419,7	98,971
420,1	105,171
420,6	107,2
421	103,8
421,5	106,8
421,9	108,143
422,4	110,229
422,8	114,886
423,3	115,143
423,8	120,571
424,2	124,743
424,7	124,4
425,1	127
425,6	135,714
426	136,429
426,5	141,6
426,9	149,029
427,4	150,343
427,9	153,971
428,3	162,171
428,8	158,057
429,2	160,4
429,7	163,686
430,1	162,571
430,6	170,943
431	178,143
431,5	183,057
431,9	188,114
432,4	200,657
432,8	211,257
433,3	222,057
433,8	227,286
434,2	240,771
434,7	246,857
435,1	258,629
435,6	267,543
436	277,686
436,5	290,771
436,9	305,314
437,4	316,657
437,8	333,629
438,3	350,457
438,8	365,8
439,2	380,571
439,7	392,771
440,1	412,086
440,6	426,343
441	440,371
441,5	456,914
441,9	470,029
442,4	483,743
442,8	503,829
443,3	522,657
443,7	545,4
444,2	569,543
444,7	593,886
445,1	627,714
445,6	655,086
446	681,229
446,5	704,114
446,9	724,857
447,4	748,943
447,8	775,429
448,3	800,114
448,7	829,543
449,2	861
449,6	896,686
450,1	932,257
450,6	970,657
451	1002,371
451,5	1032,229
451,9	1071,8
452,4	1110,6
452,8	1139,971
453,3	1180,857
453,7	1210,8
454,2	1252,457
454,6	1292,8
455,1	1328,171
455,5	1362,114
456	1408,143
456,4	1442,8
456,9	1485,343
457,3	1527,4
457,8	1567,771
458,3	1611,571
458,7	1654,4
459,2	1694,171
459,6	1734,686
460,1	1782,286
460,5	1819,886
461	1867,543
461,4	1908,457
461,9	1950,371
462,3	2002,314
462,8	2056,771
463,2	2100,429
463,7	2155,571
464,1	2206,143
464,6	2260,914
465	2312,686
465,5	2359,771
466	2406,886
466,4	2454,429
466,9	2506,457
467,3	2547,4
467,8	2589,143
468,2	2640,6
468,7	2680,371
469,1	2727,714
469,6	2773,457
470	2805,886
470,5	2851,571
470,9	2889,057
471,4	2931,143
471,8	2977,657
472,3	3019,8
472,7	3065,286
473,2	3114,429
473,6	3157,686
474,1	3211,143
474,5	3249,057
475	3290,4
475,4	3326,629
475,9	3370,686
476,4	3403,4
476,8	3442,429
477,3	3473,571
477,7	3512,229
478,2	3547,714
478,6	3578,2
479,1	3601,486
479,5	3633,943
480	3661,143
480,4	3692,057
480,9	3717,257
481,3	3736,8
481,8	3763,886
482,2	3782,086
482,7	3802,429
483,1	3824,457
483,6	3838,714
484	3855
484,5	3874,686
484,9	3885,943
485,4	3904,286
485,8	3911,943
486,3	3924,971
486,7	3938,686
487,2	3946,029
487,6	3952,229
488,1	3967,314
488,5	3973,171
489	3985,971
489,4	3988,286
489,9	3983,771
490,4	3986,257
490,8	3989,886
491,3	3992,4
491,7	3988,629
492,2	3984,429
492,6	3974,943
493,1	3967,286
493,5	3959,657
494	3945,543
494,4	3924,343
494,9	3910,743
495,3	3898,371
495,8	3893,171
496,2	3889,143
496,7	3870,143
497,1	3864,943
497,6	3856,8
498	3846,286
498,5	3833,686
498,9	3813,143
499,4	3793,657
499,8	3780,543
500,3	3757,343
500,7	3732,486
501,2	3711,229
501,6	3686,171
502,1	3661,943
502,5	3645,886
503	3626,486
503,4	3601,743
503,9	3578,257
504,3	3557,971
504,8	3535,8
505,2	3515,886
505,7	3484,657
506,1	3464,6
506,6	3435,114
507	3414,943
507,5	3388,971
507,9	3368,057
508,4	3336,029
508,8	3313,771
509,3	3278,686
509,7	3258,086
510,2	3226,114
510,6	3190,514
511,1	3154,686
511,5	3125,971
512	3092,2
512,4	3069,086
512,9	3039,371
513,3	3010,743
513,8	2987,286
514,2	2959,971
514,7	2932,971
515,1	2898,971
515,6	2860,143
516	2825,143
516,5	2797,057
516,9	2760,343
517,4	2727,943
517,8	2700,114
518,3	2674,514
518,7	2645,057
519,2	2616,2
519,6	2587,314
520,1	2565,229
520,5	2535,229
521	2502,257
521,4	2474,029
521,9	2450,257
522,3	2428,771
522,8	2396,714
523,2	2370,229
523,7	2344,457
524,1	2319,486
524,6	2293
525	2268,286
525,5	2238,829
525,9	2217,143
526,4	2183,229
526,8	2158,257
527,3	2131,286
527,7	2108,943
528,2	2082,229
528,6	2050,286
529,1	2026,486
529,5	2008,057
530	1984,943
530,4	1964,457
530,9	1939,543
531,3	1919,114
531,8	1903,286
532,2	1876,457
532,6	1848,314
533,1	1822,429
533,5	1797,086
534	1773,143
534,4	1750,4
534,9	1726,8
535,3	1706,114
535,8	1693,914
536,2	1682,943
536,7	1663,4
537,1	1644,886
537,6	1621,543
538	1604,657
538,5	1592,314
538,9	1568,286
539,4	1546,143
539,8	1532,371
540,3	1516,486
540,7	1498,771
541,2	1480,571
541,6	1463,286
542,1	1445,343
542,5	1426,429
543	1408,886
543,4	1390,2
543,9	1377,686
544,3	1365,371
544,8	1337,857
545,2	1327,657
545,7	1313,629
546,1	1296,943
546,5	1288,714
547	1274,143
547,4	1262,143
547,9	1254,543
548,3	1246,943
548,8	1236,743
549,2	1225,343
549,7	1211,714
550,1	1201,914
550,6	1185,857
551	1175,486
551,5	1157,371
551,9	1141,8
552,4	1130,8
552,8	1114,4
553,3	1098,314
553,7	1083,286
554,2	1073,257
554,6	1061,629
555,1	1060,114
555,5	1049,286
555,9	1043,857
556,4	1037,486
556,8	1029,971
557,3	1023,229
557,7	1015,686
558,2	998,8
558,6	993,657
559,1	980,229
559,5	972,514
560	964,829
560,4	955,029
560,9	945,971
561,3	937,943
561,8	923,857
562,2	919,943
562,7	906,857
563,1	903,914
563,6	891,114
564	884,286
564,4	874,943
564,9	870,486
565,3	860,286
565,8	852,4
566,2	843,457
566,7	832,6
567,1	828,371
567,6	823,086
568	813,829
568,5	808,714
568,9	801,057
569,4	793,429
569,8	790,571
570,3	780,143
570,7	771,314
571,1	764,571
571,6	762,114
572	763,829
572,5	758,257
572,9	755,429
573,4	747,057
573,8	748,714
574,3	743,343
574,7	732,543
575,2	722,943
575,6	714,086
576,1	708,771
576,5	707,771
576,9	694,743
577,4	688,857
577,8	682,286
578,3	678,029
578,7	671,829
579,2	666,714
579,6	656,457
580,1	652,086
580,5	646,4
581	647,657
581,4	640,514
581,9	636,457
582,3	628,743
582,7	634,771
583,2	628,4
583,6	629,257
584,1	623
584,5	621,8
585	619,343
585,4	615,171
585,9	600,6
586,3	599,571
586,8	593,114
587,2	584,743
587,6	579,2
588,1	578,8
588,5	576,971
589	580,114
589,4	575,829
589,9	569,886
590,3	567,714
590,8	562,543
591,2	554,857
591,7	556,286
592,1	550,314
592,5	549,114
593	547,6
593,4	540,143
593,9	539,143
594,3	533,886
594,8	523,457
595,2	518,6
595,7	514,886
596,1	506,971
596,6	509,486
597	506,429
597,4	507,914
597,9	507,6
598,3	507,829
598,8	505,257
599,2	506,8
599,7	502,114
600,1	498,257
600,6	490
601	484,086
601,4	486,714
601,9	489,286
602,3	485,029
602,8	481,857
603,2	475,514
603,7	473,829
604,1	472,457
604,6	459,771
605	445,543
605,4	449,771
605,9	443,2
606,3	440,029
606,8	436,314
607,2	432,457
607,7	430,2
608,1	431,143
608,6	427,657
609	437,257
609,4	439,486
609,9	436,8
610,3	436,429
610,8	434,086
611,2	431,6
611,7	422,886
612,1	416,771
612,6	411,686
613	413,629
613,4	409,686
613,9	410,343
614,3	409,571
614,8	409,171
615,2	400,286
615,7	400,514
616,1	395,343
616,6	390,657
617	381,829
617,4	381,457
617,9	378,286
618,3	379,486
618,8	383,343
619,2	382,371
619,7	386,314
620,1	389,286
620,5	389,229
621	387,114
621,4	381,914
621,9	373,257
622,3	373,029
622,8	364,257
623,2	360,8
623,6	358,486
624,1	356,171
624,5	356,629
625	357,914
625,4	354,857
625,9	357,314
626,3	356,714
626,8	347,629
627,2	348,029
627,6	338,943
628,1	332,971
628,5	334,629
629	330,657
629,4	326,371
629,9	328,371
630,3	321,8
630,7	328,571
631,2	327,543
631,6	323,8
632,1	324,914
632,5	321,829
633	320,943
633,4	322,714
633,8	319,286
634,3	315,771
634,7	313,229
635,2	305,714
635,6	306,143
636,1	304,086
636,5	297,857
636,9	291,543
637,4	289,914
637,8	286,686
638,3	286,257
638,7	284,743
639,2	279,029
639,6	279,543
640	277,343
640,5	278,143
640,9	274,6
641,4	276,857
641,8	276,2
642,2	275,4
642,7	276,371
643,1	277,143
643,6	273,429
644	270,543
644,5	267,171
644,9	264,543
645,3	263,371
645,8	258,914
646,2	261,571
646,7	259,371
647,1	259,2
647,6	255,486
648	254,686
648,4	250,4
648,9	252,486
649,3	243,971
649,8	244,629
650,2	240,571
650,6	241,6
651,1	236,343
651,5	241,514
652	238,886
652,4	239,429
652,9	232,171
653,3	235,6
653,7	232,743
654,2	234,829
654,6	226,486
655,1	229,429
655,5	234,771
655,9	235,257
656,4	232,371
656,8	236,057
657,3	233,514
657,7	238,457
658,2	227,829
658,6	220,629
659	221,457
659,5	216,4
659,9	210,457
660,4	208,943
660,8	203,857
661,2	207,171
661,7	205,857
662,1	203,457
662,6	205,6
663	207,286
663,4	203,229
663,9	202,857
664,3	199,371
664,8	196,2
665,2	190,171
665,6	188,057
666,1	185,914
666,5	188,914
667	188,029
667,4	185,857
667,9	186,143
668,3	190,543
668,7	187,743
669,2	185,171
669,6	183,657
670,1	178,8
670,5	177,543
670,9	177,686
671,4	178,686
671,8	182,314
672,3	182,257
672,7	180,514
673,1	179,829
673,6	179,229
674	178,571
674,5	171,229
674,9	167,6
675,3	164,457
675,8	165,086
676,2	163,086
676,7	161,314
677,1	161,257
677,5	163,057
678	165,514
678,4	166,514
678,9	164,114
679,3	164,2
679,7	165,771
680,2	158,686
680,6	159,914
681,1	156,914
681,5	154,886
681,9	156,857
682,4	158,771
682,8	158,2
683,3	165,829
683,7	163,6
684,1	160,571
684,6	160,714
685	156,314
685,5	156,571
685,9	150,457
686,3	141,886
686,8	138,857
687,2	135,829
687,7	131,743
688,1	128,486
688,5	123,171
689	123,714
689,4	128,143
689,9	127,343
690,3	126,914
690,7	129,2
691,2	134,6
691,6	134,914
692	136,029
692,5	132,4
692,9	135,2
693,4	135,657
693,8	131,6
694,2	126,486
694,7	126,114
695,1	123,829
695,6	123,457
696	122,743
696,4	120,371
696,9	121,086
697,3	116,629
697,8	113,114
698,2	113,657
698,6	112,371
699,1	109,829
699,5	114,086
699,9	111,543
700,4	110,629
700,8	112,286
701,3	113,629
701,7	112,343
702,1	112,714
702,6	111,086
703	113,857
703,5	118,8
703,9	115
704,3	115,4
704,8	116,743
705,2	113,714
705,6	112,743
706,1	109,371
706,5	103,571
707	106,086
707,4	106,657
707,8	102,771
708,3	106,029
708,7	102,2
709,2	101,257
709,6	100,086
710	101,914
710,5	96,914
710,9	98,8
711,3	95,857
711,8	98,657
712,2	99,8
712,7	100,371
713,1	99,629
713,5	101,514
714	98,6
714,4	95,743
714,8	93,829
715,3	89,6
715,7	93,314
716,2	88,229
716,6	86,943
717	85,486
717,5	84,4
717,9	86,429
718,3	87,229
718,8	82,571
719,2	83,314
719,7	82,029
720,1	86,114
720,5	93,686
721	88,371
721,4	88,971
721,8	93,4
722,3	92,686
722,7	94,543
723,2	88,086
723,6	77,371
724	76,429
724,5	72,114
724,9	68,657
725,3	67,057
725,8	62,514
726,2	63,029
726,7	66,229
727,1	68
727,5	73,457
728	67,914
728,4	70,886
728,8	69,029
729,3	70,486
729,7	66,543
730,1	67,657
730,6	67,571
731	68,886
731,5	66,514
731,9	67,257
732,3	63,057
732,8	67,143
733,2	67,714
733,6	63,286
734,1	64,857
734,5	65,257
734,9	65,943
735,4	70,371
735,8	65,114
736,3	67,514
736,7	68,457
737,1	69,914
737,6	69,114
738	69,229
738,4	66,6
738,9	70,4
739,3	63,371
739,7	59,314
740,2	57
740,6	57,486
741,1	57,6
741,5	52,229
741,9	52,371
742,4	55,229
742,8	59,886
743,2	60,457
743,7	56,257
744,1	50,571
744,5	52,314
745	48,943
745,4	46,743
745,8	46,171
746,3	46,457
746,7	48,171
747,2	50,8
747,6	57,229
748	59,2
748,5	61,4
748,9	60,343
749,3	57,857
749,8	61,457
750,2	64,229
750,6	60
751,1	62
751,5	57,6
751,9	60,971
752,4	63,914
752,8	61,457
753,3	58,257
753,7	62,229
754,1	58,971
754,6	56,057
755	49,6
755,4	47,514
755,9	46,8
756,3	45
756,7	40,571
757,2	40,257
757,6	44,886
758	44,114
758,5	42,4
758,9	42,257
759,3	45,029
759,8	44,114
760,2	42,8
760,6	44,743
761,1	44,229
761,5	42,714
761,9	41,086
762,4	38,829
762,8	40,029
763,3	41,543
763,7	37,829
764,1	41,143
764,6	44,943
765	47,171
765,4	49,143
765,9	49,486
766,3	49,543
766,7	47,057
767,2	44,629
767,6	43,771
768	39,257
768,5	36,629
768,9	33,943
769,3	32,171
769,8	33,429
770,2	34,343
770,6	33,457
771,1	37,743
771,5	39,8
771,9	44,571
772,4	47,514
772,8	47,943
773,2	50,457
773,7	49,886
774,1	47,571
774,5	41,657
775	38,486
775,4	36,686
775,8	31,771
776,3	28,286
776,7	28,629
777,1	28,029
777,6	34,143
778	38,486
778,4	38,943
778,9	46,257
779,3	43
779,7	42,057
780,2	42,457
780,6	40,829
781	34,8
781,5	28,086
781,9	27,2
782,3	29,829
782,8	33,543
783,2	32,2
783,6	36
784,1	34,914
784,5	37,457
784,9	33,286
785,4	39,686
785,8	36,971
786,2	34,943
786,7	31,943
787,1	32,314
787,5	35,429
788	34,571
788,4	31,057
788,8	26,857
789,3	28,429
789,7	26,457
790,1	26,2
790,6	27,514
791	28,543
791,4	29,343
791,9	26,857
792,3	25,057
792,7	29,114
793,2	26,171
793,6	24,314
794	24,4
794,5	19,371
794,9	27,743
795,3	34,914
795,8	29,371
796,2	32,029
796,6	29,486
797,1	30,857
797,5	30,286
797,9	22,286
798,4	18,743
798,8	20,343
799,2	22,057
799,7	25,629
800,1	26,686
800,5	29,943
801	38,229
801,4	35,029
801,8	30,543
802,2	30,371
802,7	27,8
803,1	24,257
803,5	25,029
804	18,086
804,4	20,229
804,8	26,6
805,3	29,229
805,7	30,229
806,1	29,743
806,6	28,886
807	31,857
807,4	30,114
807,9	24,371
808,3	22,371
808,7	22,171
809,2	23,057
809,6	24,057
810	23,857
810,4	23,429
810,9	27,171
811,3	27,857
811,7	28,343
812,2	33,771
812,6	31,457
813	33,629
813,5	37,4
813,9	34,029
814,3	32,743
814,8	30,457
815,2	24,114
815,6	24,057
816,1	22,886
816,5	22,171
816,9	22,714
817,3	24,6
817,8	26,6
818,2	30,314
818,6	26,943
819,1	28,543
819,5	27,029
819,9	30,057
820,4	28,714
820,8	30,029
821,2	24,6
821,7	31,543
822,1	32,486
822,5	34,543
822,9	34,771
823,4	32,057
823,8	34,057
824,2	38,457
824,7	30,6
825,1	24,143
825,5	19,6
826	14,829
826,4	18,171
826,8	12,857
827,3	12,429
827,7	12,629
828,1	17,086
828,5	17,8
829	12,171
829,4	7,371
829,8	7,714
830,3	6,914
830,7	7,743
831,1	8,429
831,6	8,571
832	20,514
832,4	19,371
832,8	20,057
833,3	17,457
833,7	17,4
834,1	13,657
834,6	14
835	11,686
835,4	14,829
835,8	12,714
836,3	13,543
836,7	14,514
837,1	11,086
837,6	12,314
838	7,857
838,4	6,857
838,9	6,2
839,3	7,886
839,7	11,371
840,1	11,771
840,6	10,629
841	13,229
841,4	16,343
841,9	16,714
842,3	17,114
842,7	15,543
843,1	16,857
843,6	18,229
844	16,343
844,4	16,343
844,9	21,171
845,3	18,886
845,7	14,514
846,2	13,8
846,6	9,143
847	10,514
847,4	7,657
847,9	5,486
848,3	8,171
848,7	13,429
849,2	12,686
849,6	12,914
850	20,429
850,4	20,971
850,9	22,086
851,3	21,143
851,7	20,486
852,2	20,029
852,6	23,629
853	18,029
853,4	17,371
853,9	14,429
854,3	13,629
854,7	11,143
855,2	13,457
855,6	11,029
856	6,686
856,4	3
856,9	-0,629
857,3	0,229
857,7	2,886
858,2	5,8
858,6	5,686
859	7,771
859,4	13,257
859,9	17,743
860,3	17,143
860,7	17
861,1	18,114
861,6	16,6
862	14,171
862,4	9,657
862,9	8,2
863,3	7,2
863,7	4,029
864,1	-0,371
864,6	0,086
865	2,514
865,4	6,429
865,9	9,743
866,3	2,686
866,7	2,171
867,1	0,914
867,6	2,371
868	2
868,4	-1,457
868,8	-4,114
869,3	2,571
869,7	8,6
870,1	4,886
870,6	-0,257
871	-16,371
871,4	-8,114
871,8	-10,971
872,3	-9,429
872,7	-16,4
873,1	-12,886
873,5	-6,257
874	8,057
874,4	7,743
874,8	6,6
875,3	6,057
875,7	8,886
876,1	13,514
876,5	10,257
877	13,229
877,4	3,943
877,8	7,971
878,2	12,514
878,7	15,286
879,1	14,343
879,5	17,771
879,9	18,571
880,4	22,571
880,8	20,514
881,2	12,657
881,7	9,286
882,1	10,457
882,5	8,343
882,9	3,343
883,4	2,171
883,8	3,771
884,2	6,4
884,6	0,257
885,1	-0,257
885,5	-0,314
885,9	2,114
886,3	5,086
886,8	5,029
887,2	4,914
887,6	10,714
888	7,571
888,5	7,229
888,9	4,943
889,3	-0,514
889,8	-2,543
890,2	-3,429
890,6	-5,2
891	-4,314
891,5	-3,114
891,9	-3,714
892,3	2,314
892,7	6,857
893,2	7,771
893,6	9,971
894	12,057
894,4	10,286
894,9	13,429
895,3	7,486
895,7	1,629
896,1	-1,029
896,6	2,314
897	1,514
897,4	7,743
897,8	12,429
898,3	15,771
898,7	17,457
899,1	21,886
899,5	16,943
900	9,857
900,4	4,229
900,8	-4,514
901,2	-9,314
901,7	-11,314
902,1	-11,343
902,5	-9,886
902,9	-8,229
903,4	-7,6
903,8	-4,143
904,2	-2,886
904,6	-0,257
905,1	-1,6
905,5	0,771
905,9	7,6
906,3	11,114
906,8	12
907,2	13,714
907,6	13,714
908	12,371
908,5	6,457
908,9	2,286
909,3	-3,514
909,7	-3,571
910,2	-6,543
910,6	-1,857
911	-3,543
911,4	-0,914
911,9	-3,629
912,3	-0,971
912,7	1,257
913,1	5,8
913,6	0,943
914	5,343
914,4	2,914
914,8	8,543
915,3	6,057
915,7	2,886
916,1	1,4
916,5	2,943
916,9	-2,714
917,4	-0,143
917,8	-0,971
918,2	-3,714
918,6	-4,286
919,1	-6,514
919,5	-3,914
919,9	-1,371
920,3	-1,6
920,8	-1,229
921,2	-1,057
921,6	0,343
922	5,457
922,5	2,143
922,9	5,143
923,3	2,571
923,7	-2,257
924,2	1,971
924,6	1,686
925	-0,029
925,4	-1,6
925,8	-6,829
926,3	-5,657
926,7	-3,314
927,1	-6,086
927,5	-5,257
928	-6,6
928,4	-8,914
928,8	-2,514
929,2	-3,4
929,7	-3,771
930,1	-3,257
930,5	-6,686
930,9	-4,229
931,3	-2,629
931,8	-4,229
932,2	-3,257
932,6	-2,429
933	-5,543
933,5	-2,514
933,9	-3,514
934,3	-0,943
934,7	-3,971
935,2	-2,371
935,6	-0,629
936	0,714
936,4	4,086
936,8	7,657
937,3	3,143
937,7	8,771
938,1	10,2
938,5	2,343
939	5,771
939,4	5,629
939,8	-0,886
940,2	4,143
940,6	0,686
941,1	-2,314
941,5	7,886
941,9	4,429
942,3	2,657
942,8	5,886
943,2	3,429
943,6	-0,943
944	0,486
944,4	-3,543
944,9	-2,629
945,3	-2,314
945,7	-1,2
946,1	-1,114
946,6	0,229
947	-1,629
947,4	2,114
947,8	4,971
948,2	0,543
948,7	-0,314
949,1	-0,829
949,5	6,229
949,9	9,629
950,3	8,457
950,8	8,686
951,2	10,857
951,6	8,771
952	9,914
952,5	4,829
952,9	2,829
953,3	1,029
953,7	-0,914
954,1	1
954,6	1,886
955	5,029
955,4	-1,257
955,8	-0,029
956,2	-1,314
956,7	0,8
957,1	-4,057
957,5	-1,029
957,9	-2,657
958,3	1,686
958,8	1,886
959,2	6,429
959,6	6,771
960	8,714
960,5	8,286
960,9	11,257
961,3	8,457
961,7	6,229
962,1	3,971
962,6	2,657
963	2,629
963,4	-3,514
963,8	-4,657
964,2	-0,229
964,7	2,971
965,1	8,029
965,5	8,457
965,9	7,914
966,3	11,371
966,8	11,514
967,2	11,2
967,6	11,2
968	2,086
968,4	2,886
968,9	3,571
969,3	8,714
969,7	3,343
970,1	6,143
970,5	-0,543
971	5,829
971,4	4,657
971,8	6,114
972,2	0,114
972,6	0,571
973,1	-2,029
973,5	6,2
973,9	7
974,3	7,257
974,7	9,629
975,2	12,571
975,6	12,829
976	15,114
976,4	9,971
976,8	8,429
977,3	6,229
977,7	1,143
978,1	-2,914
978,5	-4,514
978,9	-8,857
979,4	-7,8
979,8	-11,8
980,2	-8,114
980,6	-8,914
981	-4,571
981,5	-3,543
981,9	-3,943
982,3	-4,629
982,7	-1,686
983,1	-7,286
983,6	-1,314
984	-5,086
984,4	-3,543
984,8	-0,914
985,2	-0,514
985,6	-5,857
986,1	-1,543
986,5	-3,914
986,9	-5,514
987,3	-2,943
987,7	-3,514
988,2	-3,829
988,6	0,486
989	-3,086
989,4	-1,886
989,8	-0,829
990,3	-1,8
990,7	-4,086
991,1	0,171
991,5	2,229
991,9	8,457
992,3	8
992,8	9,457
993,2	5
993,6	9,429
994	10,171
994,4	4,057
994,9	3,257
995,3	-0,371
995,7	-1
996,1	0,057
996,5	0,543
996,9	-6,714
997,4	-3,486
997,8	-9,143
998,2	-7,857
998,6	-12,314
999	-10,257
999,5	-9,371
999,9	-7,943
1000,3	-7,514
1000,7	-2,943
1001,1	-4,457
1001,5	2,486
1002	1,8
1002,4	-1,257
1002,8	-1,257
1003,2	-2,629
1003,6	-2,086
1004	4,143
1004,5	-1,8
1004,9	1,771
1005,3	-2,743
1005,7	-0,171
1006,1	-1,686
1006,6	-3,971
1007	-6,143
1007,4	-3,2
1007,8	-8,057
1008,2	-3,514
1008,6	0,4
1009,1	3,629
1009,5	1,829
1009,9	2,257
1010,3	3,029
1010,7	3,543
1011,1	-1,029
1011,6	-2,657
1012	-4,771
1012,4	-3,286
1012,8	-7,514
1013,2	-3,2
1013,6	-1,371
1014,1	4,171
1014,5	1,257
1014,9	3,314
1015,3	0,257
1015,7	7,686
1016,1	2,143
1016,6	-0,2
1017	2,4
1017,4	1,914
1017,8	-1
1018,2	3,143
1018,6	-7,971
1019,1	-8,514
1019,5	-7,514
1019,9	-13,743
1020,3	-13,457
1020,7	-11,829
1021,1	-14,371
1021,6	-8,686
1022	-3,543
1022,4	-2,429
1022,8	1,857
1023,2	3,057
1023,6	4,029
1024,1	12,114
1024,5	13,057
1024,9	6,029
1025,3	5
1025,7	5,886
1026,1	6,714
1026,6	10,486
1027	6,743
1027,4	6,086
1027,8	10,2
1028,2	10,486
1028,6	12,743
1029	9,857
1029,5	8,514
1029,9	8,543
1030,3	4,686
1030,7	6,543
1031,1	8,343
1031,5	0,686
1032	2,914
1032,4	1,029
1032,8	2,2
1033,2	7,229
1033,6	5,114
1034	5,457
1034,4	6,4
1034,9	8,714
1035,3	2,6
1035,7	0,086
1036,1	-2,2
1036,5	-4
1036,9	-4,286
1037,4	2,171
1037,8	-0,486
1038,2	6,114
1038,6	8,629
1039	13,543
1039,4	15,629
1039,8	12,2
1040,3	12,371
1040,7	13,371
1041,1	13,714
1041,5	14,086
1041,9	7,514
1042,3	8,086
1042,7	13,114
1043,2	8,886
1043,6	2,714
1044	-1,057
1044,4	-5,486
1044,8	-0,943
1045,2	-0,286
1045,6	0,743
1046,1	-2,086
1046,5	-1,343
1046,9	-1,886
1047,3	-1,114
1047,7	-0,971
1048,1	-3,229
1048,5	-5,457
1049	-1,029
1049,4	5,486
1049,8	6,8
1050,2	8,229
1050,6	8,4
1051	12,086
1051,4	14,143
1051,9	6,886
1052,3	7,829
1052,7	7,2
1053,1	2,971
1053,5	3,086
1053,9	1,771
1054,3	-0,486
1054,8	5,971
1055,2	6,286
1055,6	8,571
1056	11,371
1056,4	8,743
1056,8	9,429
1057,2	4,943
1057,6	2,714
1058,1	-0,886
1058,5	-2,886
1058,9	-1,257
1059,3	0,629
1059,7	-1,686
1060,1	0,086
1060,5	2,457
1061	5,514
1061,4	4,6
1061,8	5,943
1062,2	3,486
1062,6	8,457
1063	8,571
1063,4	5,229
1063,8	1,286
1064,3	1,371
1064,7	-0,4
1065,1	0,171
1065,5	-8,629
1065,9	-8,914
1066,3	-11,543
1066,7	-11,029
1067,1	-12,857
1067,6	-8,229
1068	-13,686
1068,4	-9,286
1068,8	-4,629
1069,2	-4,029
1069,6	-5,8
1070	-0,143
1070,4	-3,571
1070,9	-1,943
1071,3	-0,971
1071,7	-2,486
1072,1	1,086
1072,5	-0,629
1072,9	-0,829
1073,3	-0,314
1073,7	1,714
1074,2	-0,286
1074,6	-3,114
1075	-4,314
1075,4	-0,857
1075,8	-2,657
1076,2	-1,686
1076,6	0,143
1077	-0,057
1077,5	3,429
1077,9	3,8
1078,3	2
1078,7	1,8
1079,1	-1,486
1079,5	-2,114
1079,9	-1,657
1080,3	-3,714
1080,7	-0,714
1081,2	5,029
1081,6	3,914
1082	2,171
1082,4	7,257
1082,8	6,371
1083,2	7,714
1083,6	6,8
1084	1,543
1084,5	3,057
1084,9	4,257
1085,3	-3,257
1085,7	-0,657
1086,1	-3,429
1086,5	-5,057
1086,9	-2,029
1087,3	0,314
1087,7	-1,743
1088,2	1,829
1088,6	-2,486
1089	0,429
1089,4	-1,657
1089,8	-0,6
1090,2	-2,829
1090,6	-0,2
1091	1,429
1091,4	7,429
1091,9	6,429
1092,3	8,514
1092,7	7,857
1093,1	9,543
1093,5	12,343
1093,9	6,457
1094,3	6,686
1094,7	5,143
1095,1	5,057
1095,5	4,314
1096	3,371
1096,4	2,2
1096,8	5,057
1097,2	4,229
1097,6	7,543
1098	8,486
1098,4	9,086
1098,8	6,914
1099,2	8,543
1099,6	11,257
1100,1	7,429
1100,5	3,771
1100,9	6,286
1101,3	4,829
1101,7	7,029
1102,1	5,343
1102,5	4,486
1102,9	10,371
1103,3	14,257
1103,7	12,286
1104,2	10,771
1104,6	9,429
1105	7,743
1105,4	7,8
1105,8	3,229
1106,2	0,4
1106,6	-0,343
1107	0,571
1107,4	1,2
1107,8	1,32
1108,3	-0,45
