Data from Subt2_328.txt Node
Date: Sat Aug 26 19:19:33 MSK 2023
User: vat
Spectrometer: MAYP114033
Trigger mode: 0
Integration Time (sec): 1,000000E0
Scans to average: 5
Electric dark correction enabled: true
Nonlinearity correction enabled: false
Boxcar width: 3
XAxis mode: Wavelengths
Number of Pixels in Spectrum: 2068
>>>>>Begin Spectral Data<<<<<
199,4	-0,167
199,9	3,993
200,4	6,367
200,8	10,29
201,3	9,462
201,8	11,49
202,2	6,605
202,7	10,405
203,2	7,833
203,6	6,69
204,1	1,233
204,6	1,176
205	0,776
205,5	6,605
206	1,776
206,4	2,233
206,9	6,033
207,4	10,719
207,8	12,976
208,3	13,005
208,8	12,748
209,2	15,462
209,7	16,633
210,2	13,376
210,6	8,176
211,1	9,319
211,5	9,148
212	9,433
212,5	8,662
212,9	6,49
213,4	9,719
213,9	15,033
214,3	14,719
214,8	13,633
215,3	13,662
215,7	16,976
216,2	19,405
216,7	16,148
217,1	8,29
217,6	9,205
218,1	7,148
218,5	8,262
219	0,205
219,5	1,062
219,9	-3,51
220,4	6,605
220,9	4,833
221,3	8,776
221,8	5,862
222,3	11,69
222,7	13,49
223,2	14,776
223,6	8,119
224,1	5,919
224,6	8,405
225	7,948
225,5	7,433
226	1,805
226,4	5,433
226,9	6,005
227,4	11,49
227,8	2,948
228,3	5,433
228,8	2,976
229,2	10,405
229,7	8,633
230,2	11,49
230,6	11,376
231,1	20,69
231,5	20,633
232	23,69
232,5	18,405
232,9	23,319
233,4	21,805
233,9	13,919
234,3	13,405
234,8	12,605
235,3	13,519
235,7	15,805
236,2	15,605
236,7	13,176
237,1	18,462
237,6	12,519
238,1	14,233
238,5	9,005
239	6,805
239,4	4,348
239,9	5,633
240,4	5,205
240,8	11,833
241,3	9,948
241,8	14,29
242,2	14,89
242,7	13,205
243,2	15,205
243,6	12,119
244,1	10,233
244,6	13,49
245	11,548
245,5	12,233
245,9	11,662
246,4	9,719
246,9	13,348
247,3	7,719
247,8	6,605
248,3	8,462
248,7	8,776
249,2	12,033
249,7	12,09
250,1	13,433
250,6	15,976
251	17,719
251,5	18,205
252	18,548
252,4	20,062
252,9	17,805
253,4	12,576
253,8	10,633
254,3	9,005
254,8	7,605
255,2	3,948
255,7	-0,852
256,1	2,919
256,6	6,005
257,1	13,605
257,5	7,748
258	6,148
258,5	6,519
258,9	8,776
259,4	6,462
259,9	5,519
260,3	-4,052
260,8	-2,881
261,2	-1,281
261,7	2,262
262,2	-1,367
262,6	-0,995
263,1	4,319
263,6	10,576
264	18,262
264,5	20,833
264,9	17,148
265,4	24,233
265,9	25,576
266,3	23,719
266,8	23,433
267,3	17,005
267,7	15,605
268,2	19,205
268,7	16,49
269,1	15,919
269,6	14,319
270	19,233
270,5	21,948
271	19,233
271,4	19,09
271,9	12,376
272,4	16,805
272,8	15,719
273,3	12,49
273,7	13,376
274,2	17,348
274,7	14,49
275,1	19,233
275,6	17,462
276,1	16,033
276,5	17,062
277	13,833
277,4	12,262
277,9	17,033
278,4	16,205
278,8	15,262
279,3	18,719
279,8	14,919
280,2	18,719
280,7	19,69
281,1	16,49
281,6	15,919
282,1	15,976
282,5	14,319
283	15,833
283,4	11,319
283,9	11,348
284,4	12,662
284,8	16,719
285,3	10,776
285,8	10,405
286,2	8,405
286,7	12,948
287,1	7,833
287,6	7,005
288,1	-0,224
288,5	7,433
289	8,862
289,5	8,176
289,9	3,262
290,4	10,462
290,8	9,176
291,3	13,69
291,8	13,462
292,2	13,748
292,7	19,776
293,1	18,29
293,6	17,519
294,1	21,09
294,5	21,433
295	19,49
295,5	16,833
295,9	13,376
296,4	14,033
296,8	13,262
297,3	12,205
297,8	4,862
298,2	3,69
298,7	5,89
299,1	5,405
299,6	4,29
300,1	3,833
300,5	0,633
301	9,719
301,5	15,833
301,9	16,262
302,4	16,005
302,8	17,748
303,3	17,433
303,8	15,519
304,2	14,262
304,7	8,233
305,1	4,633
305,6	5,833
306,1	15,776
306,5	15,319
307	18,605
307,4	20,062
307,9	20,319
308,4	24,09
308,8	16,49
309,3	9,805
309,8	9,09
310,2	9,69
310,7	6,833
311,1	7,89
311,6	9,262
312,1	19,09
312,5	21,348
313	19,433
313,4	21,119
313,9	21,433
314,4	17,29
314,8	9,976
315,3	8,176
315,7	-0,567
316,2	0,69
316,7	-3,51
317,1	-3,595
317,6	-2,652
318	7,405
318,5	0,033
319	4,29
319,4	7,033
319,9	12,548
320,3	14,748
320,8	16,433
321,3	14,862
321,7	20,919
322,2	19,176
322,6	20,348
323,1	16,519
323,6	14,462
324	13,748
324,5	9,148
324,9	11,376
325,4	11,748
325,9	12,062
326,3	12,433
326,8	14,062
327,2	10,748
327,7	7,805
328,2	7,833
328,6	13,805
329,1	9,833
329,5	8,89
330	6,319
330,5	12,29
330,9	18,69
331,4	18,005
331,8	12,719
332,3	15,833
332,8	20,49
333,2	20,719
333,7	20,519
334,1	17,09
334,6	14,005
335,1	11,005
335,5	10,805
336	0,948
336,4	0,148
336,9	6,348
337,4	7,405
337,8	5,262
338,3	10,719
338,7	12,09
339,2	16,805
339,7	19,405
340,1	12,462
340,6	12,09
341	13,205
341,5	16,005
342	9,948
342,4	11,89
342,9	11,148
343,3	7,919
343,8	5,09
344,2	6,29
344,7	8,605
345,2	10,062
345,6	10,348
346,1	12,205
346,5	15,462
347	18,69
347,5	14,662
347,9	14,348
348,4	16,805
348,8	17,662
349,3	18,09
349,8	20,033
350,2	22,262
350,7	26,176
351,1	22,833
351,6	26,348
352	28,89
352,5	38,633
353	45,519
353,4	50,262
353,9	64,005
354,3	77,062
354,8	90,462
355,3	109,319
355,7	121,948
356,2	139,319
356,6	163,919
357,1	189,69
357,5	223,776
358	258,005
358,5	295,262
358,9	343,719
359,4	397,69
359,8	458,29
360,3	531,519
360,8	598,919
361,2	682,548
361,7	772,976
362,1	871,519
362,6	981,462
363	1099,462
363,5	1220,09
364	1359,776
364,4	1490,29
364,9	1628,433
365,3	1764,576
365,8	1887,433
366,3	2000,919
366,7	2104,862
367,2	2190,833
367,6	2262,433
368,1	2319,49
368,5	2349,433
369	2375,662
369,5	2383,376
369,9	2360,176
370,4	2323,805
370,8	2278,233
371,3	2208,29
371,7	2134,433
372,2	2039,319
372,7	1942,862
373,1	1844,09
373,6	1739,633
374	1632,376
374,5	1530,49
374,9	1425,519
375,4	1327,633
375,9	1224,205
376,3	1131,719
376,8	1040,576
377,2	961,29
377,7	879,09
378,2	803,948
378,6	735,662
379,1	677,633
379,5	624,49
380	581,976
380,4	533,49
380,9	491,348
381,4	454,919
381,8	426,29
382,3	396,348
382,7	366,062
383,2	336,09
383,6	310,719
384,1	291,633
384,6	274,548
385	251,09
385,5	234,69
385,9	220,433
386,4	208,976
386,8	202,833
387,3	191,148
387,7	181,233
388,2	171,833
388,7	161,548
389,1	151,433
389,6	141,376
390	127,69
390,5	123,033
390,9	119,176
391,4	112,89
391,9	105,748
392,3	103,519
392,8	93,605
393,2	91,09
393,7	84,548
394,1	74,833
394,6	69,833
395,1	71,29
395,5	64,833
396	65,348
396,4	64,376
396,9	60,633
397,3	62,348
397,8	67,519
398,2	58,633
398,7	59,062
399,2	58,69
399,6	55,462
400,1	58,348
400,5	53,519
401	51,519
401,4	52,633
401,9	51,09
402,4	52,805
402,8	46,205
403,3	48,005
403,7	45,433
404,2	42,519
404,6	48,062
405,1	49,376
405,5	46,919
406	50,405
406,5	42,89
406,9	47,776
407,4	45,719
407,8	41,633
408,3	39,062
408,7	39,09
409,2	43,033
409,6	49,69
410,1	52,805
410,6	56,462
411	55,376
411,5	58,405
411,9	58,605
412,4	60,633
412,8	57,462
413,3	54,376
413,7	55,005
414,2	59,319
414,7	64,519
415,1	73,376
415,6	72,319
416	76,605
416,5	77,176
416,9	76,176
417,4	76,176
417,8	82,833
418,3	82,948
418,8	88,49
419,2	88,605
419,7	90,548
420,1	97,176
420,6	100,748
421	92,005
421,5	89,662
421,9	89,405
422,4	94,348
422,8	94,205
423,3	91,405
423,8	88,09
424,2	85,576
424,7	83,833
425,1	81,633
425,6	76,348
426	76,062
426,5	76,005
426,9	77,119
427,4	75,262
427,9	72,548
428,3	72,719
428,8	72,605
429,2	73,205
429,7	70,976
430,1	66,833
430,6	67,233
431	66,548
431,5	66,748
431,9	56,776
432,4	56,348
432,8	55,205
433,3	57,576
433,8	57,89
434,2	63,805
434,7	64,319
435,1	73,548
435,6	73,948
436	75,262
436,5	77,89
436,9	77,09
437,4	70,89
437,8	67,976
438,3	71,062
438,8	67,89
439,2	67,033
439,7	69,833
440,1	73,205
440,6	81,519
441	80,548
441,5	77,433
441,9	81,148
442,4	79,69
442,8	77,862
443,3	82,005
443,7	78,89
444,2	85,29
444,7	88,376
445,1	91,005
445,6	97,69
446	97,29
446,5	91,748
446,9	88,405
447,4	86,662
447,8	87,948
448,3	92,005
448,7	93,833
449,2	102,29
449,6	113,062
450,1	117,519
450,6	128,005
451	136,033
451,5	141,405
451,9	148,548
452,4	152,605
452,8	152,605
453,3	164,919
453,7	162,662
454,2	167,205
454,6	169,662
455,1	172,405
455,5	172,29
456	184,633
456,4	184,233
456,9	191,919
457,3	194,605
457,8	196,976
458,3	206,462
458,7	215,176
459,2	217,462
459,6	223,176
460,1	232,205
460,5	236,433
461	250,69
461,4	252,148
461,9	257,776
462,3	266,49
462,8	278,862
463,2	282,605
463,7	293,462
464,1	299,376
464,6	313,948
465	327,776
465,5	332,69
466	342,033
466,4	352,405
466,9	360,633
467,3	366,833
467,8	369,519
468,2	374,576
468,7	386,776
469,1	397,062
469,6	405,976
470	416,576
470,5	430,605
470,9	438,662
471,4	445,09
471,8	451,176
472,3	458,09
472,7	467,062
473,2	470,062
473,6	471,919
474,1	486,205
474,5	499,776
475	515,49
475,4	524,29
475,9	533,548
476,4	547,833
476,8	561,062
477,3	567,89
477,7	578,033
478,2	585,69
478,6	589,233
479,1	598,548
479,5	606,176
480	614,033
480,4	618,319
480,9	619,69
481,3	618,519
481,8	630,09
482,2	630,776
482,7	638,176
483,1	642,605
483,6	646,348
484	652,576
484,5	666,348
484,9	673,719
485,4	688,348
485,8	694,748
486,3	702,805
486,7	710,776
487,2	721,719
487,6	723,405
488,1	723,89
488,5	720,833
489	728,576
489,4	735,348
489,9	740,405
490,4	743,005
490,8	750,348
491,3	758,605
491,7	765,976
492,2	765,776
492,6	765,919
493,1	772,433
493,5	770,948
494	769,89
494,4	769,548
494,9	770,833
495,3	772,176
495,8	775,862
496,2	778,462
496,7	779,376
497,1	787,062
497,6	789,862
498	794,433
498,5	799,89
498,9	800,576
499,4	800,548
499,8	810,405
500,3	809,862
500,7	811,205
501,2	807,605
501,6	801,69
502,1	803,462
502,5	805,176
503	802,976
503,4	800,919
503,9	798,262
504,3	803,748
504,8	808,148
505,2	809,405
505,7	810,005
506,1	810,119
506,6	809,005
507	813,69
507,5	811,148
507,9	807,976
508,4	804,405
508,8	801,548
509,3	798,319
509,7	799,948
510,2	802,976
510,6	799,605
511,1	803,348
511,5	808,462
512	808,376
512,4	812,576
512,9	813,748
513,3	812,69
513,8	815,376
514,2	813,776
514,7	812,262
515,1	818,005
515,6	815,776
516	811,576
516,5	813,662
516,9	818,69
517,4	821,633
517,8	820,719
518,3	817,862
518,7	819,633
519,2	825,462
519,6	825,005
520,1	823,033
520,5	822,548
521	825,205
521,4	827,948
521,9	825,062
522,3	820,948
522,8	820,262
523,2	819,319
523,7	822,89
524,1	821,148
524,6	820,29
525	823,605
525,5	828,719
525,9	829,89
526,4	829,833
526,8	829,805
527,3	830,833
527,7	838,176
528,2	840,748
528,6	840,376
529,1	842,148
529,5	847,805
530	849,29
530,4	851,176
530,9	852,833
531,3	853,862
531,8	856,633
532,2	858,576
532,6	858,719
533,1	859,576
533,5	866,433
534	861,376
534,4	863,376
534,9	868,776
535,3	864,805
535,8	868,205
536,2	874,462
536,7	874,89
537,1	878,49
537,6	881,319
538	880,176
538,5	888,776
538,9	889,462
539,4	890,662
539,8	889,033
540,3	896,605
540,7	897,776
541,2	899,148
541,6	899,09
542,1	902,348
542,5	901,062
543	905,148
543,4	900,948
543,9	904,548
544,3	909,833
544,8	910,29
545,2	911,262
545,7	918,205
546,1	922,548
546,5	930,805
547	932,976
547,4	933,748
547,9	938,033
548,3	942,719
548,8	940,519
549,2	938,119
549,7	937,519
550,1	940,976
550,6	942,319
551	949,433
551,5	951,862
551,9	952,348
552,4	958,348
552,8	958,376
553,3	958,633
553,7	958,719
554,2	957,576
554,6	957,948
555,1	965,033
555,5	964,49
555,9	971,176
556,4	973,519
556,8	978,919
557,3	976,548
557,7	980,605
558,2	980,69
558,6	984,833
559,1	984,033
559,5	983,833
560	984,862
560,4	994,205
560,9	995,376
561,3	998,833
561,8	1002,119
562,2	1003,919
562,7	1006,29
563,1	1012,405
563,6	1007,548
564	1011,376
564,4	1013,09
564,9	1014,033
565,3	1014,348
565,8	1019,69
566,2	1015,862
566,7	1016,862
567,1	1017,433
567,6	1015,49
568	1015,319
568,5	1016,976
568,9	1015,319
569,4	1017,09
569,8	1024,519
570,3	1022,376
570,7	1023,376
571,1	1023,176
571,6	1028,319
572	1032,433
572,5	1034,205
572,9	1028,233
573,4	1029,519
573,8	1033,433
574,3	1032,033
574,7	1025,062
575,2	1022,29
575,6	1022,89
576,1	1027,662
576,5	1028,605
576,9	1023,119
577,4	1024,348
577,8	1025,948
578,3	1023,319
578,7	1019,062
579,2	1018,205
579,6	1014,319
580,1	1013,719
580,5	1015,833
581	1020,662
581,4	1020,405
581,9	1026,29
582,3	1023,348
582,7	1023,29
583,2	1022,633
583,6	1020,09
584,1	1013,976
584,5	1017,205
585	1009,262
585,4	1001,862
585,9	1003,405
586,3	1006,605
586,8	1002,719
587,2	998,233
587,6	998,805
588,1	1007,119
588,5	1011,49
589	1012,233
589,4	1006,833
589,9	1007,233
590,3	1006,348
590,8	1000,976
591,2	991,89
591,7	993,233
592,1	991,462
592,5	994,176
593	989,348
593,4	990,119
593,9	982,09
594,3	982,805
594,8	979,148
595,2	974,09
595,7	975,148
596,1	975,319
596,6	970,919
597	976,976
597,4	974,176
597,9	973,833
598,3	974,033
598,8	966,033
599,2	966,776
599,7	973,148
600,1	966,776
600,6	965,033
601	965,262
601,4	968,976
601,9	971,948
602,3	968,862
602,8	963,062
603,2	965,919
603,7	963,262
604,1	958,033
604,6	950,205
605	941,405
605,4	939,833
605,9	935,633
606,3	927,205
606,8	920,405
607,2	915,233
607,7	905,862
608,1	906,862
608,6	908,119
609	911,262
609,4	914,176
609,9	917,005
610,3	916,062
610,8	919,776
611,2	917,69
611,7	914,205
612,1	906,948
612,6	906,09
613	906,462
613,4	902,348
613,9	899,062
614,3	894,605
614,8	893,29
615,2	884,576
615,7	879,748
616,1	874,548
616,6	870,033
617	864,205
617,4	864,176
617,9	860,748
618,3	866,033
618,8	867,519
619,2	860,233
619,7	863,176
620,1	860,09
620,5	857,49
621	851,119
621,4	845,176
621,9	840,69
622,3	838,548
622,8	831,976
623,2	829,29
623,6	828,262
624,1	823,776
624,5	817,519
625	811,833
625,4	807,348
625,9	804,976
626,3	804,205
626,8	795,462
627,2	794,519
627,6	788,976
628,1	782,748
628,5	782,148
629	775,776
629,4	770,433
629,9	767,976
630,3	760,662
630,7	762,233
631,2	766,805
631,6	764,776
632,1	765,09
632,5	762,833
633	761,005
633,4	760,29
633,8	758,348
634,3	745,548
634,7	739,605
635,2	732,748
635,6	730,833
636,1	725,29
636,5	718,833
636,9	709,976
637,4	706,862
637,8	703,605
638,3	698,376
638,7	689,633
639,2	684,348
639,6	689,005
640	686,976
640,5	683,519
640,9	682,062
641,4	680,005
641,8	676,748
642,2	674,919
642,7	667,49
643,1	669,319
643,6	664,776
644	658,862
644,5	660,148
644,9	662,062
645,3	661,348
645,8	651,719
646,2	645,49
646,7	646,976
647,1	641,433
647,6	636,833
648	631,605
648,4	622,919
648,9	625,433
649,3	621,462
649,8	618,748
650,2	618,033
650,6	611,405
651,1	607,09
651,5	606,748
652	599,605
652,4	598,576
652,9	593,405
653,3	590,976
653,7	589,748
654,2	584,89
654,6	579,519
655,1	583,233
655,5	584,748
655,9	580,433
656,4	576,719
656,8	575,948
657,3	576,862
657,7	578,319
658,2	572,662
658,6	562,433
659	562,605
659,5	557,662
659,9	551,49
660,4	550,29
660,8	539,548
661,2	534,433
661,7	533,433
662,1	529,805
662,6	531,205
663	530,233
663,4	526,262
663,9	531,405
664,3	529,519
664,8	521,919
665,2	514,662
665,6	508,548
666,1	505,69
666,5	504,49
667	498,205
667,4	492,633
667,9	496,833
668,3	494,89
668,7	492,948
669,2	493,262
669,6	491,176
670,1	489,805
670,5	488,89
670,9	483,205
671,4	481,119
671,8	481,376
672,3	478,348
672,7	473,205
673,1	468,062
673,6	464,776
674	463,89
674,5	462,69
674,9	453,119
675,3	444,176
675,8	442,176
676,2	441,148
676,7	436,033
677,1	433,519
677,5	426,805
678	429,548
678,4	433,919
678,9	431,862
679,3	430,919
679,7	431,319
680,2	423,062
680,6	423,262
681,1	422,805
681,5	420,719
681,9	414,948
682,4	412,662
682,8	413,405
683,3	417,319
683,7	414,69
684,1	410,576
684,6	402,862
685	401,548
685,5	395,519
685,9	387,433
686,3	379,376
686,8	377,69
687,2	374,89
687,7	373,719
688,1	370,005
688,5	372,776
689	376,49
689,4	377,519
689,9	377,69
690,3	374,69
690,7	372,348
691,2	373,148
691,6	365,919
692	359,662
692,5	360,062
692,9	355,776
693,4	353,605
693,8	354,062
694,2	349,948
694,7	350,633
695,1	347,976
695,6	344,605
696	343,119
696,4	340,776
696,9	331,433
697,3	325,662
697,8	322,662
698,2	318,319
698,6	317,062
699,1	312,319
699,5	313,062
699,9	312,748
700,4	310,49
700,8	309,748
701,3	313,176
701,7	306,719
702,1	305,805
702,6	300,49
703	304,262
703,5	304,319
703,9	298,205
704,3	297,405
704,8	296,548
705,2	296,633
705,6	295,29
706,1	292,09
706,5	288,09
707	290,176
707,4	287,462
707,8	283,319
708,3	284,548
708,7	286,976
709,2	282,89
709,6	286,29
710	287,033
710,5	277,405
710,9	277,09
711,3	276,69
711,8	269,319
712,2	270,09
712,7	264,605
713,1	264,919
713,5	273,376
714	274,433
714,4	267,233
714,8	267,805
715,3	265,376
715,7	265,205
716,2	254,319
716,6	249,176
717	244,776
717,5	243,405
717,9	243,662
718,3	241,148
718,8	242,748
719,2	245,69
719,7	241,29
720,1	240,662
720,5	243,576
721	241,405
721,4	240,976
721,8	242,748
722,3	237,919
722,7	243,233
723,2	242,176
723,6	232,29
724	228,433
724,5	225,748
724,9	217,748
725,3	216,176
725,8	211,862
726,2	209,576
726,7	211,919
727,1	210,176
727,5	206,576
728	206,033
728,4	208,462
728,8	203,805
729,3	201,833
729,7	201,662
730,1	202,49
730,6	204,09
731	201,262
731,5	199,462
731,9	201,405
732,3	204,919
732,8	208,033
733,2	207,319
733,6	207,89
734,1	210,462
734,5	211,29
734,9	212,548
735,4	210,833
735,8	202,119
736,3	200,862
736,7	195,919
737,1	195,948
737,6	192,405
738	188,69
738,4	186,262
738,9	186,519
739,3	186,719
739,7	190,148
740,2	187,862
740,6	192,805
741,1	194,462
741,5	187,605
741,9	188,719
742,4	187,833
742,8	182,833
743,2	182,262
743,7	173,262
744,1	165,719
744,5	168,005
745	168,148
745,4	163,576
745,8	164,148
746,3	164,748
746,7	164,862
747,2	167,89
747,6	171,033
748	170,862
748,5	175,89
748,9	175,176
749,3	169,633
749,8	170,005
750,2	167,948
750,6	167,033
751,1	167,805
751,5	164,405
751,9	162,633
752,4	164,205
752,8	168,319
753,3	168,062
753,7	169,176
754,1	158,976
754,6	153,862
755	151,948
755,4	150,148
755,9	145,09
756,3	144,748
756,7	143,376
757,2	149,462
757,6	151,462
758	150,348
758,5	149,69
758,9	147,548
759,3	144,605
759,8	141,433
760,2	138,948
760,6	137,805
761,1	138,462
761,5	137,376
761,9	135,09
762,4	132,862
762,8	130,005
763,3	129,748
763,7	129,548
764,1	130,719
764,6	132,376
765	136,805
765,4	136,948
765,9	139,119
766,3	139,776
766,7	137,519
767,2	135,49
767,6	136,69
768	134,862
768,5	136,605
768,9	135,176
769,3	132,976
769,8	130,833
770,2	134,633
770,6	128,548
771,1	127,976
771,5	126,69
771,9	128,548
772,4	129,176
772,8	129,519
773,2	127,376
773,7	126,262
774,1	124,833
774,5	122,119
775	116,748
775,4	117,262
775,8	114,062
776,3	112,748
776,7	111,348
777,1	108,148
777,6	110,919
778	117,376
778,4	115,919
778,9	119,319
779,3	118,262
779,7	119,805
780,2	124,633
780,6	123,148
781	113,262
781,5	106,062
781,9	106,09
782,3	102,262
782,8	104,662
783,2	100,148
783,6	99,433
784,1	101,462
784,5	104,062
784,9	101,519
785,4	101,833
785,8	103,233
786,2	105,29
786,7	109,062
787,1	108,376
787,5	110,29
788	110,519
788,4	111,748
788,8	104,205
789,3	100,833
789,7	97,405
790,1	98,176
790,6	98,69
791	95,348
791,4	95,976
791,9	98,062
792,3	90,833
792,7	89,805
793,2	85,376
793,6	84,405
794	85,49
794,5	84,919
794,9	88,748
795,3	96,548
795,8	90,862
796,2	92,462
796,6	93,748
797,1	92,262
797,5	86,49
797,9	82,833
798,4	78,319
798,8	82,748
799,2	83,833
799,7	84,748
800,1	82,062
800,5	84,176
801	81,862
801,4	83,519
801,8	82,69
802,2	83,205
802,7	76,348
803,1	78,776
803,5	80,09
804	80,348
804,4	80,033
804,8	81,005
805,3	81,005
805,7	80,776
806,1	80,233
806,6	79,976
807	80,376
807,4	78,776
807,9	73,405
808,3	71,776
808,7	75,805
809,2	79,69
809,6	79,605
810	81,605
810,4	82,89
810,9	85,262
811,3	87,433
811,7	84,805
812,2	83,09
812,6	79,662
813	82,205
813,5	82,462
813,9	82,348
814,3	79,319
814,8	78,548
815,2	76,662
815,6	79,262
816,1	76,348
816,5	75,148
816,9	76,433
817,3	72,69
817,8	74,148
818,2	76,719
818,6	73,462
819,1	70,062
819,5	69,405
819,9	68,548
820,4	70,233
820,8	66,519
821,2	59,89
821,7	61,49
822,1	65,976
822,5	67,462
822,9	67,233
823,4	65,405
823,8	68,005
824,2	72,719
824,7	66,833
825,1	58,462
825,5	52,976
826	46,919
826,4	50,633
826,8	46,49
827,3	43,976
827,7	43,548
828,1	45,062
828,5	45,748
829	44,433
829,4	44,519
829,8	44,462
830,3	42,976
830,7	46,548
831,1	48,519
831,6	50,605
832	56,348
832,4	49,69
832,8	53,462
833,3	54,433
833,7	54,919
834,1	52,262
834,6	50,548
835	52,462
835,4	57,29
835,8	51,262
836,3	48,262
836,7	48,376
837,1	49,89
837,6	52,633
838	47,719
838,4	45,262
838,9	47,119
839,3	50,605
839,7	49,662
840,1	44,233
840,6	41,633
841	44,348
841,4	45,719
841,9	48,062
842,3	44,148
842,7	42,319
843,1	47,233
843,6	49,062
844	46,49
844,4	52,89
844,9	52,29
845,3	55,433
845,7	54,633
846,2	53,633
846,6	48,262
847	49,633
847,4	48,319
847,9	48,69
848,3	47,719
848,7	48,348
849,2	45,062
849,6	45,176
850	50,862
850,4	43,062
850,9	45,319
851,3	45,662
851,7	50,176
852,2	54,69
852,6	60,919
853	53,319
853,4	54,49
853,9	48,29
854,3	46,605
854,7	40,976
855,2	36,69
855,6	31,205
856	29,405
856,4	26,348
856,9	24,005
857,3	26,29
857,7	26,719
858,2	33,548
858,6	35,662
859	35,462
859,4	38,176
859,9	41,776
860,3	38,319
860,7	38,462
861,1	32,805
861,6	32,719
862	33,948
862,4	29,262
862,9	30,405
863,3	30,376
863,7	30,405
864,1	29,233
864,6	27,262
865	26,576
865,4	30,348
865,9	29,776
866,3	26,919
866,7	24,405
867,1	22,433
867,6	24,29
868	24,976
868,4	20,233
868,8	21,719
869,3	22,548
869,7	28,548
870,1	29,805
870,6	26,062
871	-22,367
871,4	-12,624
871,8	-15,624
872,3	-10,938
872,7	-12,738
873,1	-13,195
873,5	-7,738
874	39,833
874,4	35,376
874,8	33,49
875,3	31,576
875,7	26,119
876,1	30,433
876,5	25,89
877	25,148
877,4	24,148
877,8	25,776
878,2	27,719
878,7	33,776
879,1	32,519
879,5	37,176
879,9	37,776
880,4	37,376
880,8	36,319
881,2	34,748
881,7	33,919
882,1	35,062
882,5	28,033
882,9	25,719
883,4	25,69
883,8	29,376
884,2	27,319
884,6	25,005
885,1	23,976
885,5	26,633
885,9	27,833
886,3	30,719
886,8	22,948
887,2	23,49
887,6	22,405
888	21,576
888,5	23,119
888,9	23,919
889,3	17,748
889,8	19,033
890,2	13,833
890,6	12,176
891	11,69
891,5	8,576
891,9	5,576
892,3	12,348
892,7	15,205
893,2	22,005
893,6	22,805
894	23,119
894,4	24,605
894,9	24,748
895,3	21,433
895,7	25,833
896,1	25,433
896,6	26,519
897	24,548
897,4	29,548
897,8	37,29
898,3	36,662
898,7	29,976
899,1	29,462
899,5	28,89
900	25,69
900,4	19,633
900,8	11,776
901,2	11,119
901,7	11,176
902,1	15,033
902,5	18,033
902,9	24,09
903,4	26,29
903,8	30,605
904,2	29,719
904,6	32,69
905,1	31,405
905,5	31,576
905,9	32,033
906,3	31,205
906,8	30,89
907,2	33,348
907,6	31,833
908	32,033
908,5	26,233
908,9	19,49
909,3	18,29
909,7	18,719
910,2	15,805
910,6	21,519
911	15,605
911,4	20,262
911,9	23,662
912,3	23,548
912,7	24,319
913,1	25,119
913,6	20,09
914	24,319
914,4	22,09
914,8	20,29
915,3	18,748
915,7	18,348
916,1	16,776
916,5	16,776
916,9	15,262
917,4	16,719
917,8	19,462
918,2	19,176
918,6	12,433
919,1	14,662
919,5	14,89
919,9	10,862
920,3	6,805
920,8	4,633
921,2	4,205
921,6	6,833
922	9,005
922,5	8,005
922,9	13,862
923,3	13,89
923,7	14,062
924,2	15,205
924,6	18,119
925	19,062
925,4	20,462
925,8	15,205
926,3	21,262
926,7	23,148
927,1	23,89
927,5	23,09
928	19,005
928,4	19,519
928,8	23,976
929,2	18,005
929,7	18,49
930,1	19,49
930,5	15,119
930,9	18,09
931,3	16,976
931,8	15,548
932,2	15,748
932,6	14,433
933	10,805
933,5	17,062
933,9	15,376
934,3	14,862
934,7	14,148
935,2	13,49
935,6	13,462
936	16,862
936,4	16,433
936,8	16,29
937,3	15,29
937,7	18,148
938,1	24,748
938,5	20,862
939	20,919
939,4	17,833
939,8	18,376
940,2	20,09
940,6	20,719
941,1	18,348
941,5	25,376
941,9	18,919
942,3	21,49
942,8	19,319
943,2	21,462
943,6	20,348
944	20,033
944,4	16,862
944,9	20,633
945,3	18,948
945,7	17,119
946,1	12,748
946,6	8,862
947	9,233
947,4	9,805
947,8	11,033
948,2	8,09
948,7	16,262
949,1	15,548
949,5	21,862
949,9	22,062
950,3	20,29
950,8	19,805
951,2	22,49
951,6	15,319
952	21,319
952,5	15,405
952,9	15,776
953,3	14,376
953,7	12,976
954,1	16,319
954,6	16,633
955	16,262
955,4	16,29
955,8	16,033
956,2	19,49
956,7	21,976
957,1	18,433
957,5	23,605
957,9	22,005
958,3	21,205
958,8	18,805
959,2	16,69
959,6	18,49
960	19,062
960,5	12,948
960,9	10,633
961,3	10,119
961,7	10,005
962,1	10,69
962,6	11,719
963	6,433
963,4	5,776
963,8	8,605
964,2	9,948
964,7	11,262
965,1	14,233
965,5	9,633
965,9	15,862
966,3	20,805
966,8	17,348
967,2	19,148
967,6	16,833
968	11,348
968,4	17,09
968,9	14,29
969,3	16,462
969,7	16,576
970,1	16,148
970,5	14,348
971	20,176
971,4	19,062
971,8	20,348
972,2	18,033
972,6	16,833
973,1	14,662
973,5	16,605
973,9	18,205
974,3	15,033
974,7	15,319
975,2	15,176
975,6	15,119
976	16,433
976,4	18,976
976,8	13,262
977,3	13,49
977,7	13,748
978,1	14,09
978,5	14,605
978,9	12,062
979,4	9,576
979,8	10,262
980,2	8,662
980,6	4,005
981	3,976
981,5	1,976
981,9	2,49
982,3	4,862
982,7	5,405
983,1	5,233
983,6	10,605
984	12,862
984,4	16,69
984,8	17,833
985,2	18,633
985,6	12,776
986,1	13,09
986,5	14,119
986,9	8,605
987,3	7,776
987,7	8,605
988,2	5,176
988,6	12,405
989	15,519
989,4	12,205
989,8	12,862
990,3	11,433
990,7	11,262
991,1	13,69
991,5	13,805
991,9	13,548
992,3	17,29
992,8	19,576
993,2	21,033
993,6	20,405
994	21,062
994,4	23,119
994,9	21,29
995,3	15,833
995,7	14,919
996,1	11,348
996,5	9,662
996,9	5,262
997,4	2,433
997,8	-1,224
998,2	1,69
998,6	-7,652
999	-3,195
999,5	0,319
999,9	1,119
1000,3	-5,224
1000,7	-2,424
1001,1	-4,538
1001,5	9,062
1002	11,376
1002,4	11,748
1002,8	11,948
1003,2	19,062
1003,6	25,262
1004	26,833
1004,5	18,548
1004,9	16,605
1005,3	13,719
1005,7	18,748
1006,1	12,233
1006,6	4,69
1007	7,348
1007,4	10,433
1007,8	13,205
1008,2	11,748
1008,6	12,119
1009,1	16,062
1009,5	19,062
1009,9	17,748
1010,3	17,148
1010,7	13,576
1011,1	15,548
1011,6	15,09
1012	19,919
1012,4	19,576
1012,8	21,176
1013,2	29,005
1013,6	31,005
1014,1	33,319
1014,5	30,29
1014,9	27,719
1015,3	27,033
1015,7	24,29
1016,1	15,633
1016,6	14,69
1017	16,405
1017,4	16,576
1017,8	15,005
1018,2	17,319
1018,6	12,89
1019,1	13,605
1019,5	13,605
1019,9	10,148
1020,3	12,862
1020,7	15,29
1021,1	10,49
1021,6	16,49
1022	21,862
1022,4	22,605
1022,8	22,633
1023,2	19,49
1023,6	18,405
1024,1	24,805
1024,5	24,519
1024,9	19,319
1025,3	15,948
1025,7	13,948
1026,1	16,119
1026,6	11,205
1027	6,89
1027,4	10,433
1027,8	9,519
1028,2	9,948
1028,6	15,605
1029	11,719
1029,5	18,29
1029,9	17,862
1030,3	13,09
1030,7	15,29
1031,1	18,719
1031,5	12,005
1032	14,09
1032,4	12,233
1032,8	16,262
1033,2	19,062
1033,6	15,833
1034	14,719
1034,4	19,548
1034,9	23,119
1035,3	21,319
1035,7	21,033
1036,1	17,69
1036,5	17,433
1036,9	17,005
1037,4	18,205
1037,8	12,405
1038,2	9,805
1038,6	13,519
1039	17,862
1039,4	24,205
1039,8	18,862
1040,3	19,319
1040,7	19,69
1041,1	22,176
1041,5	23,376
1041,9	19,376
1042,3	16,633
1042,7	21,29
1043,2	21,605
1043,6	19,233
1044	18,205
1044,4	15,205
1044,8	15,119
1045,2	17,89
1045,6	19,576
1046,1	12,005
1046,5	17,948
1046,9	18,233
1047,3	12,433
1047,7	11,148
1048,1	1,376
1048,5	-2,338
1049	6,376
1049,4	7,662
1049,8	8,719
1050,2	11,748
1050,6	14,862
1051	20,948
1051,4	22,748
1051,9	19,719
1052,3	26,205
1052,7	27,805
1053,1	24,519
1053,5	24,919
1053,9	25,776
1054,3	23,405
1054,8	23,89
1055,2	16,49
1055,6	17,405
1056	20,462
1056,4	18,033
1056,8	19,662
1057,2	20,519
1057,6	16,976
1058,1	18,033
1058,5	15,033
1058,9	14,29
1059,3	17,29
1059,7	14,662
1060,1	15,719
1060,5	20,233
1061	14,005
1061,4	16,062
1061,8	16,348
1062,2	11,948
1062,6	15,319
1063	15,205
1063,4	14,319
1063,8	16,919
1064,3	14,433
1064,7	17,005
1065,1	17,748
1065,5	14,69
1065,9	13,09
1066,3	9,205
1066,7	6,205
1067,1	2,948
1067,6	3,49
1068	2,833
1068,4	4,262
1068,8	9,69
1069,2	12,233
1069,6	13,948
1070	19,976
1070,4	15,148
1070,9	15,748
1071,3	12,433
1071,7	10,09
1072,1	10,633
1072,5	10,862
1072,9	5,176
1073,3	8,748
1073,7	6,633
1074,2	8,005
1074,6	8,462
1075	6,319
1075,4	6,748
1075,8	12,548
1076,2	11,805
1076,6	13,89
1077	10,833
1077,5	13,29
1077,9	11,405
1078,3	7,319
1078,7	4,062
1079,1	2,576
1079,5	2,633
1079,9	8,919
1080,3	8,519
1080,7	9,319
1081,2	18,319
1081,6	19,176
1082	17,233
1082,4	18,205
1082,8	14,148
1083,2	7,605
1083,6	11,119
1084	5,548
1084,5	7,205
1084,9	5,976
1085,3	2,462
1085,7	6,433
1086,1	8,862
1086,5	9,576
1086,9	10,69
1087,3	10,233
1087,7	10,319
1088,2	12,433
1088,6	8,09
1089	7,262
1089,4	5,033
1089,8	7,405
1090,2	9,405
1090,6	12,948
1091	15,548
1091,4	18,748
1091,9	16,576
1092,3	16,09
1092,7	14,69
1093,1	15,062
1093,5	15,148
1093,9	11,233
1094,3	14,805
1094,7	19,148
1095,1	20,919
1095,5	23,748
1096	19,462
1096,4	16,719
1096,8	19,519
1097,2	16,062
1097,6	17,89
1098	17,862
1098,4	15,176
1098,8	17,09
1099,2	27,948
1099,6	24,376
1100,1	22,605
1100,5	17,29
1100,9	15,29
1101,3	16,319
1101,7	12,976
1102,1	4,948
1102,5	9,005
1102,9	11,519
1103,3	16,462
1103,7	14,119
1104,2	10,548
1104,6	11,776
1105	9,348
1105,4	6,348
1105,8	1,776
1106,2	-2,481
1106,6	-0,852
1107	-0,395
1107,4	-1,033
1107,8	-1,087
1108,3	-0,567
