Data from Subt2_248.txt Node
Date: Sat Aug 26 18:58:28 MSK 2023
User: vat
Spectrometer: MAYP114033
Trigger mode: 0
Integration Time (sec): 1,000000E0
Scans to average: 5
Electric dark correction enabled: true
Nonlinearity correction enabled: false
Boxcar width: 3
XAxis mode: Wavelengths
Number of Pixels in Spectrum: 2068
>>>>>Begin Spectral Data<<<<<
199,4	-1,017
199,9	0,273
200,4	0,467
200,8	-0,31
201,3	-1,938
201,8	-0,281
202,2	-0,281
202,7	2,862
203,2	1,776
203,6	1,433
204,1	1,148
204,6	2,633
205	3,548
205,5	4,405
206	1,405
206,4	1,805
206,9	-0,967
207,4	0,805
207,8	1,89
208,3	-0,081
208,8	-0,938
209,2	1,519
209,7	4,548
210,2	9,833
210,6	7,576
211,1	9,09
211,5	7,605
212	9,005
212,5	9,062
212,9	4,233
213,4	3,805
213,9	4,29
214,3	3,49
214,8	8,976
215,3	7,89
215,7	6,148
216,2	10,633
216,7	10,919
217,1	9,948
217,6	13,69
218,1	6,405
218,5	4,519
219	1,062
219,5	-0,481
219,9	-4,51
220,4	4,662
220,9	0,376
221,3	6,405
221,8	9,176
222,3	12,319
222,7	14,862
223,2	18,005
223,6	11,29
224,1	11,09
224,6	8,719
225	6,262
225,5	6,919
226	4,719
226,4	4,405
226,9	2,348
227,4	3,662
227,8	-3,11
228,3	0,919
228,8	0,148
229,2	1,576
229,7	0,176
230,2	3,033
230,6	7,719
231,1	17,548
231,5	17,605
232	20,348
232,5	20,376
232,9	21,062
233,4	22,348
233,9	18,148
234,3	15,576
234,8	12,976
235,3	10,119
235,7	8,976
236,2	9,405
236,7	7,148
237,1	8,633
237,6	7,376
238,1	7,605
238,5	4,719
239	5,205
239,4	11,29
239,9	12,662
240,4	12,033
240,8	15,119
241,3	9,748
241,8	11,805
242,2	9,748
242,7	3,119
243,2	-0,195
243,6	-2,824
244,1	-3,795
244,6	4,09
245	2,576
245,5	4,29
245,9	-0,624
246,4	3,348
246,9	5,348
247,3	6,576
247,8	5,805
248,3	9,605
248,7	8,09
249,2	15,919
249,7	12,233
250,1	9,005
250,6	6,233
251	5,776
251,5	6,976
252	6,49
252,4	6,776
252,9	6,09
253,4	7,576
253,8	6,176
254,3	8,262
254,8	5,976
255,2	1,462
255,7	-1,481
256,1	-0,024
256,6	-0,538
257,1	3,376
257,5	-4,052
258	-10,052
258,5	-3,681
258,9	-0,31
259,4	-0,024
259,9	0,662
260,3	-3,281
260,8	-2,881
261,2	2,862
261,7	-1,538
262,2	-5,567
262,6	-6,681
263,1	-1,624
263,6	1,919
264	9,376
264,5	14,176
264,9	18,49
265,4	19,719
265,9	22,262
266,3	19,462
266,8	19,805
267,3	14,376
267,7	11,29
268,2	15,09
268,7	17,033
269,1	18,605
269,6	18,348
270	18,833
270,5	18,319
271	16,148
271,4	11,833
271,9	5,776
272,4	8,948
272,8	9,548
273,3	4,033
273,7	8,005
274,2	11,433
274,7	11,348
275,1	14,862
275,6	8,376
276,1	4,29
276,5	9,833
277	5,376
277,4	1,69
277,9	3,633
278,4	4,09
278,8	8,89
279,3	9,633
279,8	8,833
280,2	11,576
280,7	16,605
281,1	13,948
281,6	11,462
282,1	9,633
282,5	10,919
283	7,09
283,4	6,433
283,9	0,633
284,4	4,519
284,8	7,148
285,3	3,205
285,8	3,405
286,2	8,033
286,7	10,89
287,1	7,948
287,6	4,005
288,1	-0,567
288,5	3,548
289	3,29
289,5	-1,481
289,9	-3,51
290,4	2,862
290,8	0,148
291,3	4,233
291,8	2,49
292,2	2,062
292,7	4,805
293,1	3,176
293,6	6,233
294,1	8,49
294,5	9,919
295	8,662
295,5	8,176
295,9	10,805
296,4	11,633
296,8	7,148
297,3	9,948
297,8	6,776
298,2	5,862
298,7	8,976
299,1	6,033
299,6	0,776
300,1	-0,024
300,5	-0,138
301	2,49
301,5	6,548
301,9	3,548
302,4	3,833
302,8	7,605
303,3	9,776
303,8	6,319
304,2	3,948
304,7	3,405
305,1	2,633
305,6	3,805
306,1	7,376
306,5	8,405
307	10,633
307,4	13,462
307,9	12,005
308,4	11,233
308,8	4,29
309,3	3,262
309,8	1,605
310,2	1,033
310,7	-1,738
311,1	-1,91
311,6	-0,338
312,1	7,462
312,5	7,833
313	8,548
313,4	8,719
313,9	12,433
314,4	11,948
314,8	8,319
315,3	9,948
315,7	5,348
316,2	3,033
316,7	2,319
317,1	2,576
317,6	3,462
318	10,605
318,5	8,319
319	9,919
319,4	10,833
319,9	14,548
320,3	13,662
320,8	12,09
321,3	8,348
321,7	8,919
322,2	10,348
322,6	11,548
323,1	7,976
323,6	4,49
324	4,233
324,5	1,548
324,9	2,776
325,4	3,719
325,9	6,09
326,3	5,862
326,8	11,148
327,2	9,29
327,7	11,89
328,2	9,805
328,6	11,405
329,1	3,319
329,5	7,005
330	4,148
330,5	9,976
330,9	8,548
331,4	9,262
331,8	4,233
332,3	12,233
332,8	11,89
333,2	10,719
333,7	10,319
334,1	11,433
334,6	7,776
335,1	5,29
335,5	3,89
336	4,833
336,4	5,49
336,9	9,69
337,4	14,605
337,8	14,319
338,3	19,89
338,7	22,519
339,2	20,376
339,7	27,09
340,1	21,176
340,6	18,548
341	21,69
341,5	18,719
342	11,205
342,4	9,49
342,9	0,405
343,3	1,348
343,8	0,005
344,2	0,005
344,7	9,119
345,2	10,633
345,6	11,29
346,1	13,233
346,5	9,89
347	7,519
347,5	5,519
347,9	0,776
348,4	1,919
348,8	0,548
349,3	3,776
349,8	6,09
350,2	13,919
350,7	9,662
351,1	10,548
351,6	10,862
352	17,548
352,5	22,262
353	30,262
353,4	31,433
353,9	44,748
354,3	54,833
354,8	65,919
355,3	77,833
355,7	88,719
356,2	104,719
356,6	120,376
357,1	141,405
357,5	161,348
358	188,976
358,5	215,319
358,9	250,09
359,4	284,262
359,8	328,09
360,3	378,119
360,8	428,005
361,2	488,233
361,7	555,805
362,1	629,376
362,6	712,69
363	792,319
363,5	878,119
364	978,519
364,4	1072,148
364,9	1170,748
365,3	1260,662
365,8	1344,233
366,3	1429,033
366,7	1503,69
367,2	1572,433
367,6	1624,09
368,1	1664,462
368,5	1696,033
369	1711,433
369,5	1717,719
369,9	1704,833
370,4	1671,49
370,8	1636,519
371,3	1585,748
371,7	1530,29
372,2	1465,09
372,7	1394,176
373,1	1315,519
373,6	1241,948
374	1165,948
374,5	1090,433
374,9	1014,148
375,4	942,49
375,9	871,119
376,3	807,233
376,8	740,519
377,2	686,205
377,7	626,376
378,2	572,233
378,6	522,062
379,1	479,09
379,5	445,805
380	412,033
380,4	374,348
380,9	345,233
381,4	311,233
381,8	293,062
382,3	270,976
382,7	247,605
383,2	232,748
383,6	218,148
384,1	204,062
384,6	200,348
385	182,319
385,5	165,69
385,9	154,462
386,4	141,833
386,8	131,433
387,3	119,833
387,7	109,205
388,2	104,748
388,7	105,605
389,1	97,376
389,6	89,805
390	80,633
390,5	79,976
390,9	78,776
391,4	72,233
391,9	67,433
392,3	67,719
392,8	61,919
393,2	58,09
393,7	56,862
394,1	49,462
394,6	48,405
395,1	49,319
395,5	42,89
396	46,062
396,4	46,805
396,9	41,69
397,3	44,919
397,8	44,405
398,2	39,633
398,7	45,176
399,2	42,376
399,6	43,948
400,1	47,176
400,5	41,033
401	41,319
401,4	36,919
401,9	35,005
402,4	34,719
402,8	31,319
403,3	34,576
403,7	32,805
404,2	33,748
404,6	38,005
405,1	37,548
405,5	39,69
406	41,062
406,5	34,033
406,9	35,919
407,4	33,976
407,8	37,633
408,3	35,776
408,7	34,519
409,2	37,719
409,6	44,519
410,1	45,348
410,6	51,662
411	47,576
411,5	51,462
411,9	52,89
412,4	54,69
412,8	53,805
413,3	59,09
413,7	55,633
414,2	59,09
414,7	65,033
415,1	68,233
415,6	69,862
416	70,719
416,5	68,976
416,9	68,862
417,4	71,919
417,8	74,348
418,3	79,49
418,8	81,69
419,2	83,176
419,7	84,49
420,1	88,719
420,6	88,662
421	84,49
421,5	86,119
421,9	89,29
422,4	93,89
422,8	98,633
423,3	98,176
423,8	96,748
424,2	96,69
424,7	92,433
425,1	90,205
425,6	89,89
426	88,862
426,5	93,119
426,9	98,89
427,4	96,119
427,9	92,376
428,3	93,348
428,8	88,862
429,2	87,29
429,7	84,319
430,1	79,748
430,6	83,548
431	90,919
431,5	91,89
431,9	92,005
432,4	94,719
432,8	99,576
433,3	102,519
433,8	104,233
434,2	105,633
434,7	107,119
435,1	111,262
435,6	115,605
436	112,433
436,5	120,148
436,9	117,29
437,4	123,633
437,8	127,262
438,3	133,69
438,8	132,405
439,2	143,519
439,7	150,376
440,1	164,433
440,6	171,805
441	174,548
441,5	182,319
441,9	195,319
442,4	198,462
442,8	201,176
443,3	206,519
443,7	213,919
444,2	228,348
444,7	236,662
445,1	247,833
445,6	257,805
446	272,033
446,5	284,948
446,9	288,233
447,4	296,862
447,8	308,862
448,3	325,462
448,7	338,662
449,2	352,005
449,6	366,176
450,1	383,89
450,6	398,862
451	412,062
451,5	421,805
451,9	442,519
452,4	456,89
452,8	470,262
453,3	490,005
453,7	505,062
454,2	528,433
454,6	548,862
455,1	567,89
455,5	585,148
456	609,948
456,4	624,519
456,9	648,376
457,3	666,176
457,8	677,433
458,3	696,09
458,7	718,89
459,2	735,719
459,6	758,405
460,1	780,948
460,5	794,576
461	826,805
461,4	843,062
461,9	863,748
462,3	889,69
462,8	916,462
463,2	937,148
463,7	968,776
464,1	996,548
464,6	1026,348
465	1055,348
465,5	1084,262
466	1110,09
466,4	1141,233
466,9	1174,348
467,3	1199,805
467,8	1234,262
468,2	1260,948
468,7	1290,033
469,1	1324,605
469,6	1356,576
470	1381,348
470,5	1408,662
470,9	1431,633
471,4	1457,69
471,8	1483,462
472,3	1514,576
472,7	1540,776
473,2	1567,633
473,6	1595,633
474,1	1630,29
474,5	1661,005
475	1693,176
475,4	1717,319
475,9	1746,348
476,4	1777,005
476,8	1810,176
477,3	1834,576
477,7	1868,262
478,2	1892,89
478,6	1916,89
479,1	1939,833
479,5	1964,576
480	1985,119
480,4	2014,033
480,9	2032,976
481,3	2060,748
481,8	2090,09
482,2	2116,062
482,7	2142,748
483,1	2173,49
483,6	2193,348
484	2219,833
484,5	2241,976
484,9	2263,09
485,4	2288,205
485,8	2304,919
486,3	2321,29
486,7	2341,719
487,2	2362,319
487,6	2375,919
488,1	2391,862
488,5	2407,148
489	2433,748
489,4	2456,462
489,9	2465,719
490,4	2484,719
490,8	2508,033
491,3	2526,433
491,7	2540,462
492,2	2546,89
492,6	2559,176
493,1	2583,719
493,5	2589,319
494	2596,976
494,4	2605,09
494,9	2619,49
495,3	2636,319
495,8	2642,548
496,2	2653,89
496,7	2661,69
497,1	2675,633
497,6	2690,29
498	2701,89
498,5	2709,548
498,9	2718,748
499,4	2721,433
499,8	2739,062
500,3	2746,633
500,7	2755,348
501,2	2759,776
501,6	2763,462
502,1	2764,776
502,5	2777,405
503	2777,69
503,4	2783,29
503,9	2786,033
504,3	2791,948
504,8	2806,49
505,2	2824,148
505,7	2832,433
506,1	2847,062
506,6	2855,805
507	2856,405
507,5	2864,433
507,9	2865,89
508,4	2863,462
508,8	2866,119
509,3	2866,862
509,7	2873,062
510,2	2884,405
510,6	2886,09
511,1	2892,119
511,5	2904,405
512	2905,348
512,4	2915,005
512,9	2917,29
513,3	2927,29
513,8	2932,09
514,2	2930,776
514,7	2933,233
515,1	2937,348
515,6	2938,348
516	2941,176
516,5	2943,09
516,9	2944,633
517,4	2958,89
517,8	2963,548
518,3	2969,09
518,7	2970,89
519,2	2978,09
519,6	2982,748
520,1	2994,89
520,5	2993,919
521	2995,805
521,4	3009,262
521,9	3017,776
522,3	3026,005
522,8	3031,233
523,2	3040,49
523,7	3046,433
524,1	3051,919
524,6	3048,205
525	3056,805
525,5	3057,919
525,9	3062,805
526,4	3058,29
526,8	3063,862
527,3	3072,462
527,7	3082,205
528,2	3084,805
528,6	3095,062
529,1	3103,919
529,5	3118,462
530	3129,262
530,4	3136,176
530,9	3147,205
531,3	3153,89
531,8	3159,833
532,2	3165,605
532,6	3174,062
533,1	3177,233
533,5	3190,148
534	3192,576
534,4	3203,176
534,9	3212,948
535,3	3221,119
535,8	3229,633
536,2	3242,09
536,7	3244,233
537,1	3255,005
537,6	3261,033
538	3265,805
538,5	3269,605
538,9	3270,205
539,4	3280,09
539,8	3290,576
540,3	3298,433
540,7	3304,776
541,2	3313,119
541,6	3324,805
542,1	3336,462
542,5	3342,29
543	3342,519
543,4	3347,805
543,9	3358,176
544,3	3370,49
544,8	3378,062
545,2	3384,948
545,7	3394,262
546,1	3411,033
546,5	3425,462
547	3432,605
547,4	3438,433
547,9	3446,176
548,3	3458,576
548,8	3467,49
549,2	3466,948
549,7	3473,605
550,1	3489,862
550,6	3490,205
551	3497,433
551,5	3502,062
551,9	3506,862
552,4	3514,176
552,8	3522,062
553,3	3522,519
553,7	3535,862
554,2	3537,462
554,6	3543,576
555,1	3554,005
555,5	3567,262
555,9	3571,205
556,4	3570,805
556,8	3576,862
557,3	3588,605
557,7	3594,29
558,2	3594,776
558,6	3597,748
559,1	3595,862
559,5	3605,576
560	3610,062
560,4	3620,519
560,9	3622,89
561,3	3625,976
561,8	3635,976
562,2	3647,862
562,7	3655,605
563,1	3661,89
563,6	3661,262
564	3672,405
564,4	3676,433
564,9	3674,69
565,3	3681,719
565,8	3685,89
566,2	3691,176
566,7	3695,148
567,1	3696,433
567,6	3706,348
568	3715,519
568,5	3713,805
568,9	3712,348
569,4	3711,49
569,8	3717,433
570,3	3716,576
570,7	3708,862
571,1	3705,262
571,6	3708,862
572	3712,462
572,5	3713,348
572,9	3708,262
573,4	3713,748
573,8	3725,262
574,3	3727,433
574,7	3726,519
575,2	3722,89
575,6	3717,662
576,1	3726,576
576,5	3724,005
576,9	3717,033
577,4	3708,919
577,8	3705,833
578,3	3709,233
578,7	3715,462
579,2	3707,662
579,6	3703,748
580,1	3696,548
580,5	3698,69
581	3699,89
581,4	3693,576
581,9	3681,519
582,3	3671,119
582,7	3666,062
583,2	3664,319
583,6	3659,69
584,1	3648,319
584,5	3641,49
585	3639,033
585,4	3635,433
585,9	3630,89
586,3	3634,148
586,8	3632,662
587,2	3632,433
587,6	3631,262
588,1	3633,176
588,5	3628,548
589	3629,319
589,4	3611,776
589,9	3601,49
590,3	3593,262
590,8	3581,29
591,2	3568,062
591,7	3562,776
592,1	3549,49
592,5	3554,633
593	3549,348
593,4	3547,376
593,9	3545,976
594,3	3543,833
594,8	3541,633
595,2	3536,033
595,7	3529,176
596,1	3521,89
596,6	3516,862
597	3511,233
597,4	3509,776
597,9	3505,519
598,3	3501,719
598,8	3491,233
599,2	3487,376
599,7	3479,376
600,1	3475,348
600,6	3457,09
601	3447,348
601,4	3442,69
601,9	3442,69
602,3	3437,348
602,8	3427,976
603,2	3416,033
603,7	3412,605
604,1	3404,376
604,6	3391,405
605	3376,376
605,4	3367,662
605,9	3358,919
606,3	3344,89
606,8	3336,519
607,2	3325,148
607,7	3314,633
608,1	3303,633
608,6	3294,662
609	3289,605
609,4	3283,433
609,9	3272,176
610,3	3261,205
610,8	3252,005
611,2	3245,176
611,7	3225,89
612,1	3209,033
612,6	3203,233
613	3197,633
613,4	3187,605
613,9	3180,29
614,3	3167,69
614,8	3165,319
615,2	3153,176
615,7	3139,062
616,1	3122,89
616,6	3110,49
617	3091,776
617,4	3077,433
617,9	3064,09
618,3	3053,662
618,8	3040,033
619,2	3028,09
619,7	3020,405
620,1	3009,576
620,5	3004,005
621	2989,605
621,4	2977,748
621,9	2968,062
622,3	2952,948
622,8	2937,376
623,2	2921,89
623,6	2904,862
624,1	2889,69
624,5	2872,633
625	2858,262
625,4	2845,205
625,9	2833,062
626,3	2822,262
626,8	2807,319
627,2	2797,89
627,6	2780,148
628,1	2763,09
628,5	2752,233
629	2731,49
629,4	2720,233
629,9	2706,119
630,3	2691,433
630,7	2683,748
631,2	2672,633
631,6	2654,348
632,1	2645,433
632,5	2633,662
633	2616,748
633,4	2603,148
633,8	2587,09
634,3	2569,805
634,7	2559,89
635,2	2544,262
635,6	2530,69
636,1	2521,348
636,5	2505,69
636,9	2490,862
637,4	2480,919
637,8	2466,29
638,3	2454,005
638,7	2431,433
639,2	2410,405
639,6	2400,405
640	2387,233
640,5	2370,119
640,9	2358,719
641,4	2344,976
641,8	2340,49
642,2	2336,805
642,7	2327,576
643,1	2324,576
643,6	2317,69
644	2311,576
644,5	2301,662
644,9	2294,805
645,3	2283,433
645,8	2263,062
646,2	2248,462
646,7	2233,919
647,1	2212,576
647,6	2206,833
648	2190,833
648,4	2174,805
648,9	2167,719
649,3	2152,919
649,8	2147,833
650,2	2141,576
650,6	2126,833
651,1	2113,519
651,5	2107,405
652	2096,348
652,4	2084,662
652,9	2074,462
653,3	2061,033
653,7	2047,233
654,2	2039,519
654,6	2022,376
655,1	2017,233
655,5	2014,09
655,9	1994,148
656,4	1983,005
656,8	1971,49
657,3	1959,262
657,7	1954,833
658,2	1938,262
658,6	1921,776
659	1914,719
659,5	1901,69
659,9	1889,662
660,4	1877,49
660,8	1863,348
661,2	1852,405
661,7	1843,862
662,1	1831,805
662,6	1826,862
663	1816,405
663,4	1801,29
663,9	1786,633
664,3	1771,862
664,8	1752,233
665,2	1737,262
665,6	1723,576
666,1	1712,462
666,5	1707,405
667	1700,49
667,4	1690,262
667,9	1682,748
668,3	1673,748
668,7	1660,262
669,2	1654,376
669,6	1639,605
670,1	1625,662
670,5	1614,205
670,9	1600,233
671,4	1592,548
671,8	1586,462
672,3	1574,09
672,7	1568,319
673,1	1554,405
673,6	1541,748
674	1539,176
674,5	1524,576
674,9	1505,433
675,3	1491,805
675,8	1476,89
676,2	1469,69
676,7	1461,605
677,1	1451,062
677,5	1439,29
678	1434,005
678,4	1430,462
678,9	1422,262
679,3	1409,633
679,7	1403,119
680,2	1386,919
680,6	1383,719
681,1	1374,433
681,5	1364,262
681,9	1359,633
682,4	1356,976
682,8	1346,662
683,3	1340,348
683,7	1332,948
684,1	1327,719
684,6	1316,376
685	1303,976
685,5	1293,433
685,9	1280,233
686,3	1270,976
686,8	1262,862
687,2	1254,462
687,7	1243,262
688,1	1233,748
688,5	1226,662
689	1228,405
689,4	1222,205
689,9	1211,605
690,3	1195,033
690,7	1191,462
691,2	1188,319
691,6	1180,462
692	1164,776
692,5	1158,005
692,9	1150,062
693,4	1145,548
693,8	1134,89
694,2	1124,205
694,7	1113,633
695,1	1108,605
695,6	1099,376
696	1090,662
696,4	1083,462
696,9	1074,948
697,3	1060,605
697,8	1058,462
698,2	1053,148
698,6	1052,548
699,1	1046,348
699,5	1046,633
699,9	1036,633
700,4	1029,576
700,8	1019,519
701,3	1012,548
701,7	999,062
702,1	992,719
702,6	981,176
703	981,748
703,5	977,605
703,9	971,233
704,3	965,29
704,8	958,033
705,2	948,862
705,6	941,49
706,1	934,462
706,5	927,119
707	919,205
707,4	913,748
707,8	906,948
708,3	903,49
708,7	902,005
709,2	892,605
709,6	890,605
710	892,919
710,5	882,776
710,9	876,519
711,3	868,976
711,8	858,319
712,2	853,033
712,7	841,633
713,1	832,376
713,5	828,462
714	823,462
714,4	817,119
714,8	810,89
715,3	803,29
715,7	802,719
716,2	792,976
716,6	785,976
717	775,776
717,5	772,062
717,9	768,662
718,3	761,49
718,8	753,462
719,2	746,976
719,7	739,776
720,1	742,176
720,5	741,09
721	733,49
721,4	731,89
721,8	732,719
722,3	725,89
722,7	722,29
723,2	711,776
723,6	695,062
724	688,69
724,5	677,69
724,9	668,462
725,3	667,205
725,8	660,948
726,2	655,148
726,7	658,776
727,1	654,948
727,5	655,433
728	648,69
728,4	643,976
728,8	640,233
729,3	638,49
729,7	629,748
730,1	625,633
730,6	621,89
731	615,776
731,5	610,376
731,9	607,519
732,3	604,633
732,8	607,176
733,2	607,405
733,6	600,576
734,1	599,319
734,5	596,805
734,9	592,948
735,4	593,29
735,8	581,062
736,3	577,605
736,7	571,69
737,1	571,433
737,6	566,176
738	562,833
738,4	554,519
738,9	552,833
739,3	543,805
739,7	543,519
740,2	536,49
740,6	537,09
741,1	535,548
741,5	528,89
741,9	528,433
742,4	528,948
742,8	522,662
743,2	520,233
743,7	508,148
744,1	502,262
744,5	500,176
745	493,233
745,4	485,69
745,8	487,319
746,3	487,433
746,7	485,605
747,2	481,89
747,6	485,148
748	485,29
748,5	485,205
748,9	480,633
749,3	472,148
749,8	474,576
750,2	473,805
750,6	462,148
751,1	460,148
751,5	455,633
751,9	456,233
752,4	456,433
752,8	450,348
753,3	446,148
753,7	449,233
754,1	444,262
754,6	440,776
755	435,348
755,4	433,662
755,9	429,89
756,3	421,49
756,7	416,319
757,2	411,576
757,6	410,233
758	405,09
758,5	399,376
758,9	396,662
759,3	402,405
759,8	397,89
760,2	395,976
760,6	392,005
761,1	394,576
761,5	390,633
761,9	388,948
762,4	382,69
762,8	381,262
763,3	382,433
763,7	380,148
764,1	371,919
764,6	373,062
765	371,948
765,4	366,519
765,9	364,633
766,3	358,633
766,7	354,833
767,2	351,09
767,6	354,548
768	350,833
768,5	350,805
768,9	348,662
769,3	346,719
769,8	344,148
770,2	347,519
770,6	338,348
771,1	334,633
771,5	331,433
771,9	331,005
772,4	330,348
772,8	327,719
773,2	322,662
773,7	322,49
774,1	322,319
774,5	318,29
775	313,148
775,4	313,662
775,8	309,976
776,3	310,805
776,7	308,005
777,1	306,89
777,6	308,662
778	311,319
778,4	302,805
778,9	302,719
779,3	301,033
779,7	297,748
780,2	298,09
780,6	293,033
781	287,348
781,5	287,119
781,9	285,433
782,3	276,176
782,8	272,49
783,2	265,89
783,6	268,262
784,1	268,233
784,5	266,805
784,9	265,89
785,4	269,376
785,8	273,376
786,2	275,033
786,7	269,119
787,1	262,748
787,5	258,748
788	255,033
788,4	251,433
788,8	244,405
789,3	236,948
789,7	235,662
790,1	237,405
790,6	240,433
791	238,605
791,4	238,948
791,9	235,376
792,3	231,805
792,7	237,719
793,2	227,89
793,6	227,09
794	230,405
794,5	225,49
794,9	229,49
795,3	232,233
795,8	226,548
796,2	234,29
796,6	228,262
797,1	221,833
797,5	219,919
797,9	215,005
798,4	210,662
798,8	207,262
799,2	204,148
799,7	208,405
800,1	205,005
800,5	207,119
801	205,148
801,4	206,29
801,8	201,262
802,2	199,519
802,7	192,69
803,1	194,348
803,5	191,205
804	185,948
804,4	182,805
804,8	184,719
805,3	186,948
805,7	188,29
806,1	185,005
806,6	185,49
807	187,605
807,4	187,89
807,9	183,748
808,3	178,576
808,7	175,319
809,2	175,948
809,6	175,605
810	171,376
810,4	172,29
810,9	175,576
811,3	175,29
811,7	176,376
812,2	180,09
812,6	173,776
813	178,29
813,5	177,148
813,9	172,205
814,3	166,89
814,8	162,148
815,2	153,462
815,6	153,205
816,1	150,376
816,5	149,605
816,9	148,205
817,3	148,348
817,8	152,005
818,2	154,405
818,6	154,462
819,1	152,319
819,5	144,348
819,9	145,376
820,4	143,69
820,8	133,033
821,2	130,148
821,7	128,919
822,1	129,519
822,5	136,119
822,9	134,748
823,4	132,719
823,8	141,748
824,2	142,176
824,7	137,69
825,1	130,69
825,5	123,205
826	117,548
826,4	116,233
826,8	111,605
827,3	111,233
827,7	112,233
828,1	120,119
828,5	119,148
829	119,605
829,4	124,49
829,8	119,548
830,3	118,005
830,7	113,805
831,1	109,376
831,6	107,462
832	107,262
832,4	100,062
832,8	103,548
833,3	98,919
833,7	96,862
834,1	89,548
834,6	93,433
835	95,319
835,4	99,976
835,8	95,205
836,3	95,976
836,7	101,69
837,1	105,348
837,6	106,319
838	104,833
838,4	101,948
838,9	106,262
839,3	105,719
839,7	105,805
840,1	100,548
840,6	96,805
841	96,205
841,4	97,062
841,9	93,719
842,3	95,662
842,7	95,176
843,1	101,319
843,6	103,09
844	106,662
844,4	108,633
844,9	110,205
845,3	104,605
845,7	104,119
846,2	94,576
846,6	91,49
847	86,576
847,4	82,09
847,9	80,89
848,3	81,519
848,7	79,805
849,2	85,09
849,6	80,148
850	82,376
850,4	78,776
850,9	76,462
851,3	79,376
851,7	80,005
852,2	79,462
852,6	84,205
853	78,976
853,4	81,405
853,9	77,319
854,3	76,09
854,7	71,062
855,2	68,748
855,6	66,49
856	66,09
856,4	63,148
856,9	64,005
857,3	61,262
857,7	67,462
858,2	73,262
858,6	73,833
859	76,633
859,4	76,69
859,9	77,662
860,3	75,148
860,7	71,89
861,1	68,976
861,6	67,462
862	65,062
862,4	66,062
862,9	64,548
863,3	68,29
863,7	66,233
864,1	64,976
864,6	65,29
865	64,062
865,4	63,376
865,9	67,919
866,3	64,405
866,7	61,833
867,1	58,233
867,6	55,49
868	54,862
868,4	52,833
868,8	52,09
869,3	52,233
869,7	56,548
870,1	55,833
870,6	58,433
871	4,719
871,4	10,776
871,8	4,433
872,3	5,662
872,7	2,205
873,1	2,462
873,5	0,748
874	55,119
874,4	51,719
874,8	53,89
875,3	54,919
875,7	53,948
876,1	60,062
876,5	60,205
877	57,033
877,4	52,319
877,8	56,033
878,2	61,09
878,7	61,576
879,1	54,405
879,5	54,462
879,9	55,919
880,4	59,033
880,8	52,748
881,2	44,005
881,7	40,233
882,1	44,948
882,5	42,862
882,9	40,89
883,4	36,548
883,8	42,148
884,2	44,405
884,6	46,69
885,1	44,062
885,5	44,719
885,9	47,319
886,3	51,719
886,8	45,405
887,2	43,948
887,6	43,633
888	44,148
888,5	45,862
888,9	41,948
889,3	35,805
889,8	38,233
890,2	39,519
890,6	35,405
891	37,233
891,5	34,176
891,9	36,69
892,3	41,233
892,7	41,462
893,2	39,519
893,6	42,405
894	38,633
894,4	36,49
894,9	37,605
895,3	35,548
895,7	34,519
896,1	33,548
896,6	35,262
897	35,033
897,4	37,89
897,8	37,433
898,3	40,605
898,7	39,233
899,1	40,548
899,5	40,262
900	37,862
900,4	36,433
900,8	30,319
901,2	20,49
901,7	17,719
902,1	17,576
902,5	18,833
902,9	19,69
903,4	19,09
903,8	22,862
904,2	28,233
904,6	29,033
905,1	29,605
905,5	25,633
905,9	28,919
906,3	31,548
906,8	35,376
907,2	36,405
907,6	39,748
908	39,233
908,5	39,119
908,9	35,948
909,3	31,176
909,7	28,119
910,2	27,805
910,6	32,433
911	24,033
911,4	27,662
911,9	24,548
912,3	26,033
912,7	31,376
913,1	30,662
913,6	23,948
914	30,376
914,4	26,462
914,8	31,833
915,3	33,69
915,7	29,462
916,1	28,89
916,5	28,805
916,9	27,49
917,4	26,548
917,8	27,69
918,2	22,576
918,6	16,462
919,1	17,348
919,5	17,348
919,9	18,605
920,3	17,633
920,8	12,976
921,2	15,319
921,6	19,662
922	20,348
922,5	20,862
922,9	18,719
923,3	20,49
923,7	19,948
924,2	15,662
924,6	15,062
925	14,033
925,4	14,005
925,8	16,862
926,3	16,176
926,7	17,69
927,1	22,89
927,5	25,205
928	22,348
928,4	19,89
928,8	22,148
929,2	22,976
929,7	21,348
930,1	21,433
930,5	15,233
930,9	19,49
931,3	22,462
931,8	18,948
932,2	18,09
932,6	18,719
933	15,776
933,5	18,49
933,9	19,633
934,3	20,119
934,7	15,776
935,2	16,005
935,6	16,719
936	18,233
936,4	15,662
936,8	17,89
937,3	16,605
937,7	22,376
938,1	23,433
938,5	18,062
939	20,29
939,4	19,662
939,8	15,776
940,2	15,29
940,6	14,548
941,1	17,233
941,5	24,176
941,9	18,605
942,3	25,319
942,8	22,69
943,2	27,262
943,6	25,319
944	23,09
944,4	21,576
944,9	25,205
945,3	20,119
945,7	16,319
946,1	8,005
946,6	8,005
947	4,776
947,4	9,262
947,8	8,833
948,2	6,805
948,7	14,776
949,1	17,405
949,5	18,719
949,9	19,348
950,3	13,09
950,8	14,833
951,2	16,29
951,6	7,405
952	8,462
952,5	5,69
952,9	4,119
953,3	3,805
953,7	0,576
954,1	2,89
954,6	6,005
955	5,462
955,4	6,233
955,8	7,748
956,2	10,462
956,7	10,033
957,1	9,119
957,5	14,376
957,9	16,662
958,3	15,462
958,8	14,119
959,2	15,662
959,6	17,719
960	15,805
960,5	15,376
960,9	15,605
961,3	13,919
961,7	15,948
962,1	12,205
962,6	11,49
963	15,405
963,4	8,919
963,8	4,69
964,2	7,09
964,7	6,776
965,1	11,005
965,5	12,09
965,9	8,776
966,3	15,548
966,8	17,662
967,2	19,662
967,6	19,319
968	10,205
968,4	11,433
968,9	13,462
969,3	12,376
969,7	6,89
970,1	8,119
970,5	6,49
971	15,805
971,4	13,662
971,8	13,405
972,2	9,633
972,6	13,976
973,1	12,348
973,5	15,605
973,9	12,005
974,3	15,919
974,7	19,319
975,2	22,662
975,6	24,29
976	22,89
976,4	18,462
976,8	17,89
977,3	11,262
977,7	3,262
978,1	3,976
978,5	-1,824
978,9	-4,338
979,4	-2,252
979,8	-4,224
980,2	-0,767
980,6	0,233
981	1,862
981,5	6,262
981,9	8,605
982,3	10,948
982,7	14,976
983,1	10,805
983,6	11,662
984	6,69
984,4	6,462
984,8	5,748
985,2	7,205
985,6	3,119
986,1	6,976
986,5	11,519
986,9	10,576
987,3	13,948
987,7	15,89
988,2	13,805
988,6	16,805
989	13,948
989,4	10,319
989,8	12,319
990,3	7,033
990,7	6,776
991,1	3,376
991,5	3,719
991,9	8,862
992,3	12,69
992,8	12,605
993,2	11,09
993,6	11,976
994	17,519
994,4	17,176
994,9	15,605
995,3	10,719
995,7	12,462
996,1	15,433
996,5	13,89
996,9	9,776
997,4	10,262
997,8	4,548
998,2	4,69
998,6	0,119
999	2,348
999,5	1,948
999,9	1,833
1000,3	-1,252
1000,7	3,09
1001,1	4,976
1001,5	6,776
1002	10,062
1002,4	14,748
1002,8	16,462
1003,2	18,605
1003,6	20,348
1004	20,69
1004,5	20,005
1004,9	17,519
1005,3	7,719
1005,7	4,319
1006,1	-1,452
1006,6	-4,995
1007	-1,91
1007,4	-2,538
1007,8	-4,167
1008,2	0,062
1008,6	7,09
1009,1	10,433
1009,5	11,948
1009,9	8,633
1010,3	12,776
1010,7	10,405
1011,1	10,69
1011,6	6,89
1012	13,176
1012,4	13,548
1012,8	11,49
1013,2	13,576
1013,6	13,376
1014,1	16,776
1014,5	16,776
1014,9	11,919
1015,3	11,062
1015,7	14,148
1016,1	9,376
1016,6	12,805
1017	13,319
1017,4	16,976
1017,8	19,662
1018,2	22,919
1018,6	19,548
1019,1	18,919
1019,5	17,29
1019,9	12,605
1020,3	7,976
1020,7	7,69
1021,1	3,662
1021,6	5,433
1022	9,748
1022,4	9,09
1022,8	12,033
1023,2	11,262
1023,6	10,433
1024,1	20,605
1024,5	18,976
1024,9	16,205
1025,3	16,862
1025,7	14,662
1026,1	19,033
1026,6	16,776
1027	7,662
1027,4	13,262
1027,8	9,919
1028,2	5,49
1028,6	7,576
1029	3,805
1029,5	8,433
1029,9	6,948
1030,3	2,576
1030,7	4,976
1031,1	9,033
1031,5	3,69
1032	4,662
1032,4	-1,767
1032,8	0,576
1033,2	3,09
1033,6	1,719
1034	1,605
1034,4	5,548
1034,9	7,462
1035,3	6,805
1035,7	9,462
1036,1	6,148
1036,5	4,948
1036,9	7,862
1037,4	9,548
1037,8	3,062
1038,2	4,776
1038,6	1,005
1039	5,433
1039,4	9,948
1039,8	8,776
1040,3	11,805
1040,7	15,176
1041,1	17,233
1041,5	18,205
1041,9	13,49
1042,3	13,776
1042,7	14,319
1043,2	9,062
1043,6	6,69
1044	6,433
1044,4	8,976
1044,8	11,09
1045,2	6,69
1045,6	3,605
1046,1	6,376
1046,5	11,176
1046,9	12,09
1047,3	7,576
1047,7	7,805
1048,1	9,262
1048,5	8,633
1049	8,89
1049,4	11,948
1049,8	8,49
1050,2	12,919
1050,6	20,519
1051	22,719
1051,4	22,576
1051,9	24,148
1052,3	26,49
1052,7	28,09
1053,1	26,89
1053,5	23,09
1053,9	23,119
1054,3	24,405
1054,8	27,633
1055,2	22,548
1055,6	27,548
1056	25,119
1056,4	21,919
1056,8	20,833
1057,2	18,033
1057,6	7,576
1058,1	2,262
1058,5	-5,767
1058,9	-4,824
1059,3	-4,681
1059,7	-4,824
1060,1	-0,938
1060,5	2,148
1061	9,376
1061,4	9,633
1061,8	12,062
1062,2	11,576
1062,6	16,148
1063	17,919
1063,4	22,462
1063,8	18,29
1064,3	21,462
1064,7	21,062
1065,1	17,89
1065,5	12,176
1065,9	10,348
1066,3	3,433
1066,7	0,748
1067,1	-1,624
1067,6	-0,481
1068	-0,11
1068,4	2,433
1068,8	3,833
1069,2	7,033
1069,6	9,662
1070	16,005
1070,4	12,89
1070,9	12,005
1071,3	9,776
1071,7	8,348
1072,1	10,862
1072,5	8,405
1072,9	0,29
1073,3	3,205
1073,7	2,748
1074,2	4,833
1074,6	4,919
1075	-1,624
1075,4	0,062
1075,8	7,405
1076,2	6,519
1076,6	10,805
1077	9,319
1077,5	13,319
1077,9	15,805
1078,3	13,948
1078,7	10,262
1079,1	8,69
1079,5	6,319
1079,9	9,433
1080,3	6,433
1080,7	7,319
1081,2	16,748
1081,6	17,519
1082	13,233
1082,4	20,205
1082,8	16,719
1083,2	17,348
1083,6	21,29
1084	13,119
1084,5	14,376
1084,9	17,605
1085,3	9,233
1085,7	9,548
1086,1	5,833
1086,5	1,805
1086,9	5,49
1087,3	4,205
1087,7	5,148
1088,2	8,433
1088,6	9,148
1089	11,462
1089,4	13,09
1089,8	14,005
1090,2	12,89
1090,6	10,033
1091	12,09
1091,4	16,548
1091,9	13,605
1092,3	14,633
1092,7	8,948
1093,1	10,719
1093,5	12,719
1093,9	8,805
1094,3	9,062
1094,7	12,605
1095,1	13,262
1095,5	17,862
1096	16,548
1096,4	18,948
1096,8	18,49
1097,2	14,462
1097,6	15,605
1098	10,176
1098,4	9,176
1098,8	11,262
1099,2	13,633
1099,6	14,348
1100,1	10,005
1100,5	7,919
1100,9	8,348
1101,3	9,576
1101,7	6,348
1102,1	3,176
1102,5	3,976
1102,9	7,948
1103,3	10,119
1103,7	13,148
1104,2	10,776
1104,6	11,548
1105	9,919
1105,4	11,576
1105,8	9,919
1106,2	5,748
1106,6	3,433
1107	3,062
1107,4	3,2
1107,8	3,833
1108,3	-0,217
