Data from Subt2_116.txt Node
Date: Sat Aug 26 18:22:43 MSK 2023
User: vat
Spectrometer: MAYP114033
Trigger mode: 0
Integration Time (sec): 1,000000E0
Scans to average: 5
Electric dark correction enabled: true
Nonlinearity correction enabled: false
Boxcar width: 3
XAxis mode: Wavelengths
Number of Pixels in Spectrum: 2068
>>>>>Begin Spectral Data<<<<<
199,4	-0,333
199,9	5,127
200,4	3,1
200,8	2,71
201,3	3,252
201,8	4,424
202,2	3,652
202,7	9,367
203,2	4,224
203,6	3,338
204,1	2,224
204,6	1,395
205	3,424
205,5	5,995
206	2,081
206,4	3,995
206,9	4,595
207,4	6,767
207,8	7,11
208,3	4,281
208,8	3,338
209,2	5,995
209,7	5,367
210,2	5,824
210,6	6,11
211,1	5,138
211,5	1,224
212	2,167
212,5	-0,69
212,9	-3,605
213,4	-1,919
213,9	-4,462
214,3	-2,29
214,8	4,738
215,3	3,024
215,7	4,367
216,2	9,51
216,7	11,195
217,1	8,681
217,6	11,91
218,1	7,252
218,5	7,252
219	-0,262
219,5	0,024
219,9	-8,805
220,4	2,738
220,9	-2,348
221,3	-0,462
221,8	-0,033
222,3	7,167
222,7	8,052
223,2	14,738
223,6	5,91
224,1	5,881
224,6	7,51
225	4,624
225,5	3,795
226	-1,862
226,4	-2,005
226,9	0,738
227,4	1,51
227,8	-3,49
228,3	-3,148
228,8	-5,605
229,2	-2,548
229,7	-1,833
230,2	-3,576
230,6	-0,776
231,1	6,11
231,5	9,795
232	13,681
232,5	14,481
232,9	16,367
233,4	15,681
233,9	12,167
234,3	6,738
234,8	5,71
235,3	3,367
235,7	1,167
236,2	-1,69
236,7	-0,005
237,1	1,995
237,6	0,338
238,1	-3,976
238,5	-7,376
239	-5,062
239,4	-0,948
239,9	-2,748
240,4	-5,148
240,8	0,938
241,3	1,424
241,8	5,024
242,2	0,138
242,7	-4,405
243,2	-3,148
243,6	-3,776
244,1	-4,662
244,6	-1,919
245	-0,548
245,5	0,452
245,9	-5,062
246,4	-6,005
246,9	-2,548
247,3	-6,09
247,8	-4,49
248,3	-4,148
248,7	-1,319
249,2	6,052
249,7	6,624
250,1	4,281
250,6	6,795
251	8,281
251,5	4,424
252	3,367
252,4	1,624
252,9	-1,033
253,4	-2,29
253,8	-4,548
254,3	-7,805
254,8	-7,233
255,2	-12,062
255,7	-11,148
256,1	-6,69
256,6	-2,662
257,1	2,567
257,5	0,938
258	-0,176
258,5	6,938
258,9	4,481
259,4	3,052
259,9	2,395
260,3	-6,862
260,8	-7,176
261,2	-5,319
261,7	-4,176
262,2	-1,376
262,6	-4,005
263,1	-2,062
263,6	4,481
264	8,367
264,5	10,767
264,9	6,967
265,4	8,738
265,9	8,681
266,3	10,252
266,8	11,538
267,3	9,738
267,7	5,138
268,2	4,424
268,7	3,424
269,1	3,881
269,6	-2,09
270	-0,205
270,5	-2,748
271	0,11
271,4	0,424
271,9	-5,176
272,4	-3,69
272,8	-1,548
273,3	-8,776
273,7	-5,919
274,2	-2,976
274,7	-3,776
275,1	1,795
275,6	0,967
276,1	0,224
276,5	6,052
277	6,11
277,4	7,51
277,9	11,967
278,4	14,452
278,8	16,967
279,3	18,881
279,8	18,138
280,2	20,938
280,7	15,595
281,1	10,481
281,6	7,167
282,1	8,11
282,5	5,024
283	5,338
283,4	2,852
283,9	6,481
284,4	11,11
284,8	9,31
285,3	7,31
285,8	10,71
286,2	6,51
286,7	8,71
287,1	5,195
287,6	2,681
288,1	-0,376
288,5	0,624
289	-4,348
289,5	-0,233
289,9	-3,69
290,4	-1,519
290,8	-0,319
291,3	3,338
291,8	3,624
292,2	3,938
292,7	4,195
293,1	5,824
293,6	9,052
294,1	8,852
294,5	6,424
295	4,424
295,5	2,567
295,9	0,567
296,4	-6,062
296,8	-13,062
297,3	-13,176
297,8	-14,548
298,2	-16,662
298,7	-10,805
299,1	-9,662
299,6	-6,719
300,1	-0,148
300,5	-1,262
301	5,138
301,5	10,31
301,9	7,281
302,4	3,652
302,8	8,938
303,3	2,881
303,8	1,281
304,2	-2,948
304,7	-4,462
305,1	-10,09
305,6	-5,405
306,1	-3,262
306,5	0,052
307	5,395
307,4	9,71
307,9	8,167
308,4	12,081
308,8	7,824
309,3	-2,633
309,8	-3,719
310,2	-5,719
310,7	-12,148
311,1	-14,805
311,6	-14,29
312,1	-10,662
312,5	-1,49
313	-0,29
313,4	-0,89
313,9	4,624
314,4	8,795
314,8	6,767
315,3	5,281
315,7	0,167
316,2	-1,89
316,7	-7,119
317,1	-2,033
317,6	-1,919
318	8,424
318,5	6,138
319	6,538
319,4	8,91
319,9	20,967
320,3	13,824
320,8	11,338
321,3	7,138
321,7	9,395
322,2	6,195
322,6	1,824
323,1	-6,805
323,6	-7,462
324	-7,033
324,5	-10,262
324,9	-11,719
325,4	-5,833
325,9	0,481
326,3	1,852
326,8	4,51
327,2	-0,033
327,7	0,995
328,2	2,11
328,6	2,224
329,1	-6,09
329,5	-4,148
330	-6,519
330,5	1,31
330,9	3,91
331,4	3,252
331,8	0,081
332,3	7,224
332,8	7,91
333,2	9,281
333,7	8,31
334,1	5,91
334,6	6,824
335,1	4,738
335,5	0,938
336	-1,548
336,4	-0,605
336,9	5,681
337,4	9,224
337,8	6,281
338,3	9,852
338,7	13,481
339,2	14,51
339,7	14,338
340,1	6,681
340,6	6,395
341	7,824
341,5	8,481
342	7,081
342,4	4,11
342,9	3,881
343,3	4,138
343,8	1,367
344,2	2,481
344,7	8,395
345,2	2,31
345,6	2,852
346,1	4,395
346,5	1,91
347	-2,976
347,5	-4,462
347,9	-5,233
348,4	-0,548
348,8	5,11
349,3	6,081
349,8	9,052
350,2	19,51
350,7	17,681
351,1	11,281
351,6	14,338
352	14,452
352,5	14,967
353	20,081
353,4	18,481
353,9	27,224
354,3	39,681
354,8	47,71
355,3	61,767
355,7	77,567
356,2	93,195
356,6	112,395
357,1	136,31
357,5	157,252
358	184,881
358,5	209,452
358,9	237,767
359,4	270,824
359,8	312,052
360,3	358,31
360,8	408,795
361,2	465,738
361,7	529,252
362,1	602,567
362,6	679,224
363	761,881
363,5	852,052
364	949,424
364,4	1042,395
364,9	1136,681
365,3	1228,424
365,8	1318,938
366,3	1400,624
366,7	1470,481
367,2	1531,281
367,6	1582,681
368,1	1627,995
368,5	1657,081
369	1669,91
369,5	1675,452
369,9	1661,824
370,4	1639,738
370,8	1610,51
371,3	1559,652
371,7	1506,738
372,2	1446,338
372,7	1375,281
373,1	1304,11
373,6	1228,624
374	1151,395
374,5	1078,51
374,9	1003,424
375,4	935,51
375,9	866,224
376,3	800,881
376,8	734,567
377,2	678,281
377,7	620,452
378,2	567,938
378,6	518,852
379,1	479,224
379,5	448,71
380	415,424
380,4	376,881
380,9	349,795
381,4	321,681
381,8	296,881
382,3	275,195
382,7	247,281
383,2	228,852
383,6	216,31
384,1	200,71
384,6	189,224
385	173,252
385,5	157,795
385,9	144,395
386,4	134,567
386,8	124,824
387,3	115,652
387,7	106,195
388,2	103,224
388,7	98,595
389,1	95,824
389,6	89,281
390	81,995
390,5	78,824
390,9	76,024
391,4	68,852
391,9	62,738
392,3	60,11
392,8	55,252
393,2	51,052
393,7	46,795
394,1	38,424
394,6	35,91
395,1	40,738
395,5	38,824
396	46,852
396,4	47,424
396,9	49,795
397,3	60,795
397,8	64,567
398,2	60,024
398,7	56,824
399,2	49,51
399,6	49,595
400,1	48,824
400,5	36,624
401	35,31
401,4	30,681
401,9	37,938
402,4	38,424
402,8	35,338
403,3	37,538
403,7	40,595
404,2	45,538
404,6	50,195
405,1	45,481
405,5	45,624
406	50,995
406,5	51,767
406,9	57,652
407,4	55,367
407,8	57,824
408,3	63,424
408,7	64,452
409,2	73,281
409,6	77,367
410,1	78,767
410,6	88,224
411	91,995
411,5	97,824
411,9	109,852
412,4	111,052
412,8	117,081
413,3	127,91
413,7	133,024
414,2	145,681
414,7	157,567
415,1	170,824
415,6	181,138
416	194,681
416,5	202,767
416,9	214,31
417,4	223,71
417,8	242,967
418,3	255,081
418,8	276,424
419,2	289,252
419,7	308,51
420,1	325,081
420,6	345,367
421	352,881
421,5	370,767
421,9	386,795
422,4	408,452
422,8	434,452
423,3	456,538
423,8	476,481
424,2	501,824
424,7	527,681
425,1	553,138
425,6	582,738
426	609,052
426,5	641,767
426,9	686,11
427,4	721,452
427,9	754,938
428,3	795,967
428,8	834,738
429,2	876,995
429,7	920,738
430,1	958,338
430,6	1009,538
431	1066,024
431,5	1122,224
431,9	1178,338
432,4	1240,91
432,8	1308,481
433,3	1375,424
433,8	1443,167
434,2	1516,081
434,7	1592,024
435,1	1673,538
435,6	1755,052
436	1839,881
436,5	1932,481
436,9	2024,11
437,4	2120,052
437,8	2220,481
438,3	2322,567
438,8	2432,481
439,2	2549,452
439,7	2668,595
440,1	2797,395
440,6	2929,624
441	3056,481
441,5	3195,681
441,9	3340,795
442,4	3474,71
442,8	3624,824
443,3	3780,567
443,7	3935,652
444,2	4105,91
444,7	4276,11
445,1	4441,281
445,6	4623,31
446	4801,681
446,5	4981,31
446,9	5167,51
447,4	5365,138
447,8	5565,51
448,3	5774,51
448,7	5986,767
449,2	6203,938
449,6	6423,424
450,1	6650,367
450,6	6873,395
451	7105,767
451,5	7345,538
451,9	7591,252
452,4	7838,881
452,8	8094,11
453,3	8355,167
453,7	8614,338
454,2	8879,967
454,6	9138,538
455,1	9414,567
455,5	9684,824
456	9955,938
456,4	10224,824
456,9	10511,281
457,3	10793,967
457,8	11090,91
458,3	11377,567
458,7	11673,595
459,2	11973,224
459,6	12271,795
460,1	12573,195
460,5	12870,11
461	13174,281
461,4	13473,138
461,9	13772,881
462,3	14078,424
462,8	14385,967
463,2	14687,681
463,7	14994,938
464,1	15304,967
464,6	15607,91
465	15916,71
465,5	16224,224
466	16535,852
466,4	16825,195
466,9	17126,138
467,3	17424,595
467,8	17721,11
468,2	18012,252
468,7	18308,767
469,1	18595,652
469,6	18901,452
470	19193,024
470,5	19474,881
470,9	19751,424
471,4	20030,452
471,8	20282,024
472,3	20543,824
472,7	20798,795
473,2	21045,995
473,6	21286,595
474,1	21544,681
474,5	21795,995
475	22051,167
475,4	22285,052
475,9	22518,224
476,4	22728,452
476,8	22942,852
477,3	23135,167
477,7	23337,367
478,2	23522,252
478,6	23716,967
479,1	23892,567
479,5	24088,795
480	24263,395
480,4	24435,995
480,9	24568,052
481,3	24713,738
481,8	24845,91
482,2	24970,281
482,7	25092,852
483,1	25209,595
483,6	25310,681
484	25405,195
484,5	25522,11
484,9	25602,195
485,4	25689,738
485,8	25738,424
486,3	25790,995
486,7	25845,081
487,2	25896,91
487,6	25917,881
488,1	25948,31
488,5	25960,595
489	25990,91
489,4	25992,595
489,9	25989,481
490,4	25989,167
490,8	25971,452
491,3	25955,595
491,7	25927,767
492,2	25891,081
492,6	25861,367
493,1	25817,195
493,5	25754,224
494	25694,052
494,4	25627,51
494,9	25552,252
495,3	25479,424
495,8	25392,481
496,2	25305,138
496,7	25197,538
497,1	25124,567
497,6	25014,138
498	24922,367
498,5	24816,624
498,9	24701,081
499,4	24589,081
499,8	24503,195
500,3	24365,852
500,7	24259,481
501,2	24126,395
501,6	23989,681
502,1	23874,824
502,5	23745,024
503	23608,538
503,4	23465,338
503,9	23293,881
504,3	23145,452
504,8	22998,538
505,2	22842,652
505,7	22685,195
506,1	22530,538
506,6	22359,91
507	22212,224
507,5	22063,31
507,9	21905,195
508,4	21734,738
508,8	21566,652
509,3	21389,138
509,7	21221,795
510,2	21053,167
510,6	20861,024
511,1	20688,91
511,5	20512,195
512	20336,567
512,4	20159,681
512,9	19975,024
513,3	19792,424
513,8	19612,71
514,2	19416,538
514,7	19231,71
515,1	19042,881
515,6	18860,624
516	18680,481
516,5	18487,938
516,9	18304,938
517,4	18116,481
517,8	17936,767
518,3	17753,624
518,7	17556,338
519,2	17368,881
519,6	17191,195
520,1	17003,452
520,5	16833,71
521	16631,681
521,4	16444,367
521,9	16270,195
522,3	16095,652
522,8	15917,31
523,2	15750,052
523,7	15566,31
524,1	15397,881
524,6	15225,167
525	15057,538
525,5	14890,538
525,9	14732,224
526,4	14564,738
526,8	14404,224
527,3	14255,367
527,7	14088,367
528,2	13926,081
528,6	13770,795
529,1	13619,195
529,5	13463,995
530	13309,452
530,4	13153,31
530,9	13016,338
531,3	12870,71
531,8	12716,167
532,2	12567,167
532,6	12424,31
533,1	12282,024
533,5	12139,795
534	12007,338
534,4	11870,224
534,9	11734,967
535,3	11600,31
535,8	11468,795
536,2	11337,424
536,7	11208,681
537,1	11070,795
537,6	10938,938
538	10829,852
538,5	10707,91
538,9	10580,938
539,4	10464,052
539,8	10345,338
540,3	10233,881
540,7	10122,452
541,2	9998,338
541,6	9883,081
542,1	9773,567
542,5	9658,138
543	9549,795
543,4	9438,195
543,9	9341,652
544,3	9243,767
544,8	9137,995
545,2	9041,424
545,7	8952,052
546,1	8858,338
546,5	8769,91
547	8669,681
547,4	8576,795
547,9	8483,395
548,3	8397,738
548,8	8308,595
549,2	8217,567
549,7	8130,91
550,1	8051,481
550,6	7965,938
551	7885,395
551,5	7794,367
551,9	7708,595
552,4	7633,938
552,8	7552,852
553,3	7465,138
553,7	7379,424
554,2	7305,081
554,6	7242,424
555,1	7168,881
555,5	7093,938
555,9	7023,967
556,4	6962,252
556,8	6897,367
557,3	6830,738
557,7	6762,738
558,2	6701,538
558,6	6639,767
559,1	6577,252
559,5	6512,11
560	6455,767
560,4	6401,367
560,9	6342,081
561,3	6275,881
561,8	6212,081
562,2	6156,995
562,7	6099,71
563,1	6045,138
563,6	5980,11
564	5919,367
564,4	5867,252
564,9	5814,824
565,3	5753,91
565,8	5700,395
566,2	5645,51
566,7	5602,138
567,1	5550,224
567,6	5502,31
568	5448,395
568,5	5398,852
568,9	5348,624
569,4	5300,195
569,8	5246,51
570,3	5198,624
570,7	5145,281
571,1	5108,167
571,6	5066,138
572	5027,367
572,5	4985,995
572,9	4945,281
573,4	4900,338
573,8	4867,595
574,3	4817,595
574,7	4779,938
575,2	4732,767
575,6	4688,338
576,1	4652,681
576,5	4619,51
576,9	4573,395
577,4	4536,938
577,8	4492,367
578,3	4452,195
578,7	4414,167
579,2	4372,31
579,6	4333,167
580,1	4300,338
580,5	4267,795
581	4238,738
581,4	4206,881
581,9	4175,367
582,3	4137,652
582,7	4103,795
583,2	4067,224
583,6	4032,995
584,1	3994,252
584,5	3955,881
585	3911,052
585,4	3877,224
585,9	3844,138
586,3	3819,11
586,8	3781,767
587,2	3752,51
587,6	3732,024
588,1	3714,995
588,5	3689,081
589	3665,71
589,4	3628,881
589,9	3602,852
590,3	3572,71
590,8	3540,452
591,2	3516,252
591,7	3491,881
592,1	3465,995
592,5	3443,338
593	3421,11
593,4	3394,395
593,9	3372,281
594,3	3340,824
594,8	3312,31
595,2	3285,595
595,7	3263,71
596,1	3241,51
596,6	3219,481
597	3195,824
597,4	3171,681
597,9	3151,71
598,3	3132,081
598,8	3112,395
599,2	3089,452
599,7	3072,167
600,1	3046,052
600,6	3028,281
601	3010,681
601,4	2992,138
601,9	2970,652
602,3	2949,824
602,8	2930,824
603,2	2913,224
603,7	2895,138
604,1	2873,395
604,6	2846,052
605	2821,138
605,4	2801,167
605,9	2777,424
606,3	2750,738
606,8	2727,995
607,2	2708,652
607,7	2695,424
608,1	2680,338
608,6	2662,452
609	2647,852
609,4	2641,51
609,9	2623,024
610,3	2601,995
610,8	2579,395
611,2	2561,481
611,7	2548,024
612,1	2528,967
612,6	2507,738
613	2491,51
613,4	2475,224
613,9	2455,967
614,3	2436,281
614,8	2418,824
615,2	2399,481
615,7	2384,424
616,1	2368,224
616,6	2353,167
617	2340,51
617,4	2329,052
617,9	2314,624
618,3	2297,995
618,8	2283,11
619,2	2265,567
619,7	2248,395
620,1	2229,852
620,5	2216,195
621	2194,31
621,4	2182,138
621,9	2162,652
622,3	2153,367
622,8	2136,224
623,2	2123,338
623,6	2104,967
624,1	2093,881
624,5	2076,281
625	2067,481
625,4	2047,024
625,9	2039,938
626,3	2027,652
626,8	2011,481
627,2	1995,224
627,6	1982,538
628,1	1962,938
628,5	1959,224
629	1938,91
629,4	1918,681
629,9	1904,567
630,3	1891,967
630,7	1873,195
631,2	1865,481
631,6	1846,338
632,1	1837,224
632,5	1825,052
633	1821,481
633,4	1806,624
633,8	1796,11
634,3	1778,51
634,7	1761,567
635,2	1744,31
635,6	1733,51
636,1	1711,024
636,5	1692,852
636,9	1680,367
637,4	1663,395
637,8	1650,995
638,3	1636,795
638,7	1622,567
639,2	1608,31
639,6	1602,281
640	1590,367
640,5	1584,767
640,9	1572,224
641,4	1561,052
641,8	1554,795
642,2	1547,71
642,7	1542,024
643,1	1538,538
643,6	1526,995
644	1516,424
644,5	1514,51
644,9	1502,195
645,3	1492,881
645,8	1474,481
646,2	1462,195
646,7	1452,51
647,1	1437,795
647,6	1427,681
648	1419,11
648,4	1405,624
648,9	1403,795
649,3	1396,824
649,8	1389,995
650,2	1388,281
650,6	1375,995
651,1	1368,538
651,5	1365,224
652	1354,024
652,4	1341,167
652,9	1335,424
653,3	1325,367
653,7	1313,138
654,2	1302,567
654,6	1289,71
655,1	1282,395
655,5	1280,71
655,9	1269,967
656,4	1263,481
656,8	1258,052
657,3	1251,281
657,7	1243,224
658,2	1231,052
658,6	1213,281
659	1203,795
659,5	1194,881
659,9	1183,367
660,4	1172,767
660,8	1161,881
661,2	1152,167
661,7	1148,652
662,1	1137,481
662,6	1128,452
663	1123,024
663,4	1111,824
663,9	1108,167
664,3	1103,167
664,8	1093,452
665,2	1087,424
665,6	1073,738
666,1	1069,31
666,5	1065,852
667	1052,938
667,4	1041,052
667,9	1032,852
668,3	1026,567
668,7	1022,967
669,2	1018,395
669,6	1010,481
670,1	1008,024
670,5	1000,881
670,9	994,024
671,4	980,024
671,8	974,11
672,3	964,138
672,7	956,052
673,1	944,652
673,6	939,281
674	932,51
674,5	926,567
674,9	916,51
675,3	905,852
675,8	895,338
676,2	891,138
676,7	882,91
677,1	876,852
677,5	870,595
678	867,424
678,4	863,538
678,9	861,052
679,3	859,195
679,7	851,224
680,2	839,567
680,6	837,71
681,1	830,995
681,5	823,481
681,9	818,167
682,4	810,395
682,8	810,995
683,3	807,91
683,7	805,71
684,1	802,767
684,6	800,51
685	794,138
685,5	787,71
685,9	778,624
686,3	770,052
686,8	761,338
687,2	752,538
687,7	741,91
688,1	731,967
688,5	726,595
689	720,652
689,4	719,195
689,9	710,738
690,3	701,11
690,7	697,852
691,2	697,595
691,6	690,995
692	684,824
692,5	681,224
692,9	682,081
693,4	681,224
693,8	672,681
694,2	664,938
694,7	657,738
695,1	656,367
695,6	648,452
696	641,538
696,4	636,738
696,9	633,91
697,3	633,024
697,8	630,195
698,2	621,852
698,6	627,71
699,1	623,681
699,5	621,795
699,9	619,281
700,4	607,767
700,8	605,338
701,3	607,31
701,7	591,938
702,1	583,624
702,6	577,11
703	570,252
703,5	571,938
703,9	565,567
704,3	562,138
704,8	556,538
705,2	550,881
705,6	545,538
706,1	539,71
706,5	532,852
707	527,624
707,4	520,995
707,8	518,652
708,3	521,138
708,7	522,51
709,2	519,481
709,6	515,424
710	521,31
710,5	512,481
710,9	509,31
711,3	497,995
711,8	490,795
712,2	488,367
712,7	483,052
713,1	475,281
713,5	477,481
714	476,938
714,4	478,195
714,8	474,281
715,3	470,395
715,7	469,481
716,2	459,795
716,6	455,91
717	449,31
717,5	444,138
717,9	444,11
718,3	438,967
718,8	433,51
719,2	433,138
719,7	428,967
720,1	430,881
720,5	429,938
721	419,738
721,4	418,624
721,8	423,538
722,3	420,967
722,7	416,31
723,2	404,224
723,6	392,51
724	391,11
724,5	387,11
724,9	379,938
725,3	373,938
725,8	370,481
726,2	372,852
726,7	376,252
727,1	373,081
727,5	373,367
728	368,767
728,4	372,624
728,8	368,138
729,3	361,338
729,7	357,824
730,1	358,31
730,6	357,595
731	353,767
731,5	346,91
731,9	342,424
732,3	345,852
732,8	345,452
733,2	341,91
733,6	338,452
734,1	337,052
734,5	335,052
734,9	342,652
735,4	340,452
735,8	332,681
736,3	336,367
736,7	331,738
737,1	333,081
737,6	330,024
738	319,767
738,4	316,167
738,9	317,967
739,3	312,424
739,7	311,224
740,2	304,024
740,6	307,252
741,1	311,824
741,5	308,624
741,9	309,767
742,4	310,595
742,8	311,31
743,2	311,195
743,7	302,881
744,1	294,938
744,5	288,395
745	281,395
745,4	272,852
745,8	267,31
746,3	267,738
746,7	268,138
747,2	270,11
747,6	275,081
748	277,71
748,5	280,652
748,9	278,138
749,3	273,681
749,8	275,367
750,2	270,767
750,6	263,795
751,1	261,91
751,5	260,11
751,9	261,538
752,4	260,995
752,8	256,424
753,3	254,681
753,7	260,338
754,1	253,652
754,6	246,195
755	238,195
755,4	239,052
755,9	238,51
756,3	237,681
756,7	228,91
757,2	228,967
757,6	230,424
758	232,567
758,5	224,767
758,9	223,167
759,3	224,767
759,8	228,852
760,2	229,024
760,6	225,652
761,1	218,881
761,5	219,11
761,9	216,624
762,4	213,195
762,8	208,995
763,3	205,31
763,7	207,367
764,1	210,652
764,6	213,11
765	212,481
765,4	210,452
765,9	209,167
766,3	212,681
766,7	207,31
767,2	208,338
767,6	209,967
768	205,738
768,5	202,881
768,9	203,052
769,3	198,367
769,8	198,024
770,2	196,71
770,6	190,624
771,1	192,881
771,5	193,481
771,9	191,71
772,4	193,852
772,8	196,224
773,2	196,567
773,7	194,795
774,1	192,995
774,5	186,71
775	185,481
775,4	182,138
775,8	177,338
776,3	177,881
776,7	179,624
777,1	178,738
777,6	182,938
778	184,052
778,4	180,452
778,9	182,395
779,3	175,252
779,7	172,51
780,2	171,91
780,6	173,338
781	168,967
781,5	165,824
781,9	166,767
782,3	163,91
782,8	165,71
783,2	164,281
783,6	161,167
784,1	158,767
784,5	160,452
784,9	153,938
785,4	157,995
785,8	155,338
786,2	157,852
786,7	157,795
787,1	157,338
787,5	158,081
788	155,452
788,4	155,852
788,8	154,51
789,3	148,195
789,7	148,338
790,1	148,31
790,6	147,595
791	146,338
791,4	143,652
791,9	139,567
792,3	138,938
792,7	139,51
793,2	140,652
793,6	137,652
794	141,795
794,5	137,452
794,9	140,967
795,3	140,395
795,8	135,138
796,2	133,338
796,6	137,081
797,1	131,51
797,5	131,71
797,9	128,824
798,4	126,995
798,8	122,91
799,2	120,338
799,7	117,824
800,1	122,138
800,5	122,195
801	122,424
801,4	120,51
801,8	118,71
802,2	118,11
802,7	112,024
803,1	106,881
803,5	107,795
804	106,167
804,4	110,081
804,8	117,281
805,3	116,395
805,7	117,852
806,1	119,281
806,6	117,338
807	113,938
807,4	109,252
807,9	101,652
808,3	100,995
808,7	100,31
809,2	102,052
809,6	103,338
810	102,824
810,4	101,452
810,9	101,938
811,3	106,11
811,7	106,424
812,2	108,881
812,6	106,367
813	108,31
813,5	107,938
813,9	106,881
814,3	100,738
814,8	99,567
815,2	90,167
815,6	87,052
816,1	85,967
816,5	84,024
816,9	86,338
817,3	87,595
817,8	91,624
818,2	96,11
818,6	96,024
819,1	94,252
819,5	95,824
819,9	94,738
820,4	91,31
820,8	87,424
821,2	83,367
821,7	85,481
822,1	89,167
822,5	92,424
822,9	92,195
823,4	91,767
823,8	89,71
824,2	91,024
824,7	82,852
825,1	74,538
825,5	69,11
826	67,11
826,4	66,652
826,8	68,681
827,3	70,167
827,7	74,538
828,1	78,281
828,5	79,738
829	75,224
829,4	78,024
829,8	72,795
830,3	70,167
830,7	70,652
831,1	68,91
831,6	65,024
832	67,738
832,4	65,681
832,8	70,71
833,3	69,538
833,7	67,281
834,1	65,595
834,6	63,681
835	65,138
835,4	68,081
835,8	63,538
836,3	62,852
836,7	63,052
837,1	62,852
837,6	69,71
838	67,367
838,4	61,481
838,9	60,595
839,3	59,224
839,7	60,31
840,1	55,824
840,6	51,567
841	52,31
841,4	55,052
841,9	55,71
842,3	54,938
842,7	54,024
843,1	57,681
843,6	58,024
844	56,167
844,4	59,167
844,9	61,138
845,3	65,967
845,7	65,795
846,2	65,824
846,6	61,452
847	64,395
847,4	62,967
847,9	59,395
848,3	56,367
848,7	55,938
849,2	56,967
849,6	56,767
850	62,024
850,4	60,024
850,9	62,71
851,3	60,967
851,7	58,881
852,2	57,138
852,6	58,91
853	50,395
853,4	44,567
853,9	44,424
854,3	43,681
854,7	45,395
855,2	44,31
855,6	44,31
856	41,195
856,4	43,195
856,9	40,595
857,3	42,452
857,7	43,138
858,2	47,31
858,6	46,481
859	51,424
859,4	54,938
859,9	50,224
860,3	45,424
860,7	46,024
861,1	45,052
861,6	41,481
862	40,51
862,4	36,052
862,9	37,481
863,3	37,881
863,7	36,395
864,1	34,652
864,6	36,195
865	33,567
865,4	33,452
865,9	38,367
866,3	36,338
866,7	29,938
867,1	28,252
867,6	30,938
868	30,167
868,4	26,91
868,8	23,938
869,3	24,395
869,7	30,595
870,1	25,224
870,6	22,567
871	-55,919
871,4	-51,805
871,8	-54,376
872,3	-49,662
872,7	-51,376
873,1	-46,948
873,5	-45,862
874	32,738
874,4	34,252
874,8	32,967
875,3	31,11
875,7	26,852
876,1	28,71
876,5	27,081
877	26,338
877,4	20,852
877,8	22,31
878,2	26,081
878,7	30,138
879,1	32,624
879,5	37,195
879,9	38,938
880,4	40,224
880,8	40,767
881,2	33,167
881,7	33,71
882,1	28,881
882,5	21,71
882,9	20,51
883,4	18,681
883,8	22,252
884,2	28,452
884,6	24,767
885,1	25,081
885,5	29,852
885,9	28,452
886,3	33,681
886,8	29,967
887,2	25,624
887,6	24,338
888	23,052
888,5	22,11
888,9	17,852
889,3	12,367
889,8	13,024
890,2	12,452
890,6	11,624
891	7,881
891,5	2,824
891,9	4,624
892,3	7,024
892,7	5,052
893,2	7,51
893,6	10,795
894	16,652
894,4	16,052
894,9	16,252
895,3	13,995
895,7	15,852
896,1	9,31
896,6	7,824
897	7,852
897,4	17,338
897,8	21,424
898,3	25,11
898,7	20,252
899,1	25,795
899,5	26,738
900	21,652
900,4	18,024
900,8	14,167
901,2	9,024
901,7	12,452
902,1	12,252
902,5	11,481
902,9	14,481
903,4	13,91
903,8	13,081
904,2	16,11
904,6	17,338
905,1	16,624
905,5	20,224
905,9	23,71
906,3	27,052
906,8	32,738
907,2	32,424
907,6	31,252
908	31,881
908,5	25,481
908,9	20,938
909,3	10,824
909,7	7,024
910,2	4,91
910,6	8,624
911	3,195
911,4	8,31
911,9	4,767
912,3	10,767
912,7	14,167
913,1	16,795
913,6	11,824
914	16,395
914,4	12,367
914,8	15,652
915,3	7,367
915,7	1,881
916,1	2,91
916,5	2,138
916,9	0,367
917,4	0,338
917,8	0,881
918,2	4,052
918,6	3,967
919,1	1,538
919,5	8,567
919,9	10,824
920,3	12,367
920,8	12,91
921,2	18,395
921,6	18,995
922	19,424
922,5	13,738
922,9	11,967
923,3	10,71
923,7	11,595
924,2	7,91
924,6	9,538
925	11,224
925,4	9,738
925,8	9,452
926,3	8,824
926,7	4,91
927,1	4,052
927,5	3,852
928	0,567
928,4	-2,176
928,8	-0,719
929,2	-2,176
929,7	1,195
930,1	2,824
930,5	-0,69
930,9	-1,433
931,3	2,052
931,8	1,824
932,2	5,367
932,6	1,738
933	-1,148
933,5	1,967
933,9	3,51
934,3	6,567
934,7	1,795
935,2	1,824
935,6	2,624
936	2,595
936,4	3,11
936,8	3,138
937,3	-2,376
937,7	6,224
938,1	7,652
938,5	3,91
939	6,51
939,4	6,824
939,8	5,195
940,2	8,91
940,6	3,967
941,1	0,938
941,5	5,481
941,9	0,11
942,3	-1,033
942,8	1,367
943,2	1,11
943,6	1,138
944	1,91
944,4	1,567
944,9	7,252
945,3	8,367
945,7	1,938
946,1	-0,919
946,6	-0,576
947	-0,548
947,4	2,995
947,8	3,681
948,2	2,967
948,7	8,195
949,1	9,138
949,5	12,052
949,9	11,224
950,3	9,91
950,8	4,824
951,2	2,767
951,6	-1,205
952	2,795
952,5	-4,49
952,9	-4,119
953,3	-8,005
953,7	-4,49
954,1	0,824
954,6	4,567
955	2,395
955,4	4,995
955,8	7,252
956,2	10,995
956,7	8,967
957,1	4,624
957,5	6,995
957,9	6,338
958,3	5,795
958,8	4,967
959,2	6,367
959,6	13,71
960	10,281
960,5	11,052
960,9	12,281
961,3	9,852
961,7	6,881
962,1	2,538
962,6	0,367
963	-0,49
963,4	-5,49
963,8	-4,49
964,2	1,51
964,7	3,538
965,1	9,024
965,5	9,481
965,9	15,31
966,3	21,738
966,8	18,424
967,2	18,224
967,6	18,224
968	8,595
968,4	4,11
968,9	1,995
969,3	-0,09
969,7	-3,319
970,1	-3,09
970,5	-4,319
971	6,481
971,4	5,795
971,8	8,138
972,2	4,681
972,6	9,138
973,1	6,738
973,5	8,424
973,9	2,681
974,3	6,367
974,7	7,652
975,2	12,224
975,6	9,51
976	12,11
976,4	7,967
976,8	8,31
977,3	5,481
977,7	3,138
978,1	0,71
978,5	-0,633
978,9	-3,89
979,4	-3,776
979,8	-5,948
980,2	-6,662
980,6	-9,662
981	-3,833
981,5	-1,633
981,9	-1,89
982,3	0,91
982,7	4,681
983,1	2,91
983,6	4,91
984	-0,433
984,4	-2,119
984,8	-5,348
985,2	-8,605
985,6	-11,348
986,1	-9,948
986,5	-8,319
986,9	-14,148
987,3	-8,576
987,7	-7,119
988,2	-3,062
988,6	-1,09
989	-1,09
989,4	-1,262
989,8	2,652
990,3	0,081
990,7	3,024
991,1	-0,805
991,5	2,71
991,9	5,138
992,3	1,938
992,8	4,91
993,2	5,395
993,6	4,595
994	8,281
994,4	3,91
994,9	5,852
995,3	5,481
995,7	0,795
996,1	-1,09
996,5	1,11
996,9	-1,462
997,4	1,338
997,8	-3,633
998,2	-2,205
998,6	-4,405
999	-4,719
999,5	-6,862
999,9	-2,29
1000,3	-6,69
1000,7	-4,548
1001,1	-3,319
1001,5	-0,576
1002	4,624
1002,4	3,367
1002,8	-0,805
1003,2	1,11
1003,6	3,338
1004	6,281
1004,5	3,767
1004,9	1,424
1005,3	-0,09
1005,7	3,167
1006,1	-1,605
1006,6	-4,119
1007	-9,948
1007,4	-8,833
1007,8	-8,805
1008,2	-10,576
1008,6	-11,09
1009,1	-6,748
1009,5	-7,148
1009,9	-3,205
1010,3	1,538
1010,7	1,51
1011,1	5,224
1011,6	4,252
1012	7,195
1012,4	5,024
1012,8	2,938
1013,2	3,052
1013,6	7,367
1014,1	5,71
1014,5	5,852
1014,9	1,481
1015,3	4,481
1015,7	7,795
1016,1	6,652
1016,6	1,652
1017	6,138
1017,4	3,51
1017,8	5,395
1018,2	10,281
1018,6	6,195
1019,1	3,024
1019,5	2,481
1019,9	-4,233
1020,3	-1,833
1020,7	-1,119
1021,1	-5,776
1021,6	-0,748
1022	8,281
1022,4	7,51
1022,8	15,567
1023,2	15,595
1023,6	14,767
1024,1	20,424
1024,5	20,195
1024,9	12,395
1025,3	16,424
1025,7	11,967
1026,1	11,652
1026,6	12,824
1027	8,11
1027,4	5,824
1027,8	3,395
1028,2	-0,205
1028,6	7,767
1029	7,452
1029,5	9,338
1029,9	5,71
1030,3	2,481
1030,7	2,938
1031,1	3,995
1031,5	-7,805
1032	-7,919
1032,4	-12,005
1032,8	-10,633
1033,2	-6,29
1033,6	-3,262
1034	-6,376
1034,4	-1,29
1034,9	-0,348
1035,3	0,167
1035,7	6,624
1036,1	1,595
1036,5	0,11
1036,9	2,281
1037,4	0,71
1037,8	-2,148
1038,2	-2,719
1038,6	-7,405
1039	-4,233
1039,4	0,338
1039,8	-3,919
1040,3	-1,976
1040,7	-2,119
1041,1	1,024
1041,5	4,395
1041,9	4,224
1042,3	-0,833
1042,7	5,767
1043,2	9,824
1043,6	11,281
1044	7,738
1044,4	4,681
1044,8	4,938
1045,2	6,567
1045,6	2,138
1046,1	-2,09
1046,5	-2,662
1046,9	-7,119
1047,3	-9,062
1047,7	-7,719
1048,1	-11,719
1048,5	-8,348
1049	-5,662
1049,4	-0,519
1049,8	4,652
1050,2	7,052
1050,6	8,11
1051	13,767
1051,4	12,995
1051,9	9,367
1052,3	12,595
1052,7	11,024
1053,1	6,452
1053,5	6,395
1053,9	4,567
1054,3	7,881
1054,8	10,795
1055,2	9,195
1055,6	11,652
1056	14,967
1056,4	10,995
1056,8	9,367
1057,2	6,538
1057,6	4,081
1058,1	-6,462
1058,5	-12,748
1058,9	-10,176
1059,3	-10,005
1059,7	-6,348
1060,1	-5,776
1060,5	-3,776
1061	5,195
1061,4	11,652
1061,8	11,795
1062,2	12,567
1062,6	11,681
1063	11,024
1063,4	10,652
1063,8	4,91
1064,3	2,767
1064,7	-0,605
1065,1	-2,062
1065,5	-7,605
1065,9	-9,49
1066,3	-13,548
1066,7	-14,005
1067,1	-15,09
1067,6	-8,548
1068	-7,948
1068,4	-2,833
1068,8	-0,49
1069,2	2,024
1069,6	2,881
1070	2,452
1070,4	-1,976
1070,9	-3,776
1071,3	-5,405
1071,7	-11,233
1072,1	-10,605
1072,5	-15,519
1072,9	-12,148
1073,3	-9,548
1073,7	-9,148
1074,2	-7,662
1074,6	-2,119
1075	-5,748
1075,4	1,024
1075,8	6,538
1076,2	2,024
1076,6	3,624
1077	2,938
1077,5	3,624
1077,9	6,452
1078,3	4,081
1078,7	-4,119
1079,1	-1,09
1079,5	-2,119
1079,9	-2,376
1080,3	-7,033
1080,7	-3,462
1081,2	0,224
1081,6	-0,89
1082	-3,776
1082,4	2,052
1082,8	4,824
1083,2	5,938
1083,6	2,71
1084	-0,119
1084,5	3,481
1084,9	3,567
1085,3	-3,09
1085,7	-4,062
1086,1	-1,89
1086,5	-1,605
1086,9	0,31
1087,3	-0,633
1087,7	-3,433
1088,2	1,024
1088,6	-0,833
1089	-0,348
1089,4	-3,548
1089,8	-4,69
1090,2	-3,548
1090,6	-0,805
1091	-2,49
1091,4	-0,205
1091,9	1,11
1092,3	5,367
1092,7	1,538
1093,1	2,224
1093,5	1,138
1093,9	0,738
1094,3	2,595
1094,7	0,767
1095,1	0,824
1095,5	5,967
1096	2,595
1096,4	6,224
1096,8	4,224
1097,2	1,395
1097,6	6,138
1098	5,167
1098,4	6,338
1098,8	7,538
1099,2	11,538
1099,6	13,224
1100,1	11,081
1100,5	5,738
1100,9	4,795
1101,3	4,767
1101,7	3,538
1102,1	-3,09
1102,5	0,195
1102,9	5,938
1103,3	10,11
1103,7	12,281
1104,2	11,024
1104,6	12,681
1105	11,995
1105,4	11,338
1105,8	6,795
1106,2	2,767
1106,6	1,11
1107	0,338
1107,4	0,6
1107,8	2,567
1108,3	-0,483
