Data from Subt2_129.txt Node
Date: Sat Aug 26 18:25:38 MSK 2023
User: vat
Spectrometer: MAYP114033
Trigger mode: 0
Integration Time (sec): 1,000000E0
Scans to average: 5
Electric dark correction enabled: true
Nonlinearity correction enabled: false
Boxcar width: 3
XAxis mode: Wavelengths
Number of Pixels in Spectrum: 2068
>>>>>Begin Spectral Data<<<<<
199,4	0,017
199,9	1,227
200,4	0,867
200,8	2,067
201,3	1,752
201,8	1,781
202,2	-2,533
202,7	1,752
203,2	3,924
203,6	5,095
204,1	2,638
204,6	3,267
205	4,581
205,5	11,581
206	8,438
206,4	5,61
206,9	4,067
207,4	6,895
207,8	3,952
208,3	2,495
208,8	-0,133
209,2	-2,076
209,7	-2,305
210,2	0,581
210,6	-2,162
211,1	0,667
211,5	-1,133
212	0,952
212,5	2,524
212,9	0,952
213,4	-1,79
213,9	0,038
214,3	0,752
214,8	2,61
215,3	-1,362
215,7	-1,219
216,2	3,581
216,7	6,067
217,1	4,552
217,6	7,524
218,1	7,238
218,5	5,324
219	1,41
219,5	-0,248
219,9	-1,59
220,4	7,695
220,9	6,124
221,3	3,724
221,8	9,695
222,3	11,467
222,7	14,467
223,2	12,81
223,6	4,352
224,1	0,838
224,6	5,552
225	1,324
225,5	3,667
226	-1,39
226,4	1,067
226,9	1,81
227,4	3,581
227,8	-4,933
228,3	-5,448
228,8	-5,819
229,2	-1,905
229,7	-3,705
230,2	-3,162
230,6	2,438
231,1	11,352
231,5	13,752
232	12,638
232,5	7,324
232,9	7,552
233,4	9,124
233,9	1,238
234,3	-0,219
234,8	2,352
235,3	-2,333
235,7	2,924
236,2	1,81
236,7	0,724
237,1	4,724
237,6	3,267
238,1	-2,333
238,5	-1,933
239	1,324
239,4	4,495
239,9	-0,048
240,4	-0,59
240,8	4,838
241,3	1,381
241,8	3,838
242,2	-2,619
242,7	-4,105
243,2	-1,819
243,6	-4,59
244,1	-8,39
244,6	-0,648
245	1,981
245,5	3,238
245,9	-0,448
246,4	-1,762
246,9	0,381
247,3	1,867
247,8	-1,076
248,3	0,981
248,7	-0,962
249,2	3,181
249,7	2,695
250,1	5,352
250,6	2,752
251	9,695
251,5	6,038
252	7,695
252,4	6,01
252,9	6,238
253,4	0,01
253,8	-4,362
254,3	-12,705
254,8	-11,762
255,2	-15,905
255,7	-17,162
256,1	-15,676
256,6	-12,676
257,1	-5,219
257,5	-2,162
258	-3,933
258,5	-0,876
258,9	0,295
259,4	-1,705
259,9	-0,848
260,3	-9,762
260,8	-12,105
261,2	-10,39
261,7	-6,419
262,2	-7,105
262,6	-5,333
263,1	-6,876
263,6	1,724
264	7,752
264,5	11,352
264,9	6,324
265,4	7,752
265,9	10,238
266,3	12,81
266,8	12,924
267,3	8,267
267,7	4,067
268,2	6,41
268,7	7,438
269,1	5,324
269,6	3,21
270	2,781
270,5	0,438
271	2,381
271,4	-1,133
271,9	-6,676
272,4	-1,076
272,8	1,238
273,3	1,924
273,7	4,867
274,2	1,952
274,7	7,667
275,1	11,981
275,6	9,267
276,1	4,981
276,5	5,752
277	5,781
277,4	6,095
277,9	4,295
278,4	4,438
278,8	2,667
279,3	5,095
279,8	4,552
280,2	4,438
280,7	7,495
281,1	6,267
281,6	4,495
282,1	1,495
282,5	1,01
283	-0,59
283,4	-3,876
283,9	-5,962
284,4	-3,648
284,8	-1,762
285,3	-0,59
285,8	-0,733
286,2	-1,19
286,7	2,524
287,1	0,838
287,6	-2,133
288,1	-3,419
288,5	0,667
289	0,267
289,5	1,41
289,9	0,695
290,4	4,924
290,8	7,21
291,3	5,467
291,8	7,038
292,2	7,438
292,7	12,895
293,1	10,124
293,6	8,295
294,1	7,324
294,5	11,381
295	8,181
295,5	6,752
295,9	-1,219
296,4	0,981
296,8	1,81
297,3	2,495
297,8	-4,59
298,2	-7,219
298,7	-1,79
299,1	-1,962
299,6	-0,19
300,1	3,61
300,5	1,381
301	11,295
301,5	15,352
301,9	10,952
302,4	10,895
302,8	8,295
303,3	6,61
303,8	7,524
304,2	3,21
304,7	-1,676
305,1	-3,562
305,6	0,895
306,1	9,895
306,5	9,838
307	12,581
307,4	12,438
307,9	12,638
308,4	12,695
308,8	8,21
309,3	2,638
309,8	0,495
310,2	-1,962
310,7	-3,276
311,1	2,095
311,6	5,61
312,1	4,952
312,5	3,267
313	1,867
313,4	0,838
313,9	2,352
314,4	-2,305
314,8	-6,79
315,3	-7,162
315,7	-8,505
316,2	-8,962
316,7	-9,419
317,1	-5,819
317,6	-5,648
318	0,752
318,5	1,524
319	5,495
319,4	5,467
319,9	11,61
320,3	8,981
320,8	6,552
321,3	6,381
321,7	7,952
322,2	3,667
322,6	4,552
323,1	-1,59
323,6	-0,819
324	-1,333
324,5	-4,19
324,9	-3,019
325,4	-4,019
325,9	0,581
326,3	7,01
326,8	5,352
327,2	1,895
327,7	3,238
328,2	-0,133
328,6	5,438
329,1	-1,448
329,5	-5,99
330	-4,59
330,5	2,61
330,9	0,952
331,4	5,181
331,8	0,981
332,3	5,638
332,8	6,381
333,2	6,21
333,7	10,038
334,1	12,552
334,6	5,01
335,1	-0,819
335,5	-2,162
336	-8,076
336,4	-5,705
336,9	-4,648
337,4	-4,762
337,8	-3,533
338,3	4,352
338,7	9,01
339,2	9,752
339,7	5,952
340,1	-1,076
340,6	-1,648
341	-0,733
341,5	-5,105
342	-10,705
342,4	-9,933
342,9	-9,505
343,3	-8,819
343,8	-10,276
344,2	-6,562
344,7	0,067
345,2	-1,448
345,6	-2,819
346,1	-2,562
346,5	-4,362
347	-7,105
347,5	-11,99
347,9	-8,99
348,4	-4,619
348,8	3,152
349,3	6,724
349,8	9,667
350,2	15,067
350,7	15,495
351,1	8,952
351,6	9,838
352	10,124
352,5	12,724
353	21,124
353,4	27,324
353,9	38,838
354,3	50,924
354,8	54,238
355,3	64,152
355,7	76,638
356,2	89,867
356,6	105,41
357,1	128,867
357,5	151,838
358	185,467
358,5	216,81
358,9	253,01
359,4	293,21
359,8	336,524
360,3	389,01
360,8	441,724
361,2	498,667
361,7	569,295
362,1	644,038
362,6	728,867
363	818,467
363,5	909,152
364	1015,381
364,4	1118,838
364,9	1218,895
365,3	1316,81
365,8	1406,895
366,3	1496,495
366,7	1577,095
367,2	1645,952
367,6	1704,324
368,1	1751,295
368,5	1781,181
369	1799,981
369,5	1808,952
369,9	1793,752
370,4	1765,238
370,8	1730,21
371,3	1675,038
371,7	1616,524
372,2	1544,267
372,7	1462,581
373,1	1383,21
373,6	1301,952
374	1220,838
374,5	1142,638
374,9	1064,981
375,4	991,552
375,9	921,724
376,3	855,495
376,8	787,724
377,2	722,895
377,7	659,695
378,2	603,61
378,6	553,295
379,1	505,295
379,5	461,41
380	423,867
380,4	388,524
380,9	356,724
381,4	323,695
381,8	300,752
382,3	282,181
382,7	263,895
383,2	244,724
383,6	228,295
384,1	216,21
384,6	206,181
385	188,61
385,5	168,952
385,9	150,638
386,4	138,01
386,8	128,181
387,3	121,152
387,7	115,095
388,2	112,438
388,7	107,381
389,1	108,438
389,6	103,41
390	97,295
390,5	93,267
390,9	86,467
391,4	76,438
391,9	72,324
392,3	64,21
392,8	58,267
393,2	53,267
393,7	47,524
394,1	42,952
394,6	41,552
395,1	40,952
395,5	39,61
396	38,752
396,4	39,638
396,9	38,352
397,3	43,438
397,8	46,095
398,2	46,038
398,7	45,438
399,2	47,495
399,6	47,838
400,1	49,267
400,5	38,438
401	37,781
401,4	31,895
401,9	33,752
402,4	35,895
402,8	29,038
403,3	31,781
403,7	32,667
404,2	33,952
404,6	37,81
405,1	37,781
405,5	34,238
406	35,838
406,5	35,381
406,9	42,81
407,4	42,924
407,8	46,981
408,3	52,267
408,7	54,438
409,2	62,181
409,6	68,752
410,1	74,952
410,6	83,267
411	87,981
411,5	91,838
411,9	100,01
412,4	108,924
412,8	112,724
413,3	121,581
413,7	126,238
414,2	128,124
414,7	142,01
415,1	154,581
415,6	165,581
416	174,838
416,5	181,267
416,9	189,667
417,4	210,467
417,8	220,295
418,3	232,638
418,8	244,41
419,2	258,638
419,7	272,495
420,1	291,981
420,6	299,524
421	312,095
421,5	328,524
421,9	345,295
422,4	363,495
422,8	382,067
423,3	397,038
423,8	418,667
424,2	439,61
424,7	463,752
425,1	487,695
425,6	511,867
426	537,295
426,5	566,181
426,9	598,238
427,4	622,81
427,9	649,181
428,3	675,381
428,8	705,695
429,2	738,095
429,7	775,038
430,1	806,095
430,6	851,381
431	896,724
431,5	949,41
431,9	995,952
432,4	1050,352
432,8	1105,152
433,3	1164,638
433,8	1220,524
434,2	1274,352
434,7	1338,295
435,1	1406,181
435,6	1476,952
436	1544,267
436,5	1627,352
436,9	1700,238
437,4	1784,838
437,8	1864,495
438,3	1947,61
438,8	2032,038
439,2	2126,924
439,7	2213,952
440,1	2323,381
440,6	2430,41
441	2533,61
441,5	2652,381
441,9	2776,924
442,4	2894,41
442,8	3015,352
443,3	3140,781
443,7	3271,495
444,2	3416,952
444,7	3553,695
445,1	3691,067
445,6	3841,981
446	4002,638
446,5	4145,724
446,9	4295,21
447,4	4456,838
447,8	4624,838
448,3	4795,352
448,7	4965,724
449,2	5138,638
449,6	5336,524
450,1	5523,667
450,6	5709,552
451	5901,21
451,5	6100,438
451,9	6308,41
452,4	6521,438
452,8	6719,181
453,3	6940,095
453,7	7154,124
454,2	7376,267
454,6	7595,095
455,1	7816,724
455,5	8038,21
456	8270,124
456,4	8495,838
456,9	8733,438
457,3	8968,695
457,8	9207,352
458,3	9444,552
458,7	9692,352
459,2	9950,41
459,6	10199,552
460,1	10447,952
460,5	10690,838
461	10945,01
461,4	11188,467
461,9	11446,238
462,3	11696,667
462,8	11947,838
463,2	12206,895
463,7	12469,438
464,1	12734,124
464,6	13004,238
465	13252,524
465,5	13497,924
466	13772,61
466,4	14026,467
466,9	14279,752
467,3	14524,267
467,8	14776,638
468,2	15013,438
468,7	15264,41
469,1	15498,152
469,6	15735,495
470	15980,495
470,5	16218,867
470,9	16450,724
471,4	16680,295
471,8	16903,552
472,3	17132,381
472,7	17348,638
473,2	17562,924
473,6	17769,324
474,1	17976,81
474,5	18177,952
475	18372,695
475,4	18559,095
475,9	18752,867
476,4	18934,352
476,8	19130,181
477,3	19304,381
477,7	19497,981
478,2	19670,21
478,6	19824,438
479,1	19971,981
479,5	20111,152
480	20232,552
480,4	20374,267
480,9	20483,838
481,3	20603,981
481,8	20715,324
482,2	20828,01
482,7	20936,381
483,1	21038,352
483,6	21118,01
484	21215,238
484,5	21297,438
484,9	21375,752
485,4	21441,495
485,8	21489,752
486,3	21542,724
486,7	21589,381
487,2	21614,181
487,6	21645,01
488,1	21661,81
488,5	21671,638
489	21706,581
489,4	21712,438
489,9	21712,867
490,4	21714,895
490,8	21700,638
491,3	21684,752
491,7	21678,581
492,2	21650,924
492,6	21611,095
493,1	21573,324
493,5	21517,895
494	21466,667
494,4	21419,324
494,9	21353,924
495,3	21276,095
495,8	21219,552
496,2	21151,467
496,7	21075,038
497,1	21007,152
497,6	20922,61
498	20834,067
498,5	20758,324
498,9	20655,467
499,4	20561,61
499,8	20478,638
500,3	20377,495
500,7	20283,038
501,2	20169,781
501,6	20046,295
502,1	19927,781
502,5	19816,581
503	19697,552
503,4	19581,095
503,9	19457,61
504,3	19350,838
504,8	19228,524
505,2	19116,067
505,7	18983,495
506,1	18852,41
506,6	18711,781
507	18569,295
507,5	18416,781
507,9	18278,324
508,4	18133,438
508,8	17988,524
509,3	17838,152
509,7	17695,095
510,2	17556,095
510,6	17424,181
511,1	17272,038
511,5	17119,524
512	16971,81
512,4	16826,552
512,9	16661,067
513,3	16503,695
513,8	16346,381
514,2	16201,295
514,7	16049,381
515,1	15884,324
515,6	15719,838
516	15570,01
516,5	15411,981
516,9	15249,781
517,4	15096,638
517,8	14943,81
518,3	14793,524
518,7	14644,552
519,2	14492,01
519,6	14341,01
520,1	14194,867
520,5	14043,81
521	13878,838
521,4	13728,952
521,9	13585,438
522,3	13434,067
522,8	13292,61
523,2	13136,438
523,7	12987,124
524,1	12852,838
524,6	12708,895
525	12564,81
525,5	12427,924
525,9	12284,267
526,4	12150,238
526,8	12010,895
527,3	11882,21
527,7	11750,267
528,2	11618,038
528,6	11479,095
529,1	11341,581
529,5	11217,724
530	11098,381
530,4	10970,581
530,9	10847,867
531,3	10733,352
531,8	10629,324
532,2	10510,124
532,6	10379,61
533,1	10253,724
533,5	10141,924
534	10025,952
534,4	9905,124
534,9	9781,752
535,3	9677,095
535,8	9571,724
536,2	9455,895
536,7	9341,124
537,1	9233,981
537,6	9122,295
538	9019,495
538,5	8915,267
538,9	8803,524
539,4	8710,352
539,8	8611,895
540,3	8517,295
540,7	8422,752
541,2	8328,867
541,6	8234,667
542,1	8152,438
542,5	8063,895
543	7975,524
543,4	7878,667
543,9	7794,952
544,3	7704,438
544,8	7622,724
545,2	7540,267
545,7	7459,952
546,1	7381,467
546,5	7299,724
547	7219,124
547,4	7150,067
547,9	7067,781
548,3	6994,581
548,8	6914,895
549,2	6835,324
549,7	6772,152
550,1	6711,324
550,6	6638,352
551	6572,267
551,5	6501,181
551,9	6431,81
552,4	6371,667
552,8	6298,238
553,3	6215,524
553,7	6148,095
554,2	6095,638
554,6	6042,467
555,1	5986,181
555,5	5925,181
555,9	5869,21
556,4	5814,667
556,8	5757,838
557,3	5693,41
557,7	5630,295
558,2	5570,724
558,6	5519,181
559,1	5466,067
559,5	5419,095
560	5365,695
560,4	5310,581
560,9	5265,952
561,3	5224,638
561,8	5172,124
562,2	5127,352
562,7	5083,867
563,1	5042,867
563,6	4996,238
564	4946,181
564,4	4894,352
564,9	4847,181
565,3	4798,238
565,8	4743,981
566,2	4701,724
566,7	4662,724
567,1	4620,924
567,6	4584,981
568	4549,21
568,5	4506,667
568,9	4474,41
569,4	4432,981
569,8	4393,838
570,3	4358,01
570,7	4315,724
571,1	4276,781
571,6	4249,41
572	4216,352
572,5	4183,467
572,9	4150,152
573,4	4112,267
573,8	4082,295
574,3	4040,181
574,7	4003,381
575,2	3963,095
575,6	3925,095
576,1	3894,524
576,5	3859,781
576,9	3818,01
577,4	3787,352
577,8	3747,152
578,3	3714,267
578,7	3680,724
579,2	3648,238
579,6	3625,095
580,1	3595,581
580,5	3569,981
581	3540,924
581,4	3511,495
581,9	3473,524
582,3	3440,038
582,7	3408,01
583,2	3381,981
583,6	3357,867
584,1	3335,552
584,5	3309,581
585	3293,095
585,4	3262,381
585,9	3232,095
586,3	3207,781
586,8	3178,467
587,2	3154,724
587,6	3131,81
588,1	3108,181
588,5	3086,352
589	3062,838
589,4	3038,324
589,9	3014,724
590,3	2987,21
590,8	2965,867
591,2	2945,095
591,7	2930,438
592,1	2913,61
592,5	2898,152
593	2873,952
593,4	2851,81
593,9	2824,038
594,3	2797,667
594,8	2775,495
595,2	2752,81
595,7	2733,781
596,1	2713,352
596,6	2699,81
597	2685,438
597,4	2669,324
597,9	2648,867
598,3	2635,267
598,8	2609,867
599,2	2596,524
599,7	2581,295
600,1	2564,295
600,6	2550,124
601	2534,038
601,4	2526,638
601,9	2514,981
602,3	2499,724
602,8	2480,152
603,2	2462,895
603,7	2442,495
604,1	2426,181
604,6	2392,181
605	2369,752
605,4	2348,695
605,9	2327,867
606,3	2307,295
606,8	2288,81
607,2	2273,495
607,7	2259,038
608,1	2250,181
608,6	2240,781
609	2233,981
609,4	2225,381
609,9	2211,295
610,3	2194,552
610,8	2180,038
611,2	2164,667
611,7	2145,295
612,1	2129,067
612,6	2118,438
613	2111,495
613,4	2096,781
613,9	2084,638
614,3	2066,781
614,8	2054,238
615,2	2034,467
615,7	2019,981
616,1	1999,895
616,6	1979,381
617	1963,667
617,4	1950,867
617,9	1939,838
618,3	1930,152
618,8	1918,067
619,2	1909,124
619,7	1906,124
620,1	1894,867
620,5	1883,667
621	1864,495
621,4	1856,61
621,9	1836,467
622,3	1824,924
622,8	1805,181
623,2	1796,524
623,6	1780,124
624,1	1770,867
624,5	1755,038
625	1749,467
625,4	1733,01
625,9	1723,981
626,3	1706,324
626,8	1694,295
627,2	1682,81
627,6	1662,552
628,1	1645,667
628,5	1639,124
629	1624,038
629,4	1613,067
629,9	1601,267
630,3	1585,095
630,7	1574,295
631,2	1561,638
631,6	1549,952
632,1	1543,752
632,5	1535,581
633	1525,695
633,4	1518,552
633,8	1515,181
634,3	1510,01
634,7	1495,952
635,2	1479,952
635,6	1466,495
636,1	1455,724
636,5	1438,067
636,9	1420,781
637,4	1406,152
637,8	1394,238
638,3	1380,895
638,7	1368,352
639,2	1353,581
639,6	1350,152
640	1343,067
640,5	1331,238
640,9	1321,438
641,4	1319,01
641,8	1314,067
642,2	1309,867
642,7	1308,781
643,1	1300,838
643,6	1293,095
644	1287,838
644,5	1281,924
644,9	1273,095
645,3	1265,838
645,8	1246,324
646,2	1241,552
646,7	1235,724
647,1	1222,581
647,6	1214,381
648	1209,41
648,4	1198,124
648,9	1197,524
649,3	1186,724
649,8	1175,781
650,2	1172,667
650,6	1164,895
651,1	1155,438
651,5	1150,124
652	1136,524
652,4	1124,638
652,9	1116,981
653,3	1107,952
653,7	1096,41
654,2	1086,581
654,6	1077,352
655,1	1075,038
655,5	1077,467
655,9	1073,067
656,4	1067,01
656,8	1059,752
657,3	1056,295
657,7	1050,095
658,2	1035,895
658,6	1021,724
659	1017,21
659,5	1008,21
659,9	1003,21
660,4	993,752
660,8	984,438
661,2	982,638
661,7	978,981
662,1	968,152
662,6	960,495
663	954,867
663,4	946,381
663,9	944,438
664,3	938,267
664,8	928,295
665,2	918,352
665,6	912,552
666,1	904,238
666,5	899,295
667	891,495
667,4	883,781
667,9	880,41
668,3	875,638
668,7	871,038
669,2	869,981
669,6	862,638
670,1	856,467
670,5	849,81
670,9	840,21
671,4	835,438
671,8	827,695
672,3	824,61
672,7	820,895
673,1	807,552
673,6	798,267
674	792,867
674,5	787,181
674,9	776,61
675,3	759,552
675,8	753,067
676,2	751,781
676,7	751,324
677,1	748,467
677,5	741,952
678	740,695
678,4	739,152
678,9	733,21
679,3	729,724
679,7	720,181
680,2	709,381
680,6	703,781
681,1	698,81
681,5	696,095
681,9	690,21
682,4	686,838
682,8	683,924
683,3	684,695
683,7	684,81
684,1	680,181
684,6	673,067
685	666,581
685,5	661,581
685,9	650,438
686,3	641,267
686,8	633,752
687,2	631,952
687,7	624,495
688,1	617,295
688,5	610,095
689	611,495
689,4	607,924
689,9	603,781
690,3	592,524
690,7	591,867
691,2	593,524
691,6	590,295
692	586,895
692,5	585,838
692,9	579,924
693,4	577,952
693,8	573,524
694,2	565,01
694,7	559,61
695,1	553,381
695,6	547,581
696	547,495
696,4	545,467
696,9	535,01
697,3	530,238
697,8	528,638
698,2	521,867
698,6	520,867
699,1	512,124
699,5	512,21
699,9	514,381
700,4	508,952
700,8	505,095
701,3	505,467
701,7	499,41
702,1	497,581
702,6	485,524
703	481,038
703,5	481,924
703,9	477,952
704,3	474,324
704,8	468,324
705,2	462,524
705,6	464,238
706,1	462,467
706,5	452,752
707	448,61
707,4	448,552
707,8	448,01
708,3	448,267
708,7	443,924
709,2	437,895
709,6	442,41
710	442,038
710,5	435,581
710,9	431,467
711,3	425,181
711,8	424,038
712,2	426,524
712,7	420,095
713,1	418,924
713,5	417,01
714	413,895
714,4	413,181
714,8	409,41
715,3	400,324
715,7	398,352
716,2	386,867
716,6	384,41
717	383,124
717,5	374,952
717,9	371,181
718,3	366,981
718,8	362,267
719,2	362,352
719,7	359,581
720,1	355,981
720,5	358,324
721	353,952
721,4	352,552
721,8	355,495
722,3	352,01
722,7	349,381
723,2	341,21
723,6	331,981
724	330,61
724,5	327,895
724,9	323,21
725,3	320,01
725,8	316,381
726,2	316,952
726,7	318,495
727,1	315,724
727,5	315,01
728	310,552
728,4	309,895
728,8	305,324
729,3	303,21
729,7	300,895
730,1	299,352
730,6	297,181
731	293,552
731,5	287,867
731,9	290,867
732,3	291,467
732,8	294,952
733,2	293,867
733,6	291,895
734,1	293,867
734,5	294,238
734,9	293,438
735,4	291,752
735,8	281,067
736,3	280,895
736,7	273,581
737,1	270,895
737,6	268,81
738	263,324
738,4	261,838
738,9	266,924
739,3	260,352
739,7	262,724
740,2	258,781
740,6	262,238
741,1	262,295
741,5	256,067
741,9	255,467
742,4	259,352
742,8	259,724
743,2	261,724
743,7	256,552
744,1	255,552
744,5	251,952
745	244,438
745,4	236,667
745,8	231,724
746,3	225,924
746,7	224,524
747,2	224,381
747,6	230,981
748	235,838
748,5	239,381
748,9	235,667
749,3	234,524
749,8	233,381
750,2	227,21
750,6	219,61
751,1	219,095
751,5	217,552
751,9	222,438
752,4	226,438
752,8	228,21
753,3	227,295
753,7	230,41
754,1	224,81
754,6	223,552
755	219,41
755,4	214,381
755,9	208,581
756,3	205,952
756,7	205,352
757,2	205,638
757,6	201,781
758	200,038
758,5	199,267
758,9	197,295
759,3	199,552
759,8	193,41
760,2	191,238
760,6	185,01
761,1	183,838
761,5	180,124
761,9	177,181
762,4	171,21
762,8	169,324
763,3	168,581
763,7	172,638
764,1	171,952
764,6	171,867
765	178,724
765,4	180,752
765,9	184,01
766,3	183,067
766,7	179,438
767,2	175,352
767,6	177,238
768	170,21
768,5	167,61
768,9	164,01
769,3	161,524
769,8	158,524
770,2	163,81
770,6	161,438
771,1	165,295
771,5	166,695
771,9	171,181
772,4	171,524
772,8	169,752
773,2	165,01
773,7	161,552
774,1	156,152
774,5	152,21
775	146,495
775,4	143,895
775,8	145,552
776,3	147,152
776,7	145,981
777,1	148,01
777,6	149,238
778	153,152
778,4	148,581
778,9	150,324
779,3	143,981
779,7	145,038
780,2	144,924
780,6	143,552
781	137,638
781,5	138,952
781,9	140,924
782,3	141,124
782,8	143,495
783,2	138,324
783,6	138,124
784,1	137,638
784,5	139,21
784,9	133,724
785,4	134,667
785,8	137,067
786,2	137,724
786,7	135,01
787,1	128,352
787,5	125,638
788	128,438
788,4	129,467
788,8	119,724
789,3	119,21
789,7	121,752
790,1	126,61
790,6	122,924
791	120,095
791,4	116,41
791,9	116,524
792,3	113,181
792,7	112,895
793,2	110,152
793,6	113,067
794	113,724
794,5	116,381
794,9	118,981
795,3	122,267
795,8	122,552
796,2	125,724
796,6	128,324
797,1	121,924
797,5	116,438
797,9	110,324
798,4	106,924
798,8	100,381
799,2	98,152
799,7	97,495
800,1	97,724
800,5	99,41
801	105,467
801,4	105,752
801,8	103,867
802,2	102,295
802,7	97,381
803,1	99,181
803,5	100,095
804	92,61
804,4	89,01
804,8	91,781
805,3	94,61
805,7	93,01
806,1	91,324
806,6	90,095
807	92,552
807,4	94,524
807,9	90,638
808,3	87,267
808,7	91,981
809,2	95,41
809,6	94,981
810	95,552
810,4	96,038
810,9	96,895
811,3	97,067
811,7	88,61
812,2	88,181
812,6	85,238
813	86,038
813,5	84,752
813,9	88,752
814,3	84,981
814,8	88,21
815,2	83,095
815,6	81,752
816,1	78,867
816,5	78,01
816,9	74,381
817,3	77,21
817,8	82,81
818,2	83,952
818,6	86,295
819,1	84,924
819,5	85,895
819,9	85,638
820,4	84,352
820,8	77,467
821,2	73,267
821,7	75,295
822,1	77,01
822,5	76,867
822,9	72,267
823,4	71,924
823,8	72,61
824,2	73,524
824,7	67,638
825,1	62,067
825,5	58,552
826	57,01
826,4	56,61
826,8	56,01
827,3	60,524
827,7	61,752
828,1	65,724
828,5	65,752
829	66,467
829,4	65,752
829,8	60,038
830,3	57,495
830,7	55,581
831,1	52,838
831,6	49,238
832	51,381
832,4	48,724
832,8	54,952
833,3	54,552
833,7	52,152
834,1	55,238
834,6	56,667
835	60,952
835,4	64,124
835,8	62,267
836,3	59,181
836,7	63,038
837,1	60,324
837,6	63,381
838	57,495
838,4	55,895
838,9	54,724
839,3	54,61
839,7	55,924
840,1	50,867
840,6	46,924
841	48,695
841,4	44,181
841,9	47,467
842,3	48,41
842,7	44,638
843,1	45,952
843,6	47,381
844	47,524
844,4	53,21
844,9	50,752
845,3	51,524
845,7	50,581
846,2	50,867
846,6	49,867
847	51,181
847,4	49,781
847,9	47,81
848,3	47,867
848,7	51,467
849,2	54,467
849,6	50,895
850	49,724
850,4	48,267
850,9	49,038
851,3	47,724
851,7	45,381
852,2	40,667
852,6	43,324
853	42,467
853,4	38,61
853,9	36,438
854,3	35,181
854,7	36,495
855,2	36,924
855,6	38,238
856	36,981
856,4	39,152
856,9	37,752
857,3	36,181
857,7	36,667
858,2	39,21
858,6	35,095
859	35,981
859,4	34,324
859,9	32,438
860,3	31,038
860,7	27,924
861,1	26,667
861,6	29,381
862	26,181
862,4	28,352
862,9	32,21
863,3	36,524
863,7	38,895
864,1	42,41
864,6	42,552
865	45,695
865,4	45,238
865,9	48,352
866,3	41,638
866,7	38,61
867,1	33,981
867,6	32,895
868	28,21
868,4	26,81
868,8	21,295
869,3	24,267
869,7	25,581
870,1	21,41
870,6	19,038
871	17,952
871,4	22,467
871,8	21,352
872,3	22,438
872,7	23,61
873,1	28,467
873,5	28,381
874	28,41
874,4	27,038
874,8	25,981
875,3	26,152
875,7	23,467
876,1	24,01
876,5	26,724
877	28,495
877,4	25,581
877,8	28,095
878,2	28,895
878,7	30,638
879,1	29,095
879,5	29,067
879,9	30,41
880,4	30,152
880,8	32,267
881,2	30,524
881,7	28,295
882,1	27,324
882,5	24,924
882,9	24,324
883,4	21,381
883,8	20,524
884,2	20,152
884,6	20,324
885,1	22,867
885,5	23,067
885,9	19,838
886,3	25,895
886,8	23,838
887,2	24,581
887,6	21,552
888	13,038
888,5	13,238
888,9	14,552
889,3	11,295
889,8	9,352
890,2	7,952
890,6	5,695
891	13,381
891,5	13,724
891,9	14,067
892,3	13,124
892,7	16,981
893,2	15,724
893,6	22,752
894	23,61
894,4	17,552
894,9	19,238
895,3	20,038
895,7	19,981
896,1	19,838
896,6	15,295
897	15,867
897,4	24,381
897,8	22,952
898,3	19,667
898,7	15,267
899,1	14,267
899,5	17,438
900	9,724
900,4	6,638
900,8	7,038
901,2	7,21
901,7	5,752
902,1	7,752
902,5	2,01
902,9	4,61
903,4	4,61
903,8	6,238
904,2	7,352
904,6	10,21
905,1	9,381
905,5	11,124
905,9	13,095
906,3	15,667
906,8	15,552
907,2	16,524
907,6	18,181
908	17,295
908,5	16,838
908,9	15,838
909,3	12,295
909,7	11,924
910,2	13,981
910,6	17,581
911	15,381
911,4	19,524
911,9	19,981
912,3	17,924
912,7	20,524
913,1	18,781
913,6	11,267
914	14,724
914,4	10,324
914,8	9,467
915,3	9,324
915,7	2,438
916,1	2,695
916,5	5,152
916,9	6,895
917,4	9,495
917,8	9,724
918,2	6,81
918,6	6,352
919,1	2,352
919,5	5,552
919,9	4,267
920,3	2,381
920,8	1,152
921,2	5,238
921,6	6,267
922	8,038
922,5	2,724
922,9	3,667
923,3	2,495
923,7	3,295
924,2	1,295
924,6	6,267
925	7,895
925,4	9,581
925,8	5,295
926,3	2,838
926,7	0,952
927,1	6,438
927,5	4,638
928	-1,19
928,4	-7,762
928,8	-4,076
929,2	-1,505
929,7	3,352
930,1	-0,219
930,5	-3,533
930,9	0,667
931,3	5,352
931,8	4,01
932,2	3,038
932,6	0,181
933	-5,962
933,5	-2,762
933,9	-4,276
934,3	-2,362
934,7	-6,362
935,2	-5,533
935,6	-7,962
936	-2,533
936,4	-3,39
936,8	1,981
937,3	1,181
937,7	6,267
938,1	8,924
938,5	8,01
939	9,581
939,4	6,867
939,8	4,038
940,2	2,695
940,6	2,438
941,1	1,095
941,5	8,095
941,9	2,838
942,3	1,81
942,8	2,838
943,2	5,638
943,6	-0,162
944	-0,59
944,4	-3,305
944,9	-1,305
945,3	-1,048
945,7	-6,533
946,1	-10,276
946,6	-5,076
947	-4,362
947,4	-2,248
947,8	1,21
948,2	3,981
948,7	7,381
949,1	7,467
949,5	12,152
949,9	8,952
950,3	5,752
950,8	3,781
951,2	0,438
951,6	-1,876
952	2,581
952,5	-3,905
952,9	-1,419
953,3	-2,705
953,7	-1,648
954,1	1,924
954,6	4,552
955	3,295
955,4	2,667
955,8	2,838
956,2	3,067
956,7	2,552
957,1	-0,648
957,5	2,695
957,9	2,352
958,3	4,838
958,8	5,981
959,2	9,667
959,6	12,61
960	12,695
960,5	13,41
960,9	15,695
961,3	11,924
961,7	9,581
962,1	8,01
962,6	4,152
963	6,181
963,4	1,752
963,8	-3,562
964,2	1,895
964,7	4,152
965,1	2,895
965,5	2,61
965,9	0,895
966,3	0,495
966,8	2,01
967,2	-2,933
967,6	-3,648
968	-4,619
968,4	-1,819
968,9	-1,705
969,3	2,952
969,7	-1,219
970,1	2,41
970,5	0,495
971	5,924
971,4	3,41
971,8	3,638
972,2	3,552
972,6	6,524
973,1	5,238
973,5	7,495
973,9	3,895
974,3	5,495
974,7	8,238
975,2	6,924
975,6	8,952
976	10,038
976,4	9,095
976,8	8,838
977,3	6,924
977,7	3,638
978,1	0,152
978,5	-3,705
978,9	-9,448
979,4	-12,019
979,8	-14,476
980,2	-14,905
980,6	-15,305
981	-12,79
981,5	-9,333
981,9	-8,476
982,3	-2,962
982,7	-2,162
983,1	-4,59
983,6	-3,733
984	-2,219
984,4	0,724
984,8	4,095
985,2	2,867
985,6	4,352
986,1	8,867
986,5	11,21
986,9	5,181
987,3	5,295
987,7	3,324
988,2	1,981
988,6	5,41
989	3,724
989,4	3,895
989,8	7,695
990,3	5,838
990,7	10,324
991,1	9,267
991,5	6,41
991,9	9,695
992,3	11,01
992,8	9,552
993,2	11,895
993,6	12,152
994	16,038
994,4	18,352
994,9	17,038
995,3	13,438
995,7	10,495
996,1	5,038
996,5	1,81
996,9	-6,905
997,4	-3,505
997,8	-5,448
998,2	-8,133
998,6	-12,19
999	-10,705
999,5	-12,819
999,9	-8,733
1000,3	-15,933
1000,7	-15,448
1001,1	-14,362
1001,5	-6,705
1002	0,867
1002,4	6,152
1002,8	8,781
1003,2	12,067
1003,6	16,924
1004	16,552
1004,5	12,352
1004,9	11,01
1005,3	5,952
1005,7	5,238
1006,1	0,781
1006,6	-3,019
1007	1,095
1007,4	2,324
1007,8	-5,076
1008,2	-4,848
1008,6	-0,019
1009,1	-1,19
1009,5	0,495
1009,9	-0,476
1010,3	3,41
1010,7	6,124
1011,1	7,781
1011,6	3,267
1012	7,324
1012,4	4,238
1012,8	2,467
1013,2	3,095
1013,6	2,267
1014,1	5,581
1014,5	4,981
1014,9	2,952
1015,3	2,381
1015,7	2,438
1016,1	1,695
1016,6	1,238
1017	0,152
1017,4	-1,362
1017,8	-1,962
1018,2	2,095
1018,6	2,238
1019,1	-1,962
1019,5	-0,876
1019,9	-5,819
1020,3	-4,419
1020,7	-0,448
1021,1	-4,276
1021,6	-7,419
1022	-1,362
1022,4	-2,648
1022,8	-1,076
1023,2	-0,99
1023,6	-2,019
1024,1	0,41
1024,5	0,438
1024,9	-3,448
1025,3	-1,248
1025,7	-1,076
1026,1	-1,362
1026,6	-1,505
1027	-5,248
1027,4	-0,933
1027,8	-1,848
1028,2	-7,019
1028,6	-1,476
1029	-3,19
1029,5	1,81
1029,9	2,41
1030,3	-1,59
1030,7	-2,39
1031,1	2,467
1031,5	-5,705
1032	-3,362
1032,4	-10,648
1032,8	-7,648
1033,2	-2,333
1033,6	-0,305
1034	0,267
1034,4	4,581
1034,9	4,038
1035,3	3,981
1035,7	5,067
1036,1	1,467
1036,5	-1,276
1036,9	-1,276
1037,4	-0,162
1037,8	-2,99
1038,2	-1,362
1038,6	-3,733
1039	1,152
1039,4	10,324
1039,8	2,038
1040,3	4,81
1040,7	3,124
1041,1	5,467
1041,5	5,324
1041,9	-1,333
1042,3	-7,819
1042,7	1,467
1043,2	-3,19
1043,6	0,095
1044	-1,19
1044,4	1,81
1044,8	5,781
1045,2	4,952
1045,6	3,067
1046,1	2,152
1046,5	3,981
1046,9	1,438
1047,3	-1,705
1047,7	-4,219
1048,1	-4,105
1048,5	-3,819
1049	1,21
1049,4	6,695
1049,8	10,438
1050,2	9,81
1050,6	11,667
1051	8,267
1051,4	4,267
1051,9	-2,019
1052,3	-0,276
1052,7	-4,305
1053,1	-4,448
1053,5	-3,305
1053,9	0,895
1054,3	2,752
1054,8	9,581
1055,2	5,781
1055,6	10,381
1056	11,61
1056,4	7,952
1056,8	6,581
1057,2	9,724
1057,6	2,981
1058,1	-0,905
1058,5	-7,39
1058,9	-4,676
1059,3	-4,39
1059,7	0,495
1060,1	-0,19
1060,5	5,695
1061	5,038
1061,4	6,295
1061,8	5,381
1062,2	6,41
1062,6	2,895
1063	2,438
1063,4	-1,676
1063,8	0,524
1064,3	0,381
1064,7	-0,733
1065,1	-2,419
1065,5	-3,133
1065,9	-7,162
1066,3	-7,39
1066,7	-11,848
1067,1	-12,59
1067,6	-12,648
1068	-14,048
1068,4	-12,248
1068,8	-6,733
1069,2	-5,562
1069,6	-3,933
1070	-0,048
1070,4	-1,419
1070,9	2,781
1071,3	0,152
1071,7	-4,933
1072,1	-3,648
1072,5	-7,619
1072,9	-9,848
1073,3	-6,762
1073,7	-5,705
1074,2	-2,705
1074,6	2,724
1075	-0,448
1075,4	5,324
1075,8	10,895
1076,2	11,581
1076,6	6,581
1077	5,524
1077,5	3,181
1077,9	-0,733
1078,3	-1,79
1078,7	-7,819
1079,1	-8,848
1079,5	-5,162
1079,9	-3,562
1080,3	-5,59
1080,7	2,781
1081,2	6,838
1081,6	5,952
1082	2,552
1082,4	2,524
1082,8	-1,59
1083,2	0,267
1083,6	1,295
1084	-4,362
1084,5	-0,79
1084,9	2,01
1085,3	-2,733
1085,7	3,181
1086,1	1,067
1086,5	-2,419
1086,9	2,581
1087,3	0,438
1087,7	1,724
1088,2	4,324
1088,6	-3,99
1089	-1,705
1089,4	0,952
1089,8	-2,162
1090,2	-2,676
1090,6	-6,99
1091	-1,248
1091,4	6,724
1091,9	7,81
1092,3	5,41
1092,7	4,867
1093,1	9,667
1093,5	8,638
1093,9	6,181
1094,3	7,381
1094,7	2,552
1095,1	1,752
1095,5	2,124
1096	-3,362
1096,4	0,695
1096,8	-1,248
1097,2	-4,562
1097,6	4,695
1098	4,238
1098,4	4,381
1098,8	9,295
1099,2	12,152
1099,6	12,524
1100,1	9,952
1100,5	3,552
1100,9	5,038
1101,3	4,438
1101,7	-0,79
1102,1	-4,248
1102,5	-0,333
1102,9	2,581
1103,3	4,324
1103,7	4,724
1104,2	3,267
1104,6	7,21
1105	6,267
1105,4	4,467
1105,8	2,324
1106,2	0,895
1106,6	-0,333
1107	2,181
1107,4	0,5
1107,8	1,267
1108,3	-0,783
