Data from Subt2_224.txt Node
Date: Sat Aug 26 18:50:43 MSK 2023
User: vat
Spectrometer: MAYP114033
Trigger mode: 0
Integration Time (sec): 1,000000E0
Scans to average: 5
Electric dark correction enabled: true
Nonlinearity correction enabled: false
Boxcar width: 3
XAxis mode: Wavelengths
Number of Pixels in Spectrum: 2068
>>>>>Begin Spectral Data<<<<<
199,4	-0,567
199,9	3,833
200,4	2,867
200,8	1,519
201,3	-0,738
201,8	0,462
202,2	-1,967
202,7	2,233
203,2	-3,138
203,6	-3,738
204,1	-3,195
204,6	-0,595
205	0,233
205,5	2,205
206	-3,11
206,4	-0,852
206,9	2,09
207,4	6,805
207,8	6,233
208,3	5,433
208,8	6,548
209,2	11,148
209,7	13,348
210,2	15,662
210,6	11,376
211,1	14,348
211,5	10,948
212	12,062
212,5	11,805
212,9	12,348
213,4	7,548
213,9	6,719
214,3	6,405
214,8	10,805
215,3	9,69
215,7	8,433
216,2	10,919
216,7	12,776
217,1	15,719
217,6	19,29
218,1	13,605
218,5	9,976
219	2,262
219,5	0,205
219,9	-6,767
220,4	-2,767
220,9	-9,167
221,3	-4,252
221,8	-1,767
222,3	3,29
222,7	4,348
223,2	9,148
223,6	1,748
224,1	2,29
224,6	2,148
225	1,633
225,5	0,719
226	-2,91
226,4	1,633
226,9	5,062
227,4	6,976
227,8	2,205
228,3	3,148
228,8	6,376
229,2	9,262
229,7	5,605
230,2	2,405
230,6	5,69
231,1	13,376
231,5	14,976
232	17,633
232,5	13,89
232,9	15,262
233,4	20,548
233,9	13,09
234,3	9,89
234,8	7,69
235,3	6,462
235,7	11,205
236,2	8,233
236,7	3,119
237,1	8,433
237,6	6,605
238,1	6,205
238,5	2,376
239	0,576
239,4	8,348
239,9	10,605
240,4	5,748
240,8	10,119
241,3	9,833
241,8	11,176
242,2	5,805
242,7	-0,767
243,2	-1,624
243,6	-6,081
244,1	-3,938
244,6	-1,024
245	-1,938
245,5	3,29
245,9	3,776
246,4	3,919
246,9	10,519
247,3	7,348
247,8	8,376
248,3	9,148
248,7	9,033
249,2	9,462
249,7	8,833
250,1	9,833
250,6	10,833
251	9,605
251,5	12,119
252	8,605
252,4	8,919
252,9	8,29
253,4	6,062
253,8	4,976
254,3	4,919
254,8	2,148
255,2	2,548
255,7	2,405
256,1	4,976
256,6	4,176
257,1	4,719
257,5	3,319
258	3,148
258,5	1,033
258,9	-2,252
259,4	-4,967
259,9	-6,395
260,3	-11,31
260,8	-15,652
261,2	-13,881
261,7	-7,71
262,2	-7,824
262,6	-6,795
263,1	-0,024
263,6	4,776
264	14,348
264,5	18,348
264,9	16,176
265,4	21,376
265,9	17,062
266,3	18,805
266,8	19,976
267,3	16,119
267,7	12,005
268,2	10,976
268,7	12,376
269,1	17,605
269,6	11,205
270	10,262
270,5	9,576
271	11,89
271,4	16,233
271,9	10,348
272,4	12,69
272,8	17,805
273,3	16,29
273,7	14,919
274,2	13,919
274,7	7,605
275,1	10,09
275,6	8,205
276,1	2,976
276,5	3,376
277	2,719
277,4	0,919
277,9	0,519
278,4	3,319
278,8	3,719
279,3	7,948
279,8	7,833
280,2	10,176
280,7	13,348
281,1	14,49
281,6	10,833
282,1	7,662
282,5	5,548
283	4,748
283,4	5,119
283,9	0,262
284,4	3,69
284,8	3,405
285,3	6,576
285,8	5,919
286,2	7,49
286,7	8,719
287,1	8,89
287,6	8,976
288,1	8,148
288,5	7,033
289	3,89
289,5	3,005
289,9	1,176
290,4	4,205
290,8	4,662
291,3	7,29
291,8	11,262
292,2	13,919
292,7	17,405
293,1	16,462
293,6	17,919
294,1	15,548
294,5	14,233
295	13,405
295,5	13,319
295,9	11,719
296,4	6,49
296,8	3,576
297,3	5,005
297,8	-0,024
298,2	-4,367
298,7	-3,31
299,1	-4,252
299,6	-1,91
300,1	-2,624
300,5	-1,167
301	3,633
301,5	5,148
301,9	2,462
302,4	-2,395
302,8	-1,51
303,3	-3,967
303,8	-9,481
304,2	-11,424
304,7	-10,738
305,1	-13,51
305,6	-9,452
306,1	-1,252
306,5	-0,567
307	6,262
307,4	9,405
307,9	7,09
308,4	10,233
308,8	6,033
309,3	-2,567
309,8	-0,738
310,2	-4,224
310,7	-6,024
311,1	-6,052
311,6	-5,138
312,1	-2,081
312,5	4,205
313	8,662
313,4	10,433
313,9	12,433
314,4	10,119
314,8	3,833
315,3	2,062
315,7	-2,71
316,2	-5,481
316,7	-6,738
317,1	-4,738
317,6	-2,824
318	8,062
318,5	8,748
319	6,719
319,4	7,319
319,9	11,948
320,3	13,376
320,8	17,062
321,3	18,462
321,7	19,633
322,2	24,148
322,6	23,119
323,1	19,49
323,6	11,319
324	7,233
324,5	2,519
324,9	4,662
325,4	-1,452
325,9	1,319
326,3	2,005
326,8	8,548
327,2	3,376
327,7	5,033
328,2	1,233
328,6	5,519
329,1	-0,167
329,5	-2,681
330	-5,595
330,5	5,062
330,9	3,462
331,4	5,405
331,8	8,805
332,3	14,262
332,8	17,319
333,2	15,29
333,7	15,548
334,1	16,09
334,6	14,919
335,1	8,633
335,5	6,748
336	4,033
336,4	6,89
336,9	12,433
337,4	16,633
337,8	19,148
338,3	24,005
338,7	26,233
339,2	28,833
339,7	30,433
340,1	22,376
340,6	19,433
341	18,319
341,5	16,662
342	13,319
342,4	8,89
342,9	6,633
343,3	4,233
343,8	3,319
344,2	4,062
344,7	6,205
345,2	2,433
345,6	4,919
346,1	9,862
346,5	8,233
347	4,919
347,5	1,176
347,9	3,433
348,4	7,319
348,8	4,548
349,3	1,262
349,8	6,69
350,2	15,062
350,7	14,548
351,1	12,433
351,6	13,748
352	23,719
352,5	28,748
353	33,405
353,4	35,376
353,9	48,719
354,3	60,319
354,8	71,662
355,3	87,49
355,7	107,576
356,2	128,69
356,6	153,548
357,1	181,862
357,5	213,633
358	256,519
358,5	294,633
358,9	339,805
359,4	398,833
359,8	457,176
360,3	530,833
360,8	604,976
361,2	689,319
361,7	789,348
362,1	897,205
362,6	1007,862
363	1133,005
363,5	1259,948
364	1405,833
364,4	1545,319
364,9	1681,833
365,3	1815,176
365,8	1942,005
366,3	2063,433
366,7	2172,29
367,2	2264,49
367,6	2336,519
368,1	2396,948
368,5	2443,29
369	2467,29
369,5	2475,033
369,9	2456,776
370,4	2420,119
370,8	2376,576
371,3	2307,29
371,7	2223,948
372,2	2132,605
372,7	2027,148
373,1	1921,948
373,6	1808,405
374	1694,919
374,5	1583,462
374,9	1476,719
375,4	1372,09
375,9	1273,062
376,3	1177,69
376,8	1085,833
377,2	997,119
377,7	915,319
378,2	834,776
378,6	762,605
379,1	696,148
379,5	638,519
380	589,433
380,4	543,948
380,9	504,148
381,4	464,233
381,8	432,062
382,3	401,89
382,7	370,49
383,2	343,376
383,6	315,833
384,1	290,833
384,6	275,69
385	254,205
385,5	237,119
385,9	216,662
386,4	201,776
386,8	192,29
387,3	181,005
387,7	166,176
388,2	155,976
388,7	141,319
389,1	133,633
389,6	124,862
390	113,69
390,5	108,005
390,9	104,176
391,4	96,262
391,9	89,69
392,3	87,119
392,8	76,748
393,2	67,919
393,7	62,833
394,1	55,862
394,6	52,89
395,1	59,462
395,5	57,262
396	60,948
396,4	67,833
396,9	59,862
397,3	56,919
397,8	57,976
398,2	51,376
398,7	50,548
399,2	47,605
399,6	44,633
400,1	48,148
400,5	44,748
401	37,976
401,4	34,005
401,9	30,805
402,4	33,348
402,8	22,805
403,3	24,69
403,7	25,29
404,2	30,005
404,6	30,605
405,1	29,976
405,5	21,633
406	29,262
406,5	25,633
406,9	29,348
407,4	29,548
407,8	33,833
408,3	35,062
408,7	34,376
409,2	37,862
409,6	41,976
410,1	41,376
410,6	41,919
411	37,462
411,5	39,433
411,9	51,233
412,4	50,576
412,8	48,862
413,3	51,033
413,7	51,205
414,2	56,29
414,7	61,833
415,1	62,319
415,6	65,005
416	68,605
416,5	67,605
416,9	71,519
417,4	72,49
417,8	75,719
418,3	77,405
418,8	81,576
419,2	80,376
419,7	86,776
420,1	92,033
420,6	96,205
421	93,405
421,5	95,519
421,9	95,576
422,4	101,605
422,8	102,148
423,3	96,776
423,8	93,205
424,2	92,833
424,7	92,748
425,1	94,119
425,6	97,605
426	98,319
426,5	104,205
426,9	108,519
427,4	107,148
427,9	100,09
428,3	99,719
428,8	95,033
429,2	92,662
429,7	89,033
430,1	85,405
430,6	87,776
431	91,433
431,5	91,833
431,9	86,576
432,4	88,205
432,8	91,262
433,3	97,005
433,8	98,033
434,2	102,89
434,7	106,662
435,1	115,433
435,6	113,119
436	112,376
436,5	118,119
436,9	116,433
437,4	118,09
437,8	120,09
438,3	120,176
438,8	126,605
439,2	130,719
439,7	133,49
440,1	141,976
440,6	150,148
441	146,176
441,5	153,748
441,9	163,69
442,4	167,348
442,8	169,548
443,3	177,319
443,7	178,005
444,2	189,89
444,7	191,69
445,1	195,89
445,6	201,548
446	208,719
446,5	206,89
446,9	210,005
447,4	213,119
447,8	222,233
448,3	231,49
448,7	241,09
449,2	248,148
449,6	262,519
450,1	274,748
450,6	289,033
451	301,633
451,5	309,719
451,9	323,119
452,4	336,605
452,8	347,033
453,3	356,319
453,7	362,805
454,2	370,433
454,6	377,119
455,1	385,233
455,5	393,319
456	408,833
456,4	420,748
456,9	437,376
457,3	445,633
457,8	453,919
458,3	470,119
458,7	479,948
459,2	487,348
459,6	498,776
460,1	507,576
460,5	516,262
461	534,033
461,4	538,919
461,9	550,662
462,3	566,29
462,8	580,49
463,2	593,548
463,7	612,405
464,1	629,462
464,6	650,862
465	669,033
465,5	680,176
466	693,119
466,4	704,119
466,9	720,919
467,3	730,348
467,8	740,405
468,2	751,176
468,7	769,89
469,1	788,148
469,6	803,69
470	816,548
470,5	832,948
470,9	849,662
471,4	865,919
471,8	875,033
472,3	890,148
472,7	904,662
473,2	912,376
473,6	926,576
474,1	936,29
474,5	950,605
475	963,805
475,4	975,833
475,9	991,005
476,4	1010,176
476,8	1024,176
477,3	1035,148
477,7	1048,462
478,2	1064,033
478,6	1071,233
479,1	1076,662
479,5	1086,89
480	1095,748
480,4	1110,205
480,9	1111,262
481,3	1115,348
481,8	1125,89
482,2	1131,89
482,7	1137,776
483,1	1140,119
483,6	1142,262
484	1149,376
484,5	1159,805
484,9	1160,233
485,4	1171,633
485,8	1175,376
486,3	1185,062
486,7	1193,776
487,2	1201,805
487,6	1204,89
488,1	1208,062
488,5	1206,005
489	1212,805
489,4	1212,462
489,9	1209,205
490,4	1208,862
490,8	1207,233
491,3	1210,69
491,7	1206,376
492,2	1203,862
492,6	1203,548
493,1	1206,833
493,5	1201,033
494	1194,519
494,4	1189,69
494,9	1190,033
495,3	1187,29
495,8	1180,262
496,2	1176,462
496,7	1172,833
497,1	1169,805
497,6	1168,433
498	1167,29
498,5	1163,662
498,9	1154,519
499,4	1144,776
499,8	1146,119
500,3	1143,262
500,7	1133,89
501,2	1120,719
501,6	1107,719
502,1	1101,176
502,5	1094,833
503	1081,862
503,4	1071,605
503,9	1060,862
504,3	1058,205
504,8	1051,176
505,2	1047,833
505,7	1038,176
506,1	1033,719
506,6	1018,833
507	1009,605
507,5	1002,862
507,9	993,062
508,4	981,862
508,8	973,433
509,3	959,662
509,7	955,89
510,2	950,148
510,6	934,319
511,1	924,09
511,5	919,062
512	902,576
512,4	894,062
512,9	885,233
513,3	876,233
513,8	871,148
514,2	863,205
514,7	848,976
515,1	843,662
515,6	830,748
516	817,09
516,5	808,29
516,9	796,948
517,4	791,662
517,8	787,748
518,3	781,262
518,7	773,433
519,2	771,833
519,6	759,89
520,1	754,148
520,5	740,176
521	720,548
521,4	711,548
521,9	703,919
522,3	691,29
522,8	682,119
523,2	672,862
523,7	665,119
524,1	663,605
524,6	654,462
525	642,205
525,5	630,462
525,9	625,519
526,4	614,89
526,8	606,576
527,3	598,348
527,7	589,776
528,2	586,09
528,6	577,433
529,1	565,862
529,5	561,805
530	553,719
530,4	546,405
530,9	541,29
531,3	534,548
531,8	533,462
532,2	529,805
532,6	520,119
533,1	517,176
533,5	513,005
534	503,119
534,4	497,89
534,9	489,69
535,3	484,233
535,8	477,633
536,2	469,405
536,7	460,29
537,1	455,833
537,6	452,805
538	452,29
538,5	446,919
538,9	439,319
539,4	437,862
539,8	433,49
540,3	430,605
540,7	417,548
541,2	403,433
541,6	396,005
542,1	396,89
542,5	391,833
543	385,776
543,4	379,376
543,9	376,205
544,3	376,519
544,8	370,433
545,2	364,005
545,7	362,29
546,1	361,09
546,5	362,062
547	362,576
547,4	363,233
547,9	360,662
548,3	359,376
548,8	353,262
549,2	349,319
549,7	345,662
550,1	345,69
550,6	338,948
551	339,433
551,5	337,519
551,9	332,148
552,4	329,205
552,8	323,976
553,3	316,833
553,7	310,748
554,2	310,776
554,6	307,748
555,1	306,376
555,5	304,033
555,9	299,148
556,4	294,662
556,8	293,633
557,3	286,262
557,7	283,976
558,2	278,262
558,6	276,119
559,1	274,519
559,5	275,119
560	272,776
560,4	272,662
560,9	269,376
561,3	271,462
561,8	264,805
562,2	261,719
562,7	262,862
563,1	267,033
563,6	265,519
564	262,176
564,4	256,89
564,9	259,062
565,3	257,633
565,8	251,462
566,2	247,89
566,7	245,319
567,1	244,462
567,6	242,633
568	243,462
568,5	238,119
568,9	236,148
569,4	230,719
569,8	232,233
570,3	225,948
570,7	221,805
571,1	217,433
571,6	222,805
572	223,862
572,5	224,405
572,9	218,833
573,4	220,29
573,8	225,376
574,3	222,805
574,7	219,319
575,2	214,148
575,6	209,376
576,1	212,376
576,5	212,833
576,9	205,205
577,4	203,262
577,8	201,09
578,3	202,09
578,7	201,148
579,2	197,69
579,6	195,033
580,1	197,205
580,5	196,89
581	198,233
581,4	195,005
581,9	195,776
582,3	194,833
582,7	194,748
583,2	195,09
583,6	193,862
584,1	192,719
584,5	191,319
585	186,29
585,4	181,862
585,9	180,233
586,3	181,29
586,8	184,033
587,2	177,462
587,6	183,776
588,1	189,005
588,5	189,605
589	192,662
589,4	187,148
589,9	182,348
590,3	182,605
590,8	179,348
591,2	181,548
591,7	182,776
592,1	181,29
592,5	183,176
593	183,205
593,4	184,519
593,9	180,233
594,3	174,148
594,8	170,719
595,2	166,69
595,7	163,49
596,1	162,033
596,6	162,833
597	166,833
597,4	168,433
597,9	169,976
598,3	171,033
598,8	174,033
599,2	173,69
599,7	173,89
600,1	165,09
600,6	160,662
601	160,948
601,4	164,719
601,9	163,29
602,3	161,148
602,8	158,576
603,2	160,833
603,7	161,519
604,1	159,376
604,6	153,719
605	149,833
605,4	152,148
605,9	149,748
606,3	144,862
606,8	143,69
607,2	137,662
607,7	134,948
608,1	139,176
608,6	140,605
609	142,862
609,4	150,719
609,9	149,605
610,3	153,462
610,8	153,376
611,2	151,976
611,7	151,633
612,1	151,005
612,6	147,205
613	149,176
613,4	146,49
613,9	147,319
614,3	142,776
614,8	140,833
615,2	136,233
615,7	139,348
616,1	139,833
616,6	139,69
617	138,148
617,4	141,633
617,9	141,576
618,3	143,605
618,8	143,719
619,2	138,433
619,7	139,805
620,1	138,433
620,5	138,948
621	134,09
621,4	136,319
621,9	133,948
622,3	136,662
622,8	131,519
623,2	131,405
623,6	127,833
624,1	129,576
624,5	126,033
625	126,433
625,4	126,062
625,9	129,062
626,3	129,033
626,8	126,405
627,2	128,548
627,6	123,319
628,1	118,033
628,5	119,548
629	118,919
629,4	118,09
629,9	116,976
630,3	110,862
630,7	111,576
631,2	113,233
631,6	108,405
632,1	107,633
632,5	108,29
633	112,205
633,4	115,89
633,8	114,519
634,3	113,09
634,7	118,776
635,2	113,948
635,6	111,233
636,1	107,405
636,5	102,776
636,9	103,148
637,4	103,348
637,8	95,176
638,3	94,148
638,7	93,176
639,2	92,433
639,6	93,548
640	95,948
640,5	95,205
640,9	94,833
641,4	97,919
641,8	100,633
642,2	102,833
642,7	106,119
643,1	106,233
643,6	107,205
644	109,719
644,5	109,919
644,9	107,319
645,3	105,548
645,8	99,69
646,2	104,805
646,7	101,748
647,1	102,833
647,6	104,776
648	106,348
648,4	101,49
648,9	108,519
649,3	99,862
649,8	102,49
650,2	98,662
650,6	98,776
651,1	92,719
651,5	98,805
652	90,89
652,4	91,033
652,9	87,033
653,3	86,462
653,7	83,805
654,2	86,319
654,6	78,233
655,1	83,49
655,5	87,89
655,9	88,719
656,4	86,69
656,8	84,605
657,3	85,919
657,7	90,062
658,2	88,576
658,6	85,376
659	88,119
659,5	88,262
659,9	87,919
660,4	88,519
660,8	87,348
661,2	85,662
661,7	83,862
662,1	83,348
662,6	81,205
663	83,233
663,4	80,776
663,9	80,89
664,3	74,919
664,8	74,148
665,2	67,176
665,6	68,405
666,1	68,376
666,5	70,033
667	68,462
667,4	69,033
667,9	69,348
668,3	71,776
668,7	70,005
669,2	70,062
669,6	68,033
670,1	66,748
670,5	66,49
670,9	68,862
671,4	65,462
671,8	71,233
672,3	73,148
672,7	73,433
673,1	69,233
673,6	70,405
674	70,348
674,5	71,005
674,9	63,805
675,3	58,119
675,8	58,176
676,2	65,776
676,7	61,462
677,1	59,805
677,5	59,805
678	63,919
678,4	67,948
678,9	67,948
679,3	66,262
679,7	71,919
680,2	67,748
680,6	65,719
681,1	65,376
681,5	63,748
681,9	62,948
682,4	63,662
682,8	62,09
683,3	68,519
683,7	70,576
684,1	70,805
684,6	68,348
685	70,662
685,5	70,862
685,9	66,748
686,3	61,262
686,8	60,119
687,2	60,205
687,7	55,319
688,1	45,662
688,5	45,062
689	51,062
689,4	49,205
689,9	48,662
690,3	44,519
690,7	49,462
691,2	55,49
691,6	52,948
692	50,89
692,5	52,519
692,9	57,033
693,4	57,348
693,8	55,833
694,2	53,548
694,7	55,862
695,1	52,605
695,6	55,548
696	52,948
696,4	55,005
696,9	52,719
697,3	52,462
697,8	51,405
698,2	49,29
698,6	46,89
699,1	47,119
699,5	47,433
699,9	47,919
700,4	46,062
700,8	44,805
701,3	49,69
701,7	49,176
702,1	48,233
702,6	48,233
703	49,062
703,5	50,748
703,9	45,062
704,3	48,719
704,8	46,148
705,2	47,976
705,6	46,348
706,1	47,605
706,5	43,69
707	51,433
707,4	48,49
707,8	48,148
708,3	49,033
708,7	50,376
709,2	48,49
709,6	51,662
710	50,805
710,5	44,119
710,9	45,376
711,3	43,319
711,8	42,976
712,2	43,948
712,7	42,862
713,1	43,176
713,5	46,662
714	47,376
714,4	46,148
714,8	44,405
715,3	41,433
715,7	44,633
716,2	39,262
716,6	41,119
717	39,148
717,5	39,09
717,9	42,148
718,3	41,776
718,8	38,033
719,2	36,833
719,7	35,776
720,1	38,119
720,5	40,919
721	37,433
721,4	41,69
721,8	46,519
722,3	46,948
722,7	50,233
723,2	44,976
723,6	35,69
724	35,148
724,5	31,833
724,9	27,09
725,3	27,319
725,8	23,89
726,2	26,033
726,7	31,262
727,1	29,605
727,5	31,776
728	30,119
728,4	32,433
728,8	31,319
729,3	30,862
729,7	26,262
730,1	25,005
730,6	26,176
731	27,948
731,5	26,519
731,9	24,062
732,3	25,29
732,8	28,69
733,2	30,119
733,6	24,09
734,1	25,433
734,5	25,719
734,9	31,148
735,4	32,262
735,8	32,29
736,3	37,119
736,7	36,29
737,1	35,948
737,6	36,176
738	34,405
738,4	30,49
738,9	29,548
739,3	24,376
739,7	28,862
740,2	27,205
740,6	30,862
741,1	29,49
741,5	29,148
741,9	30,719
742,4	37,148
742,8	35,09
743,2	35,062
743,7	28,748
744,1	25,176
744,5	26,805
745	26,062
745,4	19,148
745,8	21,776
746,3	22,548
746,7	24,062
747,2	25,605
747,6	28,29
748	30,433
748,5	33,433
748,9	32,119
749,3	27,062
749,8	27,69
750,2	31,005
750,6	24,519
751,1	25,033
751,5	24,005
751,9	24,09
752,4	28,119
752,8	26,919
753,3	23,548
753,7	31,262
754,1	24,205
754,6	23,119
755	17,033
755,4	13,548
755,9	16,405
756,3	16,49
756,7	12,29
757,2	15,233
757,6	14,605
758	19,519
758,5	18,576
758,9	14,262
759,3	14,062
759,8	13,462
760,2	12,89
760,6	14,89
761,1	13,919
761,5	15,805
761,9	17,462
762,4	16,462
762,8	14,405
763,3	12,49
763,7	13,176
764,1	12,976
764,6	18,633
765	21,176
765,4	25,033
765,9	27,233
766,3	30,548
766,7	27,805
767,2	28,776
767,6	28,033
768	24,633
768,5	22,29
768,9	21,748
769,3	21,662
769,8	18,033
770,2	19,033
770,6	13,205
771,1	16,919
771,5	16,29
771,9	20,29
772,4	24,176
772,8	29,033
773,2	29,148
773,7	33,119
774,1	30,319
774,5	27,89
775	21,805
775,4	17,548
775,8	15,89
776,3	14,405
776,7	14,605
777,1	17,833
777,6	23,49
778	31,833
778,4	30,033
778,9	35,376
779,3	35,348
779,7	33,748
780,2	31,033
780,6	27,719
781	22,662
781,5	21,462
781,9	13,862
782,3	11,519
782,8	14,405
783,2	14,948
783,6	16,605
784,1	12,319
784,5	13,49
784,9	17,662
785,4	20,548
785,8	20,519
786,2	20,176
786,7	19,919
787,1	19,433
787,5	19,89
788	20,29
788,4	20,376
788,8	18,576
789,3	18,633
789,7	18,462
790,1	20,662
790,6	19,576
791	15,776
791,4	15,148
791,9	11,462
792,3	7,205
792,7	10,833
793,2	10,548
793,6	12,776
794	15,29
794,5	15,262
794,9	20,29
795,3	25,176
795,8	19,033
796,2	23,033
796,6	24,033
797,1	23,662
797,5	22,89
797,9	18,548
798,4	16,176
798,8	17,605
799,2	13,119
799,7	14,033
800,1	13,176
800,5	12,805
801	16,719
801,4	16,49
801,8	17,662
802,2	20,205
802,7	15,119
803,1	14,405
803,5	13,576
804	12,805
804,4	13,319
804,8	12,262
805,3	12,49
805,7	14,462
806,1	15,233
806,6	21,49
807	22,033
807,4	19,062
807,9	17,433
808,3	16,205
808,7	18,462
809,2	18,976
809,6	15,062
810	14,262
810,4	15,519
810,9	16,433
811,3	22,89
811,7	21,233
812,2	27,462
812,6	24,662
813	27,176
813,5	28,176
813,9	29,862
814,3	24,433
814,8	25,605
815,2	15,862
815,6	15,319
816,1	13,548
816,5	13,662
816,9	12,633
817,3	12,776
817,8	16,805
818,2	21,148
818,6	20,376
819,1	20,576
819,5	19,89
819,9	22,376
820,4	23,033
820,8	15,29
821,2	10,776
821,7	16,062
822,1	17,319
822,5	22,776
822,9	17,548
823,4	15,576
823,8	19,748
824,2	23,948
824,7	18,005
825,1	13,033
825,5	4,033
826	1,119
826,4	1,519
826,8	-1,024
827,3	-1,91
827,7	1,433
828,1	4,433
828,5	9,805
829	11,49
829,4	12,405
829,8	10,405
830,3	9,548
830,7	4,205
831,1	3,49
831,6	1,348
832	7,233
832,4	5,233
832,8	8,29
833,3	10,662
833,7	13,262
834,1	9,005
834,6	9,633
835	9,633
835,4	9,776
835,8	10,576
836,3	7,033
836,7	8,662
837,1	13,205
837,6	17,633
838	15,005
838,4	14,205
838,9	10,348
839,3	9,005
839,7	9,262
840,1	1,348
840,6	-1,681
841	-3,252
841,4	1,576
841,9	1,605
842,3	4,805
842,7	9,548
843,1	12,376
843,6	12,433
844	10,805
844,4	12,89
844,9	18,89
845,3	17,805
845,7	10,605
846,2	9,233
846,6	5,462
847	8,776
847,4	6,862
847,9	3,805
848,3	3,348
848,7	9,29
849,2	15,119
849,6	14,662
850	16,89
850,4	15,833
850,9	14,233
851,3	17,348
851,7	17,976
852,2	16,09
852,6	22,862
853	21,548
853,4	17,776
853,9	17,576
854,3	15,49
854,7	11,29
855,2	9,633
855,6	5,29
856	3,919
856,4	5,576
856,9	3,233
857,3	4,233
857,7	5,119
858,2	12,233
858,6	10,376
859	10,805
859,4	11,833
859,9	14,748
860,3	11,29
860,7	9,805
861,1	7,776
861,6	5,948
862	5,119
862,4	3,319
862,9	0,833
863,3	3,376
863,7	6,033
864,1	5,348
864,6	9,548
865	11,948
865,4	13,348
865,9	14,633
866,3	11,805
866,7	11,948
867,1	9,805
867,6	10,062
868	6,576
868,4	5,005
868,8	4,548
869,3	5,233
869,7	7,633
870,1	2,605
870,6	1,433
871	-14,967
871,4	-8,995
871,8	-12,195
872,3	-6,852
872,7	-10,51
873,1	-4,767
873,5	-1,824
874	16,405
874,4	10,005
874,8	13,633
875,3	10,148
875,7	8,805
876,1	10,205
876,5	8,033
877	5,319
877,4	3,633
877,8	7,633
878,2	8,548
878,7	12,348
879,1	10,376
879,5	10,748
879,9	12,519
880,4	15,748
880,8	12,69
881,2	11,005
881,7	8,348
882,1	7,49
882,5	7,29
882,9	7,033
883,4	5,29
883,8	8,262
884,2	9,005
884,6	8,862
885,1	10,433
885,5	12,005
885,9	16,719
886,3	19,49
886,8	16,49
887,2	15,49
887,6	14,548
888	17,348
888,5	17,548
888,9	11,576
889,3	7,433
889,8	8,033
890,2	10,005
890,6	9,919
891	6,462
891,5	3,062
891,9	4,148
892,3	5,719
892,7	6,29
893,2	7,376
893,6	8,433
894	9,519
894,4	9,748
894,9	9,662
895,3	9,662
895,7	8,576
896,1	10,376
896,6	9,29
897	13,205
897,4	16,576
897,8	18,919
898,3	22,148
898,7	19,519
899,1	17,233
899,5	17,49
900	8,519
900,4	4,633
900,8	3,833
901,2	-0,452
901,7	3,576
902,1	4,719
902,5	3,89
902,9	7,119
903,4	9,776
903,8	10,976
904,2	11,776
904,6	12,49
905,1	7,462
905,5	10,119
905,9	11,29
906,3	12,748
906,8	15,376
907,2	15,49
907,6	13,09
908	16,576
908,5	14,433
908,9	12,319
909,3	10,805
909,7	5,605
910,2	2,919
910,6	6,948
911	0,862
911,4	4,119
911,9	3,633
912,3	6,748
912,7	9,748
913,1	12,462
913,6	9,976
914	13,948
914,4	12,976
914,8	15,205
915,3	8,948
915,7	7,805
916,1	7,948
916,5	10,519
916,9	10,605
917,4	5,89
917,8	8,033
918,2	6,49
918,6	3,062
919,1	5,462
919,5	3,376
919,9	6,548
920,3	10,948
920,8	7,805
921,2	9,776
921,6	9,319
922	6,776
922,5	4,09
922,9	1,405
923,3	0,833
923,7	3,919
924,2	3,176
924,6	8,062
925	10,29
925,4	12,776
925,8	14,262
926,3	12,319
926,7	8,948
927,1	8,69
927,5	7,919
928	3,833
928,4	-0,452
928,8	-0,081
929,2	-2,367
929,7	-2,138
930,1	1,148
930,5	1,176
930,9	5,576
931,3	9,49
931,8	6,605
932,2	12,319
932,6	8,462
933	2,433
933,5	2,376
933,9	-0,195
934,3	1,319
934,7	1,062
935,2	2,776
935,6	4,319
936	10,862
936,4	11,462
936,8	13,119
937,3	8,805
937,7	9,862
938,1	8,776
938,5	10,005
939	7,948
939,4	7,09
939,8	6,605
940,2	10,376
940,6	10,576
941,1	7,862
941,5	14,319
941,9	10,69
942,3	9,405
942,8	12,776
943,2	11,376
943,6	10,462
944	13,719
944,4	9,262
944,9	6,719
945,3	4,29
945,7	-1,395
946,1	-7,424
946,6	-8,938
947	-9,452
947,4	-4,91
947,8	2,09
948,2	2,176
948,7	4,919
949,1	6,148
949,5	11,062
949,9	11,176
950,3	6,919
950,8	5,09
951,2	5,662
951,6	0,005
952	10,148
952,5	4,948
952,9	3,633
953,3	4,09
953,7	3,576
954,1	10,205
954,6	16,29
955	11,69
955,4	13,262
955,8	14,29
956,2	15,262
956,7	18,548
957,1	9,89
957,5	11,262
957,9	10,005
958,3	11,005
958,8	11,948
959,2	11,319
959,6	12,719
960	14,005
960,5	18,033
960,9	19,605
961,3	17,948
961,7	13,148
962,1	14,862
962,6	13,519
963	15,776
963,4	8,29
963,8	6,833
964,2	8,205
964,7	8,748
965,1	9,205
965,5	10,776
965,9	12,405
966,3	15,205
966,8	17,319
967,2	16,805
967,6	18,69
968	11,405
968,4	8,948
968,9	4,005
969,3	9,89
969,7	5,862
970,1	9,662
970,5	5,719
971	14,148
971,4	12,033
971,8	18,519
972,2	14,233
972,6	15,49
973,1	13,033
973,5	18,662
973,9	17,862
974,3	17,69
974,7	18,748
975,2	16,548
975,6	15,29
976	18,119
976,4	12,719
976,8	13,148
977,3	13,805
977,7	10,205
978,1	14,09
978,5	12,662
978,9	8,462
979,4	9,233
979,8	5,205
980,2	7,919
980,6	4,148
981	0,948
981,5	3,719
981,9	2,376
982,3	5,462
982,7	5,576
983,1	0,89
983,6	4,719
984	2,719
984,4	2,633
984,8	3,662
985,2	1,633
985,6	1,976
986,1	5,462
986,5	8,519
986,9	6,719
987,3	9,176
987,7	9,662
988,2	7,319
988,6	6,633
989	0,09
989,4	-3,224
989,8	0,548
990,3	-2,081
990,7	-0,081
991,1	1,862
991,5	3,062
991,9	15,548
992,3	16,862
992,8	16,748
993,2	16,805
993,6	16,119
994	18,405
994,4	20,09
994,9	14,548
995,3	10,976
995,7	7,49
996,1	4,948
996,5	-0,624
996,9	-4,795
997,4	-1,624
997,8	-8,167
998,2	-6,795
998,6	-13,824
999	-9,91
999,5	-3,081
999,9	-4,51
1000,3	-8,052
1000,7	0,776
1001,1	0,948
1001,5	9,719
1002	10,433
1002,4	9,176
1002,8	12,033
1003,2	11,033
1003,6	7,348
1004	11,119
1004,5	11,405
1004,9	9,748
1005,3	5,119
1005,7	8,548
1006,1	4,376
1006,6	5,805
1007	5,09
1007,4	2,719
1007,8	2,948
1008,2	7,033
1008,6	6,776
1009,1	12,376
1009,5	12,719
1009,9	8,919
1010,3	11,262
1010,7	11,033
1011,1	9,605
1011,6	8,09
1012	7,348
1012,4	5,433
1012,8	5,205
1013,2	8,176
1013,6	11,233
1014,1	12,548
1014,5	14,919
1014,9	14,605
1015,3	11,519
1015,7	12,862
1016,1	10,805
1016,6	6,833
1017	7,548
1017,4	6,319
1017,8	2,176
1018,2	6,462
1018,6	3,405
1019,1	2,662
1019,5	0,576
1019,9	-2,138
1020,3	-3,052
1020,7	-0,824
1021,1	-4,252
1021,6	-3,71
1022	-1,252
1022,4	2,948
1022,8	6,376
1023,2	6,49
1023,6	7,89
1024,1	15,148
1024,5	19,376
1024,9	13,062
1025,3	12,548
1025,7	12,433
1026,1	16,176
1026,6	13,376
1027	6,376
1027,4	2,862
1027,8	2,633
1028,2	2,319
1028,6	6,576
1029	3,29
1029,5	9,548
1029,9	9,433
1030,3	10,548
1030,7	16,805
1031,1	18,89
1031,5	6,633
1032	4,89
1032,4	1,176
1032,8	8,062
1033,2	10,748
1033,6	7,433
1034	6,062
1034,4	9,633
1034,9	11,805
1035,3	10,405
1035,7	7,433
1036,1	3,29
1036,5	0,948
1036,9	-0,538
1037,4	3,69
1037,8	-0,195
1038,2	-1,51
1038,6	-4,395
1039	2,976
1039,4	10,576
1039,8	6,976
1040,3	3,89
1040,7	6,69
1041,1	9,205
1041,5	14,376
1041,9	10,062
1042,3	7,433
1042,7	12,348
1043,2	12,433
1043,6	12,233
1044	9,29
1044,4	5,433
1044,8	4,319
1045,2	2,748
1045,6	3,176
1046,1	5,462
1046,5	3,176
1046,9	3,348
1047,3	5,49
1047,7	5,348
1048,1	0,376
1048,5	0,719
1049	2,462
1049,4	8,662
1049,8	12,605
1050,2	11,376
1050,6	16,948
1051	21,605
1051,4	17,262
1051,9	16,148
1052,3	17,29
1052,7	15,776
1053,1	10,605
1053,5	8,433
1053,9	6,433
1054,3	10,89
1054,8	11,033
1055,2	7,09
1055,6	10,633
1056	15,233
1056,4	8,719
1056,8	10,576
1057,2	4,976
1057,6	2,348
1058,1	4,633
1058,5	-2,51
1058,9	-1,852
1059,3	0,119
1059,7	0,633
1060,1	3,319
1060,5	4,176
1061	-0,452
1061,4	1,862
1061,8	4,719
1062,2	8,662
1062,6	8,233
1063	10,376
1063,4	9,662
1063,8	9,662
1064,3	7,062
1064,7	2,919
1065,1	0,462
1065,5	-4,024
1065,9	-7,424
1066,3	-9,824
1066,7	-11,224
1067,1	-14,567
1067,6	-11,824
1068	-14,624
1068,4	-10,281
1068,8	-6,424
1069,2	-2,367
1069,6	0,919
1070	9,29
1070,4	8,805
1070,9	9,176
1071,3	9,233
1071,7	6,033
1072,1	6,09
1072,5	3,776
1072,9	1,805
1073,3	3,005
1073,7	1,805
1074,2	1,519
1074,6	2,119
1075	-0,852
1075,4	-0,11
1075,8	3,462
1076,2	0,49
1076,6	5,49
1077	6,719
1077,5	9,805
1077,9	10,719
1078,3	10,776
1078,7	6,062
1079,1	8,776
1079,5	2,433
1079,9	1,976
1080,3	1,69
1080,7	-1,195
1081,2	2,519
1081,6	2,862
1082	-0,11
1082,4	7,433
1082,8	8,376
1083,2	4,69
1083,6	9,748
1084	8,033
1084,5	10,376
1084,9	9,262
1085,3	3,919
1085,7	4,405
1086,1	7,919
1086,5	8,748
1086,9	7,919
1087,3	5,405
1087,7	3,862
1088,2	5,89
1088,6	6,462
1089	5,433
1089,4	3,433
1089,8	5,29
1090,2	7,205
1090,6	12,548
1091	16,262
1091,4	16,462
1091,9	16,519
1092,3	17,833
1092,7	13,919
1093,1	15,205
1093,5	14,062
1093,9	9,233
1094,3	11,462
1094,7	11,119
1095,1	11,519
1095,5	13,862
1096	9,976
1096,4	8,233
1096,8	9,49
1097,2	4,49
1097,6	7,233
1098	5,519
1098,4	9,09
1098,8	13,119
1099,2	20,919
1099,6	18,205
1100,1	18,233
1100,5	10,89
1100,9	10,948
1101,3	8,262
1101,7	6,776
1102,1	1,433
1102,5	5,976
1102,9	9,033
1103,3	14,433
1103,7	16,948
1104,2	15,005
1104,6	16,033
1105	13,29
1105,4	14,376
1105,8	10,376
1106,2	8,69
1106,6	5,662
1107	5,29
1107,4	3,233
1107,8	4,433
1108,3	0,083
