Data from Subt2_298.txt Node
Date: Sat Aug 26 19:12:08 MSK 2023
User: vat
Spectrometer: MAYP114033
Trigger mode: 0
Integration Time (sec): 1,000000E0
Scans to average: 5
Electric dark correction enabled: true
Nonlinearity correction enabled: false
Boxcar width: 3
XAxis mode: Wavelengths
Number of Pixels in Spectrum: 2068
>>>>>Begin Spectral Data<<<<<
199,4	1,283
199,9	2,753
200,4	2,467
200,8	6,205
201,3	5,205
201,8	7,49
202,2	5,462
202,7	8,748
203,2	7,148
203,6	8,033
204,1	1,605
204,6	1,89
205	3,748
205,5	5,519
206	4,176
206,4	9,29
206,9	8,119
207,4	13,433
207,8	13,09
208,3	9,919
208,8	9,348
209,2	8,662
209,7	5,805
210,2	9,633
210,6	8,262
211,1	12,319
211,5	8,376
212	9,09
212,5	7,776
212,9	3,805
213,4	0,29
213,9	-4,452
214,3	-5,167
214,8	0,662
215,3	-0,252
215,7	5,833
216,2	12,633
216,7	15,49
217,1	17,719
217,6	20,09
218,1	18,062
218,5	16,976
219	9,576
219,5	12,662
219,9	6,29
220,4	15,09
220,9	6,376
221,3	4,548
221,8	5,49
222,3	6,805
222,7	2,862
223,2	7,062
223,6	-0,195
224,1	3,319
224,6	8,062
225	8,233
225,5	9,005
226	5,205
226,4	9,262
226,9	12,176
227,4	17,205
227,8	11,176
228,3	12,89
228,8	14,033
229,2	16,633
229,7	12,719
230,2	11,462
230,6	10,319
231,1	19,262
231,5	14,376
232	14,948
232,5	13,376
232,9	13,605
233,4	12,919
233,9	8,548
234,3	7,376
234,8	10,833
235,3	8,319
235,7	9,776
236,2	11,633
236,7	11,89
237,1	17,233
237,6	9,805
238,1	10,176
238,5	7,719
239	9,605
239,4	9,69
239,9	10,919
240,4	8,376
240,8	14,633
241,3	12,976
241,8	14,948
242,2	12,776
242,7	7,519
243,2	4,976
243,6	2,719
244,1	1,548
244,6	5,605
245	6,319
245,5	2,89
245,9	3,49
246,4	3,09
246,9	6,033
247,3	4,005
247,8	4,376
248,3	5,948
248,7	9,976
249,2	14,005
249,7	14,205
250,1	13,576
250,6	11,576
251	12,033
251,5	12,576
252	9,69
252,4	12,119
252,9	10,748
253,4	5,948
253,8	6,748
254,3	5,49
254,8	6,976
255,2	6,176
255,7	2,519
256,1	6,49
256,6	14,976
257,1	17,233
257,5	13,119
258	8,633
258,5	8,405
258,9	8,633
259,4	5,405
259,9	2,662
260,3	-2,281
260,8	-0,824
261,2	0,605
261,7	6,605
262,2	5,09
262,6	3,062
263,1	2,49
263,6	7,148
264	12,89
264,5	16,205
264,9	9,605
265,4	12,948
265,9	17,462
266,3	19,262
266,8	23,948
267,3	17,205
267,7	11,348
268,2	11,405
268,7	9,69
269,1	11,29
269,6	6,29
270	3,319
270,5	4,348
271	7,69
271,4	15,519
271,9	11,519
272,4	10,148
272,8	14,062
273,3	7,605
273,7	9,405
274,2	9,376
274,7	8,176
275,1	9,576
275,6	9,862
276,1	6,176
276,5	11,862
277	10,833
277,4	9,062
277,9	6,748
278,4	8,29
278,8	9,433
279,3	10,69
279,8	14,89
280,2	20,262
280,7	22,976
281,1	18,462
281,6	18,29
282,1	13,005
282,5	13,89
283	9,519
283,4	3,805
283,9	5,09
284,4	8,719
284,8	10,519
285,3	8,805
285,8	10,49
286,2	8,376
286,7	9,519
287,1	7,233
287,6	7,776
288,1	5,605
288,5	13,176
289	9,719
289,5	11,662
289,9	10,005
290,4	11,748
290,8	9,805
291,3	9,033
291,8	11,919
292,2	13,548
292,7	13,862
293,1	20,119
293,6	20,976
294,1	22,262
294,5	24,576
295	17,862
295,5	13,548
295,9	16,005
296,4	9,29
296,8	3,548
297,3	2,69
297,8	-2,738
298,2	-6,938
298,7	-0,624
299,1	-2,91
299,6	-4,567
300,1	0,262
300,5	2,662
301	10,148
301,5	16,776
301,9	13,09
302,4	11,29
302,8	14,319
303,3	12,776
303,8	8,89
304,2	6,062
304,7	6,548
305,1	4,605
305,6	5,833
306,1	10,89
306,5	10,776
307	16,548
307,4	18,89
307,9	15,005
308,4	18,062
308,8	15,519
309,3	12,519
309,8	12,262
310,2	7,948
310,7	3,576
311,1	3,405
311,6	6,662
312,1	7,405
312,5	9,548
313	10,776
313,4	10,348
313,9	16,862
314,4	17,29
314,8	12,49
315,3	10,605
315,7	4,919
316,2	3,033
316,7	1,605
317,1	0,005
317,6	1,005
318	5,033
318,5	8,433
319	8,633
319,4	10,062
319,9	17,005
320,3	16,405
320,8	17,262
321,3	20,09
321,7	23,233
322,2	23,462
322,6	25,033
323,1	21,548
323,6	17,748
324	19,233
324,5	16,005
324,9	13,148
325,4	15,433
325,9	15,49
326,3	16,062
326,8	18,233
327,2	14,576
327,7	12,862
328,2	12,348
328,6	9,862
329,1	1,376
329,5	0,69
330	0,69
330,5	3,376
330,9	4,748
331,4	4,862
331,8	4,548
332,3	12,976
332,8	10,633
333,2	9,233
333,7	12,376
334,1	12,862
334,6	10,376
335,1	7,976
335,5	6,433
336	7,462
336,4	11,005
336,9	8,976
337,4	8,148
337,8	10,376
338,3	17,005
338,7	23,262
339,2	22,405
339,7	21,919
340,1	21,948
340,6	23,748
341	24,662
341,5	22,09
342	14,348
342,4	15,862
342,9	14,519
343,3	16,948
343,8	12,862
344,2	9,719
344,7	7,919
345,2	9,033
345,6	9,662
346,1	10,233
346,5	4,576
347	4,462
347,5	6,176
347,9	12,633
348,4	15,662
348,8	16,633
349,3	19,833
349,8	24,433
350,2	35,548
350,7	34,148
351,1	32,719
351,6	38,433
352	39,719
352,5	41,49
353	48,862
353,4	47,148
353,9	61,576
354,3	70,89
354,8	75,119
355,3	92,062
355,7	108,49
356,2	122,862
356,6	144,205
357,1	166,262
357,5	193,576
358	225,462
358,5	260,405
358,9	300,948
359,4	349,033
359,8	397,348
360,3	456,662
360,8	517,49
361,2	590,548
361,7	668,176
362,1	755,89
362,6	848,148
363	950,005
363,5	1054,433
364	1177,005
364,4	1293,662
364,9	1411,205
365,3	1525,833
365,8	1635,69
366,3	1740,576
366,7	1828,776
367,2	1903,69
367,6	1969,49
368,1	2022,29
368,5	2055,262
369	2067,833
369,5	2071,833
369,9	2059,948
370,4	2028,89
370,8	1983,548
371,3	1925,719
371,7	1855,976
372,2	1783,119
372,7	1693,833
373,1	1608,919
373,6	1516,548
374	1426,376
374,5	1329,833
374,9	1239,005
375,4	1154,462
375,9	1072,833
376,3	985,748
376,8	908,805
377,2	833,176
377,7	764,319
378,2	701,719
378,6	640,519
379,1	587,719
379,5	546,662
380	508,005
380,4	469,205
380,9	434,49
381,4	397,319
381,8	366,405
382,3	345,69
382,7	321,062
383,2	295,919
383,6	271,319
384,1	258,405
384,6	247,405
385	229,919
385,5	208,348
385,9	192,833
386,4	179,633
386,8	170,69
387,3	152,548
387,7	144,462
388,2	144,262
388,7	134,833
389,1	127,005
389,6	122,548
390	116,376
390,5	114,776
390,9	105,205
391,4	96,519
391,9	91,719
392,3	88,119
392,8	79,09
393,2	73,89
393,7	68,348
394,1	64,033
394,6	57,776
395,1	59,433
395,5	55,062
396	58,433
396,4	60,633
396,9	57,748
397,3	61,09
397,8	63,49
398,2	58,548
398,7	59,205
399,2	54,176
399,6	51,948
400,1	53,919
400,5	47,062
401	45,319
401,4	41,49
401,9	39,605
402,4	44,062
402,8	41,176
403,3	44,919
403,7	47,29
404,2	48,776
404,6	52,29
405,1	52,319
405,5	47,719
406	50,09
406,5	40,776
406,9	43,776
407,4	38,005
407,8	38,462
408,3	40,062
408,7	35,748
409,2	39,005
409,6	47,833
410,1	45,319
410,6	50,69
411	53,662
411,5	54,262
411,9	61,205
412,4	59,919
412,8	60,148
413,3	65,776
413,7	66,748
414,2	65,148
414,7	71,09
415,1	80,833
415,6	86,433
416	86,405
416,5	84,376
416,9	84,719
417,4	86,919
417,8	89,033
418,3	84,519
418,8	81,948
419,2	83,519
419,7	84,69
420,1	87,233
420,6	90,033
421	87,205
421,5	88,548
421,9	91,233
422,4	97,748
422,8	100,462
423,3	99,69
423,8	97,348
424,2	96,262
424,7	93,805
425,1	95,576
425,6	92,519
426	91,633
426,5	92,919
426,9	97,376
427,4	96,948
427,9	95,262
428,3	96,033
428,8	94,662
429,2	95,69
429,7	90,862
430,1	89,719
430,6	95,09
431	98,09
431,5	96,576
431,9	93,633
432,4	94,148
432,8	99,805
433,3	105,348
433,8	106,376
434,2	108,633
434,7	115,062
435,1	122,462
435,6	127,719
436	131,376
436,5	133,633
436,9	129,548
437,4	132,09
437,8	135,033
438,3	135,319
438,8	138,262
439,2	144,605
439,7	149,576
440,1	162,119
440,6	175,09
441	172,519
441,5	181,605
441,9	187,433
442,4	194,319
442,8	199,262
443,3	206,748
443,7	208,376
444,2	219,462
444,7	228,776
445,1	243,776
445,6	252,719
446	263,576
446,5	264,833
446,9	269,176
447,4	278,119
447,8	287,519
448,3	297,376
448,7	305,262
449,2	318,833
449,6	339,033
450,1	351,376
450,6	369,49
451	382,776
451,5	394,576
451,9	417,862
452,4	434,262
452,8	443,176
453,3	468,119
453,7	478,376
454,2	494,49
454,6	510,548
455,1	519,09
455,5	531,29
456	557,49
456,4	570,605
456,9	593,233
457,3	612,09
457,8	626,348
458,3	652,748
458,7	669,89
459,2	686,119
459,6	707,748
460,1	731,49
460,5	750,49
461	778,262
461,4	795,662
461,9	824,89
462,3	846,462
462,8	871,948
463,2	890,09
463,7	915,833
464,1	940,176
464,6	966,633
465	990,576
465,5	1017,776
466	1043,89
466,4	1073,062
466,9	1105,462
467,3	1134,433
467,8	1159,976
468,2	1187,519
468,7	1219,49
469,1	1247,062
469,6	1275,89
470	1298,919
470,5	1324,033
470,9	1351,119
471,4	1380,89
471,8	1402,29
472,3	1432,548
472,7	1462,29
473,2	1485,29
473,6	1512,405
474,1	1544,519
474,5	1570,976
475	1599,862
475,4	1628,862
475,9	1654,919
476,4	1689,348
476,8	1715,519
477,3	1744,433
477,7	1776,49
478,2	1806,376
478,6	1827,376
479,1	1852,462
479,5	1877,433
480	1902,119
480,4	1925,49
480,9	1944,433
481,3	1965,948
481,8	1987,862
482,2	2006,148
482,7	2028,348
483,1	2051,719
483,6	2070,29
484	2090,605
484,5	2111,805
484,9	2130,833
485,4	2156,976
485,8	2175,09
486,3	2193,205
486,7	2212,005
487,2	2227,548
487,6	2245,633
488,1	2261,719
488,5	2273,576
489	2293,805
489,4	2311,719
489,9	2321,748
490,4	2340,576
490,8	2350,205
491,3	2365,833
491,7	2375,833
492,2	2383,405
492,6	2388,433
493,1	2398,319
493,5	2394,062
494	2402,062
494,4	2417,548
494,9	2427,948
495,3	2434,062
495,8	2441,119
496,2	2452,548
496,7	2462,09
497,1	2472,033
497,6	2466,348
498	2478,376
498,5	2487,233
498,9	2495,205
499,4	2498,09
499,8	2509,919
500,3	2521,776
500,7	2532,976
501,2	2526,605
501,6	2525,805
502,1	2524,119
502,5	2527,748
503	2524,976
503,4	2516,119
503,9	2511,233
504,3	2514,833
504,8	2514,833
505,2	2518,49
505,7	2519,948
506,1	2526,119
506,6	2524,776
507	2527,376
507,5	2524,148
507,9	2522,262
508,4	2520,405
508,8	2518,176
509,3	2514,462
509,7	2517,062
510,2	2515,09
510,6	2512,69
511,1	2514,176
511,5	2513,405
512	2513,748
512,4	2510,633
512,9	2506,062
513,3	2503,776
513,8	2506,862
514,2	2504,233
514,7	2499,462
515,1	2494,605
515,6	2487,519
516	2482,319
516,5	2481,062
516,9	2479,205
517,4	2483,09
517,8	2483,976
518,3	2484,405
518,7	2493,205
519,2	2495,662
519,6	2496,719
520,1	2496,49
520,5	2490,748
521	2489,948
521,4	2486,548
521,9	2483,976
522,3	2485,148
522,8	2480,862
523,2	2477,262
523,7	2474,29
524,1	2477,548
524,6	2479,69
525	2473,605
525,5	2467,748
525,9	2469,233
526,4	2469,919
526,8	2471,262
527,3	2466,776
527,7	2466,005
528,2	2468,576
528,6	2470,062
529,1	2471,833
529,5	2483,89
530	2485,776
530,4	2488,148
530,9	2490,519
531,3	2492,919
531,8	2498,662
532,2	2505,805
532,6	2496,662
533,1	2492,719
533,5	2491,49
534	2485,605
534,4	2486,29
534,9	2492,262
535,3	2486,833
535,8	2482,49
536,2	2488,862
536,7	2494,776
537,1	2501,205
537,6	2499,719
538	2499,205
538,5	2504,548
538,9	2511,862
539,4	2515,748
539,8	2519,148
540,3	2522,376
540,7	2528,748
541,2	2527,748
541,6	2526,748
542,1	2528,262
542,5	2525,776
543	2528,176
543,4	2528,919
543,9	2531,662
544,3	2534,29
544,8	2540,605
545,2	2543,319
545,7	2555,262
546,1	2560,005
546,5	2564,205
547	2561,119
547,4	2571,09
547,9	2569,633
548,3	2577,748
548,8	2580,89
549,2	2579,462
549,7	2584,49
550,1	2592,176
550,6	2590,833
551	2596,176
551,5	2595,176
551,9	2591,89
552,4	2594,49
552,8	2597,805
553,3	2601,233
553,7	2600,405
554,2	2603,69
554,6	2605,376
555,1	2616,405
555,5	2616,033
555,9	2619,033
556,4	2621,376
556,8	2629,119
557,3	2635,033
557,7	2643,005
558,2	2634,319
558,6	2643,262
559,1	2640,09
559,5	2644,433
560	2644,176
560,4	2641,719
560,9	2640,49
561,3	2647,262
561,8	2645,662
562,2	2651,805
562,7	2654,662
563,1	2661,948
563,6	2663,748
564	2665,748
564,4	2672,576
564,9	2678,519
565,3	2683,262
565,8	2677,005
566,2	2676,348
566,7	2679,69
567,1	2682,976
567,6	2676,776
568	2675,576
568,5	2668,119
568,9	2673,548
569,4	2673,319
569,8	2676,176
570,3	2673,548
570,7	2673,205
571,1	2674,776
571,6	2683,148
572	2685,233
572,5	2680,233
572,9	2670,633
573,4	2670,633
573,8	2677,776
574,3	2675,89
574,7	2673,348
575,2	2673,348
575,6	2668,29
576,1	2674,89
576,5	2676,605
576,9	2663,833
577,4	2661,205
577,8	2651,862
578,3	2646,376
578,7	2651,29
579,2	2646,748
579,6	2637,033
580,1	2637,576
580,5	2638,062
581	2642,09
581,4	2641,805
581,9	2631,376
582,3	2630,805
582,7	2632,062
583,2	2628,205
583,6	2620,148
584,1	2615,605
584,5	2612,033
585	2617,919
585,4	2604,919
585,9	2599,833
586,3	2598,062
586,8	2593,233
587,2	2584,605
587,6	2584,176
588,1	2582,319
588,5	2581,005
589	2578,519
589,4	2573,176
589,9	2574,405
590,3	2569,433
590,8	2556,176
591,2	2548,005
591,7	2549,348
592,1	2546,09
592,5	2544,919
593	2540,719
593,4	2543,119
593,9	2542,005
594,3	2535,919
594,8	2534,376
595,2	2528,319
595,7	2523,919
596,1	2516,49
596,6	2515,119
597	2512,69
597,4	2509,376
597,9	2503,033
598,3	2495,748
598,8	2493,262
599,2	2492,205
599,7	2480,719
600,1	2474,862
600,6	2469,776
601	2459,805
601,4	2463,976
601,9	2463,462
602,3	2453,833
602,8	2453,433
603,2	2449,919
603,7	2444,405
604,1	2442,062
604,6	2434,005
605	2417,548
605,4	2418,376
605,9	2406,69
606,3	2398,776
606,8	2391,948
607,2	2382,548
607,7	2371,519
608,1	2369,862
608,6	2357,148
609	2363,29
609,4	2358,29
609,9	2350,605
610,3	2351,176
610,8	2339,89
611,2	2330,462
611,7	2327,748
612,1	2313,776
612,6	2302,805
613	2297,89
613,4	2284,548
613,9	2287,748
614,3	2285,662
614,8	2278,548
615,2	2267,976
615,7	2261,433
616,1	2253,805
616,6	2243,919
617	2228,005
617,4	2214,319
617,9	2202,89
618,3	2195,005
618,8	2190,89
619,2	2184,205
619,7	2176,776
620,1	2167,09
620,5	2162,776
621	2156,862
621,4	2151,548
621,9	2137,976
622,3	2129,348
622,8	2119,405
623,2	2117,119
623,6	2105,605
624,1	2097,262
624,5	2082,833
625	2078,548
625,4	2069,919
625,9	2069,29
626,3	2059,776
626,8	2051,376
627,2	2041,69
627,6	2031,776
628,1	2015,548
628,5	2005,433
629	1988,662
629,4	1978,205
629,9	1971,233
630,3	1951,262
630,7	1941,919
631,2	1940,319
631,6	1930,005
632,1	1920,748
632,5	1914,976
633	1904,89
633,4	1906,033
633,8	1903,405
634,3	1891,805
634,7	1882,605
635,2	1872,405
635,6	1864,49
636,1	1857,033
636,5	1844,576
636,9	1827,633
637,4	1817,833
637,8	1805,062
638,3	1795,319
638,7	1778,233
639,2	1762,062
639,6	1754,519
640	1744,548
640,5	1738,233
640,9	1731,633
641,4	1726,262
641,8	1725,205
642,2	1724,29
642,7	1717,69
643,1	1718,548
643,6	1705,49
644	1701,433
644,5	1697,119
644,9	1693,576
645,3	1679,462
645,8	1665,719
646,2	1658,005
646,7	1656,548
647,1	1645,49
647,6	1636,719
648	1623,462
648,4	1616,662
648,9	1621,319
649,3	1609,262
649,8	1599,176
650,2	1593,948
650,6	1585,405
651,1	1576,633
651,5	1573,748
652	1561,633
652,4	1549,433
652,9	1542,319
653,3	1534,233
653,7	1524,948
654,2	1519,262
654,6	1506,319
655,1	1495,948
655,5	1496,148
655,9	1486,319
656,4	1479,862
656,8	1470,919
657,3	1463,205
657,7	1458,433
658,2	1447,262
658,6	1436,862
659	1427,862
659,5	1417,319
659,9	1408,662
660,4	1397,776
660,8	1384,69
661,2	1382,176
661,7	1374,148
662,1	1370,148
662,6	1361,29
663	1356,919
663,4	1346,548
663,9	1345,348
664,3	1333,005
664,8	1323,033
665,2	1310,662
665,6	1301,605
666,1	1290,89
666,5	1285,005
667	1273,805
667,4	1262,662
667,9	1255,376
668,3	1251,89
668,7	1245,919
669,2	1243,09
669,6	1237,919
670,1	1232,776
670,5	1228,805
670,9	1220,433
671,4	1211,976
671,8	1206,29
672,3	1200,662
672,7	1191,433
673,1	1182,033
673,6	1176,033
674	1174,319
674,5	1166,119
674,9	1152,633
675,3	1140,862
675,8	1133,919
676,2	1123,148
676,7	1115,548
677,1	1105,005
677,5	1096,662
678	1092,719
678,4	1090,033
678,9	1083,719
679,3	1078,833
679,7	1071,833
680,2	1062,033
680,6	1058,776
681,1	1056,49
681,5	1049,805
681,9	1044,976
682,4	1042,319
682,8	1040,433
683,3	1037,805
683,7	1034,548
684,1	1024,69
684,6	1011,719
685	1007,262
685,5	997,976
685,9	981,719
686,3	974,376
686,8	963,319
687,2	957,462
687,7	951,748
688,1	938,748
688,5	933,233
689	933,49
689,4	929,805
689,9	926,49
690,3	917,49
690,7	915,119
691,2	915,833
691,6	915,319
692	913,29
692,5	907,205
692,9	899,919
693,4	895,548
693,8	892,805
694,2	882,633
694,7	872,919
695,1	863,719
695,6	858,576
696	857,519
696,4	852,433
696,9	843,29
697,3	838,205
697,8	834,148
698,2	830,376
698,6	830,033
699,1	820,433
699,5	818,576
699,9	808,576
700,4	803,605
700,8	800,062
701,3	792,69
701,7	779,748
702,1	774,433
702,6	769,348
703	771,89
703,5	767,862
703,9	762,662
704,3	761,833
704,8	761,233
705,2	759,976
705,6	758,633
706,1	754,633
706,5	748,119
707	740,805
707,4	739,719
707,8	732,176
708,3	726,233
708,7	718,09
709,2	711,519
709,6	710,176
710	709,805
710,5	696,062
710,9	693,405
711,3	686,748
711,8	684,233
712,2	681,405
712,7	674,89
713,1	670,748
713,5	671,519
714	668,205
714,4	661,348
714,8	655,376
715,3	648,805
715,7	647,976
716,2	640,49
716,6	633,833
717	626,233
717,5	622,519
717,9	619,89
718,3	611,348
718,8	602,205
719,2	596,633
719,7	591,29
720,1	593,89
720,5	596,205
721	591,405
721,4	593,205
721,8	597,319
722,3	592,976
722,7	593,405
723,2	580,033
723,6	566,148
724	559,748
724,5	551,29
724,9	541,033
725,3	537,776
725,8	526,748
726,2	526,633
726,7	527,719
727,1	525,69
727,5	526,862
728	522,719
728,4	521,833
728,8	522,576
729,3	519,805
729,7	518,262
730,1	513,09
730,6	512,119
731	507,205
731,5	502,005
731,9	495,662
732,3	493,205
732,8	491,176
733,2	487,833
733,6	482,119
734,1	482,462
734,5	480,69
734,9	482,233
735,4	484,005
735,8	475,89
736,3	477,605
736,7	474,548
737,1	471,833
737,6	466,805
738	463,519
738,4	455,748
738,9	457,948
739,3	455,176
739,7	451,205
740,2	443,948
740,6	449,062
741,1	449,948
741,5	444,69
741,9	443,262
742,4	439,919
742,8	437,262
743,2	439,948
743,7	428,89
744,1	417,49
744,5	417,548
745	413,69
745,4	408,233
745,8	407,119
746,3	406,062
746,7	403,89
747,2	406,405
747,6	409,805
748	409,719
748,5	409,948
748,9	408,776
749,3	401,948
749,8	404,148
750,2	398,576
750,6	390,862
751,1	388,119
751,5	386,69
751,9	385,376
752,4	388,948
752,8	386,948
753,3	388,205
753,7	387,89
754,1	381,319
754,6	375,09
755	369,176
755,4	359,69
755,9	355,319
756,3	349,319
756,7	345,005
757,2	347,605
757,6	346,09
758	347,09
758,5	348,033
758,9	345,233
759,3	346,948
759,8	345,662
760,2	343,719
760,6	340,005
761,1	333,433
761,5	331,833
761,9	327,233
762,4	322,233
762,8	318,49
763,3	311,005
763,7	310,49
764,1	310,376
764,6	310,176
765	311,033
765,4	314,433
765,9	313,89
766,3	317,29
766,7	314,405
767,2	308,319
767,6	303,748
768	301,919
768,5	296,89
768,9	292,919
769,3	286,233
769,8	282,576
770,2	286,633
770,6	284,148
771,1	287,462
771,5	289,719
771,9	296,005
772,4	294,948
772,8	298,29
773,2	292,948
773,7	291,176
774,1	282,233
774,5	273,862
775	265,576
775,4	266,633
775,8	267,119
776,3	270,348
776,7	269,89
777,1	271,376
777,6	268,805
778	270,176
778,4	266,862
778,9	262,719
779,3	259,176
779,7	262,119
780,2	261,348
780,6	265,148
781	261,319
781,5	256,176
781,9	254,633
782,3	248,176
782,8	244,776
783,2	238,89
783,6	237,748
784,1	234,205
784,5	234,176
784,9	231,519
785,4	233,805
785,8	230,262
786,2	229,548
786,7	228,662
787,1	227,29
787,5	226,948
788	223,776
788,4	223,776
788,8	221,719
789,3	218,576
789,7	218,119
790,1	218,176
790,6	218,233
791	216,719
791,4	216,405
791,9	215,519
792,3	215,776
792,7	214,405
793,2	210,319
793,6	207,405
794	208,033
794,5	203,405
794,9	202,748
795,3	201,69
795,8	197,519
796,2	196,262
796,6	194,948
797,1	192,348
797,5	185,919
797,9	184,433
798,4	180,119
798,8	176,862
799,2	173,148
799,7	173,605
800,1	172,548
800,5	177,976
801	176,633
801,4	174,348
801,8	171,633
802,2	173,29
802,7	168,176
803,1	165,919
803,5	168,662
804	164,376
804,4	166,919
804,8	167,405
805,3	166,205
805,7	170,005
806,1	169,576
806,6	162,062
807	160,805
807,4	159,719
807,9	156,548
808,3	159,033
808,7	156,062
809,2	155,833
809,6	157,576
810	155,662
810,4	152,376
810,9	150,548
811,3	146,319
811,7	142,89
812,2	147,605
812,6	145,49
813	149,976
813,5	153,662
813,9	154,062
814,3	154,233
814,8	153,433
815,2	144,69
815,6	143,376
816,1	142,919
816,5	141,719
816,9	142,205
817,3	138,005
817,8	144,462
818,2	145,376
818,6	140,548
819,1	132,862
819,5	130,005
819,9	131,119
820,4	133,148
820,8	124,976
821,2	119,948
821,7	123,976
822,1	129,89
822,5	131,433
822,9	126,833
823,4	125,519
823,8	129,976
824,2	135,376
824,7	132,376
825,1	125,376
825,5	119,405
826	117,833
826,4	117,748
826,8	114,662
827,3	114,348
827,7	112,262
828,1	111,233
828,5	112,805
829	111,062
829,4	109,376
829,8	101,09
830,3	97,005
830,7	97,062
831,1	98,49
831,6	98,09
832	101,233
832,4	100,576
832,8	108,262
833,3	107,062
833,7	103,89
834,1	102,348
834,6	99,748
835	97,348
835,4	97,862
835,8	87,919
836,3	87,519
836,7	86,776
837,1	86,205
837,6	89,205
838	87,033
838,4	82,519
838,9	87,348
839,3	86,576
839,7	89,833
840,1	85,29
840,6	82,433
841	83,833
841,4	85,576
841,9	86,176
842,3	83,148
842,7	81,005
843,1	83,119
843,6	85,433
844	84,09
844,4	87,29
844,9	87,805
845,3	92,119
845,7	91,976
846,2	89,433
846,6	86,633
847	88,633
847,4	87,062
847,9	83,862
848,3	81,405
848,7	82,005
849,2	85,548
849,6	80,776
850	84,719
850,4	81,119
850,9	81,348
851,3	83,319
851,7	80,176
852,2	82,376
852,6	86,862
853	84,09
853,4	86,462
853,9	85,719
854,3	84,462
854,7	86,09
855,2	78,862
855,6	77,176
856	71,205
856,4	63,948
856,9	62,376
857,3	60,319
857,7	61,833
858,2	67,662
858,6	67,09
859	66,405
859,4	67,576
859,9	64,662
860,3	57,776
860,7	56,319
861,1	52,062
861,6	51,976
862	56,176
862,4	55,548
862,9	56,005
863,3	62,262
863,7	62,005
864,1	63,69
864,6	59,719
865	59,176
865,4	61,69
865,9	67,69
866,3	61,519
866,7	56,519
867,1	51,776
867,6	55,005
868	52,205
868,4	50,49
868,8	46,462
869,3	49,462
869,7	56,89
870,1	57,005
870,6	56,148
871	-18,795
871,4	-12,995
871,8	-13,224
872,3	-10,824
872,7	-15,567
873,1	-10,938
873,5	-11,252
874	62,205
874,4	56,433
874,8	50,576
875,3	48,662
875,7	45,776
876,1	46,548
876,5	47,462
877	46,433
877,4	41,948
877,8	47,948
878,2	48,862
878,7	51,405
879,1	47,862
879,5	47,205
879,9	50,062
880,4	53,605
880,8	51,548
881,2	49,062
881,7	48,033
882,1	49,033
882,5	44,262
882,9	41,005
883,4	40,433
883,8	43,433
884,2	46,862
884,6	44,148
885,1	44,262
885,5	44,862
885,9	45,948
886,3	48,033
886,8	44,233
887,2	38,405
887,6	37,576
888	35,49
888,5	36,719
888,9	34,033
889,3	28,976
889,8	30,29
890,2	30,748
890,6	31,033
891	34,062
891,5	33,376
891,9	35,119
892,3	35,005
892,7	32,776
893,2	36,49
893,6	39,69
894	37,662
894,4	39,776
894,9	37,548
895,3	38,033
895,7	37,919
896,1	32,633
896,6	31,919
897	34,776
897,4	35,29
897,8	39,005
898,3	41,205
898,7	40,976
899,1	45,29
899,5	44,119
900	36,462
900,4	31,376
900,8	25,119
901,2	20,976
901,7	18,262
902,1	18,833
902,5	21,605
902,9	24,09
903,4	26,748
903,8	30,176
904,2	29,89
904,6	30,719
905,1	28,69
905,5	26,49
905,9	31,262
906,3	32,919
906,8	33,376
907,2	41,919
907,6	43,29
908	43,519
908,5	42,062
908,9	33,976
909,3	29,148
909,7	29,119
910,2	22,719
910,6	29,005
911	24,719
911,4	24,062
911,9	26,69
912,3	29,233
912,7	34,062
913,1	34,89
913,6	26,805
914	28,348
914,4	26,319
914,8	28,805
915,3	27,576
915,7	22,062
916,1	20,148
916,5	22,262
916,9	24,576
917,4	26,605
917,8	26,519
918,2	26,119
918,6	22,033
919,1	20,862
919,5	20,348
919,9	18,89
920,3	15,605
920,8	10,319
921,2	8,576
921,6	10,862
922	12,862
922,5	11,776
922,9	15,833
923,3	17,433
923,7	21,262
924,2	21,633
924,6	23,405
925	26,205
925,4	25,233
925,8	21,833
926,3	22,376
926,7	19,49
927,1	23,605
927,5	24,205
928	19,233
928,4	19,262
928,8	19,233
929,2	18,748
929,7	22,548
930,1	21,262
930,5	19,433
930,9	24,862
931,3	26,633
931,8	28,948
932,2	31,519
932,6	30,119
933	23,348
933,5	22,09
933,9	23,205
934,3	22,176
934,7	18,49
935,2	21,119
935,6	21,605
936	27,548
936,4	34,348
936,8	34,519
937,3	30,548
937,7	33,119
938,1	30,433
938,5	27,862
939	25,833
939,4	20,233
939,8	13,29
940,2	16,005
940,6	15,976
941,1	14,433
941,5	18,262
941,9	20,833
942,3	21,176
942,8	22,319
943,2	26,833
943,6	22,833
944	21,776
944,4	18,005
944,9	14,948
945,3	14,09
945,7	12,919
946,1	7,519
946,6	5,348
947	5,548
947,4	7,433
947,8	8,262
948,2	6,862
948,7	9,005
949,1	10,348
949,5	18,062
949,9	19,319
950,3	16,662
950,8	13,548
951,2	14,662
951,6	14,348
952	14,319
952,5	10,719
952,9	11,833
953,3	13,09
953,7	12,262
954,1	13,862
954,6	14,519
955	21,833
955,4	17,576
955,8	20,519
956,2	18,69
956,7	24,148
957,1	20,576
957,5	23,262
957,9	17,748
958,3	18,348
958,8	15,462
959,2	20,748
959,6	20,205
960	17,976
960,5	16,433
960,9	15,376
961,3	18,09
961,7	14,49
962,1	12,576
962,6	10,49
963	11,919
963,4	6,576
963,8	9,605
964,2	12,062
964,7	14,833
965,1	16,319
965,5	17,348
965,9	20,376
966,3	24,976
966,8	23,462
967,2	20,319
967,6	19,376
968	15,948
968,4	17,433
968,9	15,662
969,3	17,49
969,7	15,376
970,1	14,719
970,5	13,176
971	16,605
971,4	13,548
971,8	16,462
972,2	14,633
972,6	10,033
973,1	12,748
973,5	12,89
973,9	11,748
974,3	15,833
974,7	19,176
975,2	18,748
975,6	22,805
976	22,662
976,4	21,576
976,8	20,49
977,3	16,576
977,7	11,833
978,1	11,69
978,5	12,748
978,9	8,748
979,4	12,148
979,8	11,119
980,2	12,462
980,6	8,348
981	11,148
981,5	10,776
981,9	9,919
982,3	8,176
982,7	9,862
983,1	7,205
983,6	10,919
984	5,748
984,4	6,033
984,8	7,49
985,2	10,29
985,6	6,833
986,1	10,148
986,5	10,205
986,9	11,348
987,3	11,776
987,7	12,405
988,2	6,662
988,6	5,748
989	6,176
989,4	6,919
989,8	9,205
990,3	9,005
990,7	9,405
991,1	9,833
991,5	15,976
991,9	15,49
992,3	14,605
992,8	11,948
993,2	9,833
993,6	9,519
994	18,233
994,4	16,29
994,9	14,319
995,3	14,862
995,7	16,233
996,1	16,833
996,5	17,633
996,9	9,176
997,4	7,948
997,8	4,119
998,2	3,833
998,6	-2,595
999	-0,452
999,5	0,376
999,9	4,262
1000,3	3,433
1000,7	7,519
1001,1	6,062
1001,5	13,748
1002	16,833
1002,4	17,833
1002,8	15,176
1003,2	15,948
1003,6	18,09
1004	20,919
1004,5	19,09
1004,9	16,976
1005,3	11,205
1005,7	12,262
1006,1	11,662
1006,6	8,805
1007	7,462
1007,4	5,89
1007,8	5,976
1008,2	10,662
1008,6	14,09
1009,1	14,519
1009,5	16,833
1009,9	22,148
1010,3	25,519
1010,7	23,862
1011,1	24,519
1011,6	22,348
1012	22,233
1012,4	21,605
1012,8	14,433
1013,2	15,205
1013,6	15,805
1014,1	13,919
1014,5	10,405
1014,9	9,719
1015,3	9,119
1015,7	8,69
1016,1	6,348
1016,6	5,348
1017	4,548
1017,4	8,833
1017,8	9,919
1018,2	14,633
1018,6	17,062
1019,1	14,976
1019,5	15,519
1019,9	14,69
1020,3	13,862
1020,7	14,462
1021,1	8,262
1021,6	6,519
1022	8,233
1022,4	5,233
1022,8	8,862
1023,2	12,09
1023,6	15,776
1024,1	21,005
1024,5	27,405
1024,9	23,119
1025,3	24,719
1025,7	24,805
1026,1	23,062
1026,6	18,805
1027	12,948
1027,4	7,49
1027,8	12,548
1028,2	8,033
1028,6	11,89
1029	10,69
1029,5	12,405
1029,9	11,662
1030,3	11,005
1030,7	8,919
1031,1	18,519
1031,5	10,719
1032	5,89
1032,4	5,033
1032,8	12,519
1033,2	15,548
1033,6	19,605
1034	17,033
1034,4	19,205
1034,9	25,09
1035,3	21,805
1035,7	20,319
1036,1	15,748
1036,5	8,862
1036,9	10,548
1037,4	15,805
1037,8	9,719
1038,2	10,376
1038,6	8,062
1039	12,748
1039,4	19,205
1039,8	11,976
1040,3	7,948
1040,7	10,348
1041,1	16,233
1041,5	20,205
1041,9	18,49
1042,3	15,833
1042,7	21,462
1043,2	23,148
1043,6	23,205
1044	20,833
1044,4	17,719
1044,8	21,376
1045,2	19,633
1045,6	23,29
1046,1	19,919
1046,5	21,119
1046,9	18,433
1047,3	17,348
1047,7	13,119
1048,1	12,976
1048,5	5,605
1049	8,205
1049,4	8,033
1049,8	4,862
1050,2	4,976
1050,6	10,005
1051	13,919
1051,4	12,576
1051,9	8,005
1052,3	14,005
1052,7	20,033
1053,1	16,348
1053,5	14,319
1053,9	14,548
1054,3	18,862
1054,8	25,576
1055,2	22,548
1055,6	26,119
1056	31,062
1056,4	29,776
1056,8	30,148
1057,2	26,176
1057,6	21,176
1058,1	14,805
1058,5	6,948
1058,9	9,262
1059,3	10,29
1059,7	9,29
1060,1	10,862
1060,5	14,519
1061	19,89
1061,4	22,719
1061,8	22,176
1062,2	20,548
1062,6	20,519
1063	21,862
1063,4	21,376
1063,8	17,09
1064,3	14,519
1064,7	10,976
1065,1	6,205
1065,5	3,062
1065,9	2,176
1066,3	-2,081
1066,7	-0,567
1067,1	-2,881
1067,6	0,748
1068	0,605
1068,4	1,405
1068,8	4,919
1069,2	4,405
1069,6	3,633
1070	7,919
1070,4	5,005
1070,9	8,462
1071,3	13,433
1071,7	9,548
1072,1	13,776
1072,5	16,919
1072,9	13,29
1073,3	19,29
1073,7	17,662
1074,2	15,319
1074,6	17,205
1075	14,976
1075,4	11,633
1075,8	15,69
1076,2	9,719
1076,6	9,662
1077	5,633
1077,5	6,633
1077,9	6,862
1078,3	6,519
1078,7	2,948
1079,1	-0,481
1079,5	2,29
1079,9	5,748
1080,3	5,462
1080,7	7,433
1081,2	11,376
1081,6	14,548
1082	16,062
1082,4	18,776
1082,8	18,548
1083,2	18,062
1083,6	18,519
1084	12,09
1084,5	9,119
1084,9	9,548
1085,3	4,519
1085,7	6,29
1086,1	5,862
1086,5	3,605
1086,9	9,633
1087,3	8,176
1087,7	8,005
1088,2	7,748
1088,6	2,462
1089	4,719
1089,4	5,748
1089,8	6,348
1090,2	4,433
1090,6	4,976
1091	11,376
1091,4	17,805
1091,9	13,833
1092,3	15,005
1092,7	9,376
1093,1	17,233
1093,5	17,09
1093,9	11,005
1094,3	13,519
1094,7	16,262
1095,1	15,948
1095,5	20,062
1096	14,348
1096,4	15,576
1096,8	14,319
1097,2	13,005
1097,6	16,976
1098	16,09
1098,4	17,748
1098,8	21,862
1099,2	27,605
1099,6	28,805
1100,1	23,433
1100,5	16,833
1100,9	16,005
1101,3	16,69
1101,7	14,348
1102,1	8,719
1102,5	15,005
1102,9	18,005
1103,3	20,833
1103,7	22,605
1104,2	22,605
1104,6	24,89
1105	23,09
1105,4	17,433
1105,8	13,09
1106,2	9,548
1106,6	6,348
1107	2,062
1107,4	-0,267
1107,8	-0,167
1108,3	-0,867
