Data from Subt2_064.txt Node
Date: Sat Aug 26 16:32:34 MSK 2023
User: vat
Spectrometer: MAYP114033
Trigger mode: 0
Integration Time (sec): 1,000000E0
Scans to average: 5
Electric dark correction enabled: true
Nonlinearity correction enabled: false
Boxcar width: 3
XAxis mode: Wavelengths
Number of Pixels in Spectrum: 2068
>>>>>Begin Spectral Data<<<<<
199,4	0,333
199,9	-0,947
200,4	-2,533
200,8	-2,295
201,3	-2,095
201,8	-2,238
202,2	-2,124
202,7	2,076
203,2	0,362
203,6	0,619
204,1	0,848
204,6	4,705
205	6,333
205,5	3,676
206	-0,152
206,4	5,305
206,9	3,105
207,4	7,848
207,8	0,648
208,3	-1,667
208,8	0,962
209,2	4,19
209,7	4,648
210,2	16,419
210,6	14,276
211,1	17,562
211,5	18,562
212	14,79
212,5	9,619
212,9	7,762
213,4	1,248
213,9	-4,181
214,3	0,99
214,8	3,39
215,3	5,476
215,7	3,19
216,2	4,848
216,7	3,105
217,1	1,248
217,6	-1,067
218,1	0,362
218,5	1,619
219	11,79
219,5	10,933
219,9	9,962
220,4	10,905
220,9	9,99
221,3	7,305
221,8	8,705
222,3	-0,324
222,7	-1,552
223,2	1,562
223,6	4,933
224,1	2,362
224,6	-1,01
225	-0,638
225,5	6,076
226	4,933
226,4	2,476
226,9	2,648
227,4	5,819
227,8	9,848
228,3	10,733
228,8	6,19
229,2	8,333
229,7	5,305
230,2	9,448
230,6	5,076
231,1	7,962
231,5	10,448
232	17,79
232,5	18,533
232,9	22,733
233,4	20,133
233,9	23,79
234,3	22,762
234,8	18,676
235,3	17,248
235,7	19,419
236,2	15,619
236,7	14,162
237,1	9,619
237,6	6,048
238,1	5,848
238,5	3,248
239	-2,838
239,4	1,476
239,9	0,133
240,4	4,105
240,8	3,419
241,3	3,933
241,8	3,019
242,2	3,276
242,7	1,848
243,2	6,076
243,6	5,362
244,1	3,162
244,6	3,448
245	3,99
245,5	4,79
245,9	4,219
246,4	3,105
246,9	6,476
247,3	9,733
247,8	5,276
248,3	7,933
248,7	11,762
249,2	7,676
249,7	8,162
250,1	5,219
250,6	4,705
251	7,39
251,5	1,162
252	0,505
252,4	5,876
252,9	4,59
253,4	3,762
253,8	2,448
254,3	3,19
254,8	9,133
255,2	5,219
255,7	8,848
256,1	8,362
256,6	11,162
257,1	18,133
257,5	21,476
258	21,133
258,5	24,305
258,9	20,305
259,4	19,905
259,9	21,362
260,3	18,39
260,8	20,619
261,2	22,048
261,7	21,419
262,2	20,619
262,6	23,99
263,1	19,333
263,6	24,248
264	20,39
264,5	17,333
264,9	17,476
265,4	18,076
265,9	20,876
266,3	26,505
266,8	17,248
267,3	21,076
267,7	21,419
268,2	22,448
268,7	21,105
269,1	14,362
269,6	12,562
270	22,762
270,5	18,333
271	18,048
271,4	13,705
271,9	15,048
272,4	16,819
272,8	12,99
273,3	7,848
273,7	3,333
274,2	3,905
274,7	6,448
275,1	4,219
275,6	3,276
276,1	7,79
276,5	6,648
277	9,933
277,4	9,39
277,9	6,99
278,4	11,59
278,8	17,648
279,3	11,019
279,8	13,448
280,2	14,876
280,7	12,79
281,1	14,819
281,6	16,362
282,1	12,648
282,5	16,562
283	9,19
283,4	6,448
283,9	7,19
284,4	4,733
284,8	1,705
285,3	-3,81
285,8	-6,695
286,2	-4,667
286,7	-4,381
287,1	-6,752
287,6	-1,295
288,1	0,733
288,5	6,819
289	11,248
289,5	9,305
289,9	7,505
290,4	10,705
290,8	12,105
291,3	8,762
291,8	5,419
292,2	6,762
292,7	11,076
293,1	14,762
293,6	13,79
294,1	9,076
294,5	12,276
295	14,19
295,5	12,362
295,9	14,448
296,4	16,905
296,8	15,248
297,3	17,876
297,8	18,819
298,2	15,648
298,7	10,733
299,1	7,219
299,6	4,39
300,1	6,276
300,5	6,619
301	3,59
301,5	6,99
301,9	10,648
302,4	11,733
302,8	12,219
303,3	13,762
303,8	8,848
304,2	8,248
304,7	5,619
305,1	6,562
305,6	5,562
306,1	4,133
306,5	3,39
307	5,076
307,4	4,362
307,9	5,59
308,4	2,476
308,8	7,905
309,3	7,019
309,8	8,419
310,2	5,476
310,7	13,105
311,1	9,848
311,6	11,905
312,1	10,476
312,5	14,819
313	9,448
313,4	13,505
313,9	13,562
314,4	11,39
314,8	11,648
315,3	8,276
315,7	4,162
316,2	6,848
316,7	9,333
317,1	1,048
317,6	4,79
318	5,19
318,5	9,105
319	7,79
319,4	6,848
319,9	4,333
320,3	10,99
320,8	14,048
321,3	13,076
321,7	6,648
322,2	8,876
322,6	8,362
323,1	10,59
323,6	5,333
324	7,648
324,5	4,99
324,9	6,533
325,4	8,505
325,9	13,59
326,3	14,133
326,8	14,076
327,2	12,505
327,7	15,933
328,2	15,333
328,6	17,276
329,1	13,99
329,5	13,276
330	16,019
330,5	13,59
330,9	15,819
331,4	15,305
331,8	16,219
332,3	16,819
332,8	12,505
333,2	12,676
333,7	11,962
334,1	9,248
334,6	11,162
335,1	10,762
335,5	13,476
336	11,562
336,4	9,505
336,9	13,133
337,4	10,476
337,8	10,219
338,3	8,048
338,7	7,048
339,2	14,505
339,7	14,848
340,1	11,019
340,6	9,505
341	15,19
341,5	14,476
342	12,305
342,4	7,333
342,9	6,533
343,3	8,648
343,8	15,333
344,2	11,733
344,7	11,619
345,2	9,705
345,6	14,762
346,1	13,105
346,5	14,676
347	14,448
347,5	9,59
347,9	10,99
348,4	12,962
348,8	11,59
349,3	12,105
349,8	8,762
350,2	6,105
350,7	11,219
351,1	10,105
351,6	13,562
352	23,562
352,5	27,219
353	35,248
353,4	40,505
353,9	50,819
354,3	61,362
354,8	70,733
355,3	80,105
355,7	98,248
356,2	117,505
356,6	145,733
357,1	166,505
357,5	198,505
358	236,505
358,5	272,99
358,9	311,419
359,4	358,848
359,8	407,99
360,3	470,162
360,8	535,676
361,2	606,39
361,7	689,79
362,1	787,276
362,6	889,648
363	995,248
363,5	1112,676
364	1234,019
364,4	1355,39
364,9	1476,219
365,3	1597,848
365,8	1709,933
366,3	1822,905
366,7	1921,448
367,2	2005,276
367,6	2079,533
368,1	2131,048
368,5	2168,505
369	2187,562
369,5	2180,848
369,9	2159,162
370,4	2122,705
370,8	2073,705
371,3	2020,305
371,7	1941,762
372,2	1861,248
372,7	1774,648
373,1	1685,676
373,6	1591,305
374	1488,019
374,5	1387,876
374,9	1289,533
375,4	1197,019
375,9	1113,219
376,3	1024,276
376,8	944,248
377,2	875,533
377,7	801,733
378,2	742,305
378,6	683,562
379,1	625,048
379,5	578,248
380	536,533
380,4	492,848
380,9	456,248
381,4	422,533
381,8	387,933
382,3	361,248
382,7	329,276
383,2	299,562
383,6	279,219
384,1	257,476
384,6	233,762
385	220,562
385,5	204,562
385,9	195,105
386,4	184,962
386,8	177,933
387,3	164,162
387,7	160,219
388,2	149,79
388,7	141,39
389,1	131,076
389,6	119,276
390	107,419
390,5	103,762
390,9	100,733
391,4	97,533
391,9	91,819
392,3	86,505
392,8	86,305
393,2	80,562
393,7	80,362
394,1	75,305
394,6	67,476
395,1	64,648
395,5	66,933
396	65,505
396,4	64,905
396,9	61,905
397,3	58,076
397,8	59,362
398,2	56,476
398,7	50,105
399,2	46,876
399,6	45,276
400,1	37,048
400,5	40,019
401	38,133
401,4	37,619
401,9	40,762
402,4	38,99
402,8	37,705
403,3	42,79
403,7	39,048
404,2	40,819
404,6	42,19
405,1	37,39
405,5	37,419
406	37,876
406,5	36,962
406,9	36,762
407,4	32,648
407,8	32,762
408,3	36,676
408,7	43,905
409,2	39,819
409,6	40,419
410,1	44,105
410,6	48,79
411	53,733
411,5	54,362
411,9	48,59
412,4	55,705
412,8	57,905
413,3	55,533
413,7	56,705
414,2	58,762
414,7	61,99
415,1	65,362
415,6	68,333
416	72,733
416,5	78,876
416,9	81,648
417,4	85,39
417,8	86,419
418,3	92,533
418,8	91,676
419,2	97,59
419,7	104,533
420,1	101,619
420,6	98,419
421	98,762
421,5	97,99
421,9	100,276
422,4	97,99
422,8	97,362
423,3	102,448
423,8	104,648
424,2	110,619
424,7	114,219
425,1	117,59
425,6	119,305
426	113,19
426,5	113,562
426,9	113,219
427,4	112,19
427,9	104,219
428,3	102,476
428,8	102,076
429,2	105,133
429,7	101,905
430,1	104,905
430,6	100,79
431	104,105
431,5	106,133
431,9	107,819
432,4	110,648
432,8	119,105
433,3	118,533
433,8	122,648
434,2	125,705
434,7	122,133
435,1	123,019
435,6	128,99
436	129,362
436,5	138,162
436,9	143,305
437,4	149,076
437,8	157,962
438,3	166,505
438,8	163,905
439,2	171,19
439,7	171,305
440,1	177,905
440,6	187,933
441	193,933
441,5	197,848
441,9	207,905
442,4	220,448
442,8	229,762
443,3	239,505
443,7	242,419
444,2	253,933
444,7	267,019
445,1	277,876
445,6	286,105
446	297,819
446,5	310,733
446,9	327,619
447,4	342,105
447,8	352,99
448,3	367,876
448,7	377,79
449,2	390,362
449,6	398,533
450,1	418,419
450,6	432,219
451	445,019
451,5	460,19
451,9	479,533
452,4	501,048
452,8	526,762
453,3	538,962
453,7	555,362
454,2	577,562
454,6	596,59
455,1	609,019
455,5	625,99
456	643,419
456,4	665,905
456,9	690,676
457,3	715,848
457,8	742,505
458,3	775,905
458,7	805,362
459,2	832,933
459,6	860,848
460,1	884,39
460,5	911,705
461	932,648
461,4	959,248
461,9	984,133
462,3	1009,105
462,8	1036,676
463,2	1066,59
463,7	1095,105
464,1	1130,99
464,6	1155,99
465	1187,39
465,5	1223,219
466	1250,905
466,4	1283,933
466,9	1317,19
467,3	1344,99
467,8	1385,705
468,2	1415,19
468,7	1446,99
469,1	1480,105
469,6	1515,476
470	1542,848
470,5	1582,819
470,9	1611,619
471,4	1651,105
471,8	1680,876
472,3	1714,019
472,7	1747,705
473,2	1782,99
473,6	1820,448
474,1	1853,905
474,5	1886,505
475	1924,99
475,4	1959,419
475,9	1996,619
476,4	2030,419
476,8	2057,876
477,3	2098,248
477,7	2133,676
478,2	2165,848
478,6	2202,276
479,1	2230,419
479,5	2268,705
480	2305,962
480,4	2331,419
480,9	2358,648
481,3	2385,419
481,8	2418,676
482,2	2446,19
482,7	2466,99
483,1	2492,733
483,6	2512,733
484	2537,19
484,5	2562,905
484,9	2583,762
485,4	2611,533
485,8	2634,762
486,3	2653,19
486,7	2682,933
487,2	2709,59
487,6	2730,562
488,1	2755,533
488,5	2773,876
489	2793,619
489,4	2816,79
489,9	2835,619
490,4	2852,276
490,8	2866,248
491,3	2876,105
491,7	2890,076
492,2	2911,876
492,6	2916,362
493,1	2929,59
493,5	2932,876
494	2943,39
494,4	2953,276
494,9	2958,59
495,3	2963,19
495,8	2979,39
496,2	2986,105
496,7	2991,476
497,1	3001,819
497,6	3009,79
498	3024,276
498,5	3035,048
498,9	3045,79
499,4	3049,448
499,8	3060,933
500,3	3068,99
500,7	3071,819
501,2	3077,762
501,6	3077,19
502,1	3072,105
502,5	3071,419
503	3084,419
503,4	3084,59
503,9	3091,848
504,3	3094,99
504,8	3097,362
505,2	3098,562
505,7	3111,505
506,1	3106,476
506,6	3107,848
507	3109,733
507,5	3104,219
507,9	3104,476
508,4	3111,505
508,8	3102,848
509,3	3104,305
509,7	3102,39
510,2	3098,762
510,6	3095,076
511,1	3097,733
511,5	3092,79
512	3096,133
512,4	3093,905
512,9	3098,048
513,3	3105,962
513,8	3107,848
514,2	3106,99
514,7	3106,133
515,1	3103,39
515,6	3100,105
516	3092,105
516,5	3085,562
516,9	3080,419
517,4	3082,876
517,8	3082,019
518,3	3080,333
518,7	3079,733
519,2	3081,448
519,6	3077,705
520,1	3084,59
520,5	3082,276
521	3083,362
521,4	3077,733
521,9	3078,39
522,3	3077,876
522,8	3079,333
523,2	3074,448
523,7	3070,848
524,1	3066,476
524,6	3072,448
525	3078,79
525,5	3079,733
525,9	3074,219
526,4	3074,305
526,8	3075,248
527,3	3080,19
527,7	3080,19
528,2	3069,333
528,6	3067,848
529,1	3073,305
529,5	3071,048
530	3072,276
530,4	3066,905
530,9	3068,333
531,3	3072,676
531,8	3077,219
532,2	3075,933
532,6	3075,533
533,1	3071,39
533,5	3075,419
534	3076,448
534,4	3079,419
534,9	3086,762
535,3	3090,733
535,8	3096,276
536,2	3102,076
536,7	3103,505
537,1	3103,79
537,6	3105,99
538	3107,79
538,5	3110,79
538,9	3118,648
539,4	3121,048
539,8	3125,59
540,3	3125,448
540,7	3129,076
541,2	3130,333
541,6	3131,019
542,1	3131,79
542,5	3130,162
543	3128,476
543,4	3135,962
543,9	3139,162
544,3	3137,019
544,8	3140,619
545,2	3139,705
545,7	3143,076
546,1	3151,39
546,5	3156,39
547	3155,562
547,4	3161,019
547,9	3163,933
548,3	3172,105
548,8	3176,876
549,2	3176,933
549,7	3179,648
550,1	3187,505
550,6	3191,19
551	3201,19
551,5	3206,99
551,9	3214,533
552,4	3222,333
552,8	3226,905
553,3	3230,876
553,7	3230,362
554,2	3224,619
554,6	3223,762
555,1	3226,619
555,5	3227,019
555,9	3230,705
556,4	3230,476
556,8	3235,99
557,3	3237,276
557,7	3237,39
558,2	3236,19
558,6	3244,99
559,1	3246,448
559,5	3248,162
560	3251,076
560,4	3251,333
560,9	3256,419
561,3	3265,219
561,8	3263,105
562,2	3261,59
562,7	3263,876
563,1	3265,876
563,6	3270,505
564	3276,048
564,4	3277,533
564,9	3275,105
565,3	3279,933
565,8	3289,619
566,2	3290,133
566,7	3295,162
567,1	3296,19
567,6	3294,562
568	3299,962
568,5	3300,59
568,9	3292,248
569,4	3294,933
569,8	3289,105
570,3	3284,733
570,7	3279,248
571,1	3279,476
571,6	3278,676
572	3280,505
572,5	3277,676
572,9	3291,248
573,4	3295,705
573,8	3299,705
574,3	3297,419
574,7	3291,962
575,2	3293,648
575,6	3297,248
576,1	3285,019
576,5	3283,876
576,9	3284,276
577,4	3283,419
577,8	3285,562
578,3	3278,876
578,7	3268,933
579,2	3274,048
579,6	3270,219
580,1	3268,448
580,5	3259,133
581	3255,648
581,4	3253,848
581,9	3254,505
582,3	3244,59
582,7	3239,333
583,2	3229,076
583,6	3224,076
584,1	3221,219
584,5	3217,848
585	3213,048
585,4	3211,848
585,9	3208,59
586,3	3209,648
586,8	3208,705
587,2	3198,59
587,6	3196,076
588,1	3192,305
588,5	3186,39
589	3176,19
589,4	3165,419
589,9	3155,705
590,3	3150,39
590,8	3143,619
591,2	3134,819
591,7	3124,39
592,1	3124,305
592,5	3120,619
593	3119,048
593,4	3118,905
593,9	3112,905
594,3	3110,619
594,8	3108,819
595,2	3099,019
595,7	3096,39
596,1	3095,876
596,6	3095,362
597	3091,905
597,4	3084,933
597,9	3080,648
598,3	3083,219
598,8	3073,076
599,2	3072,19
599,7	3062,219
600,1	3061,533
600,6	3056,59
601	3047,162
601,4	3041,419
601,9	3033,962
602,3	3022,619
602,8	3017,019
603,2	3003,533
603,7	2994,333
604,1	2993,59
604,6	2979,505
605	2972,19
605,4	2965,59
605,9	2952,733
606,3	2946,705
606,8	2943,248
607,2	2930,962
607,7	2929,533
608,1	2929,762
608,6	2927,362
609	2926,476
609,4	2918,905
609,9	2908,248
610,3	2901,762
610,8	2890,705
611,2	2880,248
611,7	2864,076
612,1	2851,419
612,6	2838,762
613	2835,219
613,4	2831,505
613,9	2819,819
614,3	2812,048
614,8	2803,39
615,2	2795,933
615,7	2790,248
616,1	2777,048
616,6	2766,133
617	2760,019
617,4	2743,562
617,9	2732,705
618,3	2722,362
618,8	2707,79
619,2	2700,819
619,7	2687,105
620,1	2673,533
620,5	2671,105
621	2666,733
621,4	2655,59
621,9	2649,619
622,3	2642,19
622,8	2623,962
623,2	2616,533
623,6	2600,162
624,1	2585,419
624,5	2580,819
625	2563,848
625,4	2550,19
625,9	2544,19
626,3	2532,276
626,8	2525,505
627,2	2508,248
627,6	2490,448
628,1	2484,248
628,5	2471,762
629	2466,562
629,4	2454,305
629,9	2437,876
630,3	2432,762
630,7	2422,933
631,2	2411,219
631,6	2399,99
632,1	2383,933
632,5	2377,619
633	2368,762
633,4	2357,133
633,8	2343,133
634,3	2330,733
634,7	2319,248
635,2	2310,476
635,6	2294,59
636,1	2287,533
636,5	2277,676
636,9	2269,848
637,4	2262,019
637,8	2248,505
638,3	2235,362
638,7	2224,476
639,2	2208,619
639,6	2202,305
640	2192,419
640,5	2177,876
640,9	2167,476
641,4	2162,19
641,8	2151,848
642,2	2146,819
642,7	2127,39
643,1	2123,162
643,6	2117,333
644	2111,819
644,5	2102,276
644,9	2091,419
645,3	2082,59
645,8	2078,048
646,2	2062,19
646,7	2046,105
647,1	2040,905
647,6	2028,533
648	2018,362
648,4	2005,162
648,9	1990,562
649,3	1982,533
649,8	1980,876
650,2	1962,419
650,6	1951,105
651,1	1946,59
651,5	1943,248
652	1938,219
652,4	1921,648
652,9	1912,419
653,3	1907,819
653,7	1899,162
654,2	1884,962
654,6	1870,59
655,1	1856,705
655,5	1855,905
655,9	1841,162
656,4	1832,876
656,8	1824,648
657,3	1815,962
657,7	1805,333
658,2	1803,79
658,6	1783,733
659	1773,019
659,5	1760,219
659,9	1749,076
660,4	1739,819
660,8	1727,448
661,2	1710,133
661,7	1705,305
662,1	1702,533
662,6	1687,733
663	1681,99
663,4	1670,333
663,9	1659,133
664,3	1653,905
664,8	1645,705
665,2	1632,99
665,6	1626,819
666,1	1611,305
666,5	1607,476
667	1597,59
667,4	1591,39
667,9	1579,648
668,3	1569,133
668,7	1559,762
669,2	1549,99
669,6	1535,562
670,1	1532,733
670,5	1514,705
670,9	1510,105
671,4	1503,619
671,8	1492,419
672,3	1487,133
672,7	1477,848
673,1	1465,648
673,6	1457,933
674	1446,39
674,5	1440,333
674,9	1429,962
675,3	1420,99
675,8	1412,962
676,2	1404,619
676,7	1395,562
677,1	1391,248
677,5	1381,048
678	1378,562
678,4	1369,448
678,9	1359,219
679,3	1347,162
679,7	1342,99
680,2	1333,419
680,6	1320,39
681,1	1306,962
681,5	1299,905
681,9	1296,419
682,4	1293,305
682,8	1281,705
683,3	1267,019
683,7	1259,476
684,1	1254,962
684,6	1247,219
685	1236,19
685,5	1225,333
685,9	1221,705
686,3	1218,905
686,8	1213,276
687,2	1206,562
687,7	1198,39
688,1	1194,619
688,5	1188,619
689	1180,476
689,4	1176,733
689,9	1172,59
690,3	1166,848
690,7	1160,848
691,2	1154,819
691,6	1150,733
692	1145,762
692,5	1132,362
692,9	1117,362
693,4	1108,99
693,8	1100,333
694,2	1088,105
694,7	1079,048
695,1	1071,819
695,6	1067,505
696	1067,99
696,4	1056,505
696,9	1050,333
697,3	1043,448
697,8	1036,762
698,2	1028,276
698,6	1022,733
699,1	1010,505
699,5	1008,39
699,9	1004,162
700,4	998,933
700,8	996,105
701,3	992,39
701,7	986,562
702,1	982,562
702,6	978,39
703	964,648
703,5	961,733
703,9	955,362
704,3	947,362
704,8	937,619
705,2	927,99
705,6	915,848
706,1	917,876
706,5	913,419
707	904,39
707,4	899,219
707,8	895,762
708,3	890,105
708,7	892,048
709,2	883,905
709,6	874,419
710	869,962
710,5	864,562
710,9	858,105
711,3	853,276
711,8	841,99
712,2	840,876
712,7	836,562
713,1	830,905
713,5	823,819
714	819,305
714,4	815,162
714,8	813,305
715,3	806,019
715,7	796,876
716,2	793,562
716,6	790,733
717	788,905
717,5	788,276
717,9	780,876
718,3	774,562
718,8	774,59
719,2	764,305
719,7	758,133
720,1	747,333
720,5	741,648
721	734,648
721,4	727,705
721,8	721,59
722,3	718,59
722,7	711,219
723,2	706,762
723,6	701,533
724	700,562
724,5	690,933
724,9	685,39
725,3	681,762
725,8	674,476
726,2	671,905
726,7	668,505
727,1	661,219
727,5	666,648
728	661,533
728,4	657,133
728,8	658,39
729,3	655,933
729,7	649,762
730,1	647,276
730,6	638,276
731	637,133
731,5	633,819
731,9	629,819
732,3	622,162
732,8	617,762
733,2	613,476
733,6	611,276
734,1	604,819
734,5	594,648
734,9	589,219
735,4	592,219
735,8	591,19
736,3	590,019
736,7	590,962
737,1	588,905
737,6	591,419
738	590,305
738,4	584,162
738,9	579,505
739,3	570,162
739,7	568,076
740,2	564,99
740,6	562,505
741,1	562,105
741,5	558,619
741,9	549,39
742,4	549,905
742,8	542,905
743,2	542,59
743,7	539,276
744,1	528,105
744,5	523,276
745	522,448
745,4	518,105
745,8	511,276
746,3	509,162
746,7	506,133
747,2	508,448
747,6	503,905
748	502,79
748,5	500,19
748,9	497,99
749,3	497,133
749,8	491,133
750,2	486,476
750,6	485,133
751,1	481,733
751,5	478,733
751,9	477,933
752,4	465,819
752,8	466,333
753,3	464,276
753,7	464,762
754,1	461,762
754,6	457,848
755	454,905
755,4	456,333
755,9	447,362
756,3	443,133
756,7	433,933
757,2	432,876
757,6	430,476
758	426,505
758,5	423,362
758,9	426,676
759,3	422,848
759,8	427,476
760,2	426,676
760,6	428,676
761,1	426,848
761,5	424,505
761,9	418,933
762,4	412,762
762,8	407,99
763,3	401,219
763,7	392,476
764,1	385,59
764,6	380,619
765	377,505
765,4	378,533
765,9	372,19
766,3	371,705
766,7	372,705
767,2	373,676
767,6	367,248
768	365,933
768,5	364,048
768,9	364,819
769,3	362,105
769,8	359,905
770,2	361,476
770,6	360,762
771,1	362,79
771,5	360,933
771,9	353,933
772,4	356,448
772,8	353,219
773,2	349,39
773,7	355,59
774,1	353,19
774,5	356,276
775	353,619
775,4	348,105
775,8	350,19
776,3	342,162
776,7	339,19
777,1	335,848
777,6	327,476
778	328,419
778,4	324,362
778,9	319,219
779,3	321,305
779,7	313,648
780,2	306,848
780,6	307,533
781	304,762
781,5	302,733
781,9	300,362
782,3	300,219
782,8	299,276
783,2	297,876
783,6	287,162
784,1	290,276
784,5	287,133
784,9	289,733
785,4	285,305
785,8	284,19
786,2	284,648
786,7	289,705
787,1	283,79
787,5	283,048
788	278,019
788,4	275,648
788,8	273,562
789,3	270,848
789,7	267,076
790,1	263,619
790,6	262,448
791	257,819
791,4	254,933
791,9	250,333
792,3	248,733
792,7	252,733
793,2	249,848
793,6	252,733
794	251,905
794,5	250,619
794,9	256,048
795,3	252,762
795,8	247,019
796,2	248,705
796,6	239,076
797,1	236,048
797,5	236,133
797,9	226,876
798,4	224,248
798,8	221,505
799,2	220,819
799,7	225,933
800,1	226,39
800,5	224,648
801	223,762
801,4	219,219
801,8	218,648
802,2	215,819
802,7	210,79
803,1	208,533
803,5	204,505
804	202,79
804,4	209,762
804,8	209,076
805,3	204,905
805,7	199,505
806,1	199,419
806,6	202,619
807	202,105
807,4	195,048
807,9	193,448
808,3	188,133
808,7	190,219
809,2	185,448
809,6	183,933
810	187,876
810,4	191,305
810,9	185,99
811,3	192,819
811,7	191,076
812,2	192,819
812,6	190,705
813	187,819
813,5	184,648
813,9	185,533
814,3	181,59
814,8	182,648
815,2	176,79
815,6	169,59
816,1	164,876
816,5	161,705
816,9	159,876
817,3	160,648
817,8	160,99
818,2	161,133
818,6	165,848
819,1	169,476
819,5	169,619
819,9	165,79
820,4	163,105
820,8	154,619
821,2	158,676
821,7	154,876
822,1	150,648
822,5	147,59
822,9	151,876
823,4	150,648
823,8	157,276
824,2	155,19
824,7	156,79
825,1	153,59
825,5	153,562
826	150,99
826,4	150,562
826,8	145,048
827,3	143,248
827,7	140,848
828,1	142,305
828,5	143,419
829	140,476
829,4	138,962
829,8	138,59
830,3	136,648
830,7	133,419
831,1	127,705
831,6	121,762
832	119,533
832,4	118,59
832,8	119,562
833,3	116,162
833,7	117,333
834,1	119,333
834,6	120,19
835	124,219
835,4	125,962
835,8	121,419
836,3	121,133
836,7	117,99
837,1	116,762
837,6	116,876
838	114,676
838,4	110,19
838,9	114,133
839,3	117,562
839,7	115,162
840,1	113,533
840,6	115,505
841	112,733
841,4	111,448
841,9	103,105
842,3	97,219
842,7	98,905
843,1	101,019
843,6	100,533
844	103,276
844,4	102,362
844,9	106,619
845,3	104,362
845,7	101,933
846,2	100,848
846,6	95,105
847	91,933
847,4	95,105
847,9	92,39
848,3	99,048
848,7	99,933
849,2	103,39
849,6	105,305
850	103,59
850,4	106,476
850,9	106,105
851,3	99,562
851,7	98,333
852,2	83,505
852,6	83,105
853	86,905
853,4	80,448
853,9	77,448
854,3	77,305
854,7	76,505
855,2	83,362
855,6	79,448
856	69,676
856,4	68,762
856,9	69,248
857,3	69,933
857,7	70,619
858,2	71,819
858,6	76,276
859	77,905
859,4	76,248
859,9	77,276
860,3	79,048
860,7	79,333
861,1	82,362
861,6	80,676
862	86,648
862,4	86,076
862,9	85,333
863,3	77,248
863,7	73,076
864,1	65,819
864,6	64,19
865	55,305
865,4	52,133
865,9	48,476
866,3	53,905
866,7	58,762
867,1	63,79
867,6	63,79
868	66,562
868,4	68,133
868,8	74,562
869,3	74,133
869,7	69,705
870,1	70,333
870,6	66,448
871	75,476
871,4	75,648
871,8	68,305
872,3	68,533
872,7	69,362
873,1	66,248
873,5	70,305
874	62,362
874,4	63,19
874,8	67,162
875,3	64,219
875,7	62,705
876,1	60,876
876,5	61,705
877	62,99
877,4	63,933
877,8	64,962
878,2	63,505
878,7	69,99
879,1	69,333
879,5	69,019
879,9	67,99
880,4	59,705
880,8	60,648
881,2	63,705
881,7	60,105
882,1	59,933
882,5	58,762
882,9	54,762
883,4	62,819
883,8	56,019
884,2	50,733
884,6	44,962
885,1	50,648
885,5	52,076
885,9	57,476
886,3	59,733
886,8	59,705
887,2	62,505
887,6	61,619
888	50,59
888,5	48,448
888,9	42,476
889,3	35,419
889,8	38,105
890,2	35,876
890,6	37,962
891	43,848
891,5	43,962
891,9	46,476
892,3	49,248
892,7	48,076
893,2	49,39
893,6	47,79
894	45,048
894,4	41,562
894,9	41,619
895,3	38,876
895,7	39,133
896,1	41,848
896,6	43,276
897	45,876
897,4	43,619
897,8	40,533
898,3	44,876
898,7	41,448
899,1	39,39
899,5	39,79
900	37,933
900,4	37,448
900,8	41,762
901,2	39,705
901,7	42,219
902,1	42,933
902,5	42,533
902,9	43,048
903,4	47,619
903,8	41,133
904,2	45,419
904,6	42,562
905,1	42,19
905,5	38,59
905,9	35,105
906,3	28,99
906,8	27,076
907,2	19,876
907,6	21,305
908	16,79
908,5	20,048
908,9	21,99
909,3	27,762
909,7	32,676
910,2	32,933
910,6	33,333
911	36,648
911,4	35,305
911,9	36,933
912,3	31,762
912,7	31,848
913,1	27,048
913,6	28,048
914	29,019
914,4	28,019
914,8	25,448
915,3	25,762
915,7	21,79
916,1	23,533
916,5	24,876
916,9	23,905
917,4	26,59
917,8	25,676
918,2	23,59
918,6	24,448
919,1	27,133
919,5	26,476
919,9	24,276
920,3	20,019
920,8	23,476
921,2	28,962
921,6	30,876
922	26,505
922,5	23,59
922,9	20,019
923,3	21,962
923,7	15,676
924,2	14,362
924,6	13,648
925	14,39
925,4	15,248
925,8	18,448
926,3	16,562
926,7	17,562
927,1	17,933
927,5	20,219
928	19,905
928,4	20,476
928,8	24,105
929,2	25,533
929,7	24,619
930,1	22,476
930,5	18,39
930,9	18,59
931,3	19,219
931,8	12,362
932,2	12,333
932,6	16,39
933	14,076
933,5	14,219
933,9	17,905
934,3	13,619
934,7	20,076
935,2	21,133
935,6	18,105
936	20,819
936,4	22,105
936,8	22,533
937,3	25,133
937,7	22,105
938,1	18,705
938,5	20,962
939	20,419
939,4	22,133
939,8	17,19
940,2	14,733
940,6	12,819
941,1	17,19
941,5	15,162
941,9	15,876
942,3	11,676
942,8	19,419
943,2	20,162
943,6	22,162
944	17,99
944,4	14,905
944,9	11,99
945,3	15,848
945,7	11,505
946,1	9,505
946,6	7,619
947	13,39
947,4	15,048
947,8	18,333
948,2	17,162
948,7	13,59
949,1	14,562
949,5	15,476
949,9	15,133
950,3	17,362
950,8	13,562
951,2	17,819
951,6	22,248
952	21,905
952,5	17,848
952,9	11,905
953,3	6,39
953,7	7,99
954,1	1,876
954,6	-0,038
955	-0,61
955,4	-3,324
955,8	-0,867
956,2	0,705
956,7	1,848
957,1	3,19
957,5	2,39
957,9	1,619
958,3	9,448
958,8	11,705
959,2	16,59
959,6	15,99
960	13,105
960,5	10,105
960,9	13,648
961,3	8,419
961,7	3,705
962,1	0,79
962,6	-3,495
963	-1,838
963,4	-1,095
963,8	-2,581
964,2	1,733
964,7	2,248
965,1	0,19
965,5	4,19
965,9	7,305
966,3	10,619
966,8	9,819
967,2	10,162
967,6	14,019
968	15,876
968,4	19,19
968,9	19,876
969,3	16,419
969,7	16,219
970,1	15,905
970,5	15,533
971	12,448
971,4	8,676
971,8	8,105
972,2	11,876
972,6	12,848
973,1	13,333
973,5	13,99
973,9	16,305
974,3	15,448
974,7	9,933
975,2	8,333
975,6	6,305
976	8,733
976,4	7,248
976,8	6,733
977,3	8,19
977,7	9,39
978,1	6,219
978,5	9,848
978,9	5,59
979,4	5,905
979,8	9,19
980,2	7,933
980,6	11,533
981	17,076
981,5	16,476
981,9	15,276
982,3	12,476
982,7	14,533
983,1	16,133
983,6	15,305
984	14,333
984,4	18,79
984,8	22,819
985,2	21,305
985,6	19,448
986,1	18,448
986,5	15,448
986,9	15,019
987,3	5,019
987,7	2,476
988,2	7,076
988,6	6,333
989	9,276
989,4	13,505
989,8	12,19
990,3	19,819
990,7	17,533
991,1	10,905
991,5	9,848
991,9	9,99
992,3	10,505
992,8	15,048
993,2	14,676
993,6	16,362
994	15,933
994,4	20,076
994,9	20,99
995,3	14,59
995,7	11,076
996,1	6,962
996,5	7,076
996,9	8,105
997,4	5,59
997,8	2,819
998,2	5,733
998,6	9,705
999	8,333
999,5	6,876
999,9	12,733
1000,3	14,162
1000,7	15,648
1001,1	17,362
1001,5	9,419
1002	14,39
1002,4	16,048
1002,8	14,219
1003,2	11,619
1003,6	12,133
1004	11,533
1004,5	14,076
1004,9	5,733
1005,3	-0,352
1005,7	-4,381
1006,1	-6,724
1006,6	-9,152
1007	-9,781
1007,4	-6,838
1007,8	-4,352
1008,2	1,219
1008,6	1,362
1009,1	3,39
1009,5	10,162
1009,9	15,705
1010,3	15,048
1010,7	19,933
1011,1	24,619
1011,6	24,419
1012	24,105
1012,4	23,048
1012,8	11,876
1013,2	12,248
1013,6	12,162
1014,1	10,019
1014,5	13,848
1014,9	14,476
1015,3	9,505
1015,7	10,362
1016,1	8,962
1016,6	10,105
1017	5,305
1017,4	1,333
1017,8	-0,895
1018,2	-1,438
1018,6	1,048
1019,1	-2,238
1019,5	-5,752
1019,9	1,048
1020,3	3,133
1020,7	4,076
1021,1	2,99
1021,6	3,448
1022	3,733
1022,4	7,59
1022,8	4,105
1023,2	6,505
1023,6	5,676
1024,1	7,733
1024,5	6,476
1024,9	10,876
1025,3	8,848
1025,7	9,133
1026,1	10,619
1026,6	13,962
1027	11,705
1027,4	9,619
1027,8	8,105
1028,2	11,39
1028,6	11,648
1029	4,933
1029,5	0,905
1029,9	1,39
1030,3	9,19
1030,7	6,819
1031,1	4,819
1031,5	0,933
1032	5,962
1032,4	4,505
1032,8	2,762
1033,2	1,105
1033,6	4,933
1034	1,162
1034,4	7,39
1034,9	-0,21
1035,3	4,448
1035,7	7,762
1036,1	5,419
1036,5	0,562
1036,9	0,248
1037,4	-4,781
1037,8	-1,524
1038,2	-2,952
1038,6	-8,81
1039	-8,067
1039,4	-3,638
1039,8	-1,01
1040,3	0,848
1040,7	-0,638
1041,1	-2,267
1041,5	-1,552
1041,9	-1,867
1042,3	-7,552
1042,7	-5,695
1043,2	-4,667
1043,6	3,819
1044	4,733
1044,4	4,59
1044,8	3,448
1045,2	13,876
1045,6	17,705
1046,1	19,076
1046,5	16,048
1046,9	19,333
1047,3	21,133
1047,7	22,105
1048,1	15,648
1048,5	11,305
1049	11,762
1049,4	9,762
1049,8	5,533
1050,2	10,448
1050,6	12,676
1051	14,962
1051,4	8,619
1051,9	7,562
1052,3	5,19
1052,7	6,59
1053,1	5,562
1053,5	7,733
1053,9	5,076
1054,3	6,933
1054,8	10,705
1055,2	18,305
1055,6	19,905
1056	22,133
1056,4	19,962
1056,8	21,333
1057,2	22,933
1057,6	14,276
1058,1	11,305
1058,5	8,39
1058,9	6,705
1059,3	7,448
1059,7	7,19
1060,1	6,876
1060,5	6,39
1061	6,305
1061,4	16,105
1061,8	13,048
1062,2	9,819
1062,6	6,848
1063	7,105
1063,4	9,333
1063,8	11,562
1064,3	2,248
1064,7	4,705
1065,1	4,048
1065,5	11,048
1065,9	15,076
1066,3	12,248
1066,7	7,19
1067,1	8,505
1067,6	8,705
1068	8,505
1068,4	5,648
1068,8	3,162
1069,2	7,362
1069,6	12,762
1070	14,648
1070,4	12,733
1070,9	10,59
1071,3	9,162
1071,7	9,562
1072,1	12,219
1072,5	11,905
1072,9	12,476
1073,3	11,933
1073,7	12,962
1074,2	14,99
1074,6	13,476
1075	8,705
1075,4	7,476
1075,8	8,648
1076,2	9,505
1076,6	11,676
1077	6,848
1077,5	7,276
1077,9	9,305
1078,3	8,476
1078,7	6,248
1079,1	10,962
1079,5	8,476
1079,9	13,276
1080,3	11,876
1080,7	11,39
1081,2	8,648
1081,6	11,219
1082	8,162
1082,4	11,019
1082,8	8,848
1083,2	9,248
1083,6	10,619
1084	11,476
1084,5	8,333
1084,9	4,476
1085,3	4,59
1085,7	2,648
1086,1	-0,038
1086,5	2,105
1086,9	4,419
1087,3	6,133
1087,7	10,705
1088,2	9,419
1088,6	9,39
1089	11,933
1089,4	10,019
1089,8	11,962
1090,2	8,019
1090,6	3,333
1091	6,533
1091,4	10,39
1091,9	14,59
1092,3	10,476
1092,7	3,79
1093,1	4,762
1093,5	3,733
1093,9	4,133
1094,3	3,933
1094,7	0,99
1095,1	-0,667
1095,5	2,248
1096	-0,695
1096,4	3,59
1096,8	-1,295
1097,2	-1,438
1097,6	-1,924
1098	3,762
1098,4	6,79
1098,8	11,59
1099,2	11,162
1099,6	12,59
1100,1	11,705
1100,5	14,876
1100,9	13,99
1101,3	12,733
1101,7	14,419
1102,1	13,876
1102,5	12,562
1102,9	8,562
1103,3	3,448
1103,7	4,248
1104,2	6,362
1104,6	4,476
1105	4,79
1105,4	6,648
1105,8	9,619
1106,2	10,733
1106,6	8,162
1107	3,39
1107,4	1,8
1107,8	-0,067
1108,3	-0,067
