Data from Subt2_202.txt Node
Date: Sat Aug 26 18:45:38 MSK 2023
User: vat
Spectrometer: MAYP114033
Trigger mode: 0
Integration Time (sec): 1,000000E0
Scans to average: 5
Electric dark correction enabled: true
Nonlinearity correction enabled: false
Boxcar width: 3
XAxis mode: Wavelengths
Number of Pixels in Spectrum: 2068
>>>>>Begin Spectral Data<<<<<
199,4	-1,3
199,9	0,06
200,4	-2,267
200,8	-0,071
201,3	-1,786
201,8	-1,129
202,2	-5,271
202,7	-2,014
203,2	-2,329
203,6	-1,443
204,1	-6,671
204,6	-5,557
205	-4,529
205,5	-0,157
206	-3,271
206,4	-1,529
206,9	1,957
207,4	5,843
207,8	8,786
208,3	8,786
208,8	9,357
209,2	9,671
209,7	6,186
210,2	4,157
210,6	4,9
211,1	5,329
211,5	4,271
212	5,243
212,5	6,271
212,9	6,643
213,4	6,243
213,9	4,271
214,3	2,214
214,8	3,929
215,3	1,9
215,7	4,986
216,2	8,986
216,7	12,5
217,1	11,386
217,6	15,157
218,1	7,157
218,5	5,157
219	-2,3
219,5	-3,243
219,9	-10,614
220,4	-2,014
220,9	-4,614
221,3	5,186
221,8	10,786
222,3	14,557
222,7	14,1
223,2	18,986
223,6	9,471
224,1	6,986
224,6	1,871
225	-4,414
225,5	-3,414
226	-2,671
226,4	-5,014
226,9	-1,3
227,4	1,5
227,8	-1,271
228,3	-0,329
228,8	-2,014
229,2	-4,157
229,7	-3,471
230,2	-1,643
230,6	1,529
231,1	9,071
231,5	14,157
232	14,157
232,5	13,986
232,9	13,843
233,4	13,329
233,9	5,729
234,3	5,957
234,8	-0,1
235,3	-0,157
235,7	1,386
236,2	3,843
236,7	3,1
237,1	6,271
237,6	-0,386
238,1	1,671
238,5	0,071
239	-3,471
239,4	0,5
239,9	-1,643
240,4	-0,014
240,8	3,129
241,3	0,471
241,8	2,614
242,2	5,671
242,7	-2,757
243,2	1,386
243,6	-4,414
244,1	-3,757
244,6	0,071
245	1,729
245,5	1,014
245,9	0,986
246,4	-3,386
246,9	0,614
247,3	2,7
247,8	3,214
248,3	5,271
248,7	6,271
249,2	10,957
249,7	11,614
250,1	13,814
250,6	12,529
251	12,471
251,5	8,614
252	6,871
252,4	6,586
252,9	6,443
253,4	-0,129
253,8	-5,3
254,3	-2,814
254,8	-3,586
255,2	-3,014
255,7	-4,843
256,1	-2,929
256,6	0,3
257,1	6,671
257,5	-1,243
258	-0,929
258,5	0,529
258,9	-0,157
259,4	-2,014
259,9	1,1
260,3	-4,643
260,8	-1,1
261,2	2,014
261,7	3,443
262,2	2,186
262,6	3,5
263,1	6,129
263,6	11,243
264	12,243
264,5	12,357
264,9	8,786
265,4	12,014
265,9	9,3
266,3	7,214
266,8	9,929
267,3	10,1
267,7	4,414
268,2	6,529
268,7	3,414
269,1	6,443
269,6	2,614
270	0,986
270,5	2,814
271	6,014
271,4	6,814
271,9	7,214
272,4	7,786
272,8	7,871
273,3	3,786
273,7	2,271
274,2	3,129
274,7	1,729
275,1	1,814
275,6	3,043
276,1	4,414
276,5	8,271
277	8,643
277,4	8,043
277,9	11,357
278,4	12,3
278,8	10,986
279,3	13,729
279,8	13,614
280,2	12,757
280,7	16,786
281,1	9,357
281,6	11,271
282,1	12,414
282,5	8,329
283	6,786
283,4	5,471
283,9	3,443
284,4	9,471
284,8	9,271
285,3	3,643
285,8	6,329
286,2	5,529
286,7	7,014
287,1	3,729
287,6	-2,214
288,1	-6,414
288,5	-1,871
289	-1,871
289,5	-0,586
289,9	-0,329
290,4	-0,929
290,8	5,129
291,3	8,814
291,8	6,5
292,2	6,129
292,7	12,129
293,1	7,643
293,6	10,671
294,1	10,843
294,5	10,071
295	17,243
295,5	13,471
295,9	9,986
296,4	15,043
296,8	14,271
297,3	13,557
297,8	11,357
298,2	2,471
298,7	8,871
299,1	5,186
299,6	5,7
300,1	7,071
300,5	9,3
301	12,814
301,5	19,871
301,9	11,843
302,4	11,757
302,8	7,957
303,3	5,843
303,8	-3,843
304,2	-5,357
304,7	-10,843
305,1	-6,271
305,6	-6,014
306,1	0,414
306,5	3,243
307	11,071
307,4	13,929
307,9	14,414
308,4	14,129
308,8	8,214
309,3	4,071
309,8	-0,071
310,2	-2,757
310,7	-7,957
311,1	-9,043
311,6	-8,529
312,1	-2,7
312,5	1,1
313	5,871
313,4	5,814
313,9	11,129
314,4	10,557
314,8	5,9
315,3	7,529
315,7	0,5
316,2	-4,129
316,7	-5,414
317,1	-5,557
317,6	-4,014
318	0,757
318,5	1,157
319	5,843
319,4	9,414
319,9	13,929
320,3	15,7
320,8	14,929
321,3	13,9
321,7	14,729
322,2	11,671
322,6	9,729
323,1	9,043
323,6	5,386
324	7,071
324,5	8,729
324,9	9,471
325,4	8,271
325,9	10,929
326,3	11,529
326,8	12,671
327,2	6,5
327,7	4,557
328,2	2,043
328,6	7,271
329,1	1,643
329,5	-2,386
330	-3,586
330,5	4,557
330,9	8,986
331,4	10,929
331,8	6,9
332,3	14,129
332,8	17,043
333,2	15,414
333,7	14,157
334,1	12,243
334,6	7,243
335,1	6,186
335,5	1,014
336	0,014
336,4	3,329
336,9	10,186
337,4	10,5
337,8	11,329
338,3	12,386
338,7	14,471
339,2	12,071
339,7	13,7
340,1	6,186
340,6	7,586
341	8,814
341,5	10,729
342	7,471
342,4	9,243
342,9	3,614
343,3	4,814
343,8	1,614
344,2	6,071
344,7	8,186
345,2	9,529
345,6	7,357
346,1	12,3
346,5	8,3
347	8,9
347,5	3,3
347,9	8,9
348,4	7,357
348,8	10,386
349,3	11,443
349,8	15,043
350,2	17,557
350,7	16,357
351,1	10,957
351,6	17,814
352	22,014
352,5	22,329
353	32,557
353,4	36,843
353,9	48,757
354,3	60,186
354,8	70,729
355,3	88,157
355,7	110,214
356,2	130,043
356,6	155,814
357,1	182,557
357,5	214,986
358	251,557
358,5	286,929
358,9	331,5
359,4	382,671
359,8	442,186
360,3	513,357
360,8	584,243
361,2	670,586
361,7	763,557
362,1	870,414
362,6	982,186
363	1099,529
363,5	1224,014
364	1360,671
364,4	1489,157
364,9	1628,157
365,3	1762,586
365,8	1887,929
366,3	2006,557
366,7	2112,729
367,2	2211,386
367,6	2290,871
368,1	2350,214
368,5	2381,643
369	2399,643
369,5	2401,071
369,9	2379,5
370,4	2335,814
370,8	2284,9
371,3	2218,271
371,7	2143,443
372,2	2053,129
372,7	1958,214
373,1	1859,243
373,6	1749,643
374	1642,957
374,5	1533,7
374,9	1424,786
375,4	1327,9
375,9	1226,757
376,3	1133,386
376,8	1046,586
377,2	961,443
377,7	882,129
378,2	809,9
378,6	740,071
379,1	679,557
379,5	624,157
380	578,7
380,4	533,643
380,9	489,357
381,4	446,957
381,8	412,786
382,3	382,386
382,7	354,843
383,2	325,5
383,6	301,414
384,1	287,014
384,6	272,871
385	251,929
385,5	233,3
385,9	213,071
386,4	199,7
386,8	187,386
387,3	168,786
387,7	156,586
388,2	152,329
388,7	143,329
389,1	135,814
389,6	127,9
390	119,643
390,5	112,414
390,9	106,757
391,4	94,757
391,9	87,129
392,3	83,414
392,8	73,643
393,2	65,071
393,7	62,7
394,1	56,557
394,6	55,814
395,1	56,871
395,5	50,871
396	52,757
396,4	53,814
396,9	50,529
397,3	51,157
397,8	49,529
398,2	48,071
398,7	51,757
399,2	50,557
399,6	52,071
400,1	52,3
400,5	45,871
401	46,671
401,4	41,157
401,9	41,043
402,4	44,843
402,8	38,186
403,3	43,614
403,7	46,357
404,2	46,1
404,6	52,071
405,1	49,386
405,5	42,271
406	49,9
406,5	42,843
406,9	46,329
407,4	46,3
407,8	48,1
408,3	50,014
408,7	48,671
409,2	49,614
409,6	58,129
410,1	63,586
410,6	69,586
411	71,043
411,5	74,271
411,9	85,214
412,4	88,5
412,8	92,186
413,3	91,271
413,7	92,357
414,2	93,814
414,7	104,471
415,1	114,9
415,6	123,386
416	131,586
416,5	141,671
416,9	148,729
417,4	161,614
417,8	175,671
418,3	179,5
418,8	188,243
419,2	193,329
419,7	199,986
420,1	210,014
420,6	219,414
421	217,529
421,5	228,7
421,9	236,557
422,4	248,357
422,8	264,186
423,3	275,3
423,8	283,243
424,2	294,329
424,7	305,843
425,1	319,729
425,6	334,7
426	341,786
426,5	354,614
426,9	369,129
427,4	382,843
427,9	393,271
428,3	405,157
428,8	417,071
429,2	434,071
429,7	451,643
430,1	471,271
430,6	493,214
431	518,871
431,5	545,186
431,9	569,357
432,4	598,1
432,8	627,5
433,3	659,243
433,8	688,757
434,2	717,643
434,7	751,043
435,1	786,271
435,6	821,1
436	858,614
436,5	893,214
436,9	930,814
437,4	965,7
437,8	1005,214
438,3	1048,643
438,8	1093,929
439,2	1138,643
439,7	1190,929
440,1	1247,214
440,6	1309,871
441	1363,357
441,5	1419,671
441,9	1476,757
442,4	1528,557
442,8	1585,529
443,3	1649,357
443,7	1709,1
444,2	1777,214
444,7	1846,443
445,1	1918,014
445,6	2005,557
446	2081,843
446,5	2156,443
446,9	2229,843
447,4	2305,671
447,8	2387,986
448,3	2472,1
448,7	2550,3
449,2	2640,986
449,6	2729,7
450,1	2825,014
450,6	2922,414
451	3016,7
451,5	3114,157
451,9	3216,871
452,4	3312,843
452,8	3412,471
453,3	3516,814
453,7	3617,529
454,2	3720,643
454,6	3823,271
455,1	3925,671
455,5	4032,243
456	4146,471
456,4	4252,071
456,9	4365,586
457,3	4483,671
457,8	4598,043
458,3	4722,529
458,7	4844,786
459,2	4962,9
459,6	5088,5
460,1	5217,3
460,5	5335,3
461	5466,3
461,4	5588,786
461,9	5711,586
462,3	5835,9
462,8	5965,643
463,2	6084,271
463,7	6208,843
464,1	6338,643
464,6	6461,357
465	6586,5
465,5	6710,443
466	6829,757
466,4	6957,7
466,9	7089,843
467,3	7207,186
467,8	7331,443
468,2	7462,614
468,7	7593,071
469,1	7724,986
469,6	7853,557
470	7983,043
470,5	8098,643
470,9	8209,529
471,4	8322,3
471,8	8424,757
472,3	8536,843
472,7	8634,129
473,2	8732,7
473,6	8843,871
474,1	8955,786
474,5	9051,186
475	9160,671
475,4	9258,529
475,9	9362,614
476,4	9451,043
476,8	9539,157
477,3	9628,329
477,7	9718,586
478,2	9799,557
478,6	9875,214
479,1	9949,643
479,5	10021,243
480	10096,3
480,4	10161,729
480,9	10223,386
481,3	10280,471
481,8	10335,243
482,2	10387,071
482,7	10440,843
483,1	10492,386
483,6	10540,929
484	10585,357
484,5	10630,586
484,9	10661,614
485,4	10701,643
485,8	10725,443
486,3	10741,529
486,7	10758,671
487,2	10775,729
487,6	10787,014
488,1	10798,871
488,5	10795,357
489	10804,614
489,4	10808,243
489,9	10804,386
490,4	10791,529
490,8	10779,471
491,3	10774,929
491,7	10763,557
492,2	10751,929
492,6	10727,729
493,1	10700,471
493,5	10668,043
494	10642,614
494,4	10607,757
494,9	10569,757
495,3	10532,729
495,8	10498,1
496,2	10467,071
496,7	10440,843
497,1	10395,5
497,6	10352,871
498	10312,9
498,5	10262,986
498,9	10209,843
499,4	10147,243
499,8	10095,586
500,3	10040,871
500,7	9988,786
501,2	9933,414
501,6	9872,843
502,1	9817,243
502,5	9771,757
503	9705,757
503,4	9639,843
503,9	9572,443
504,3	9502,614
504,8	9431,414
505,2	9357,129
505,7	9279,129
506,1	9212,586
506,6	9136,129
507	9054,357
507,5	8984,1
507,9	8910,671
508,4	8842,043
508,8	8762,414
509,3	8683,186
509,7	8612,529
510,2	8541,586
510,6	8460,929
511,1	8390,157
511,5	8310,071
512	8237,814
512,4	8160,757
512,9	8078,929
513,3	8001,671
513,8	7918,843
514,2	7831,529
514,7	7754,957
515,1	7670,843
515,6	7585,386
516	7505,729
516,5	7421,9
516,9	7344,5
517,4	7267,557
517,8	7183,1
518,3	7105,9
518,7	7024,386
519,2	6945,957
519,6	6864,471
520,1	6783,043
520,5	6701,329
521	6622,586
521,4	6547,1
521,9	6473,871
522,3	6400,329
522,8	6329,843
523,2	6257,014
523,7	6188,329
524,1	6121,357
524,6	6052,814
525	5988,929
525,5	5919,671
525,9	5853,671
526,4	5790,7
526,8	5723,1
527,3	5657,157
527,7	5591,243
528,2	5519,329
528,6	5449,671
529,1	5383,786
529,5	5324,614
530	5264,671
530,4	5200,271
530,9	5140,3
531,3	5082,871
531,8	5037,614
532,2	4992,1
532,6	4932,186
533,1	4876,557
533,5	4826,329
534	4766,129
534,4	4716,386
534,9	4656,014
535,3	4588,671
535,8	4530,186
536,2	4481,957
536,7	4428,843
537,1	4382,186
537,6	4333,386
538	4286,5
538,5	4248,586
538,9	4203,871
539,4	4158,786
539,8	4112,871
540,3	4071,1
540,7	4027,529
541,2	3982,214
541,6	3931,814
542,1	3896,157
542,5	3854,643
543	3811,471
543,4	3765,443
543,9	3722,729
544,3	3685,986
544,8	3639,614
545,2	3594,729
545,7	3560,814
546,1	3522,929
546,5	3487,757
547	3457,186
547,4	3421,586
547,9	3393,643
548,3	3361,186
548,8	3322,5
549,2	3289,357
549,7	3257,671
550,1	3219,814
550,6	3187,5
551	3160,386
551,5	3133,957
551,9	3101,186
552,4	3071,1
552,8	3043,471
553,3	3012,471
553,7	2985,157
554,2	2958,843
554,6	2931,3
555,1	2904,471
555,5	2876,643
555,9	2852,443
556,4	2830,071
556,8	2808,529
557,3	2780,7
557,7	2755,929
558,2	2732,443
558,6	2715,271
559,1	2686,871
559,5	2660,757
560	2631,786
560,4	2608,243
560,9	2587,757
561,3	2565,014
561,8	2541,786
562,2	2522,871
562,7	2505,529
563,1	2487,329
563,6	2463,9
564	2438,129
564,4	2416,729
564,9	2399,5
565,3	2383,043
565,8	2360,671
566,2	2340,586
566,7	2325,729
567,1	2312,729
567,6	2298,043
568	2277,614
568,5	2256,014
568,9	2235,014
569,4	2219,386
569,8	2205,386
570,3	2187,243
570,7	2166,671
571,1	2150,014
571,6	2133,957
572	2129,271
572,5	2114,929
572,9	2098,157
573,4	2085,814
573,8	2076,814
574,3	2057,671
574,7	2044,7
575,2	2021,957
575,6	2003,614
576,1	1988,357
576,5	1975,814
576,9	1953,729
577,4	1940,214
577,8	1922,043
578,3	1908,443
578,7	1892,5
579,2	1883,043
579,6	1857,557
580,1	1847,471
580,5	1837,129
581	1827,843
581,4	1811,5
581,9	1804,614
582,3	1788,157
582,7	1781,443
583,2	1766,243
583,6	1751,243
584,1	1738,814
584,5	1730,1
585	1720,043
585,4	1703,471
585,9	1691,614
586,3	1681,386
586,8	1678,414
587,2	1663,929
587,6	1659,557
588,1	1644,471
588,5	1636,786
589	1630,814
589,4	1621,986
589,9	1607,186
590,3	1598,614
590,8	1583,071
591,2	1579,586
591,7	1575,214
592,1	1565,729
592,5	1557,643
593	1543,614
593,4	1534,986
593,9	1520,5
594,3	1506,357
594,8	1493,329
595,2	1478,586
595,7	1472,9
596,1	1469,843
596,6	1462,3
597	1460,386
597,4	1453,157
597,9	1448,414
598,3	1447,357
598,8	1436,271
599,2	1429,014
599,7	1420,1
600,1	1407,386
600,6	1395,443
601	1383,414
601,4	1375,443
601,9	1369,586
602,3	1358,614
602,8	1351,443
603,2	1347,071
603,7	1339,443
604,1	1334,329
604,6	1322,557
605	1310,271
605,4	1307,643
605,9	1299,271
606,3	1290,871
606,8	1280,929
607,2	1270,986
607,7	1261,9
608,1	1258,7
608,6	1250,157
609	1249,986
609,4	1243,471
609,9	1238,243
610,3	1232,957
610,8	1223,386
611,2	1215,129
611,7	1207,786
612,1	1193,414
612,6	1187,729
613	1182,443
613,4	1177,757
613,9	1174,986
614,3	1168,557
614,8	1161,786
615,2	1159,071
615,7	1152,929
616,1	1151,186
616,6	1132,357
617	1119,071
617,4	1110,1
617,9	1107,3
618,3	1096,157
618,8	1094,586
619,2	1081,3
619,7	1088,443
620,1	1086,271
620,5	1086,129
621	1074,729
621,4	1072,871
621,9	1061,3
622,3	1054,471
622,8	1043,5
623,2	1038,871
623,6	1029,871
624,1	1023,157
624,5	1020,671
625	1022,357
625,4	1020,757
625,9	1014,814
626,3	1010,329
626,8	999,786
627,2	1000,471
627,6	982,386
628,1	969,443
628,5	965,471
629	959,157
629,4	948,1
629,9	944,1
630,3	926,786
630,7	926,757
631,2	922,186
631,6	911,7
632,1	904,157
632,5	898,471
633	892,814
633,4	891,586
633,8	884,7
634,3	874,957
634,7	872,3
635,2	864,871
635,6	862,214
636,1	856,671
636,5	849,357
636,9	841,586
637,4	836,214
637,8	822,471
638,3	814,957
638,7	805,1
639,2	798,557
639,6	796,3
640	794,471
640,5	790,014
640,9	786,3
641,4	782,957
641,8	783,843
642,2	779,071
642,7	778,386
643,1	777,871
643,6	770,414
644	771,814
644,5	772,557
644,9	767,529
645,3	763,957
645,8	752,671
646,2	746,014
646,7	744,843
647,1	736,014
647,6	729,414
648	727,614
648,4	723,671
648,9	721,643
649,3	712,929
649,8	712,5
650,2	708,9
650,6	706,071
651,1	695,957
651,5	693,014
652	687,357
652,4	683,186
652,9	673,757
653,3	672,614
653,7	667,157
654,2	666,357
654,6	655,757
655,1	658,329
655,5	660,614
655,9	658,186
656,4	651,757
656,8	648,5
657,3	643,757
657,7	647,1
658,2	637,443
658,6	629,586
659	622,329
659,5	618,071
659,9	613,671
660,4	612,386
660,8	603,386
661,2	597,529
661,7	597,643
662,1	595,071
662,6	593,357
663	591,5
663,4	585,3
663,9	586,129
664,3	586,043
664,8	574,043
665,2	567,843
665,6	566,929
666,1	557,757
666,5	553,7
667	550,9
667,4	542,271
667,9	543,414
668,3	540,3
668,7	527,271
669,2	528,786
669,6	524,5
670,1	517,586
670,5	511,786
670,9	503,186
671,4	502,214
671,8	507,443
672,3	502,814
672,7	504,986
673,1	498,929
673,6	496,586
674	497,1
674,5	493,043
674,9	479,243
675,3	470,986
675,8	462,186
676,2	460,243
676,7	458,443
677,1	457,871
677,5	451,957
678	457,557
678,4	458,871
678,9	455,186
679,3	450,986
679,7	450,243
680,2	440,843
680,6	439,814
681,1	434,7
681,5	434,329
681,9	435,386
682,4	432,643
682,8	430,871
683,3	428,414
683,7	427,814
684,1	427,129
684,6	420,929
685	413,214
685,5	411,071
685,9	400,471
686,3	395,843
686,8	392,3
687,2	389,671
687,7	386,157
688,1	378,014
688,5	375,386
689	377,186
689,4	377,043
689,9	376,014
690,3	367,586
690,7	366,5
691,2	375,557
691,6	375,186
692	374,671
692,5	375,014
692,9	371,357
693,4	368,243
693,8	364,843
694,2	357,414
694,7	349,129
695,1	343,757
695,6	339,986
696	339,843
696,4	339,9
696,9	334,1
697,3	326,9
697,8	325,5
698,2	318,557
698,6	314,243
699,1	313,643
699,5	317,386
699,9	317,357
700,4	316,129
700,8	316,586
701,3	322,786
701,7	319,757
702,1	312,986
702,6	305,957
703	305,957
703,5	304,9
703,9	300,614
704,3	301,9
704,8	297,871
705,2	297,7
705,6	295,3
706,1	294,729
706,5	293,643
707	295,986
707,4	289,414
707,8	288,957
708,3	286,9
708,7	287,271
709,2	281,329
709,6	279,9
710	280,529
710,5	276,271
710,9	277,1
711,3	271,471
711,8	269,157
712,2	266,557
712,7	262,014
713,1	258,443
713,5	255,5
714	254,214
714,4	252,386
714,8	254,1
715,3	252,129
715,7	256,643
716,2	252,386
716,6	254,757
717	250,7
717,5	250,157
717,9	246,843
718,3	242,7
718,8	237,071
719,2	234,386
719,7	229,1
720,1	229,9
720,5	233,186
721	227,9
721,4	231,929
721,8	235,414
722,3	232,7
722,7	236,957
723,2	230,929
723,6	218,357
724	213,757
724,5	210,957
724,9	205,214
725,3	203,586
725,8	195,271
726,2	197,9
726,7	201,014
727,1	203,643
727,5	203,529
728	200,3
728,4	198,7
728,8	201,729
729,3	199,071
729,7	196,757
730,1	194,1
730,6	194,557
731	191,129
731,5	188,271
731,9	182,557
732,3	181,9
732,8	182,786
733,2	183,071
733,6	175,357
734,1	179,186
734,5	178,271
734,9	179,471
735,4	174,386
735,8	173,186
736,3	170,814
736,7	173,1
737,1	169,5
737,6	171,643
738	172,671
738,4	172,529
738,9	173,386
739,3	171,929
739,7	170,5
740,2	170,7
740,6	173,786
741,1	174,471
741,5	165,986
741,9	165,386
742,4	169,3
742,8	167,3
743,2	166,243
743,7	154,671
744,1	148,9
744,5	152,3
745	145,757
745,4	141,586
745,8	142,386
746,3	139,614
746,7	140,3
747,2	142,5
747,6	149,843
748	155,7
748,5	157,357
748,9	154,529
749,3	153,986
749,8	157,814
750,2	153,443
750,6	146,586
751,1	141,614
751,5	138,671
751,9	139,957
752,4	141,814
752,8	142,386
753,3	141,986
753,7	145,843
754,1	140,557
754,6	135,5
755	130,357
755,4	127,271
755,9	122,243
756,3	120,671
756,7	118,443
757,2	122,5
757,6	125,643
758	128,471
758,5	124,786
758,9	127,3
759,3	132,471
759,8	131,071
760,2	128,614
760,6	126,986
761,1	123,729
761,5	127,757
761,9	123,786
762,4	120,729
762,8	117,357
763,3	117,129
763,7	119,129
764,1	121,414
764,6	119,471
765	126,671
765,4	121,1
765,9	124,529
766,3	124,7
766,7	118,014
767,2	116,043
767,6	119,557
768	114,671
768,5	114,7
768,9	116,014
769,3	116,643
769,8	117,214
770,2	117,557
770,6	113,757
771,1	113,757
771,5	112,957
771,9	107,1
772,4	106,243
772,8	106,386
773,2	102,471
773,7	100,529
774,1	96,214
774,5	95,414
775	96,357
775,4	98,843
775,8	97,957
776,3	99,586
776,7	101,5
777,1	100,957
777,6	102,129
778	107,071
778,4	100,443
778,9	99,986
779,3	101,357
779,7	98,471
780,2	101,786
780,6	102,586
781	94,814
781,5	95,871
781,9	99,443
782,3	95,043
782,8	93,757
783,2	91,071
783,6	90,3
784,1	91,014
784,5	88,386
784,9	82,843
785,4	87,986
785,8	88,157
786,2	90,1
786,7	88,5
787,1	88,186
787,5	89,3
788	89,871
788,4	84,814
788,8	82,157
789,3	76,9
789,7	77,929
790,1	76,129
790,6	79,986
791	78,129
791,4	80,1
791,9	80,157
792,3	78,443
792,7	84,871
793,2	86,729
793,6	81,871
794	83,843
794,5	78,443
794,9	81,157
795,3	84,986
795,8	78,443
796,2	80,557
796,6	81,814
797,1	79,643
797,5	81,329
797,9	76,871
798,4	71,071
798,8	68,357
799,2	65,929
799,7	67,243
800,1	67,043
800,5	65,1
801	69,129
801,4	69,986
801,8	65,014
802,2	61,7
802,7	59,843
803,1	62,243
803,5	67,843
804	62,7
804,4	66,786
804,8	72,414
805,3	75,957
805,7	77,557
806,1	73,957
806,6	72,214
807	72,3
807,4	69,5
807,9	67,386
808,3	67,014
808,7	66,5
809,2	73,014
809,6	73,814
810	79,3
810,4	76,786
810,9	76,157
811,3	75,814
811,7	74,1
812,2	75,157
812,6	69,129
813	70,071
813,5	73,671
813,9	75,986
814,3	71,357
814,8	68,957
815,2	61,443
815,6	64,014
816,1	58,929
816,5	58,357
816,9	53,9
817,3	55,557
817,8	63,671
818,2	61,014
818,6	59,129
819,1	59,529
819,5	56,814
819,9	60,814
820,4	61,843
820,8	55,471
821,2	52,957
821,7	55,471
822,1	59,271
822,5	64,871
822,9	61,271
823,4	60,986
823,8	63,014
824,2	68,043
824,7	64,529
825,1	53,671
825,5	48,671
826	42,186
826,4	37,529
826,8	32,757
827,3	31,843
827,7	30,986
828,1	36,786
828,5	34,471
829	40,443
829,4	38,043
829,8	36,043
830,3	31,643
830,7	32,329
831,1	30,129
831,6	31,1
832	30,386
832,4	32,5
832,8	34,643
833,3	40,014
833,7	34,071
834,1	32,843
834,6	32,786
835	32,957
835,4	32,014
835,8	29,014
836,3	26,1
836,7	36,871
837,1	37,386
837,6	42,814
838	40,329
838,4	41,3
838,9	41,643
839,3	43,386
839,7	40,9
840,1	39,9
840,6	34,386
841	34,871
841,4	37,186
841,9	38,186
842,3	36,814
842,7	34,157
843,1	35,071
843,6	34,614
844	37,071
844,4	41,757
844,9	46,043
845,3	45,243
845,7	45,471
846,2	42,529
846,6	39,957
847	42,671
847,4	39,214
847,9	35,986
848,3	33,957
848,7	34,757
849,2	36,957
849,6	36,786
850	36,186
850,4	32,643
850,9	33,5
851,3	34,043
851,7	32,957
852,2	35,271
852,6	41,214
853	38,9
853,4	36,557
853,9	33,529
854,3	36,614
854,7	34,729
855,2	31,157
855,6	27,843
856	28,614
856,4	29,786
856,9	29,071
857,3	28,671
857,7	30,729
858,2	31,557
858,6	31,557
859	28,1
859,4	25,957
859,9	25,043
860,3	21,586
860,7	20,643
861,1	23,243
861,6	21,329
862	23,586
862,4	26,014
862,9	27,443
863,3	26,9
863,7	26,243
864,1	26,586
864,6	26,786
865	23,043
865,4	25,671
865,9	30,614
866,3	30,357
866,7	31,3
867,1	24,814
867,6	24,786
868	27,557
868,4	23,186
868,8	19,9
869,3	21,443
869,7	22,157
870,1	22,3
870,6	19,7
871	-59,529
871,4	-54,757
871,8	-58,557
872,3	-57,586
872,7	-60,357
873,1	-58,214
873,5	-56,443
874	20,043
874,4	18,271
874,8	18,643
875,3	22,186
875,7	23,014
876,1	24,471
876,5	23,957
877	23,071
877,4	18,043
877,8	16,557
878,2	13,5
878,7	13,443
879,1	13,471
879,5	17,786
879,9	19,157
880,4	21,214
880,8	23,957
881,2	22,643
881,7	19,357
882,1	19,757
882,5	14,9
882,9	18,329
883,4	16,643
883,8	19,043
884,2	18,471
884,6	20,243
885,1	22,214
885,5	23,557
885,9	20,471
886,3	26,329
886,8	22,414
887,2	22,614
887,6	22,357
888	18,357
888,5	20,443
888,9	19,557
889,3	14,1
889,8	13,957
890,2	13,7
890,6	11,957
891	12,386
891,5	8,586
891,9	10,671
892,3	12,357
892,7	12,871
893,2	12,671
893,6	12,671
894	14,129
894,4	12,1
894,9	7,671
895,3	8,671
895,7	11,5
896,1	10,757
896,6	13,243
897	11,3
897,4	17,643
897,8	22,7
898,3	19,729
898,7	14,471
899,1	15,414
899,5	14,814
900	11,843
900,4	7,414
900,8	1,614
901,2	0,129
901,7	-1,329
902,1	-2,786
902,5	0,757
902,9	1,557
903,4	2,157
903,8	6,529
904,2	9,329
904,6	11,757
905,1	13,271
905,5	8,414
905,9	12,786
906,3	17,414
906,8	19,214
907,2	19,814
907,6	20,871
908	19,614
908,5	17,014
908,9	11,929
909,3	7,414
909,7	4,1
910,2	4,643
910,6	6,157
911	3,243
911,4	5,1
911,9	3,786
912,3	3,443
912,7	8,357
913,1	10,786
913,6	9,014
914	15,814
914,4	14,129
914,8	18,9
915,3	19,757
915,7	16,186
916,1	12,729
916,5	15,014
916,9	12,014
917,4	15,414
917,8	15,614
918,2	11,357
918,6	5,3
919,1	5,5
919,5	6,5
919,9	3,757
920,3	0,386
920,8	-1,443
921,2	1,786
921,6	6,614
922	7,357
922,5	3,871
922,9	8,671
923,3	10,814
923,7	9,786
924,2	7,586
924,6	7,1
925	6,386
925,4	4,5
925,8	0,329
926,3	-2,214
926,7	-1,786
927,1	1,557
927,5	3,157
928	5,043
928,4	3,871
928,8	7,471
929,2	9,786
929,7	11,129
930,1	11,414
930,5	7,986
930,9	4,414
931,3	7,557
931,8	8,214
932,2	6,957
932,6	4,243
933	-1,271
933,5	-0,7
933,9	4,214
934,3	3,814
934,7	-2,871
935,2	1,071
935,6	2,043
936	9,614
936,4	11,071
936,8	6,043
937,3	7,129
937,7	12,643
938,1	11,9
938,5	8,586
939	4,529
939,4	5,3
939,8	4,7
940,2	5,643
940,6	8,014
941,1	7,214
941,5	13,7
941,9	14,529
942,3	17,843
942,8	21,671
943,2	22,957
943,6	16,471
944	16,214
944,4	15,643
944,9	13,329
945,3	11,129
945,7	6,871
946,1	0,071
946,6	-0,071
947	-4,786
947,4	-8,071
947,8	-6,529
948,2	-9,357
948,7	-5,814
949,1	-2,9
949,5	3,671
949,9	5,986
950,3	12,529
950,8	12,471
951,2	12,243
951,6	6,757
952	7,129
952,5	2,529
952,9	8,471
953,3	2,157
953,7	4,3
954,1	6,814
954,6	12,786
955	16,986
955,4	14,557
955,8	13,786
956,2	15,329
956,7	11,757
957,1	8,843
957,5	7,3
957,9	1,414
958,3	3,3
958,8	1,957
959,2	5,929
959,6	9,271
960	10,186
960,5	14,729
960,9	21,5
961,3	19,643
961,7	17,557
962,1	13,7
962,6	13,529
963	14,557
963,4	5,643
963,8	0,186
964,2	1,5
964,7	3,9
965,1	6,386
965,5	5,7
965,9	5,386
966,3	12,929
966,8	12,043
967,2	16,043
967,6	12,214
968	6,757
968,4	8,671
968,9	8,414
969,3	7,957
969,7	8,814
970,1	8,7
970,5	4,643
971	5,786
971,4	3,043
971,8	1,186
972,2	-0,014
972,6	-1,471
973,1	-3,7
973,5	2,243
973,9	3,471
974,3	6,014
974,7	10,3
975,2	7,157
975,6	9,3
976	10,414
976,4	7,214
976,8	6,786
977,3	4,814
977,7	3,071
978,1	1,186
978,5	0,871
978,9	-2,129
979,4	-1,1
979,8	1,414
980,2	1,671
980,6	-3,014
981	3,271
981,5	3,471
981,9	1,5
982,3	3,614
982,7	3,271
983,1	-0,443
983,6	5,1
984	1,043
984,4	-3,9
984,8	-1,271
985,2	-0,357
985,6	-1,357
986,1	3,871
986,5	3,614
986,9	-0,5
987,3	6,443
987,7	6,157
988,2	3,871
988,6	5,471
989	0,757
989,4	-1,386
989,8	5,586
990,3	1,786
990,7	-0,586
991,1	-0,929
991,5	2,386
991,9	7,5
992,3	7,9
992,8	9,329
993,2	12,814
993,6	15,929
994	20,929
994,4	15,843
994,9	11,071
995,3	10,557
995,7	7,929
996,1	4,357
996,5	5,557
996,9	4,614
997,4	5,386
997,8	2,814
998,2	2,129
998,6	-6,5
999	-3,5
999,5	-5,243
999,9	-9,443
1000,3	-10,357
1000,7	-6,157
1001,1	-5,586
1001,5	2,729
1002	0,5
1002,4	1,271
1002,8	6,386
1003,2	8,986
1003,6	12,586
1004	15,443
1004,5	11,929
1004,9	13,671
1005,3	12,071
1005,7	12,129
1006,1	11,043
1006,6	9,786
1007	7,757
1007,4	7,414
1007,8	7,9
1008,2	5,529
1008,6	3,443
1009,1	0,014
1009,5	-2,186
1009,9	-4,129
1010,3	0,757
1010,7	-3,471
1011,1	-0,786
1011,6	-2,757
1012	-0,5
1012,4	-3,671
1012,8	-1,843
1013,2	-0,843
1013,6	3,271
1014,1	1,9
1014,5	3,3
1014,9	1,929
1015,3	1,214
1015,7	2,614
1016,1	2,5
1016,6	0,843
1017	1,757
1017,4	-0,5
1017,8	2,071
1018,2	5,1
1018,6	3,671
1019,1	-0,786
1019,5	-0,214
1019,9	1,1
1020,3	6,757
1020,7	3,129
1021,1	1,014
1021,6	-2,214
1022	3,7
1022,4	4,043
1022,8	4,871
1023,2	1,243
1023,6	3,557
1024,1	13,129
1024,5	15,329
1024,9	9,3
1025,3	9,757
1025,7	8,443
1026,1	7,414
1026,6	8,614
1027	2,271
1027,4	4,9
1027,8	7,443
1028,2	4,1
1028,6	11,529
1029	16,329
1029,5	19,329
1029,9	19,214
1030,3	13,757
1030,7	9,814
1031,1	14,471
1031,5	7,443
1032	3,671
1032,4	-1,671
1032,8	2,071
1033,2	6,471
1033,6	7,7
1034	4,614
1034,4	3,986
1034,9	6,786
1035,3	6,414
1035,7	5,843
1036,1	5,357
1036,5	7,357
1036,9	12,386
1037,4	12,986
1037,8	2,443
1038,2	3,443
1038,6	0,357
1039	3,557
1039,4	9,357
1039,8	-0,186
1040,3	3,414
1040,7	8,929
1041,1	10,929
1041,5	9,786
1041,9	4,7
1042,3	1,557
1042,7	6,529
1043,2	2,471
1043,6	1,929
1044	5,957
1044,4	6,5
1044,8	13,157
1045,2	13,1
1045,6	17,243
1046,1	19,014
1046,5	19,843
1046,9	11,3
1047,3	13,1
1047,7	8,3
1048,1	2,271
1048,5	-0,757
1049	2,5
1049,4	6,014
1049,8	9,986
1050,2	13,243
1050,6	18,129
1051	24,214
1051,4	24,529
1051,9	17,071
1052,3	22,214
1052,7	23,643
1053,1	19,5
1053,5	19,471
1053,9	13,957
1054,3	16,3
1054,8	22,3
1055,2	18,614
1055,6	17,386
1056	17,957
1056,4	12,871
1056,8	14,957
1057,2	10,643
1057,6	9,5
1058,1	3,529
1058,5	-1,186
1058,9	-0,557
1059,3	2,3
1059,7	2,129
1060,1	4,129
1060,5	6,129
1061	10,357
1061,4	12,157
1061,8	13,871
1062,2	11,757
1062,6	14,7
1063	19,614
1063,4	17,957
1063,8	14,729
1064,3	12,614
1064,7	7,929
1065,1	7,329
1065,5	2,957
1065,9	-5,786
1066,3	-9,729
1066,7	-9,757
1067,1	-10,014
1067,6	-6,329
1068	-11,643
1068,4	-6,643
1068,8	-6,186
1069,2	-8,329
1069,6	-7,471
1070	-1,986
1070,4	-4,471
1070,9	2,986
1071,3	1,471
1071,7	2,786
1072,1	6,557
1072,5	7,5
1072,9	5,071
1073,3	7,157
1073,7	0,271
1074,2	1,671
1074,6	4,157
1075	0,014
1075,4	-2,271
1075,8	-0,414
1076,2	-0,129
1076,6	5,157
1077	3,071
1077,5	5,129
1077,9	9,614
1078,3	11,671
1078,7	14,471
1079,1	15,329
1079,5	15,643
1079,9	16,929
1080,3	13,3
1080,7	13,329
1081,2	20,071
1081,6	13,986
1082	9,5
1082,4	11,843
1082,8	10,5
1083,2	7,5
1083,6	8,643
1084	2,786
1084,5	4,586
1084,9	4,986
1085,3	0,757
1085,7	2,929
1086,1	4,9
1086,5	6,414
1086,9	9,471
1087,3	9,957
1087,7	9,1
1088,2	9,671
1088,6	4,7
1089	6,929
1089,4	2,471
1089,8	-3,071
1090,2	-5,957
1090,6	-3,814
1091	2,043
1091,4	4,014
1091,9	4,757
1092,3	6,271
1092,7	5,5
1093,1	11,471
1093,5	8,357
1093,9	4,957
1094,3	11,9
1094,7	10,043
1095,1	15,557
1095,5	19,214
1096	14,129
1096,4	15,443
1096,8	12,757
1097,2	7,671
1097,6	9,386
1098	4,243
1098,4	3,7
1098,8	3,7
1099,2	12,243
1099,6	13,157
1100,1	10,7
1100,5	10,329
1100,9	6,671
1101,3	5,271
1101,7	5,9
1102,1	-0,871
1102,5	0,386
1102,9	2,9
1103,3	4,957
1103,7	10,186
1104,2	10,529
1104,6	9,814
1105	7,1
1105,4	4,471
1105,8	2,7
1106,2	-1,186
1106,6	-3,757
1107	-4,043
1107,4	-3,333
1107,8	-0,86
1108,3	0,2
