Data from Subt2_036.txt Node
Date: Sat Aug 26 16:23:49 MSK 2023
User: vat
Spectrometer: MAYP114033
Trigger mode: 0
Integration Time (sec): 1,000000E0
Scans to average: 5
Electric dark correction enabled: true
Nonlinearity correction enabled: false
Boxcar width: 3
XAxis mode: Wavelengths
Number of Pixels in Spectrum: 2068
>>>>>Begin Spectral Data<<<<<
199,4	-0,367
199,9	1,093
200,4	-0,6
200,8	0,048
201,3	1,133
201,8	0,676
202,2	1,105
202,7	2,933
203,2	0,962
203,6	0,048
204,1	-1,21
204,6	-0,295
205	2,276
205,5	0,733
206	0,819
206,4	2,362
206,9	3,476
207,4	8,305
207,8	1,933
208,3	0,19
208,8	0,933
209,2	4,276
209,7	1,876
210,2	7,476
210,6	5,076
211,1	8,648
211,5	6,99
212	3,79
212,5	-5,295
212,9	-6,467
213,4	-9,867
213,9	-12,495
214,3	-11,352
214,8	-6,895
215,3	-7,381
215,7	-5,124
216,2	-1,01
216,7	-3,038
217,1	0,219
217,6	0,533
218,1	-3,781
218,5	2,219
219	9,333
219,5	9,962
219,9	14,79
220,4	9,39
220,9	8,276
221,3	9,962
221,8	5,505
222,3	-3,724
222,7	-4,295
223,2	-7,952
223,6	-5,61
224,1	-2,924
224,6	-2,41
225	-3,295
225,5	4,762
226	1,162
226,4	3,676
226,9	1,848
227,4	2,905
227,8	0,505
228,3	4,962
228,8	3,733
229,2	7,905
229,7	2,533
230,2	10,848
230,6	6,476
231,1	10,762
231,5	14,648
232	17,362
232,5	16,276
232,9	17,19
233,4	11,105
233,9	12,362
234,3	10,848
234,8	6,362
235,3	1,905
235,7	4,19
236,2	6,305
236,7	10,505
237,1	11,79
237,6	8,505
238,1	8,505
238,5	8,362
239	7,733
239,4	9,362
239,9	3,762
240,4	3,105
240,8	5,676
241,3	4,819
241,8	3,59
242,2	1,39
242,7	0,276
243,2	6,305
243,6	9,705
244,1	9,562
244,6	9,333
245	11,19
245,5	9,305
245,9	7,362
246,4	-0,524
246,9	-3,438
247,3	-4,352
247,8	-3,724
248,3	-1,038
248,7	5,219
249,2	2,162
249,7	5,933
250,1	4,248
250,6	7,419
251	8,99
251,5	1,048
252	-2,467
252,4	0,676
252,9	1,133
253,4	4,076
253,8	1,562
254,3	1,819
254,8	6,19
255,2	6,819
255,7	12,905
256,1	11,105
256,6	9,19
257,1	9,876
257,5	6,162
258	2,419
258,5	0,905
258,9	-2,838
259,4	-1,81
259,9	0,533
260,3	-2,867
260,8	-0,781
261,2	6,619
261,7	8,19
262,2	6,276
262,6	4,762
263,1	0,99
263,6	4,533
264	4,362
264,5	3,19
264,9	2,048
265,4	5,105
265,9	9,676
266,3	12,305
266,8	12,705
267,3	13,79
267,7	13,648
268,2	11,99
268,7	9,562
269,1	4,562
269,6	6,733
270	9,133
270,5	8,848
271	6,905
271,4	3,905
271,9	5,305
272,4	6,933
272,8	0,733
273,3	-3,152
273,7	-3,21
274,2	-3,038
274,7	-0,495
275,1	-5,552
275,6	-1,467
276,1	4,505
276,5	4,79
277	3,79
277,4	5,248
277,9	3,305
278,4	7,676
278,8	10,133
279,3	2,648
279,8	5,019
280,2	5,648
280,7	3,848
281,1	8,39
281,6	7,676
282,1	4,076
282,5	8,562
283	5,076
283,4	4,59
283,9	3,419
284,4	3,676
284,8	4,162
285,3	2,076
285,8	-0,152
286,2	-1,267
286,7	-1,124
287,1	1,048
287,6	3,333
288,1	4,99
288,5	7,133
289	9,562
289,5	9,99
289,9	11,505
290,4	9,105
290,8	13,105
291,3	12,648
291,8	10,505
292,2	11,048
292,7	13,19
293,1	13,762
293,6	17,248
294,1	10,819
294,5	14,19
295	16,133
295,5	18,39
295,9	20,19
296,4	19,676
296,8	15,619
297,3	18,848
297,8	13,39
298,2	11,076
298,7	7,133
299,1	7,762
299,6	7,505
300,1	9,876
300,5	7,533
301	8,962
301,5	8,362
301,9	8,476
302,4	2,533
302,8	-0,21
303,3	-0,895
303,8	-3,038
304,2	-5,352
304,7	-5,238
305,1	0,105
305,6	1,505
306,1	4,248
306,5	4,333
307	4,305
307,4	4,476
307,9	5,305
308,4	4,476
308,8	13,39
309,3	12,162
309,8	13,619
310,2	9,79
310,7	13,505
311,1	10,333
311,6	8,219
312,1	3,19
312,5	1,99
313	0,219
313,4	2,676
313,9	2,676
314,4	1,705
314,8	1,019
315,3	2,762
315,7	2,762
316,2	1,876
316,7	5,505
317,1	5,819
317,6	9,048
318	8,476
318,5	9,048
319	9,105
319,4	12,819
319,9	11,648
320,3	13,305
320,8	13,819
321,3	12,905
321,7	10,276
322,2	11,905
322,6	5,59
323,1	4,819
323,6	0,476
324	0,276
324,5	-1,352
324,9	-3,352
325,4	-2,552
325,9	4,762
326,3	3,59
326,8	5,333
327,2	6,705
327,7	10,276
328,2	13,59
328,6	14,019
329,1	12,248
329,5	16,419
330	17,076
330,5	16,162
330,9	16,79
331,4	14,448
331,8	17,476
332,3	19,276
332,8	15,448
333,2	15,333
333,7	15,276
334,1	14,59
334,6	14,19
335,1	14,162
335,5	12,733
336	12,276
336,4	10,476
336,9	14,733
337,4	16,733
337,8	16,533
338,3	14,962
338,7	14,819
339,2	19,819
339,7	17,019
340,1	14,733
340,6	11,19
341	17,79
341,5	18,362
342	20,333
342,4	16,476
342,9	13,533
343,3	13,048
343,8	14,248
344,2	13,105
344,7	10,219
345,2	3,705
345,6	4,705
346,1	12,648
346,5	11,933
347	15,99
347,5	11,162
347,9	11,59
348,4	14,876
348,8	14,105
349,3	13,219
349,8	17,305
350,2	14,648
350,7	18,333
351,1	20,133
351,6	24,762
352	33,305
352,5	38,99
353	41,676
353,4	45,848
353,9	54,505
354,3	67,762
354,8	78,105
355,3	93,362
355,7	109,962
356,2	133,705
356,6	162,562
357,1	190,162
357,5	217,533
358	259,19
358,5	301,676
358,9	351,819
359,4	408,648
359,8	466,848
360,3	535,048
360,8	616,162
361,2	701,762
361,7	796,076
362,1	904,733
362,6	1017,448
363	1145,619
363,5	1283,048
364	1417,219
364,4	1552,705
364,9	1690,648
365,3	1819,133
365,8	1947,076
366,3	2067,076
366,7	2174,476
367,2	2271,933
367,6	2349,276
368,1	2412,419
368,5	2450,048
369	2476,162
369,5	2474,648
369,9	2446,39
370,4	2407,676
370,8	2351,505
371,3	2279,419
371,7	2199,99
372,2	2100,39
372,7	1992,676
373,1	1892,133
373,6	1780,533
374	1669,533
374,5	1555,676
374,9	1449,133
375,4	1344,533
375,9	1252,99
376,3	1152,876
376,8	1062,305
377,2	979,905
377,7	901,933
378,2	825,419
378,6	755,876
379,1	687,99
379,5	631,819
380	583,79
380,4	535,248
380,9	494,133
381,4	457,333
381,8	422,419
382,3	389,419
382,7	358,848
383,2	326,648
383,6	303,848
384,1	280,276
384,6	258,962
385	241,505
385,5	222,733
385,9	212,733
386,4	199,333
386,8	188,276
387,3	175,848
387,7	164,59
388,2	151,933
388,7	144,676
389,1	129,79
389,6	122,276
390	110,19
390,5	100,562
390,9	99,276
391,4	99,162
391,9	90,762
392,3	84,533
392,8	79,676
393,2	72,162
393,7	71,305
394,1	66,019
394,6	59,676
395,1	59,333
395,5	60,219
396	60,619
396,4	65,105
396,9	66,048
397,3	62,39
397,8	60,19
398,2	58,019
398,7	50,733
399,2	48,219
399,6	47,933
400,1	35,905
400,5	30,848
401	30,276
401,4	33,962
401,9	38,59
402,4	37,048
402,8	34,848
403,3	42,276
403,7	48,505
404,2	51,648
404,6	50,105
405,1	49,876
405,5	50,705
406	49,248
406,5	48,419
406,9	49,676
407,4	49,219
407,8	50,448
408,3	52,962
408,7	56,648
409,2	66,219
409,6	73,105
410,1	79,305
410,6	86,648
411	95,733
411,5	103,819
411,9	110,505
412,4	118,79
412,8	127,476
413,3	133,019
413,7	137,99
414,2	147,219
414,7	156,733
415,1	165,762
415,6	176,39
416	190,933
416,5	202,505
416,9	220,619
417,4	233,762
417,8	248,819
418,3	266,276
418,8	275,648
419,2	285,105
419,7	306,133
420,1	314,59
420,6	334,505
421	347,733
421,5	365,162
421,9	384,448
422,4	408,362
422,8	426,876
423,3	455,533
423,8	481,19
424,2	511,619
424,7	535,705
425,1	560,99
425,6	589,962
426	617,99
426,5	651,162
426,9	680,333
427,4	713,305
427,9	745,962
428,3	783,762
428,8	827,733
429,2	868,248
429,7	904,276
430,1	950,59
430,6	999,219
431	1054,333
431,5	1109,419
431,9	1163,448
432,4	1221,819
432,8	1288,248
433,3	1352,019
433,8	1419,476
434,2	1489,419
434,7	1564,305
435,1	1641,048
435,6	1728,848
436	1813,019
436,5	1899,39
436,9	1996,39
437,4	2096,533
437,8	2194,076
438,3	2293,619
438,8	2395,219
439,2	2501,476
439,7	2610,79
440,1	2723,819
440,6	2839,476
441	2965,219
441,5	3098,533
441,9	3233,676
442,4	3382,048
442,8	3534,876
443,3	3686,19
443,7	3839,219
444,2	3997,962
444,7	4159,819
445,1	4323,019
445,6	4489,333
446	4664,448
446,5	4848,905
446,9	5040,848
447,4	5232,105
447,8	5420,79
448,3	5627,933
448,7	5831,876
449,2	6035,133
449,6	6242,19
450,1	6467,733
450,6	6691,762
451	6914,105
451,5	7147,962
451,9	7381,933
452,4	7623,59
452,8	7874,876
453,3	8110,79
453,7	8362,533
454,2	8632,819
454,6	8889,419
455,1	9149,848
455,5	9416,133
456	9680,99
456,4	9954,733
456,9	10233,562
457,3	10504,562
457,8	10781,876
458,3	11075,705
458,7	11365,848
459,2	11654,876
459,6	11945,562
460,1	12233,848
460,5	12522,59
461	12814,648
461,4	13097,962
461,9	13383,419
462,3	13683,105
462,8	13982,99
463,2	14280,105
463,7	14596,19
464,1	14895,105
464,6	15199,733
465	15503,619
465,5	15797,905
466	16095,562
466,4	16384,419
466,9	16663,048
467,3	16960,59
467,8	17257,076
468,2	17540,533
468,7	17823,505
469,1	18100,19
469,6	18384,933
470	18674,419
470,5	18951,419
470,9	19210,505
471,4	19484,533
471,8	19734,505
472,3	19989,105
472,7	20244,19
473,2	20482,019
473,6	20711,619
474,1	20948,076
474,5	21183,848
475	21432,19
475,4	21664,676
475,9	21884,019
476,4	22103,562
476,8	22318,619
477,3	22531,819
477,7	22727,905
478,2	22904,305
478,6	23081,705
479,1	23259,305
479,5	23420,962
480	23579,076
480,4	23740,705
480,9	23895,648
481,3	24034,19
481,8	24165,676
482,2	24287,419
482,7	24402,79
483,1	24528,562
483,6	24613,733
484	24705,705
484,5	24800,705
484,9	24892,19
485,4	24975,676
485,8	25048,59
486,3	25094,019
486,7	25150,19
487,2	25190,448
487,6	25218,762
488,1	25242,162
488,5	25248,19
489	25258,276
489,4	25267,648
489,9	25260,99
490,4	25256,219
490,8	25250,248
491,3	25243,819
491,7	25226,248
492,2	25191,905
492,6	25149,362
493,1	25112,133
493,5	25049,848
494	25000,505
494,4	24927,59
494,9	24858,048
495,3	24778,762
495,8	24699,705
496,2	24614,276
496,7	24526,505
497,1	24422,762
497,6	24307,305
498	24206,362
498,5	24114,79
498,9	24000,105
499,4	23895,019
499,8	23777,733
500,3	23669,99
500,7	23569,876
501,2	23444,819
501,6	23319,905
502,1	23210,105
502,5	23072,876
503	22944,39
503,4	22800,619
503,9	22649,905
504,3	22510,562
504,8	22354,619
505,2	22202,276
505,7	22049,162
506,1	21902,905
506,6	21738,39
507	21573,419
507,5	21421,79
507,9	21271,733
508,4	21107,562
508,8	20947,276
509,3	20782,219
509,7	20620,248
510,2	20454,705
510,6	20269,905
511,1	20093,076
511,5	19913,276
512	19729,105
512,4	19537,876
512,9	19359,019
513,3	19191,476
513,8	19000,819
514,2	18820,133
514,7	18624,248
515,1	18428,276
515,6	18245,79
516	18064,105
516,5	17868,876
516,9	17694,705
517,4	17505,362
517,8	17335,733
518,3	17169,448
518,7	16985,676
519,2	16799,705
519,6	16623,562
520,1	16451,39
520,5	16282,162
521	16103,333
521,4	15931,248
521,9	15772,305
522,3	15614,905
522,8	15449,048
523,2	15266,419
523,7	15103,39
524,1	14933,59
524,6	14761,333
525	14592,076
525,5	14417,59
525,9	14253,933
526,4	14103,648
526,8	13934,933
527,3	13786,419
527,7	13640,99
528,2	13487,962
528,6	13339,733
529,1	13184,419
529,5	13038,476
530	12889,79
530,4	12739,819
530,9	12581,39
531,3	12431,048
531,8	12288,819
532,2	12149,648
532,6	12010,733
533,1	11859,048
533,5	11714,419
534	11591,276
534,4	11455,79
534,9	11326,648
535,3	11198,162
535,8	11065,276
536,2	10944,876
536,7	10829,819
537,1	10705,533
537,6	10586,848
538	10467,533
538,5	10351,819
538,9	10234,162
539,4	10125,962
539,8	10008,819
540,3	9892,962
540,7	9779,219
541,2	9654,59
541,6	9546,362
542,1	9434,105
542,5	9331,79
543	9220,648
543,4	9121,448
543,9	9027,362
544,3	8937,162
544,8	8834,333
545,2	8739,876
545,7	8642,076
546,1	8560,219
546,5	8465,705
547	8363,162
547,4	8274,048
547,9	8189,848
548,3	8108,076
548,8	8022,962
549,2	7925,162
549,7	7846,305
550,1	7778,162
550,6	7695,476
551	7613,762
551,5	7525,019
551,9	7448,076
552,4	7380,648
552,8	7298,533
553,3	7226,99
553,7	7147,333
554,2	7075,476
554,6	7019,476
555,1	6942,933
555,5	6870,962
555,9	6805,905
556,4	6731,105
556,8	6662,276
557,3	6597,876
557,7	6525,705
558,2	6464,019
558,6	6408,448
559,1	6345,59
559,5	6279,59
560	6232,705
560,4	6172,933
560,9	6118,019
561,3	6064,362
561,8	6008,133
562,2	5956,533
562,7	5899,848
563,1	5843,219
563,6	5783,048
564	5727,333
564,4	5672,905
564,9	5615,162
565,3	5564,105
565,8	5520,905
566,2	5470,733
566,7	5422,99
567,1	5375,076
567,6	5333,076
568	5289,79
568,5	5241,476
568,9	5189,762
569,4	5137,333
569,8	5096,905
570,3	5048,39
570,7	4995,076
571,1	4943,648
571,6	4893,848
572	4854,562
572,5	4818,762
572,9	4779,505
573,4	4738,248
573,8	4698,105
574,3	4657,876
574,7	4624,962
575,2	4587,676
575,6	4542,076
576,1	4495,99
576,5	4465,705
576,9	4430,59
577,4	4402,448
577,8	4362,162
578,3	4319,79
578,7	4288,905
579,2	4253,705
579,6	4216,219
580,1	4187,448
580,5	4147,933
581	4116,219
581,4	4084,019
581,9	4056,048
582,3	4021,905
582,7	3990,305
583,2	3941,848
583,6	3905,419
584,1	3869,19
584,5	3839,619
585	3801,248
585,4	3773,162
585,9	3743,476
586,3	3721,676
586,8	3692,79
587,2	3665,562
587,6	3633,876
588,1	3609,448
588,5	3582,59
589	3547,819
589,4	3522,133
589,9	3496,333
590,3	3465,905
590,8	3442,876
591,2	3417,162
591,7	3386,905
592,1	3362,362
592,5	3341,99
593	3320,448
593,4	3296,705
593,9	3270,276
594,3	3236,705
594,8	3218,476
595,2	3196,333
595,7	3168,619
596,1	3142,676
596,6	3126,305
597	3109,762
597,4	3096,076
597,9	3072,933
598,3	3050,848
598,8	3024,333
599,2	3011,59
599,7	2987,476
600,1	2961,59
600,6	2941,79
601	2922,648
601,4	2904,705
601,9	2885,533
602,3	2863,133
602,8	2845,933
603,2	2832,762
603,7	2811,962
604,1	2799,419
604,6	2777,705
605	2762,533
605,4	2745,162
605,9	2723,762
606,3	2704,762
606,8	2684,305
607,2	2657,99
607,7	2642,105
608,1	2623,848
608,6	2598,219
609	2582,533
609,4	2559,819
609,9	2548,533
610,3	2529,962
610,8	2515,133
611,2	2496,448
611,7	2478,848
612,1	2461,076
612,6	2446,333
613	2427,305
613,4	2410,705
613,9	2391,99
614,3	2379,105
614,8	2364,248
615,2	2348,448
615,7	2333,048
616,1	2313,762
616,6	2301,905
617	2282,648
617,4	2266,562
617,9	2257,619
618,3	2241,648
618,8	2226,419
619,2	2215,333
619,7	2198,876
620,1	2185,048
620,5	2170,448
621	2146,162
621,4	2128,819
621,9	2112,19
622,3	2093,19
622,8	2067,533
623,2	2056,19
623,6	2039,962
624,1	2036,162
624,5	2028,39
625	2011,933
625,4	1999,619
625,9	1992,133
626,3	1972,276
626,8	1957,876
627,2	1938,476
627,6	1918,076
628,1	1904,248
628,5	1889,819
629	1880,705
629,4	1867,333
629,9	1851,562
630,3	1840,476
630,7	1832,762
631,2	1816,648
631,6	1804,848
632,1	1790,648
632,5	1782,676
633	1769,362
633,4	1752,505
633,8	1734,619
634,3	1727,59
634,7	1716,705
635,2	1707,105
635,6	1693,848
636,1	1691,305
636,5	1681,648
636,9	1670,619
637,4	1657,419
637,8	1640,305
638,3	1626,505
638,7	1613,562
639,2	1597,276
639,6	1583,79
640	1569,562
640,5	1560,162
640,9	1551,048
641,4	1535,105
641,8	1524,905
642,2	1512,562
642,7	1503,019
643,1	1498,848
643,6	1490,762
644	1482,476
644,5	1476,162
644,9	1465,505
645,3	1454,562
645,8	1446,076
646,2	1436,676
646,7	1423,305
647,1	1416,819
647,6	1400,448
648	1390,848
648,4	1381,076
648,9	1369,79
649,3	1358,819
649,8	1356,133
650,2	1340,819
650,6	1339,533
651,1	1336,733
651,5	1334,19
652	1326,248
652,4	1315,333
652,9	1305,39
653,3	1299,276
653,7	1284,162
654,2	1278,505
654,6	1262,162
655,1	1248,333
655,5	1239,333
655,9	1225,248
656,4	1219,562
656,8	1215,79
657,3	1197,276
657,7	1192,962
658,2	1192,248
658,6	1179,79
659	1172,419
659,5	1159,562
659,9	1153,076
660,4	1146,219
660,8	1137,848
661,2	1126,219
661,7	1124,076
662,1	1114,105
662,6	1107,79
663	1103,59
663,4	1096,419
663,9	1089,648
664,3	1084,562
664,8	1080,19
665,2	1074,848
665,6	1069,076
666,1	1053,933
666,5	1043,419
667	1034,333
667,4	1031,705
667,9	1018,59
668,3	1008,305
668,7	999,133
669,2	996,562
669,6	993,419
670,1	987,562
670,5	969,019
670,9	968,59
671,4	961,19
671,8	952,962
672,3	941,733
672,7	932,648
673,1	922,333
673,6	916,39
674	902,133
674,5	899,905
674,9	895,076
675,3	888,619
675,8	879,705
676,2	874,419
676,7	873,019
677,1	869,562
677,5	860,619
678	858,19
678,4	854,59
678,9	848,562
679,3	842,162
679,7	833,333
680,2	829,048
680,6	819,562
681,1	808,876
681,5	803,733
681,9	797,419
682,4	793,162
682,8	787,333
683,3	780,733
683,7	781,476
684,1	777,533
684,6	770,79
685	767,505
685,5	760,848
685,9	759,39
686,3	752,79
686,8	746,248
687,2	737,39
687,7	735,733
688,1	733,905
688,5	726,419
689	720,505
689,4	721,076
689,9	718,362
690,3	717,048
690,7	705,248
691,2	699,305
691,6	697,133
692	692,219
692,5	677,876
692,9	670,333
693,4	662,333
693,8	661,448
694,2	654,648
694,7	651,476
695,1	644,905
695,6	641,876
696	636,562
696,4	630,933
696,9	626,876
697,3	622,533
697,8	614,905
698,2	608,076
698,6	607,933
699,1	600,162
699,5	593,99
699,9	587,79
700,4	584,905
700,8	584,305
701,3	584,133
701,7	573,533
702,1	570,99
702,6	572,79
703	566,505
703,5	563,133
703,9	555,762
704,3	551,048
704,8	553,133
705,2	549,105
705,6	537,705
706,1	540,819
706,5	535,676
707	531,905
707,4	530,962
707,8	526,705
708,3	521,419
708,7	525,905
709,2	514,705
709,6	511,219
710	508,019
710,5	503,762
710,9	499,819
711,3	496,19
711,8	486,905
712,2	487,248
712,7	483,419
713,1	476,962
713,5	474,333
714	470,076
714,4	468,848
714,8	471,305
715,3	468,448
715,7	460,619
716,2	460,048
716,6	454,305
717	450,133
717,5	447,048
717,9	436,733
718,3	434,162
718,8	436,105
719,2	432,276
719,7	429,762
720,1	423,876
720,5	421,305
721	420,105
721,4	417,79
721,8	415,762
722,3	409,848
722,7	403,076
723,2	400,819
723,6	399,905
724	396,79
724,5	388,105
724,9	379,99
725,3	376,39
725,8	374,876
726,2	374,19
726,7	366,533
727,1	361,619
727,5	359,619
728	357,448
728,4	358,619
728,8	358,133
729,3	353,562
729,7	356,362
730,1	358,648
730,6	357,962
731	360,876
731,5	357,676
731,9	353,676
732,3	352,133
732,8	348,019
733,2	348,105
733,6	349,105
734,1	340,905
734,5	334,676
734,9	331,762
735,4	331,933
735,8	326,048
736,3	319,733
736,7	314,476
737,1	313,848
737,6	318,476
738	319,79
738,4	312,962
738,9	314,762
739,3	311,533
739,7	309,533
740,2	308,562
740,6	307,905
741,1	301,59
741,5	305,133
741,9	295,762
742,4	294,333
742,8	292,505
743,2	290,048
743,7	284,762
744,1	284,676
744,5	283,276
745	286,333
745,4	285,133
745,8	285,848
746,3	286,476
746,7	283,362
747,2	282,705
747,6	279,219
748	273,476
748,5	270,276
748,9	261,676
749,3	262,076
749,8	259,362
750,2	253,733
750,6	247,819
751,1	254,162
751,5	254,676
751,9	259,876
752,4	253,933
752,8	249,248
753,3	248,733
753,7	250,59
754,1	244,79
754,6	241,39
755	234,648
755,4	234,362
755,9	232,99
756,3	230,448
756,7	229,819
757,2	229,848
757,6	228,333
758	226,019
758,5	221,162
758,9	224,276
759,3	224,762
759,8	225,762
760,2	229,219
760,6	229,933
761,1	230,448
761,5	230,59
761,9	229,476
762,4	228,533
762,8	224,133
763,3	217,819
763,7	212,905
764,1	211,533
764,6	212,562
765	208,048
765,4	206,705
765,9	200,733
766,3	196,533
766,7	197,876
767,2	199,476
767,6	192,705
768	196,362
768,5	193,305
768,9	194,19
769,3	196,476
769,8	195,048
770,2	192,676
770,6	192,419
771,1	192,733
771,5	189,876
771,9	186,19
772,4	186,762
772,8	183,219
773,2	181,276
773,7	186,305
774,1	183,39
774,5	191,19
775	191,419
775,4	190,533
775,8	195,105
776,3	193,648
776,7	191,448
777,1	191,505
777,6	184,619
778	186,019
778,4	183,505
778,9	179,876
779,3	181,305
779,7	179,59
780,2	175,048
780,6	176,162
781	177,59
781,5	177,476
781,9	178,419
782,3	177,99
782,8	174,962
783,2	172,962
783,6	164,276
784,1	157,962
784,5	150,39
784,9	145,819
785,4	142,648
785,8	143,276
786,2	141,819
786,7	146,39
787,1	148,448
787,5	151,476
788	150,476
788,4	146,362
788,8	142,048
789,3	143,533
789,7	140,019
790,1	139,648
790,6	138,648
791	136,076
791,4	138,99
791,9	140,276
792,3	136,362
792,7	138,676
793,2	134,305
793,6	130,733
794	130,59
794,5	129,476
794,9	128,162
795,3	131,533
795,8	127,076
796,2	128,705
796,6	126,676
797,1	126,476
797,5	122,905
797,9	123,848
798,4	117,019
798,8	119,505
799,2	118,248
799,7	123,876
800,1	121,733
800,5	123,733
801	123,733
801,4	121,848
801,8	122,619
802,2	124,133
802,7	118,505
803,1	117,448
803,5	114,648
804	108,305
804,4	109,39
804,8	111,333
805,3	106,476
805,7	107,59
806,1	110,362
806,6	110,819
807	114,048
807,4	112,505
807,9	107,59
808,3	111,562
808,7	111,876
809,2	106,79
809,6	103,048
810	99,59
810,4	102,819
810,9	101,533
811,3	96,048
811,7	92,505
812,2	96,276
812,6	96,476
813	99,733
813,5	97,533
813,9	96,762
814,3	99,305
814,8	101,39
815,2	94,333
815,6	92,933
816,1	90,305
816,5	90,99
816,9	91,248
817,3	88,476
817,8	88,048
818,2	87,819
818,6	85,876
819,1	81,876
819,5	79,79
819,9	75,019
820,4	76,162
820,8	69,248
821,2	72,676
821,7	74,933
822,1	73,305
822,5	72,105
822,9	75,733
823,4	71,648
823,8	78,933
824,2	81,019
824,7	82,676
825,1	83,419
825,5	92,276
826	91,362
826,4	93,476
826,8	90,076
827,3	89,676
827,7	90,019
828,1	94,276
828,5	86,705
829	80,762
829,4	84,676
829,8	79,819
830,3	78,162
830,7	73,048
831,1	68,219
831,6	67,276
832	67,133
832,4	61,762
832,8	68,019
833,3	61,876
833,7	63,133
834,1	65,133
834,6	62,59
835	64,905
835,4	71,162
835,8	67,419
836,3	72,248
836,7	65,619
837,1	63,419
837,6	58,819
838	57,19
838,4	45,99
838,9	48,162
839,3	49,333
839,7	54,733
840,1	55,876
840,6	59,733
841	62,305
841,4	65,419
841,9	61,562
842,3	61,333
842,7	59,99
843,1	63,79
843,6	67,248
844	63,876
844,4	65,19
844,9	67,276
845,3	63,019
845,7	65,19
846,2	61,419
846,6	59,362
847	59,076
847,4	57,076
847,9	53,076
848,3	54,362
848,7	53,19
849,2	49,933
849,6	51,105
850	51,219
850,4	51,448
850,9	53,59
851,3	47,562
851,7	44,876
852,2	40,79
852,6	37,819
853	44,048
853,4	49,048
853,9	47,905
854,3	52,305
854,7	50,448
855,2	53,676
855,6	48,762
856	41,962
856,4	37,733
856,9	37,562
857,3	35,619
857,7	42,419
858,2	43,39
858,6	48,333
859	46,076
859,4	44,562
859,9	43,962
860,3	45,305
860,7	42,019
861,1	45,219
861,6	45,333
862	47,39
862,4	46,705
862,9	51,076
863,3	49,705
863,7	44,476
864,1	41,076
864,6	35,419
865	35,39
865,4	36,276
865,9	33,019
866,3	36,705
866,7	41,39
867,1	42,79
867,6	46,819
868	48,819
868,4	46,505
868,8	47,019
869,3	45,162
869,7	40,305
870,1	37,59
870,6	33,733
871	35,133
871,4	35,99
871,8	32,248
872,3	29,762
872,7	30,048
873,1	28,819
873,5	29,99
874	25,79
874,4	22,448
874,8	21,648
875,3	20,333
875,7	19,162
876,1	18,19
876,5	21,305
877	24,819
877,4	25,705
877,8	30,076
878,2	29,762
878,7	36,733
879,1	37,848
879,5	38,476
879,9	36,39
880,4	33,59
880,8	31,905
881,2	34,819
881,7	35,305
882,1	37,448
882,5	33,248
882,9	27,048
883,4	34,162
883,8	35,076
884,2	32,905
884,6	29,619
885,1	31,648
885,5	33,79
885,9	38,648
886,3	33,676
886,8	30,39
887,2	29,905
887,6	28,676
888	24,219
888,5	24,962
888,9	25,276
889,3	21,362
889,8	22,933
890,2	22,362
890,6	21,648
891	21,533
891,5	18,333
891,9	16,219
892,3	18,333
892,7	20,248
893,2	23,219
893,6	20,905
894	20,79
894,4	21,448
894,9	21,133
895,3	23,39
895,7	18,105
896,1	15,705
896,6	19,39
897	15,162
897,4	14,419
897,8	15,133
898,3	21,105
898,7	18,162
899,1	15,505
899,5	10,99
900	12,562
900,4	12,019
900,8	8,333
901,2	3,705
901,7	7,648
902,1	11,505
902,5	14,448
902,9	18,219
903,4	19,876
903,8	17,648
904,2	18,162
904,6	15,676
905,1	16,19
905,5	14,276
905,9	13,733
906,3	11,076
906,8	17,133
907,2	12,99
907,6	18,762
908	19,676
908,5	19,105
908,9	16,933
909,3	16,705
909,7	14,505
910,2	18,048
910,6	16,562
911	14,219
911,4	15,19
911,9	17,019
912,3	16,933
912,7	20,905
913,1	12,333
913,6	11,733
914	13,276
914,4	11,648
914,8	12,733
915,3	12,162
915,7	7,648
916,1	13,419
916,5	13,19
916,9	10,876
917,4	15,648
917,8	12,219
918,2	8,848
918,6	10,676
919,1	10,79
919,5	11,476
919,9	11,962
920,3	10,962
920,8	13,248
921,2	21,248
921,6	19,133
922	17,99
922,5	16,648
922,9	13,59
923,3	12,876
923,7	10,133
924,2	7,248
924,6	7,705
925	8,676
925,4	7,505
925,8	8,905
926,3	7,333
926,7	8,505
927,1	9,048
927,5	9,505
928	7,448
928,4	4,962
928,8	8,962
929,2	11,333
929,7	6,99
930,1	7,162
930,5	7,59
930,9	10,476
931,3	16,048
931,8	11,819
932,2	7,048
932,6	12,333
933	9,59
933,5	5,905
933,9	4,476
934,3	0,848
934,7	2,933
935,2	7,848
935,6	5,505
936	7,076
936,4	10,162
936,8	11,933
937,3	15,219
937,7	12,848
938,1	3,962
938,5	3,276
939	1,419
939,4	1,648
939,8	0,362
940,2	-2,438
940,6	-0,781
941,1	8,933
941,5	16,648
941,9	19,533
942,3	17,39
942,8	20,048
943,2	16,133
943,6	16,562
944	12,676
944,4	4,79
944,9	1,562
945,3	2,876
945,7	-0,924
946,1	0,219
946,6	-2,581
947	-0,581
947,4	-0,552
947,8	1,39
948,2	-1,038
948,7	2,648
949,1	3,219
949,5	1,505
949,9	1,819
950,3	4,076
950,8	4,933
951,2	3,505
951,6	3,019
952	4,59
952,5	7,39
952,9	2,362
953,3	-2,181
953,7	-1,238
954,1	5,219
954,6	6,533
955	4,848
955,4	4,562
955,8	12,333
956,2	14,962
956,7	17,162
957,1	13,048
957,5	9,533
957,9	12,619
958,3	15,048
958,8	15,105
959,2	14,933
959,6	11,99
960	15,39
960,5	15,19
960,9	16,362
961,3	15,962
961,7	6,305
962,1	4,219
962,6	2,333
963	-0,238
963,4	-0,838
963,8	-6,695
964,2	-9,524
964,7	-5,981
965,1	-2,61
965,5	-4,667
965,9	-0,638
966,3	-0,01
966,8	3,133
967,2	4,648
967,6	5,619
968	5,133
968,4	12,619
968,9	10,99
969,3	10,705
969,7	8,19
970,1	5,905
970,5	9,619
971	5,762
971,4	4,448
971,8	5,219
972,2	6,448
972,6	8,19
973,1	13,39
973,5	13,162
973,9	16,619
974,3	10,419
974,7	2,505
975,2	-0,181
975,6	-4,752
976	-4,095
976,4	-7,095
976,8	-5,952
977,3	-1,81
977,7	1,476
978,1	-0,838
978,5	3,162
978,9	-2,895
979,4	-3,952
979,8	-2,495
980,2	-5,495
980,6	-3,667
981	1,362
981,5	4,076
981,9	1,019
982,3	-0,467
982,7	-1,695
983,1	0,276
983,6	-0,867
984	-3,467
984,4	-0,981
984,8	4,419
985,2	8,362
985,6	8,105
986,1	5,448
986,5	3,848
986,9	6,533
987,3	1,39
987,7	2,19
988,2	3,133
988,6	2,762
989	4,505
989,4	9,133
989,8	7,848
990,3	13,19
990,7	11,419
991,1	7,933
991,5	8,333
991,9	12,019
992,3	7,79
992,8	10,933
993,2	10,362
993,6	10,39
994	7,79
994,4	10,19
994,9	9,79
995,3	11,133
995,7	5,762
996,1	0,362
996,5	-3,01
996,9	1,733
997,4	5,419
997,8	3,933
998,2	3,105
998,6	6,648
999	7,733
999,5	12,79
999,9	14,276
1000,3	8,133
1000,7	4,362
1001,1	6,362
1001,5	1,762
1002	-0,095
1002,4	0,533
1002,8	-0,152
1003,2	2,39
1003,6	6,905
1004	9,019
1004,5	9,562
1004,9	11,333
1005,3	2,448
1005,7	-2,581
1006,1	-5,552
1006,6	-7,981
1007	-9,01
1007,4	-6,638
1007,8	-10,61
1008,2	-4,81
1008,6	-5,381
1009,1	-9,695
1009,5	-5,152
1009,9	0,219
1010,3	3,333
1010,7	8,79
1011,1	12,905
1011,6	17,333
1012	18,848
1012,4	17,762
1012,8	8,39
1013,2	7,276
1013,6	9,019
1014,1	6,819
1014,5	7,076
1014,9	12,048
1015,3	8,19
1015,7	8,019
1016,1	6,59
1016,6	6,705
1017	3,276
1017,4	1,39
1017,8	-0,152
1018,2	1,419
1018,6	7,362
1019,1	4,219
1019,5	1,305
1019,9	4,848
1020,3	3,305
1020,7	2,962
1021,1	4,19
1021,6	-2,181
1022	-0,324
1022,4	3,076
1022,8	0,19
1023,2	1,105
1023,6	-5,924
1024,1	-4,81
1024,5	-0,552
1024,9	0,733
1025,3	-1,41
1025,7	1,905
1026,1	3,933
1026,6	12,705
1027	9,162
1027,4	9,648
1027,8	8,219
1028,2	5,933
1028,6	6,533
1029	4,762
1029,5	4,962
1029,9	3,705
1030,3	10,933
1030,7	11,048
1031,1	9,19
1031,5	6,048
1032	7,19
1032,4	0,533
1032,8	0,533
1033,2	-7,238
1033,6	1,219
1034	0,733
1034,4	4,962
1034,9	2,962
1035,3	10,305
1035,7	10,648
1036,1	11,076
1036,5	4,676
1036,9	5,819
1037,4	6,019
1037,8	8,048
1038,2	0,99
1038,6	0,276
1039	0,333
1039,4	-0,81
1039,8	0,105
1040,3	-1,552
1040,7	-5,638
1041,1	-0,267
1041,5	-2,752
1041,9	-8,41
1042,3	-8,838
1042,7	-6,524
1043,2	-6,21
1043,6	1,105
1044	-2,01
1044,4	-0,867
1044,8	-2,667
1045,2	-1,067
1045,6	2,676
1046,1	2,819
1046,5	-1,267
1046,9	1,162
1047,3	6,076
1047,7	9,962
1048,1	4,962
1048,5	3,333
1049	4,133
1049,4	1,619
1049,8	-0,095
1050,2	-1,152
1050,6	5,676
1051	11,676
1051,4	8,162
1051,9	9,648
1052,3	10,819
1052,7	11,79
1053,1	13,048
1053,5	7,79
1053,9	6,476
1054,3	7,019
1054,8	9,676
1055,2	12,505
1055,6	8,705
1056	8,419
1056,4	7,248
1056,8	7,705
1057,2	9,562
1057,6	4,419
1058,1	3,819
1058,5	9,305
1058,9	10,419
1059,3	16,019
1059,7	14,99
1060,1	11,705
1060,5	8,419
1061	6,476
1061,4	7,419
1061,8	3,848
1062,2	-2,038
1062,6	-3,381
1063	-1,352
1063,4	0,648
1063,8	2,505
1064,3	-4,581
1064,7	-2,324
1065,1	0,419
1065,5	1,99
1065,9	1,333
1066,3	-4,952
1066,7	-5,952
1067,1	-4,095
1067,6	-3,724
1068	-8,181
1068,4	-5,838
1068,8	-4,067
1069,2	-0,981
1069,6	1,39
1070	5,59
1070,4	3,505
1070,9	4,962
1071,3	5,048
1071,7	4,448
1072,1	11,533
1072,5	7,848
1072,9	9,39
1073,3	11,476
1073,7	13,762
1074,2	15,419
1074,6	11,562
1075	7,876
1075,4	10,933
1075,8	10,248
1076,2	6,505
1076,6	6,162
1077	-0,467
1077,5	5,962
1077,9	7,248
1078,3	5,905
1078,7	2,048
1079,1	8,162
1079,5	4,362
1079,9	13,048
1080,3	10,905
1080,7	11,505
1081,2	12,676
1081,6	16,019
1082	10,619
1082,4	12,362
1082,8	7,762
1083,2	3,333
1083,6	1,79
1084	-0,181
1084,5	-0,838
1084,9	-4,81
1085,3	-3,21
1085,7	-9,438
1086,1	-7,781
1086,5	-5,524
1086,9	-5,552
1087,3	-6,467
1087,7	2,333
1088,2	3,019
1088,6	4,99
1089	6,048
1089,4	2,39
1089,8	4,133
1090,2	3,048
1090,6	-4,981
1091	-4,067
1091,4	-2,467
1091,9	-0,724
1092,3	-0,438
1092,7	-1,695
1093,1	-6,467
1093,5	-3,124
1093,9	-3,038
1094,3	-3,495
1094,7	-6,581
1095,1	-9,324
1095,5	-6,581
1096	-6,524
1096,4	-3,352
1096,8	-5,924
1097,2	-5,41
1097,6	-4,352
1098	-0,524
1098,4	-2,381
1098,8	2,762
1099,2	2,105
1099,6	7,048
1100,1	9,419
1100,5	8,448
1100,9	9,762
1101,3	10,048
1101,7	12,905
1102,1	11,59
1102,5	8,162
1102,9	4,333
1103,3	6,248
1103,7	5,219
1104,2	8,105
1104,6	6,248
1105	6,819
1105,4	6,305
1105,8	8,419
1106,2	7,876
1106,6	5,362
1107	1,533
1107,4	0,067
1107,8	-0,787
1108,3	-0,067
