Data from Subt2_284.txt Node
Date: Sat Aug 26 19:07:13 MSK 2023
User: vat
Spectrometer: MAYP114033
Trigger mode: 0
Integration Time (sec): 1,000000E0
Scans to average: 5
Electric dark correction enabled: true
Nonlinearity correction enabled: false
Boxcar width: 3
XAxis mode: Wavelengths
Number of Pixels in Spectrum: 2068
>>>>>Begin Spectral Data<<<<<
199,4	-0,033
199,9	3,327
200,4	0,567
200,8	3,452
201,3	2,224
201,8	6,252
202,2	4,11
202,7	5,967
203,2	5,195
203,6	6,852
204,1	2,367
204,6	5,538
205	3,995
205,5	6,652
206	7,881
206,4	3,452
206,9	2,595
207,4	6,71
207,8	5,224
208,3	4,081
208,8	6,881
209,2	9,795
209,7	16,595
210,2	19,338
210,6	18,567
211,1	18,281
211,5	15,424
212	13,538
212,5	6,824
212,9	3,624
213,4	4,652
213,9	3,652
214,3	4,881
214,8	11,167
215,3	7,795
215,7	11,938
216,2	13,995
216,7	14,71
217,1	11,424
217,6	16,081
218,1	13,138
218,5	14,738
219	9,91
219,5	9,595
219,9	5,195
220,4	14,738
220,9	8,738
221,3	5,795
221,8	9,052
222,3	13,081
222,7	12,395
223,2	14,195
223,6	7,738
224,1	7,995
224,6	13,795
225	7,31
225,5	2,51
226	1,71
226,4	2,71
226,9	2,624
227,4	6,281
227,8	-2,576
228,3	0,624
228,8	3,624
229,2	-0,519
229,7	-1,862
230,2	3,652
230,6	4,738
231,1	13,681
231,5	15,652
232	17,767
232,5	20,595
232,9	21,11
233,4	19,138
233,9	12,91
234,3	9,052
234,8	9,052
235,3	6,367
235,7	6,567
236,2	10,852
236,7	9,881
237,1	13,11
237,6	10,538
238,1	12,995
238,5	13,452
239	14,852
239,4	14,167
239,9	13,11
240,4	10,938
240,8	13,567
241,3	8,595
241,8	7,652
242,2	6,224
242,7	1,138
243,2	2,652
243,6	3,081
244,1	4,395
244,6	9,367
245	9,881
245,5	12,31
245,9	8,51
246,4	7,71
246,9	12,052
247,3	11,024
247,8	11,995
248,3	16,824
248,7	14,11
249,2	20,138
249,7	20,224
250,1	19,71
250,6	20,852
251	20,967
251,5	19,938
252	20,824
252,4	21,51
252,9	18,281
253,4	13,395
253,8	10,767
254,3	9,195
254,8	6,138
255,2	2,595
255,7	0,595
256,1	3,052
256,6	2,024
257,1	7,452
257,5	-0,919
258	0,567
258,5	4,452
258,9	7,024
259,4	5,481
259,9	6,538
260,3	-0,29
260,8	3,081
261,2	1,081
261,7	4,395
262,2	-2,662
262,6	-3,662
263,1	0,11
263,6	2,338
264	4,567
264,5	5,11
264,9	0,195
265,4	7,938
265,9	6,967
266,3	8,052
266,8	10,167
267,3	7,452
267,7	8,338
268,2	11,367
268,7	10,652
269,1	14,652
269,6	11,738
270	15,252
270,5	13,652
271	12,338
271,4	10,652
271,9	5,767
272,4	3,938
272,8	5,995
273,3	-0,605
273,7	3,395
274,2	6,052
274,7	4,71
275,1	9,195
275,6	10,195
276,1	7,51
276,5	11,367
277	11,395
277,4	9,338
277,9	11,31
278,4	12,51
278,8	15,995
279,3	19,31
279,8	18,395
280,2	20,652
280,7	22,024
281,1	20,681
281,6	18,881
282,1	14,11
282,5	11,681
283	10,51
283,4	7,31
283,9	6,881
284,4	8,224
284,8	10,224
285,3	11,281
285,8	11,852
286,2	11,138
286,7	11,624
287,1	8,252
287,6	11,938
288,1	5,281
288,5	8,71
289	9,91
289,5	8,567
289,9	5,881
290,4	9,395
290,8	4,681
291,3	6,681
291,8	4,938
292,2	-1,833
292,7	4,481
293,1	7,767
293,6	8,567
294,1	12,31
294,5	12,881
295	13,11
295,5	15,052
295,9	16,281
296,4	12,395
296,8	10,567
297,3	12,938
297,8	9,995
298,2	3,281
298,7	6,767
299,1	2,91
299,6	4,738
300,1	4,081
300,5	0,795
301	7,424
301,5	14,11
301,9	12,281
302,4	8,138
302,8	7,224
303,3	6,338
303,8	3,71
304,2	0,795
304,7	-2,605
305,1	-4,976
305,6	-4,69
306,1	3,824
306,5	5,967
307	7,738
307,4	9,652
307,9	14,395
308,4	14,395
308,8	12,11
309,3	6,31
309,8	4,024
310,2	4,595
310,7	-0,605
311,1	-3,662
311,6	-1,662
312,1	4,852
312,5	7,424
313	9,024
313,4	7,052
313,9	11,252
314,4	11,967
314,8	9,824
315,3	9,91
315,7	4,224
316,2	4,252
316,7	4,024
317,1	9,938
317,6	9,338
318	13,395
318,5	11,481
319	13,31
319,4	12,91
319,9	17,052
320,3	10,681
320,8	10,652
321,3	11,052
321,7	13,424
322,2	12,367
322,6	16,995
323,1	16,738
323,6	15,91
324	13,281
324,5	10,538
324,9	8,11
325,4	8,795
325,9	6,338
326,3	8,081
326,8	10,881
327,2	10,024
327,7	11,481
328,2	12,567
328,6	15,481
329,1	8,767
329,5	2,024
330	-1,49
330,5	1,624
330,9	3,338
331,4	6,052
331,8	3,224
332,3	10,824
332,8	13,452
333,2	15,795
333,7	17,681
334,1	15,795
334,6	6,652
335,1	5,367
335,5	4,51
336	1,138
336,4	2,395
336,9	5,167
337,4	6,91
337,8	10,052
338,3	14,024
338,7	16,31
339,2	15,024
339,7	15,967
340,1	10,595
340,6	9,938
341	12,538
341,5	11,91
342	6,195
342,4	6,852
342,9	1,338
343,3	4,31
343,8	8,71
344,2	6,31
344,7	11,738
345,2	14,052
345,6	16,538
346,1	23,252
346,5	19,538
347	12,224
347,5	13,167
347,9	10,681
348,4	8,652
348,8	12,052
349,3	9,938
349,8	13,31
350,2	21,51
350,7	18,538
351,1	18,624
351,6	26,31
352	27,338
352,5	27,31
353	32,424
353,4	30,081
353,9	41,624
354,3	48,31
354,8	51,424
355,3	60,71
355,7	76,51
356,2	89,195
356,6	105,452
357,1	122,624
357,5	138,71
358	162,51
358,5	187,224
358,9	212,624
359,4	242,995
359,8	279,481
360,3	324,91
360,8	372,51
361,2	426,167
361,7	484,938
362,1	549,681
362,6	616,538
363	689,252
363,5	766,738
364	852,138
364,4	935,538
364,9	1017,195
365,3	1098,224
365,8	1178,052
366,3	1250,681
366,7	1308,738
367,2	1364,195
367,6	1407,11
368,1	1447,167
368,5	1470,795
369	1483,681
369,5	1488,481
369,9	1478,281
370,4	1456,767
370,8	1424,052
371,3	1379,224
371,7	1331,567
372,2	1274,538
372,7	1209,938
373,1	1149,595
373,6	1079,195
374	1015,681
374,5	948,852
374,9	880,51
375,4	818,052
375,9	762,481
376,3	700,938
376,8	647,252
377,2	594,367
377,7	546,967
378,2	504,138
378,6	461,167
379,1	417,338
379,5	387,052
380	361,795
380,4	332,824
380,9	305,081
381,4	281,767
381,8	261,91
382,3	248,681
382,7	227,452
383,2	209,224
383,6	194,138
384,1	180,024
384,6	170,138
385	157,767
385,5	142,91
385,9	135,824
386,4	122,567
386,8	119,195
387,3	111,624
387,7	100,481
388,2	97,852
388,7	91,481
389,1	86,938
389,6	84,567
390	76,652
390,5	76,51
390,9	76,538
391,4	68,995
391,9	67,824
392,3	65,452
392,8	58,052
393,2	53,938
393,7	48,167
394,1	44,424
394,6	46,938
395,1	45,824
395,5	38,652
396	44,738
396,4	46,452
396,9	43,881
397,3	44,281
397,8	41,224
398,2	40,052
398,7	41,452
399,2	33,081
399,6	31,91
400,1	30,967
400,5	26,052
401	27,624
401,4	24,281
401,9	26,195
402,4	30,081
402,8	27,795
403,3	34,081
403,7	34,31
404,2	35,31
404,6	42,624
405,1	43,738
405,5	41,738
406	41,567
406,5	33,938
406,9	38,624
407,4	35,481
407,8	30,595
408,3	29,767
408,7	27,338
409,2	29,71
409,6	35,738
410,1	33,938
410,6	37,652
411	41,767
411,5	40,91
411,9	45,795
412,4	45,71
412,8	48,995
413,3	50,824
413,7	48,652
414,2	45,367
414,7	52,795
415,1	58,71
415,6	63,91
416	63,452
416,5	63,652
416,9	60,538
417,4	66,881
417,8	67,424
418,3	69,481
418,8	70,538
419,2	73,138
419,7	75,052
420,1	83,052
420,6	77,938
421	77,595
421,5	75,395
421,9	76,424
422,4	75,224
422,8	75,452
423,3	70,367
423,8	70,424
424,2	69,252
424,7	66,624
425,1	63,51
425,6	63,395
426	61,252
426,5	67,881
426,9	71,538
427,4	67,424
427,9	63,738
428,3	62,881
428,8	61,481
429,2	62,624
429,7	56,138
430,1	52,938
430,6	51,052
431	53,281
431,5	54,081
431,9	46,91
432,4	44,052
432,8	40,681
433,3	38,824
433,8	38,652
434,2	39,567
434,7	38,31
435,1	43,767
435,6	47,767
436	49,424
436,5	52,567
436,9	49,824
437,4	47,195
437,8	45,824
438,3	43,224
438,8	40,795
439,2	42,195
439,7	41,367
440,1	47,138
440,6	51,252
441	50,51
441,5	55,424
441,9	57,624
442,4	54,852
442,8	53,081
443,3	51,71
443,7	52,195
444,2	54,595
444,7	54,51
445,1	55,31
445,6	61,31
446	65,995
446,5	64,281
446,9	62,624
447,4	63,081
447,8	66,481
448,3	68,824
448,7	72,938
449,2	76,481
449,6	83,967
450,1	84,31
450,6	92,795
451	91,795
451,5	94,195
451,9	97,567
452,4	100,51
452,8	99,767
453,3	106,767
453,7	103,167
454,2	108,938
454,6	110,452
455,1	111,138
455,5	108,795
456	118,938
456,4	120,795
456,9	127,824
457,3	131,481
457,8	130,281
458,3	135,424
458,7	140,595
459,2	137,538
459,6	138,71
460,1	144,024
460,5	143,71
461	155,424
461,4	152,538
461,9	156,795
462,3	165,595
462,8	172,31
463,2	173,938
463,7	183,452
464,1	189,681
464,6	198,767
465	205,052
465,5	206,481
466	216,395
466,4	218,452
466,9	225,281
467,3	227,252
467,8	233,71
468,2	240,481
468,7	248,452
469,1	254,71
469,6	265,567
470	270,967
470,5	276,852
470,9	283,51
471,4	292,338
471,8	299,538
472,3	308,395
472,7	315,395
473,2	315,224
473,6	319,795
474,1	327,738
474,5	332,795
475	340,452
475,4	342,052
475,9	346,252
476,4	354,595
476,8	368,11
477,3	371,31
477,7	381,424
478,2	387,138
478,6	389,024
479,1	393,138
479,5	397,51
480	397,252
480,4	406,71
480,9	408,367
481,3	411,881
481,8	418,595
482,2	419,91
482,7	428,567
483,1	436,938
483,6	438,538
484	439,938
484,5	445,824
484,9	450,652
485,4	461,138
485,8	466,081
486,3	468,767
486,7	476,738
487,2	479,652
487,6	483,11
488,1	487,252
488,5	485,71
489	493,71
489,4	499,595
489,9	498,852
490,4	507,567
490,8	511,967
491,3	517,11
491,7	524,71
492,2	526,51
492,6	524,281
493,1	528,481
493,5	527,052
494	526,138
494,4	530,538
494,9	532,052
495,3	535,31
495,8	538,338
496,2	542,338
496,7	539,852
497,1	550,681
497,6	551,424
498	554,681
498,5	552,338
498,9	556,967
499,4	563,795
499,8	580,167
500,3	581,138
500,7	582,252
501,2	583,195
501,6	587,71
502,1	591,395
502,5	590,995
503	583,224
503,4	580,652
503,9	582,252
504,3	585,767
504,8	585,395
505,2	589,795
505,7	587,481
506,1	596,252
506,6	596,91
507	601,481
507,5	604,91
507,9	610,167
508,4	608,167
508,8	611,995
509,3	608,424
509,7	613,224
510,2	618,167
510,6	617,195
511,1	614,538
511,5	621,567
512	624,567
512,4	631,481
512,9	635,71
513,3	637,852
513,8	641,881
514,2	648,681
514,7	645,51
515,1	647,824
515,6	647,138
516	646,452
516,5	647,195
516,9	651,51
517,4	656,567
517,8	667,224
518,3	669,024
518,7	672,91
519,2	679,31
519,6	682,538
520,1	686,367
520,5	684,11
521	678,281
521,4	684,395
521,9	688,738
522,3	690,91
522,8	689,452
523,2	690,795
523,7	697,995
524,1	699,052
524,6	698,824
525	699,824
525,5	698,281
525,9	705,624
526,4	709,367
526,8	707,452
527,3	714,11
527,7	721,567
528,2	725,252
528,6	731,595
529,1	734,652
529,5	738,195
530	744,595
530,4	748,167
530,9	752,595
531,3	758,71
531,8	762,967
532,2	764,767
532,6	768,11
533,1	773,624
533,5	777,938
534	776,167
534,4	777,367
534,9	782,995
535,3	782,652
535,8	785,252
536,2	788,624
536,7	791,195
537,1	796,224
537,6	800,967
538	803,624
538,5	815,281
538,9	812,824
539,4	819,538
539,8	825,967
540,3	830,767
540,7	834,052
541,2	835,852
541,6	839,338
542,1	849,195
542,5	851,938
543	852,681
543,4	852,624
543,9	855,767
544,3	860,052
544,8	861,395
545,2	865,71
545,7	864,767
546,1	873,795
546,5	880,138
547	884,395
547,4	886,195
547,9	887,652
548,3	890,938
548,8	897,338
549,2	891,652
549,7	894,881
550,1	900,938
550,6	905,824
551	910,681
551,5	913,167
551,9	912,338
552,4	923,024
552,8	925,71
553,3	921,91
553,7	921,081
554,2	925,995
554,6	930,138
555,1	937,052
555,5	934,852
555,9	938,052
556,4	943,252
556,8	948,881
557,3	950,052
557,7	952,424
558,2	953,567
558,6	959,938
559,1	958,338
559,5	957,71
560	959,338
560,4	960,51
560,9	964,595
561,3	962,938
561,8	960,338
562,2	970,967
562,7	979,738
563,1	983,51
563,6	987,395
564	990,252
564,4	996,195
564,9	1005,11
565,3	1002,881
565,8	1004,052
566,2	1005,052
566,7	1006,938
567,1	1005,824
567,6	1010,281
568	1008,367
568,5	1012,71
568,9	1012,624
569,4	1015,195
569,8	1016,881
570,3	1015,138
570,7	1014,138
571,1	1016,481
571,6	1021,167
572	1023,538
572,5	1025,338
572,9	1022,795
573,4	1028,995
573,8	1028,51
574,3	1027,91
574,7	1018,852
575,2	1016,767
575,6	1013,167
576,1	1016,567
576,5	1016,452
576,9	1015,281
577,4	1014,167
577,8	1015,738
578,3	1016,11
578,7	1017,967
579,2	1022,281
579,6	1019,967
580,1	1018,367
580,5	1019,652
581	1022,252
581,4	1019,51
581,9	1013,681
582,3	1008,11
582,7	1007,967
583,2	1006,881
583,6	1009,024
584,1	1006,567
584,5	1011,481
585	1016,452
585,4	1009,11
585,9	1006,51
586,3	1009,624
586,8	1006,081
587,2	1003,967
587,6	1004,167
588,1	1005,224
588,5	1013,424
589	1014,538
589,4	1010,595
589,9	1006,138
590,3	1008,91
590,8	1005,281
591,2	1007,11
591,7	1007,995
592,1	1006,738
592,5	1013,938
593	1013,567
593,4	1005,138
593,9	1000,91
594,3	995,852
594,8	983,852
595,2	979,51
595,7	972,367
596,1	973,11
596,6	976,11
597	979,052
597,4	982,024
597,9	987,367
598,3	991,224
598,8	990,195
599,2	987,91
599,7	985,91
600,1	980,195
600,6	973,252
601	968,138
601,4	971,338
601,9	972,681
602,3	970,31
602,8	969,338
603,2	970,167
603,7	965,91
604,1	967,481
604,6	959,224
605	951,567
605,4	951,681
605,9	944,567
606,3	937,51
606,8	936,824
607,2	929,052
607,7	922,081
608,1	920,538
608,6	920,224
609	926,052
609,4	930,195
609,9	923,824
610,3	924,852
610,8	924,767
611,2	921,91
611,7	917,167
612,1	910,71
612,6	901,252
613	900,252
613,4	899,567
613,9	902,595
614,3	895,767
614,8	893,767
615,2	890,738
615,7	891,452
616,1	892,338
616,6	884,767
617	872,995
617,4	874,224
617,9	871,31
618,3	870,195
618,8	870,395
619,2	866,481
619,7	865,567
620,1	865,11
620,5	861,31
621	852,91
621,4	848,595
621,9	839,167
622,3	833,11
622,8	829,51
623,2	823,338
623,6	820,452
624,1	817,824
624,5	811,852
625	815,367
625,4	814,395
625,9	811,167
626,3	812,395
626,8	810,11
627,2	812,91
627,6	810,938
628,1	800,738
628,5	800,681
629	796,167
629,4	788,681
629,9	781,138
630,3	765,91
630,7	758,852
631,2	761,052
631,6	753,338
632,1	750,195
632,5	750,852
633	751,224
633,4	754,51
633,8	755,052
634,3	747,31
634,7	746,338
635,2	737,824
635,6	731,824
636,1	725,767
636,5	717,795
636,9	709,338
637,4	703,938
637,8	694,024
638,3	690,767
638,7	686,11
639,2	679,138
639,6	680,367
640	677,824
640,5	677,195
640,9	674,795
641,4	673,195
641,8	670,738
642,2	669,138
642,7	667,852
643,1	668,938
643,6	667,738
644	664,852
644,5	667,138
644,9	664,081
645,3	662,738
645,8	655,938
646,2	655,738
646,7	649,795
647,1	643,938
647,6	637,681
648	638,081
648,4	635,052
648,9	632,71
649,3	622,795
649,8	621,481
650,2	624,91
650,6	623,538
651,1	616,595
651,5	620,081
652	618,424
652,4	616,795
652,9	609,881
653,3	602,91
653,7	601,624
654,2	596,024
654,6	582,395
655,1	579,967
655,5	582,738
655,9	581,824
656,4	580,738
656,8	573,195
657,3	573,967
657,7	578,395
658,2	573,824
658,6	561,681
659	560,195
659,5	554,967
659,9	553,738
660,4	549,624
660,8	541,595
661,2	537,424
661,7	541,367
662,1	538,252
662,6	535,652
663	533,624
663,4	529,767
663,9	527,71
664,3	524,938
664,8	511,224
665,2	505,281
665,6	502,567
666,1	497,995
666,5	495,995
667	491,481
667,4	484,138
667,9	483,967
668,3	479,681
668,7	476,252
669,2	477,624
669,6	475,51
670,1	473,052
670,5	472,567
670,9	473,938
671,4	470,252
671,8	468,824
672,3	465,824
672,7	461,51
673,1	456,367
673,6	454,91
674	449,652
674,5	447,595
674,9	441,824
675,3	431,51
675,8	433,138
676,2	432,967
676,7	427,624
677,1	427,795
677,5	425,081
678	425,567
678,4	428,481
678,9	423,538
679,3	422,138
679,7	423,538
680,2	417,71
680,6	414,881
681,1	409,652
681,5	405,938
681,9	399,424
682,4	399,224
682,8	396,224
683,3	398,024
683,7	399,424
684,1	401,052
684,6	395,795
685	394,795
685,5	389,738
685,9	380,967
686,3	372,71
686,8	369,624
687,2	367,681
687,7	365,624
688,1	359,881
688,5	358,481
689	361,481
689,4	357,281
689,9	351,71
690,3	342,881
690,7	341,567
691,2	343,938
691,6	340,967
692	337,395
692,5	340,938
692,9	340,338
693,4	342,395
693,8	340,081
694,2	335,881
694,7	329,281
695,1	325,024
695,6	324,71
696	322,767
696,4	318,11
696,9	314,595
697,3	315,167
697,8	314,967
698,2	318,11
698,6	315,71
699,1	310,595
699,5	310,195
699,9	306,938
700,4	299,995
700,8	297,595
701,3	297,052
701,7	288,881
702,1	286,252
702,6	288,71
703	288,395
703,5	289,11
703,9	289,852
704,3	287,481
704,8	289,624
705,2	290,395
705,6	282,795
706,1	283,052
706,5	281,195
707	279,252
707,4	277,395
707,8	275,11
708,3	274,481
708,7	276,31
709,2	274,281
709,6	273,881
710	276,595
710,5	272,681
710,9	269,91
711,3	268,767
711,8	265,767
712,2	263,31
712,7	259,738
713,1	256,481
713,5	257,31
714	257,852
714,4	254,967
714,8	255,052
715,3	250,195
715,7	248,624
716,2	245,195
716,6	241,11
717	236,624
717,5	230,567
717,9	231,424
718,3	231,11
718,8	231,852
719,2	231,31
719,7	227,595
720,1	230,481
720,5	238,652
721	231,71
721,4	234,51
721,8	236,824
722,3	231,367
722,7	235,252
723,2	227,595
723,6	215,91
724	214,481
724,5	210,767
724,9	201,91
725,3	200,252
725,8	194,138
726,2	192,31
726,7	199,281
727,1	199,338
727,5	197,224
728	196,31
728,4	196,51
728,8	195,252
729,3	201,652
729,7	192,538
730,1	190,51
730,6	191,71
731	192,195
731,5	188,681
731,9	188,881
732,3	187,824
732,8	194,595
733,2	191,767
733,6	188,081
734,1	189,167
734,5	191,138
734,9	189,624
735,4	185,767
735,8	177,281
736,3	181,995
736,7	180,081
737,1	176,938
737,6	173,652
738	172,367
738,4	171,738
738,9	176,338
739,3	172,595
739,7	175,538
740,2	171,338
740,6	175,224
741,1	177,395
741,5	172,224
741,9	170,481
742,4	171,11
742,8	169,338
743,2	172,795
743,7	165,91
744,1	159,967
744,5	160,281
745	159,995
745,4	154,767
745,8	151,195
746,3	149,195
746,7	148,195
747,2	149,738
747,6	153,91
748	155,367
748,5	160,424
748,9	161,967
749,3	160,91
749,8	163,195
750,2	163,052
750,6	159,795
751,1	161,081
751,5	159,281
751,9	157,967
752,4	157,224
752,8	158,195
753,3	155,338
753,7	156,138
754,1	146,681
754,6	140,681
755	137,624
755,4	136,624
755,9	133,938
756,3	132,881
756,7	132,31
757,2	138,71
757,6	141,138
758	140,081
758,5	142,624
758,9	144,11
759,3	144,224
759,8	142,338
760,2	134,595
760,6	133,281
761,1	134,795
761,5	129,71
761,9	124,395
762,4	121,481
762,8	119,11
763,3	121,138
763,7	122,252
764,1	117,395
764,6	119,452
765	123,938
765,4	130,138
765,9	133,024
766,3	138,195
766,7	132,081
767,2	133,852
767,6	135,538
768	131,881
768,5	129,71
768,9	125,738
769,3	121,052
769,8	124,595
770,2	124,31
770,6	120,367
771,1	118,995
771,5	116,767
771,9	117,967
772,4	118,11
772,8	114,967
773,2	115,567
773,7	114,71
774,1	112,967
774,5	104,881
775	102,995
775,4	100,567
775,8	100,395
776,3	100,795
776,7	100,424
777,1	100,567
777,6	109,995
778	112,31
778,4	109,795
778,9	111,995
779,3	107,138
779,7	108,138
780,2	111,195
780,6	107,424
781	100,738
781,5	101,881
781,9	99,595
782,3	95,881
782,8	93,367
783,2	91,995
783,6	92,167
784,1	97,91
784,5	93,195
784,9	92,338
785,4	99,681
785,8	105,452
786,2	104,31
786,7	106,367
787,1	101,281
787,5	103,367
788	99,995
788,4	97,652
788,8	91,252
789,3	89,224
789,7	88,367
790,1	88,852
790,6	92,681
791	93,538
791,4	95,824
791,9	93,681
792,3	92,195
792,7	93,938
793,2	93,367
793,6	92,395
794	93,424
794,5	87,652
794,9	90,281
795,3	92,31
795,8	84,281
796,2	86,31
796,6	83,424
797,1	81,481
797,5	80,767
797,9	78,338
798,4	74,795
798,8	76,167
799,2	73,824
799,7	70,995
800,1	69,624
800,5	70,31
801	71,652
801,4	68,51
801,8	69,824
802,2	70,052
802,7	67,967
803,1	68,938
803,5	71,795
804	68,652
804,4	74,91
804,8	75,138
805,3	76,824
805,7	80,367
806,1	81,738
806,6	81,395
807	80,967
807,4	76,338
807,9	68,824
808,3	64,595
808,7	63,567
809,2	59,938
809,6	61,195
810	62,852
810,4	64,795
810,9	67,51
811,3	69,595
811,7	72,681
812,2	78,938
812,6	72,252
813	74,195
813,5	74,138
813,9	76,167
814,3	73,681
814,8	72,91
815,2	64,195
815,6	61,567
816,1	60,824
816,5	59,31
816,9	58,538
817,3	58,795
817,8	61,138
818,2	64,338
818,6	65,624
819,1	64,281
819,5	64,538
819,9	63,138
820,4	59,995
820,8	54,567
821,2	52,395
821,7	55,624
822,1	54,195
822,5	57,624
822,9	58,11
823,4	58,31
823,8	57,452
824,2	60,681
824,7	55,338
825,1	52,11
825,5	46,195
826	43,852
826,4	45,71
826,8	43,624
827,3	44,995
827,7	47,738
828,1	47,595
828,5	50,138
829	43,31
829,4	45,081
829,8	40,51
830,3	39,367
830,7	39,881
831,1	41,538
831,6	40,624
832	49,338
832,4	44,624
832,8	48,881
833,3	45,167
833,7	43,538
834,1	41,824
834,6	43,252
835	45,11
835,4	50,681
835,8	49,138
836,3	47,681
836,7	48,624
837,1	49,367
837,6	46,452
838	39,195
838,4	35,11
838,9	36,481
839,3	35,281
839,7	33,31
840,1	29,224
840,6	29,452
841	37,195
841,4	36,881
841,9	38,652
842,3	41,767
842,7	43,224
843,1	47,738
843,6	48,995
844	40,995
844,4	43,081
844,9	42,852
845,3	39,395
845,7	37,052
846,2	36,138
846,6	34,052
847	38,995
847,4	41,624
847,9	45,395
848,3	47,767
848,7	46,795
849,2	45,995
849,6	42,881
850	44,795
850,4	39,852
850,9	36,595
851,3	38,167
851,7	42,252
852,2	40,481
852,6	44,995
853	41,052
853,4	37,938
853,9	37,367
854,3	34,11
854,7	33,995
855,2	33,052
855,6	32,967
856	31,452
856,4	31,452
856,9	28,767
857,3	31,481
857,7	29,367
858,2	35,338
858,6	33,481
859	34,824
859,4	37,195
859,9	36,881
860,3	34,081
860,7	34,452
861,1	29,91
861,6	29,538
862	31,51
862,4	26,967
862,9	25,91
863,3	25,624
863,7	22,852
864,1	27,995
864,6	28,452
865	25,224
865,4	28,338
865,9	32,738
866,3	30,567
866,7	32,424
867,1	27,224
867,6	27,081
868	26,824
868,4	26,138
868,8	24,652
869,3	26,224
869,7	32,652
870,1	26,824
870,6	26,795
871	33,852
871,4	39,195
871,8	37,481
872,3	38,138
872,7	31,767
873,1	39,11
873,5	36,281
874	30,138
874,4	25,995
874,8	25,481
875,3	26,91
875,7	25,338
876,1	26,795
876,5	30,31
877	26,881
877,4	23,081
877,8	23,367
878,2	23,081
878,7	26,652
879,1	22,738
879,5	22,624
879,9	26,624
880,4	30,024
880,8	28,338
881,2	27,481
881,7	26,681
882,1	26,452
882,5	19,767
882,9	17,852
883,4	14,081
883,8	18,767
884,2	18,481
884,6	17,738
885,1	15,281
885,5	21,11
885,9	19,31
886,3	25,424
886,8	21,11
887,2	20,31
887,6	16,881
888	17,738
888,5	18,767
888,9	17,395
889,3	14,167
889,8	12,252
890,2	12,195
890,6	13,881
891	17,367
891,5	14,252
891,9	16,167
892,3	17,852
892,7	22,567
893,2	22,538
893,6	24,367
894	22,738
894,4	23,452
894,9	24,167
895,3	24,824
895,7	26,852
896,1	26,052
896,6	24,081
897	25,91
897,4	29,738
897,8	34,538
898,3	34,567
898,7	28,31
899,1	30,081
899,5	32,967
900	27,395
900,4	23,995
900,8	18,024
901,2	12,938
901,7	12,452
902,1	10,652
902,5	9,281
902,9	12,652
903,4	13,967
903,8	17,51
904,2	18,995
904,6	21,052
905,1	24,452
905,5	26,595
905,9	31,652
906,3	31,91
906,8	30,538
907,2	30,995
907,6	33,338
908	31,224
908,5	28,367
908,9	21,195
909,3	16,567
909,7	19,024
910,2	19,738
910,6	19,795
911	18,824
911,4	18,51
911,9	17,252
912,3	18,938
912,7	17,995
913,1	16,395
913,6	14,424
914	14,452
914,4	8,567
914,8	14,767
915,3	12,252
915,7	9,367
916,1	8,338
916,5	8,052
916,9	5,824
917,4	11,795
917,8	10,024
918,2	9,081
918,6	10,081
919,1	14,395
919,5	14,052
919,9	16,11
920,3	12,338
920,8	7,624
921,2	10,595
921,6	10,11
922	7,167
922,5	3,738
922,9	4,11
923,3	6,395
923,7	10,11
924,2	9,71
924,6	8,71
925	10,424
925,4	11,91
925,8	12,881
926,3	13,138
926,7	13,052
927,1	14,967
927,5	16,424
928	13,452
928,4	13,167
928,8	14,567
929,2	13,138
929,7	13,367
930,1	17,224
930,5	14,338
930,9	15,995
931,3	17,852
931,8	15,71
932,2	16,681
932,6	14,367
933	6,824
933,5	7,338
933,9	11,252
934,3	14,767
934,7	13,995
935,2	15,367
935,6	18,11
936	20,567
936,4	24,395
936,8	25,195
937,3	19,081
937,7	20,881
938,1	22,652
938,5	16,652
939	15,224
939,4	13,024
939,8	8,052
940,2	10,224
940,6	11,681
941,1	9,71
941,5	19,71
941,9	16,652
942,3	18,452
942,8	22,024
943,2	28,481
943,6	22,481
944	20,681
944,4	12,424
944,9	16,767
945,3	16,195
945,7	11,967
946,1	3,595
946,6	5,481
947	3,138
947,4	10,824
947,8	9,31
948,2	3,195
948,7	2,738
949,1	3,995
949,5	6,31
949,9	14,167
950,3	9,681
950,8	9,538
951,2	11,252
951,6	10,567
952	15,281
952,5	14,31
952,9	11,938
953,3	10,224
953,7	11,31
954,1	13,195
954,6	13,91
955	9,51
955,4	5,91
955,8	8,967
956,2	9,595
956,7	12,052
957,1	10,252
957,5	12,91
957,9	13,567
958,3	16,195
958,8	12,738
959,2	15,424
959,6	17,624
960	18,338
960,5	20,195
960,9	22,024
961,3	16,738
961,7	13,195
962,1	15,481
962,6	11,452
963	11,452
963,4	3,138
963,8	2,767
964,2	9,11
964,7	8,995
965,1	8,138
965,5	8,252
965,9	11,11
966,3	16,252
966,8	14,795
967,2	14,538
967,6	17,881
968	10,538
968,4	11,424
968,9	11,138
969,3	10,481
969,7	8,995
970,1	8,624
970,5	5,167
971	15,967
971,4	11,052
971,8	11,624
972,2	11,595
972,6	10,852
973,1	7,167
973,5	8,51
973,9	3,538
974,3	9,052
974,7	9,167
975,2	12,31
975,6	11,767
976	16,567
976,4	13,795
976,8	13,395
977,3	13,624
977,7	10,138
978,1	9,281
978,5	9,595
978,9	6,595
979,4	5,938
979,8	3,595
980,2	4,281
980,6	0,938
981	5,91
981,5	6,224
981,9	6,824
982,3	12,281
982,7	16,167
983,1	13,367
983,6	18,281
984	15,081
984,4	18,452
984,8	20,195
985,2	18,681
985,6	8,681
986,1	9,138
986,5	10,452
986,9	5,367
987,3	10,738
987,7	9,595
988,2	9,167
988,6	16,252
989	16,252
989,4	15,224
989,8	12,681
990,3	6,195
990,7	6,795
991,1	8,595
991,5	9,938
991,9	10,11
992,3	11,595
992,8	16,595
993,2	13,852
993,6	14,967
994	14,852
994,4	12,881
994,9	13,395
995,3	11,195
995,7	5,195
996,1	4,738
996,5	3,452
996,9	-1,49
997,4	-1,805
997,8	-7,205
998,2	-9,576
998,6	-11,09
999	-7,433
999,5	-8,605
999,9	-6,662
1000,3	-7,29
1000,7	-1,976
1001,1	-1,09
1001,5	6,624
1002	7,138
1002,4	8,567
1002,8	11,852
1003,2	13,624
1003,6	13,081
1004	16,824
1004,5	11,367
1004,9	10,824
1005,3	9,624
1005,7	10,281
1006,1	10,71
1006,6	6,052
1007	10,167
1007,4	10,538
1007,8	9,395
1008,2	3,195
1008,6	4,31
1009,1	0,91
1009,5	5,224
1009,9	0,252
1010,3	4,71
1010,7	3,738
1011,1	8,681
1011,6	7,281
1012	7,938
1012,4	7,11
1012,8	3,567
1013,2	5,367
1013,6	7,91
1014,1	12,538
1014,5	10,652
1014,9	13,538
1015,3	12,281
1015,7	18,138
1016,1	15,052
1016,6	14,91
1017	10,852
1017,4	13,224
1017,8	10,795
1018,2	15,91
1018,6	8,881
1019,1	7,567
1019,5	4,852
1019,9	4,195
1020,3	4,195
1020,7	5,852
1021,1	-4,148
1021,6	1,538
1022	7,767
1022,4	9,824
1022,8	14,624
1023,2	13,881
1023,6	13,138
1024,1	25,052
1024,5	24,452
1024,9	16,167
1025,3	13,538
1025,7	13,91
1026,1	15,71
1026,6	17,995
1027	14,91
1027,4	12,852
1027,8	15,281
1028,2	18,481
1028,6	16,767
1029	12,824
1029,5	15,567
1029,9	12,052
1030,3	9,024
1030,7	9,767
1031,1	13,224
1031,5	11,852
1032	12,138
1032,4	9,338
1032,8	10,424
1033,2	18,252
1033,6	18,738
1034	12,881
1034,4	9,71
1034,9	11,167
1035,3	9,281
1035,7	10,167
1036,1	4,081
1036,5	0,795
1036,9	4,024
1037,4	7,481
1037,8	5,71
1038,2	5,681
1038,6	6,767
1039	13,795
1039,4	25,71
1039,8	20,31
1040,3	22,824
1040,7	21,452
1041,1	25,481
1041,5	23,024
1041,9	16,224
1042,3	7,824
1042,7	15,71
1043,2	14,338
1043,6	11,595
1044	11,395
1044,4	10,31
1044,8	13,538
1045,2	11,738
1045,6	6,681
1046,1	5,51
1046,5	9,024
1046,9	6,081
1047,3	7,995
1047,7	8,052
1048,1	10,281
1048,5	8,738
1049	8,91
1049,4	13,024
1049,8	9,567
1050,2	8,452
1050,6	12,338
1051	14,281
1051,4	16,138
1051,9	16,167
1052,3	19,395
1052,7	23,91
1053,1	23,767
1053,5	21,595
1053,9	22,795
1054,3	22,195
1054,8	25,195
1055,2	23,852
1055,6	24,852
1056	27,11
1056,4	26,51
1056,8	22,624
1057,2	23,938
1057,6	15,052
1058,1	6,967
1058,5	-2,205
1058,9	0,481
1059,3	1,938
1059,7	3,91
1060,1	3,081
1060,5	8,338
1061	14,167
1061,4	18,795
1061,8	15,452
1062,2	9,652
1062,6	13,681
1063	14,681
1063,4	18,995
1063,8	14,31
1064,3	13,424
1064,7	11,167
1065,1	10,852
1065,5	5,224
1065,9	5,395
1066,3	-3,662
1066,7	-5,805
1067,1	-3,919
1067,6	-2,062
1068	-2,776
1068,4	-1,262
1068,8	3,567
1069,2	7,31
1069,6	10,824
1070	11,71
1070,4	11,538
1070,9	14,995
1071,3	9,681
1071,7	5,11
1072,1	7,624
1072,5	4,938
1072,9	3,624
1073,3	6,052
1073,7	2,567
1074,2	7,567
1074,6	8,738
1075	7,338
1075,4	6,91
1075,8	12,881
1076,2	12,51
1076,6	17,167
1077	15,852
1077,5	18,652
1077,9	17,138
1078,3	18,852
1078,7	16,424
1079,1	17,795
1079,5	19,195
1079,9	17,91
1080,3	13,481
1080,7	12,824
1081,2	18,395
1081,6	16,538
1082	13,224
1082,4	14,11
1082,8	15,281
1083,2	14,252
1083,6	17,024
1084	12,11
1084,5	12,538
1084,9	10,595
1085,3	2,167
1085,7	4,795
1086,1	6,252
1086,5	5,052
1086,9	5,852
1087,3	4,852
1087,7	4,881
1088,2	8,11
1088,6	6,281
1089	5,995
1089,4	9,71
1089,8	9,481
1090,2	7,281
1090,6	9,51
1091	13,738
1091,4	11,51
1091,9	14,567
1092,3	11,767
1092,7	13,224
1093,1	18,452
1093,5	15,595
1093,9	13,967
1094,3	18,624
1094,7	15,31
1095,1	14,195
1095,5	16,024
1096	8,938
1096,4	12,967
1096,8	10,281
1097,2	7,338
1097,6	8,824
1098	9,681
1098,4	9,624
1098,8	15,824
1099,2	18,567
1099,6	17,424
1100,1	15,995
1100,5	11,281
1100,9	11,338
1101,3	11,081
1101,7	9,138
1102,1	4,595
1102,5	8,338
1102,9	8,652
1103,3	12,481
1103,7	12,995
1104,2	12,71
1104,6	12,595
1105	11,195
1105,4	10,424
1105,8	9,938
1106,2	7,31
1106,6	5,567
1107	3,024
1107,4	2
1107,8	2,967
1108,3	-0,083
