Data from Subt2_207.txt Node
Date: Sat Aug 26 18:46:48 MSK 2023
User: vat
Spectrometer: MAYP114033
Trigger mode: 0
Integration Time (sec): 1,000000E0
Scans to average: 5
Electric dark correction enabled: true
Nonlinearity correction enabled: false
Boxcar width: 3
XAxis mode: Wavelengths
Number of Pixels in Spectrum: 2068
>>>>>Begin Spectral Data<<<<<
199,4	0,417
199,9	2,747
200,4	-0,833
200,8	0,124
201,3	-2,533
201,8	-0,533
202,2	-1,39
202,7	2,638
203,2	-0,933
203,6	-0,248
204,1	-4,819
204,6	-3,905
205	-3,419
205,5	-3,733
206	-4,676
206,4	-2,533
206,9	-0,048
207,4	5,552
207,8	4,924
208,3	0,61
208,8	2,581
209,2	2,21
209,7	1,267
210,2	3,124
210,6	0,924
211,1	9,267
211,5	10,581
212	7,124
212,5	4,781
212,9	6,038
213,4	4,867
213,9	3,781
214,3	0,638
214,8	3,724
215,3	6,838
215,7	9,267
216,2	10,438
216,7	11,267
217,1	12,524
217,6	13,495
218,1	10,41
218,5	10,21
219	1,41
219,5	0,352
219,9	-1,79
220,4	2,61
220,9	-0,219
221,3	3,067
221,8	2,981
222,3	8,724
222,7	10,981
223,2	9,095
223,6	6,81
224,1	8,581
224,6	6,181
225	0,838
225,5	-0,99
226	-1,448
226,4	3,781
226,9	1,952
227,4	1,524
227,8	-4,39
228,3	-1,448
228,8	0,524
229,2	0,438
229,7	-1,533
230,2	-0,733
230,6	1,038
231,1	11,238
231,5	15,438
232	17,467
232,5	14,695
232,9	12,124
233,4	17,838
233,9	12,867
234,3	10,181
234,8	4,524
235,3	0,724
235,7	3,038
236,2	3,552
236,7	-3,362
237,1	0,181
237,6	-4,305
238,1	0,324
238,5	0,495
239	2,638
239,4	5,467
239,9	5,581
240,4	4,295
240,8	8,21
241,3	4,381
241,8	7,867
242,2	2,81
242,7	1,181
243,2	3,552
243,6	1,724
244,1	6,181
244,6	9,267
245	8,667
245,5	14,238
245,9	11,495
246,4	11,724
246,9	16,21
247,3	12,181
247,8	14,41
248,3	15,381
248,7	14,981
249,2	17,981
249,7	15,467
250,1	15,067
250,6	12,552
251	14,838
251,5	12,467
252	7,324
252,4	8,524
252,9	5,324
253,4	-1,562
253,8	-0,905
254,3	-5,39
254,8	-4,276
255,2	-3,59
255,7	-4,905
256,1	1,324
256,6	6,095
257,1	9,152
257,5	1,667
258	2,324
258,5	1,924
258,9	-2,476
259,4	-5,162
259,9	-3,905
260,3	-6,876
260,8	-1,962
261,2	-1,848
261,7	-1,248
262,2	1,895
262,6	0,095
263,1	2,267
263,6	4,181
264	6,352
264,5	8,695
264,9	9,21
265,4	9,952
265,9	7,01
266,3	4,838
266,8	4,981
267,3	3,638
267,7	-2,533
268,2	0,095
268,7	1,267
269,1	7,467
269,6	3,838
270	9,381
270,5	8,01
271	11,781
271,4	7,467
271,9	3,524
272,4	4,21
272,8	8,324
273,3	0,667
273,7	4,01
274,2	3,095
274,7	4,752
275,1	8,095
275,6	4,524
276,1	1,038
276,5	3,467
277	5,895
277,4	4,438
277,9	7,924
278,4	10,838
278,8	11,981
279,3	13,895
279,8	15,895
280,2	14,295
280,7	18,352
281,1	14,21
281,6	12,324
282,1	15,152
282,5	16,095
283	15,838
283,4	12,724
283,9	10,495
284,4	15,867
284,8	15,752
285,3	13,524
285,8	11,867
286,2	9,038
286,7	12,152
287,1	11,867
287,6	6,467
288,1	2,981
288,5	4,724
289	4,524
289,5	2,867
289,9	-4,676
290,4	-1,876
290,8	-1,59
291,3	0,724
291,8	3,781
292,2	2,381
292,7	10,038
293,1	15,695
293,6	18,438
294,1	16,552
294,5	14,867
295	9,724
295,5	10,438
295,9	3,067
296,4	1,038
296,8	-6,276
297,3	-4,648
297,8	-6,276
298,2	-5,79
298,7	-0,076
299,1	2,981
299,6	2,638
300,1	6,295
300,5	7,01
301	11,638
301,5	15,438
301,9	8,067
302,4	2,524
302,8	1,638
303,3	-0,133
303,8	-2,99
304,2	-1,59
304,7	-5,876
305,1	-4,305
305,6	1,01
306,1	9,552
306,5	11,295
307	13,152
307,4	15,552
307,9	17,067
308,4	15,695
308,8	10,352
309,3	4,981
309,8	0,067
310,2	1,152
310,7	-6,99
311,1	-7,933
311,6	-5,762
312,1	-2,105
312,5	0,724
313	5,267
313,4	2,581
313,9	7,267
314,4	6,038
314,8	1,581
315,3	3,667
315,7	-0,505
316,2	-3,876
316,7	-2,248
317,1	4,21
317,6	7,21
318	10,352
318,5	9,067
319	9,238
319,4	9,41
319,9	14,695
320,3	7,81
320,8	1,495
321,3	6,21
321,7	7,324
322,2	7,638
322,6	11,095
323,1	7,581
323,6	9,124
324	12,41
324,5	10,581
324,9	8,181
325,4	9,924
325,9	11,781
326,3	11,438
326,8	7,952
327,2	3,152
327,7	5,552
328,2	5,695
328,6	7,01
329,1	1,895
329,5	3,238
330	4,095
330,5	10,81
330,9	7,238
331,4	10,638
331,8	10,667
332,3	15,952
332,8	18,181
333,2	17,295
333,7	15,467
334,1	16,924
334,6	11,81
335,1	7,038
335,5	5,21
336	0,095
336,4	2,381
336,9	9,352
337,4	11,324
337,8	12,81
338,3	16,695
338,7	16,581
339,2	15,267
339,7	16,381
340,1	10,267
340,6	13,295
341	12,924
341,5	8,838
342	5,324
342,4	4,467
342,9	-1,819
343,3	1,524
343,8	-8,362
344,2	-8,076
344,7	-1,619
345,2	0,152
345,6	0,495
346,1	8,581
346,5	2,838
347	9,552
347,5	9,467
347,9	10,552
348,4	9,838
348,8	12,038
349,3	10,067
349,8	13,867
350,2	16,638
350,7	17,181
351,1	15,924
351,6	21,095
352	28,752
352,5	33,21
353	39,952
353,4	42,295
353,9	56,667
354,3	68,495
354,8	75,638
355,3	95,81
355,7	113,181
356,2	138,438
356,6	163,181
357,1	188,324
357,5	222,467
358	268,895
358,5	305,724
358,9	357,752
359,4	409,295
359,8	473,638
360,3	547,638
360,8	619,61
361,2	700,981
361,7	796,181
362,1	903,952
362,6	1015,152
363	1133,61
363,5	1256,067
364	1397,124
364,4	1531,381
364,9	1669,524
365,3	1806,895
365,8	1938,352
366,3	2057,581
366,7	2169,981
367,2	2264,267
367,6	2349,352
368,1	2410,067
368,5	2446,038
369	2472,724
369,5	2480,667
369,9	2462,695
370,4	2423,695
370,8	2369,181
371,3	2301,21
371,7	2218,067
372,2	2119,181
372,7	2019,238
373,1	1914,867
373,6	1805,267
374	1698,695
374,5	1590,095
374,9	1485,152
375,4	1378,524
375,9	1276,152
376,3	1176,867
376,8	1090,01
377,2	1001,924
377,7	919,552
378,2	841,038
378,6	774,238
379,1	708,324
379,5	652,41
380	597,81
380,4	546,381
380,9	499,981
381,4	457,381
381,8	422,581
382,3	395,381
382,7	365,581
383,2	339,324
383,6	315,724
384,1	296,467
384,6	273,838
385	253,295
385,5	229,695
385,9	211,181
386,4	195,381
386,8	182,752
387,3	164,524
387,7	161,552
388,2	151,981
388,7	144,381
389,1	136,981
389,6	125,638
390	117,095
390,5	113,095
390,9	101,695
391,4	93,867
391,9	84,81
392,3	80,124
392,8	73,152
393,2	63,438
393,7	61,038
394,1	53,81
394,6	52,695
395,1	52,038
395,5	45,838
396	48,581
396,4	52,438
396,9	48,781
397,3	52,295
397,8	53,667
398,2	51,667
398,7	50,752
399,2	47,981
399,6	43,324
400,1	43,467
400,5	39,152
401	38,324
401,4	34,895
401,9	37,61
402,4	37,895
402,8	38,124
403,3	42,21
403,7	42,867
404,2	39,638
404,6	45,467
405,1	42,552
405,5	42,952
406	42,924
406,5	36,952
406,9	40,724
407,4	38,295
407,8	37,495
408,3	40,952
408,7	38,838
409,2	48,324
409,6	50,981
410,1	52,21
410,6	62,524
411	64,21
411,5	69,895
411,9	77,295
412,4	76,524
412,8	85,352
413,3	91,267
413,7	92,667
414,2	99,181
414,7	107,21
415,1	119,324
415,6	125,695
416	130,238
416,5	137,724
416,9	140,924
417,4	148,61
417,8	156,781
418,3	161,81
418,8	170,467
419,2	175,181
419,7	179,981
420,1	188,867
420,6	194,981
421	198,495
421,5	202,267
421,9	206,895
422,4	217,867
422,8	226,267
423,3	234,695
423,8	244,495
424,2	249,81
424,7	262,238
425,1	273,238
425,6	283,495
426	290,81
426,5	303,952
426,9	318,124
427,4	329,467
427,9	333,067
428,3	344,638
428,8	359,438
429,2	374,038
429,7	388,524
430,1	402,781
430,6	421,038
431	443,638
431,5	464,067
431,9	477,524
432,4	502,295
432,8	524,667
433,3	545,524
433,8	568,095
434,2	593,467
434,7	620,352
435,1	652,124
435,6	680,21
436	706,495
436,5	741,867
436,9	774,095
437,4	804,01
437,8	838,067
438,3	871,267
438,8	909,467
439,2	951,981
439,7	984,495
440,1	1028,352
440,6	1076,61
441	1118,41
441,5	1163,524
441,9	1206,981
442,4	1249,467
442,8	1302,01
443,3	1353,552
443,7	1404,524
444,2	1461,552
444,7	1519,324
445,1	1576,181
445,6	1640,124
446	1705,01
446,5	1762,038
446,9	1819,095
447,4	1880,81
447,8	1949,81
448,3	2019,81
448,7	2086,41
449,2	2155,924
449,6	2232,038
450,1	2307,867
450,6	2386,924
451	2461,01
451,5	2538,095
451,9	2619,267
452,4	2697,638
452,8	2773,581
453,3	2862,324
453,7	2945,067
454,2	3033,438
454,6	3122,952
455,1	3211,981
455,5	3301,981
456	3398,667
456,4	3480,981
456,9	3576,152
457,3	3665,038
457,8	3754,352
458,3	3847,924
458,7	3940,21
459,2	4033,952
459,6	4137,095
460,1	4239,21
460,5	4336,038
461	4443,41
461,4	4541,552
461,9	4642,981
462,3	4749,21
462,8	4853,61
463,2	4946,724
463,7	5055,724
464,1	5158,81
464,6	5266,095
465	5369,638
465,5	5471,952
466	5576,324
466,4	5681,238
466,9	5781,095
467,3	5877,724
467,8	5976,695
468,2	6079,267
468,7	6177,495
469,1	6276,267
469,6	6378,181
470	6472,581
470,5	6571,267
470,9	6660,495
471,4	6752,781
471,8	6844,381
472,3	6928,152
472,7	7010,838
473,2	7098,41
473,6	7181,695
474,1	7269,838
474,5	7349,01
475	7432,838
475,4	7521,495
475,9	7607,352
476,4	7680,467
476,8	7757,867
477,3	7833,038
477,7	7909,352
478,2	7974,781
478,6	8031,924
479,1	8085,21
479,5	8150,981
480	8206,952
480,4	8269,352
480,9	8320,781
481,3	8365,524
481,8	8410,295
482,2	8450,838
482,7	8492,838
483,1	8531,21
483,6	8557,781
484	8584,552
484,5	8625,238
484,9	8653,21
485,4	8686,81
485,8	8708,181
486,3	8725,981
486,7	8748,324
487,2	8763,638
487,6	8772,152
488,1	8780,981
488,5	8787,838
489	8789,981
489,4	8799,867
489,9	8792,01
490,4	8792,238
490,8	8785,752
491,3	8779,41
491,7	8757,724
492,2	8748,524
492,6	8721,038
493,1	8710,724
493,5	8684,295
494	8654,295
494,4	8632,238
494,9	8604,524
495,3	8576,095
495,8	8553,495
496,2	8512,01
496,7	8480,81
497,1	8450,181
497,6	8408,952
498	8377,152
498,5	8340,124
498,9	8295,267
499,4	8259,067
499,8	8219,667
500,3	8176,61
500,7	8130,181
501,2	8078,838
501,6	8027,524
502,1	7977,124
502,5	7927,152
503	7875,524
503,4	7824,124
503,9	7772,695
504,3	7722,781
504,8	7662,952
505,2	7604,095
505,7	7544,467
506,1	7488,724
506,6	7422,324
507	7361,838
507,5	7308,438
507,9	7248,352
508,4	7186,495
508,8	7120,495
509,3	7049,067
509,7	6989,095
510,2	6929,495
510,6	6856,181
511,1	6791,467
511,5	6721,61
512	6655,238
512,4	6593,238
512,9	6535,752
513,3	6469,01
513,8	6406,181
514,2	6345,581
514,7	6289,638
515,1	6225,181
515,6	6152,181
516	6076,124
516,5	6011,467
516,9	5948,352
517,4	5876,01
517,8	5808,667
518,3	5743,552
518,7	5686,124
519,2	5620,581
519,6	5556,438
520,1	5492,495
520,5	5438,095
521	5372,781
521,4	5312,924
521,9	5251,667
522,3	5197,352
522,8	5129,352
523,2	5064,638
523,7	4995,581
524,1	4939,238
524,6	4885,638
525	4826,724
525,5	4764,867
525,9	4717,381
526,4	4664,895
526,8	4610,724
527,3	4557,01
527,7	4498,781
528,2	4448,067
528,6	4399,181
529,1	4345,467
529,5	4298,981
530	4247,638
530,4	4197,438
530,9	4151,838
531,3	4106,552
531,8	4058,295
532,2	4016,495
532,6	3965,752
533,1	3923,21
533,5	3875,295
534	3826,867
534,4	3781,667
534,9	3741,895
535,3	3693,981
535,8	3656,781
536,2	3619,238
536,7	3585,038
537,1	3550,152
537,6	3507,667
538	3468,295
538,5	3432,124
538,9	3384,667
539,4	3343,638
539,8	3302,381
540,3	3263,038
540,7	3227,61
541,2	3185,81
541,6	3151,924
542,1	3125,695
542,5	3094,181
543	3060,724
543,4	3023,867
543,9	2994,752
544,3	2962,552
544,8	2925,867
545,2	2897,667
545,7	2864,981
546,1	2835,324
546,5	2810,152
547	2781,352
547,4	2758,181
547,9	2730,352
548,3	2693,352
548,8	2673,495
549,2	2644,752
549,7	2617,438
550,1	2593,695
550,6	2563,867
551	2543,981
551,5	2519,695
551,9	2487,524
552,4	2472,467
552,8	2448,638
553,3	2417,381
553,7	2394,81
554,2	2371,924
554,6	2357,724
555,1	2337,095
555,5	2305,267
555,9	2283,21
556,4	2272,438
556,8	2251,381
557,3	2232,381
557,7	2208,238
558,2	2187,581
558,6	2178,295
559,1	2155,667
559,5	2129,752
560	2114,181
560,4	2096,495
560,9	2080,21
561,3	2061,038
561,8	2037,695
562,2	2027,552
562,7	2012,467
563,1	2000,124
563,6	1973,61
564	1951,895
564,4	1936,495
564,9	1921,81
565,3	1906,381
565,8	1888,552
566,2	1870,552
566,7	1866,581
567,1	1859,352
567,6	1849,552
568	1833,238
568,5	1818,124
568,9	1805,752
569,4	1793,61
569,8	1778,81
570,3	1762,81
570,7	1741,038
571,1	1729,61
571,6	1717,638
572	1707,924
572,5	1693,895
572,9	1675,21
573,4	1660,781
573,8	1659,038
574,3	1645,238
574,7	1629,695
575,2	1618,01
575,6	1601,952
576,1	1593,667
576,5	1584,21
576,9	1567,238
577,4	1554,381
577,8	1541,552
578,3	1522,41
578,7	1515,667
579,2	1507,324
579,6	1493,381
580,1	1480,152
580,5	1472,952
581	1466,067
581,4	1460,981
581,9	1451,324
582,3	1435,752
582,7	1429,61
583,2	1420,324
583,6	1408,895
584,1	1401,495
584,5	1393,067
585	1382,752
585,4	1373,238
585,9	1362,295
586,3	1361,61
586,8	1356,381
587,2	1343,01
587,6	1333,495
588,1	1328,867
588,5	1320,81
589	1315,781
589,4	1298,952
589,9	1288,61
590,3	1282,21
590,8	1273,038
591,2	1264,524
591,7	1263,524
592,1	1257,61
592,5	1258,124
593	1252,581
593,4	1241,695
593,9	1228,438
594,3	1216,524
594,8	1203,61
595,2	1196,695
595,7	1181,695
596,1	1169,095
596,6	1167,81
597	1168,238
597,4	1163,581
597,9	1161,238
598,3	1154,41
598,8	1145,781
599,2	1143,095
599,7	1136,524
600,1	1125,867
600,6	1114,152
601	1105,867
601,4	1101,524
601,9	1104,781
602,3	1095,695
602,8	1086,21
603,2	1082,781
603,7	1082,895
604,1	1076,667
604,6	1063,924
605	1054,667
605,4	1054,124
605,9	1049,752
606,3	1036,81
606,8	1028,524
607,2	1021,324
607,7	1010,552
608,1	1003,752
608,6	999,981
609	997,41
609,4	1001,724
609,9	995,638
610,3	992,01
610,8	990,067
611,2	982,181
611,7	969,467
612,1	956,838
612,6	948,981
613	947,21
613,4	941,495
613,9	930,867
614,3	929,638
614,8	925,895
615,2	922,781
615,7	924,352
616,1	919,838
616,6	911,952
617	912,638
617,4	903,267
617,9	904,181
618,3	901,295
618,8	894,352
619,2	886,724
619,7	886,695
620,1	882,781
620,5	880,752
621	869,724
621,4	867,981
621,9	859,581
622,3	854,838
622,8	843,752
623,2	838,895
623,6	832,981
624,1	831,067
624,5	827,095
625	822,81
625,4	816,438
625,9	814,21
626,3	807,524
626,8	802,524
627,2	798,467
627,6	781,552
628,1	772,21
628,5	770,895
629	764,324
629,4	759,324
629,9	752,752
630,3	739,895
630,7	738,952
631,2	737,152
631,6	729,952
632,1	725,238
632,5	718,095
633	715,124
633,4	714,095
633,8	714,81
634,3	709,752
634,7	704,581
635,2	700,067
635,6	698,467
636,1	694,724
636,5	687,695
636,9	676,21
637,4	667,495
637,8	660,695
638,3	652,21
638,7	643,067
639,2	632,152
639,6	635,438
640	632,01
640,5	633,924
640,9	627,981
641,4	628,295
641,8	631,238
642,2	631,867
642,7	628,181
643,1	631,381
643,6	624,895
644	628,21
644,5	627,152
644,9	623,152
645,3	622,238
645,8	613,581
646,2	611,038
646,7	607,695
647,1	598,381
647,6	594,752
648	596,81
648,4	592,867
648,9	590,81
649,3	582,238
649,8	579,324
650,2	576,867
650,6	568,724
651,1	558,067
651,5	556,752
652	554,01
652,4	545,524
652,9	542,781
653,3	542,067
653,7	541,181
654,2	539,295
654,6	527,61
655,1	525,524
655,5	533,267
655,9	529,81
656,4	527,267
656,8	523,667
657,3	521,61
657,7	524,638
658,2	519,552
658,6	510,924
659	507,752
659,5	500,067
659,9	493,638
660,4	489,695
660,8	484,61
661,2	479,238
661,7	480,695
662,1	478,552
662,6	476,495
663	474,867
663,4	469,295
663,9	468,352
664,3	464,01
664,8	453,524
665,2	445,924
665,6	439,438
666,1	437,01
666,5	437,438
667	431,467
667,4	430,352
667,9	434,524
668,3	434,01
668,7	435,152
669,2	436,952
669,6	432,895
670,1	431,838
670,5	426,41
670,9	417,41
671,4	415,438
671,8	413,981
672,3	412,952
672,7	411,438
673,1	402,467
673,6	398,695
674	400,438
674,5	395,238
674,9	386,438
675,3	376,381
675,8	370,152
676,2	373,295
676,7	372,581
677,1	367,524
677,5	361,838
678	361,695
678,4	364,552
678,9	360,667
679,3	358,381
679,7	355,124
680,2	350,238
680,6	351,438
681,1	351,324
681,5	348,095
681,9	352,295
682,4	349,352
682,8	350,01
683,3	352,238
683,7	351,038
684,1	347,124
684,6	340,924
685	331,438
685,5	328,152
685,9	320,695
686,3	315,924
686,8	314,438
687,2	314,038
687,7	311,695
688,1	312,438
688,5	311,638
689	313,095
689,4	311,438
689,9	306,01
690,3	299,724
690,7	298,352
691,2	298,095
691,6	298,695
692	296,781
692,5	295,667
692,9	294,724
693,4	297,667
693,8	295,81
694,2	292,781
694,7	284,981
695,1	281,581
695,6	278,295
696	280,638
696,4	276,038
696,9	271,381
697,3	268,981
697,8	268,838
698,2	268,638
698,6	268,552
699,1	263,41
699,5	263,067
699,9	260,838
700,4	256,352
700,8	254,667
701,3	255,01
701,7	252,181
702,1	249,495
702,6	247,095
703	250,267
703,5	246,181
703,9	243,324
704,3	240,324
704,8	237,067
705,2	236,181
705,6	237,752
706,1	234,352
706,5	236,352
707	235,124
707,4	239,038
707,8	236,01
708,3	237,21
708,7	236,21
709,2	235,752
709,6	233,924
710	239,267
710,5	228,267
710,9	226,895
711,3	222,152
711,8	222,181
712,2	220,724
712,7	218,152
713,1	212,952
713,5	217,095
714	218,981
714,4	217,01
714,8	207,981
715,3	206,667
715,7	211,152
716,2	205,324
716,6	202,667
717	196,924
717,5	197,381
717,9	200,038
718,3	197,695
718,8	192,41
719,2	192,324
719,7	193,895
720,1	194,01
720,5	196,552
721	191,81
721,4	189,981
721,8	192,152
722,3	190,61
722,7	190,838
723,2	186,067
723,6	174,381
724	172,724
724,5	170,21
724,9	164,095
725,3	163,267
725,8	157,81
726,2	155,41
726,7	158,067
727,1	160,524
727,5	160,295
728	157,067
728,4	155,181
728,8	150,781
729,3	151,981
729,7	149,552
730,1	150,581
730,6	154,181
731	153,467
731,5	150,781
731,9	151,81
732,3	153,495
732,8	155,638
733,2	150,952
733,6	145,81
734,1	148,752
734,5	150,095
734,9	155,952
735,4	157,638
735,8	153,238
736,3	156,552
736,7	155,552
737,1	153,695
737,6	152,267
738	144,667
738,4	141,838
738,9	145,238
739,3	140,952
739,7	139,067
740,2	136,667
740,6	146,895
741,1	148,667
741,5	144,61
741,9	141,381
742,4	143,581
742,8	141,924
743,2	141,152
743,7	129,381
744,1	124,638
744,5	123,524
745	121,124
745,4	113,981
745,8	114,638
746,3	115,295
746,7	116,61
747,2	118,867
747,6	122,695
748	128,01
748,5	131,81
748,9	126,895
749,3	123,924
749,8	125,238
750,2	123,895
750,6	120,495
751,1	119,552
751,5	116,295
751,9	122,981
752,4	125,095
752,8	121,181
753,3	120,781
753,7	123,81
754,1	119,152
754,6	118,667
755	115,01
755,4	112,638
755,9	109,667
756,3	107,724
756,7	104,695
757,2	104,295
757,6	104,01
758	100,581
758,5	98,781
758,9	100,095
759,3	102,467
759,8	100,01
760,2	99,524
760,6	100,267
761,1	101,467
761,5	99,752
761,9	103,867
762,4	99,467
762,8	103,067
763,3	100,581
763,7	100,952
764,1	102,61
764,6	105,981
765	101,638
765,4	102,552
765,9	105,238
766,3	109,238
766,7	107,21
767,2	101,838
767,6	105,038
768	104,181
768,5	102,095
768,9	97,61
769,3	95,495
769,8	93,895
770,2	98,581
770,6	93,01
771,1	95,695
771,5	96,638
771,9	96,467
772,4	96,81
772,8	97,352
773,2	95,467
773,7	93,267
774,1	89,81
774,5	84,952
775	82,295
775,4	79,381
775,8	75,81
776,3	76,81
776,7	77,895
777,1	78,924
777,6	84,724
778	85,981
778,4	83,61
778,9	86,267
779,3	83,095
779,7	85,952
780,2	86,21
780,6	83,324
781	77,238
781,5	73,695
781,9	74,781
782,3	75,038
782,8	71,095
783,2	70,552
783,6	72,324
784,1	77,038
784,5	81,181
784,9	75,581
785,4	76,352
785,8	78,895
786,2	78,324
786,7	75,667
787,1	74,181
787,5	73,924
788	75,095
788,4	74,752
788,8	71,124
789,3	68,095
789,7	65,895
790,1	64,638
790,6	70,867
791	66,781
791,4	67,238
791,9	69,467
792,3	66,724
792,7	71,267
793,2	68,524
793,6	65,638
794	72,581
794,5	70,238
794,9	69,124
795,3	70,352
795,8	69,638
796,2	75,152
796,6	73,41
797,1	67,81
797,5	64,552
797,9	59,838
798,4	58,41
798,8	57,724
799,2	54,724
799,7	52,781
800,1	54,21
800,5	58,495
801	64,438
801,4	65,124
801,8	58,438
802,2	57,038
802,7	56,181
803,1	53,41
803,5	52,952
804	48,352
804,4	52,524
804,8	53,41
805,3	54,524
805,7	55,324
806,1	56,781
806,6	55,981
807	59,267
807,4	53,352
807,9	51,581
808,3	49,01
808,7	50,21
809,2	49,952
809,6	52,067
810	47,038
810,4	47,638
810,9	49,41
811,3	52,467
811,7	50,61
812,2	56,267
812,6	53,438
813	56,21
813,5	60,152
813,9	59,695
814,3	57,41
814,8	57,752
815,2	53,095
815,6	56,181
816,1	57,495
816,5	53,581
816,9	50,981
817,3	53,381
817,8	55,524
818,2	54,924
818,6	48,295
819,1	45,095
819,5	45,352
819,9	50,552
820,4	47,352
820,8	40,324
821,2	34,981
821,7	37,152
822,1	43,867
822,5	47,752
822,9	45,952
823,4	45,238
823,8	53,21
824,2	62,181
824,7	56,752
825,1	48,581
825,5	44,124
826	40,152
826,4	37,524
826,8	33,467
827,3	30,152
827,7	33,067
828,1	33,152
828,5	29,552
829	29,21
829,4	31,495
829,8	24,695
830,3	23,695
830,7	22,781
831,1	25,724
831,6	29,838
832	31,438
832,4	30,524
832,8	36,467
833,3	34,238
833,7	30,324
834,1	27,41
834,6	22,981
835	25,381
835,4	26,61
835,8	23,067
836,3	21,981
836,7	27,295
837,1	26,067
837,6	28,695
838	25,552
838,4	25,838
838,9	27,867
839,3	30,124
839,7	26,867
840,1	21,838
840,6	18,238
841	23,238
841,4	21,752
841,9	21,81
842,3	22,552
842,7	27,867
843,1	34,581
843,6	40,752
844	37,838
844,4	40,952
844,9	42,238
845,3	42,352
845,7	35,352
846,2	34,667
846,6	29,667
847	31,781
847,4	30,438
847,9	31,295
848,3	31,952
848,7	37,552
849,2	34,867
849,6	34,752
850	34,552
850,4	35,038
850,9	34,152
851,3	33,267
851,7	32,467
852,2	30,467
852,6	34,895
853	36,21
853,4	32,295
853,9	28,381
854,3	27,524
854,7	26,01
855,2	30,181
855,6	28,038
856	23,952
856,4	22,81
856,9	21,867
857,3	20,581
857,7	22,495
858,2	22,752
858,6	18,867
859	19,095
859,4	22,695
859,9	24,924
860,3	21,21
860,7	21,352
861,1	20,552
861,6	27,838
862	30,638
862,4	27,781
862,9	30,695
863,3	32,781
863,7	28,552
864,1	29,267
864,6	25,067
865	21,324
865,4	23,038
865,9	25,467
866,3	23,124
866,7	23,981
867,1	23,381
867,6	25,267
868	26,352
868,4	21,952
868,8	15,695
869,3	20,352
869,7	25,038
870,1	19,41
870,6	14,952
871	-14,819
871,4	-7,648
871,8	-9,733
872,3	-10,19
872,7	-12,162
873,1	-8,333
873,5	-3,962
874	24,695
874,4	26,781
874,8	24,381
875,3	26,381
875,7	20,295
876,1	24,695
876,5	20,238
877	19,238
877,4	11,067
877,8	14,724
878,2	16,838
878,7	23,981
879,1	19,238
879,5	25,038
879,9	26,267
880,4	27,61
880,8	29,467
881,2	25,41
881,7	19,552
882,1	22,581
882,5	18,495
882,9	16,981
883,4	15,638
883,8	14,438
884,2	13,095
884,6	14,381
885,1	12,781
885,5	14,095
885,9	14,695
886,3	17,924
886,8	15,638
887,2	15,124
887,6	12,895
888	10,524
888,5	11,01
888,9	8,124
889,3	5,752
889,8	9,467
890,2	8,867
890,6	9,638
891	13,067
891,5	14,838
891,9	20,352
892,3	23,41
892,7	23,695
893,2	23,438
893,6	27,552
894	28,095
894,4	23,238
894,9	20,324
895,3	13,21
895,7	14,924
896,1	14,124
896,6	12,524
897	10,352
897,4	16,724
897,8	17,638
898,3	24,181
898,7	20,924
899,1	24,895
899,5	19,638
900	16,895
900,4	9,895
900,8	8,495
901,2	4,438
901,7	2,21
902,1	1,352
902,5	5,095
902,9	3,467
903,4	6,152
903,8	8,41
904,2	9,152
904,6	9,295
905,1	10,01
905,5	12,524
905,9	16,01
906,3	13,895
906,8	14,124
907,2	15,295
907,6	14,924
908	15,41
908,5	8,867
908,9	8,381
909,3	7,524
909,7	5,81
910,2	5,867
910,6	11,667
911	6,781
911,4	15,095
911,9	11,667
912,3	11,981
912,7	15,01
913,1	13,324
913,6	7,895
914	11,01
914,4	5,467
914,8	14,61
915,3	16,352
915,7	12,724
916,1	12,924
916,5	17,41
916,9	16,21
917,4	19,552
917,8	15,267
918,2	9,781
918,6	7,352
919,1	7,667
919,5	6,41
919,9	7,552
920,3	2,267
920,8	1,695
921,2	3,895
921,6	7,952
922	9,867
922,5	4,552
922,9	6,038
923,3	8,21
923,7	8,924
924,2	9,324
924,6	4,467
925	4,81
925,4	8,61
925,8	6,524
926,3	5,895
926,7	5,324
927,1	4,781
927,5	9,438
928	2,752
928,4	1,524
928,8	4,524
929,2	3,267
929,7	0,952
930,1	5,124
930,5	2,038
930,9	11,21
931,3	10,438
931,8	6,352
932,2	5,067
932,6	5,667
933	-3,476
933,5	1,952
933,9	0,552
934,3	1,152
934,7	-1,733
935,2	0,667
935,6	0,552
936	8,438
936,4	3,124
936,8	-0,39
937,3	-0,019
937,7	5,124
938,1	10,81
938,5	6,581
939	5,01
939,4	6,752
939,8	9,238
940,2	9,667
940,6	6,61
941,1	0,752
941,5	10,181
941,9	7,724
942,3	8,981
942,8	10,695
943,2	12,752
943,6	12,61
944	13,724
944,4	8,895
944,9	10,324
945,3	10,552
945,7	2,324
946,1	-3,933
946,6	-1,019
947	0,181
947,4	2,667
947,8	5,467
948,2	2,324
948,7	10,495
949,1	14,267
949,5	17,781
949,9	13,924
950,3	11,467
950,8	9,924
951,2	11,667
951,6	4,895
952	8,352
952,5	0,981
952,9	4,781
953,3	5,467
953,7	5,41
954,1	7,981
954,6	10,238
955	10,838
955,4	12,981
955,8	15,638
956,2	16,495
956,7	16,438
957,1	11,038
957,5	11,924
957,9	5,381
958,3	5,324
958,8	2,61
959,2	6,752
959,6	10,981
960	10,924
960,5	13,181
960,9	16,495
961,3	15,81
961,7	15,352
962,1	7,695
962,6	5,524
963	5,61
963,4	1,981
963,8	2,295
964,2	4,952
964,7	4,867
965,1	7,324
965,5	5,438
965,9	4,924
966,3	9,21
966,8	7,467
967,2	4,324
967,6	5,01
968	2,181
968,4	0,095
968,9	5,81
969,3	6,838
969,7	3,295
970,1	6,895
970,5	4,638
971	11,752
971,4	16,581
971,8	13,01
972,2	10,667
972,6	16,467
973,1	11,152
973,5	14,467
973,9	11,124
974,3	8,181
974,7	12,238
975,2	12,552
975,6	10,924
976	16,438
976,4	12,438
976,8	13,581
977,3	12,895
977,7	7,524
978,1	8,524
978,5	6,181
978,9	-0,648
979,4	-1,133
979,8	-3,962
980,2	-2,99
980,6	-6,248
981	-6,79
981,5	-4,705
981,9	-2,933
982,3	-1,19
982,7	2,324
983,1	-2,362
983,6	4,638
984	2,981
984,4	2,981
984,8	5,095
985,2	5,038
985,6	-3,59
986,1	2,038
986,5	0,667
986,9	-3,219
987,3	-4,705
987,7	-4,362
988,2	-5,99
988,6	-0,79
989	-0,79
989,4	-1,105
989,8	2,581
990,3	2,552
990,7	-0,533
991,1	0,124
991,5	5,41
991,9	8,581
992,3	9,752
992,8	8,752
993,2	7,467
993,6	10,838
994	13,638
994,4	9,867
994,9	3,981
995,3	-2,648
995,7	-2,619
996,1	1,124
996,5	-0,733
996,9	-1,133
997,4	-1,162
997,8	-2,733
998,2	1,924
998,6	-3,448
999	-5,962
999,5	-4,305
999,9	-6,533
1000,3	-9,933
1000,7	-6,362
1001,1	-7,99
1001,5	-0,505
1002	7,124
1002,4	7,781
1002,8	8,295
1003,2	13,524
1003,6	16,81
1004	18,238
1004,5	13,752
1004,9	10,152
1005,3	5,952
1005,7	7,495
1006,1	3,924
1006,6	0,495
1007	0,381
1007,4	2,552
1007,8	-1,476
1008,2	-6,133
1008,6	-3,505
1009,1	-3,962
1009,5	-5,905
1009,9	-3,219
1010,3	-6,048
1010,7	0,295
1011,1	6,352
1011,6	3,295
1012	7,038
1012,4	3,952
1012,8	0,124
1013,2	7,267
1013,6	3,238
1014,1	7,81
1014,5	8,295
1014,9	5,467
1015,3	10,181
1015,7	13,867
1016,1	10,838
1016,6	7,552
1017	2,638
1017,4	1,924
1017,8	4,838
1018,2	7,41
1018,6	1,895
1019,1	4,352
1019,5	5,667
1019,9	2,724
1020,3	4,152
1020,7	1,952
1021,1	-3,905
1021,6	0,581
1022	-2,448
1022,4	1,495
1022,8	8,81
1023,2	8,752
1023,6	10,524
1024,1	17,038
1024,5	16,781
1024,9	14,095
1025,3	8,81
1025,7	5,867
1026,1	8,41
1026,6	7,895
1027	4,895
1027,4	7,524
1027,8	7,324
1028,2	5,81
1028,6	11,324
1029	7,381
1029,5	9,524
1029,9	4,781
1030,3	0,352
1030,7	4,581
1031,1	9,781
1031,5	-0,933
1032	0,124
1032,4	-2,905
1032,8	2,038
1033,2	0,552
1033,6	1,438
1034	-0,448
1034,4	0,467
1034,9	3,952
1035,3	-0,562
1035,7	-0,933
1036,1	-3,305
1036,5	-6,705
1036,9	-4,076
1037,4	2,295
1037,8	-6,448
1038,2	-2,876
1038,6	-3,505
1039	4,181
1039,4	9,895
1039,8	4,181
1040,3	5,238
1040,7	12,267
1041,1	11,238
1041,5	16,324
1041,9	10,581
1042,3	9,295
1042,7	12,438
1043,2	9,038
1043,6	4,81
1044	4,581
1044,4	1,838
1044,8	4,495
1045,2	-1,876
1045,6	1,324
1046,1	0,095
1046,5	-0,362
1046,9	0,067
1047,3	-5,448
1047,7	-6,619
1048,1	-4,076
1048,5	-5,019
1049	-1,305
1049,4	4,095
1049,8	4,952
1050,2	6,638
1050,6	10,181
1051	11,981
1051,4	10,41
1051,9	4,324
1052,3	8,838
1052,7	8,895
1053,1	7,581
1053,5	6,21
1053,9	7,01
1054,3	6,781
1054,8	15,781
1055,2	11,01
1055,6	15,61
1056	18,352
1056,4	18,152
1056,8	13,952
1057,2	12,781
1057,6	7,01
1058,1	3,124
1058,5	-3,19
1058,9	-3,59
1059,3	-2,333
1059,7	-3,419
1060,1	-2,419
1060,5	3,581
1061	7,01
1061,4	9,41
1061,8	11,981
1062,2	8,124
1062,6	11,152
1063	12,01
1063,4	7,01
1063,8	3,21
1064,3	-1,19
1064,7	-4,505
1065,1	-4,505
1065,5	-5,305
1065,9	-6,448
1066,3	-4,505
1066,7	-1,99
1067,1	5,067
1067,6	13,467
1068	13,895
1068,4	13,638
1068,8	14,952
1069,2	13,724
1069,6	12,581
1070	13,295
1070,4	6,467
1070,9	8,324
1071,3	9,61
1071,7	7,295
1072,1	6,952
1072,5	3,124
1072,9	-1,19
1073,3	-2,305
1073,7	-5,333
1074,2	-5,219
1074,6	-6,99
1075	-7,133
1075,4	-2,905
1075,8	-1,99
1076,2	2,981
1076,6	0,781
1077	-2,676
1077,5	2,838
1077,9	1,152
1078,3	2,095
1078,7	3,61
1079,1	0,21
1079,5	4,467
1079,9	8,038
1080,3	7,038
1080,7	9,181
1081,2	8,838
1081,6	2,324
1082	-0,962
1082,4	5,01
1082,8	3,152
1083,2	1,038
1083,6	2,895
1084	5,524
1084,5	9,61
1084,9	9,267
1085,3	-0,219
1085,7	2,21
1086,1	3,267
1086,5	4,524
1086,9	6,267
1087,3	7,41
1087,7	11,038
1088,2	15,924
1088,6	14,01
1089	15,952
1089,4	10,038
1089,8	5,067
1090,2	3,638
1090,6	4,067
1091	4,781
1091,4	8,095
1091,9	5,438
1092,3	11,695
1092,7	9,438
1093,1	13,124
1093,5	11,038
1093,9	9,438
1094,3	12,238
1094,7	11,41
1095,1	10,267
1095,5	12,381
1096	7,524
1096,4	6,124
1096,8	6,467
1097,2	-0,448
1097,6	2,41
1098	-0,162
1098,4	-0,619
1098,8	3,724
1099,2	12,81
1099,6	12,038
1100,1	9,581
1100,5	6,095
1100,9	4,981
1101,3	5,067
1101,7	1,695
1102,1	-4,819
1102,5	-4,248
1102,9	1,067
1103,3	7,01
1103,7	8,238
1104,2	8,124
1104,6	8,838
1105	6,667
1105,4	5,067
1105,8	2,981
1106,2	-1,648
1106,6	-2,648
1107	-3,162
1107,4	-4,2
1107,8	-2,013
1108,3	-1,333
