Data from Subt2_039.txt Node
Date: Sat Aug 26 16:24:04 MSK 2023
User: vat
Spectrometer: MAYP114033
Trigger mode: 0
Integration Time (sec): 1,000000E0
Scans to average: 5
Electric dark correction enabled: true
Nonlinearity correction enabled: false
Boxcar width: 3
XAxis mode: Wavelengths
Number of Pixels in Spectrum: 2068
>>>>>Begin Spectral Data<<<<<
199,4	-1,25
199,9	-0,5
200,4	-3,2
200,8	-3,129
201,3	-2,129
201,8	-3,1
202,2	-3,186
202,7	-2,157
203,2	-2,1
203,6	-0,414
204,1	-2,729
204,6	-0,3
205	3,1
205,5	3,186
206	4,786
206,4	7,386
206,9	5,9
207,4	14,1
207,8	6,871
208,3	5,214
208,8	4,157
209,2	1,786
209,7	-0,1
210,2	7,414
210,6	2,7
211,1	5,329
211,5	1,529
212	2,557
212,5	0,757
212,9	3,271
213,4	-1,871
213,9	-1,957
214,3	1,529
214,8	8,3
215,3	9,129
215,7	7,071
216,2	5,586
216,7	5,443
217,1	4,357
217,6	2,729
218,1	-0,871
218,5	2,1
219	10,786
219,5	10,529
219,9	11,957
220,4	11,729
220,9	16,214
221,3	17,014
221,8	11,929
222,3	7,843
222,7	4,9
223,2	4,3
223,6	7,443
224,1	5,271
224,6	4,9
225	6,357
225,5	10,586
226	14,3
226,4	17,557
226,9	12,5
227,4	11,757
227,8	14,157
228,3	16,671
228,8	10,843
229,2	11,671
229,7	6,557
230,2	9,843
230,6	8,186
231,1	7,557
231,5	9,557
232	17,214
232,5	17,043
232,9	19,3
233,4	20,729
233,9	20,814
234,3	20,3
234,8	16,529
235,3	9,814
235,7	10,757
236,2	13,386
236,7	12,271
237,1	10,214
237,6	8,957
238,1	8,214
238,5	11,986
239	9,329
239,4	9,871
239,9	6,1
240,4	11,643
240,8	14,014
241,3	12,557
241,8	9,243
242,2	6,786
242,7	-0,043
243,2	3,643
243,6	2,843
244,1	0,157
244,6	-3,986
245	-3,557
245,5	-2,643
245,9	-1,414
246,4	-1,614
246,9	-3,529
247,3	-4,414
247,8	2,071
248,3	4,9
248,7	8,871
249,2	6,129
249,7	6,043
250,1	6,129
250,6	8,757
251	9,5
251,5	4,757
252	4,014
252,4	8,243
252,9	8,186
253,4	6,614
253,8	4,014
254,3	5,3
254,8	9,214
255,2	5,243
255,7	8,129
256,1	8,186
256,6	11,443
257,1	14,014
257,5	14,843
258	10,729
258,5	11,9
258,9	10,357
259,4	13,1
259,9	10,471
260,3	8,757
260,8	8,643
261,2	14,643
261,7	15,271
262,2	11,214
262,6	5,129
263,1	5,271
263,6	8,757
264	5,271
264,5	4,5
264,9	6,1
265,4	9,214
265,9	12,414
266,3	11,071
266,8	5,957
267,3	5,586
267,7	3,786
268,2	0,129
268,7	-4,586
269,1	-6,3
269,6	-1,757
270	1,929
270,5	5,814
271	4,071
271,4	1,329
271,9	4,186
272,4	5,643
272,8	-0,214
273,3	-3,329
273,7	-8,186
274,2	-6,329
274,7	0,7
275,1	-2,271
275,6	0,843
276,1	4,871
276,5	9,786
277	8,843
277,4	8,9
277,9	3,843
278,4	10,357
278,8	11,271
279,3	7,586
279,8	5,014
280,2	5,129
280,7	0,871
281,1	6,214
281,6	7,357
282,1	6,1
282,5	9,757
283	6,643
283,4	5,529
283,9	5,414
284,4	-0,614
284,8	-5,5
285,3	-9,957
285,8	-14,129
286,2	-15,929
286,7	-17,071
287,1	-17,186
287,6	-11,014
288,1	-6,1
288,5	-2,186
289	3,214
289,5	4,157
289,9	7,329
290,4	7,471
290,8	9,7
291,3	5,443
291,8	5,1
292,2	3,043
292,7	4,643
293,1	4,529
293,6	9,871
294,1	2,871
294,5	6,7
295	1,757
295,5	6,157
295,9	12,3
296,4	16,157
296,8	9,671
297,3	11,529
297,8	8,957
298,2	11,529
298,7	3,529
299,1	1,186
299,6	-2,586
300,1	1,157
300,5	3,786
301	8,671
301,5	8,757
301,9	12,957
302,4	9,786
302,8	12,5
303,3	12,1
303,8	5,3
304,2	1,3
304,7	3,643
305,1	4,014
305,6	5,986
306,1	7,3
306,5	9,929
307	13,814
307,4	9,1
307,9	8,814
308,4	9,957
308,8	12,3
309,3	8,729
309,8	8,386
310,2	4,957
310,7	13,271
311,1	8,3
311,6	7,557
312,1	8,5
312,5	10,243
313	8,586
313,4	11,071
313,9	13,071
314,4	13,3
314,8	13,814
315,3	13,3
315,7	9,871
316,2	8,014
316,7	11,386
317,1	4,7
317,6	7,814
318	8,843
318,5	7,129
319	6,7
319,4	9,443
319,9	5,814
320,3	8,186
320,8	7,157
321,3	3,557
321,7	-0,671
322,2	2,443
322,6	-2,414
323,1	-0,586
323,6	-5,614
324	-1,614
324,5	-2,471
324,9	0,129
325,4	3,386
325,9	12,3
326,3	17,129
326,8	21,471
327,2	17,643
327,7	16,014
328,2	16,186
328,6	15,843
329,1	11,871
329,5	12,243
330	9,1
330,5	9,814
330,9	17,557
331,4	12,557
331,8	10,671
332,3	13,443
332,8	7,329
333,2	10,214
333,7	12,071
334,1	12,043
334,6	17,071
335,1	16,386
335,5	17,5
336	16,214
336,4	13,7
336,9	16,729
337,4	11,757
337,8	12,643
338,3	14,643
338,7	11,471
339,2	16,214
339,7	16,186
340,1	12,386
340,6	11,186
341	14,843
341,5	14,643
342	12,1
342,4	5,814
342,9	3,129
343,3	4,357
343,8	10,614
344,2	8,843
344,7	8,186
345,2	7,986
345,6	14,243
346,1	18,243
346,5	15,757
347	17,243
347,5	13,586
347,9	13,786
348,4	17,586
348,8	16,357
349,3	18,529
349,8	19,957
350,2	16,529
350,7	20,871
351,1	25,243
351,6	29,443
352	38,729
352,5	46,871
353	58,071
353,4	67,443
353,9	81,414
354,3	99,414
354,8	116,357
355,3	137,757
355,7	161,414
356,2	192,043
356,6	229,414
357,1	265,614
357,5	306,5
358	364,871
358,5	423,243
358,9	491,5
359,4	570,329
359,8	657,043
360,3	757,271
360,8	866,929
361,2	988,7
361,7	1124,071
362,1	1278,214
362,6	1444,386
363	1624,957
363,5	1816,843
364	2013,157
364,4	2218,671
364,9	2421,014
365,3	2618,3
365,8	2805,586
366,3	2981,386
366,7	3145,871
367,2	3289,7
367,6	3399,9
368,1	3487,9
368,5	3549,786
369	3578,529
369,5	3583,414
369,9	3548,329
370,4	3490,671
370,8	3412,957
371,3	3313,386
371,7	3187,186
372,2	3052,986
372,7	2896,129
373,1	2739,271
373,6	2581,271
374	2413,443
374,5	2252,471
374,9	2095,3
375,4	1940,729
375,9	1800,7
376,3	1662,729
376,8	1528,471
377,2	1411,329
377,7	1293,129
378,2	1188,157
378,6	1090,671
379,1	994,529
379,5	914,814
380	845,443
380,4	771,186
380,9	713,414
381,4	656,986
381,8	604,957
382,3	560,357
382,7	513,557
383,2	471,471
383,6	434,357
384,1	397,643
384,6	364,814
385	336,729
385,5	311,071
385,9	294,586
386,4	274,043
386,8	259,443
387,3	242,843
387,7	230,957
388,2	220,071
388,7	207,071
389,1	187,243
389,6	173,157
390	158,957
390,5	148,957
390,9	139,7
391,4	129,7
391,9	120,129
392,3	110,357
392,8	103,871
393,2	95,414
393,7	96,243
394,1	92,386
394,6	87,586
395,1	85,414
395,5	87,1
396	81,443
396,4	85,414
396,9	75,7
397,3	69,471
397,8	65,271
398,2	59,986
398,7	54,757
399,2	55,386
399,6	52,186
400,1	47,643
400,5	50,1
401	56,7
401,4	60,271
401,9	65,871
402,4	68,271
402,8	66,271
403,3	70,471
403,7	66,9
404,2	64,214
404,6	60,071
405,1	55,014
405,5	50,614
406	52,357
406,5	52,729
406,9	54,357
407,4	51,186
407,8	55,614
408,3	59,5
408,7	66,786
409,2	69,5
409,6	75,443
410,1	82,757
410,6	90,643
411	95,671
411,5	103,157
411,9	106,986
412,4	115,5
412,8	121,386
413,3	130,557
413,7	141,557
414,2	156,586
414,7	173,043
415,1	182,043
415,6	193,7
416	208,671
416,5	215,186
416,9	223,929
417,4	233,957
417,8	241,757
418,3	262,3
418,8	271,643
419,2	285,214
419,7	307,043
420,1	320,9
420,6	339,1
421	356,443
421,5	372,529
421,9	392,614
422,4	414,357
422,8	434,586
423,3	457,671
423,8	479,186
424,2	503,986
424,7	526,671
425,1	554,986
425,6	579,986
426	611,1
426,5	642,586
426,9	676,014
427,4	707,643
427,9	746,5
428,3	783,871
428,8	824,471
429,2	862,443
429,7	904,014
430,1	950,614
430,6	1003,243
431	1050,214
431,5	1102,557
431,9	1159,043
432,4	1218,929
432,8	1286,9
433,3	1345,557
433,8	1413,3
434,2	1485,443
434,7	1556,9
435,1	1632,014
435,6	1715,643
436	1794,529
436,5	1890,786
436,9	1977,871
437,4	2074,3
437,8	2170,529
438,3	2275,1
438,8	2378,5
439,2	2488,843
439,7	2598,243
440,1	2717,643
440,6	2843,3
441	2976,243
441,5	3105,386
441,9	3243,586
442,4	3388,929
442,8	3534,157
443,3	3683,3
443,7	3827,757
444,2	3988,014
444,7	4147,386
445,1	4308,557
445,6	4481,271
446	4662,586
446,5	4847,5
446,9	5039,071
447,4	5234,186
447,8	5427,814
448,3	5630,271
448,7	5827,071
449,2	6030,557
449,6	6239,186
450,1	6453,843
450,6	6669,729
451	6890,986
451,5	7125,957
451,9	7365,586
452,4	7604,186
452,8	7842,5
453,3	8089,271
453,7	8339,557
454,2	8596,643
454,6	8853,071
455,1	9109,414
455,5	9371,129
456	9636,014
456,4	9911,271
456,9	10186,7
457,3	10473,043
457,8	10754,3
458,3	11043,871
458,7	11333,614
459,2	11634,271
459,6	11935,814
460,1	12213,214
460,5	12502,186
461	12788,671
461,4	13083,786
461,9	13378,957
462,3	13679,1
462,8	13972,957
463,2	14285,643
463,7	14589,471
464,1	14897,214
464,6	15199,986
465	15491,9
465,5	15782,957
466	16068,129
466,4	16356,671
466,9	16644,814
467,3	16927,9
467,8	17204,9
468,2	17491,843
468,7	17777,529
469,1	18061,814
469,6	18348,329
470	18625,871
470,5	18895,386
470,9	19175,871
471,4	19449,443
471,8	19702,586
472,3	19962,357
472,7	20215,357
473,2	20457,271
473,6	20705,986
474,1	20933,329
474,5	21168,1
475	21403,9
475,4	21627,357
475,9	21859,129
476,4	22074,814
476,8	22281,157
477,3	22494,414
477,7	22694,529
478,2	22880,471
478,6	23063,557
479,1	23228,329
479,5	23407,243
480	23575,757
480,4	23713,786
480,9	23857,386
481,3	24009,729
481,8	24142,586
482,2	24264,1
482,7	24378,671
483,1	24489,386
483,6	24602,157
484	24696,7
484,5	24779,157
484,9	24857,071
485,4	24923,1
485,8	24978,929
486,3	25036,871
486,7	25097,014
487,2	25142,186
487,6	25178,814
488,1	25215,614
488,5	25240,243
489	25261,986
489,4	25270,1
489,9	25267,843
490,4	25257,157
490,8	25235,814
491,3	25202,471
491,7	25176,157
492,2	25149,986
492,6	25102,414
493,1	25049,214
493,5	24978,986
494	24923,329
494,4	24860,929
494,9	24793,271
495,3	24706,529
495,8	24624,7
496,2	24544,071
496,7	24467,414
497,1	24376,614
497,6	24287,014
498	24193,871
498,5	24103,043
498,9	23996,271
499,4	23896,529
499,8	23789,386
500,3	23664,214
500,7	23543,529
501,2	23417,1
501,6	23285,9
502,1	23160,071
502,5	23012,7
503	22878,643
503,4	22756,443
503,9	22617,3
504,3	22471,786
504,8	22322,3
505,2	22165,214
505,7	22017,357
506,1	21865,1
506,6	21689,957
507	21516,643
507,5	21352,414
507,9	21198,5
508,4	21042,929
508,8	20873,243
509,3	20714,186
509,7	20564,614
510,2	20404,186
510,6	20235,071
511,1	20061,386
511,5	19886,414
512	19711,5
512,4	19524,414
512,9	19332,471
513,3	19155,414
513,8	18976,643
514,2	18802,786
514,7	18622,757
515,1	18436,729
515,6	18259,671
516	18080,414
516,5	17898,3
516,9	17714,7
517,4	17521,529
517,8	17337,071
518,3	17160,414
518,7	16969,443
519,2	16791,814
519,6	16615,614
520,1	16440,129
520,5	16269,871
521	16083,757
521,4	15913,329
521,9	15750,814
522,3	15573,843
522,8	15404,843
523,2	15229,843
523,7	15058,957
524,1	14905,471
524,6	14732,443
525	14566,529
525,5	14410,786
525,9	14232,586
526,4	14074,157
526,8	13911,786
527,3	13759,814
527,7	13607,214
528,2	13448,529
528,6	13292,7
529,1	13158,529
529,5	13013,757
530	12864,157
530,4	12716,243
530,9	12573,614
531,3	12439,186
531,8	12305,614
532,2	12153,3
532,6	12015,957
533,1	11872,3
533,5	11731,043
534	11592,814
534,4	11454,7
534,9	11316,386
535,3	11201,871
535,8	11066,043
536,2	10948,729
536,7	10828,7
537,1	10705,1
537,6	10577,586
538	10458,443
538,5	10339,5
538,9	10223,957
539,4	10112,157
539,8	9987,757
540,3	9877,186
540,7	9767,9
541,2	9659,357
541,6	9542,1
542,1	9437,043
542,5	9320,871
543	9226,357
543,4	9129,157
543,9	9024,1
544,3	8921,614
544,8	8820,7
545,2	8720,443
545,7	8630,586
546,1	8540,643
546,5	8444,043
547	8357,414
547,4	8266,871
547,9	8183,214
548,3	8103,957
548,8	8013,843
549,2	7918,386
549,7	7833,3
550,1	7755,814
550,6	7676,386
551	7594,671
551,5	7513,443
551,9	7439,5
552,4	7359,443
552,8	7285,729
553,3	7211,157
553,7	7139,614
554,2	7068,5
554,6	6996,471
555,1	6932,129
555,5	6873,557
555,9	6811,157
556,4	6739,529
556,8	6675,443
557,3	6611,757
557,7	6553,586
558,2	6478,214
558,6	6417,014
559,1	6350,729
559,5	6290,5
560	6224,757
560,4	6159,929
560,9	6094,586
561,3	6041,757
561,8	5983,757
562,2	5921,871
562,7	5866,357
563,1	5819,471
563,6	5761,414
564	5705,071
564,4	5656,329
564,9	5602,243
565,3	5557,043
565,8	5508,3
566,2	5453,214
566,7	5403,157
567,1	5362,471
567,6	5314,586
568	5273,1
568,5	5229,214
568,9	5175,957
569,4	5130,271
569,8	5090,5
570,3	5045,957
570,7	4995,843
571,1	4945,586
571,6	4901,214
572	4869,786
572,5	4824,671
572,9	4790,014
573,4	4742,529
573,8	4707,586
574,3	4668,757
574,7	4626,871
575,2	4586,157
575,6	4548,186
576,1	4506,443
576,5	4468,014
576,9	4428,957
577,4	4391,157
577,8	4355,471
578,3	4310,157
578,7	4276,529
579,2	4242,871
579,6	4213,129
580,1	4183,357
580,5	4145,186
581	4110,014
581,4	4081,529
581,9	4043,414
582,3	4006,529
582,7	3971,557
583,2	3929,814
583,6	3895,243
584,1	3863,557
584,5	3832,386
585	3805,414
585,4	3773,386
585,9	3743,643
586,3	3713,9
586,8	3684,157
587,2	3655,671
587,6	3615,357
588,1	3589,9
588,5	3561,9
589	3531,329
589,4	3498,586
589,9	3478,471
590,3	3448,814
590,8	3431,129
591,2	3403,5
591,7	3381,843
592,1	3357,671
592,5	3338,557
593	3311,614
593,4	3289,557
593,9	3265,1
594,3	3235,871
594,8	3210,129
595,2	3184,443
595,7	3162,043
596,1	3146,357
596,6	3127,729
597	3109,957
597,4	3090,643
597,9	3066,9
598,3	3051,414
598,8	3030,386
599,2	3004,929
599,7	2979,271
600,1	2953,986
600,6	2936,071
601	2919,814
601,4	2901,671
601,9	2879,329
602,3	2866,157
602,8	2848,329
603,2	2836,157
603,7	2815,671
604,1	2797,186
604,6	2773,729
605	2760,7
605,4	2733,1
605,9	2710,7
606,3	2687,1
606,8	2663,129
607,2	2638,643
607,7	2615,7
608,1	2594,557
608,6	2578,243
609	2564,814
609,4	2550,9
609,9	2540,357
610,3	2521,071
610,8	2507,5
611,2	2490,043
611,7	2469,214
612,1	2450,186
612,6	2428,071
613	2412,386
613,4	2402,071
613,9	2388,014
614,3	2376,1
614,8	2353,9
615,2	2338,614
615,7	2324,814
616,1	2306,214
616,6	2286,071
617	2265,186
617,4	2245,329
617,9	2239,3
618,3	2226,614
618,8	2213,043
619,2	2198,357
619,7	2188,1
620,1	2172,043
620,5	2157,414
621	2140,357
621,4	2118,643
621,9	2102,471
622,3	2088,929
622,8	2072,614
623,2	2061,529
623,6	2037,786
624,1	2029,529
624,5	2018,1
625	1999,871
625,4	1985,871
625,9	1970,814
626,3	1955,357
626,8	1950,471
627,2	1933,814
627,6	1917,586
628,1	1902,586
628,5	1884,986
629	1873,814
629,4	1863,786
629,9	1848,7
630,3	1831,671
630,7	1822,757
631,2	1814,214
631,6	1803,243
632,1	1788,1
632,5	1775,957
633	1761,871
633,4	1750,7
633,8	1732,643
634,3	1719,614
634,7	1711,586
635,2	1695,729
635,6	1678,271
636,1	1673,814
636,5	1663,986
636,9	1655,243
637,4	1644,214
637,8	1625,186
638,3	1618,5
638,7	1610,871
639,2	1597,014
639,6	1580,757
640	1565,614
640,5	1551,071
640,9	1543,186
641,4	1530,329
641,8	1518,043
642,2	1509,329
642,7	1505,214
643,1	1502,129
643,6	1492,643
644	1484,271
644,5	1476,929
644,9	1467,414
645,3	1452,729
645,8	1439,929
646,2	1432,557
646,7	1424,471
647,1	1415,3
647,6	1400,1
648	1387,443
648,4	1379,643
648,9	1371,557
649,3	1360,157
649,8	1347,243
650,2	1334,529
650,6	1329,614
651,1	1329,786
651,5	1322,243
652	1316,243
652,4	1302,614
652,9	1300,557
653,3	1297,9
653,7	1288,157
654,2	1278,3
654,6	1264,7
655,1	1248,3
655,5	1241,786
655,9	1226,271
656,4	1214,871
656,8	1205,929
657,3	1188,386
657,7	1182,014
658,2	1177,186
658,6	1167,1
659	1162,557
659,5	1149,986
659,9	1147,414
660,4	1145,7
660,8	1142,043
661,2	1133,386
661,7	1126,643
662,1	1119,471
662,6	1112,586
663	1098,186
663,4	1086,9
663,9	1074,529
664,3	1067,386
664,8	1063,043
665,2	1058,271
665,6	1051,443
666,1	1046,814
666,5	1039,443
667	1031,529
667,4	1024,957
667,9	1014,043
668,3	1001,843
668,7	995,843
669,2	986,929
669,6	980,5
670,1	976,071
670,5	965,329
670,9	959,014
671,4	954,414
671,8	943,243
672,3	937,1
672,7	926,3
673,1	919,043
673,6	915,643
674	909,7
674,5	904,986
674,9	902,414
675,3	896,557
675,8	893,357
676,2	887,186
676,7	877,729
677,1	870,129
677,5	860,643
678	859,157
678,4	855,357
678,9	847,671
679,3	839,414
679,7	837,443
680,2	833,7
680,6	824,7
681,1	809,043
681,5	801,929
681,9	797,471
682,4	796,243
682,8	791,786
683,3	782,3
683,7	779,671
684,1	779,386
684,6	771,357
685	766,529
685,5	762,5
685,9	751,7
686,3	747,3
686,8	743,557
687,2	736,5
687,7	733,586
688,1	728,929
688,5	721,757
689	719,957
689,4	716,671
689,9	710,871
690,3	706,529
690,7	696,586
691,2	694,414
691,6	684,786
692	679,329
692,5	672,186
692,9	665,3
693,4	662,386
693,8	660,586
694,2	650,186
694,7	651,357
695,1	646,014
695,6	642,357
696	638,671
696,4	628,5
696,9	623,614
697,3	617,586
697,8	609,929
698,2	602,557
698,6	602,671
699,1	595,757
699,5	594,329
699,9	592,243
700,4	591,3
700,8	588,843
701,3	586,3
701,7	579,214
702,1	579,7
702,6	573,3
703	567,271
703,5	563,643
703,9	559,043
704,3	555,814
704,8	550,929
705,2	545,043
705,6	538,014
706,1	538,329
706,5	538,157
707	526,529
707,4	525,3
707,8	522,243
708,3	515,986
708,7	518,186
709,2	509,871
709,6	502,814
710	506,157
710,5	500,729
710,9	494,957
711,3	492,929
711,8	488,9
712,2	486,986
712,7	483,986
713,1	472,957
713,5	470,9
714	471,214
714,4	467,757
714,8	464,214
715,3	460,329
715,7	451,786
716,2	453,786
716,6	448,929
717	442,443
717,5	436,271
717,9	433,5
718,3	430,671
718,8	429,757
719,2	426,471
719,7	425,1
720,1	417,5
720,5	418,129
721	415,643
721,4	414,929
721,8	415,386
722,3	408,9
722,7	401,843
723,2	405,271
723,6	401,529
724	396,5
724,5	387,814
724,9	379,929
725,3	383,043
725,8	380,7
726,2	374,214
726,7	372,814
727,1	365,471
727,5	368,586
728	371,271
728,4	365,929
728,8	364,757
729,3	361,843
729,7	358,3
730,1	360,814
730,6	355,729
731	352,814
731,5	350,243
731,9	349,329
732,3	349,129
732,8	346,643
733,2	345,7
733,6	344,7
734,1	339,357
734,5	336,643
734,9	335,157
735,4	338,871
735,8	337,557
736,3	333,614
736,7	330,9
737,1	332,929
737,6	331,386
738	329,3
738,4	324,071
738,9	322,843
739,3	317,5
739,7	312,557
740,2	304,357
740,6	303,186
741,1	299,957
741,5	295,957
741,9	288,471
742,4	291,186
742,8	291,386
743,2	296,471
743,7	292,643
744,1	286,043
744,5	285,586
745	287,643
745,4	284,471
745,8	284,414
746,3	280,814
746,7	281,814
747,2	282,614
747,6	275,957
748	275,243
748,5	271,586
748,9	268,7
749,3	268,671
749,8	260,957
750,2	264,014
750,6	266,043
751,1	265,9
751,5	265,357
751,9	262,043
752,4	259,386
752,8	261,443
753,3	255,586
753,7	255,471
754,1	249,7
754,6	247,957
755	247,871
755,4	244,243
755,9	242,129
756,3	235,871
756,7	229,1
757,2	227,043
757,6	227,957
758	222,957
758,5	216,3
758,9	214,5
759,3	216,614
759,8	222,157
760,2	226,443
760,6	225,557
761,1	226,843
761,5	234,3
761,9	233,271
762,4	234,614
762,8	227,014
763,3	224,271
763,7	220,214
764,1	213,929
764,6	205,871
765	202,471
765,4	200,929
765,9	197,843
766,3	191,071
766,7	190,214
767,2	194,243
767,6	190,071
768	190,871
768,5	185,329
768,9	183,957
769,3	184,243
769,8	183,757
770,2	185,186
770,6	186,014
771,1	186,986
771,5	189,271
771,9	187,557
772,4	189,3
772,8	188,7
773,2	183,9
773,7	186,643
774,1	187,329
774,5	182,871
775	181,271
775,4	179,529
775,8	177,357
776,3	173,214
776,7	174,271
777,1	171,529
777,6	171,414
778	174,043
778,4	170,586
778,9	163,929
779,3	166,871
779,7	164,586
780,2	162,329
780,6	163,871
781	163,986
781,5	166,443
781,9	169,157
782,3	164,186
782,8	158,843
783,2	155,7
783,6	147,471
784,1	146,986
784,5	144,214
784,9	142,386
785,4	143,186
785,8	141,671
786,2	139,471
786,7	145,014
787,1	144,986
787,5	143,586
788	144,729
788,4	142,071
788,8	139,986
789,3	144,043
789,7	139,186
790,1	137,329
790,6	137,671
791	134,214
791,4	133,757
791,9	139,9
792,3	134,214
792,7	141,643
793,2	137,671
793,6	138,357
794	140,357
794,5	144,157
794,9	140,586
795,3	141,986
795,8	136,186
796,2	140,7
796,6	135,586
797,1	131,957
797,5	125,643
797,9	126,471
798,4	128,157
798,8	124,7
799,2	121,671
799,7	122,671
800,1	121,014
800,5	122,529
801	121,271
801,4	116,586
801,8	116,3
802,2	112,957
802,7	112,214
803,1	116,243
803,5	118,386
804	115,671
804,4	117,929
804,8	123,243
805,3	118,243
805,7	117,243
806,1	120,1
806,6	116,757
807	121,129
807,4	119,014
807,9	116,014
808,3	121,586
808,7	121,871
809,2	112,386
809,6	111,186
810	107,071
810,4	108,9
810,9	104,414
811,3	99,3
811,7	95,929
812,2	101,386
812,6	101,214
813	98,529
813,5	96,557
813,9	94,957
814,3	97,014
814,8	95,471
815,2	87,129
815,6	86,329
816,1	84,271
816,5	77,1
816,9	79,386
817,3	78,786
817,8	86,871
818,2	87,757
818,6	88,471
819,1	91,443
819,5	95,443
819,9	92,614
820,4	90,271
820,8	76,643
821,2	81,643
821,7	81,586
822,1	79,414
822,5	81,414
822,9	83,357
823,4	84,471
823,8	90,214
824,2	87,614
824,7	86,843
825,1	86,071
825,5	83,957
826	84,843
826,4	84,9
826,8	85,7
827,3	87,586
827,7	87,014
828,1	89,757
828,5	86,7
829	83,471
829,4	82,329
829,8	78,9
830,3	76,071
830,7	71,586
831,1	65,814
831,6	67,9
832	63,814
832,4	59,643
832,8	59,614
833,3	56,186
833,7	59,643
834,1	60,814
834,6	52,929
835	53,729
835,4	64,1
835,8	61,1
836,3	61,071
836,7	53,643
837,1	53,386
837,6	57,786
838	56,329
838,4	48,157
838,9	56,586
839,3	62,557
839,7	62,014
840,1	57,7
840,6	59,614
841	63,7
841,4	63,243
841,9	57,414
842,3	54,014
842,7	57,871
843,1	64,243
843,6	64,043
844	63,071
844,4	64,586
844,9	67,529
845,3	65,357
845,7	67,557
846,2	66,043
846,6	62,329
847	62,1
847,4	55,471
847,9	55,929
848,3	60,614
848,7	58,157
849,2	55,129
849,6	55,929
850	54,786
850,4	60,871
850,9	54,729
851,3	43,986
851,7	42,671
852,2	42,671
852,6	44,557
853	47,929
853,4	49,614
853,9	47,671
854,3	52,129
854,7	49,557
855,2	51,1
855,6	47,129
856	43,186
856,4	37,414
856,9	37,586
857,3	36,129
857,7	41,414
858,2	42,014
858,6	44,7
859	43,329
859,4	46,157
859,9	49,157
860,3	49,957
860,7	48,5
861,1	47,3
861,6	47,814
862	47,929
862,4	48,671
862,9	47,271
863,3	47,671
863,7	45,329
864,1	46,643
864,6	43,414
865	42,929
865,4	37,443
865,9	35,871
866,3	38,3
866,7	39,014
867,1	40,843
867,6	41,329
868	46,271
868,4	48,9
868,8	51,671
869,3	51,986
869,7	50,129
870,1	46,186
870,6	42,329
871	48,871
871,4	48,414
871,8	47,871
872,3	43,586
872,7	42,3
873,1	40,529
873,5	39,643
874	28,671
874,4	24,414
874,8	19,957
875,3	18,5
875,7	20,129
876,1	17,757
876,5	25,9
877	25,729
877,4	29,614
877,8	36,443
878,2	40,043
878,7	43,471
879,1	45,843
879,5	43,157
879,9	43,871
880,4	40,214
880,8	36,529
881,2	33,957
881,7	34,1
882,1	32,5
882,5	31,929
882,9	26,729
883,4	28,9
883,8	24,157
884,2	24,757
884,6	21,3
885,1	25,9
885,5	27,443
885,9	33,329
886,3	34,243
886,8	33,014
887,2	31,1
887,6	30,157
888	26,786
888,5	27,3
888,9	27,129
889,3	22,786
889,8	25,757
890,2	25,443
890,6	27,271
891	25,786
891,5	24,1
891,9	22,471
892,3	23,643
892,7	25,957
893,2	29,1
893,6	27,443
894	26,186
894,4	26,243
894,9	25,414
895,3	27,671
895,7	27,586
896,1	26,729
896,6	26,871
897	27,586
897,4	20,129
897,8	17,329
898,3	22,043
898,7	19,9
899,1	15,729
899,5	12,957
900	10,671
900,4	15,7
900,8	19,957
901,2	13,329
901,7	12,643
902,1	14,814
902,5	14,957
902,9	20,871
903,4	21,7
903,8	13,071
904,2	17,586
904,6	11,3
905,1	15,3
905,5	15,614
905,9	9,986
906,3	7,814
906,8	13,129
907,2	7,7
907,6	15,329
908	11,271
908,5	11,614
908,9	10,014
909,3	7,3
909,7	6,214
910,2	6,214
910,6	7,529
911	8,957
911,4	4,843
911,9	13,529
912,3	16,414
912,7	18,243
913,1	14,214
913,6	12,3
914	10,7
914,4	11,957
914,8	8,471
915,3	8,757
915,7	7,014
916,1	6,529
916,5	6,329
916,9	5,929
917,4	9,529
917,8	5,386
918,2	2,757
918,6	2,271
919,1	10,957
919,5	11,443
919,9	10,843
920,3	10,871
920,8	12,357
921,2	18,071
921,6	21,014
922	18,443
922,5	18,557
922,9	18,243
923,3	21,671
923,7	20,557
924,2	17,271
924,6	14,043
925	15,3
925,4	12,529
925,8	11,3
926,3	7,843
926,7	7,671
927,1	7,3
927,5	8,329
928	3,557
928,4	3,414
928,8	6,586
929,2	5,871
929,7	3,957
930,1	3,729
930,5	0,129
930,9	2,157
931,3	4,957
931,8	1,843
932,2	1,814
932,6	9,1
933	7,3
933,5	12,157
933,9	14,357
934,3	11,9
934,7	16,214
935,2	16,614
935,6	12,929
936	12,186
936,4	12,5
936,8	10,729
937,3	10,557
937,7	7,529
938,1	3,186
938,5	1,957
939	6,186
939,4	5,5
939,8	4,471
940,2	6,986
940,6	9,243
941,1	18,186
941,5	20,271
941,9	20,757
942,3	17,814
942,8	19,357
943,2	15,7
943,6	16,329
944	12,757
944,4	9,614
944,9	2,214
945,3	5,786
945,7	5,1
946,1	10,9
946,6	9,871
947	12,729
947,4	15,243
947,8	19,471
948,2	18,071
948,7	17,757
949,1	12,214
949,5	15,957
949,9	13,471
950,3	13,643
950,8	13,129
951,2	12,271
951,6	15,214
952	16,671
952,5	12,186
952,9	5,414
953,3	1,214
953,7	3,214
954,1	6,043
954,6	2,3
955	0,929
955,4	-0,986
955,8	5,5
956,2	5,129
956,7	3,529
957,1	-3,557
957,5	-3,443
957,9	-3,043
958,3	-1,643
958,8	-3,357
959,2	-0,071
959,6	-0,014
960	4,9
960,5	7,443
960,9	8,443
961,3	9,529
961,7	8,157
962,1	7,271
962,6	4,7
963	1,957
963,4	-0,186
963,8	1,471
964,2	-1,271
964,7	0,329
965,1	2,614
965,5	6,471
965,9	9,614
966,3	11,186
966,8	7,243
967,2	10,671
967,6	9,986
968	6,014
968,4	7,414
968,9	15,071
969,3	11,529
969,7	12,386
970,1	11,386
970,5	16,071
971	12,9
971,4	13,3
971,8	8,814
972,2	13,643
972,6	14,986
973,1	13,586
973,5	11,529
973,9	17,871
974,3	10,9
974,7	2,5
975,2	3,129
975,6	-1,414
976	3,929
976,4	1,529
976,8	0,043
977,3	3,671
977,7	7,271
978,1	-0,557
978,5	5,471
978,9	-2,557
979,4	-3,5
979,8	-1,329
980,2	-4,7
980,6	-3,957
981	1,586
981,5	-1,214
981,9	-0,614
982,3	-1,414
982,7	-3,557
983,1	0,557
983,6	4,071
984	2,957
984,4	7,729
984,8	8,757
985,2	8,014
985,6	8,243
986,1	7,9
986,5	1,243
986,9	2,443
987,3	-1,929
987,7	-0,614
988,2	2,814
988,6	1,786
989	6,671
989,4	11,9
989,8	10,214
990,3	11,471
990,7	10,671
991,1	5,957
991,5	7,129
991,9	6,386
992,3	1,271
992,8	5,386
993,2	5,929
993,6	7,586
994	10,986
994,4	12,1
994,9	8,3
995,3	10,671
995,7	7,271
996,1	6,386
996,5	5,186
996,9	4,471
997,4	3,786
997,8	2,986
998,2	6,243
998,6	4,329
999	3,529
999,5	2,614
999,9	0,814
1000,3	3,786
1000,7	4,3
1001,1	-1,386
1001,5	0,957
1002	-2,986
1002,4	-1,014
1002,8	3,557
1003,2	4,043
1003,6	10,843
1004	13,329
1004,5	12,614
1004,9	14,186
1005,3	12,243
1005,7	10,586
1006,1	4,957
1006,6	1,071
1007	-0,643
1007,4	-0,186
1007,8	1,1
1008,2	-0,014
1008,6	-2,671
1009,1	-5,814
1009,5	-3,871
1009,9	2,929
1010,3	1,757
1010,7	7,071
1011,1	10,929
1011,6	13,7
1012	18,5
1012,4	14,386
1012,8	6,1
1013,2	9,5
1013,6	3,757
1014,1	3,529
1014,5	3,357
1014,9	3,186
1015,3	1,757
1015,7	5,786
1016,1	4,214
1016,6	11,586
1017	9,9
1017,4	6,843
1017,8	5,186
1018,2	4,214
1018,6	5,9
1019,1	2,471
1019,5	-1,357
1019,9	1,757
1020,3	1,214
1020,7	0,186
1021,1	2,471
1021,6	-2,557
1022	-2,271
1022,4	-2,786
1022,8	-6,043
1023,2	-2,329
1023,6	-2,3
1024,1	-0,157
1024,5	2,186
1024,9	6,814
1025,3	7,386
1025,7	13,1
1026,1	11,9
1026,6	20,814
1027	12,9
1027,4	11,557
1027,8	6,557
1028,2	6,614
1028,6	4,271
1029	1,043
1029,5	-2,586
1029,9	1,9
1030,3	7,671
1030,7	9,843
1031,1	5,643
1031,5	-2,243
1032	4,186
1032,4	-1,5
1032,8	-3,614
1033,2	-6,729
1033,6	-5,586
1034	-3,929
1034,4	3,843
1034,9	-1,643
1035,3	5,214
1035,7	6,3
1036,1	3,186
1036,5	-0,929
1036,9	-1,986
1037,4	-5,9
1037,8	-2,386
1038,2	-8,7
1038,6	-7,786
1039	-4,929
1039,4	-2,014
1039,8	-3,443
1040,3	-2,129
1040,7	-7,1
1041,1	-6,586
1041,5	-10,357
1041,9	-12,757
1042,3	-11,757
1042,7	-8,671
1043,2	-9,186
1043,6	-2,014
1044	-0,9
1044,4	-2,7
1044,8	-2,557
1045,2	-3,1
1045,6	-3,9
1046,1	-1,843
1046,5	-4,443
1046,9	-3,871
1047,3	-0,871
1047,7	-0,929
1048,1	-1,3
1048,5	0,243
1049	1,814
1049,4	2,443
1049,8	3,586
1050,2	7,557
1050,6	9,1
1051	10,871
1051,4	13,814
1051,9	15,014
1052,3	13,643
1052,7	12,243
1053,1	10,5
1053,5	11,329
1053,9	11,557
1054,3	10,129
1054,8	11,671
1055,2	14,671
1055,6	16,529
1056	15,1
1056,4	13,471
1056,8	14,557
1057,2	13,1
1057,6	1,671
1058,1	0,614
1058,5	-4,129
1058,9	1,329
1059,3	5,243
1059,7	1,671
1060,1	1,557
1060,5	1,7
1061	-3,843
1061,4	3,843
1061,8	-4,557
1062,2	-4,814
1062,6	-10,214
1063	-10,471
1063,4	-5,014
1063,8	-4,129
1064,3	-8,243
1064,7	-7,357
1065,1	-8,557
1065,5	2,729
1065,9	-0,357
1066,3	-4,729
1066,7	-1,643
1067,1	0,471
1067,6	5,757
1068	-0,186
1068,4	-5,729
1068,8	-4,157
1069,2	-2,043
1069,6	-1,186
1070	1,529
1070,4	-0,643
1070,9	-0,471
1071,3	-0,357
1071,7	3,329
1072,1	7,814
1072,5	10,757
1072,9	7,871
1073,3	9,1
1073,7	10,586
1074,2	13,671
1074,6	8,357
1075	5,671
1075,4	4,586
1075,8	2,786
1076,2	-1,186
1076,6	2,5
1077	-2,357
1077,5	-0,786
1077,9	1,129
1078,3	-3,1
1078,7	-2,5
1079,1	1,614
1079,5	-0,786
1079,9	5,643
1080,3	5,357
1080,7	5,757
1081,2	8,7
1081,6	11,7
1082	8,614
1082,4	9,957
1082,8	2,586
1083,2	-0,643
1083,6	-5,5
1084	-8,557
1084,5	-12,814
1084,9	-9,643
1085,3	-10,671
1085,7	-10,614
1086,1	-11,186
1086,5	-9,3
1086,9	-7,357
1087,3	-4,786
1087,7	-0,729
1088,2	-2,786
1088,6	-3,357
1089	0,986
1089,4	1,5
1089,8	6,814
1090,2	2,7
1090,6	-3,986
1091	1,5
1091,4	5,157
1091,9	8,214
1092,3	8,1
1092,7	0,786
1093,1	1,757
1093,5	2,757
1093,9	2,671
1094,3	2,871
1094,7	0,3
1095,1	-0,414
1095,5	-1,014
1096	-5,786
1096,4	0,614
1096,8	-3,214
1097,2	-4,871
1097,6	-5,986
1098	-7,7
1098,4	-4,357
1098,8	1,9
1099,2	-3,586
1099,6	-2,357
1100,1	2,014
1100,5	8,186
1100,9	8,586
1101,3	7,1
1101,7	11,7
1102,1	13,214
1102,5	10,757
1102,9	4,5
1103,3	-0,957
1103,7	3,729
1104,2	4,957
1104,6	3,243
1105	2,414
1105,4	5,643
1105,8	8,986
1106,2	9,929
1106,6	6,529
1107	5,214
1107,4	1,567
1107,8	1,26
1108,3	0,55
