Data from Subt2_263.txt Node
Date: Sat Aug 26 19:02:03 MSK 2023
User: vat
Spectrometer: MAYP114033
Trigger mode: 0
Integration Time (sec): 1,000000E0
Scans to average: 5
Electric dark correction enabled: true
Nonlinearity correction enabled: false
Boxcar width: 3
XAxis mode: Wavelengths
Number of Pixels in Spectrum: 2068
>>>>>Begin Spectral Data<<<<<
199,4	-0,533
199,9	2,227
200,4	-1,433
200,8	0,81
201,3	-0,305
201,8	0,552
202,2	-1,562
202,7	3,038
203,2	-0,248
203,6	3,552
204,1	-1,705
204,6	0,524
205	1,467
205,5	2,581
206	-0,705
206,4	1,867
206,9	1,01
207,4	7,067
207,8	6,181
208,3	6,867
208,8	11,01
209,2	11,524
209,7	11,124
210,2	12,781
210,6	13,924
211,1	17,438
211,5	14,41
212	9,924
212,5	8,352
212,9	5,095
213,4	3,752
213,9	0,524
214,3	-1,362
214,8	1,238
215,3	2,867
215,7	5,981
216,2	11,495
216,7	9,924
217,1	8,81
217,6	10,067
218,1	5,352
218,5	5,724
219	-1,019
219,5	-3,705
219,9	-3,333
220,4	5,867
220,9	2,838
221,3	4,781
221,8	2,581
222,3	9,981
222,7	13,81
223,2	15,724
223,6	5,895
224,1	2,952
224,6	6,752
225	8,467
225,5	7,295
226	4,552
226,4	5,667
226,9	10,467
227,4	13,638
227,8	5,41
228,3	8,152
228,8	8,438
229,2	10,495
229,7	7,038
230,2	4,638
230,6	9,695
231,1	17,41
231,5	12,524
232	12,324
232,5	8,638
232,9	13,295
233,4	13,352
233,9	10,067
234,3	7,752
234,8	10,61
235,3	8,438
235,7	5,124
236,2	5,181
236,7	5,724
237,1	2,981
237,6	0,552
238,1	-0,705
238,5	-2,305
239	3,867
239,4	4,667
239,9	2,981
240,4	6,495
240,8	13,381
241,3	12,124
241,8	9,324
242,2	7,638
242,7	4,724
243,2	11,095
243,6	6,952
244,1	6,724
244,6	12,095
245	18,638
245,5	18,295
245,9	14,981
246,4	8,895
246,9	15,867
247,3	14,467
247,8	13,752
248,3	13,324
248,7	13,924
249,2	19,895
249,7	20,838
250,1	18,095
250,6	13,552
251	13,267
251,5	9,724
252	10,152
252,4	9,467
252,9	7,724
253,4	5,067
253,8	5,467
254,3	1,352
254,8	3,724
255,2	-1,219
255,7	-2,276
256,1	-0,39
256,6	-1,476
257,1	0,095
257,5	-2,276
258	-4,333
258,5	-3,448
258,9	-5,048
259,4	-6,048
259,9	-0,219
260,3	-2,219
260,8	4,01
261,2	5,124
261,7	11,467
262,2	8,41
262,6	6,495
263,1	5,41
263,6	8,724
264	6,467
264,5	11,295
264,9	8,181
265,4	11,21
265,9	12,638
266,3	10,524
266,8	14,124
267,3	15,181
267,7	9,295
268,2	9,924
268,7	9,21
269,1	9,038
269,6	10,267
270	7,952
270,5	6,552
271	9,981
271,4	9,324
271,9	8,638
272,4	11,895
272,8	13,667
273,3	11,638
273,7	13,181
274,2	10,01
274,7	7,838
275,1	8,952
275,6	11,581
276,1	3,952
276,5	6,952
277	7,81
277,4	10,324
277,9	9,324
278,4	9,867
278,8	8,41
279,3	13,952
279,8	11,952
280,2	12,924
280,7	16,638
281,1	16,752
281,6	20,752
282,1	14,981
282,5	12,295
283	10,752
283,4	10,181
283,9	6,638
284,4	11,095
284,8	8,238
285,3	6,352
285,8	9,495
286,2	11,152
286,7	8,038
287,1	4,838
287,6	7,267
288,1	7,81
288,5	14,581
289	9,381
289,5	10,895
289,9	10,895
290,4	13,667
290,8	13,095
291,3	12,267
291,8	12,981
292,2	15,467
292,7	14,895
293,1	14,21
293,6	15,838
294,1	11,638
294,5	9,095
295	6,352
295,5	6,152
295,9	5,667
296,4	0,924
296,8	-3,848
297,3	-1,019
297,8	-1,019
298,2	-5,019
298,7	-1,705
299,1	-0,99
299,6	1,067
300,1	7,01
300,5	5,524
301	7,552
301,5	12,638
301,9	10,895
302,4	6,41
302,8	11,038
303,3	6,352
303,8	3,638
304,2	1,181
304,7	0,61
305,1	-7,219
305,6	-4,276
306,1	2,438
306,5	6,095
307	8,381
307,4	12,467
307,9	12,095
308,4	15,152
308,8	10,552
309,3	3,895
309,8	2,381
310,2	5,095
310,7	0,038
311,1	-0,448
311,6	6,352
312,1	11,552
312,5	13,41
313	15,552
313,4	14,267
313,9	15,181
314,4	15,295
314,8	9,152
315,3	7,495
315,7	3,552
316,2	-2,933
316,7	-4,305
317,1	2,038
317,6	0,952
318	8,867
318,5	10,381
319	12,324
319,4	14,581
319,9	18,695
320,3	16,181
320,8	17,124
321,3	13,41
321,7	14,21
322,2	12,067
322,6	17,467
323,1	11,067
323,6	8,067
324	5,01
324,5	-0,19
324,9	0,21
325,4	0,295
325,9	-1,648
326,3	2,781
326,8	7,381
327,2	5,781
327,7	10,981
328,2	6,038
328,6	8,01
329,1	2,01
329,5	-0,419
330	-1,733
330,5	0,895
330,9	-0,505
331,4	3,467
331,8	3,238
332,3	8,095
332,8	9,724
333,2	5,581
333,7	7,981
334,1	7,438
334,6	5,181
335,1	0,181
335,5	0,61
336	-2,562
336,4	1,095
336,9	7,038
337,4	9,781
337,8	12,695
338,3	17,838
338,7	17,952
339,2	22,038
339,7	24,238
340,1	16,695
340,6	15,61
341	12,067
341,5	12,324
342	8,61
342,4	9,867
342,9	7,924
343,3	8,552
343,8	9,238
344,2	10,638
344,7	13,152
345,2	13,638
345,6	8,152
346,1	7,838
346,5	6,381
347	3,524
347,5	3,352
347,9	2,924
348,4	3,41
348,8	5,352
349,3	5,581
349,8	8,495
350,2	18,667
350,7	14,067
351,1	14,552
351,6	20,867
352	24,267
352,5	28,61
353	34,495
353,4	32,81
353,9	48,838
354,3	57,467
354,8	64,152
355,3	81,295
355,7	96,952
356,2	114,867
356,6	136,352
357,1	155,038
357,5	182,581
358	214,638
358,5	236,524
358,9	271,181
359,4	311,267
359,8	355,21
360,3	410,524
360,8	461,981
361,2	523,752
361,7	602,152
362,1	682,552
362,6	768,724
363	857,667
363,5	954,867
364	1061,552
364,4	1168,038
364,9	1269,981
365,3	1371,838
365,8	1466,467
366,3	1554,324
366,7	1634,095
367,2	1702,552
367,6	1758,61
368,1	1805,724
368,5	1828,038
369	1840,095
369,5	1846,295
369,9	1829,324
370,4	1803,181
370,8	1762,038
371,3	1702,067
371,7	1646,924
372,2	1572,124
372,7	1493,381
373,1	1415,324
373,6	1329,638
374	1246,61
374,5	1169,295
374,9	1088,267
375,4	1015,895
375,9	940,695
376,3	864,238
376,8	792,867
377,2	733,81
377,7	672,781
378,2	610,267
378,6	557,038
379,1	510,21
379,5	474,381
380	440,524
380,4	398,61
380,9	364,838
381,4	339,21
381,8	318,867
382,3	298,267
382,7	273,924
383,2	252,581
383,6	233,638
384,1	220,667
384,6	209,381
385	193,895
385,5	177,038
385,9	163,981
386,4	154,295
386,8	147,067
387,3	135,124
387,7	126,01
388,2	115,695
388,7	111,695
389,1	103,695
389,6	97,695
390	90,21
390,5	87,924
390,9	83,152
391,4	80,467
391,9	73,581
392,3	72,21
392,8	62,81
393,2	56,867
393,7	51,238
394,1	42,638
394,6	38,267
395,1	38,152
395,5	33,638
396	37,352
396,4	38,295
396,9	36,952
397,3	42,924
397,8	44,952
398,2	42,524
398,7	45,152
399,2	45,781
399,6	44,21
400,1	45,295
400,5	34,924
401	31,667
401,4	24,01
401,9	23,067
402,4	24,095
402,8	19,667
403,3	18,21
403,7	20,152
404,2	26,667
404,6	32,952
405,1	33,067
405,5	27,324
406	31,952
406,5	30,952
406,9	34,895
407,4	30,267
407,8	31,695
408,3	34,038
408,7	33,581
409,2	34,238
409,6	36,924
410,1	38,981
410,6	43,124
411	43,581
411,5	38,61
411,9	44,581
412,4	49,181
412,8	50,01
413,3	50,952
413,7	49,952
414,2	54,352
414,7	59,781
415,1	64,724
415,6	64,01
416	69,495
416,5	70,067
416,9	68,267
417,4	71,352
417,8	77,581
418,3	77,952
418,8	84,41
419,2	83,352
419,7	87,295
420,1	90,295
420,6	87,752
421	83,181
421,5	83,81
421,9	78,038
422,4	79,438
422,8	78,638
423,3	81,152
423,8	82,495
424,2	79,381
424,7	78,895
425,1	81,295
425,6	81,095
426	79,781
426,5	80,667
426,9	83,581
427,4	86,924
427,9	85,152
428,3	85,724
428,8	86,381
429,2	89,124
429,7	88,181
430,1	84,152
430,6	81,381
431	80,667
431,5	81,095
431,9	80,638
432,4	80,124
432,8	81,638
433,3	83,867
433,8	85,552
434,2	89,41
434,7	91,781
435,1	90,838
435,6	92,495
436	92,952
436,5	95,667
436,9	96,21
437,4	96,21
437,8	98,352
438,3	101,524
438,8	102,21
439,2	107,124
439,7	111,095
440,1	119,838
440,6	128,381
441	129,124
441,5	134,41
441,9	141,438
442,4	143,724
442,8	147,438
443,3	155,238
443,7	155,495
444,2	168,438
444,7	176,695
445,1	183,495
445,6	189,41
446	198,667
446,5	200,495
446,9	204,952
447,4	209,752
447,8	216,924
448,3	223,181
448,7	231,981
449,2	241,038
449,6	255,867
450,1	265,952
450,6	272,924
451	283,381
451,5	297,21
451,9	308,924
452,4	321,438
452,8	327,952
453,3	346,067
453,7	360,21
454,2	373,238
454,6	386,467
455,1	398,21
455,5	406,924
456	423,581
456,4	430,981
456,9	442,495
457,3	452,867
457,8	461,01
458,3	481,152
458,7	495,667
459,2	506,724
459,6	523,352
460,1	544,41
460,5	559,581
461	580,638
461,4	593,21
461,9	608,495
462,3	630,124
462,8	648,781
463,2	656,695
463,7	676,381
464,1	695,124
464,6	713,01
465	734,21
465,5	749,524
466	771,295
466,4	794,41
466,9	819,467
467,3	838,238
467,8	859,524
468,2	880,295
468,7	903,124
469,1	926,952
469,6	951,41
470	964,524
470,5	987,181
470,9	1007,095
471,4	1028,381
471,8	1049,981
472,3	1071,524
472,7	1090,181
473,2	1111,81
473,6	1131,724
474,1	1154,467
474,5	1173,638
475	1194,552
475,4	1210,124
475,9	1227,352
476,4	1247,752
476,8	1267,438
477,3	1284,181
477,7	1310,41
478,2	1329,095
478,6	1342,924
479,1	1360,838
479,5	1381,038
480	1399,152
480,4	1424,381
480,9	1440,381
481,3	1453,695
481,8	1475,552
482,2	1493,381
482,7	1509,152
483,1	1522,895
483,6	1528,924
484	1541,067
484,5	1563,438
484,9	1573,381
485,4	1593,124
485,8	1610,695
486,3	1630,495
486,7	1649,152
487,2	1663,667
487,6	1675,495
488,1	1691,724
488,5	1701,21
489	1711,981
489,4	1721,838
489,9	1735,352
490,4	1751,524
490,8	1762,181
491,3	1782,667
491,7	1798,552
492,2	1812,981
492,6	1819,01
493,1	1825,838
493,5	1830,238
494	1838,524
494,4	1844,267
494,9	1851,295
495,3	1860,724
495,8	1869,867
496,2	1882,467
496,7	1889,552
497,1	1897,01
497,6	1900,01
498	1911,295
498,5	1912,924
498,9	1918,752
499,4	1925,867
499,8	1935,152
500,3	1944,638
500,7	1951,324
501,2	1949,552
501,6	1957,238
502,1	1968,581
502,5	1969,495
503	1975,295
503,4	1978,781
503,9	1985,61
504,3	2003,295
504,8	2009,867
505,2	2012,838
505,7	2023,038
506,1	2032,581
506,6	2036,21
507	2041,181
507,5	2042,01
507,9	2043,152
508,4	2047,695
508,8	2050,181
509,3	2047,295
509,7	2057,124
510,2	2062,61
510,6	2059,895
511,1	2067,267
511,5	2072,724
512	2074,61
512,4	2083,695
512,9	2087,038
513,3	2094,152
513,8	2097,552
514,2	2106,267
514,7	2107,181
515,1	2110,324
515,6	2113,238
516	2112,638
516,5	2111,067
516,9	2121,867
517,4	2121,238
517,8	2131,981
518,3	2138,952
518,7	2147,01
519,2	2154,467
519,6	2164,01
520,1	2166,524
520,5	2171,467
521	2171,552
521,4	2178,952
521,9	2180,495
522,3	2189,924
522,8	2192,752
523,2	2200,181
523,7	2204,295
524,1	2210,381
524,6	2216,552
525	2222,552
525,5	2222,981
525,9	2232,61
526,4	2232,495
526,8	2244,095
527,3	2252,467
527,7	2260,124
528,2	2267,638
528,6	2268,695
529,1	2274,724
529,5	2287,181
530	2289,152
530,4	2295,552
530,9	2298,781
531,3	2305,752
531,8	2315,067
532,2	2320,695
532,6	2335,41
533,1	2344,467
533,5	2354,238
534	2357,638
534,4	2365,152
534,9	2375,667
535,3	2380,267
535,8	2376,495
536,2	2387,01
536,7	2393,21
537,1	2407,638
537,6	2414,981
538	2422,952
538,5	2432,781
538,9	2435,838
539,4	2446,038
539,8	2445,924
540,3	2455,038
540,7	2458,467
541,2	2463,181
541,6	2471,724
542,1	2485,324
542,5	2490,152
543	2506,438
543,4	2511,324
543,9	2523,61
544,3	2536,267
544,8	2538,467
545,2	2542,781
545,7	2551,667
546,1	2560,152
546,5	2567,124
547	2571,695
547,4	2579,752
547,9	2586,752
548,3	2596,81
548,8	2601,495
549,2	2604,667
549,7	2611,238
550,1	2623,295
550,6	2631,181
551	2640,352
551,5	2646,124
551,9	2652,124
552,4	2659,752
552,8	2665,952
553,3	2668,981
553,7	2665,867
554,2	2675,352
554,6	2681,752
555,1	2691,495
555,5	2698,552
555,9	2705,81
556,4	2709,381
556,8	2719,581
557,3	2723,152
557,7	2732,524
558,2	2733,667
558,6	2738,095
559,1	2740,838
559,5	2746,781
560	2751,438
560,4	2752,924
560,9	2758,352
561,3	2760,552
561,8	2766,752
562,2	2769,838
562,7	2771,067
563,1	2783,724
563,6	2787,038
564	2788,352
564,4	2788,667
564,9	2793,41
565,3	2799,524
565,8	2803,038
566,2	2799,295
566,7	2809,752
567,1	2814,238
567,6	2821,952
568	2816,781
568,5	2823,038
568,9	2823,467
569,4	2831,267
569,8	2828,981
570,3	2830,724
570,7	2829,581
571,1	2837,467
571,6	2836,524
572	2850,41
572,5	2848,495
572,9	2856,352
573,4	2854,095
573,8	2860,067
574,3	2858,867
574,7	2854,638
575,2	2841,552
575,6	2841,352
576,1	2841,295
576,5	2843,952
576,9	2842,695
577,4	2837,095
577,8	2840,267
578,3	2844,381
578,7	2840,667
579,2	2839,267
579,6	2833,267
580,1	2827,267
580,5	2827,152
581	2825,038
581,4	2821,124
581,9	2821,981
582,3	2816,495
582,7	2817,095
583,2	2810,724
583,6	2807,81
584,1	2807,952
584,5	2806,21
585	2799,238
585,4	2789,552
585,9	2781,324
586,3	2784,895
586,8	2782,952
587,2	2773,524
587,6	2771,867
588,1	2772,124
588,5	2772,724
589	2777,781
589,4	2768,295
589,9	2765,152
590,3	2762,381
590,8	2754,267
591,2	2748,981
591,7	2745,552
592,1	2740,438
592,5	2746,295
593	2737,867
593,4	2735,21
593,9	2730,895
594,3	2722,867
594,8	2713,638
595,2	2704,038
595,7	2698,238
596,1	2691,41
596,6	2684,695
597	2682,524
597,4	2687,21
597,9	2685,952
598,3	2683,41
598,8	2680,524
599,2	2677,324
599,7	2673,867
600,1	2662,838
600,6	2648,495
601	2643,038
601,4	2642,867
601,9	2638,581
602,3	2637,21
602,8	2629,267
603,2	2631,152
603,7	2624,638
604,1	2620,01
604,6	2609,238
605	2590,067
605,4	2584,295
605,9	2571,81
606,3	2555,381
606,8	2548,61
607,2	2540,038
607,7	2528,124
608,1	2527,295
608,6	2523,067
609	2525,838
609,4	2527,524
609,9	2521,61
610,3	2511,124
610,8	2499,238
611,2	2490,952
611,7	2477,467
612,1	2464,781
612,6	2457,438
613	2449,181
613,4	2442,352
613,9	2439,495
614,3	2426,152
614,8	2419,552
615,2	2408,067
615,7	2397,581
616,1	2380,781
616,6	2366,495
617	2356,267
617,4	2355,781
617,9	2346,095
618,3	2340,038
618,8	2333,067
619,2	2328,267
619,7	2324,581
620,1	2315,61
620,5	2304,238
621	2296,324
621,4	2289,381
621,9	2276,838
622,3	2266,467
622,8	2253,638
623,2	2245,095
623,6	2228,21
624,1	2220,524
624,5	2207,81
625	2198,695
625,4	2193,895
625,9	2185,524
626,3	2172,781
626,8	2165,752
627,2	2154,267
627,6	2142,895
628,1	2128,867
628,5	2115,61
629	2102,667
629,4	2092,524
629,9	2083,267
630,3	2064,695
630,7	2052,295
631,2	2042,438
631,6	2034,067
632,1	2027,61
632,5	2016,095
633	2004,238
633,4	1997,638
633,8	1991,067
634,3	1985,438
634,7	1972,667
635,2	1960,524
635,6	1952,038
636,1	1943,124
636,5	1933,038
636,9	1918,295
637,4	1903,381
637,8	1886,638
638,3	1873,924
638,7	1863,838
639,2	1849,41
639,6	1841,324
640	1829,467
640,5	1817,524
640,9	1814,438
641,4	1810,61
641,8	1800,61
642,2	1797,724
642,7	1791,667
643,1	1790,181
643,6	1786,495
644	1776,41
644,5	1769,21
644,9	1761,61
645,3	1753,61
645,8	1736,21
646,2	1727,295
646,7	1710,781
647,1	1701,81
647,6	1689,067
648	1684,381
648,4	1670,552
648,9	1667,467
649,3	1654,324
649,8	1652,381
650,2	1644,81
650,6	1639,695
651,1	1626,695
651,5	1624,61
652	1617,895
652,4	1608,438
652,9	1601,21
653,3	1592,638
653,7	1580,324
654,2	1572,124
654,6	1555,895
655,1	1548,467
655,5	1547,238
655,9	1534,095
656,4	1524,867
656,8	1515,324
657,3	1509,724
657,7	1505,924
658,2	1488,895
658,6	1474,438
659	1465,581
659,5	1455,181
659,9	1450,295
660,4	1442,295
660,8	1429,238
661,2	1424,81
661,7	1415,838
662,1	1410,124
662,6	1403,867
663	1394,352
663,4	1381,838
663,9	1373,438
664,3	1364,81
664,8	1353,181
665,2	1339,152
665,6	1331,781
666,1	1319,124
666,5	1311,81
667	1303,981
667,4	1294,781
667,9	1293,295
668,3	1285,524
668,7	1276,495
669,2	1273,21
669,6	1266,01
670,1	1258,981
670,5	1250,495
670,9	1240,952
671,4	1234,524
671,8	1225,038
672,3	1222,695
672,7	1215,581
673,1	1207,01
673,6	1197,781
674	1190,095
674,5	1181,152
674,9	1168,381
675,3	1149,381
675,8	1141,61
676,2	1134,438
676,7	1128,752
677,1	1121,81
677,5	1113,095
678	1110,695
678,4	1107,581
678,9	1095,552
679,3	1084,067
679,7	1079,495
680,2	1063,981
680,6	1059,581
681,1	1053,41
681,5	1050,667
681,9	1047,467
682,4	1045,067
682,8	1034,524
683,3	1034,438
683,7	1028,181
684,1	1021,038
684,6	1007,924
685	995,667
685,5	989,01
685,9	979,124
686,3	972,724
686,8	967,01
687,2	961,467
687,7	952,438
688,1	948,467
688,5	943,581
689	939,124
689,4	929,467
689,9	921,724
690,3	913,724
690,7	910,095
691,2	905,495
691,6	895,295
692	892,838
692,5	888,267
692,9	886,552
693,4	883,61
693,8	880,352
694,2	872,095
694,7	866,867
695,1	854,61
695,6	851,581
696	842,752
696,4	834,352
696,9	823,895
697,3	817,067
697,8	809,41
698,2	809,467
698,6	803,61
699,1	797,41
699,5	793,61
699,9	789,41
700,4	783,41
700,8	781,238
701,3	773,724
701,7	766,381
702,1	759,581
702,6	753,524
703	750,81
703,5	747,667
703,9	739,924
704,3	741,924
704,8	733,21
705,2	730,067
705,6	727,324
706,1	719,867
706,5	715,495
707	712,21
707,4	704,581
707,8	702,495
708,3	699,581
708,7	691,638
709,2	686,41
709,6	677,667
710	675,695
710,5	665,124
710,9	661,752
711,3	657,295
711,8	653,438
712,2	653,61
712,7	650,21
713,1	648,724
713,5	645,352
714	638,581
714,4	631,324
714,8	627,267
715,3	619,267
715,7	616,838
716,2	609,752
716,6	609,324
717	603,124
717,5	597,267
717,9	594,838
718,3	590,724
718,8	589,524
719,2	585,81
719,7	577,267
720,1	577,438
720,5	579,61
721	571,495
721,4	565,41
721,8	558,295
722,3	547,21
722,7	549,867
723,2	540,781
723,6	528,724
724	528,01
724,5	526,695
724,9	522,095
725,3	518,695
725,8	508,695
726,2	508,467
726,7	507,61
727,1	499,695
727,5	492,038
728	486,41
728,4	482,924
728,8	476,895
729,3	471,752
729,7	465,238
730,1	462,552
730,6	461,524
731	457,152
731,5	458,152
731,9	457,895
732,3	456,924
732,8	458,124
733,2	457,038
733,6	453,181
734,1	453,752
734,5	447,752
734,9	449,838
735,4	445,667
735,8	440,181
736,3	441,638
736,7	439,952
737,1	436,552
737,6	438,924
738	434,238
738,4	428,524
738,9	427,21
739,3	421,095
739,7	417,895
740,2	414,81
740,6	410,181
741,1	406,581
741,5	403,61
741,9	403,381
742,4	402,638
742,8	400,181
743,2	402,124
743,7	396,01
744,1	386,381
744,5	386,381
745	379,638
745,4	372,152
745,8	372,438
746,3	365,21
746,7	359,095
747,2	364,152
747,6	367,381
748	369,924
748,5	370,924
748,9	365,41
749,3	364,067
749,8	367,952
750,2	365,095
750,6	355,295
751,1	351,21
751,5	346,438
751,9	347,124
752,4	345,524
752,8	345,267
753,3	342,381
753,7	346,295
754,1	338,895
754,6	336,095
755	328,981
755,4	325,467
755,9	319,067
756,3	315,295
756,7	309,838
757,2	310,038
757,6	306,038
758	303,41
758,5	297,81
758,9	300,095
759,3	302,181
759,8	301,124
760,2	300,81
760,6	303,067
761,1	304,352
761,5	305,524
761,9	301,867
762,4	290,667
762,8	285,695
763,3	281,667
763,7	280,867
764,1	277,21
764,6	276,867
765	273,895
765,4	277,41
765,9	275,124
766,3	274,667
766,7	269,781
767,2	268,381
767,6	271,352
768	269,438
768,5	267,838
768,9	270,181
769,3	267,667
769,8	262,895
770,2	260,552
770,6	252,095
771,1	251,695
771,5	250,867
771,9	249,438
772,4	251,61
772,8	251,838
773,2	255,524
773,7	252,181
774,1	246,381
774,5	241,381
775	238,61
775,4	233,981
775,8	231,724
776,3	229,667
776,7	230,752
777,1	232,581
777,6	232,438
778	233,752
778,4	232,495
778,9	236,295
779,3	229,638
779,7	229,581
780,2	227,981
780,6	226,667
781	220,01
781,5	212,581
781,9	208,952
782,3	206,61
782,8	208,581
783,2	206,067
783,6	207,352
784,1	208,095
784,5	209,695
784,9	207,067
785,4	214,724
785,8	212,41
786,2	215,895
786,7	215,41
787,1	213,124
787,5	211,952
788	209,581
788,4	202,124
788,8	197,438
789,3	190,838
789,7	189,41
790,1	189,895
790,6	191,01
791	190,438
791,4	189,724
791,9	186,581
792,3	181,038
792,7	178,81
793,2	173,352
793,6	171,038
794	172,352
794,5	172,41
794,9	174,981
795,3	181,552
795,8	178,61
796,2	175,438
796,6	176,838
797,1	171,924
797,5	164,924
797,9	161,181
798,4	159,038
798,8	158,095
799,2	162,095
799,7	162,61
800,1	162,067
800,5	160,295
801	163,752
801,4	154,524
801,8	151,067
802,2	146,638
802,7	136,867
803,1	136,295
803,5	140,81
804	135,01
804,4	140,238
804,8	143,21
805,3	146,667
805,7	152,181
806,1	148,41
806,6	147,895
807	147,352
807,4	142,552
807,9	137,295
808,3	137,867
808,7	131,924
809,2	134,638
809,6	134,61
810	131,124
810,4	130,924
810,9	131,638
811,3	127,838
811,7	131,238
812,2	133,952
812,6	127,381
813	132,838
813,5	134,267
813,9	136,438
814,3	134,638
814,8	132,438
815,2	127,295
815,6	128,324
816,1	125,381
816,5	124,781
816,9	120,952
817,3	121,21
817,8	124,781
818,2	126,61
818,6	123,152
819,1	120,152
819,5	117,124
819,9	118,895
820,4	117,552
820,8	114,981
821,2	107,924
821,7	110,981
822,1	111,181
822,5	119,267
822,9	116,181
823,4	116,695
823,8	112,695
824,2	116,067
824,7	107,238
825,1	103,638
825,5	92,867
826	90,038
826,4	85,552
826,8	82,895
827,3	79,467
827,7	85,181
828,1	87,267
828,5	88,095
829	85,124
829,4	81,524
829,8	78,238
830,3	80,695
830,7	77,238
831,1	76,495
831,6	78,552
832	79,324
832,4	79,752
832,8	86,61
833,3	80,438
833,7	81,038
834,1	78,124
834,6	74,438
835	76,924
835,4	82,467
835,8	78,152
836,3	79,41
836,7	84,981
837,1	88,01
837,6	93,295
838	87,838
838,4	87,181
838,9	90,81
839,3	90,352
839,7	88,924
840,1	81,552
840,6	75,352
841	79,838
841,4	79,267
841,9	75,381
842,3	75,61
842,7	73,838
843,1	77,267
843,6	82,838
844	79,724
844,4	80,438
844,9	82,581
845,3	82,781
845,7	81,124
846,2	79,924
846,6	71,41
847	72,438
847,4	67,352
847,9	62,752
848,3	58,895
848,7	59,267
849,2	56,581
849,6	57,524
850	61,01
850,4	63,038
850,9	65,81
851,3	68,01
851,7	65,781
852,2	66,61
852,6	72,295
853	68,924
853,4	70,638
853,9	65,152
854,3	66,21
854,7	67,952
855,2	72,695
855,6	69,352
856	63,695
856,4	54,952
856,9	56,352
857,3	53,781
857,7	54,895
858,2	54,81
858,6	51,81
859	54,267
859,4	58,495
859,9	57,524
860,3	57,81
860,7	54,924
861,1	52,352
861,6	52,867
862	54,61
862,4	54,438
862,9	57,324
863,3	54,695
863,7	52,095
864,1	51,467
864,6	48,895
865	49,495
865,4	51,61
865,9	52,067
866,3	51,124
866,7	51,381
867,1	49,181
867,6	50,038
868	46,295
868,4	41,21
868,8	39,724
869,3	40,438
869,7	42,324
870,1	40,61
870,6	41,095
871	26,524
871,4	34,381
871,8	32,695
872,3	36,924
872,7	33,695
873,1	31,038
873,5	33,181
874	46,067
874,4	40,981
874,8	36,724
875,3	35,524
875,7	33,724
876,1	36,267
876,5	35,267
877	33,41
877,4	31,095
877,8	36,581
878,2	35,038
878,7	38,552
879,1	39,381
879,5	39,352
879,9	43,467
880,4	43,724
880,8	40,381
881,2	40,324
881,7	38,952
882,1	38,867
882,5	34,324
882,9	32,467
883,4	33,724
883,8	36,21
884,2	34,01
884,6	31,181
885,1	30,867
885,5	30,438
885,9	37,524
886,3	38,152
886,8	33,724
887,2	33,695
887,6	37,381
888	39,381
888,5	40,724
888,9	29,952
889,3	26,924
889,8	26,838
890,2	28,81
890,6	24,095
891	23,867
891,5	23,524
891,9	26,524
892,3	30,61
892,7	35,21
893,2	36,781
893,6	39,667
894	38,41
894,4	38,838
894,9	39,81
895,3	39,324
895,7	40,324
896,1	39,038
896,6	35,895
897	37,324
897,4	40,381
897,8	44,924
898,3	43,438
898,7	35,381
899,1	31,752
899,5	31,61
900	23,524
900,4	19,581
900,8	13,81
901,2	9,352
901,7	13,095
902,1	13,638
902,5	17,924
902,9	23,381
903,4	28,724
903,8	27,895
904,2	29,61
904,6	31,152
905,1	31,724
905,5	29,838
905,9	32,181
906,3	31,61
906,8	34,124
907,2	34,838
907,6	36,867
908	40,924
908,5	37,438
908,9	29,61
909,3	21,124
909,7	20,152
910,2	20,581
910,6	17,038
911	10,381
911,4	15,152
911,9	18,981
912,3	21,552
912,7	25,438
913,1	24,267
913,6	18,524
914	21,838
914,4	15,838
914,8	17,695
915,3	16,781
915,7	11,867
916,1	10,41
916,5	15,181
916,9	16,152
917,4	21,581
917,8	23,067
918,2	20,781
918,6	15,352
919,1	17,838
919,5	19,695
919,9	18,181
920,3	14,21
920,8	9,038
921,2	12,724
921,6	17,067
922	16,21
922,5	15,867
922,9	15,067
923,3	17,238
923,7	18,952
924,2	16,21
924,6	16,752
925	19,495
925,4	19,267
925,8	17,638
926,3	15,181
926,7	14,552
927,1	17,152
927,5	17,61
928	11,695
928,4	11,838
928,8	15,152
929,2	16,067
929,7	16,21
930,1	16,924
930,5	14,552
930,9	18,981
931,3	18,438
931,8	18,324
932,2	18,067
932,6	19,067
933	13,381
933,5	12,781
933,9	9,781
934,3	9,238
934,7	4,467
935,2	6,981
935,6	7,924
936	12,981
936,4	19,152
936,8	23,724
937,3	21,867
937,7	26,667
938,1	27,238
938,5	19,41
939	17,352
939,4	14,952
939,8	11,495
940,2	13,01
940,6	12,467
941,1	9,524
941,5	16,238
941,9	14,838
942,3	15,895
942,8	11,381
943,2	12,895
943,6	10,838
944	8,552
944,4	7,467
944,9	9,238
945,3	5,381
945,7	3,552
946,1	0,495
946,6	-1,962
947	-0,562
947,4	1,752
947,8	2,81
948,2	1,667
948,7	8,695
949,1	11,752
949,5	20,095
949,9	21,581
950,3	20,352
950,8	16,524
951,2	19,095
951,6	13,61
952	14,41
952,5	9,21
952,9	7,838
953,3	7,438
953,7	8,295
954,1	10,095
954,6	14,867
955	13,552
955,4	10,438
955,8	15,267
956,2	14,467
956,7	20,067
957,1	15,067
957,5	15,952
957,9	14,295
958,3	17,838
958,8	17,695
959,2	18,81
959,6	19,895
960	20,667
960,5	22,952
960,9	23,924
961,3	23,152
961,7	19,695
962,1	17,952
962,6	13,381
963	13,838
963,4	6,952
963,8	3,867
964,2	5,838
964,7	2,667
965,1	5,524
965,5	10,324
965,9	9,981
966,3	13,581
966,8	13,552
967,2	11,038
967,6	13,695
968	7,381
968,4	3,324
968,9	4,581
969,3	4,01
969,7	2,781
970,1	6,21
970,5	2,295
971	9,124
971,4	9,695
971,8	10,152
972,2	11,952
972,6	14,524
973,1	12,667
973,5	18,238
973,9	16,124
974,3	16,438
974,7	17,724
975,2	15,61
975,6	15,924
976	15,438
976,4	14,524
976,8	12,438
977,3	10,467
977,7	6,238
978,1	5,124
978,5	3,295
978,9	-2,505
979,4	-4,248
979,8	-2,419
980,2	-1,048
980,6	-2,762
981	-0,59
981,5	4,324
981,9	9,095
982,3	8,095
982,7	7,724
983,1	4,267
983,6	8,524
984	9,81
984,4	12,581
984,8	14,067
985,2	16,324
985,6	20,038
986,1	23,352
986,5	23,667
986,9	17,581
987,3	13,924
987,7	14,895
988,2	8,467
988,6	7,295
989	6,381
989,4	6,295
989,8	9,381
990,3	8,381
990,7	7,752
991,1	16,495
991,5	17,495
991,9	21,438
992,3	19,181
992,8	21,638
993,2	19,438
993,6	18,267
994	17,01
994,4	17,952
994,9	16,867
995,3	16,667
995,7	14,695
996,1	12,238
996,5	12,981
996,9	8,667
997,4	3,638
997,8	-3,962
998,2	-7,933
998,6	-13,476
999	-11,705
999,5	-11,362
999,9	-5,733
1000,3	-7,105
1000,7	-3,19
1001,1	1,41
1001,5	7,495
1002	13,895
1002,4	14,752
1002,8	9,724
1003,2	14,038
1003,6	15,181
1004	19,067
1004,5	13,638
1004,9	8,524
1005,3	2,895
1005,7	5,667
1006,1	3,067
1006,6	-0,505
1007	-3,562
1007,4	-2,19
1007,8	0,095
1008,2	-2,39
1008,6	-4,762
1009,1	-3,705
1009,5	-0,276
1009,9	0,524
1010,3	5,01
1010,7	4,695
1011,1	7,495
1011,6	9,952
1012	8,524
1012,4	10,524
1012,8	7,181
1013,2	8,41
1013,6	8,61
1014,1	13,067
1014,5	16,495
1014,9	17,752
1015,3	15,61
1015,7	19,124
1016,1	15,638
1016,6	13,781
1017	12,324
1017,4	8,924
1017,8	10,752
1018,2	13,41
1018,6	10,724
1019,1	10,124
1019,5	12,095
1019,9	10,867
1020,3	9,61
1020,7	9,438
1021,1	7,352
1021,6	9,181
1022	12,238
1022,4	12,067
1022,8	13,267
1023,2	14,495
1023,6	13,581
1024,1	18,981
1024,5	20,067
1024,9	17,324
1025,3	18,267
1025,7	21,41
1026,1	21,124
1026,6	20,781
1027	14,01
1027,4	16,352
1027,8	14,552
1028,2	9,01
1028,6	7,724
1029	7,524
1029,5	16,467
1029,9	15,638
1030,3	11,238
1030,7	13,438
1031,1	19,552
1031,5	15,038
1032	12,695
1032,4	1,638
1032,8	5,267
1033,2	5,638
1033,6	2,867
1034	2,238
1034,4	4,067
1034,9	7,267
1035,3	3,838
1035,7	4,495
1036,1	1,467
1036,5	3,295
1036,9	0,21
1037,4	1,895
1037,8	-2,219
1038,2	1,638
1038,6	-1,162
1039	8,524
1039,4	16,181
1039,8	15,581
1040,3	16,724
1040,7	18,581
1041,1	20,667
1041,5	20,924
1041,9	12,524
1042,3	4,467
1042,7	9,181
1043,2	4,01
1043,6	2,124
1044	1,124
1044,4	3,324
1044,8	5,524
1045,2	8,924
1045,6	6,152
1046,1	10,01
1046,5	10,724
1046,9	9,781
1047,3	9,438
1047,7	6,352
1048,1	2,695
1048,5	2,067
1049	3,981
1049,4	10,752
1049,8	11,41
1050,2	11,495
1050,6	20,352
1051	24,781
1051,4	20,295
1051,9	18,181
1052,3	22,01
1052,7	22,552
1053,1	18,838
1053,5	14,638
1053,9	13,267
1054,3	15,724
1054,8	21,61
1055,2	14,267
1055,6	15,41
1056	17,81
1056,4	20,067
1056,8	24,01
1057,2	25,552
1057,6	13,867
1058,1	12,467
1058,5	7,81
1058,9	10,952
1059,3	3,667
1059,7	-0,59
1060,1	0,438
1060,5	6,467
1061	9,81
1061,4	12,81
1061,8	12,095
1062,2	18,095
1062,6	18,867
1063	19,381
1063,4	17,638
1063,8	14,067
1064,3	10,867
1064,7	10,267
1065,1	9,838
1065,5	8,352
1065,9	7,495
1066,3	5,781
1066,7	-1,048
1067,1	-1,448
1067,6	-3,419
1068	-9,419
1068,4	-10,705
1068,8	-5,105
1069,2	-5,076
1069,6	3,038
1070	9,41
1070,4	7,581
1070,9	9,295
1071,3	5,81
1071,7	-2,99
1072,1	0,152
1072,5	-3,848
1072,9	-7,79
1073,3	-6,676
1073,7	-8,476
1074,2	-3,305
1074,6	-0,733
1075	-2,133
1075,4	-0,19
1075,8	3,095
1076,2	3,952
1076,6	8,81
1077	5,124
1077,5	9,067
1077,9	8,267
1078,3	9,838
1078,7	5,667
1079,1	3,41
1079,5	3,467
1079,9	7,667
1080,3	7,781
1080,7	9,067
1081,2	11,295
1081,6	13,638
1082	12,124
1082,4	16,467
1082,8	14,324
1083,2	10,524
1083,6	9,752
1084	10,495
1084,5	12,41
1084,9	15,21
1085,3	8,724
1085,7	11,01
1086,1	10,952
1086,5	14,552
1086,9	12,867
1087,3	13,095
1087,7	13,724
1088,2	14,981
1088,6	11,724
1089	13,867
1089,4	10,295
1089,8	8,067
1090,2	5,095
1090,6	3,295
1091	4,495
1091,4	9,81
1091,9	8,238
1092,3	10,552
1092,7	7,61
1093,1	8,41
1093,5	11,067
1093,9	10,752
1094,3	12,61
1094,7	9,838
1095,1	8,41
1095,5	13,981
1096	9,667
1096,4	9,124
1096,8	9,038
1097,2	1,838
1097,6	8,352
1098	9,238
1098,4	11,552
1098,8	15,095
1099,2	19,867
1099,6	20,495
1100,1	24,438
1100,5	18,724
1100,9	19,41
1101,3	15,01
1101,7	16,324
1102,1	10,895
1102,5	12,724
1102,9	14,038
1103,3	17,695
1103,7	16,867
1104,2	16,552
1104,6	15,867
1105	15,838
1105,4	13,467
1105,8	8,838
1106,2	5,752
1106,6	3,752
1107	3,724
1107,4	2,5
1107,8	2,107
1108,3	-0,033
