Data from Subt2_053.txt Node
Date: Sat Aug 26 16:29:29 MSK 2023
User: vat
Spectrometer: MAYP114033
Trigger mode: 0
Integration Time (sec): 1,000000E0
Scans to average: 5
Electric dark correction enabled: true
Nonlinearity correction enabled: false
Boxcar width: 3
XAxis mode: Wavelengths
Number of Pixels in Spectrum: 2068
>>>>>Begin Spectral Data<<<<<
199,4	-0,183
199,9	-2,613
200,4	-5,667
200,8	-5,762
201,3	-3,162
201,8	-0,905
202,2	-2,59
202,7	-1,162
203,2	-1,848
203,6	-0,219
204,1	1,324
204,6	4,495
205	3,01
205,5	3,524
206	4,01
206,4	6,581
206,9	8,267
207,4	12,238
207,8	2,552
208,3	0,324
208,8	2,352
209,2	2,781
209,7	3,981
210,2	8,295
210,6	2,952
211,1	5,038
211,5	6,838
212	1,352
212,5	-3,105
212,9	-3,533
213,4	-8,533
213,9	-7,19
214,3	-2,105
214,8	-0,048
215,3	3,067
215,7	1,867
216,2	3,81
216,7	3,095
217,1	1,781
217,6	0,638
218,1	-1,305
218,5	0,01
219	9,152
219,5	9,924
219,9	10,952
220,4	10,352
220,9	8,381
221,3	8,924
221,8	10,781
222,3	7,467
222,7	2,238
223,2	5,095
223,6	6,981
224,1	7,838
224,6	8,181
225	3,381
225,5	6,581
226	10,152
226,4	10,152
226,9	11,095
227,4	11,438
227,8	13,781
228,3	18,638
228,8	12,924
229,2	12,552
229,7	6,152
230,2	7,181
230,6	5,095
231,1	3,295
231,5	3,695
232	12,181
232,5	13,124
232,9	17,181
233,4	15,495
233,9	17,81
234,3	15,267
234,8	16,038
235,3	7,324
235,7	8,438
236,2	8,152
236,7	7,324
237,1	4,895
237,6	7,41
238,1	4,295
238,5	7,038
239	5,638
239,4	5,952
239,9	6,61
240,4	7,067
240,8	8,752
241,3	9,467
241,8	6,752
242,2	4,067
242,7	5,981
243,2	5,095
243,6	4,61
244,1	1,981
244,6	-3,448
245	-3,362
245,5	-2,99
245,9	-2,962
246,4	-5,819
246,9	-4,876
247,3	-5,762
247,8	-1,962
248,3	-0,162
248,7	5,267
249,2	3,781
249,7	7,181
250,1	6,238
250,6	4,895
251	6,752
251,5	1,467
252	-1,362
252,4	-3,39
252,9	-4,333
253,4	-0,79
253,8	0,124
254,3	-0,276
254,8	6,895
255,2	3,495
255,7	9,352
256,1	8,638
256,6	4,695
257,1	9,581
257,5	11,524
258	9,495
258,5	14,038
258,9	11,638
259,4	17,095
259,9	22,924
260,3	17,638
260,8	16,181
261,2	20,638
261,7	21,952
262,2	20,552
262,6	17,667
263,1	11,067
263,6	15,781
264	11,267
264,5	8,924
264,9	1,724
265,4	1,438
265,9	3,181
266,3	5,467
266,8	2,381
267,3	6,552
267,7	1,752
268,2	5,524
268,7	1,724
269,1	-2,276
269,6	-0,962
270	1,238
270,5	6,81
271	10,095
271,4	7,752
271,9	11,552
272,4	11,981
272,8	10,667
273,3	5,524
273,7	-0,505
274,2	-0,419
274,7	1,267
275,1	-0,762
275,6	3,038
276,1	6,238
276,5	9,552
277	9,438
277,4	7,552
277,9	7,352
278,4	12,21
278,8	13,352
279,3	8,038
279,8	12,638
280,2	8,895
280,7	7,01
281,1	10,324
281,6	8,352
282,1	4,752
282,5	10,838
283	5,41
283,4	10,038
283,9	10,324
284,4	6,895
284,8	5,038
285,3	4,838
285,8	1,295
286,2	0,581
286,7	-3,39
287,1	-1,933
287,6	-1,762
288,1	1,152
288,5	1,495
289	2,724
289,5	6,124
289,9	9,752
290,4	7,752
290,8	11,524
291,3	6,095
291,8	5,581
292,2	5,381
292,7	4,01
293,1	5,61
293,6	6,638
294,1	5,238
294,5	11,667
295	10,781
295,5	12,981
295,9	13,581
296,4	14,838
296,8	16,152
297,3	14,067
297,8	11,124
298,2	12,095
298,7	6,495
299,1	5,124
299,6	0,467
300,1	4,381
300,5	5,952
301	8,21
301,5	10,41
301,9	14,838
302,4	12,838
302,8	15,724
303,3	13,238
303,8	11,581
304,2	8,61
304,7	5,038
305,1	0,952
305,6	1,924
306,1	1,01
306,5	-0,733
307	0,838
307,4	0,581
307,9	1,267
308,4	6,381
308,8	13,981
309,3	13,81
309,8	17,181
310,2	12,695
310,7	19,095
311,1	15,324
311,6	11,152
312,1	8,238
312,5	8,667
313	5,981
313,4	9,61
313,9	9,61
314,4	11,238
314,8	14,438
315,3	13,781
315,7	14,067
316,2	14,667
316,7	14,41
317,1	10,124
317,6	14,981
318	16,41
318,5	15,667
319	14,638
319,4	12,01
319,9	10,752
320,3	9,438
320,8	7,038
321,3	3,152
321,7	0,724
322,2	2,81
322,6	3,038
323,1	2,095
323,6	1,238
324	2,752
324,5	2,695
324,9	3,41
325,4	2,638
325,9	9,352
326,3	11,495
326,8	15,638
327,2	15,324
327,7	13,267
328,2	12,867
328,6	14,81
329,1	10,781
329,5	11,095
330	9,21
330,5	8,01
330,9	10,038
331,4	4,438
331,8	9,067
332,3	11,124
332,8	12,181
333,2	11,124
333,7	10,895
334,1	13,295
334,6	19,467
335,1	11,638
335,5	7,124
336	1,924
336,4	0,495
336,9	3,152
337,4	2,267
337,8	1,952
338,3	4,21
338,7	4,867
339,2	12,752
339,7	15,838
340,1	15,667
340,6	15,524
341	20,01
341,5	20,352
342	20,295
342,4	13,61
342,9	6,181
343,3	4,695
343,8	7,124
344,2	6,324
344,7	3,781
345,2	2,495
345,6	7,438
346,1	14,695
346,5	13,267
347	14,752
347,5	10,124
347,9	10,152
348,4	14,381
348,8	10,01
349,3	10,095
349,8	17,41
350,2	15,467
350,7	17,781
351,1	18,867
351,6	22,038
352	34,295
352,5	38,038
353	42,467
353,4	53,467
353,9	65,267
354,3	82,095
354,8	91,438
355,3	100,552
355,7	122,21
356,2	143,952
356,6	166,295
357,1	195,324
357,5	228,095
358	271,81
358,5	322,867
358,9	374,495
359,4	436,895
359,8	505,981
360,3	581,467
360,8	668,952
361,2	767,924
361,7	869,181
362,1	986,324
362,6	1108,238
363	1242,467
363,5	1391,467
364	1535,838
364,4	1684,81
364,9	1837,267
365,3	1985,038
365,8	2124,495
366,3	2262,238
366,7	2381,924
367,2	2487,838
367,6	2573,381
368,1	2636,495
368,5	2673,324
369	2698,181
369,5	2695,01
369,9	2669,495
370,4	2627,467
370,8	2566,552
371,3	2489,21
371,7	2402,067
372,2	2300,895
372,7	2185,01
373,1	2072,21
373,6	1952,61
374	1828,41
374,5	1711,124
374,9	1594,467
375,4	1478,495
375,9	1374,752
376,3	1264,381
376,8	1165,924
377,2	1076,924
377,7	988,724
378,2	908,581
378,6	836,724
379,1	765,467
379,5	706,095
380	648,238
380,4	591,667
380,9	548,638
381,4	507,581
381,8	468,638
382,3	430,924
382,7	392,981
383,2	364,067
383,6	338,895
384,1	318,981
384,6	293,038
385	270,667
385,5	254,095
385,9	242,267
386,4	224,438
386,8	217,752
387,3	200,267
387,7	189,495
388,2	178,038
388,7	165,495
389,1	152,838
389,6	141,667
390	127,924
390,5	118,181
390,9	115,152
391,4	114,01
391,9	106,81
392,3	99,924
392,8	101,152
393,2	96,21
393,7	88,181
394,1	84,41
394,6	73,61
395,1	73,895
395,5	72,467
396	67,352
396,4	67,952
396,9	74,495
397,3	67,324
397,8	68,181
398,2	62,781
398,7	57,438
399,2	56,181
399,6	54,238
400,1	40,01
400,5	41,952
401	39,01
401,4	39,21
401,9	42,781
402,4	39,438
402,8	35,867
403,3	40,01
403,7	36,524
404,2	38,438
404,6	36,867
405,1	34,381
405,5	34,181
406	31,895
406,5	33,181
406,9	34,01
407,4	30,467
407,8	30,324
408,3	34,238
408,7	38,695
409,2	41,61
409,6	44,267
410,1	51,095
410,6	55,267
411	61,295
411,5	61,038
411,9	58,324
412,4	64,181
412,8	62,752
413,3	64,381
413,7	67,61
414,2	69,324
414,7	73,267
415,1	75,924
415,6	79,552
416	86,01
416,5	84,924
416,9	86,181
417,4	89,21
417,8	87,981
418,3	96,152
418,8	94,41
419,2	95,695
419,7	100,41
420,1	100,838
420,6	99,581
421	102,81
421,5	100,124
421,9	100,467
422,4	99,667
422,8	100,038
423,3	99,524
423,8	103,952
424,2	106,581
424,7	106,295
425,1	106,181
425,6	108,981
426	107,095
426,5	109,267
426,9	104,095
427,4	104,61
427,9	103,124
428,3	104,867
428,8	103,295
429,2	100,981
429,7	98,238
430,1	103,638
430,6	101,838
431	106,581
431,5	104,067
431,9	101,924
432,4	106,867
432,8	110,724
433,3	109,81
433,8	114,381
434,2	114,781
434,7	115,41
435,1	122,41
435,6	127,638
436	132,295
436,5	141,038
436,9	146,467
437,4	154,067
437,8	163,038
438,3	170,267
438,8	169,867
439,2	173,381
439,7	173,295
440,1	176,952
440,6	185,781
441	194,524
441,5	200,295
441,9	210,067
442,4	222,895
442,8	232,838
443,3	241,981
443,7	240,41
444,2	249,267
444,7	258,067
445,1	268,41
445,6	278,41
446	288,181
446,5	300,238
446,9	320,41
447,4	333,61
447,8	346,752
448,3	361,495
448,7	371,295
449,2	386,981
449,6	398,61
450,1	416,352
450,6	434,924
451	448,01
451,5	463,41
451,9	484,838
452,4	504,238
452,8	523,61
453,3	537,381
453,7	548,61
454,2	567,81
454,6	589,724
455,1	603,152
455,5	623,638
456	646,581
456,4	667,152
456,9	691,467
457,3	717,895
457,8	740,924
458,3	775,295
458,7	804,838
459,2	829,81
459,6	856,124
460,1	882,152
460,5	914,01
461	935,324
461,4	960,038
461,9	980,181
462,3	1008,981
462,8	1041,21
463,2	1073,752
463,7	1098,352
464,1	1129,467
464,6	1157,667
465	1194,524
465,5	1226,895
466	1256,524
466,4	1285,781
466,9	1314,067
467,3	1350,638
467,8	1391,238
468,2	1415,238
468,7	1446,467
469,1	1480,81
469,6	1515,752
470	1553,81
470,5	1588,41
470,9	1616,152
471,4	1656,695
471,8	1692,295
472,3	1719,181
472,7	1755,752
473,2	1786,895
473,6	1821,81
474,1	1849,095
474,5	1883,895
475	1914,867
475,4	1957,124
475,9	1992,181
476,4	2029,81
476,8	2060,61
477,3	2098,838
477,7	2136,524
478,2	2169,095
478,6	2193,838
479,1	2222,124
479,5	2260,295
480	2295,895
480,4	2326,781
480,9	2350,667
481,3	2374,381
481,8	2410,41
482,2	2435,267
482,7	2450,21
483,1	2478,124
483,6	2501,581
484	2529,495
484,5	2565,752
484,9	2587,381
485,4	2613,038
485,8	2638,981
486,3	2659,152
486,7	2687,267
487,2	2703,81
487,6	2715,067
488,1	2737,81
488,5	2755,524
489	2769,895
489,4	2783,981
489,9	2801,981
490,4	2824,152
490,8	2846,038
491,3	2858,181
491,7	2871,21
492,2	2893,695
492,6	2909,295
493,1	2914,181
493,5	2921,095
494	2932,667
494,4	2943,981
494,9	2960,095
495,3	2971,467
495,8	2978,295
496,2	2990,895
496,7	2993,152
497,1	2999,181
497,6	3007,352
498	3011,781
498,5	3019,038
498,9	3028,781
499,4	3033,067
499,8	3043,467
500,3	3046,61
500,7	3049,61
501,2	3058,21
501,6	3056,295
502,1	3059,781
502,5	3063,438
503	3068,438
503,4	3072,267
503,9	3079,524
504,3	3075,438
504,8	3083,038
505,2	3081,267
505,7	3085,781
506,1	3086,638
506,6	3090,495
507	3083,781
507,5	3087,095
507,9	3081,981
508,4	3090,41
508,8	3084,124
509,3	3086,038
509,7	3083,095
510,2	3090,238
510,6	3091,467
511,1	3095,238
511,5	3088,181
512	3095,095
512,4	3090,438
512,9	3085,781
513,3	3088,095
513,8	3085,324
514,2	3091,267
514,7	3092,41
515,1	3085,438
515,6	3086,724
516	3088,695
516,5	3079,638
516,9	3072,467
517,4	3059,295
517,8	3060,095
518,3	3060,181
518,7	3060,181
519,2	3063,952
519,6	3063,781
520,1	3069,838
520,5	3072,638
521	3068,895
521,4	3067,267
521,9	3069,267
522,3	3066,638
522,8	3069,838
523,2	3063,038
523,7	3059,067
524,1	3055,01
524,6	3055,667
525	3051,467
525,5	3053,124
525,9	3043,838
526,4	3045,61
526,8	3044,095
527,3	3043,724
527,7	3041,867
528,2	3041,781
528,6	3043,095
529,1	3043,295
529,5	3044,124
530	3043,924
530,4	3049,095
530,9	3053,638
531,3	3049,952
531,8	3046,381
532,2	3048,838
532,6	3052,41
533,1	3058,124
533,5	3056,152
534	3057,295
534,4	3063,41
534,9	3068,781
535,3	3082,581
535,8	3082,895
536,2	3085,352
536,7	3090,124
537,1	3089,924
537,6	3089,524
538	3089,81
538,5	3083,81
538,9	3087,81
539,4	3088,952
539,8	3088,381
540,3	3093,21
540,7	3091,952
541,2	3094,581
541,6	3096,095
542,1	3100,295
542,5	3101,124
543	3103,324
543,4	3109,924
543,9	3116,724
544,3	3116,324
544,8	3124,724
545,2	3126,21
545,7	3135,324
546,1	3142,238
546,5	3141,238
547	3148,038
547,4	3150,667
547,9	3151,067
548,3	3156,638
548,8	3154,467
549,2	3151,467
549,7	3151,01
550,1	3159,895
550,6	3165,638
551	3172,667
551,5	3171,638
551,9	3176,667
552,4	3182,038
552,8	3185,41
553,3	3182,438
553,7	3186,381
554,2	3183,01
554,6	3186,267
555,1	3193,124
555,5	3200,638
555,9	3211,838
556,4	3217,238
556,8	3216,438
557,3	3219,638
557,7	3222,81
558,2	3219,067
558,6	3225,524
559,1	3220,752
559,5	3219,924
560	3226,324
560,4	3237,524
560,9	3244,067
561,3	3255,267
561,8	3255,324
562,2	3259,981
562,7	3270,552
563,1	3272,067
563,6	3269,952
564	3276,581
564,4	3275,838
564,9	3271,038
565,3	3277,238
565,8	3272,61
566,2	3273,61
566,7	3274,295
567,1	3269,495
567,6	3267,552
568	3276,324
568,5	3274,095
568,9	3271,552
569,4	3274,981
569,8	3274,524
570,3	3277,438
570,7	3274,21
571,1	3274,438
571,6	3278,524
572	3284,552
572,5	3283,667
572,9	3284,638
573,4	3277,81
573,8	3282,781
574,3	3278,095
574,7	3273,438
575,2	3269,067
575,6	3270,238
576,1	3262,124
576,5	3262,295
576,9	3261,181
577,4	3259,467
577,8	3256,81
578,3	3250,838
578,7	3248,067
579,2	3254,867
579,6	3254,21
580,1	3251,667
580,5	3247,21
581	3247,838
581,4	3246,838
581,9	3240,038
582,3	3235,695
582,7	3234,724
583,2	3228,924
583,6	3223,667
584,1	3213,61
584,5	3217,124
585	3214,124
585,4	3203,438
585,9	3196,467
586,3	3191,238
586,8	3185,067
587,2	3186,01
587,6	3176,638
588,1	3167,467
588,5	3164,381
589	3157,61
589,4	3151,067
589,9	3151,61
590,3	3142,295
590,8	3137,61
591,2	3134,61
591,7	3135,295
592,1	3133,238
592,5	3129,324
593	3120,095
593,4	3117,067
593,9	3102,752
594,3	3103,238
594,8	3096,61
595,2	3092,552
595,7	3091,21
596,1	3091,981
596,6	3088,61
597	3091,981
597,4	3084,524
597,9	3074,038
598,3	3071,867
598,8	3058,552
599,2	3051,038
599,7	3043,724
600,1	3032,61
600,6	3026,067
601	3022,638
601,4	3009,095
601,9	3009,467
602,3	3001,638
602,8	2993,581
603,2	2998,695
603,7	2989,695
604,1	2985,952
604,6	2983,495
605	2976,238
605,4	2971,838
605,9	2962,724
606,3	2948,552
606,8	2941,924
607,2	2930,01
607,7	2917,638
608,1	2908,238
608,6	2902,924
609	2899,152
609,4	2892,038
609,9	2881,067
610,3	2874,41
610,8	2871,524
611,2	2863,867
611,7	2850,124
612,1	2836,21
612,6	2828,01
613	2824,724
613,4	2810,752
613,9	2801,61
614,3	2790,524
614,8	2777,324
615,2	2774,01
615,7	2765,238
616,1	2754,924
616,6	2750,638
617	2740,124
617,4	2732,124
617,9	2725,324
618,3	2715,495
618,8	2703,295
619,2	2691,781
619,7	2676,81
620,1	2665,238
620,5	2654,838
621	2641,381
621,4	2630,21
621,9	2614,552
622,3	2607,238
622,8	2601,038
623,2	2587,067
623,6	2571,352
624,1	2567,895
624,5	2560,495
625	2549,181
625,4	2537,21
625,9	2527,267
626,3	2516,324
626,8	2513,438
627,2	2498,495
627,6	2480,21
628,1	2470,781
628,5	2455,267
629	2450,181
629,4	2438,181
629,9	2418,838
630,3	2412,41
630,7	2407,124
631,2	2400,724
631,6	2392,095
632,1	2373,21
632,5	2366,381
633	2355,581
633,4	2336,724
633,8	2319,867
634,3	2305,152
634,7	2294,01
635,2	2280,038
635,6	2266,838
636,1	2263,781
636,5	2259,581
636,9	2251,552
637,4	2245,667
637,8	2234,41
638,3	2225,01
638,7	2214,638
639,2	2200,552
639,6	2182,924
640	2168,352
640,5	2153,695
640,9	2144,524
641,4	2133,724
641,8	2123,267
642,2	2115,867
642,7	2107,295
643,1	2103,724
643,6	2095,752
644	2083,924
644,5	2076,124
644,9	2065,467
645,3	2055,752
645,8	2047,295
646,2	2036,21
646,7	2025,152
647,1	2014,895
647,6	2003,21
648	1993,924
648,4	1981,81
648,9	1978,724
649,3	1966,981
649,8	1960,895
650,2	1952,781
650,6	1943,352
651,1	1939,838
651,5	1931,867
652	1920,695
652,4	1910,324
652,9	1901,81
653,3	1889,067
653,7	1882,352
654,2	1869,324
654,6	1858,21
655,1	1842,238
655,5	1832,352
655,9	1821,295
656,4	1819,581
656,8	1808,352
657,3	1795,324
657,7	1783,524
658,2	1777,81
658,6	1768,952
659	1757,21
659,5	1744,438
659,9	1735,781
660,4	1726,752
660,8	1719,552
661,2	1709,21
661,7	1697,524
662,1	1687,695
662,6	1672,752
663	1662,467
663,4	1657,81
663,9	1645,01
664,3	1637,61
664,8	1632,495
665,2	1619,667
665,6	1617,495
666,1	1608,41
666,5	1594,895
667	1583,61
667,4	1571,638
667,9	1556,038
668,3	1552,752
668,7	1542,238
669,2	1534,581
669,6	1527,124
670,1	1527,695
670,5	1518,667
670,9	1513,267
671,4	1500,724
671,8	1493,724
672,3	1486,752
672,7	1476,952
673,1	1461,838
673,6	1454,552
674	1450,61
674,5	1450,895
674,9	1435,724
675,3	1422,895
675,8	1412,467
676,2	1408,924
676,7	1398,781
677,1	1385,352
677,5	1367,952
678	1366,038
678,4	1359,81
678,9	1352,867
679,3	1342,495
679,7	1332,952
680,2	1326,724
680,6	1321,352
681,1	1308,495
681,5	1300,495
681,9	1291,152
682,4	1283,21
682,8	1278,038
683,3	1261,552
683,7	1250,295
684,1	1242,324
684,6	1232,352
685	1227,21
685,5	1218,067
685,9	1213,895
686,3	1216,781
686,8	1213,724
687,2	1209,667
687,7	1205,295
688,1	1197,724
688,5	1192,524
689	1181,267
689,4	1173,41
689,9	1166,524
690,3	1162,41
690,7	1152,781
691,2	1146,352
691,6	1139,01
692	1130,181
692,5	1122,41
692,9	1109,981
693,4	1102,724
693,8	1094,438
694,2	1080,61
694,7	1070,838
695,1	1067,381
695,6	1057,038
696	1055,381
696,4	1043,067
696,9	1038,495
697,3	1038,924
697,8	1026,924
698,2	1019,152
698,6	1018,267
699,1	1009,81
699,5	1000,867
699,9	994,152
700,4	988,495
700,8	986,524
701,3	981,552
701,7	970,267
702,1	963,438
702,6	958,181
703	947,81
703,5	941,21
703,9	940,495
704,3	935,581
704,8	930,152
705,2	924,267
705,6	917,095
706,1	921,152
706,5	913,952
707	904,21
707,4	899,067
707,8	894,038
708,3	885,324
708,7	887,781
709,2	875,695
709,6	870,61
710	866,267
710,5	861,01
710,9	858,324
711,3	854,038
711,8	845,867
712,2	843,095
712,7	835,61
713,1	828,895
713,5	822,41
714	817,667
714,4	817,238
714,8	813,552
715,3	811,095
715,7	808,867
716,2	801,067
716,6	795,952
717	787,381
717,5	779,238
717,9	772,752
718,3	762,981
718,8	757,924
719,2	756,01
719,7	753,867
720,1	747,752
720,5	742,867
721	737,095
721,4	734,495
721,8	730,61
722,3	720,924
722,7	711,667
723,2	709,124
723,6	705,667
724	700,267
724,5	689,724
724,9	682,152
725,3	678,752
725,8	669,295
726,2	665,41
726,7	656,352
727,1	651,724
727,5	654,41
728	651,552
728,4	653,581
728,8	655,524
729,3	652,324
729,7	652,181
730,1	644,352
730,6	639,095
731	636,81
731,5	629,752
731,9	627,124
732,3	624,238
732,8	622,467
733,2	621,61
733,6	615,324
734,1	610,038
734,5	603,21
734,9	598,381
735,4	590,638
735,8	584,838
736,3	585,495
736,7	585,41
737,1	582,21
737,6	580,667
738	576,695
738,4	578,124
738,9	578,667
739,3	574,267
739,7	570,895
740,2	571,295
740,6	570,438
741,1	564,181
741,5	556,267
741,9	543,867
742,4	538,838
742,8	536,552
743,2	530,181
743,7	532,781
744,1	528,267
744,5	525,81
745	525,181
745,4	520,438
745,8	515,095
746,3	512,638
746,7	504,552
747,2	508,324
747,6	507,095
748	504,095
748,5	499,581
748,9	495,495
749,3	493,01
749,8	485,752
750,2	479,095
750,6	473,981
751,1	479,01
751,5	479,752
751,9	477,21
752,4	472,067
752,8	472,267
753,3	470,467
753,7	469,41
754,1	462,238
754,6	455,267
755	450,695
755,4	446,095
755,9	442,667
756,3	438,61
756,7	431,095
757,2	429,324
757,6	427,695
758	422,952
758,5	421,61
758,9	417,152
759,3	412,952
759,8	416,495
760,2	413,581
760,6	413,638
761,1	415,867
761,5	412,438
761,9	408,724
762,4	406,238
762,8	398,467
763,3	389,467
763,7	386,952
764,1	382,152
764,6	380,095
765	378,067
765,4	375,21
765,9	372,41
766,3	371,524
766,7	368,41
767,2	369,495
767,6	362,981
768	365,267
768,5	361,295
768,9	359,924
769,3	363,038
769,8	359,752
770,2	356,467
770,6	360,01
771,1	357,352
771,5	359,381
771,9	357,152
772,4	355,695
772,8	355,981
773,2	351,067
773,7	348,352
774,1	346,21
774,5	343,124
775	339,924
775,4	335,895
775,8	332,638
776,3	333,295
776,7	328,495
777,1	327,724
777,6	324,295
778	325,124
778,4	318,895
778,9	315,238
779,3	313,867
779,7	312,41
780,2	305,324
780,6	304,01
781	300,695
781,5	301,981
781,9	299,467
782,3	294,038
782,8	290,01
783,2	287,838
783,6	284,924
784,1	284,495
784,5	282,81
784,9	279,838
785,4	276,381
785,8	274,981
786,2	273,781
786,7	269,381
787,1	268,41
787,5	265,067
788	265,267
788,4	266,981
788,8	264,267
789,3	261,381
789,7	262,038
790,1	258,381
790,6	260,695
791	260,81
791,4	254,81
791,9	257,838
792,3	256,267
792,7	256,038
793,2	255,81
793,6	251,495
794	246,238
794,5	250,352
794,9	248,21
795,3	246,038
795,8	241,695
796,2	239,21
796,6	231,924
797,1	232,095
797,5	226,067
797,9	220,695
798,4	220,067
798,8	216,695
799,2	215,095
799,7	219,895
800,1	216,667
800,5	215,952
801	216,981
801,4	214,752
801,8	215,124
802,2	211,667
802,7	208,21
803,1	205,752
803,5	205,467
804	204,295
804,4	205,267
804,8	209,267
805,3	208,781
805,7	207,581
806,1	211,752
806,6	207,581
807	207,638
807,4	202,81
807,9	198,667
808,3	195,695
808,7	192,267
809,2	184,152
809,6	183,867
810	176,41
810,4	179,295
810,9	173,21
811,3	176,638
811,7	176,981
812,2	181,61
812,6	180,638
813	183,038
813,5	182,095
813,9	181,781
814,3	173,952
814,8	174,324
815,2	167,41
815,6	164,124
816,1	163,124
816,5	156,667
816,9	157,324
817,3	161,152
817,8	161,495
818,2	160,067
818,6	158,952
819,1	159,81
819,5	163,638
819,9	158,467
820,4	153,924
820,8	145,181
821,2	148,724
821,7	148,752
822,1	145,41
822,5	141,238
822,9	146,581
823,4	146,01
823,8	149,324
824,2	144,524
824,7	150,124
825,1	147,838
825,5	151,695
826	151,238
826,4	153,181
826,8	149,752
827,3	155,21
827,7	149,352
828,1	149,981
828,5	147,867
829	143,952
829,4	145,067
829,8	142,924
830,3	136,124
830,7	131,467
831,1	128,467
831,6	119,667
832	115,81
832,4	111,581
832,8	115,038
833,3	111,067
833,7	115,467
834,1	118,238
834,6	119,41
835	122,895
835,4	125,724
835,8	121,124
836,3	122,21
836,7	116,581
837,1	114,324
837,6	112,038
838	106,581
838,4	95,095
838,9	101,181
839,3	104,21
839,7	104,952
840,1	99,552
840,6	102,181
841	103,381
841,4	105,181
841,9	101,638
842,3	99,438
842,7	96,524
843,1	100,352
843,6	100,238
844	100,295
844,4	104,438
844,9	102,952
845,3	98,381
845,7	103,667
846,2	102,01
846,6	101,952
847	103,81
847,4	99,495
847,9	96,524
848,3	99,895
848,7	95,524
849,2	96,038
849,6	91,924
850	86,838
850,4	87,067
850,9	87,638
851,3	84,895
851,7	85,581
852,2	78,867
852,6	83,838
853	90,638
853,4	93,667
853,9	87,695
854,3	86,924
854,7	83,324
855,2	84,324
855,6	75,581
856	64,181
856,4	60,752
856,9	62,152
857,3	60,952
857,7	67,61
858,2	69,524
858,6	74,381
859	75,152
859,4	75,667
859,9	76,61
860,3	77,524
860,7	75,952
861,1	79,81
861,6	75,924
862	78,895
862,4	77,21
862,9	77,638
863,3	73,781
863,7	67,038
864,1	62,067
864,6	63,467
865	63,01
865,4	60,381
865,9	57,295
866,3	61,095
866,7	64,41
867,1	66,81
867,6	65,752
868	61,495
868,4	60,867
868,8	63,581
869,3	65,552
869,7	59,267
870,1	59,238
870,6	58,838
871	59,467
871,4	58,695
871,8	60,01
872,3	55,838
872,7	56,095
873,1	56,467
873,5	56,838
874	59,267
874,4	54,781
874,8	51,21
875,3	49,124
875,7	50,667
876,1	45,667
876,5	47,095
877	44,838
877,4	49,21
877,8	49,867
878,2	54,952
878,7	55,981
879,1	55,838
879,5	55,638
879,9	55,524
880,4	56,152
880,8	53,838
881,2	55,552
881,7	57,781
882,1	55,781
882,5	55,124
882,9	57,638
883,4	58,638
883,8	59,495
884,2	54,238
884,6	50,41
885,1	53,438
885,5	57,552
885,9	58,838
886,3	58,752
886,8	57,238
887,2	51,152
887,6	44,752
888	43,467
888,5	37,552
888,9	35,238
889,3	31,781
889,8	34,438
890,2	37,124
890,6	41,867
891	44,41
891,5	45,81
891,9	45,552
892,3	45,581
892,7	47,124
893,2	49,752
893,6	48,581
894	46,524
894,4	43,324
894,9	40,752
895,3	41,524
895,7	37,552
896,1	34,867
896,6	34,438
897	33,381
897,4	28,381
897,8	27,981
898,3	32,638
898,7	29,867
899,1	31,924
899,5	29,724
900	26,41
900,4	29,067
900,8	28,295
901,2	23,552
901,7	26,695
902,1	28,21
902,5	30,152
902,9	32,695
903,4	33,724
903,8	33,238
904,2	36,667
904,6	34,781
905,1	33,438
905,5	30,638
905,9	28,41
906,3	31,695
906,8	33,295
907,2	26,695
907,6	26,152
908	24,895
908,5	28,381
908,9	31,41
909,3	28,41
909,7	26,61
910,2	27,181
910,6	26,924
911	25,581
911,4	22,467
911,9	21,581
912,3	22,752
912,7	24,267
913,1	20,238
913,6	24,01
914	23,352
914,4	25,752
914,8	22,295
915,3	19,838
915,7	17,267
916,1	21,61
916,5	15,924
916,9	14,21
917,4	15,667
917,8	18,952
918,2	19,61
918,6	22,381
919,1	20,952
919,5	23,781
919,9	29,61
920,3	25,867
920,8	20,838
921,2	23,81
921,6	20,095
922	23,295
922,5	22,01
922,9	14,752
923,3	16,838
923,7	17,181
924,2	14,267
924,6	12,867
925	10,438
925,4	11,667
925,8	13,781
926,3	16,238
926,7	16,067
927,1	16,752
927,5	16,41
928	16,438
928,4	16,038
928,8	20,81
929,2	18,467
929,7	17,724
930,1	18,038
930,5	18,838
930,9	21,752
931,3	20,552
931,8	15,467
932,2	14,61
932,6	18,41
933	11,895
933,5	17,267
933,9	16,581
934,3	14,381
934,7	17,61
935,2	21,095
935,6	16,124
936	17,952
936,4	14,438
936,8	11,867
937,3	17,152
937,7	14,181
938,1	3,552
938,5	7,838
939	10,724
939,4	9,267
939,8	8,181
940,2	6,61
940,6	7,81
941,1	19,667
941,5	22,181
941,9	20,61
942,3	21,952
942,8	22,095
943,2	17,524
943,6	17,552
944	9,61
944,4	5,295
944,9	3,952
945,3	6,724
945,7	8,61
946,1	11,581
946,6	10,581
947	12,267
947,4	15,552
947,8	19,667
948,2	15,438
948,7	14,838
949,1	12,895
949,5	16,181
949,9	19,667
950,3	19,81
950,8	18,524
951,2	19,095
951,6	20,781
952	22,181
952,5	18,895
952,9	14,781
953,3	8,038
953,7	7,352
954,1	6,61
954,6	6,524
955	5,924
955,4	5,495
955,8	10,495
956,2	13,552
956,7	12,524
957,1	18,01
957,5	14,438
957,9	16,124
958,3	13,838
958,8	11,438
959,2	14,124
959,6	17,752
960	11,695
960,5	8,324
960,9	8,638
961,3	14,41
961,7	12,21
962,1	11,295
962,6	4,295
963	5,41
963,4	9,038
963,8	8,638
964,2	4,467
964,7	4,467
965,1	3,724
965,5	7,781
965,9	10,638
966,3	8,41
966,8	7,695
967,2	9,724
967,6	10,295
968	10,295
968,4	11,21
968,9	13,21
969,3	13,895
969,7	11,124
970,1	9,152
970,5	16,581
971	10,667
971,4	15,295
971,8	16,524
972,2	18,067
972,6	22,495
973,1	24,038
973,5	20,495
973,9	23,552
974,3	18,095
974,7	8,524
975,2	7,067
975,6	1,124
976	1,867
976,4	-0,876
976,8	2,181
977,3	3,067
977,7	2,267
978,1	3,124
978,5	4,381
978,9	4,495
979,4	2,067
979,8	0,21
980,2	-5,048
980,6	0,095
981	6,838
981,5	9,381
981,9	9,752
982,3	10,038
982,7	11,667
983,1	15,867
983,6	13,524
984	11,381
984,4	15,352
984,8	11,981
985,2	13,01
985,6	12,924
986,1	12,667
986,5	12,01
986,9	8,81
987,3	1,581
987,7	6,924
988,2	9,095
988,6	6,81
989	8,438
989,4	11,867
989,8	9,01
990,3	12,324
990,7	4,724
991,1	2,152
991,5	5,41
991,9	7,152
992,3	5,524
992,8	9,924
993,2	10,267
993,6	10,495
994	7,61
994,4	7,067
994,9	5,895
995,3	6,238
995,7	3,552
996,1	4,495
996,5	6,267
996,9	12,124
997,4	7,552
997,8	3,781
998,2	1,667
998,6	7,067
999	6,495
999,5	5,638
999,9	4,01
1000,3	8,952
1000,7	10,667
1001,1	11,038
1001,5	2,095
1002	-3,19
1002,4	-0,733
1002,8	-0,99
1003,2	-3,476
1003,6	0,438
1004	3,781
1004,5	8,381
1004,9	12,495
1005,3	7,438
1005,7	6,01
1006,1	4,495
1006,6	2,981
1007	2,981
1007,4	1,495
1007,8	1,924
1008,2	4,981
1008,6	4,81
1009,1	5,267
1009,5	9,381
1009,9	14,21
1010,3	17,581
1010,7	20,152
1011,1	24,695
1011,6	24,495
1012	25,067
1012,4	18,667
1012,8	8,238
1013,2	9,095
1013,6	7,038
1014,1	4,324
1014,5	3,41
1014,9	7,067
1015,3	8,61
1015,7	11,267
1016,1	8,952
1016,6	11,495
1017	11,581
1017,4	13,41
1017,8	12,724
1018,2	3,638
1018,6	4,61
1019,1	5,981
1019,5	1,238
1019,9	6,667
1020,3	4,352
1020,7	2,667
1021,1	9,952
1021,6	8,724
1022	5,067
1022,4	9,552
1022,8	5,524
1023,2	6,667
1023,6	5,524
1024,1	9,21
1024,5	8,867
1024,9	15,181
1025,3	15,324
1025,7	17,038
1026,1	17,01
1026,6	21,838
1027	14,038
1027,4	15,181
1027,8	6,124
1028,2	3,752
1028,6	-0,362
1029	-1,933
1029,5	-6,533
1029,9	-3,333
1030,3	1,352
1030,7	5,21
1031,1	0,667
1031,5	-1,648
1032	4,667
1032,4	4,038
1032,8	6,495
1033,2	1,581
1033,6	1,667
1034	5,352
1034,4	13,495
1034,9	7,067
1035,3	12,067
1035,7	12,838
1036,1	11,952
1036,5	9,067
1036,9	6,352
1037,4	2,61
1037,8	8,21
1038,2	-2,933
1038,6	-6,819
1039	-4,133
1039,4	-1,019
1039,8	-4,133
1040,3	-7,39
1040,7	-12,048
1041,1	-5,705
1041,5	-7,248
1041,9	-8,219
1042,3	-6,048
1042,7	-1,848
1043,2	-3,448
1043,6	4,124
1044	5,61
1044,4	7,695
1044,8	6,61
1045,2	6,981
1045,6	11,095
1046,1	13,324
1046,5	8,495
1046,9	5,381
1047,3	5,21
1047,7	3,838
1048,1	-0,533
1048,5	-2,362
1049	-0,733
1049,4	-2,305
1049,8	-0,39
1050,2	2,095
1050,6	7,238
1051	10,495
1051,4	7,81
1051,9	11,467
1052,3	8,581
1052,7	7,152
1053,1	5,924
1053,5	3,181
1053,9	0,067
1054,3	0,21
1054,8	-0,99
1055,2	3,581
1055,6	3,695
1056	4,152
1056,4	8,695
1056,8	14,067
1057,2	14,924
1057,6	11,781
1058,1	15,01
1058,5	17,81
1058,9	19,41
1059,3	18,381
1059,7	10,867
1060,1	9,724
1060,5	8,581
1061	3,638
1061,4	12,067
1061,8	10,181
1062,2	4,981
1062,6	8,267
1063	10,495
1063,4	13,381
1063,8	10,867
1064,3	3,352
1064,7	1,381
1065,1	3,781
1065,5	5,695
1065,9	7,352
1066,3	1,724
1066,7	5,895
1067,1	3,895
1067,6	7,467
1068	7,01
1068,4	4,895
1068,8	2,867
1069,2	4,01
1069,6	4,267
1070	4,552
1070,4	3,695
1070,9	1,038
1071,3	0,61
1071,7	1,552
1072,1	5,324
1072,5	3,581
1072,9	6,381
1073,3	5,124
1073,7	6,124
1074,2	7,667
1074,6	8,895
1075	6,724
1075,4	8,438
1075,8	8,124
1076,2	8,495
1076,6	8,181
1077	4,667
1077,5	3,695
1077,9	5,038
1078,3	2,095
1078,7	1,181
1079,1	6,152
1079,5	5,467
1079,9	12,867
1080,3	11,895
1080,7	15,695
1081,2	15,638
1081,6	16,638
1082	12,01
1082,4	14,61
1082,8	8,81
1083,2	5,895
1083,6	5,781
1084	8,152
1084,5	4,781
1084,9	1,438
1085,3	5,495
1085,7	1,981
1086,1	1,524
1086,5	3,01
1086,9	-0,533
1087,3	1,61
1087,7	4,838
1088,2	-1,648
1088,6	2,895
1089	4,895
1089,4	-0,39
1089,8	6,01
1090,2	6,01
1090,6	4,581
1091	8,952
1091,4	9,867
1091,9	9,838
1092,3	6,752
1092,7	1,867
1093,1	-0,133
1093,5	-2,305
1093,9	0,41
1094,3	0,867
1094,7	3,981
1095,1	5,695
1095,5	3,695
1096	1,781
1096,4	6,095
1096,8	-0,876
1097,2	-3,59
1097,6	-5,562
1098	-4,619
1098,4	-1,276
1098,8	1,41
1099,2	-1,876
1099,6	3,41
1100,1	6,124
1100,5	9,038
1100,9	10,295
1101,3	6,267
1101,7	9,581
1102,1	10,752
1102,5	6,181
1102,9	4,267
1103,3	-2,505
1103,7	-2,79
1104,2	4,41
1104,6	4,067
1105	4,41
1105,4	7,638
1105,8	8,124
1106,2	11,21
1106,6	9,181
1107	5,152
1107,4	2,167
1107,8	2,547
1108,3	-0,233
