Data from Subt2_082.txt Node
Date: Sat Aug 26 16:40:14 MSK 2023
User: vat
Spectrometer: MAYP114033
Trigger mode: 0
Integration Time (sec): 1,000000E0
Scans to average: 5
Electric dark correction enabled: true
Nonlinearity correction enabled: false
Boxcar width: 3
XAxis mode: Wavelengths
Number of Pixels in Spectrum: 2068
>>>>>Begin Spectral Data<<<<<
199,4	-0,65
199,9	-0,48
200,4	-3,333
200,8	-1,971
201,3	0,229
201,8	2,486
202,2	4,343
202,7	7,371
203,2	6,886
203,6	8,314
204,1	8,771
204,6	11,914
205	10,171
205,5	8,286
206	8,057
206,4	10,714
206,9	12,429
207,4	18,486
207,8	9,771
208,3	12,371
208,8	13,514
209,2	10,6
209,7	11,514
210,2	14,8
210,6	7,257
211,1	10,229
211,5	7,029
212	3,114
212,5	1,857
212,9	3,2
213,4	1,4
213,9	-1,629
214,3	4,371
214,8	7,771
215,3	10,143
215,7	9,429
216,2	7,571
216,7	9,886
217,1	13,829
217,6	11,143
218,1	10
218,5	14
219	20,229
219,5	20,171
219,9	16,029
220,4	12,686
220,9	11,886
221,3	12,114
221,8	6,829
222,3	3,086
222,7	0,057
223,2	1,686
223,6	3,457
224,1	3,514
224,6	1,4
225	5,886
225,5	12,143
226	11,514
226,4	14,343
226,9	14,057
227,4	17,4
227,8	19,629
228,3	19,371
228,8	15,257
229,2	20,2
229,7	15,686
230,2	20,629
230,6	12,229
231,1	12,286
231,5	12,114
232	16,2
232,5	11,429
232,9	14,143
233,4	12,314
233,9	14,771
234,3	13,8
234,8	14,4
235,3	9,286
235,7	14,314
236,2	11,8
236,7	10,486
237,1	10,943
237,6	18,114
238,1	18,086
238,5	16,714
239	17,771
239,4	17,657
239,9	17,457
240,4	20,8
240,8	14,171
241,3	10,543
241,8	14,6
242,2	5,971
242,7	7,8
243,2	7,229
243,6	10,229
244,1	9,743
244,6	11,514
245	9,857
245,5	13,286
245,9	15
246,4	16,714
246,9	16,114
247,3	15,571
247,8	13,171
248,3	10,4
248,7	16,943
249,2	13,114
249,7	11,714
250,1	5,2
250,6	7,543
251	7,714
251,5	7,743
252	3,6
252,4	5,657
252,9	6,657
253,4	10,371
253,8	9,029
254,3	10,771
254,8	14,686
255,2	13,114
255,7	14,086
256,1	12,857
256,6	13,714
257,1	14,686
257,5	16,143
258	11,371
258,5	13,629
258,9	13,457
259,4	16,657
259,9	14,314
260,3	10,886
260,8	11,857
261,2	19,257
261,7	18,429
262,2	14,857
262,6	11,2
263,1	12,771
263,6	16,343
264	12,943
264,5	9,314
264,9	7,086
265,4	9,686
265,9	14,4
266,3	14,057
266,8	12,371
267,3	16,086
267,7	13,829
268,2	12,714
268,7	11,143
269,1	6,743
269,6	7,8
270	11,343
270,5	8,571
271	10,114
271,4	9,743
271,9	8,429
272,4	8,886
272,8	5,743
273,3	0,629
273,7	2,114
274,2	3,971
274,7	4,057
275,1	3,057
275,6	6,057
276,1	5,543
276,5	10
277	9,229
277,4	11,8
277,9	13,2
278,4	20,286
278,8	23,686
279,3	19,943
279,8	22,771
280,2	22,257
280,7	16,514
281,1	19,829
281,6	15,743
282,1	10,914
282,5	15,714
283	8,343
283,4	7
283,9	8,257
284,4	5,114
284,8	4,743
285,3	0,829
285,8	2,371
286,2	2,114
286,7	2,686
287,1	1
287,6	2,629
288,1	5,714
288,5	7,971
289	7,371
289,5	7,571
289,9	5,514
290,4	5,743
290,8	10,886
291,3	4,943
291,8	5,543
292,2	7,314
292,7	10,257
293,1	12,8
293,6	12,057
294,1	7
294,5	12,943
295	11,114
295,5	8,457
295,9	7,943
296,4	6,143
296,8	6,371
297,3	6
297,8	7,486
298,2	10,457
298,7	8,971
299,1	11,057
299,6	16,257
300,1	21,4
300,5	24,314
301	22,714
301,5	25,914
301,9	25,171
302,4	25,486
302,8	21,514
303,3	19,857
303,8	13,229
304,2	12,429
304,7	10,171
305,1	11,486
305,6	7,914
306,1	8,486
306,5	5,686
307	7,714
307,4	5,171
307,9	1,343
308,4	4,4
308,8	10,486
309,3	10,771
309,8	12,886
310,2	13
310,7	19,857
311,1	18,4
311,6	15,657
312,1	12,029
312,5	12,514
313	10,486
313,4	12,914
313,9	12,4
314,4	13,714
314,8	15,086
315,3	13,2
315,7	14,829
316,2	15,371
316,7	17,029
317,1	15,171
317,6	14,714
318	17,8
318,5	23,714
319	23,371
319,4	25,543
319,9	23,114
320,3	22,571
320,8	24,6
321,3	19,8
321,7	14,743
322,2	14
322,6	9,714
323,1	12,943
323,6	9,743
324	9,771
324,5	10,086
324,9	10,6
325,4	12,257
325,9	20,714
326,3	22,057
326,8	28,429
327,2	29,971
327,7	31,629
328,2	31,286
328,6	33,057
329,1	28,143
329,5	21,314
330	17,143
330,5	15,543
330,9	14,657
331,4	9,2
331,8	6,971
332,3	7
332,8	9,514
333,2	4,657
333,7	6,257
334,1	8,343
334,6	13,543
335,1	11,914
335,5	13,171
336	4,971
336,4	8,4
336,9	13,114
337,4	13,029
337,8	12,457
338,3	11,229
338,7	9,857
339,2	20,857
339,7	20,714
340,1	17,114
340,6	13,029
341	18,629
341,5	21,714
342	23,886
342,4	17,286
342,9	16,343
343,3	18,629
343,8	23,8
344,2	21,943
344,7	17,229
345,2	15,2
345,6	21,143
346,1	21,886
346,5	21,314
347	20,086
347,5	16,914
347,9	17,743
348,4	19,114
348,8	20,943
349,3	21,057
349,8	22,114
350,2	23,543
350,7	27,914
351,1	36,371
351,6	44,057
352	52,257
352,5	62,229
353	73,943
353,4	88,6
353,9	107,343
354,3	130,857
354,8	151,286
355,3	176,8
355,7	215,543
356,2	250,286
356,6	295,457
357,1	346,714
357,5	405,514
358	479,086
358,5	562,057
358,9	650,343
359,4	756,257
359,8	872,314
360,3	1004,743
360,8	1151,343
361,2	1312,486
361,7	1482,543
362,1	1681,714
362,6	1895,086
363	2121,857
363,5	2365,029
364	2614,6
364,4	2869,029
364,9	3133,914
365,3	3384,857
365,8	3630,029
366,3	3856,886
366,7	4062,429
367,2	4239,457
367,6	4389,4
368,1	4492,429
368,5	4562,829
369	4596,686
369,5	4598,286
369,9	4548,429
370,4	4469,829
370,8	4359,343
371,3	4237,714
371,7	4084,857
372,2	3908,286
372,7	3710,571
373,1	3513,886
373,6	3306,943
374	3094,571
374,5	2885,857
374,9	2682,686
375,4	2491,629
375,9	2310,886
376,3	2135,457
376,8	1973,514
377,2	1824,229
377,7	1674,514
378,2	1532,2
378,6	1400,514
379,1	1277,2
379,5	1168,257
380	1071,343
380,4	975,657
380,9	897,971
381,4	829
381,8	759,029
382,3	702,457
382,7	646,457
383,2	592,257
383,6	550,543
384,1	509,429
384,6	469,514
385	436,2
385,5	405,971
385,9	379,771
386,4	356,543
386,8	329,686
387,3	301,857
387,7	284,029
388,2	265,743
388,7	246,514
389,1	226,543
389,6	210,571
390	199,429
390,5	184,714
390,9	172,371
391,4	164,829
391,9	154,686
392,3	144,857
392,8	135,657
393,2	123,514
393,7	120,629
394,1	116,343
394,6	107,371
395,1	103,429
395,5	102,314
396	95,914
396,4	96,571
396,9	92,029
397,3	82,257
397,8	78,314
398,2	68,6
398,7	61,257
399,2	57,029
399,6	58,543
400,1	50,057
400,5	50,286
401	50,429
401,4	55,943
401,9	59,371
402,4	62,343
402,8	62,086
403,3	66,629
403,7	67,514
404,2	65,743
404,6	60,543
405,1	55,829
405,5	50,914
406	44,8
406,5	39,343
406,9	34,429
407,4	29,486
407,8	31,8
408,3	30,914
408,7	39,629
409,2	37,257
409,6	41,686
410,1	47,429
410,6	50,857
411	50,429
411,5	54,086
411,9	49,514
412,4	55,143
412,8	57,371
413,3	56,571
413,7	64,514
414,2	67,886
414,7	74,286
415,1	72,114
415,6	79,171
416	80
416,5	82,086
416,9	79,771
417,4	81,086
417,8	82,571
418,3	89,657
418,8	83,2
419,2	89,143
419,7	96,6
420,1	97,429
420,6	102,686
421	99,857
421,5	100,571
421,9	106,914
422,4	106,257
422,8	102,371
423,3	102,771
423,8	106,457
424,2	109,371
424,7	113,914
425,1	111,657
425,6	117,657
426	119,971
426,5	125,371
426,9	121,286
427,4	124,971
427,9	119,543
428,3	120,743
428,8	120,086
429,2	115
429,7	111,629
430,1	112,086
430,6	112,8
431	114,714
431,5	119,514
431,9	117,571
432,4	125,686
432,8	131,886
433,3	134,714
433,8	135,114
434,2	143,2
434,7	141,057
435,1	143,371
435,6	150,457
436	156,257
436,5	166,943
436,9	173,171
437,4	180,143
437,8	187,343
438,3	199,571
438,8	202,114
439,2	208,771
439,7	212,8
440,1	219,057
440,6	225,257
441	238,114
441,5	243,8
441,9	256,657
442,4	272,686
442,8	281,343
443,3	294,971
443,7	305,343
444,2	315,2
444,7	332,429
445,1	342,171
445,6	345,2
446	362,971
446,5	379,771
446,9	394,943
447,4	411,914
447,8	422,657
448,3	444,057
448,7	463,714
449,2	477,971
449,6	491,6
450,1	514,457
450,6	533,743
451	549,543
451,5	564,143
451,9	587,886
452,4	610,714
452,8	635,171
453,3	652,657
453,7	675,314
454,2	703,571
454,6	730,571
455,1	748,943
455,5	775,029
456	798,829
456,4	828,629
456,9	855,457
457,3	887,286
457,8	913,686
458,3	948,743
458,7	981,286
459,2	1016
459,6	1045,714
460,1	1075,571
460,5	1103,971
461	1139,171
461,4	1173,2
461,9	1205,857
462,3	1238,171
462,8	1271,686
463,2	1310,086
463,7	1345,971
464,1	1381,914
464,6	1417,314
465	1454,571
465,5	1493,8
466	1529,4
466,4	1565,771
466,9	1605,086
467,3	1638,943
467,8	1680,2
468,2	1722,543
468,7	1763,629
469,1	1809,257
469,6	1848,743
470	1892,8
470,5	1941,286
470,9	1978,743
471,4	2015,2
471,8	2052,886
472,3	2091,086
472,7	2132,029
473,2	2160,829
473,6	2197,543
474,1	2235,143
474,5	2273,229
475	2313,086
475,4	2356,571
475,9	2402,057
476,4	2443,971
476,8	2479,486
477,3	2523,4
477,7	2564,514
478,2	2600,743
478,6	2637,743
479,1	2669,343
479,5	2707,943
480	2746,514
480,4	2777,743
480,9	2812,143
481,3	2847,114
481,8	2881,886
482,2	2916,971
482,7	2952,971
483,1	2992,914
483,6	3022,229
484	3055,429
484,5	3086,971
484,9	3115,514
485,4	3139,486
485,8	3169,914
486,3	3193,2
486,7	3230,914
487,2	3253,686
487,6	3276,4
488,1	3307,771
488,5	3335,457
489	3352,714
489,4	3379,114
489,9	3397,486
490,4	3419,257
490,8	3443,657
491,3	3459,571
491,7	3485,943
492,2	3518,371
492,6	3535,6
493,1	3544,286
493,5	3564,429
494	3583,514
494,4	3594,143
494,9	3603,2
495,3	3615,229
495,8	3630,114
496,2	3654,4
496,7	3667,114
497,1	3680,857
497,6	3695,886
498	3712,971
498,5	3721,571
498,9	3730,171
499,4	3741,943
499,8	3753,114
500,3	3762,629
500,7	3778,343
501,2	3795
501,6	3809,686
502,1	3826,257
502,5	3832,371
503	3850,457
503,4	3865,457
503,9	3875,743
504,3	3877,057
504,8	3883,514
505,2	3891,514
505,7	3903,857
506,1	3905,343
506,6	3910,143
507	3918,143
507,5	3929,143
507,9	3940,2
508,4	3947,771
508,8	3960,629
509,3	3968,571
509,7	3972,286
510,2	3977,229
510,6	3979,714
511,1	3984,171
511,5	3989,714
512	3987,657
512,4	3994,257
512,9	4001,914
513,3	4008,8
513,8	4013,914
514,2	4019,2
514,7	4020,943
515,1	4029,114
515,6	4030,743
516	4033,714
516,5	4034,286
516,9	4032,457
517,4	4036,371
517,8	4037,486
518,3	4038,171
518,7	4041,429
519,2	4046,743
519,6	4053,886
520,1	4068,029
520,5	4072,457
521	4079,857
521,4	4090,629
521,9	4103,8
522,3	4107,4
522,8	4115,686
523,2	4123,829
523,7	4132,343
524,1	4141,686
524,6	4136,8
525	4142,229
525,5	4152,171
525,9	4151,114
526,4	4156,829
526,8	4158
527,3	4159,314
527,7	4175,114
528,2	4171,971
528,6	4179
529,1	4189,229
529,5	4195,971
530	4201,371
530,4	4211,543
530,9	4214,8
531,3	4226
531,8	4240,4
532,2	4240,429
532,6	4252,143
533,1	4260,629
533,5	4269,029
534	4276,171
534,4	4281,029
534,9	4289,486
535,3	4306,914
535,8	4301,571
536,2	4312,2
536,7	4316,286
537,1	4323
537,6	4338,4
538	4338,743
538,5	4341,286
538,9	4355,829
539,4	4360,6
539,8	4372,143
540,3	4384,314
540,7	4386
541,2	4391,857
541,6	4408,314
542,1	4413,686
542,5	4428,8
543	4434,314
543,4	4442,314
543,9	4447,086
544,3	4450,057
544,8	4448,886
545,2	4458,743
545,7	4465,629
546,1	4476,886
546,5	4489,343
547	4496,943
547,4	4511,657
547,9	4526
548,3	4538,914
548,8	4541,6
549,2	4548,371
549,7	4551,714
550,1	4564,143
550,6	4567,371
551	4577,771
551,5	4580,486
551,9	4591,2
552,4	4605,057
552,8	4613,143
553,3	4627,8
553,7	4642,457
554,2	4644,543
554,6	4657,486
555,1	4666,314
555,5	4668,714
555,9	4675,029
556,4	4676,171
556,8	4677,057
557,3	4684,543
557,7	4688,143
558,2	4692,229
558,6	4704,657
559,1	4715,229
559,5	4723,943
560	4734,086
560,4	4739,686
560,9	4751,143
561,3	4758,486
561,8	4760,143
562,2	4763,229
562,7	4773,543
563,1	4780
563,6	4784,886
564	4782,4
564,4	4790,286
564,9	4787,514
565,3	4797,429
565,8	4799,829
566,2	4807,714
566,7	4806,857
567,1	4819,171
567,6	4815,686
568	4827,257
568,5	4821,914
568,9	4823,657
569,4	4822,086
569,8	4830,371
570,3	4825,2
570,7	4821,571
571,1	4821,343
571,6	4822,2
572	4824,4
572,5	4818,971
572,9	4824,629
573,4	4823,6
573,8	4829,314
574,3	4828,143
574,7	4826,6
575,2	4819,257
575,6	4819,6
576,1	4815,114
576,5	4811,057
576,9	4817,086
577,4	4812,971
577,8	4813,143
578,3	4807,571
578,7	4810,257
579,2	4802,6
579,6	4801,629
580,1	4791,771
580,5	4789
581	4788,457
581,4	4786,714
581,9	4771,257
582,3	4764,4
582,7	4756,343
583,2	4743,486
583,6	4730,6
584,1	4718,257
584,5	4712,886
585	4712,486
585,4	4704,057
585,9	4701,771
586,3	4698,286
586,8	4695,857
587,2	4690,571
587,6	4670,2
588,1	4663
588,5	4660,8
589	4645,486
589,4	4634,686
589,9	4623,086
590,3	4612,229
590,8	4620,514
591,2	4608,714
591,7	4596,343
592,1	4589,543
592,5	4589,143
593	4587,943
593,4	4582,286
593,9	4572,286
594,3	4563,771
594,8	4555,314
595,2	4553,971
595,7	4545,029
596,1	4532,829
596,6	4529,914
597	4521,514
597,4	4513,429
597,9	4500,486
598,3	4489,829
598,8	4476,229
599,2	4470,943
599,7	4456,714
600,1	4446,857
600,6	4444,543
601	4444,143
601,4	4437,686
601,9	4430,229
602,3	4426,2
602,8	4413,086
603,2	4406,6
603,7	4392,171
604,1	4379,8
604,6	4356,086
605	4348,429
605,4	4328,886
605,9	4314,743
606,3	4300,771
606,8	4288,429
607,2	4276,629
607,7	4272,257
608,1	4256,371
608,6	4245,057
609	4241,914
609,4	4228,4
609,9	4219,571
610,3	4198,571
610,8	4188,943
611,2	4178,514
611,7	4165,543
612,1	4143,914
612,6	4128,343
613	4111,571
613,4	4102
613,9	4081,429
614,3	4067,686
614,8	4049,657
615,2	4039,171
615,7	4034,343
616,1	4022,114
616,6	4006,571
617	3994,857
617,4	3976,171
617,9	3962,343
618,3	3948,371
618,8	3924,343
619,2	3905,171
619,7	3888,829
620,1	3864,286
620,5	3852,057
621	3833,429
621,4	3812,943
621,9	3797,371
622,3	3780,057
622,8	3766,8
623,2	3754,886
623,6	3732,686
624,1	3722,114
624,5	3706,743
625	3682,143
625,4	3662,6
625,9	3645,229
626,3	3631,686
626,8	3616,829
627,2	3593,571
627,6	3581,6
628,1	3567,514
628,5	3554,514
629	3541,371
629,4	3524
629,9	3511,486
630,3	3500
630,7	3472,457
631,2	3458,829
631,6	3443
632,1	3420,429
632,5	3404,657
633	3379,143
633,4	3362,514
633,8	3352
634,3	3328,543
634,7	3312,371
635,2	3298,2
635,6	3281
636,1	3270,4
636,5	3247,057
636,9	3230,057
637,4	3217,314
637,8	3190,6
638,3	3168,686
638,7	3150,571
639,2	3130,886
639,6	3115,857
640	3096,971
640,5	3080,229
640,9	3072,086
641,4	3060,086
641,8	3044,514
642,2	3037,2
642,7	3020,486
643,1	3013,543
643,6	3002,514
644	2987,286
644,5	2975,229
644,9	2957,2
645,3	2932,714
645,8	2920,057
646,2	2897,229
646,7	2872,8
647,1	2856,286
647,6	2830,114
648	2816,114
648,4	2802
648,9	2787,286
649,3	2774,686
649,8	2764,514
650,2	2749,8
650,6	2744,886
651,1	2736,743
651,5	2725,829
652	2711,114
652,4	2697,829
652,9	2690,2
653,3	2676,486
653,7	2658,486
654,2	2641,886
654,6	2625,114
655,1	2610,486
655,5	2590,657
655,9	2570,486
656,4	2555,486
656,8	2539,686
657,3	2521,686
657,7	2501,371
658,2	2486,971
658,6	2469,857
659	2453,371
659,5	2440,657
659,9	2427,771
660,4	2412,029
660,8	2400,229
661,2	2388,886
661,7	2376,057
662,1	2365,914
662,6	2352,057
663	2341,143
663,4	2329,143
663,9	2316,286
664,3	2302
664,8	2294,514
665,2	2279
665,6	2258,457
666,1	2239,686
666,5	2221,771
667	2210,229
667,4	2197,171
667,9	2178,771
668,3	2164,571
668,7	2151
669,2	2134,686
669,6	2128,657
670,1	2112,686
670,5	2090,2
670,9	2081,543
671,4	2064,086
671,8	2056,686
672,3	2049,143
672,7	2030,629
673,1	2015,857
673,6	2007,429
674	1995,286
674,5	1983,514
674,9	1971,914
675,3	1954,971
675,8	1943,4
676,2	1932,571
676,7	1919,971
677,1	1902,286
677,5	1893,457
678	1878,286
678,4	1869,4
678,9	1856,714
679,3	1841,743
679,7	1828,629
680,2	1819,4
680,6	1800,829
681,1	1785,343
681,5	1768,343
681,9	1754,486
682,4	1745,057
682,8	1734,829
683,3	1717,886
683,7	1712,171
684,1	1700,8
684,6	1695,714
685	1684,514
685,5	1673,314
685,9	1662,857
686,3	1658,114
686,8	1649,371
687,2	1639,114
687,7	1625,371
688,1	1618,914
688,5	1603,571
689	1593,714
689,4	1587,486
689,9	1575,429
690,3	1570,514
690,7	1558
691,2	1544,114
691,6	1541,486
692	1525,857
692,5	1504,971
692,9	1495,914
693,4	1485,257
693,8	1479,886
694,2	1467,943
694,7	1456,371
695,1	1447,771
695,6	1440,314
696	1429,629
696,4	1417,571
696,9	1408,057
697,3	1402,857
697,8	1392,657
698,2	1382,571
698,6	1374,514
699,1	1358,543
699,5	1348,457
699,9	1340,086
700,4	1328,543
700,8	1321,771
701,3	1311,543
701,7	1299,314
702,1	1293,314
702,6	1283,571
703	1267,486
703,5	1256,829
703,9	1247,857
704,3	1243,571
704,8	1234,571
705,2	1226,171
705,6	1214,086
706,1	1212,514
706,5	1210,771
707	1197,971
707,4	1189,486
707,8	1181,457
708,3	1178,429
708,7	1178,657
709,2	1170,286
709,6	1158,6
710	1151,629
710,5	1144,886
710,9	1137,657
711,3	1121,743
711,8	1107,686
712,2	1097,8
712,7	1091,371
713,1	1083,343
713,5	1072,886
714	1070,914
714,4	1069,714
714,8	1068,086
715,3	1061,343
715,7	1047,429
716,2	1044,886
716,6	1038,114
717	1027,8
717,5	1021,8
717,9	1010,429
718,3	1002,629
718,8	998,029
719,2	986,629
719,7	983,971
720,1	974,143
720,5	968,571
721	960,286
721,4	958
721,8	950,114
722,3	936,886
722,7	923,686
723,2	920,171
723,6	906,029
724	901,743
724,5	889,171
724,9	883,029
725,3	881,514
725,8	874,571
726,2	865,029
726,7	861,657
727,1	851,114
727,5	846,257
728	840,2
728,4	835,171
728,8	830,857
729,3	824,543
729,7	817,629
730,1	814,114
730,6	809,171
731	808,886
731,5	803,314
731,9	801,029
732,3	798,771
732,8	798
733,2	793,4
733,6	789,486
734,1	781,629
734,5	770,971
734,9	765,886
735,4	765,943
735,8	758,057
736,3	752,314
736,7	748,6
737,1	742,829
737,6	744,429
738	736,714
738,4	727,114
738,9	725,286
739,3	719,314
739,7	714,457
740,2	710,486
740,6	705,457
741,1	699,514
741,5	693,714
741,9	681,4
742,4	677,171
742,8	672
743,2	670,286
743,7	666,086
744,1	657,971
744,5	653,571
745	652,571
745,4	650,143
745,8	646,429
746,3	642,971
746,7	640,4
747,2	644,771
747,6	639,771
748	637,857
748,5	634,486
748,9	623,629
749,3	619,886
749,8	607,971
750,2	602
750,6	599,229
751,1	593,914
751,5	589
751,9	592,4
752,4	582,857
752,8	586,086
753,3	578,886
753,7	576,743
754,1	574
754,6	567,429
755	560,886
755,4	559,571
755,9	552,571
756,3	548,743
756,7	545,886
757,2	541
757,6	539,829
758	530,943
758,5	526,857
758,9	526,343
759,3	520,114
759,8	517,657
760,2	514,143
760,6	513,971
761,1	514,971
761,5	513,571
761,9	509,429
762,4	513,143
762,8	503,286
763,3	500,171
763,7	491
764,1	484,629
764,6	481,371
765	473,571
765,4	467,257
765,9	462,886
766,3	456,743
766,7	457,286
767,2	459
767,6	451,486
768	456,914
768,5	456,057
768,9	451,829
769,3	448,486
769,8	446,171
770,2	446,714
770,6	444,086
771,1	438,571
771,5	435,6
771,9	435,857
772,4	440,771
772,8	437,571
773,2	433,6
773,7	431,771
774,1	431,257
774,5	427,429
775	422,429
775,4	414,4
775,8	413,2
776,3	403,714
776,7	405,571
777,1	404,971
777,6	402,886
778	401,543
778,4	398,143
778,9	393,943
779,3	397,286
779,7	390,4
780,2	381,886
780,6	381,343
781	380,343
781,5	379,371
781,9	377,743
782,3	373,686
782,8	371,914
783,2	370,314
783,6	361,629
784,1	362,886
784,5	358,6
784,9	353,057
785,4	350,086
785,8	343,857
786,2	339,886
786,7	336,943
787,1	330,057
787,5	326,286
788	324,229
788,4	319,914
788,8	321,714
789,3	316,971
789,7	318,829
790,1	315,371
790,6	315,057
791	313,514
791,4	312,829
791,9	308,886
792,3	307,171
792,7	306,371
793,2	304,143
793,6	303,8
794	301,771
794,5	297,286
794,9	302,8
795,3	302,114
795,8	297,943
796,2	299,457
796,6	292,429
797,1	288,8
797,5	288,114
797,9	277,657
798,4	273,857
798,8	267,571
799,2	260,457
799,7	263,8
800,1	262
800,5	259,143
801	258,114
801,4	253,943
801,8	257,229
802,2	260
802,7	257,743
803,1	255,886
803,5	253,886
804	252,657
804,4	253,429
804,8	251,6
805,3	248,657
805,7	241,171
806,1	240,714
806,6	238,829
807	234,114
807,4	233,914
807,9	227,771
808,3	224,657
808,7	226,343
809,2	222,286
809,6	221,629
810	223,171
810,4	224,086
810,9	223,829
811,3	224,914
811,7	223,286
812,2	228,2
812,6	224,029
813	222,371
813,5	220,429
813,9	218,771
814,3	211,943
814,8	210,286
815,2	201,429
815,6	202,686
816,1	199,943
816,5	192,8
816,9	193,857
817,3	195,829
817,8	198,8
818,2	193,743
818,6	192
819,1	189,486
819,5	189,686
819,9	187,057
820,4	186,686
820,8	178,171
821,2	186,886
821,7	187,057
822,1	187,086
822,5	184,686
822,9	184,171
823,4	182,229
823,8	181,2
824,2	174,743
824,7	172,8
825,1	172,6
825,5	176,514
826	176,114
826,4	175,686
826,8	178,257
827,3	178,743
827,7	175,486
828,1	179,8
828,5	175,314
829	167,943
829,4	169,514
829,8	163,943
830,3	159,886
830,7	156,743
831,1	145,943
831,6	140,657
832	141,029
832,4	134,029
832,8	134,257
833,3	132,029
833,7	133,657
834,1	133,571
834,6	130,229
835	134,314
835,4	136
835,8	132,2
836,3	130,286
836,7	124,343
837,1	124,686
837,6	125,829
838	120,657
838,4	113,457
838,9	119,486
839,3	122,943
839,7	125,057
840,1	122,714
840,6	124,286
841	124,771
841,4	125,629
841,9	119,343
842,3	118,057
842,7	115,571
843,1	117,257
843,6	119,229
844	117,4
844,4	121,6
844,9	122,829
845,3	119,943
845,7	121,486
846,2	121,486
846,6	114,771
847	113,686
847,4	111,486
847,9	110,343
848,3	113,057
848,7	112,686
849,2	112,629
849,6	114,771
850	114,086
850,4	114,229
850,9	110,314
851,3	104,429
851,7	104,829
852,2	96,343
852,6	96,4
853	98,771
853,4	98,171
853,9	98,914
854,3	97,971
854,7	90,371
855,2	92,257
855,6	87,686
856	82,514
856,4	82,971
856,9	77,886
857,3	80,971
857,7	87,514
858,2	88,686
858,6	92,143
859	92,971
859,4	92,029
859,9	98,086
860,3	95,2
860,7	95,571
861,1	95,314
861,6	95,543
862	92,743
862,4	89,371
862,9	87,686
863,3	82,457
863,7	75,371
864,1	72,086
864,6	71,743
865	70,914
865,4	66,486
865,9	64,057
866,3	68,886
866,7	72,771
867,1	75,886
867,6	70,857
868	72,286
868,4	72,686
868,8	73,229
869,3	75,457
869,7	71,114
870,1	71,314
870,6	73,8
871	127,143
871,4	126,114
871,8	126,086
872,3	123,2
872,7	121,143
873,1	120,514
873,5	121,2
874	70,429
874,4	69,457
874,8	67,6
875,3	63,171
875,7	66,086
876,1	64,514
876,5	65,2
877	61
877,4	64,4
877,8	66,229
878,2	69,143
878,7	71,571
879,1	68,286
879,5	67
879,9	66,971
880,4	65,029
880,8	62,057
881,2	61,314
881,7	60,4
882,1	61,543
882,5	61,343
882,9	58,429
883,4	60,343
883,8	61,2
884,2	61,086
884,6	59,314
885,1	60,6
885,5	64,971
885,9	68,914
886,3	67,029
886,8	62,429
887,2	61,8
887,6	59,6
888	57,343
888,5	53,457
888,9	51,686
889,3	45,971
889,8	49,229
890,2	49,571
890,6	47,143
891	46,8
891,5	46,686
891,9	45,057
892,3	45,486
892,7	49,171
893,2	49,457
893,6	51,486
894	49,086
894,4	45,114
894,9	45,857
895,3	49,429
895,7	46,886
896,1	46,257
896,6	46,257
897	48,457
897,4	44,514
897,8	45,514
898,3	51,543
898,7	51,229
899,1	50,829
899,5	48,086
900	46,029
900,4	46,314
900,8	46,371
901,2	39,971
901,7	38,857
902,1	41,486
902,5	40,543
902,9	43,914
903,4	50,829
903,8	42,457
904,2	45,286
904,6	44,914
905,1	40,543
905,5	37,629
905,9	35,257
906,3	28,914
906,8	33,686
907,2	27,6
907,6	25,743
908	24
908,5	30,371
908,9	27,571
909,3	26,686
909,7	25,2
910,2	25,857
910,6	27,8
911	28,2
911,4	23,629
911,9	25,886
912,3	24,314
912,7	28,057
913,1	26,2
913,6	28,571
914	29,571
914,4	30,629
914,8	31,286
915,3	32,657
915,7	29,143
916,1	32,257
916,5	29,857
916,9	28,2
917,4	29,429
917,8	27,429
918,2	28,571
918,6	28,086
919,1	28,086
919,5	29,543
919,9	29,057
920,3	31,514
920,8	32,457
921,2	36,343
921,6	35,543
922	31,086
922,5	27,314
922,9	26,829
923,3	22,886
923,7	21,486
924,2	14,686
924,6	15,343
925	18
925,4	20,114
925,8	19,971
926,3	27,286
926,7	26,229
927,1	28,857
927,5	30,029
928	31,657
928,4	29,086
928,8	34,114
929,2	28,171
929,7	24,086
930,1	25
930,5	23,6
930,9	23,171
931,3	27,886
931,8	22,629
932,2	21,2
932,6	28,629
933	22,829
933,5	22,457
933,9	24,171
934,3	19,629
934,7	24,086
935,2	25,571
935,6	26,714
936	29,371
936,4	29,743
936,8	28,286
937,3	30,257
937,7	24,257
938,1	22,114
938,5	15,686
939	18,657
939,4	19,314
939,8	16,829
940,2	15,743
940,6	16,857
941,1	20,229
941,5	29,143
941,9	28,886
942,3	25
942,8	24,829
943,2	26,514
943,6	30,514
944	29,857
944,4	18,6
944,9	17,543
945,3	23,543
945,7	25,286
946,1	21,286
946,6	17,029
947	17,371
947,4	21,514
947,8	26
948,2	21,714
948,7	20,286
949,1	20,571
949,5	24,114
949,9	24,6
950,3	28,286
950,8	20,4
951,2	22,629
951,6	24,314
952	22,086
952,5	16,657
952,9	14,343
953,3	6,314
953,7	10,371
954,1	6,514
954,6	5,514
955	8,143
955,4	9
955,8	9,429
956,2	11,943
956,7	10,343
957,1	12,4
957,5	11,343
957,9	10,857
958,3	14,514
958,8	16,371
959,2	17,4
959,6	20,543
960	18,657
960,5	16,143
960,9	18,343
961,3	15,8
961,7	11,8
962,1	10,4
962,6	4,114
963	6,886
963,4	11,2
963,8	11,057
964,2	7,6
964,7	9,914
965,1	14,914
965,5	18,743
965,9	20,114
966,3	18,629
966,8	17,257
967,2	21,629
967,6	23,486
968	19,2
968,4	20,857
968,9	22,514
969,3	21,171
969,7	15,114
970,1	15,457
970,5	17,343
971	15,543
971,4	16,686
971,8	13,943
972,2	19,886
972,6	27,286
973,1	30,029
973,5	26,571
973,9	29,857
974,3	23,571
974,7	19,371
975,2	11
975,6	3,571
976	3,457
976,4	0,486
976,8	-0,629
977,3	1,829
977,7	0,057
978,1	4,543
978,5	8,857
978,9	6,771
979,4	8,6
979,8	11,286
980,2	7,429
980,6	9,857
981	9,743
981,5	10,686
981,9	12,057
982,3	6,286
982,7	5,057
983,1	12,657
983,6	19,457
984	18,771
984,4	19,914
984,8	15,943
985,2	19,771
985,6	17,714
986,1	12,4
986,5	2,629
986,9	5,143
987,3	1,571
987,7	3,914
988,2	10,286
988,6	11
989	15,8
989,4	22,971
989,8	16,629
990,3	19,057
990,7	17,171
991,1	9,714
991,5	10,2
991,9	8,171
992,3	7,886
992,8	15,514
993,2	15,629
993,6	18,857
994	21,457
994,4	21,857
994,9	22,6
995,3	19,486
995,7	12,6
996,1	8,686
996,5	5,457
996,9	5,657
997,4	4,543
997,8	4,657
998,2	8,714
998,6	14,571
999	17,8
999,5	18,514
999,9	18,143
1000,3	20,914
1000,7	16,771
1001,1	13,8
1001,5	9,743
1002	5,114
1002,4	3,971
1002,8	6,2
1003,2	5,457
1003,6	10,914
1004	9,829
1004,5	8,714
1004,9	15,8
1005,3	15,486
1005,7	14,343
1006,1	10,4
1006,6	6,429
1007	9,657
1007,4	13,229
1007,8	6,657
1008,2	5,429
1008,6	1,343
1009,1	-0,314
1009,5	9,6
1009,9	11,257
1010,3	11,086
1010,7	14,086
1011,1	16
1011,6	14,029
1012	15,257
1012,4	10,743
1012,8	2,029
1013,2	2,371
1013,6	5,657
1014,1	5,371
1014,5	11,486
1014,9	16,057
1015,3	9,686
1015,7	12,4
1016,1	11,6
1016,6	10,771
1017	8,371
1017,4	5,429
1017,8	2,429
1018,2	2,286
1018,6	7,857
1019,1	6,143
1019,5	7,714
1019,9	16,486
1020,3	17,543
1020,7	17,829
1021,1	20,543
1021,6	15,886
1022	18,057
1022,4	19
1022,8	10,314
1023,2	13,143
1023,6	10,829
1024,1	15,543
1024,5	16,629
1024,9	14,857
1025,3	11,857
1025,7	18,571
1026,1	19,886
1026,6	23,771
1027	19,371
1027,4	21,429
1027,8	21,114
1028,2	22,6
1028,6	22,2
1029	13,286
1029,5	14,543
1029,9	11,057
1030,3	15,114
1030,7	17,314
1031,1	12,571
1031,5	6,571
1032	15,857
1032,4	9,029
1032,8	12,629
1033,2	8,886
1033,6	10,4
1034	13,943
1034,4	20,4
1034,9	12,829
1035,3	22,029
1035,7	19,6
1036,1	22,571
1036,5	15,171
1036,9	15,029
1037,4	12,286
1037,8	14,686
1038,2	8,486
1038,6	6,543
1039	1,457
1039,4	7,829
1039,8	6,743
1040,3	6,029
1040,7	6,914
1041,1	8,514
1041,5	8,8
1041,9	5
1042,3	5,6
1042,7	6,057
1043,2	7,486
1043,6	10,4
1044	10,914
1044,4	14,543
1044,8	14,629
1045,2	16,686
1045,6	21,114
1046,1	24,2
1046,5	19,514
1046,9	19,686
1047,3	15,457
1047,7	19,143
1048,1	14,371
1048,5	15,029
1049	12,514
1049,4	11,743
1049,8	11,286
1050,2	15,686
1050,6	19,571
1051	22,286
1051,4	15,514
1051,9	20,114
1052,3	19,629
1052,7	22,714
1053,1	22,2
1053,5	19,714
1053,9	15,371
1054,3	17,714
1054,8	16,8
1055,2	20,514
1055,6	16,886
1056	16,429
1056,4	15,886
1056,8	22,971
1057,2	24,743
1057,6	17,629
1058,1	18,257
1058,5	17,114
1058,9	16,029
1059,3	19,714
1059,7	11,629
1060,1	8,571
1060,5	4,857
1061	1,314
1061,4	5,2
1061,8	2,543
1062,2	-0,029
1062,6	-3,914
1063	-2,457
1063,4	1,229
1063,8	6,4
1064,3	1,743
1064,7	2,829
1065,1	-1,857
1065,5	5,429
1065,9	5,371
1066,3	3,171
1066,7	-2,2
1067,1	1,629
1067,6	4,029
1068	4,8
1068,4	4,914
1068,8	4,771
1069,2	8,343
1069,6	12,571
1070	12,314
1070,4	14,114
1070,9	17,514
1071,3	17,629
1071,7	19,257
1072,1	24,286
1072,5	25,657
1072,9	28,314
1073,3	26,886
1073,7	24,257
1074,2	24,171
1074,6	18,971
1075	13,257
1075,4	14,029
1075,8	12,486
1076,2	11,343
1076,6	13,114
1077	10,657
1077,5	16,543
1077,9	19,629
1078,3	12,971
1078,7	7,943
1079,1	10,2
1079,5	6,829
1079,9	14,057
1080,3	10,886
1080,7	8,686
1081,2	10,6
1081,6	19,086
1082	19,4
1082,4	20,029
1082,8	12,6
1083,2	7,143
1083,6	8,029
1084	7,914
1084,5	3,714
1084,9	-1,114
1085,3	1,429
1085,7	0,486
1086,1	5,114
1086,5	7,286
1086,9	6,457
1087,3	8,6
1087,7	17,829
1088,2	17,571
1088,6	19,543
1089	19,771
1089,4	18,286
1089,8	19,514
1090,2	18,629
1090,6	11,543
1091	10,057
1091,4	11,029
1091,9	14,543
1092,3	11,229
1092,7	9,343
1093,1	3,286
1093,5	-0,286
1093,9	2,114
1094,3	3,8
1094,7	4,114
1095,1	0,771
1095,5	1
1096	0,629
1096,4	7,629
1096,8	3,143
1097,2	3,714
1097,6	2,543
1098	9,286
1098,4	11,657
1098,8	16,886
1099,2	14,514
1099,6	18,057
1100,1	16,229
1100,5	15,543
1100,9	14,143
1101,3	14,229
1101,7	13,343
1102,1	15,486
1102,5	14,943
1102,9	10,4
1103,3	7,371
1103,7	6,829
1104,2	7,343
1104,6	7,6
1105	4,514
1105,4	3,943
1105,8	7,057
1106,2	7,343
1106,6	5,486
1107	3
1107,4	0,633
1107,8	-0,12
1108,3	-0,2
