Data from Subt2_028.txt Node
Date: Sat Aug 26 16:20:29 MSK 2023
User: vat
Spectrometer: MAYP114033
Trigger mode: 0
Integration Time (sec): 1,000000E0
Scans to average: 5
Electric dark correction enabled: true
Nonlinearity correction enabled: false
Boxcar width: 3
XAxis mode: Wavelengths
Number of Pixels in Spectrum: 2068
>>>>>Begin Spectral Data<<<<<
199,4	0,2
199,9	-0,1
200,4	-1,933
200,8	-0,757
201,3	0,386
201,8	0,671
202,2	-0,243
202,7	2,529
203,2	1,757
203,6	3,729
204,1	4,7
204,6	7,3
205	8,643
205,5	6,5
206	5,7
206,4	9,3
206,9	7,7
207,4	8,3
207,8	2,529
208,3	3,671
208,8	7,9
209,2	7,7
209,7	6,329
210,2	12,586
210,6	12,3
211,1	12,843
211,5	12,157
212	8,614
212,5	4,957
212,9	4,7
213,4	0,529
213,9	-2,586
214,3	-0,614
214,8	0,386
215,3	2,329
215,7	2,5
216,2	6,214
216,7	3,529
217,1	2,586
217,6	4,443
218,1	2,443
218,5	6,271
219	13,271
219,5	9,443
219,9	12,014
220,4	16,186
220,9	14,214
221,3	11,843
221,8	5,329
222,3	0,214
222,7	-1,357
223,2	-1,014
223,6	-5,929
224,1	-5,729
224,6	-1,814
225	-1,671
225,5	2,757
226	-0,329
226,4	2,386
226,9	3,214
227,4	0,9
227,8	4,7
228,3	9,071
228,8	6,243
229,2	9,271
229,7	2,014
230,2	7,329
230,6	11,186
231,1	3,757
231,5	9,043
232	10,986
232,5	9,671
232,9	11,671
233,4	9,386
233,9	6,871
234,3	9,643
234,8	5,986
235,3	1,957
235,7	9,9
236,2	10,986
236,7	9,814
237,1	9,271
237,6	6,9
238,1	5,557
238,5	7,471
239	2,471
239,4	3,471
239,9	0,786
240,4	2,014
240,8	4,386
241,3	-2,186
241,8	-4,843
242,2	-6,614
242,7	-4,071
243,2	-1,471
243,6	2,386
244,1	-0,071
244,6	1,9
245	-0,214
245,5	1,071
245,9	2,186
246,4	1,1
246,9	-1,243
247,3	-1,7
247,8	1,129
248,3	7,929
248,7	11,271
249,2	5,386
249,7	5,986
250,1	3,9
250,6	7,043
251	6,871
251,5	1,243
252	0,614
252,4	2,3
252,9	5,129
253,4	8,1
253,8	6,071
254,3	6,614
254,8	10,271
255,2	8,843
255,7	8,929
256,1	5,5
256,6	1,414
257,1	5,7
257,5	6,329
258	9,243
258,5	8,157
258,9	13,5
259,4	16,557
259,9	18,643
260,3	13,471
260,8	15,786
261,2	14,643
261,7	16,929
262,2	10,929
262,6	11,386
263,1	6,386
263,6	9,243
264	4,643
264,5	2,471
264,9	0,129
265,4	-0,9
265,9	0,814
266,3	8,814
266,8	6,814
267,3	11,1
267,7	12,757
268,2	15,357
268,7	15,671
269,1	11,386
269,6	11,271
270	16,271
270,5	11,271
271	10,557
271,4	4,757
271,9	7,557
272,4	7,214
272,8	0,414
273,3	-5,957
273,7	-6,871
274,2	-8,986
274,7	-5,557
275,1	-10,757
275,6	-8,929
276,1	-3,386
276,5	2,1
277	8,014
277,4	9,043
277,9	7,929
278,4	14,957
278,8	17,386
279,3	12,671
279,8	9,243
280,2	4,5
280,7	5,9
281,1	8,1
281,6	4,214
282,1	3,5
282,5	7,3
283	7,843
283,4	8,3
283,9	3,843
284,4	2,586
284,8	4,729
285,3	0,871
285,8	-4,671
286,2	-9,643
286,7	-8,043
287,1	-8,271
287,6	-5,586
288,1	-4,214
288,5	-2,586
289	6,071
289,5	9,386
289,9	6,814
290,4	11,557
290,8	14,443
291,3	10,529
291,8	10,729
292,2	9,271
292,7	11,471
293,1	12,843
293,6	9,014
294,1	2,271
294,5	7,071
295	3,414
295,5	2,586
295,9	2,071
296,4	3,557
296,8	6,243
297,3	6,929
297,8	3,5
298,2	5,271
298,7	4,5
299,1	4,471
299,6	4,243
300,1	4,671
300,5	10,986
301	9,386
301,5	9,814
301,9	10,129
302,4	11,386
302,8	11,671
303,3	9,957
303,8	2,243
304,2	5,614
304,7	6,843
305,1	5,957
305,6	1,671
306,1	2,357
306,5	5,129
307	2,814
307,4	-0,871
307,9	-2,3
308,4	-2,929
308,8	3,786
309,3	1,929
309,8	4,643
310,2	6,471
310,7	15,243
311,1	14,643
311,6	17,014
312,1	14,443
312,5	14,043
313	8,043
313,4	10,271
313,9	2,671
314,4	3,586
314,8	6,386
315,3	7,214
315,7	7,186
316,2	8,071
316,7	9,243
317,1	15,671
317,6	15,614
318	12,614
318,5	13,443
319	14,414
319,4	14,757
319,9	14,386
320,3	11,071
320,8	9,586
321,3	8,414
321,7	6,557
322,2	6,557
322,6	4,271
323,1	3,357
323,6	0,786
324	3,9
324,5	1,329
324,9	-0,271
325,4	3,414
325,9	9,529
326,3	11,7
326,8	13,586
327,2	14,129
327,7	16,014
328,2	19,5
328,6	18,386
329,1	12,414
329,5	13,671
330	14,443
330,5	13,014
330,9	15,043
331,4	9,557
331,8	10,9
332,3	16,386
332,8	15,386
333,2	13,9
333,7	12,957
334,1	12,614
334,6	16,786
335,1	14,443
335,5	15,043
336	8,757
336,4	9,1
336,9	14,757
337,4	14,1
337,8	11,843
338,3	13,9
338,7	10,414
339,2	16,529
339,7	15,871
340,1	13,386
340,6	12,414
341	14,186
341,5	14,129
342	14,329
342,4	14,3
342,9	9,043
343,3	4,643
343,8	9,586
344,2	11,557
344,7	7,414
345,2	6,071
345,6	8,843
346,1	14,071
346,5	16,957
347	15,957
347,5	12,757
347,9	15,243
348,4	19,386
348,8	14,386
349,3	15,9
349,8	17,729
350,2	13,5
350,7	18,243
351,1	18,071
351,6	16,671
352	27,357
352,5	32,071
353	43,243
353,4	52,186
353,9	63,1
354,3	74,386
354,8	87,871
355,3	98,271
355,7	114,9
356,2	126,1
356,6	154,414
357,1	180,443
357,5	214,414
358	256,386
358,5	301,243
358,9	352,3
359,4	416,871
359,8	478,443
360,3	554,043
360,8	636,671
361,2	726,643
361,7	825,414
362,1	942,929
362,6	1063,843
363	1193,643
363,5	1328,157
364	1470,1
364,4	1612,786
364,9	1758,843
365,3	1889,5
365,8	2022,557
366,3	2146,814
366,7	2262,329
367,2	2358,5
367,6	2435,814
368,1	2498,786
368,5	2542,871
369	2559,129
369,5	2555,071
369,9	2526,071
370,4	2482,871
370,8	2426,3
371,3	2347,186
371,7	2255,186
372,2	2159,071
372,7	2048,357
373,1	1939,614
373,6	1828,643
374	1706,757
374,5	1593,1
374,9	1477,386
375,4	1367,557
375,9	1268,214
376,3	1166,1
376,8	1071,3
377,2	994,5
377,7	912,043
378,2	843,386
378,6	771,643
379,1	707,957
379,5	650,757
380	604,3
380,4	549,986
380,9	510,043
381,4	469,9
381,8	434,986
382,3	403,386
382,7	370,957
383,2	332,757
383,6	309,443
384,1	282,957
384,6	258,157
385	238,871
385,5	220,243
385,9	205,843
386,4	196,243
386,8	184,1
387,3	170,929
387,7	164,814
388,2	153,614
388,7	145,386
389,1	134,757
389,6	122,9
390	114,929
390,5	113,329
390,9	107,186
391,4	107,643
391,9	98,357
392,3	90,471
392,8	89,729
393,2	82,043
393,7	75,7
394,1	71,786
394,6	60,1
395,1	60,557
395,5	61,729
396	63,043
396,4	64,986
396,9	63,786
397,3	59,7
397,8	59,729
398,2	57,871
398,7	56,671
399,2	48,386
399,6	48,329
400,1	41,757
400,5	43,957
401	47,443
401,4	46,129
401,9	48,157
402,4	50,986
402,8	50,643
403,3	53,671
403,7	53,871
404,2	53,643
404,6	54,586
405,1	54,043
405,5	50,929
406	51,1
406,5	52,586
406,9	53,271
407,4	54,414
407,8	61,1
408,3	65,757
408,7	80,414
409,2	87,186
409,6	94,7
410,1	105,186
410,6	113,1
411	119,214
411,5	125,043
411,9	124,5
412,4	130,3
412,8	140,471
413,3	144,671
413,7	153,157
414,2	162,671
414,7	179,386
415,1	190,957
415,6	205,929
416	217,443
416,5	228,557
416,9	241,043
417,4	257,957
417,8	271,529
418,3	294,357
418,8	305,043
419,2	324,471
419,7	350,929
420,1	369,9
420,6	388,671
421	408,986
421,5	428,529
421,9	457,529
422,4	480,443
422,8	503,186
423,3	531,243
423,8	560,471
424,2	587,186
424,7	621,243
425,1	649,843
425,6	686,871
426	721,386
426,5	761,757
426,9	804,414
427,4	848,9
427,9	885,871
428,3	936,557
428,8	980,614
429,2	1026,071
429,7	1076,729
430,1	1129,5
430,6	1188,1
431	1249,586
431,5	1314,214
431,9	1382,271
432,4	1464,729
432,8	1537,471
433,3	1613,557
433,8	1692,843
434,2	1777,5
434,7	1862,5
435,1	1954,443
435,6	2050,186
436	2153,329
436,5	2264,7
436,9	2375,386
437,4	2494,557
437,8	2617,129
438,3	2742,929
438,8	2869,043
439,2	3006,214
439,7	3143,957
440,1	3284,329
440,6	3437,729
441	3590,214
441,5	3754,786
441,9	3923,129
442,4	4095,843
442,8	4263,986
443,3	4451,986
443,7	4626,929
444,2	4820,843
444,7	5010,243
445,1	5210,357
445,6	5412,386
446	5633,157
446,5	5848,871
446,9	6082,357
447,4	6320,814
447,8	6558,071
448,3	6797,014
448,7	7040,7
449,2	7295,271
449,6	7549,214
450,1	7808,986
450,6	8062,186
451	8322,157
451,5	8598,957
451,9	8887,357
452,4	9169,986
452,8	9469,871
453,3	9760,271
453,7	10058,786
454,2	10376,786
454,6	10683,871
455,1	10994,529
455,5	11309,986
456	11619,3
456,4	11954,129
456,9	12293,729
457,3	12631,386
457,8	12966,814
458,3	13315,129
458,7	13665,043
459,2	14017,1
459,6	14368,3
460,1	14717,614
460,5	15055,014
461	15413,471
461,4	15765,643
461,9	16121,471
462,3	16481,757
462,8	16839,014
463,2	17190,243
463,7	17557,614
464,1	17917,243
464,6	18277,243
465	18633,7
465,5	18983,871
466	19325,986
466,4	19670,7
466,9	20009,214
467,3	20346,071
467,8	20685,957
468,2	21018,471
468,7	21356,1
469,1	21692,014
469,6	22035,186
470	22378,7
470,5	22706,814
470,9	23020,586
471,4	23335,271
471,8	23634,614
472,3	23933,357
472,7	24223,814
473,2	24509,357
473,6	24784,929
474,1	25064,614
474,5	25336,443
475	25620,986
475,4	25888,043
475,9	26161,557
476,4	26416,414
476,8	26664,1
477,3	26902,014
477,7	27139,5
478,2	27350,271
478,6	27557,529
479,1	27743,986
479,5	27952,643
480	28145,5
480,4	28338,243
480,9	28506,071
481,3	28668,443
481,8	28840,843
482,2	28988,7
482,7	29122,529
483,1	29258,929
483,6	29361,329
484	29464,243
484,5	29564,1
484,9	29651,386
485,4	29739,729
485,8	29789,957
486,3	29854,186
486,7	29904,757
487,2	29966,271
487,6	30001,671
488,1	30028,671
488,5	30059,586
489	30083,843
489,4	30086,957
489,9	30091,329
490,4	30073,329
490,8	30068,3
491,3	30032,014
491,7	29990,614
492,2	29953,329
492,6	29901,157
493,1	29851,814
493,5	29762,1
494	29683,814
494,4	29612,386
494,9	29515,329
495,3	29422,786
495,8	29328,414
496,2	29218,129
496,7	29129,843
497,1	29020,843
497,6	28911,3
498	28811,243
498,5	28684,814
498,9	28547,386
499,4	28424,843
499,8	28307,1
500,3	28177,329
500,7	28036,271
501,2	27881,071
501,6	27739,129
502,1	27590,757
502,5	27427,014
503	27258,043
503,4	27088,043
503,9	26917,843
504,3	26748,5
504,8	26558,071
505,2	26397,129
505,7	26215,243
506,1	26036,671
506,6	25841,186
507	25652,243
507,5	25465,3
507,9	25278,757
508,4	25065,1
508,8	24865,386
509,3	24652,071
509,7	24456,214
510,2	24240,843
510,6	24029,671
511,1	23825,214
511,5	23617,243
512	23413,7
512,4	23201,671
512,9	22980,471
513,3	22777,357
513,8	22567,414
514,2	22360,243
514,7	22140,243
515,1	21928,986
515,6	21715,014
516	21518,329
516,5	21296,186
516,9	21080,843
517,4	20854,071
517,8	20647,986
518,3	20426,9
518,7	20205,329
519,2	19984,729
519,6	19778,786
520,1	19556,443
520,5	19349,5
521	19135,986
521,4	18935,9
521,9	18755,271
522,3	18559,186
522,8	18355,729
523,2	18163,071
523,7	17970,557
524,1	17775,386
524,6	17563,986
525	17358,9
525,5	17167,671
525,9	16975,843
526,4	16779,5
526,8	16580,643
527,3	16394,643
527,7	16230,614
528,2	16027,471
528,6	15841,7
529,1	15665,757
529,5	15485,586
530	15316,729
530,4	15143,043
530,9	14952,814
531,3	14805,957
531,8	14630,5
532,2	14466,814
532,6	14309,3
533,1	14136,071
533,5	13971,157
534	13815,329
534,4	13650,614
534,9	13495,986
535,3	13339,014
535,8	13181,671
536,2	13038,1
536,7	12893,843
537,1	12741,729
537,6	12593,586
538	12447,929
538,5	12296,3
538,9	12156,671
539,4	12012,014
539,8	11877,729
540,3	11733,414
540,7	11600,529
541,2	11470,529
541,6	11348,557
542,1	11222,3
542,5	11099,386
543	10976,843
543,4	10868,3
543,9	10738,014
544,3	10618,3
544,8	10496,043
545,2	10382,986
545,7	10266,557
546,1	10147,329
546,5	10036,957
547	9927,243
547,4	9820,843
547,9	9712,043
548,3	9599,9
548,8	9502,786
549,2	9398,3
549,7	9292,843
550,1	9210,843
550,6	9112,357
551	9021,1
551,5	8933,671
551,9	8844,157
552,4	8753,386
552,8	8666,443
553,3	8566,471
553,7	8478,671
554,2	8387,557
554,6	8296,614
555,1	8208,986
555,5	8135,843
555,9	8057,7
556,4	7979,557
556,8	7900,7
557,3	7825,443
557,7	7753,5
558,2	7673,129
558,6	7596,7
559,1	7518,129
559,5	7445,157
560	7375,957
560,4	7300,586
560,9	7226,7
561,3	7156,7
561,8	7090,1
562,2	7019,443
562,7	6947,986
563,1	6874,186
563,6	6810,3
564	6753,814
564,4	6696,129
564,9	6617,986
565,3	6561,9
565,8	6511,614
566,2	6452,414
566,7	6394,757
567,1	6331,757
567,6	6272,386
568	6222,843
568,5	6166,557
568,9	6107,357
569,4	6055,929
569,8	5995,729
570,3	5942,243
570,7	5882,471
571,1	5828,329
571,6	5775,871
572	5726,386
572,5	5672,414
572,9	5631,871
573,4	5576,757
573,8	5533,5
574,3	5482,1
574,7	5432,1
575,2	5383,271
575,6	5338,9
576,1	5289,871
576,5	5239,9
576,9	5195,443
577,4	5155,014
577,8	5115,014
578,3	5070,814
578,7	5026,5
579,2	4985,814
579,6	4950,3
580,1	4907,529
580,5	4863,871
581	4822,614
581,4	4775,957
581,9	4736,614
582,3	4693,557
582,7	4654,3
583,2	4615,014
583,6	4574,786
584,1	4535,786
584,5	4502,757
585	4463,243
585,4	4425,757
585,9	4384,386
586,3	4346,729
586,8	4311,5
587,2	4278,529
587,6	4241,271
588,1	4203,729
588,5	4166,129
589	4132,986
589,4	4098,329
589,9	4068,871
590,3	4030,986
590,8	4003,729
591,2	3972,757
591,7	3946,529
592,1	3920,7
592,5	3887,957
593	3861,529
593,4	3831,871
593,9	3794,671
594,3	3762,471
594,8	3734,3
595,2	3707,129
595,7	3686,5
596,1	3659,357
596,6	3637,329
597	3617,929
597,4	3599,557
597,9	3574,357
598,3	3547,157
598,8	3519,471
599,2	3490,814
599,7	3461,443
600,1	3439,3
600,6	3420,071
601	3398,929
601,4	3380,557
601,9	3357,5
602,3	3336,871
602,8	3317,671
603,2	3296,043
603,7	3267,614
604,1	3246,757
604,6	3218,1
605	3195,957
605,4	3168,471
605,9	3143,871
606,3	3124,5
606,8	3100,757
607,2	3075,986
607,7	3060,414
608,1	3038,786
608,6	3021,243
609	3000,357
609,4	2976,643
609,9	2956,586
610,3	2934,871
610,8	2913,986
611,2	2892,7
611,7	2868,014
612,1	2847,329
612,6	2825,414
613	2806,414
613,4	2788,9
613,9	2769,729
614,3	2750,957
614,8	2730,271
615,2	2713,243
615,7	2690,329
616,1	2670,7
616,6	2654,471
617	2628,929
617,4	2607,529
617,9	2592,443
618,3	2576,786
618,8	2556,814
619,2	2540,214
619,7	2518,9
620,1	2502,614
620,5	2490,443
621	2469,071
621,4	2448,586
621,9	2438,186
622,3	2421,843
622,8	2402,9
623,2	2382,957
623,6	2364,271
624,1	2359,1
624,5	2339,186
625	2313,9
625,4	2295,471
625,9	2279,9
626,3	2263,186
626,8	2244,9
627,2	2220,1
627,6	2205,957
628,1	2193,7
628,5	2181,329
629	2164,471
629,4	2148,729
629,9	2136,357
630,3	2125,929
630,7	2109,471
631,2	2095,929
631,6	2075,614
632,1	2060,071
632,5	2051,643
633	2030,957
633,4	2010,529
633,8	1997,586
634,3	1980,757
634,7	1968,986
635,2	1954,471
635,6	1937,443
636,1	1928,9
636,5	1920,186
636,9	1902,157
637,4	1889,129
637,8	1872,9
638,3	1857,843
638,7	1841,157
639,2	1824,843
639,6	1807,586
640	1796,1
640,5	1786,529
640,9	1777,843
641,4	1763,386
641,8	1748,529
642,2	1742,471
642,7	1732,529
643,1	1726,014
643,6	1713,5
644	1703,243
644,5	1692,786
644,9	1687,3
645,3	1671,357
645,8	1663,986
646,2	1656,3
646,7	1646,414
647,1	1634,414
647,6	1623,757
648	1615,329
648,4	1605,529
648,9	1593,3
649,3	1576,129
649,8	1564,1
650,2	1550,329
650,6	1537,157
651,1	1526,643
651,5	1517,471
652	1505,986
652,4	1492,7
652,9	1490,157
653,3	1483,614
653,7	1476,186
654,2	1466,271
654,6	1452,3
655,1	1435,957
655,5	1427,071
655,9	1405,243
656,4	1395,9
656,8	1388,157
657,3	1373,357
657,7	1363,186
658,2	1360,186
658,6	1350,271
659	1341,929
659,5	1328,157
659,9	1319,186
660,4	1309,557
660,8	1302,271
661,2	1291,243
661,7	1281,071
662,1	1274,443
662,6	1268,643
663	1257,043
663,4	1247,986
663,9	1236,529
664,3	1231,129
664,8	1227,529
665,2	1218,271
665,6	1207,7
666,1	1201,043
666,5	1195,414
667	1182,671
667,4	1171,471
667,9	1157,043
668,3	1147,843
668,7	1138,843
669,2	1130,071
669,6	1120,786
670,1	1116,357
670,5	1106,643
670,9	1098,671
671,4	1088,786
671,8	1084,386
672,3	1072,957
672,7	1061,871
673,1	1052,357
673,6	1044,1
674	1037,957
674,5	1035,957
674,9	1024,243
675,3	1021,614
675,8	1016,643
676,2	1016,014
676,7	1010,129
677,1	1005,814
677,5	993,757
678	985,271
678,4	974,1
678,9	967,357
679,3	954,186
679,7	944,671
680,2	940,671
680,6	932,443
681,1	924,071
681,5	925,414
681,9	918,157
682,4	918,871
682,8	913,5
683,3	900,386
683,7	894,157
684,1	888,814
684,6	872,414
685	865,5
685,5	857,757
685,9	852,157
686,3	851,3
686,8	847,443
687,2	847,929
687,7	846,614
688,1	842,414
688,5	836,529
689	829,671
689,4	825,271
689,9	820,243
690,3	813,186
690,7	807,957
691,2	804,271
691,6	795,271
692	785,757
692,5	774,357
692,9	768,757
693,4	764,929
693,8	758,614
694,2	745,786
694,7	740,871
695,1	742,157
695,6	738,929
696	735,957
696,4	726,214
696,9	720,986
697,3	723,614
697,8	715,014
698,2	706,129
698,6	701,357
699,1	693,271
699,5	685,7
699,9	680,357
700,4	671,3
700,8	671,786
701,3	667,3
701,7	663,557
702,1	659,5
702,6	658,9
703	652,043
703,5	645,443
703,9	640,5
704,3	638,5
704,8	633,271
705,2	627,3
705,6	618,814
706,1	620,186
706,5	617,443
707	610,814
707,4	609,214
707,8	601,986
708,3	598,071
708,7	598,871
709,2	590,643
709,6	588,357
710	583,843
710,5	572,414
710,9	566,9
711,3	561,1
711,8	551,157
712,2	547,729
712,7	543,729
713,1	540,243
713,5	537,814
714	532,871
714,4	528,814
714,8	528,671
715,3	527,157
715,7	521,386
716,2	514,957
716,6	514,214
717	513,643
717,5	513,3
717,9	508,243
718,3	499,529
718,8	493,814
719,2	494,043
719,7	490,643
720,1	485,671
720,5	481,471
721	479,729
721,4	482,671
721,8	482,9
722,3	474,643
722,7	464,186
723,2	459,929
723,6	454,786
724	447,443
724,5	436,443
724,9	429,186
725,3	425,471
725,8	426,071
726,2	423,643
726,7	421,414
727,1	416,814
727,5	415,614
728	417,757
728,4	413,243
728,8	409,7
729,3	403,271
729,7	401,786
730,1	400,014
730,6	398,157
731	395,386
731,5	393,986
731,9	394,157
732,3	399,671
732,8	392,7
733,2	391,643
733,6	392,929
734,1	389,7
734,5	384,5
734,9	379,357
735,4	377,071
735,8	377,643
736,3	379,529
736,7	374,3
737,1	370,1
737,6	373,414
738	370,1
738,4	365,786
738,9	367,786
739,3	358,614
739,7	355,614
740,2	354,757
740,6	349,271
741,1	350,871
741,5	347,586
741,9	339,529
742,4	339,129
742,8	340,614
743,2	339,043
743,7	340,757
744,1	334,871
744,5	331,386
745	325,471
745,4	327,1
745,8	323,043
746,3	322,443
746,7	319,9
747,2	323,786
747,6	326,471
748	328,871
748,5	322,386
748,9	313,329
749,3	311,014
749,8	305,7
750,2	299,9
750,6	297,5
751,1	295,1
751,5	293,3
751,9	296,157
752,4	291,271
752,8	289,043
753,3	289,529
753,7	284,071
754,1	279,757
754,6	279,986
755	277,814
755,4	271,671
755,9	271,329
756,3	263,843
756,7	261,129
757,2	263,271
757,6	261,157
758	257,586
758,5	259,7
758,9	256,986
759,3	259,671
759,8	261,643
760,2	261,243
760,6	259,7
761,1	258,271
761,5	257,471
761,9	258,043
762,4	256,043
762,8	247,357
763,3	241,757
763,7	237,357
764,1	233,586
764,6	230,871
765	228,929
765,4	226,3
765,9	226,157
766,3	227,643
766,7	226,157
767,2	231,7
767,6	230,186
768	231,014
768,5	226,043
768,9	223,814
769,3	220,014
769,8	224,243
770,2	222,814
770,6	220,243
771,1	220,9
771,5	221,929
771,9	224,243
772,4	226,5
772,8	221,929
773,2	219,614
773,7	220,957
774,1	219,614
774,5	217,3
775	212,729
775,4	209,443
775,8	205,1
776,3	201,986
776,7	201,186
777,1	200,7
777,6	201,3
778	205,557
778,4	202,357
778,9	206,786
779,3	205,729
779,7	202,7
780,2	197,186
780,6	193,957
781	189,414
781,5	191,186
781,9	187,157
782,3	185,043
782,8	183,871
783,2	183,357
783,6	183,671
784,1	183,929
784,5	182,729
784,9	177,929
785,4	180,843
785,8	180,129
786,2	178,271
786,7	176,871
787,1	170,671
787,5	170,757
788	173,529
788,4	164,843
788,8	158,586
789,3	158,986
789,7	155,357
790,1	159,529
790,6	157,329
791	157,5
791,4	157,929
791,9	161,386
792,3	158,1
792,7	161,643
793,2	152,814
793,6	151,271
794	146,7
794,5	146,557
794,9	145,557
795,3	146,7
795,8	141,871
796,2	146,529
796,6	141,386
797,1	142,357
797,5	141,643
797,9	139,471
798,4	135,871
798,8	136,786
799,2	135,471
799,7	140,329
800,1	137,043
800,5	136,643
801	138,586
801,4	133,3
801,8	130,757
802,2	133,357
802,7	130,157
803,1	127,071
803,5	129,729
804	125,129
804,4	124,671
804,8	128,986
805,3	123,814
805,7	120,271
806,1	128,357
806,6	126,386
807	130,014
807,4	131,471
807,9	127,357
808,3	126,1
808,7	125,071
809,2	119,529
809,6	114,729
810	113,329
810,4	113,3
810,9	110,3
811,3	112,043
811,7	116,729
812,2	119,214
812,6	119,757
813	119,443
813,5	120,014
813,9	119,329
814,3	113,957
814,8	111,043
815,2	105,3
815,6	100,814
816,1	92,386
816,5	88,986
816,9	90,3
817,3	92,243
817,8	93,7
818,2	94,557
818,6	98,643
819,1	102,729
819,5	104,014
819,9	104,729
820,4	106,671
820,8	97,957
821,2	95,786
821,7	94,157
822,1	90,186
822,5	89,7
822,9	89,129
823,4	89,129
823,8	94,614
824,2	94,414
824,7	99,929
825,1	101,614
825,5	102,157
826	98,586
826,4	98,443
826,8	98,757
827,3	101,129
827,7	99,243
828,1	105,071
828,5	105,757
829	107,443
829,4	108,557
829,8	100,357
830,3	96,614
830,7	89,757
831,1	82,7
831,6	78,671
832	71,071
832,4	65,929
832,8	70,586
833,3	69,357
833,7	74,586
834,1	77,043
834,6	75,671
835	82,271
835,4	85,329
835,8	78,7
836,3	77,814
836,7	70,814
837,1	68,071
837,6	66,1
838	62,529
838,4	56,814
838,9	63,986
839,3	64,957
839,7	64,986
840,1	62,843
840,6	65,3
841	66,414
841,4	67,729
841,9	66,243
842,3	68,9
842,7	71,5
843,1	73,243
843,6	74,443
844	73,271
844,4	72,557
844,9	71,7
845,3	65,129
845,7	62,814
846,2	61,9
846,6	59,9
847	61,529
847,4	61,014
847,9	58,414
848,3	65,186
848,7	64,386
849,2	64,414
849,6	62,414
850	57,214
850,4	60,129
850,9	62,186
851,3	57,043
851,7	55,671
852,2	49,586
852,6	51,186
853	54,843
853,4	57,586
853,9	54,014
854,3	56,3
854,7	56,329
855,2	60,1
855,6	56,929
856	51,157
856,4	45,043
856,9	46,814
857,3	44,043
857,7	51,129
858,2	50,243
858,6	57,129
859	56,929
859,4	59,3
859,9	56,043
860,3	58,986
860,7	52,529
861,1	53,614
861,6	48,3
862	49,986
862,4	48,986
862,9	50,557
863,3	44,786
863,7	42,271
864,1	41,7
864,6	41,129
865	41,186
865,4	35,5
865,9	32,586
866,3	37,9
866,7	39,414
867,1	44,043
867,6	42,5
868	41,814
868,4	42,443
868,8	45,814
869,3	41,3
869,7	37,186
870,1	37,186
870,6	37,471
871	56,529
871,4	61,214
871,8	59,271
872,3	59,729
872,7	60,129
873,1	56,9
873,5	57,471
874	42,043
874,4	39,671
874,8	38,757
875,3	40,5
875,7	40,443
876,1	38,529
876,5	41,843
877	39,157
877,4	33,643
877,8	38,843
878,2	35,357
878,7	40,9
879,1	42,1
879,5	38,386
879,9	39,671
880,4	41,757
880,8	36,871
881,2	38,557
881,7	38,243
882,1	38,557
882,5	35,186
882,9	32,214
883,4	33,243
883,8	34,557
884,2	33,529
884,6	32,271
885,1	33,957
885,5	38,529
885,9	41,986
886,3	41,786
886,8	38,729
887,2	38,843
887,6	33,243
888	24,557
888,5	24,1
888,9	22,671
889,3	19,129
889,8	17,986
890,2	13,586
890,6	18,957
891	24,786
891,5	26,529
891,9	26,014
892,3	25,357
892,7	24,471
893,2	29,871
893,6	26,757
894	27,871
894,4	25,957
894,9	25,643
895,3	26,329
895,7	32,471
896,1	33,214
896,6	31,386
897	28,643
897,4	23,357
897,8	22,757
898,3	27,014
898,7	19,9
899,1	19,1
899,5	17,071
900	12,786
900,4	12,9
900,8	16,3
901,2	10,014
901,7	10,414
902,1	7,757
902,5	9,414
902,9	16,786
903,4	21,671
903,8	15,757
904,2	22,786
904,6	20,557
905,1	23,814
905,5	23,043
905,9	18,7
906,3	15,3
906,8	13,9
907,2	10,471
907,6	15,529
908	11,271
908,5	14,329
908,9	12,3
909,3	10,443
909,7	11,3
910,2	12,443
910,6	12,071
911	11,529
911,4	8,471
911,9	11,557
912,3	11,871
912,7	11,014
913,1	5,243
913,6	6,329
914	9,3
914,4	6,729
914,8	8,214
915,3	10,1
915,7	9,9
916,1	14,157
916,5	13,186
916,9	10,157
917,4	15,157
917,8	9,757
918,2	6,586
918,6	5,1
919,1	3,1
919,5	3,871
919,9	1,9
920,3	2,986
920,8	3,757
921,2	9,329
921,6	14,3
922	13,471
922,5	11,014
922,9	12,386
923,3	8,414
923,7	7,043
924,2	2,071
924,6	-1,386
925	-0,329
925,4	-2,5
925,8	-0,871
926,3	4,129
926,7	7,843
927,1	6,7
927,5	8,814
928	9,329
928,4	10,957
928,8	14,357
929,2	12,357
929,7	7,243
930,1	7,871
930,5	4,071
930,9	5,7
931,3	8,414
931,8	3,414
932,2	3,557
932,6	6,986
933	8,9
933,5	14,414
933,9	14,1
934,3	12,271
934,7	18,414
935,2	18,557
935,6	18,186
936	17,071
936,4	14,157
936,8	11,729
937,3	15,7
937,7	11,214
938,1	5,7
938,5	2,243
939	3,671
939,4	6,3
939,8	8,929
940,2	1,557
940,6	0,557
941,1	4,957
941,5	12,471
941,9	10,786
942,3	7,386
942,8	7,414
943,2	5,871
943,6	9,557
944	8,671
944,4	1,271
944,9	2,786
945,3	5,129
945,7	4,757
946,1	7,871
946,6	4,9
947	7,386
947,4	10,471
947,8	12,386
948,2	10,671
948,7	14,671
949,1	14,3
949,5	12,271
949,9	11,557
950,3	13,357
950,8	7,214
951,2	7,957
951,6	5,614
952	5,843
952,5	3,329
952,9	1,1
953,3	-3,471
953,7	1,957
954,1	3,443
954,6	3,157
955	9,5
955,4	11,7
955,8	18,414
956,2	17,357
956,7	17,386
957,1	16,929
957,5	12,443
957,9	8,529
958,3	13,3
958,8	6,786
959,2	10,871
959,6	7,614
960	6,7
960,5	8,671
960,9	8,929
961,3	1,757
961,7	-0,643
962,1	1,757
962,6	3,9
963	0,671
963,4	0,614
963,8	1,129
964,2	4,157
964,7	4,243
965,1	4,271
965,5	1,557
965,9	5,5
966,3	2,471
966,8	1,929
967,2	4,243
967,6	5,614
968	6,414
968,4	12,729
968,9	11,329
969,3	14,043
969,7	10,043
970,1	10,414
970,5	14,157
971	7,843
971,4	4,671
971,8	4,871
972,2	6,871
972,6	8,157
973,1	5,443
973,5	2,614
973,9	5,471
974,3	2,871
974,7	-0,043
975,2	-5,329
975,6	-6,043
976	-3,986
976,4	-5,643
976,8	-4,586
977,3	-4,7
977,7	-2,014
978,1	1,357
978,5	1,414
978,9	0,243
979,4	4,9
979,8	4,414
980,2	2,957
980,6	2,757
981	3,614
981,5	4,986
981,9	2,986
982,3	-2,843
982,7	-2,986
983,1	2,043
983,6	1,9
984	0,157
984,4	-0,614
984,8	3,557
985,2	8,243
985,6	9,329
986,1	5,643
986,5	1,814
986,9	2,671
987,3	0,957
987,7	0,214
988,2	-0,643
988,6	-2,643
989	-2,186
989,4	4,329
989,8	0,071
990,3	3,357
990,7	0,414
991,1	-2,643
991,5	-4,3
991,9	-3,043
992,3	-3,7
992,8	4,5
993,2	7,614
993,6	8,729
994	8,871
994,4	6,014
994,9	6,386
995,3	4,957
995,7	-0,1
996,1	-4,671
996,5	-2,071
996,9	-4,643
997,4	-2,414
997,8	-0,957
998,2	-0,214
998,6	3,014
999	3,7
999,5	2,986
999,9	8,129
1000,3	12,071
1000,7	4,986
1001,1	3,986
1001,5	-2,529
1002	-1,786
1002,4	-4,043
1002,8	-1,643
1003,2	-3,871
1003,6	3,414
1004	4,414
1004,5	7,471
1004,9	6,157
1005,3	1,786
1005,7	-2,157
1006,1	-2,643
1006,6	-4,1
1007	-5,243
1007,4	-6,386
1007,8	-8,471
1008,2	-6,843
1008,6	-10,357
1009,1	-13,157
1009,5	-9,671
1009,9	-4,357
1010,3	-1,243
1010,7	3,786
1011,1	9,786
1011,6	15,243
1012	14,9
1012,4	13,757
1012,8	5,443
1013,2	3,5
1013,6	4,129
1014,1	2,729
1014,5	2,3
1014,9	8,014
1015,3	5,729
1015,7	8,157
1016,1	11,243
1016,6	11,1
1017	9,5
1017,4	7,414
1017,8	4,871
1018,2	0,729
1018,6	2,386
1019,1	-2,529
1019,5	-2,757
1019,9	0,814
1020,3	-0,3
1020,7	0,271
1021,1	4,157
1021,6	-1,214
1022	-0,043
1022,4	0,671
1022,8	-0,871
1023,2	3,129
1023,6	3,414
1024,1	6,014
1024,5	10,7
1024,9	14,814
1025,3	13,814
1025,7	17,157
1026,1	14,786
1026,6	13,186
1027	8,186
1027,4	5,071
1027,8	1,1
1028,2	3,557
1028,6	1,071
1029	1,014
1029,5	4,871
1029,9	7,614
1030,3	13,929
1030,7	16,357
1031,1	12,271
1031,5	6,157
1032	9,729
1032,4	1,729
1032,8	2,071
1033,2	0,643
1033,6	2,529
1034	3,414
1034,4	12,271
1034,9	6,586
1035,3	12,043
1035,7	11,529
1036,1	9,1
1036,5	1,986
1036,9	0,957
1037,4	0,271
1037,8	2,157
1038,2	-2,1
1038,6	-3,986
1039	-5,214
1039,4	-0,014
1039,8	-7,986
1040,3	-12,129
1040,7	-17,157
1041,1	-11,471
1041,5	-13,186
1041,9	-15,786
1042,3	-15,957
1042,7	-7,7
1043,2	-9,129
1043,6	1,7
1044	-0,386
1044,4	-2,529
1044,8	-1,329
1045,2	-0,243
1045,6	4,614
1046,1	7,214
1046,5	5,443
1046,9	6,729
1047,3	10,186
1047,7	10,071
1048,1	4,614
1048,5	2,957
1049	2,957
1049,4	-0,414
1049,8	-5,929
1050,2	-3,614
1050,6	-0,157
1051	4,443
1051,4	0,471
1051,9	1,271
1052,3	-2,271
1052,7	-0,5
1053,1	-0,157
1053,5	0,871
1053,9	-2,5
1054,3	-3,3
1054,8	-1,357
1055,2	0,757
1055,6	4,9
1056	2,471
1056,4	4,729
1056,8	9,5
1057,2	11,5
1057,6	4,014
1058,1	3,3
1058,5	-1,7
1058,9	0,929
1059,3	2,443
1059,7	-0,471
1060,1	-1,871
1060,5	-1,243
1061	-1,471
1061,4	5,957
1061,8	3,186
1062,2	-2,557
1062,6	-3,5
1063	-2,557
1063,4	-2,871
1063,8	-1,357
1064,3	-7,043
1064,7	-9,729
1065,1	-9,9
1065,5	-7,129
1065,9	-7,7
1066,3	-8,386
1066,7	-7,786
1067,1	-8,443
1067,6	-2,414
1068	-3,986
1068,4	-4,957
1068,8	-5,843
1069,2	-6,643
1069,6	-5,643
1070	-1,557
1070,4	-4,471
1070,9	-2,443
1071,3	-3,129
1071,7	-1,271
1072,1	5,043
1072,5	6,529
1072,9	8,043
1073,3	8,271
1073,7	5,643
1074,2	7,3
1074,6	5,5
1075	5,414
1075,4	2,7
1075,8	2,471
1076,2	4,157
1076,6	6,614
1077	3,7
1077,5	5,3
1077,9	6,929
1078,3	8,643
1078,7	4,614
1079,1	9,329
1079,5	7,671
1079,9	11,929
1080,3	11,471
1080,7	11,3
1081,2	8,5
1081,6	12,186
1082	8,271
1082,4	6,957
1082,8	2,271
1083,2	-0,929
1083,6	-2,729
1084	-2,7
1084,5	-7,214
1084,9	-10,214
1085,3	-4,843
1085,7	-6,214
1086,1	-6,129
1086,5	-4,3
1086,9	-2,386
1087,3	1,529
1087,7	6,871
1088,2	1,329
1088,6	2,671
1089	6,186
1089,4	2,386
1089,8	4,729
1090,2	8,9
1090,6	7,043
1091	13,843
1091,4	17,186
1091,9	17,586
1092,3	20,1
1092,7	17,186
1093,1	7,814
1093,5	3,243
1093,9	0,671
1094,3	1,5
1094,7	-0,3
1095,1	-1,957
1095,5	-0,614
1096	-1,814
1096,4	2,471
1096,8	-2,071
1097,2	-4,186
1097,6	-3,386
1098	-3,186
1098,4	-4,871
1098,8	-2,1
1099,2	-3,986
1099,6	1,129
1100,1	1,071
1100,5	1,471
1100,9	1,957
1101,3	2,929
1101,7	7,529
1102,1	9,757
1102,5	6,843
1102,9	1,786
1103,3	1,329
1103,7	-0,529
1104,2	-0,1
1104,6	-0,786
1105	-2,557
1105,4	-1,414
1105,8	3,986
1106,2	3,957
1106,6	3,757
1107	2,814
1107,4	0,8
1107,8	-0,1
1108,3	-0
