Data from Subt2_256.txt Node
Date: Sat Aug 26 19:00:43 MSK 2023
User: vat
Spectrometer: MAYP114033
Trigger mode: 0
Integration Time (sec): 1,000000E0
Scans to average: 5
Electric dark correction enabled: true
Nonlinearity correction enabled: false
Boxcar width: 3
XAxis mode: Wavelengths
Number of Pixels in Spectrum: 2068
>>>>>Begin Spectral Data<<<<<
199,4	-0,5
199,9	3,52
200,4	1,433
200,8	2,971
201,3	-0,029
201,8	3,457
202,2	1,4
202,7	5,486
203,2	1,314
203,6	2,629
204,1	-3,286
204,6	1,429
205	0,286
205,5	2,143
206	-1,086
206,4	2,514
206,9	3,743
207,4	9,343
207,8	7,943
208,3	5,171
208,8	3,829
209,2	5,571
209,7	1,371
210,2	1,857
210,6	-0,4
211,1	1,4
211,5	-1,714
212	0,8
212,5	-2,429
212,9	-0,714
213,4	-0,6
213,9	0,829
214,3	-0,743
214,8	5,771
215,3	6,571
215,7	7,229
216,2	9,4
216,7	7,971
217,1	3,2
217,6	4,257
218,1	-0,486
218,5	-2,6
219	-5,257
219,5	-5,229
219,9	-9,429
220,4	0,086
220,9	-3,057
221,3	1,429
221,8	3,829
222,3	9,571
222,7	12,057
223,2	11,314
223,6	3,857
224,1	4,6
224,6	3,143
225	-0,657
225,5	-4,2
226	-6,514
226,4	-2,371
226,9	0
227,4	1,571
227,8	-0,686
228,3	3,886
228,8	3,086
229,2	3,571
229,7	3
230,2	1,229
230,6	3,829
231,1	9,971
231,5	7,2
232	10,657
232,5	8,286
232,9	10,343
233,4	13,543
233,9	4,571
234,3	0,714
234,8	1,914
235,3	-0,057
235,7	3,743
236,2	4,6
236,7	3,143
237,1	11,486
237,6	8,743
238,1	6,686
238,5	3,486
239	0,714
239,4	3,914
239,9	2,571
240,4	1,857
240,8	4,257
241,3	1,086
241,8	4,086
242,2	3,771
242,7	-5,371
243,2	-1,429
243,6	-5,743
244,1	-2,886
244,6	3,686
245	-0,057
245,5	-2,343
245,9	0,629
246,4	-3,429
246,9	-0,457
247,3	-3,571
247,8	-3,229
248,3	5,314
248,7	9,857
249,2	13,2
249,7	10,914
250,1	15,257
250,6	15,6
251	17,4
251,5	15,771
252	13,686
252,4	14,486
252,9	15,257
253,4	9,257
253,8	9,314
254,3	8
254,8	5,257
255,2	-0,657
255,7	-4,857
256,1	1,143
256,6	1,029
257,1	5,114
257,5	-0,629
258	-1,629
258,5	4,914
258,9	5,486
259,4	2,4
259,9	4,514
260,3	-0,286
260,8	0,4
261,2	0,686
261,7	0,171
262,2	-1,629
262,6	0,371
263,1	0,429
263,6	3,371
264	9,2
264,5	11,657
264,9	9,543
265,4	10,629
265,9	7,829
266,3	12,057
266,8	10,629
267,3	6,171
267,7	4,657
268,2	8,029
268,7	9,857
269,1	10,343
269,6	3,543
270	4,2
270,5	4
271	2,886
271,4	2,514
271,9	2,114
272,4	3,086
272,8	5,486
273,3	3,4
273,7	5,086
274,2	9,771
274,7	9,029
275,1	9,4
275,6	8,543
276,1	6
276,5	10,286
277	9,971
277,4	6,971
277,9	5,171
278,4	8,6
278,8	13,543
279,3	17,457
279,8	17,914
280,2	18,143
280,7	20,229
281,1	17,657
281,6	13,971
282,1	13,886
282,5	12,2
283	8,829
283,4	6,657
283,9	6,429
284,4	14,057
284,8	13,914
285,3	8,429
285,8	9,543
286,2	5,971
286,7	7,429
287,1	3,286
287,6	-3,086
288,1	-1,171
288,5	3,714
289	3,143
289,5	8,086
289,9	6,314
290,4	12,057
290,8	15,686
291,3	11,229
291,8	10,371
292,2	9,514
292,7	8,057
293,1	5,514
293,6	4,8
294,1	2,6
294,5	5,771
295	5,486
295,5	3,714
295,9	7,286
296,4	7,629
296,8	2,6
297,3	7,943
297,8	1,971
298,2	-1,286
298,7	5
299,1	-1,114
299,6	0,4
300,1	3,971
300,5	-1,571
301	9,343
301,5	13,486
301,9	11,171
302,4	12,743
302,8	13,371
303,3	11,743
303,8	10,029
304,2	5,543
304,7	4,771
305,1	-0,743
305,6	1,229
306,1	8,629
306,5	7,257
307	12,771
307,4	14,229
307,9	13,857
308,4	16,514
308,8	11,714
309,3	8,314
309,8	9,086
310,2	10
310,7	9,086
311,1	5,914
311,6	9,486
312,1	13,171
312,5	12,229
313	15,143
313,4	14,029
313,9	13,914
314,4	16,171
314,8	9,914
315,3	7,257
315,7	2,343
316,2	-0,629
316,7	-3,686
317,1	-1,429
317,6	-2,143
318	4,686
318,5	6,086
319	9,057
319,4	10,457
319,9	15,457
320,3	15,743
320,8	18,457
321,3	18,6
321,7	18,257
322,2	17,286
322,6	18,886
323,1	13,914
323,6	10,257
324	7,657
324,5	2,2
324,9	4,114
325,4	6,314
325,9	6,6
326,3	8,486
326,8	13,829
327,2	8,6
327,7	10,714
328,2	7,6
328,6	9,343
329,1	2,514
329,5	-0,057
330	-4,086
330,5	5,4
330,9	7
331,4	11,971
331,8	7,571
332,3	12,571
332,8	16,543
333,2	13,029
333,7	10,6
334,1	10,457
334,6	6
335,1	5,4
335,5	4,857
336	4,429
336,4	9,686
336,9	11,6
337,4	15,314
337,8	13,486
338,3	19,086
338,7	21,971
339,2	15,857
339,7	17,743
340,1	14,886
340,6	8,943
341	13,371
341,5	7,971
342	1,229
342,4	3,229
342,9	-1,857
343,3	-2,571
343,8	-1,371
344,2	-1,514
344,7	2,771
345,2	2,057
345,6	2,857
346,1	3,886
346,5	-0,829
347	-1,857
347,5	-3,743
347,9	0,743
348,4	4,514
348,8	8,8
349,3	11,171
349,8	16,914
350,2	21,8
350,7	18,571
351,1	13,857
351,6	18,371
352	22,4
352,5	26,857
353	32,457
353,4	31,8
353,9	43,6
354,3	53,4
354,8	60,314
355,3	70,714
355,7	81,286
356,2	93,086
356,6	113,143
357,1	133,857
357,5	153,114
358	183,714
358,5	206,114
358,9	234,629
359,4	266,571
359,8	305,429
360,3	351,686
360,8	396,4
361,2	445,171
361,7	508,286
362,1	577,886
362,6	656,886
363	737,657
363,5	814,8
364	914,343
364,4	1005,2
364,9	1093,771
365,3	1182,143
365,8	1261,343
366,3	1338,743
366,7	1411,8
367,2	1469,886
367,6	1517
368,1	1558,857
368,5	1582,4
369	1597,114
369,5	1600,143
369,9	1588,171
370,4	1559,343
370,8	1528,629
371,3	1481,371
371,7	1427,171
372,2	1363,029
372,7	1295,543
373,1	1226,714
373,6	1157,229
374	1083,886
374,5	1012,143
374,9	944,771
375,4	879,114
375,9	812,457
376,3	747,829
376,8	685,829
377,2	630,943
377,7	577,229
378,2	526,114
378,6	483,971
379,1	443,029
379,5	410,543
380	382,4
380,4	348,086
380,9	321,057
381,4	292,343
381,8	271,086
382,3	250,2
382,7	227,857
383,2	209,371
383,6	199,457
384,1	187,371
384,6	179,543
385	166,171
385,5	155,543
385,9	146,343
386,4	135
386,8	123,971
387,3	114,314
387,7	107,771
388,2	103,8
388,7	95,714
389,1	90,971
389,6	88,257
390	84,857
390,5	85,457
390,9	83,6
391,4	76,971
391,9	77,6
392,3	76,486
392,8	66,629
393,2	56,686
393,7	48,486
394,1	41,343
394,6	39,143
395,1	38,771
395,5	30,657
396	36,286
396,4	39,314
396,9	39,829
397,3	43,2
397,8	43,886
398,2	37,057
398,7	40,6
399,2	37,6
399,6	39,8
400,1	36,343
400,5	32
401	35,8
401,4	35,714
401,9	36,743
402,4	37,714
402,8	31,771
403,3	35,714
403,7	33,914
404,2	31,714
404,6	32,743
405,1	29,229
405,5	25,229
406	29,486
406,5	26,714
406,9	29,314
407,4	28,2
407,8	26,971
408,3	29,029
408,7	30,371
409,2	37,057
409,6	38,686
410,1	40,343
410,6	42,4
411	41,943
411,5	43,057
411,9	45,114
412,4	38,886
412,8	42,486
413,3	42,2
413,7	44,714
414,2	49,171
414,7	55,514
415,1	64,114
415,6	68,371
416	69,771
416,5	72,143
416,9	71,886
417,4	75,886
417,8	79,2
418,3	80,6
418,8	86,886
419,2	89,029
419,7	94,086
420,1	96
420,6	97,771
421	93,143
421,5	92,743
421,9	90,543
422,4	92,743
422,8	93,914
423,3	93,914
423,8	92,486
424,2	94,171
424,7	93,314
425,1	93,257
425,6	96,971
426	92,6
426,5	94,171
426,9	97,657
427,4	94,114
427,9	91,229
428,3	91,171
428,8	87,114
429,2	88,371
429,7	85,971
430,1	81,686
430,6	83,886
431	81,057
431,5	79,8
431,9	73,943
432,4	76,229
432,8	78,2
433,3	80,457
433,8	82,686
434,2	89,857
434,7	92,543
435,1	98,829
435,6	105,314
436	107,514
436,5	111,286
436,9	111,257
437,4	111,743
437,8	116,543
438,3	121,057
438,8	117,457
439,2	121,629
439,7	129,229
440,1	136,629
440,6	144,086
441	146,829
441,5	149,914
441,9	159,057
442,4	163,029
442,8	166,114
443,3	173,057
443,7	179,543
444,2	188,743
444,7	196,657
445,1	201,686
445,6	208,086
446	215,714
446,5	217,714
446,9	220,286
447,4	225,457
447,8	237,4
448,3	248,057
448,7	259,771
449,2	272,029
449,6	288,429
450,1	301,657
450,6	318,286
451	329,886
451,5	342,857
451,9	358,371
452,4	372,314
452,8	384,571
453,3	406,286
453,7	415,457
454,2	429,2
454,6	443,343
455,1	456,914
455,5	471,571
456	488,314
456,4	493,886
456,9	515,657
457,3	532
457,8	543,2
458,3	560,6
458,7	571,486
459,2	589,6
459,6	609,514
460,1	623,914
460,5	641,657
461	668,086
461,4	682,171
461,9	704,514
462,3	723,657
462,8	741,971
463,2	760,857
463,7	782,229
464,1	802,371
464,6	830,714
465	854,629
465,5	877,514
466	905,2
466,4	927,543
466,9	952,971
467,3	976,457
467,8	996,743
468,2	1018,229
468,7	1039,286
469,1	1061,971
469,6	1088,457
470	1109,571
470,5	1132,543
470,9	1151,829
471,4	1172,229
471,8	1195,429
472,3	1218,457
472,7	1242,029
473,2	1261,086
473,6	1278,029
474,1	1309,771
474,5	1337,286
475	1364,429
475,4	1386,6
475,9	1406,6
476,4	1433,029
476,8	1463,029
477,3	1481,657
477,7	1504,114
478,2	1526,143
478,6	1548,371
479,1	1570,971
479,5	1591,343
480	1612,286
480,4	1640,686
480,9	1660,743
481,3	1678,257
481,8	1699,486
482,2	1714,943
482,7	1734,2
483,1	1754,857
483,6	1763,143
484	1777,886
484,5	1798,286
484,9	1813,4
485,4	1840,257
485,8	1855
486,3	1869,8
486,7	1889,943
487,2	1910,257
487,6	1926,686
488,1	1938,2
488,5	1941,543
489	1958,171
489,4	1975,4
489,9	1983,886
490,4	1998,2
490,8	2011,943
491,3	2034,543
491,7	2049,257
492,2	2067,171
492,6	2079,486
493,1	2097,371
493,5	2098,8
494	2106,543
494,4	2114,286
494,9	2129,743
495,3	2131,543
495,8	2136,086
496,2	2142,743
496,7	2152,543
497,1	2163,714
497,6	2172,171
498	2183,171
498,5	2196,286
498,9	2205,2
499,4	2213,743
499,8	2235,229
500,3	2241
500,7	2245,571
501,2	2245,657
501,6	2245,114
502,1	2250,6
502,5	2258,543
503	2257,629
503,4	2261,314
503,9	2268,343
504,3	2278,971
504,8	2286,943
505,2	2289,486
505,7	2293,143
506,1	2303,743
506,6	2311,829
507	2315,429
507,5	2318,429
507,9	2331,029
508,4	2337,257
508,8	2343
509,3	2338,457
509,7	2344,514
510,2	2350,371
510,6	2350,943
511,1	2351,657
511,5	2362,457
512	2365,086
512,4	2373,829
512,9	2378,971
513,3	2388,343
513,8	2393,8
514,2	2396,514
514,7	2393,086
515,1	2397,857
515,6	2401,657
516	2400,857
516,5	2407,543
516,9	2418,086
517,4	2422,743
517,8	2434,429
518,3	2439,657
518,7	2444,971
519,2	2451,086
519,6	2446,686
520,1	2452,143
520,5	2456,171
521	2454,657
521,4	2460,114
521,9	2467,029
522,3	2468,914
522,8	2475,714
523,2	2480,629
523,7	2488,171
524,1	2499,114
524,6	2508,686
525	2513,857
525,5	2522,457
525,9	2535,371
526,4	2539,8
526,8	2547,971
527,3	2553,486
527,7	2558,2
528,2	2563,4
528,6	2569,914
529,1	2573,686
529,5	2575,8
530	2580,143
530,4	2588,143
530,9	2594,743
531,3	2602,057
531,8	2611,2
532,2	2618,886
532,6	2630,429
533,1	2636,571
533,5	2644,6
534	2647,029
534,4	2658,029
534,9	2662,857
535,3	2664,8
535,8	2671,086
536,2	2677,971
536,7	2689,571
537,1	2703,743
537,6	2710,486
538	2723,114
538,5	2735,229
538,9	2738,743
539,4	2751
539,8	2751,029
540,3	2759,314
540,7	2763,914
541,2	2768,514
541,6	2777,714
542,1	2787,029
542,5	2795,114
543	2802,971
543,4	2804,486
543,9	2813,943
544,3	2821,857
544,8	2821,371
545,2	2833,686
545,7	2844,857
546,1	2853,143
546,5	2868
547	2874,886
547,4	2878,8
547,9	2887,086
548,3	2894,229
548,8	2901,457
549,2	2909,971
549,7	2915,114
550,1	2929,457
550,6	2942,4
551	2955,8
551,5	2960,086
551,9	2962,771
552,4	2973,971
552,8	2979,714
553,3	2972,543
553,7	2971,771
554,2	2980,714
554,6	2994,086
555,1	3000,543
555,5	2998,171
555,9	3007,029
556,4	3022,514
556,8	3033,8
557,3	3039,657
557,7	3040,229
558,2	3048,914
558,6	3061,486
559,1	3058,371
559,5	3057,743
560	3064
560,4	3066,286
560,9	3069,686
561,3	3071,6
561,8	3076,571
562,2	3089,914
562,7	3099,771
563,1	3111,171
563,6	3115,314
564	3123,029
564,4	3129,429
564,9	3128,257
565,3	3125,657
565,8	3129,4
566,2	3126,686
566,7	3133,629
567,1	3139,571
567,6	3141,943
568	3149,743
568,5	3153,771
568,9	3154,057
569,4	3160,086
569,8	3156,686
570,3	3151,571
570,7	3151,543
571,1	3151,914
571,6	3161,971
572	3165,857
572,5	3165,743
572,9	3162,8
573,4	3170,229
573,8	3177,257
574,3	3180,343
574,7	3175,714
575,2	3172,629
575,6	3167,686
576,1	3175,6
576,5	3178,057
576,9	3169,286
577,4	3162,429
577,8	3157,257
578,3	3157,371
578,7	3155,657
579,2	3150,629
579,6	3143,886
580,1	3142,143
580,5	3140,514
581	3143,457
581,4	3141,571
581,9	3134,857
582,3	3129,2
582,7	3125,629
583,2	3124,143
583,6	3118,657
584,1	3112,543
584,5	3106,514
585	3106
585,4	3097,6
585,9	3088,2
586,3	3083,457
586,8	3079,486
587,2	3071,171
587,6	3075,2
588,1	3072,886
588,5	3074,314
589	3078
589,4	3068,971
589,9	3062,857
590,3	3059,029
590,8	3050,6
591,2	3046,2
591,7	3046,571
592,1	3037,171
592,5	3035,8
593	3030,857
593,4	3025,971
593,9	3017,486
594,3	3012,314
594,8	3003
595,2	2995,714
595,7	2987,457
596,1	2987,286
596,6	2988,114
597	2983,4
597,4	2973,943
597,9	2968
598,3	2969,171
598,8	2970,343
599,2	2967,086
599,7	2963,771
600,1	2952,4
600,6	2956
601	2955,114
601,4	2945,057
601,9	2939,343
602,3	2932,029
602,8	2919,143
603,2	2917,257
603,7	2903,486
604,1	2890,743
604,6	2883,829
605	2871,629
605,4	2861,714
605,9	2853,429
606,3	2840,429
606,8	2830,086
607,2	2817,914
607,7	2800,571
608,1	2791,714
608,6	2783,286
609	2785,057
609,4	2782,971
609,9	2774,057
610,3	2772,571
610,8	2772,486
611,2	2762,886
611,7	2755,057
612,1	2737,314
612,6	2731,143
613	2728,657
613,4	2713,829
613,9	2706,457
614,3	2699,257
614,8	2688,543
615,2	2677,143
615,7	2665,657
616,1	2652,714
616,6	2643,514
617	2633,514
617,4	2624,257
617,9	2618,829
618,3	2613,6
618,8	2604,486
619,2	2592,686
619,7	2587,686
620,1	2573,829
620,5	2565,429
621	2548,8
621,4	2536,514
621,9	2523,229
622,3	2513,343
622,8	2497,829
623,2	2488,943
623,6	2472,8
624,1	2462,771
624,5	2448,229
625	2443,457
625,4	2437,486
625,9	2425,314
626,3	2410,829
626,8	2401,029
627,2	2390,571
627,6	2371,086
628,1	2351,743
628,5	2339,8
629	2326,171
629,4	2318,486
629,9	2303,371
630,3	2285,486
630,7	2279
631,2	2270,457
631,6	2254,8
632,1	2245,829
632,5	2234,8
633	2230,343
633,4	2220,457
633,8	2211,257
634,3	2198
634,7	2188,371
635,2	2177,571
635,6	2164,2
636,1	2152,657
636,5	2137,743
636,9	2126,429
637,4	2112,914
637,8	2099,2
638,3	2085,914
638,7	2068,743
639,2	2052,571
639,6	2050,371
640	2035,571
640,5	2026,171
640,9	2016,057
641,4	2010,343
641,8	2003,143
642,2	1996,286
642,7	1990,886
643,1	1985,4
643,6	1976,886
644	1969,257
644,5	1963,229
644,9	1952,571
645,3	1942,371
645,8	1924,943
646,2	1918,514
646,7	1904,086
647,1	1890,229
647,6	1876,657
648	1872,429
648,4	1860,086
648,9	1851,886
649,3	1832
649,8	1827,657
650,2	1818,771
650,6	1809,429
651,1	1799,343
651,5	1794,914
652	1783,971
652,4	1774,429
652,9	1762,8
653,3	1755,457
653,7	1742,829
654,2	1729,8
654,6	1712,429
655,1	1709,257
655,5	1710,086
655,9	1700,714
656,4	1693,771
656,8	1681,314
657,3	1672,6
657,7	1671
658,2	1653,486
658,6	1640,543
659	1633,886
659,5	1616,257
659,9	1607,914
660,4	1598,543
660,8	1585,314
661,2	1578,4
661,7	1567,657
662,1	1556,4
662,6	1548,457
663	1539
663,4	1531,371
663,9	1523,229
664,3	1511,029
664,8	1497
665,2	1484,743
665,6	1472,514
666,1	1469,714
666,5	1458,743
667	1448,286
667,4	1440,2
667,9	1435,457
668,3	1425,229
668,7	1421,571
669,2	1411,2
669,6	1402,114
670,1	1390,571
670,5	1378,714
670,9	1369,686
671,4	1358,4
671,8	1348,2
672,3	1337,914
672,7	1332,086
673,1	1318,714
673,6	1309,029
674	1298,114
674,5	1296,114
674,9	1283,743
675,3	1268,2
675,8	1258,114
676,2	1254,514
676,7	1247,057
677,1	1238,343
677,5	1225,8
678	1217,486
678,4	1217,886
678,9	1211,914
679,3	1202,571
679,7	1201,371
680,2	1192,343
680,6	1181,429
681,1	1173,486
681,5	1162,771
681,9	1153,486
682,4	1150,771
682,8	1141,543
683,3	1142,257
683,7	1140,4
684,1	1135,229
684,6	1130,886
685	1121,029
685,5	1107,343
685,9	1095,343
686,3	1077,657
686,8	1066,2
687,2	1065,143
687,7	1055,943
688,1	1044,914
688,5	1041,657
689	1038,771
689,4	1037,171
689,9	1029,629
690,3	1016,829
690,7	1012,343
691,2	1009,2
691,6	1002,571
692	992,829
692,5	987,457
692,9	985,743
693,4	982,343
693,8	972,743
694,2	966,086
694,7	959,371
695,1	957,771
695,6	950,914
696	947,571
696,4	936,543
696,9	927,229
697,3	924,457
697,8	919,571
698,2	909,371
698,6	905,229
699,1	897,143
699,5	893,314
699,9	888,457
700,4	874,657
700,8	870,171
701,3	862,943
701,7	852,029
702,1	839,057
702,6	831,343
703	828,657
703,5	827,086
703,9	814,543
704,3	813,057
704,8	809,229
705,2	805,629
705,6	800,2
706,1	793,543
706,5	787,829
707	786,6
707,4	781,743
707,8	770,657
708,3	769,743
708,7	762,714
709,2	755,543
709,6	749,943
710	746,543
710,5	736,057
710,9	733,657
711,3	724,029
711,8	724
712,2	720,857
712,7	716,057
713,1	709,6
713,5	710,857
714	711,029
714,4	702,514
714,8	698,143
715,3	690,6
715,7	692,543
716,2	686,886
716,6	680,371
717	670,171
717,5	670,2
717,9	666,829
718,3	660,714
718,8	649,886
719,2	641,6
719,7	636,114
720,1	634,971
720,5	633,486
721	621,086
721,4	620,029
721,8	616,657
722,3	613,771
722,7	610,486
723,2	599,514
723,6	586,857
724	579,057
724,5	575,6
724,9	571,171
725,3	567,057
725,8	560,914
726,2	558,257
726,7	559,914
727,1	560,8
727,5	551,057
728	543,857
728,4	540,8
728,8	535,486
729,3	533,543
729,7	526,629
730,1	526,286
730,6	523,2
731	519,914
731,5	517,829
731,9	516,086
732,3	516,771
732,8	516,229
733,2	512,514
733,6	510,4
734,1	507,229
734,5	502,429
734,9	501,971
735,4	495,743
735,8	485,571
736,3	485,2
736,7	483,314
737,1	482,086
737,6	478,171
738	472,257
738,4	469,371
738,9	473,886
739,3	469,829
739,7	470,571
740,2	464,543
740,6	465,2
741,1	464,714
741,5	459,629
741,9	455,8
742,4	454,257
742,8	449,2
743,2	451,743
743,7	442,4
744,1	431,914
744,5	425,543
745	418,371
745,4	412,114
745,8	410,486
746,3	405,2
746,7	403,686
747,2	402,2
747,6	407,686
748	410,943
748,5	410,2
748,9	404,6
749,3	402,029
749,8	401,771
750,2	400,629
750,6	392,543
751,1	390,571
751,5	390,486
751,9	389,686
752,4	387,6
752,8	386,857
753,3	382,371
753,7	386,371
754,1	378,771
754,6	369,857
755	365,514
755,4	361,943
755,9	358,4
756,3	360
756,7	352,743
757,2	351,571
757,6	353,143
758	351,714
758,5	347,543
758,9	343,143
759,3	342,429
759,8	341,171
760,2	340,114
760,6	335,171
761,1	332,829
761,5	332,4
761,9	330,486
762,4	322,886
762,8	319,943
763,3	314,8
763,7	315,857
764,1	311,429
764,6	310,343
765	310,657
765,4	310,857
765,9	312,429
766,3	316,514
766,7	307,714
767,2	302,429
767,6	303,086
768	300,086
768,5	299,143
768,9	292,686
769,3	287,286
769,8	285,8
770,2	289,657
770,6	284,829
771,1	286,743
771,5	284,229
771,9	286,257
772,4	284,771
772,8	287,914
773,2	287,086
773,7	283,4
774,1	279,429
774,5	273,086
775	270,4
775,4	270,457
775,8	268,143
776,3	262,686
776,7	261,743
777,1	259,257
777,6	262,571
778	265,029
778,4	262,6
778,9	262,943
779,3	262,314
779,7	263
780,2	263,8
780,6	260,371
781	254,886
781,5	245,086
781,9	238,6
782,3	235,857
782,8	235,771
783,2	229,829
783,6	230,286
784,1	225,457
784,5	228,686
784,9	225,943
785,4	229,057
785,8	223,743
786,2	221,629
786,7	218
787,1	215,943
787,5	215,029
788	214,629
788,4	209,686
788,8	208,371
789,3	208,714
789,7	209,629
790,1	207,543
790,6	205,686
791	204,171
791,4	206,114
791,9	200,171
792,3	194,457
792,7	194,6
793,2	188,629
793,6	190,8
794	194,371
794,5	187,4
794,9	188,457
795,3	189,057
795,8	184,686
796,2	192,314
796,6	191,743
797,1	185,086
797,5	181,971
797,9	180,943
798,4	181,314
798,8	178,857
799,2	174,143
799,7	170,6
800,1	168,057
800,5	170,029
801	170,914
801,4	165,114
801,8	161
802,2	163,8
802,7	157,571
803,1	158,057
803,5	157,943
804	151,714
804,4	157,114
804,8	160,429
805,3	158,629
805,7	164,514
806,1	164,029
806,6	164,286
807	166,6
807,4	161,143
807,9	155,114
808,3	151,543
808,7	146,8
809,2	148,571
809,6	149,086
810	147,6
810,4	147,8
810,9	152,086
811,3	151,229
811,7	149,543
812,2	151,086
812,6	143,743
813	148,086
813,5	146,371
813,9	142,4
814,3	138,8
814,8	136,8
815,2	129,714
815,6	132,2
816,1	129,486
816,5	127,086
816,9	127,943
817,3	127,314
817,8	132,171
818,2	132,057
818,6	127,257
819,1	122,657
819,5	123,771
819,9	122,314
820,4	121,314
820,8	116,486
821,2	111,657
821,7	114,343
822,1	113,771
822,5	120,943
822,9	116,257
823,4	115,657
823,8	118,943
824,2	124,171
824,7	120,6
825,1	113,371
825,5	101,2
826	99,943
826,4	101,2
826,8	95,2
827,3	96
827,7	93,971
828,1	100,314
828,5	98,771
829	98,486
829,4	96,2
829,8	94,486
830,3	88,486
830,7	86,6
831,1	85,486
831,6	86,686
832	87,543
832,4	85,286
832,8	87,343
833,3	84,971
833,7	85,743
834,1	84,257
834,6	82,171
835	84,629
835,4	86,686
835,8	82,057
836,3	84,086
836,7	84,943
837,1	81,857
837,6	85,629
838	82,714
838,4	82,971
838,9	83,171
839,3	83,4
839,7	84,829
840,1	85,143
840,6	80,457
841	80,571
841,4	79,914
841,9	83,857
842,3	81,286
842,7	76,829
843,1	71,4
843,6	77,857
844	75,514
844,4	77,429
844,9	78,486
845,3	78,029
845,7	76,314
846,2	79,371
846,6	71,514
847	75,943
847,4	74,629
847,9	70,4
848,3	68,257
848,7	71,086
849,2	73,771
849,6	72,8
850	73,114
850,4	68,257
850,9	69,714
851,3	70,4
851,7	68,429
852,2	67,543
852,6	69,286
853	65,914
853,4	63,343
853,9	59,629
854,3	63,086
854,7	65,2
855,2	59,286
855,6	61,229
856	58
856,4	60
856,9	58,686
857,3	54,257
857,7	56,857
858,2	67,429
858,6	66,629
859	68,743
859,4	70,743
859,9	68,914
860,3	70
860,7	64,057
861,1	58,029
861,6	51,514
862	49,457
862,4	48,4
862,9	49,743
863,3	44,114
863,7	43,886
864,1	45,914
864,6	49,714
865	50,629
865,4	50,714
865,9	54,857
866,3	58,143
866,7	59,943
867,1	54,771
867,6	56,029
868	54,343
868,4	49,571
868,8	47,686
869,3	46,4
869,7	49,6
870,1	45,257
870,6	40,057
871	41,457
871,4	49,714
871,8	48,029
872,3	50,514
872,7	46,257
873,1	52,229
873,5	56,343
874	56,8
874,4	53
874,8	52,257
875,3	53,114
875,7	52,171
876,1	52,229
876,5	53,343
877	52,114
877,4	45,6
877,8	46,029
878,2	47,171
878,7	49,257
879,1	50,457
879,5	50,029
879,9	51,143
880,4	51,6
880,8	50,714
881,2	48,514
881,7	47,057
882,1	41,714
882,5	40,057
882,9	35,114
883,4	37,114
883,8	38,714
884,2	38,371
884,6	36,4
885,1	40,429
885,5	38,914
885,9	39,8
886,3	41,4
886,8	39,171
887,2	35,657
887,6	35,229
888	30,371
888,5	31,743
888,9	29,714
889,3	25,657
889,8	28,686
890,2	29,286
890,6	25,971
891	27,714
891,5	23,4
891,9	24,029
892,3	28,086
892,7	23,914
893,2	25,886
893,6	32,714
894	33,343
894,4	34,457
894,9	36,943
895,3	38
895,7	37,143
896,1	36,371
896,6	30,857
897	32,857
897,4	37,571
897,8	37,143
898,3	34,057
898,7	32,943
899,1	32,886
899,5	34,314
900	30,114
900,4	26,029
900,8	23,2
901,2	27,514
901,7	28,171
902,1	28,286
902,5	30,314
902,9	28,857
903,4	31,657
903,8	35,543
904,2	32,171
904,6	33,943
905,1	32,8
905,5	31,571
905,9	34,114
906,3	33,143
906,8	33,029
907,2	32,629
907,6	33,743
908	36
908,5	34,657
908,9	35,029
909,3	28,8
909,7	26,2
910,2	27,343
910,6	29,571
911	27,171
911,4	27,457
911,9	20,914
912,3	23,829
912,7	26
913,1	22,343
913,6	15,257
914	13,743
914,4	11,314
914,8	17,486
915,3	17,371
915,7	13,857
916,1	13,743
916,5	15,943
916,9	17,343
917,4	19,886
917,8	22,257
918,2	19,886
918,6	18,229
919,1	21,6
919,5	25
919,9	20,857
920,3	17,371
920,8	9,286
921,2	14,657
921,6	17,371
922	13,971
922,5	8,114
922,9	10,114
923,3	11,343
923,7	16,029
924,2	12,371
924,6	10,857
925	12,4
925,4	15,657
925,8	17,086
926,3	19,914
926,7	20,286
927,1	22,514
927,5	24,771
928	24
928,4	20,943
928,8	23,543
929,2	19,457
929,7	19
930,1	17,4
930,5	13,371
930,9	16,171
931,3	18,886
931,8	13,829
932,2	16,514
932,6	17,543
933	9,571
933,5	11
933,9	11,857
934,3	11,4
934,7	13,029
935,2	15,686
935,6	15,571
936	23,886
936,4	24,971
936,8	26,2
937,3	23,829
937,7	28,114
938,1	28,457
938,5	20
939	23,114
939,4	20,771
939,8	11,343
940,2	13,914
940,6	11,943
941,1	8,743
941,5	18,657
941,9	9,971
942,3	11,343
942,8	16,4
943,2	16,914
943,6	11,029
944	8,6
944,4	4,029
944,9	7,029
945,3	8,771
945,7	2,6
946,1	-3,629
946,6	-3,171
947	-5,114
947,4	-2,4
947,8	-3,171
948,2	-4,514
948,7	0,229
949,1	3,314
949,5	14,543
949,9	18,714
950,3	15,171
950,8	17,6
951,2	14,486
951,6	12,686
952	17,543
952,5	5,486
952,9	7,171
953,3	8,886
953,7	6,943
954,1	13,771
954,6	19,657
955	15,343
955,4	16,629
955,8	15,143
956,2	17,886
956,7	22,429
957,1	19,114
957,5	17,143
957,9	21,629
958,3	22,686
958,8	23,771
959,2	25,057
959,6	24,686
960	21,286
960,5	20,229
960,9	19,886
961,3	13,343
961,7	12,571
962,1	12,057
962,6	13,257
963	15,943
963,4	10,8
963,8	9,971
964,2	16,714
964,7	14,371
965,1	13,2
965,5	8
965,9	7,057
966,3	10,8
966,8	4,714
967,2	6,486
967,6	1,886
968	0,143
968,4	0,543
968,9	1,086
969,3	6,686
969,7	11,286
970,1	10,6
970,5	11,943
971	12,229
971,4	15,229
971,8	18,514
972,2	14,314
972,6	12,4
973,1	16,229
973,5	22,571
973,9	20,914
974,3	17,457
974,7	18,943
975,2	17,086
975,6	14,2
976	10,229
976,4	4,571
976,8	8,143
977,3	9,971
977,7	3,829
978,1	5,943
978,5	7,6
978,9	4,057
979,4	8,971
979,8	4,686
980,2	2,457
980,6	1,943
981	5,629
981,5	4,371
981,9	5,943
982,3	3,114
982,7	4,886
983,1	7,029
983,6	9,657
984	6,229
984,4	7,743
984,8	11,457
985,2	13,029
985,6	10,657
986,1	13,743
986,5	13,8
986,9	6,971
987,3	12,4
987,7	8,543
988,2	9,057
988,6	10,857
989	5,771
989,4	5,771
989,8	9,971
990,3	6,229
990,7	5,371
991,1	4,743
991,5	7
991,9	8,514
992,3	9,229
992,8	11,029
993,2	10,343
993,6	8,886
994	9,686
994,4	10,4
994,9	12,771
995,3	9,371
995,7	3,143
996,1	3,6
996,5	11
996,9	10,457
997,4	11,543
997,8	5,543
998,2	4,6
998,6	3,314
999	2,971
999,5	-5,4
999,9	-6,514
1000,3	-8,943
1000,7	-2,8
1001,1	-0,114
1001,5	9,6
1002	13,714
1002,4	16,629
1002,8	17,314
1003,2	17,343
1003,6	14,686
1004	16,429
1004,5	9,971
1004,9	4,457
1005,3	3,514
1005,7	5,629
1006,1	3,771
1006,6	3,343
1007	4,171
1007,4	4,029
1007,8	4,8
1008,2	3,771
1008,6	1,286
1009,1	0,714
1009,5	2,543
1009,9	4,714
1010,3	7,657
1010,7	7,429
1011,1	8,2
1011,6	9,486
1012	10,343
1012,4	6,971
1012,8	4,971
1013,2	12,629
1013,6	10,343
1014,1	12,086
1014,5	9,857
1014,9	12,229
1015,3	11,286
1015,7	9,629
1016,1	0,429
1016,6	6,771
1017	9,714
1017,4	10,057
1017,8	6,714
1018,2	10,371
1018,6	5,2
1019,1	7,457
1019,5	6,086
1019,9	3,971
1020,3	6,171
1020,7	4,857
1021,1	3,571
1021,6	7,886
1022	9,486
1022,4	8,229
1022,8	7,114
1023,2	6,486
1023,6	13,943
1024,1	18,143
1024,5	18,229
1024,9	15,371
1025,3	13,257
1025,7	13,229
1026,1	12,171
1026,6	5,857
1027	1,429
1027,4	10,2
1027,8	9,571
1028,2	10,4
1028,6	16,6
1029	18,514
1029,5	23,343
1029,9	23,886
1030,3	11,914
1030,7	12,857
1031,1	14,2
1031,5	4,886
1032	0,971
1032,4	-2,2
1032,8	0,057
1033,2	4,429
1033,6	6,2
1034	6,486
1034,4	8,686
1034,9	12,657
1035,3	14,343
1035,7	14,229
1036,1	11,143
1036,5	7,257
1036,9	3,229
1037,4	8,286
1037,8	1,886
1038,2	2,343
1038,6	-1,8
1039	0,743
1039,4	8,543
1039,8	5,343
1040,3	4,057
1040,7	5,429
1041,1	6,657
1041,5	10,571
1041,9	8,8
1042,3	6,657
1042,7	17,171
1043,2	17,029
1043,6	17,571
1044	14,286
1044,4	19,429
1044,8	19,914
1045,2	14,543
1045,6	12,743
1046,1	8,314
1046,5	6,971
1046,9	4,371
1047,3	-3,371
1047,7	-4,4
1048,1	-1,829
1048,5	-5,8
1049	-0,286
1049,4	9,6
1049,8	11,6
1050,2	13,286
1050,6	17,886
1051	19,8
1051,4	21,057
1051,9	17,971
1052,3	19,514
1052,7	21,571
1053,1	18,6
1053,5	17,029
1053,9	12,829
1054,3	13,629
1054,8	19,286
1055,2	13,4
1055,6	10,914
1056	12,257
1056,4	12,114
1056,8	16,514
1057,2	17,029
1057,6	9,514
1058,1	7,543
1058,5	9,286
1058,9	15,514
1059,3	15,686
1059,7	13,886
1060,1	13,429
1060,5	17,6
1061	22,343
1061,4	19,4
1061,8	19,6
1062,2	17,143
1062,6	20,029
1063	18,543
1063,4	18,629
1063,8	11,914
1064,3	8,914
1064,7	-0,114
1065,1	1,2
1065,5	-8,4
1065,9	-8,171
1066,3	-11,429
1066,7	-8,029
1067,1	-3,657
1067,6	2,714
1068	-1,914
1068,4	8,857
1068,8	10,086
1069,2	12,829
1069,6	12,743
1070	15,286
1070,4	12,429
1070,9	13,2
1071,3	7,514
1071,7	7,2
1072,1	5,514
1072,5	0,6
1072,9	-3
1073,3	-1,886
1073,7	-1,4
1074,2	1,543
1074,6	3,343
1075	0,971
1075,4	4,714
1075,8	6,429
1076,2	4,857
1076,6	8,314
1077	2,829
1077,5	3,057
1077,9	3,743
1078,3	2,543
1078,7	2,629
1079,1	1,257
1079,5	-0,886
1079,9	3,857
1080,3	1,371
1080,7	3,371
1081,2	6,486
1081,6	7,086
1082	7,657
1082,4	12,543
1082,8	12,171
1083,2	12,571
1083,6	10,714
1084	8,971
1084,5	11,714
1084,9	10,314
1085,3	2,6
1085,7	3,714
1086,1	2,229
1086,5	4,171
1086,9	7,114
1087,3	4,857
1087,7	5,429
1088,2	10,171
1088,6	8,314
1089	8,543
1089,4	6,257
1089,8	4,286
1090,2	-0,886
1090,6	2,143
1091	2,457
1091,4	5,2
1091,9	8,771
1092,3	10,4
1092,7	5,571
1093,1	11,343
1093,5	12,857
1093,9	11,571
1094,3	14,771
1094,7	12,229
1095,1	12,114
1095,5	19,114
1096	15,771
1096,4	14,086
1096,8	14,6
1097,2	7,743
1097,6	10,657
1098	9,657
1098,4	7,514
1098,8	9,857
1099,2	14,714
1099,6	13,886
1100,1	11,857
1100,5	5,457
1100,9	6,543
1101,3	5,371
1101,7	2,714
1102,1	-2,343
1102,5	-1,029
1102,9	3,486
1103,3	9,543
1103,7	8,686
1104,2	8,171
1104,6	11,943
1105	9,4
1105,4	6,429
1105,8	3,514
1106,2	0,4
1106,6	0,514
1107	0,514
1107,4	-3,233
1107,8	-1,92
1108,3	0,1
