Data from Subt2_245.txt Node
Date: Sat Aug 26 18:57:28 MSK 2023
User: vat
Spectrometer: MAYP114033
Trigger mode: 0
Integration Time (sec): 1,000000E0
Scans to average: 5
Electric dark correction enabled: true
Nonlinearity correction enabled: false
Boxcar width: 3
XAxis mode: Wavelengths
Number of Pixels in Spectrum: 2068
>>>>>Begin Spectral Data<<<<<
199,4	-0,517
199,9	4,813
200,4	3,033
200,8	1,905
201,3	-0,124
201,8	2,505
202,2	-0,01
202,7	3,019
203,2	-0,295
203,6	0,733
204,1	1,505
204,6	3,133
205	3,619
205,5	4,533
206	3,648
206,4	1,333
206,9	3,019
207,4	5,248
207,8	6,533
208,3	2,048
208,8	4,019
209,2	3,048
209,7	7,39
210,2	7,333
210,6	9,105
211,1	11,39
211,5	9,305
212	12,419
212,5	16,276
212,9	10,705
213,4	11,619
213,9	6,448
214,3	4,019
214,8	9,562
215,3	4,048
215,7	4,676
216,2	8,562
216,7	4,79
217,1	6,133
217,6	9,933
218,1	9,219
218,5	7,733
219	-1,267
219,5	0,905
219,9	2,248
220,4	12,562
220,9	9,876
221,3	10,562
221,8	13,676
222,3	19,219
222,7	20,848
223,2	22,333
223,6	14,219
224,1	12,819
224,6	11,619
225	10,333
225,5	7,676
226	5,819
226,4	8,133
226,9	6,676
227,4	8,762
227,8	4,848
228,3	5,848
228,8	6,562
229,2	9,648
229,7	7,39
230,2	4,419
230,6	6,648
231,1	13,533
231,5	15,933
232	16,79
232,5	15,505
232,9	18,305
233,4	23,39
233,9	18,476
234,3	16,448
234,8	15,59
235,3	14,533
235,7	15,048
236,2	12,648
236,7	9,905
237,1	16,248
237,6	12,705
238,1	8,762
238,5	3,248
239	0,533
239,4	2,219
239,9	3,133
240,4	-1,438
240,8	1,676
241,3	4,648
241,8	10,333
242,2	9,962
242,7	5,305
243,2	4,362
243,6	3,705
244,1	5,476
244,6	3,819
245	2,362
245,5	-0,267
245,9	-3,295
246,4	-3,295
246,9	-3,924
247,3	-6,21
247,8	0,619
248,3	2,733
248,7	4,419
249,2	10,305
249,7	11,619
250,1	12,248
250,6	12,362
251	8,162
251,5	9,619
252	10,019
252,4	9,219
252,9	8,362
253,4	4,762
253,8	1,705
254,3	1,962
254,8	-0,038
255,2	-4,41
255,7	-4,267
256,1	-1,781
256,6	0,333
257,1	7,248
257,5	1,505
258	-2,152
258,5	4,219
258,9	5,133
259,4	3,162
259,9	8,648
260,3	4,905
260,8	7,762
261,2	10,562
261,7	7,19
262,2	3,19
262,6	1,648
263,1	2,79
263,6	2,705
264	5,419
264,5	10,848
264,9	8,133
265,4	10,248
265,9	10,362
266,3	7,419
266,8	12,876
267,3	9,762
267,7	5,162
268,2	8,419
268,7	8,905
269,1	8,105
269,6	3,933
270	0,705
270,5	-0,067
271	3,99
271,4	6,048
271,9	1,333
272,4	8,19
272,8	9,19
273,3	5,933
273,7	11,048
274,2	10,476
274,7	7,39
275,1	12,248
275,6	8,419
276,1	7,962
276,5	12,276
277	11,476
277,4	9,162
277,9	13,162
278,4	12,133
278,8	13,362
279,3	15,762
279,8	13,676
280,2	14,533
280,7	20,248
281,1	16,133
281,6	16,933
282,1	15,019
282,5	15,876
283	15,476
283,4	12,876
283,9	7,133
284,4	11,476
284,8	11,276
285,3	9,505
285,8	11,276
286,2	11,448
286,7	12,305
287,1	12,505
287,6	9,105
288,1	6,562
288,5	11,676
289	9,648
289,5	7,876
289,9	5,476
290,4	4,305
290,8	6,419
291,3	9,848
291,8	5,248
292,2	0,876
292,7	4,905
293,1	8,476
293,6	9,819
294,1	10,676
294,5	6,619
295	8,419
295,5	9,448
295,9	5,276
296,4	1,048
296,8	-2,181
297,3	-3,752
297,8	-7,41
298,2	-9,152
298,7	-5,552
299,1	0,533
299,6	1,39
300,1	5,448
300,5	7,076
301	15,276
301,5	16,133
301,9	13,476
302,4	3,619
302,8	5,248
303,3	3,962
303,8	-1,724
304,2	-5,295
304,7	-3,867
305,1	-7,01
305,6	1,39
306,1	6,448
306,5	8,648
307	15,105
307,4	24,162
307,9	21,819
308,4	22,476
308,8	16,19
309,3	14,276
309,8	10,076
310,2	5,733
310,7	-3,61
311,1	-2,81
311,6	2,419
312,1	7,419
312,5	6,133
313	8,162
313,4	10,533
313,9	13,248
314,4	10,79
314,8	5,876
315,3	4,419
315,7	-1,838
316,2	-5,324
316,7	-9,238
317,1	-10,21
317,6	-5,581
318	3,105
318,5	-1,067
319	0,133
319,4	2,876
319,9	9,819
320,3	12,533
320,8	9,162
321,3	4,79
321,7	10,819
322,2	17,848
322,6	18,39
323,1	14,076
323,6	13,333
324	12,619
324,5	8,705
324,9	12,476
325,4	6,848
325,9	10,305
326,3	10,39
326,8	11,476
327,2	9,39
327,7	15,448
328,2	9,848
328,6	15,076
329,1	8,219
329,5	6,762
330	6,762
330,5	11,419
330,9	10,619
331,4	14,276
331,8	10,562
332,3	14,476
332,8	17,648
333,2	15,333
333,7	18,276
334,1	16,733
334,6	11,333
335,1	9,505
335,5	10,762
336	6,476
336,4	7,705
336,9	9,676
337,4	11,076
337,8	9,533
338,3	10,562
338,7	11,848
339,2	13,219
339,7	16,162
340,1	12,162
340,6	12,362
341	14,39
341,5	13,762
342	12,219
342,4	12,333
342,9	7,819
343,3	6,819
343,8	3,819
344,2	5,448
344,7	12,79
345,2	11,876
345,6	12,905
346,1	13,133
346,5	11,819
347	11,19
347,5	9,99
347,9	8,505
348,4	8,79
348,8	8,762
349,3	11,79
349,8	15,705
350,2	21,133
350,7	19,476
351,1	19,076
351,6	20,905
352	25,905
352,5	31,505
353	37,619
353,4	40,705
353,9	53,876
354,3	62,876
354,8	73,076
355,3	90,876
355,7	104,419
356,2	120,248
356,6	145,79
357,1	170,533
357,5	200,419
358	235,448
358,5	267,819
358,9	307,705
359,4	353,79
359,8	405,305
360,3	469,819
360,8	534,733
361,2	606,076
361,7	688,362
362,1	784,105
362,6	880,99
363	983,219
363,5	1090,533
364	1210,419
364,4	1329,248
364,9	1445,248
365,3	1559,305
365,8	1671,733
366,3	1776,333
366,7	1865,819
367,2	1946,219
367,6	2014,219
368,1	2073,733
368,5	2107,733
369	2130,733
369,5	2132,99
369,9	2116,99
370,4	2084,79
370,8	2038,133
371,3	1973,848
371,7	1906,019
372,2	1826,39
372,7	1738,533
373,1	1650,562
373,6	1552,305
374	1464,048
374,5	1371,276
374,9	1277,533
375,4	1183,276
375,9	1098,105
376,3	1017,305
376,8	937,39
377,2	859,99
377,7	788,362
378,2	717,733
378,6	661,39
379,1	604,733
379,5	552,705
380	514,676
380,4	474,162
380,9	434,962
381,4	401,133
381,8	369,276
382,3	344,448
382,7	319,99
383,2	292,076
383,6	268,876
384,1	253,133
384,6	238,019
385	218,99
385,5	204,876
385,9	190,819
386,4	180,333
386,8	169,533
387,3	157,39
387,7	147,933
388,2	143,076
388,7	130,19
389,1	121,99
389,6	113,79
390	105,705
390,5	99,876
390,9	97,505
391,4	92,019
391,9	87,59
392,3	82,105
392,8	73,905
393,2	67,505
393,7	61,076
394,1	53,305
394,6	46,648
395,1	50,676
395,5	47,819
396	50,162
396,4	48,362
396,9	47,905
397,3	51,276
397,8	51,448
398,2	46,39
398,7	43,019
399,2	41,933
399,6	45,562
400,1	45,419
400,5	39,305
401	40,505
401,4	30,305
401,9	33,533
402,4	34,533
402,8	29,333
403,3	31,619
403,7	29,99
404,2	28,219
404,6	37,876
405,1	38,333
405,5	34,133
406	39,105
406,5	35,419
406,9	41,362
407,4	40,305
407,8	40,019
408,3	39,819
408,7	42,162
409,2	42,076
409,6	45,362
410,1	44,076
410,6	47,99
411	47,448
411,5	48,19
411,9	48,79
412,4	50,476
412,8	53,105
413,3	58,162
413,7	57,99
414,2	60,619
414,7	67,048
415,1	73,648
415,6	77,39
416	80,305
416,5	80,448
416,9	82,705
417,4	88,733
417,8	92,962
418,3	96,59
418,8	99,648
419,2	100,019
419,7	101,762
420,1	105,562
420,6	102,305
421	96,333
421,5	91,905
421,9	91,905
422,4	93,848
422,8	96,59
423,3	94,705
423,8	93,448
424,2	99,019
424,7	102,476
425,1	104,648
425,6	107,733
426	105,276
426,5	107,39
426,9	115,19
427,4	109,905
427,9	106,248
428,3	103,762
428,8	104,219
429,2	102,848
429,7	101,19
430,1	96,59
430,6	99,19
431	105,076
431,5	105,848
431,9	100,848
432,4	104,99
432,8	109,819
433,3	116,505
433,8	119,19
434,2	121,133
434,7	123,019
435,1	128,048
435,6	131,733
436	136,133
436,5	141,019
436,9	141,562
437,4	144,705
437,8	152,562
438,3	157,962
438,8	162,105
439,2	166,59
439,7	170,105
440,1	182,505
440,6	193,962
441	199,276
441,5	208,305
441,9	219,076
442,4	223,59
442,8	232,019
443,3	240,362
443,7	248,876
444,2	262,476
444,7	273,648
445,1	286,476
445,6	301,848
446	314,276
446,5	319,533
446,9	325,133
447,4	331,79
447,8	344,79
448,3	356,076
448,7	369,905
449,2	387,79
449,6	412,276
450,1	426,876
450,6	450,933
451	466,562
451,5	485,276
451,9	503,733
452,4	521,362
452,8	536,705
453,3	561,076
453,7	572,905
454,2	595,676
454,6	613,133
455,1	630,933
455,5	646,79
456	670,762
456,4	691,505
456,9	718,705
457,3	738,19
457,8	759,905
458,3	788,505
458,7	815,333
459,2	839,876
459,6	862,362
460,1	888,162
460,5	912,048
461	943,448
461,4	964,305
461,9	987,733
462,3	1013,305
462,8	1044,676
463,2	1070,19
463,7	1101,962
464,1	1132,99
464,6	1171,105
465	1209,819
465,5	1239,419
466	1269,733
466,4	1298,362
466,9	1333,048
467,3	1361,59
467,8	1392,162
468,2	1419,19
468,7	1447,848
469,1	1486,562
469,6	1522,876
470	1555,762
470,5	1589,876
470,9	1617,533
471,4	1647,848
471,8	1683,105
472,3	1714,276
472,7	1752,048
473,2	1777,848
473,6	1805,419
474,1	1843,962
474,5	1880,505
475	1914,162
475,4	1940,448
475,9	1970,533
476,4	2005,505
476,8	2046,59
477,3	2072,362
477,7	2106,19
478,2	2141,133
478,6	2172,19
479,1	2198,333
479,5	2231,19
480	2251,162
480,4	2287,59
480,9	2309,19
481,3	2337,362
481,8	2369,19
482,2	2394,505
482,7	2421,905
483,1	2452,705
483,6	2473,162
484	2499,505
484,5	2527,848
484,9	2552,762
485,4	2581,505
485,8	2604,362
486,3	2626,248
486,7	2653,162
487,2	2678,448
487,6	2690,505
488,1	2705,962
488,5	2720,905
489	2741,962
489,4	2766,19
489,9	2781,905
490,4	2799,876
490,8	2825,533
491,3	2851,133
491,7	2864,933
492,2	2880,305
492,6	2890,133
493,1	2906,39
493,5	2918,19
494	2925,533
494,4	2933,39
494,9	2954,762
495,3	2968,162
495,8	2985,99
496,2	2996,162
496,7	3009,476
497,1	3021,419
497,6	3039,705
498	3054,562
498,5	3063,019
498,9	3069,105
499,4	3079,476
499,8	3087,99
500,3	3101,648
500,7	3107,933
501,2	3108,99
501,6	3116,133
502,1	3123,476
502,5	3134,39
503	3143,133
503,4	3154,419
503,9	3157,819
504,3	3170,505
504,8	3178,248
505,2	3187,905
505,7	3194,762
506,1	3203,933
506,6	3204,133
507	3212,905
507,5	3223,962
507,9	3232,619
508,4	3240,676
508,8	3244,59
509,3	3252,676
509,7	3263,019
510,2	3272,99
510,6	3267,562
511,1	3275,133
511,5	3276,162
512	3277,79
512,4	3281,276
512,9	3283,162
513,3	3285,762
513,8	3293,048
514,2	3298,448
514,7	3308,79
515,1	3320,076
515,6	3323,648
516	3325,476
516,5	3331,333
516,9	3336,533
517,4	3340,419
517,8	3345,248
518,3	3349,162
518,7	3355,162
519,2	3363,848
519,6	3368,419
520,1	3376,048
520,5	3376,733
521	3378,076
521,4	3382,676
521,9	3393,79
522,3	3399,762
522,8	3406,619
523,2	3412,79
523,7	3425,448
524,1	3429,048
524,6	3435,305
525	3433,533
525,5	3438,676
525,9	3444,505
526,4	3444,676
526,8	3441,362
527,3	3450,219
527,7	3457,562
528,2	3464,476
528,6	3473,048
529,1	3478,219
529,5	3492,819
530	3500,248
530,4	3509,619
530,9	3513,276
531,3	3520,762
531,8	3530,276
532,2	3543,648
532,6	3546,39
533,1	3555,39
533,5	3566,333
534	3577,705
534,4	3582,99
534,9	3587,79
535,3	3585,39
535,8	3593,419
536,2	3604,59
536,7	3608,105
537,1	3611,705
537,6	3625,733
538	3634,076
538,5	3646,39
538,9	3649,219
539,4	3662,819
539,8	3667,448
540,3	3684,19
540,7	3686,19
541,2	3690,79
541,6	3696,648
542,1	3710,819
542,5	3715,99
543	3728,105
543,4	3727,962
543,9	3741,99
544,3	3757,676
544,8	3763,99
545,2	3772,476
545,7	3781,619
546,1	3790,905
546,5	3805,79
547	3815,133
547,4	3821,276
547,9	3830,733
548,3	3843,905
548,8	3852,076
549,2	3856,876
549,7	3864,39
550,1	3875,505
550,6	3880,133
551	3890,933
551,5	3896,362
551,9	3900,248
552,4	3911,39
552,8	3915,905
553,3	3916,505
553,7	3924,905
554,2	3936,905
554,6	3945,848
555,1	3958,076
555,5	3964,333
555,9	3972,733
556,4	3978,476
556,8	3988,076
557,3	3989,933
557,7	3994,648
558,2	3996,476
558,6	4008,819
559,1	4015,962
559,5	4022,19
560	4024,905
560,4	4030,619
560,9	4034,562
561,3	4039,648
561,8	4036,248
562,2	4042,219
562,7	4045,362
563,1	4055,619
563,6	4054,733
564	4060,848
564,4	4062,619
564,9	4070,648
565,3	4073,305
565,8	4078,619
566,2	4079,476
566,7	4092,819
567,1	4097,248
567,6	4102,505
568	4104,619
568,5	4105,019
568,9	4105,733
569,4	4102,962
569,8	4102,476
570,3	4100,133
570,7	4102,076
571,1	4106,448
571,6	4110,533
572	4122,733
572,5	4125,962
572,9	4124,448
573,4	4128,79
573,8	4141,419
574,3	4137,648
574,7	4134,333
575,2	4131,076
575,6	4130,79
576,1	4131,276
576,5	4129,19
576,9	4115,333
577,4	4111,39
577,8	4106,733
578,3	4095,133
578,7	4095,105
579,2	4093,933
579,6	4088,362
580,1	4082,048
580,5	4079,705
581	4077,39
581,4	4075,933
581,9	4064,962
582,3	4061,219
582,7	4059,133
583,2	4058,733
583,6	4058,648
584,1	4049,419
584,5	4043,276
585	4039,276
585,4	4028,876
585,9	4020,362
586,3	4013,562
586,8	4002,905
587,2	4002,105
587,6	4003,219
588,1	4002,362
588,5	3996,562
589	3992,762
589,4	3985,333
589,9	3975,562
590,3	3969,19
590,8	3957,962
591,2	3949,39
591,7	3947,876
592,1	3946,933
592,5	3946,962
593	3941,333
593,4	3937,619
593,9	3932,648
594,3	3918,419
594,8	3904,076
595,2	3891,59
595,7	3878,733
596,1	3874,19
596,6	3863,476
597	3854,79
597,4	3860,762
597,9	3856,79
598,3	3852,448
598,8	3844,476
599,2	3839,676
599,7	3835,19
600,1	3831,476
600,6	3816,59
601	3809,133
601,4	3799,762
601,9	3791,276
602,3	3778,276
602,8	3764,848
603,2	3753,619
603,7	3743,39
604,1	3735,59
604,6	3727,476
605	3719,39
605,4	3716,019
605,9	3706,962
606,3	3689,448
606,8	3677,276
607,2	3664,476
607,7	3644,99
608,1	3631,676
608,6	3617,276
609	3616,248
609,4	3609,448
609,9	3601,019
610,3	3588,848
610,8	3582,333
611,2	3573,505
611,7	3558,333
612,1	3536,448
612,6	3529,39
613	3522,848
613,4	3511,19
613,9	3496,476
614,3	3479,762
614,8	3469,59
615,2	3463,819
615,7	3447,39
616,1	3431,648
616,6	3416,076
617	3404,39
617,4	3396,905
617,9	3390,848
618,3	3375,848
618,8	3365,419
619,2	3352,333
619,7	3345,39
620,1	3334,848
620,5	3323,048
621	3303,533
621,4	3289,276
621,9	3279,59
622,3	3264,705
622,8	3239,848
623,2	3223,448
623,6	3209,39
624,1	3194,648
624,5	3178,876
625	3164,219
625,4	3151,305
625,9	3141,79
626,3	3123,876
626,8	3109,39
627,2	3100,733
627,6	3084,848
628,1	3063,476
628,5	3047,219
629	3031,19
629,4	3022,59
629,9	3005,133
630,3	2981,933
630,7	2966,648
631,2	2953,505
631,6	2938,048
632,1	2927,676
632,5	2912,705
633	2901,076
633,4	2889,848
633,8	2873,476
634,3	2860,362
634,7	2843,762
635,2	2821,448
635,6	2803,905
636,1	2787,162
636,5	2765,676
636,9	2747,076
637,4	2731,105
637,8	2717,533
638,3	2706,276
638,7	2690,333
639,2	2675,105
639,6	2663,648
640	2651,848
640,5	2636,333
640,9	2625,905
641,4	2615,99
641,8	2608,448
642,2	2595,476
642,7	2587,362
643,1	2580,59
643,6	2566,419
644	2552,762
644,5	2537,733
644,9	2523,219
645,3	2510,333
645,8	2495,419
646,2	2485,448
646,7	2471,419
647,1	2458,105
647,6	2447,248
648	2431,848
648,4	2418,076
648,9	2409,248
649,3	2389,048
649,8	2383,19
650,2	2368,562
650,6	2361,676
651,1	2350,333
651,5	2345,619
652	2329,448
652,4	2314,933
652,9	2298,905
653,3	2287,533
653,7	2271,648
654,2	2258,705
654,6	2239,676
655,1	2230,133
655,5	2224,362
655,9	2217,19
656,4	2208,99
656,8	2192,248
657,3	2180,448
657,7	2170,076
658,2	2155,162
658,6	2143,933
659	2130,333
659,5	2108,619
659,9	2096,705
660,4	2088,39
660,8	2076,219
661,2	2063,648
661,7	2045,19
662,1	2027,333
662,6	2021,048
663	2013,248
663,4	1990,533
663,9	1977,562
664,3	1966,105
664,8	1954,19
665,2	1944,762
665,6	1928,762
666,1	1911,505
666,5	1906,048
667	1892,048
667,4	1880,419
667,9	1868,79
668,3	1854,848
668,7	1841,59
669,2	1834,162
669,6	1819,419
670,1	1807,876
670,5	1788,848
670,9	1774,648
671,4	1758,39
671,8	1750,99
672,3	1742,333
672,7	1734,19
673,1	1720,19
673,6	1712,848
674	1707,848
674,5	1697,705
674,9	1681,019
675,3	1658,505
675,8	1647,076
676,2	1634,333
676,7	1622,562
677,1	1605,876
677,5	1593,476
678	1589,99
678,4	1585,99
678,9	1574,19
679,3	1566,876
679,7	1558,162
680,2	1545,505
680,6	1538,19
681,1	1523,276
681,5	1514,105
681,9	1505,705
682,4	1493,705
682,8	1485,133
683,3	1484,733
683,7	1478,219
684,1	1471,19
684,6	1459,619
685	1448,333
685,5	1437,59
685,9	1424,333
686,3	1407,733
686,8	1396,79
687,2	1386,448
687,7	1374,848
688,1	1363,905
688,5	1353,59
689	1349,133
689,4	1343,79
689,9	1334,733
690,3	1324,619
690,7	1318,762
691,2	1311,333
691,6	1306,162
692	1293,505
692,5	1282,905
692,9	1276,59
693,4	1267,733
693,8	1257,448
694,2	1246,762
694,7	1236,39
695,1	1228,448
695,6	1223,876
696	1214,876
696,4	1204,019
696,9	1196,819
697,3	1184,162
697,8	1179,162
698,2	1171,676
698,6	1159,733
699,1	1150,219
699,5	1149,248
699,9	1143,048
700,4	1136,133
700,8	1125,933
701,3	1118,762
701,7	1107,476
702,1	1098,105
702,6	1089,533
703	1079,219
703,5	1075,305
703,9	1065,676
704,3	1063,505
704,8	1058,733
705,2	1052,219
705,6	1041,648
706,1	1032,79
706,5	1027,419
707	1025,076
707,4	1015,79
707,8	1008,076
708,3	1002,676
708,7	999,162
709,2	992,505
709,6	981,448
710	976,276
710,5	965,19
710,9	958,848
711,3	952,876
711,8	945,79
712,2	942,476
712,7	937,019
713,1	930,876
713,5	929,133
714	926,962
714,4	920,648
714,8	913,905
715,3	905,276
715,7	900,733
716,2	889,705
716,6	875,933
717	862,39
717,5	851,905
717,9	848,648
718,3	840,533
718,8	838,019
719,2	832,562
719,7	829,019
720,1	831,819
720,5	831,162
721	819,648
721,4	813,819
721,8	809,219
722,3	800,648
722,7	796,962
723,2	786,162
723,6	769,762
724	762,448
724,5	757,019
724,9	747,019
725,3	742,59
725,8	735,762
726,2	728,733
726,7	734,133
727,1	731,99
727,5	729,648
728	724,562
728,4	722,048
728,8	716,076
729,3	708,448
729,7	698,105
730,1	690,39
730,6	688,79
731	686,105
731,5	678,162
731,9	675,248
732,3	677,219
732,8	677,333
733,2	675,333
733,6	667,619
734,1	664,076
734,5	662,019
734,9	658,962
735,4	654,448
735,8	645,533
736,3	644,59
736,7	635,248
737,1	628,876
737,6	622,305
738	616,476
738,4	611,19
738,9	613,533
739,3	607,619
739,7	610,333
740,2	601,448
740,6	605,333
741,1	605,105
741,5	596,019
741,9	590,848
742,4	587,133
742,8	581,933
743,2	581,619
743,7	571,076
744,1	563,305
744,5	559,705
745	551,19
745,4	544,133
745,8	537,048
746,3	535,048
746,7	535,79
747,2	531,448
747,6	536,876
748	537,105
748,5	538,305
748,9	540,876
749,3	534,619
749,8	528,876
750,2	525,59
750,6	519,19
751,1	517,648
751,5	511,79
751,9	506,648
752,4	505,99
752,8	503,419
753,3	501,476
753,7	501,876
754,1	494,048
754,6	488,39
755	480,562
755,4	477,819
755,9	470,248
756,3	467,419
756,7	461,79
757,2	459,533
757,6	459,362
758	460,333
758,5	453,905
758,9	457,362
759,3	457,162
759,8	451,248
760,2	449,619
760,6	444,648
761,1	438,419
761,5	438,019
761,9	428,505
762,4	419,819
762,8	417,39
763,3	411,705
763,7	411,048
764,1	413,248
764,6	412,905
765	413,848
765,4	415,79
765,9	411,248
766,3	413,305
766,7	407,219
767,2	401,505
767,6	397,99
768	393,105
768,5	390,362
768,9	390,648
769,3	386,133
769,8	383,305
770,2	381,848
770,6	377,905
771,1	380,162
771,5	374,562
771,9	373,676
772,4	367,59
772,8	364,619
773,2	361,962
773,7	362,505
774,1	358,219
774,5	352,248
775	346,333
775,4	348,076
775,8	345,676
776,3	343,419
776,7	335,276
777,1	330,562
777,6	335,305
778	336,876
778,4	332,59
778,9	328,848
779,3	324,105
779,7	328,419
780,2	326,79
780,6	319,705
781	310,19
781,5	304,59
781,9	308,076
782,3	305,362
782,8	299,648
783,2	297,533
783,6	300,733
784,1	304,876
784,5	301,676
784,9	296,59
785,4	300,248
785,8	298,705
786,2	298,762
786,7	294,305
787,1	288,533
787,5	291,162
788	289,876
788,4	285,762
788,8	285,933
789,3	281,99
789,7	280,476
790,1	278,676
790,6	279,333
791	274,619
791,4	271,39
791,9	260,962
792,3	256,276
792,7	256,733
793,2	251,048
793,6	246,933
794	250,533
794,5	247,105
794,9	254,705
795,3	254,705
795,8	246,248
796,2	250,59
796,6	250,076
797,1	244,448
797,5	238,419
797,9	227,219
798,4	226,733
798,8	227,419
799,2	220,762
799,7	219,248
800,1	216,448
800,5	218,276
801	221,848
801,4	219,162
801,8	216,248
802,2	216,705
802,7	207,276
803,1	207,105
803,5	208,362
804	204,248
804,4	198,99
804,8	198,819
805,3	200,705
805,7	206,533
806,1	203,876
806,6	203,019
807	203,905
807,4	204,962
807,9	200,133
808,3	196,59
808,7	190,105
809,2	193,162
809,6	191,648
810	191,276
810,4	192,276
810,9	191,762
811,3	191,019
811,7	194,133
812,2	193,933
812,6	189,59
813	188,419
813,5	186,733
813,9	187,733
814,3	183,362
814,8	181,362
815,2	171,048
815,6	170,076
816,1	168,59
816,5	166,448
816,9	162,619
817,3	164,619
817,8	165,876
818,2	174,133
818,6	169,476
819,1	165,19
819,5	162,762
819,9	164,676
820,4	163,733
820,8	156,848
821,2	147,39
821,7	149,648
822,1	152,248
822,5	155,305
822,9	150,39
823,4	150,162
823,8	153,219
824,2	158,905
824,7	153,933
825,1	146,99
825,5	137,533
826	135,59
826,4	132,505
826,8	128,305
827,3	127,59
827,7	127,676
828,1	127,333
828,5	131,276
829	127,705
829,4	125,19
829,8	119,39
830,3	117,076
830,7	112,533
831,1	119,476
831,6	121,819
832	124,619
832,4	122,962
832,8	124,733
833,3	124,219
833,7	126,876
834,1	119,676
834,6	109,705
835	114,533
835,4	113,79
835,8	111,648
836,3	105,59
836,7	106,676
837,1	108,762
837,6	114,676
838	108,962
838,4	109,476
838,9	114,162
839,3	114,19
839,7	111,162
840,1	103,762
840,6	100,419
841	101,705
841,4	103,19
841,9	102,59
842,3	99,619
842,7	101,99
843,1	104,848
843,6	108,99
844	106,19
844,4	106,076
844,9	106,819
845,3	109,648
845,7	106,705
846,2	105,905
846,6	99,248
847	98,962
847,4	97,962
847,9	94,448
848,3	91,962
848,7	90,933
849,2	91,219
849,6	87,019
850	91,648
850,4	87,933
850,9	85,133
851,3	89,076
851,7	91,762
852,2	89,219
852,6	97,362
853	95,019
853,4	96,533
853,9	96,733
854,3	95,219
854,7	88,676
855,2	90,019
855,6	86,59
856	80,562
856,4	74,876
856,9	68,99
857,3	65,79
857,7	76,219
858,2	79,59
858,6	77,79
859	78,362
859,4	81,562
859,9	86,905
860,3	85,333
860,7	79,905
861,1	76,219
861,6	75,505
862	75,676
862,4	73,419
862,9	73,019
863,3	75,562
863,7	73,619
864,1	73,133
864,6	69,248
865	69,048
865,4	70,733
865,9	71,476
866,3	64,562
866,7	61,419
867,1	58,619
867,6	62,705
868	60,819
868,4	56,419
868,8	54,59
869,3	56,848
869,7	61,533
870,1	61,362
870,6	58,648
871	41,962
871,4	45,219
871,8	41,419
872,3	44,19
872,7	42,305
873,1	42,248
873,5	43,876
874	57,733
874,4	58,819
874,8	60,162
875,3	60,019
875,7	56,876
876,1	57,905
876,5	54,505
877	55,676
877,4	48,048
877,8	50,333
878,2	48,905
878,7	52,333
879,1	47,876
879,5	51,276
879,9	54,219
880,4	58,99
880,8	59,448
881,2	59,019
881,7	55,076
882,1	59,076
882,5	55,305
882,9	50,248
883,4	47,876
883,8	48,79
884,2	47,219
884,6	47,076
885,1	43,819
885,5	45,305
885,9	45,076
886,3	48,076
886,8	40,133
887,2	38,019
887,6	38,505
888	38,876
888,5	38,99
888,9	37,39
889,3	32,962
889,8	34,19
890,2	37,705
890,6	31,59
891	30,933
891,5	30,562
891,9	34,648
892,3	38,648
892,7	39,048
893,2	38,248
893,6	45,533
894	47,533
894,4	44,276
894,9	43,59
895,3	41,905
895,7	47,59
896,1	45,59
896,6	44,962
897	44,448
897,4	48,79
897,8	48,333
898,3	49,219
898,7	41,59
899,1	43,019
899,5	40,79
900	34,133
900,4	34,962
900,8	34,019
901,2	29,419
901,7	31,905
902,1	30,762
902,5	33,048
902,9	39,419
903,4	42,105
903,8	42,162
904,2	41,105
904,6	44,105
905,1	44,59
905,5	42,133
905,9	43,733
906,3	38,99
906,8	39,305
907,2	43,59
907,6	39,505
908	40,019
908,5	36,705
908,9	30,162
909,3	31,162
909,7	32,962
910,2	32,19
910,6	36,876
911	30,819
911,4	36,19
911,9	33,133
912,3	29,848
912,7	32,419
913,1	33,733
913,6	30,248
914	32,59
914,4	26,219
914,8	32,79
915,3	32,819
915,7	26,476
916,1	23,962
916,5	27,219
916,9	30,076
917,4	33,733
917,8	32,105
918,2	28,19
918,6	25,305
919,1	25,19
919,5	22,162
919,9	20,248
920,3	17,848
920,8	17,99
921,2	23,162
921,6	27,39
922	26,676
922,5	21,276
922,9	21,762
923,3	22,962
923,7	23,505
924,2	17,219
924,6	17,476
925	16,448
925,4	21,162
925,8	19,362
926,3	18,648
926,7	15,848
927,1	19,79
927,5	19,476
928	21,076
928,4	15,39
928,8	20,676
929,2	19,562
929,7	21,333
930,1	25,533
930,5	23,248
930,9	27,819
931,3	31,905
931,8	26,705
932,2	27,99
932,6	22,276
933	14,19
933,5	18,819
933,9	16,105
934,3	19,905
934,7	19,333
935,2	17,076
935,6	21,505
936	22,419
936,4	19,533
936,8	17,705
937,3	11,362
937,7	13,105
938,1	18,362
938,5	16,248
939	17,505
939,4	18,362
939,8	14,619
940,2	18,762
940,6	18,733
941,1	16,733
941,5	24,276
941,9	25,848
942,3	23,305
942,8	29,133
943,2	25,733
943,6	23,762
944	22,99
944,4	18,59
944,9	14,219
945,3	12,276
945,7	7,476
946,1	5,79
946,6	4,79
947	5,933
947,4	9,19
947,8	14,648
948,2	15,305
948,7	19,562
949,1	18,19
949,5	22,162
949,9	18,133
950,3	12,162
950,8	8,248
951,2	8,533
951,6	3,048
952	5,648
952,5	-0,238
952,9	-0,695
953,3	1,905
953,7	2,248
954,1	6,305
954,6	8,39
955	12,933
955,4	16,476
955,8	23,476
956,2	21,933
956,7	21,219
957,1	17,019
957,5	18,905
957,9	13,876
958,3	12,505
958,8	4,676
959,2	8,019
959,6	13,019
960	11,248
960,5	9,076
960,9	13,076
961,3	13,419
961,7	16,048
962,1	13,905
962,6	11,133
963	13,048
963,4	10,933
963,8	11,362
964,2	13,562
964,7	11,962
965,1	14,79
965,5	14,105
965,9	13,819
966,3	17,705
966,8	17,076
967,2	16,105
967,6	16,276
968	9,705
968,4	12,448
968,9	15,99
969,3	17,333
969,7	12,59
970,1	16,048
970,5	17,733
971	23,905
971,4	24,305
971,8	21,819
972,2	23,533
972,6	25,219
973,1	20,476
973,5	22,362
973,9	17,648
974,3	14,048
974,7	21,419
975,2	19,848
975,6	16,305
976	18,705
976,4	13,505
976,8	16,905
977,3	15,305
977,7	4,99
978,1	3,105
978,5	8,362
978,9	5,562
979,4	8,105
979,8	4,562
980,2	6,362
980,6	3,419
981	4,619
981,5	3,533
981,9	6,219
982,3	6,848
982,7	8,79
983,1	7,733
983,6	12,79
984	14,762
984,4	18,019
984,8	15,248
985,2	17,448
985,6	14,333
986,1	16,305
986,5	19,733
986,9	11,419
987,3	10,705
987,7	12,162
988,2	10,448
988,6	10,619
989	9,39
989,4	5,905
989,8	9,933
990,3	6,505
990,7	8,019
991,1	7,39
991,5	13,305
991,9	17,533
992,3	22,105
992,8	21,19
993,2	21,419
993,6	18,705
994	18,276
994,4	14,162
994,9	10,133
995,3	6,219
995,7	8,019
996,1	5,219
996,5	7,705
996,9	4,848
997,4	7,448
997,8	3,105
998,2	-0,61
998,6	-5,867
999	-3,038
999,5	-6,21
999,9	-1,41
1000,3	-4,324
1000,7	0,105
1001,1	3,79
1001,5	6,705
1002	8,876
1002,4	9,362
1002,8	8,276
1003,2	16,648
1003,6	14,505
1004	17,333
1004,5	16,619
1004,9	15,848
1005,3	13,676
1005,7	13,762
1006,1	2,705
1006,6	2,876
1007	-1,895
1007,4	-3,181
1007,8	-1,638
1008,2	-2,438
1008,6	-0,695
1009,1	1,105
1009,5	4,533
1009,9	7,79
1010,3	7,676
1010,7	9,962
1011,1	13,905
1011,6	13,448
1012	17,162
1012,4	12,59
1012,8	8,676
1013,2	15,162
1013,6	8,39
1014,1	10,705
1014,5	10,505
1014,9	10,933
1015,3	10,79
1015,7	13,39
1016,1	11,333
1016,6	13,648
1017	9,933
1017,4	7,562
1017,8	3,676
1018,2	10,448
1018,6	6,762
1019,1	3,676
1019,5	4,676
1019,9	3,905
1020,3	5,79
1020,7	7,219
1021,1	5,133
1021,6	9,99
1022	15,076
1022,4	14,59
1022,8	16,705
1023,2	16,048
1023,6	18,933
1024,1	22,219
1024,5	19,819
1024,9	14,39
1025,3	14,19
1025,7	13,562
1026,1	12,476
1026,6	9,019
1027	7,876
1027,4	12,762
1027,8	13,419
1028,2	10,848
1028,6	15,933
1029	15,476
1029,5	21,505
1029,9	16,533
1030,3	8,962
1030,7	10,19
1031,1	12,876
1031,5	5,676
1032	9,705
1032,4	7,59
1032,8	10,276
1033,2	13,648
1033,6	14,762
1034	14,305
1034,4	17,305
1034,9	15,762
1035,3	12,276
1035,7	14,819
1036,1	12,276
1036,5	6,562
1036,9	10,448
1037,4	9,848
1037,8	4,533
1038,2	3,476
1038,6	1,105
1039	7,276
1039,4	13,333
1039,8	5,79
1040,3	9,505
1040,7	14,162
1041,1	19,305
1041,5	21,419
1041,9	14,333
1042,3	13,962
1042,7	17,019
1043,2	13,105
1043,6	10,39
1044	8,133
1044,4	3,048
1044,8	7,905
1045,2	7,819
1045,6	7,848
1046,1	5,362
1046,5	4,19
1046,9	0,962
1047,3	3,79
1047,7	1,448
1048,1	-1,124
1048,5	-0,752
1049	5,162
1049,4	13,162
1049,8	12,99
1050,2	10,905
1050,6	16,819
1051	17,019
1051,4	17,362
1051,9	17,076
1052,3	21,619
1052,7	22,276
1053,1	19,648
1053,5	16,162
1053,9	17,705
1054,3	18,962
1054,8	24,676
1055,2	17,362
1055,6	18,048
1056	22,248
1056,4	22,562
1056,8	18,705
1057,2	16,562
1057,6	8,276
1058,1	4,79
1058,5	4,133
1058,9	6,133
1059,3	6,733
1059,7	10,248
1060,1	10,162
1060,5	8,79
1061	11,648
1061,4	10,448
1061,8	7,162
1062,2	3,733
1062,6	7,819
1063	11,648
1063,4	14,19
1063,8	12,419
1064,3	9,419
1064,7	11,819
1065,1	12,819
1065,5	5,733
1065,9	4,505
1066,3	3,533
1066,7	0,333
1067,1	4,962
1067,6	7,562
1068	4,648
1068,4	6,533
1068,8	6,133
1069,2	6,105
1069,6	6,39
1070	6,162
1070,4	3,762
1070,9	3,105
1071,3	5,762
1071,7	2,962
1072,1	4,105
1072,5	6,762
1072,9	10,848
1073,3	11,019
1073,7	12,962
1074,2	13,362
1074,6	14,848
1075	9,448
1075,4	8,99
1075,8	7,962
1076,2	4,933
1076,6	6,819
1077	3,905
1077,5	6,648
1077,9	8,219
1078,3	7,105
1078,7	6,476
1079,1	7,933
1079,5	7,362
1079,9	9,619
1080,3	5,962
1080,7	8,248
1081,2	14,333
1081,6	13,448
1082	11,648
1082,4	15,648
1082,8	14,333
1083,2	16,705
1083,6	17,733
1084	11,305
1084,5	13,362
1084,9	11,99
1085,3	3,933
1085,7	4,619
1086,1	1,905
1086,5	-0,295
1086,9	4,99
1087,3	4,133
1087,7	6,419
1088,2	9,848
1088,6	11,99
1089	13,619
1089,4	17,79
1089,8	20,476
1090,2	18,819
1090,6	20,219
1091	25,39
1091,4	25,248
1091,9	24,533
1092,3	24,733
1092,7	20,19
1093,1	23,962
1093,5	22,476
1093,9	18,333
1094,3	18,533
1094,7	15,39
1095,1	17,905
1095,5	16,39
1096	10,019
1096,4	11,933
1096,8	11,219
1097,2	7,333
1097,6	15,762
1098	11,276
1098,4	17,305
1098,8	17,79
1099,2	22,59
1099,6	23,133
1100,1	22,162
1100,5	14,19
1100,9	12,105
1101,3	8,333
1101,7	7,619
1102,1	2,476
1102,5	3,79
1102,9	5,905
1103,3	13,248
1103,7	15,133
1104,2	11,448
1104,6	14,333
1105	11,362
1105,4	9,276
1105,8	7,733
1106,2	1,99
1106,6	-0,238
1107	0,362
1107,4	-1,567
1107,8	-0,427
1108,3	-0,917
