Data from Subt2_186.txt Node
Date: Sat Aug 26 18:41:33 MSK 2023
User: vat
Spectrometer: MAYP114033
Trigger mode: 0
Integration Time (sec): 1,000000E0
Scans to average: 5
Electric dark correction enabled: true
Nonlinearity correction enabled: false
Boxcar width: 3
XAxis mode: Wavelengths
Number of Pixels in Spectrum: 2068
>>>>>Begin Spectral Data<<<<<
199,4	0,2
199,9	-0,9
200,4	-4
200,8	-1,957
201,3	-3,786
201,8	-2,471
202,2	-2,329
202,7	3,357
203,2	3,929
203,6	5,443
204,1	3,786
204,6	4,843
205	7,3
205,5	6,443
206	4,1
206,4	3,157
206,9	5,7
207,4	8,214
207,8	5,643
208,3	0,443
208,8	-2,3
209,2	-3,129
209,7	-2,271
210,2	-3,157
210,6	-3,557
211,1	0,729
211,5	-0,7
212	2,814
212,5	3,014
212,9	0,214
213,4	1,043
213,9	-0,671
214,3	-2,443
214,8	0,329
215,3	2,5
215,7	2,414
216,2	7,557
216,7	4,786
217,1	3,5
217,6	10,386
218,1	8,386
218,5	4,329
219	0,557
219,5	2,1
219,9	3,129
220,4	10,071
220,9	1,957
221,3	3,443
221,8	8,986
222,3	11,814
222,7	11,557
223,2	12,243
223,6	3,9
224,1	5,129
224,6	7,929
225	-0,1
225,5	-1,814
226	-4,386
226,4	-1,957
226,9	0,929
227,4	2,529
227,8	-3,329
228,3	-2,443
228,8	-0,671
229,2	-1,586
229,7	-6,586
230,2	-4,614
230,6	0,243
231,1	5,357
231,5	9,529
232	6,786
232,5	6,243
232,9	7,786
233,4	9,3
233,9	2,186
234,3	0,357
234,8	-2,157
235,3	3,271
235,7	7,643
236,2	9,843
236,7	7,557
237,1	10,786
237,6	7,386
238,1	4,7
238,5	-1,071
239	-1,729
239,4	1,786
239,9	-0,071
240,4	-2,329
240,8	4,443
241,3	4,814
241,8	4,443
242,2	1,557
242,7	-4,586
243,2	-2,929
243,6	-1,671
244,1	-1,986
244,6	-0,471
245	1,871
245,5	4,9
245,9	-0,786
246,4	1,014
246,9	3,3
247,3	1,929
247,8	4,757
248,3	6,1
248,7	4,243
249,2	13,929
249,7	13,3
250,1	12,329
250,6	9,586
251	13,443
251,5	11,414
252	12,814
252,4	12,9
252,9	8,814
253,4	6,329
253,8	5,643
254,3	1,443
254,8	6,186
255,2	2,7
255,7	-3,214
256,1	-2,014
256,6	-4,786
257,1	0,329
257,5	-1,614
258	-7,271
258,5	-8,1
258,9	-6,243
259,4	-4,557
259,9	1,643
260,3	-4,529
260,8	-3,5
261,2	-1,243
261,7	1,957
262,2	2,357
262,6	2,929
263,1	4,757
263,6	4,786
264	7,357
264,5	7,757
264,9	7,929
265,4	10,643
265,9	6,9
266,3	6,043
266,8	14,157
267,3	13,071
267,7	11,329
268,2	12,243
268,7	11,986
269,1	15,729
269,6	13,129
270	12,271
270,5	11,1
271	12,1
271,4	10,071
271,9	2,814
272,4	3,157
272,8	3,814
273,3	0,986
273,7	3,414
274,2	2,5
274,7	1,729
275,1	9,071
275,6	4,5
276,1	3,043
276,5	5,386
277	1,243
277,4	5,157
277,9	11,129
278,4	9,814
278,8	14,843
279,3	13,9
279,8	10,414
280,2	14,929
280,7	11,843
281,1	5,729
281,6	3,471
282,1	2,3
282,5	2,957
283	4,757
283,4	1,871
283,9	4,186
284,4	7,414
284,8	13,1
285,3	11,586
285,8	13,386
286,2	8,014
286,7	5,643
287,1	1,386
287,6	-0,129
288,1	-5,5
288,5	-3,329
289	-6,043
289,5	-1,043
289,9	0,586
290,4	2,614
290,8	5,357
291,3	4,843
291,8	5,014
292,2	5,871
292,7	6,871
293,1	6,757
293,6	8,7
294,1	2,929
294,5	3,5
295	5,7
295,5	4,043
295,9	-0,157
296,4	-0,329
296,8	-2,414
297,3	1,843
297,8	-2,5
298,2	-12,529
298,7	-7,271
299,1	-5,214
299,6	-5,186
300,1	-4,757
300,5	-5,986
301	1,614
301,5	12,614
301,9	9,957
302,4	6,986
302,8	6,929
303,3	6,329
303,8	2,557
304,2	-0,014
304,7	-4,386
305,1	-8,643
305,6	-5,3
306,1	0,929
306,5	4,329
307	9,7
307,4	12,214
307,9	10,757
308,4	11,043
308,8	8,757
309,3	7,186
309,8	2,586
310,2	1,214
310,7	-3,957
311,1	-3,929
311,6	0,986
312,1	6,129
312,5	4,243
313	4,529
313,4	2,386
313,9	3,871
314,4	5,271
314,8	1,214
315,3	-1,843
315,7	-6,729
316,2	-6,757
316,7	-5,014
317,1	0,529
317,6	0,7
318	2,071
318,5	-1,186
319	3,529
319,4	4,357
319,9	5,843
320,3	2,871
320,8	0,529
321,3	7,986
321,7	13,671
322,2	11,1
322,6	12,386
323,1	9,671
323,6	8,5
324	9,729
324,5	2,814
324,9	0,5
325,4	2,386
325,9	2,929
326,3	6,757
326,8	5,671
327,2	6,414
327,7	7,443
328,2	7,529
328,6	8,014
329,1	1,843
329,5	-2,471
330	-3,271
330,5	-1,529
330,9	1,843
331,4	2,386
331,8	4,214
332,3	11,329
332,8	10,786
333,2	11,014
333,7	11,157
334,1	8,871
334,6	6,471
335,1	-0,843
335,5	-2,786
336	-1,243
336,4	3,014
336,9	5,043
337,4	5,1
337,8	2,7
338,3	7,071
338,7	7,614
339,2	5,529
339,7	11,414
340,1	4,786
340,6	3,443
341	5,3
341,5	7,157
342	9,071
342,4	9,271
342,9	2,186
343,3	6,671
343,8	7,671
344,2	12,929
344,7	16,557
345,2	14,014
345,6	16,186
346,1	15,786
346,5	11,357
347	10,843
347,5	9,271
347,9	7,9
348,4	8,757
348,8	9,871
349,3	14,357
349,8	19,214
350,2	24,843
350,7	21,786
351,1	24,1
351,6	29,729
352	33,557
352,5	38,443
353	45,243
353,4	47,643
353,9	60,071
354,3	68,557
354,8	74,243
355,3	93,043
355,7	111,014
356,2	134,357
356,6	161,7
357,1	195,786
357,5	231,9
358	276,5
358,5	319,071
358,9	374,157
359,4	432,443
359,8	499,586
360,3	576,129
360,8	655,986
361,2	747,3
361,7	852,814
362,1	962,7
362,6	1085,357
363	1214,814
363,5	1352,757
364	1503,843
364,4	1654,186
364,9	1803,3
365,3	1948,214
365,8	2085,1
366,3	2215,186
366,7	2330,757
367,2	2435,414
367,6	2523,729
368,1	2592,586
368,5	2638,386
369	2663,614
369,5	2672,814
369,9	2651,929
370,4	2612,957
370,8	2553,843
371,3	2475,957
371,7	2387,729
372,2	2286,986
372,7	2174,071
373,1	2056,329
373,6	1931,386
374	1813,471
374,5	1695,071
374,9	1579,471
375,4	1466,586
375,9	1356,957
376,3	1255,529
376,8	1155,871
377,2	1063,471
377,7	970,5
378,2	885,529
378,6	812,957
379,1	745,271
379,5	687,5
380	636,557
380,4	580,586
380,9	535,071
381,4	491,671
381,8	455,729
382,3	421,529
382,7	386,243
383,2	356,157
383,6	329,329
384,1	311,671
384,6	296,929
385	272,614
385,5	251,671
385,9	237,386
386,4	218,214
386,8	206,757
387,3	186,614
387,7	170,871
388,2	159,357
388,7	148,843
389,1	135,529
389,6	126,671
390	116,929
390,5	112,3
390,9	106,357
391,4	95,929
391,9	86,471
392,3	84,443
392,8	82,986
393,2	77,357
393,7	72,5
394,1	65,071
394,6	62,957
395,1	65,529
395,5	59,671
396	56,014
396,4	53,214
396,9	49,643
397,3	50,9
397,8	54,157
398,2	51,529
398,7	51,443
399,2	50,529
399,6	51,871
400,1	50,7
400,5	46,414
401	44,186
401,4	41,814
401,9	41,214
402,4	44,329
402,8	38,9
403,3	44,757
403,7	45,157
404,2	47,386
404,6	50,071
405,1	52,729
405,5	43,214
406	48,329
406,5	43,129
406,9	47,643
407,4	47,357
407,8	46,5
408,3	46,129
408,7	53,929
409,2	59,614
409,6	68,929
410,1	71,357
410,6	77,614
411	85,443
411,5	91,9
411,9	100,471
412,4	102,186
412,8	106,271
413,3	114,871
413,7	116,386
414,2	122,443
414,7	134,214
415,1	145,529
415,6	162,157
416	172,129
416,5	179,643
416,9	187,7
417,4	199,614
417,8	211,557
418,3	217,814
418,8	227,3
419,2	238,129
419,7	245,443
420,1	264,671
420,6	279,014
421	283,814
421,5	300,414
421,9	309,129
422,4	321,214
422,8	337,786
423,3	350,357
423,8	363,5
424,2	378,471
424,7	391,329
425,1	408,929
425,6	428,214
426	447,757
426,5	470,071
426,9	493,386
427,4	513,243
427,9	531,443
428,3	559,329
428,8	583,243
429,2	611,614
429,7	638,557
430,1	665,1
430,6	701,271
431	736,757
431,5	772,871
431,9	806,443
432,4	847,9
432,8	890,5
433,3	933,329
433,8	978,329
434,2	1026,729
434,7	1071,157
435,1	1124,243
435,6	1174,3
436	1227,929
436,5	1288,529
436,9	1343,586
437,4	1404,843
437,8	1473,5
438,3	1540,871
438,8	1607,7
439,2	1673,843
439,7	1746,814
440,1	1822,586
440,6	1905,529
441	1981,7
441,5	2069,643
441,9	2161,843
442,4	2246,186
442,8	2339,929
443,3	2438,814
443,7	2536,757
444,2	2640,757
444,7	2743,329
445,1	2848,129
445,6	2962,814
446	3073,871
446,5	3187,843
446,9	3297,7
447,4	3418,1
447,8	3542,586
448,3	3675,729
448,7	3807,529
449,2	3944,329
449,6	4082,3
450,1	4223,986
450,6	4366,929
451	4511,071
451,5	4656,443
451,9	4808,814
452,4	4963,243
452,8	5121,214
453,3	5291,414
453,7	5456,529
454,2	5627,671
454,6	5793,071
455,1	5966,443
455,5	6135,271
456	6312,7
456,4	6476,1
456,9	6652,586
457,3	6823,186
457,8	7004,786
458,3	7191,014
458,7	7373,557
459,2	7557,814
459,6	7755,786
460,1	7942,214
460,5	8129,529
461	8325,557
461,4	8508,186
461,9	8706,357
462,3	8899,3
462,8	9091,443
463,2	9293,957
463,7	9506,757
464,1	9699,557
464,6	9906,3
465	10092,071
465,5	10284,471
466	10485,7
466,4	10674,614
466,9	10860,729
467,3	11062,129
467,8	11258,5
468,2	11468,271
468,7	11680,986
469,1	11873,5
469,6	12063,386
470	12250,729
470,5	12438,014
470,9	12614,329
471,4	12786,329
471,8	12957,214
472,3	13130,9
472,7	13301,129
473,2	13469,929
473,6	13627,443
474,1	13809,729
474,5	13977,957
475	14143,843
475,4	14309,386
475,9	14479,586
476,4	14632,729
476,8	14787,471
477,3	14919,729
477,7	15057,671
478,2	15177,471
478,6	15291,986
479,1	15410,129
479,5	15537,357
480	15638,871
480,4	15744,071
480,9	15847,614
481,3	15942,7
481,8	16043,471
482,2	16123,443
482,7	16206,729
483,1	16300,157
483,6	16365,614
484	16427,9
484,5	16493,157
484,9	16542,186
485,4	16598,614
485,8	16647,957
486,3	16678,214
486,7	16727,014
487,2	16757,414
487,6	16793,014
488,1	16812,929
488,5	16827,671
489	16838,357
489,4	16853,814
489,9	16844,757
490,4	16844,5
490,8	16829,414
491,3	16825,043
491,7	16803,129
492,2	16780,414
492,6	16737,471
493,1	16697,671
493,5	16646,071
494	16598,043
494,4	16551,9
494,9	16505,386
495,3	16445,986
495,8	16405,7
496,2	16358,929
496,7	16314,414
497,1	16269,129
497,6	16202,471
498	16134,386
498,5	16077,129
498,9	15996,357
499,4	15914,957
499,8	15843,186
500,3	15756,471
500,7	15672,843
501,2	15586,729
501,6	15479,071
502,1	15386,529
502,5	15300,7
503	15201,1
503,4	15102,529
503,9	15003,614
504,3	14911,643
504,8	14811,843
505,2	14712,757
505,7	14608,786
506,1	14502,443
506,6	14387,271
507	14271,471
507,5	14157,5
507,9	14041,786
508,4	13932,7
508,8	13816,729
509,3	13691,5
509,7	13579,271
510,2	13466,186
510,6	13348,071
511,1	13230,5
511,5	13105,757
512	12991,329
512,4	12878,671
512,9	12761,586
513,3	12644,386
513,8	12512,871
514,2	12386,157
514,7	12262,786
515,1	12123,3
515,6	11999,414
516	11868,443
516,5	11737,329
516,9	11618,157
517,4	11506,329
517,8	11384,529
518,3	11270,7
518,7	11148,414
519,2	11019,757
519,6	10908,5
520,1	10801,386
520,5	10679,3
521	10555,729
521,4	10438,014
521,9	10328,1
522,3	10230,643
522,8	10109,014
523,2	9986,243
523,7	9877,986
524,1	9774,186
524,6	9668,443
525	9561,986
525,5	9456,471
525,9	9361,129
526,4	9253,157
526,8	9145,043
527,3	9042,129
527,7	8948,871
528,2	8843,357
528,6	8739,329
529,1	8633,729
529,5	8543,986
530	8462,729
530,4	8367,557
530,9	8269,3
531,3	8169,643
531,8	8080,7
532,2	7987,957
532,6	7890,414
533,1	7789,529
533,5	7705,871
534	7618,986
534,4	7537,214
534,9	7455,329
535,3	7373,1
535,8	7298,071
536,2	7222,414
536,7	7145,957
537,1	7070,3
537,6	6995,757
538	6917,329
538,5	6847,643
538,9	6770,929
539,4	6693,329
539,8	6624,386
540,3	6550,671
540,7	6478,957
541,2	6405,1
541,6	6335,786
542,1	6272,5
542,5	6213,757
543	6141,5
543,4	6079,471
543,9	6023,157
544,3	5962,957
544,8	5901,9
545,2	5844,986
545,7	5785,357
546,1	5732,529
546,5	5681,129
547	5616,871
547,4	5557,329
547,9	5501,5
548,3	5442,671
548,8	5391,929
549,2	5329,814
549,7	5270,786
550,1	5222,671
550,6	5176,586
551	5128,529
551,5	5083,557
551,9	5029,757
552,4	4984,3
552,8	4938,357
553,3	4892,357
553,7	4848,671
554,2	4805,071
554,6	4757,729
555,1	4721,443
555,5	4681,586
555,9	4646,471
556,4	4605,871
556,8	4563,929
557,3	4524,9
557,7	4490,157
558,2	4444,557
558,6	4412,929
559,1	4370,557
559,5	4337,929
560	4310,814
560,4	4274,614
560,9	4234,986
561,3	4199,929
561,8	4162,786
562,2	4130,157
562,7	4093,729
563,1	4060,643
563,6	4032,614
564	3999,814
564,4	3969,9
564,9	3941,586
565,3	3911,243
565,8	3879,557
566,2	3846,929
566,7	3816,329
567,1	3796,7
567,6	3762,157
568	3732,443
568,5	3702,471
568,9	3673,357
569,4	3641,443
569,8	3615,329
570,3	3582,929
570,7	3562,357
571,1	3536,471
571,6	3510,671
572	3490,157
572,5	3467,243
572,9	3436,871
573,4	3412,586
573,8	3391,586
574,3	3365,9
574,7	3342,957
575,2	3321,586
575,6	3293,157
576,1	3277,357
576,5	3252,471
576,9	3223,614
577,4	3194,414
577,8	3173,129
578,3	3150,471
578,7	3132,414
579,2	3108,786
579,6	3085,329
580,1	3064,129
580,5	3053,671
581	3027,214
581,4	3003,957
581,9	2980,243
582,3	2953,157
582,7	2940,414
583,2	2924,157
583,6	2895,329
584,1	2881,957
584,5	2859,814
585	2841,957
585,4	2823,586
585,9	2799,957
586,3	2778,214
586,8	2763,986
587,2	2738,643
587,6	2724,986
588,1	2709,643
588,5	2694,7
589	2683,9
589,4	2662,443
589,9	2641,614
590,3	2626,386
590,8	2610,3
591,2	2594,214
591,7	2583,843
592,1	2559,871
592,5	2552,557
593	2535,414
593,4	2526,357
593,9	2506,329
594,3	2488,329
594,8	2465,129
595,2	2451,471
595,7	2430,386
596,1	2420,471
596,6	2404,729
597	2397,671
597,4	2386,557
597,9	2374,214
598,3	2367,157
598,8	2362,814
599,2	2350,614
599,7	2336,957
600,1	2314,3
600,6	2301,129
601	2291,871
601,4	2281,043
601,9	2268,386
602,3	2250,129
602,8	2233,729
603,2	2228,329
603,7	2215,186
604,1	2201,671
604,6	2186,3
605	2162,271
605,4	2159,471
605,9	2147,414
606,3	2124,014
606,8	2105,814
607,2	2086,757
607,7	2065,614
608,1	2059,529
608,6	2046,729
609	2040,386
609,4	2035,529
609,9	2027,986
610,3	2021,529
610,8	2009,5
611,2	1999,757
611,7	1984,814
612,1	1969,557
612,6	1964,014
613	1954,7
613,4	1943,757
613,9	1934,529
614,3	1923,929
614,8	1916,386
615,2	1907,957
615,7	1898,014
616,1	1887,9
616,6	1872,529
617	1864,243
617,4	1852,243
617,9	1837,729
618,3	1826,7
618,8	1810,729
619,2	1798,014
619,7	1792,014
620,1	1778,757
620,5	1774,529
621	1760,3
621,4	1750,814
621,9	1737,129
622,3	1727,243
622,8	1710,443
623,2	1703,329
623,6	1687,243
624,1	1681,729
624,5	1672,986
625	1668,929
625,4	1656,3
625,9	1654,757
626,3	1642,986
626,8	1629,271
627,2	1620,071
627,6	1600,1
628,1	1584,614
628,5	1583,614
629	1567,557
629,4	1557,014
629,9	1548,443
630,3	1532,1
630,7	1525,329
631,2	1520,871
631,6	1505,357
632,1	1498,014
632,5	1490,414
633	1483,129
633,4	1476,757
633,8	1465,357
634,3	1450,5
634,7	1439,243
635,2	1423,7
635,6	1410,843
636,1	1401,357
636,5	1387,329
636,9	1378,957
637,4	1367,643
637,8	1353,443
638,3	1346,014
638,7	1336,214
639,2	1322,271
639,6	1318,071
640	1310,329
640,5	1308,529
640,9	1303,129
641,4	1301,414
641,8	1300,471
642,2	1295,1
642,7	1292,3
643,1	1289,357
643,6	1275,643
644	1269,671
644,5	1262,671
644,9	1254,871
645,3	1250,071
645,8	1236,214
646,2	1227,329
646,7	1223,386
647,1	1216,157
647,6	1205,757
648	1197,757
648,4	1183,7
648,9	1180,329
649,3	1168,871
649,8	1162,071
650,2	1154,671
650,6	1150,729
651,1	1137,043
651,5	1132,529
652	1121,014
652,4	1112,357
652,9	1104,186
653,3	1095,843
653,7	1084,243
654,2	1080,329
654,6	1071,271
655,1	1066,271
655,5	1068,786
655,9	1060,471
656,4	1056,871
656,8	1051,129
657,3	1039,871
657,7	1038,671
658,2	1033,214
658,6	1019,271
659	1013,157
659,5	1007,271
659,9	1000,529
660,4	1001,843
660,8	992,3
661,2	982,843
661,7	978,529
662,1	973,929
662,6	964,843
663	957,471
663,4	944,957
663,9	938,557
664,3	930,957
664,8	919,1
665,2	908,471
665,6	902,529
666,1	898,043
666,5	896,071
667	893,129
667,4	884,929
667,9	883,9
668,3	877,929
668,7	870,957
669,2	870,871
669,6	861,214
670,1	851,7
670,5	845,443
670,9	835,443
671,4	827,186
671,8	823,9
672,3	816,871
672,7	812,5
673,1	802,786
673,6	799,1
674	794,786
674,5	794,986
674,9	784,014
675,3	773,9
675,8	768,014
676,2	765,357
676,7	758,414
677,1	753,1
677,5	746,157
678	743,814
678,4	738,671
678,9	736,843
679,3	729,929
679,7	726,7
680,2	713,386
680,6	706,443
681,1	701,557
681,5	696,757
681,9	691,814
682,4	693,871
682,8	689,043
683,3	694,471
683,7	693,214
684,1	686,557
684,6	676,843
685	666,414
685,5	652,986
685,9	646,814
686,3	636,414
686,8	631,786
687,2	625,471
687,7	622,586
688,1	616,814
688,5	618,243
689	615,643
689,4	614,843
689,9	610,757
690,3	605,814
690,7	602,214
691,2	601,443
691,6	599,1
692	594,3
692,5	590,557
692,9	585,014
693,4	578,471
693,8	574,929
694,2	568,014
694,7	559,986
695,1	556,843
695,6	556,243
696	551,871
696,4	552,443
696,9	547,671
697,3	546,186
697,8	542,186
698,2	533,9
698,6	528,529
699,1	521,929
699,5	520,243
699,9	517,186
700,4	510,1
700,8	507,5
701,3	512,557
701,7	506,3
702,1	506,243
702,6	498,443
703	494,929
703,5	490,529
703,9	484,9
704,3	480,243
704,8	476,671
705,2	472,014
705,6	466,786
706,1	457,643
706,5	455,214
707	453,329
707,4	449,843
707,8	442,414
708,3	438,671
708,7	438,471
709,2	439,586
709,6	437,671
710	438,814
710,5	433,243
710,9	435,871
711,3	434,014
711,8	434,643
712,2	433,9
712,7	431,357
713,1	426,443
713,5	422,014
714	418,443
714,4	409,1
714,8	404,529
715,3	398,729
715,7	396,843
716,2	389,157
716,6	386,386
717	381,757
717,5	382,786
717,9	382,529
718,3	380,643
718,8	377,1
719,2	377,643
719,7	376,471
720,1	376,129
720,5	378,214
721	371,3
721,4	370,014
721,8	370,186
722,3	363,757
722,7	363,443
723,2	354,329
723,6	343,243
724	332,586
724,5	332,043
724,9	326,814
725,3	326,214
725,8	319,386
726,2	321,443
726,7	323,557
727,1	329,986
727,5	324,186
728	319,586
728,4	315,729
728,8	313,157
729,3	309,9
729,7	303,329
730,1	299,471
730,6	295,671
731	297,271
731,5	298,871
731,9	294,786
732,3	292,414
732,8	296,271
733,2	300,1
733,6	297,329
734,1	294,757
734,5	290,3
734,9	293,557
735,4	294,214
735,8	287,214
736,3	280,014
736,7	278,329
737,1	277,757
737,6	276,3
738	272,043
738,4	265,671
738,9	266,271
739,3	268,843
739,7	275,243
740,2	270,386
740,6	272,071
741,1	272,243
741,5	270,614
741,9	270,071
742,4	266,986
742,8	259,529
743,2	257,757
743,7	252,243
744,1	247,786
744,5	248,271
745	244,014
745,4	236,1
745,8	235,814
746,3	237,357
746,7	234,271
747,2	233,614
747,6	232,043
748	238,043
748,5	242,414
748,9	236,157
749,3	233,614
749,8	233,986
750,2	230,3
750,6	226,586
751,1	223,557
751,5	222,243
751,9	225,3
752,4	222,071
752,8	220,129
753,3	218,071
753,7	221,671
754,1	212,957
754,6	208,843
755	203,786
755,4	204,471
755,9	200,3
756,3	199,529
756,7	194,9
757,2	195,7
757,6	196,557
758	197,786
758,5	194,186
758,9	195,786
759,3	197,329
759,8	195,986
760,2	194,5
760,6	189,814
761,1	187,443
761,5	187,414
761,9	182,386
762,4	181,529
762,8	180,186
763,3	180,3
763,7	184,014
764,1	185,729
764,6	185,014
765	190,1
765,4	188,414
765,9	189,014
766,3	190,957
766,7	186,357
767,2	180,671
767,6	179,386
768	174,043
768,5	172,614
768,9	172,586
769,3	166,414
769,8	164,643
770,2	166,014
770,6	165,071
771,1	169,271
771,5	170,529
771,9	170,1
772,4	171,786
772,8	169,814
773,2	170,729
773,7	169,529
774,1	162,843
774,5	156,7
775	153,586
775,4	153,443
775,8	149,443
776,3	150,129
776,7	147,843
777,1	150,957
777,6	152,1
778	157,757
778,4	150,129
778,9	157,643
779,3	152,471
779,7	152,586
780,2	153,814
780,6	157,557
781	147,986
781,5	148,7
781,9	145,357
782,3	142,643
782,8	143,586
783,2	139,043
783,6	133,871
784,1	135,471
784,5	136,014
784,9	133,843
785,4	137,186
785,8	131,386
786,2	131,929
786,7	134,129
787,1	129,471
787,5	134,186
788	132,814
788,4	129,614
788,8	132,786
789,3	129,357
789,7	125,014
790,1	124,9
790,6	123,243
791	116,471
791,4	119,1
791,9	116,129
792,3	112,329
792,7	115,986
793,2	116,329
793,6	113,071
794	121,214
794,5	117,243
794,9	117,757
795,3	120,329
795,8	115,9
796,2	117,071
796,6	117,043
797,1	117,014
797,5	114,357
797,9	107,7
798,4	107,071
798,8	107,1
799,2	103,5
799,7	105,614
800,1	101,729
800,5	101,471
801	107,5
801,4	106,929
801,8	102,9
802,2	103,671
802,7	99,586
803,1	100,529
803,5	101,757
804	96,357
804,4	95,614
804,8	98,843
805,3	98,9
805,7	96,129
806,1	94,1
806,6	93,557
807	96,871
807,4	92,157
807,9	89,014
808,3	87,871
808,7	91,643
809,2	93,071
809,6	94,3
810	92,7
810,4	94,529
810,9	96,986
811,3	99,986
811,7	98,186
812,2	101,557
812,6	99,9
813	101,014
813,5	103,929
813,9	103,014
814,3	97,5
814,8	93,843
815,2	85,186
815,6	79,9
816,1	82,586
816,5	84,443
816,9	83,586
817,3	83,986
817,8	87,414
818,2	91,643
818,6	91,129
819,1	83,757
819,5	77,129
819,9	74,757
820,4	77,586
820,8	73,014
821,2	63,3
821,7	67,271
822,1	74,843
822,5	81,986
822,9	84,386
823,4	80,814
823,8	82,186
824,2	91,529
824,7	87,271
825,1	78,414
825,5	67,471
826	58,243
826,4	55,586
826,8	52,957
827,3	50,129
827,7	48,243
828,1	47,414
828,5	50,471
829	51,271
829,4	51,471
829,8	46,014
830,3	47,357
830,7	49,929
831,1	49,9
831,6	52,1
832	52,414
832,4	51,843
832,8	61,214
833,3	55,443
833,7	50,471
834,1	53,157
834,6	48,643
835	50,071
835,4	51,757
835,8	47,014
836,3	47,1
836,7	53,986
837,1	52,014
837,6	57,671
838	57,843
838,4	55,386
838,9	53,986
839,3	53,357
839,7	52,414
840,1	47,157
840,6	44,271
841	47,9
841,4	48,271
841,9	51,3
842,3	51,3
842,7	50,414
843,1	54,729
843,6	51,871
844	50,5
844,4	55,529
844,9	57,814
845,3	59,386
845,7	60,586
846,2	57,443
846,6	55,529
847	54,043
847,4	51,929
847,9	48,5
848,3	47,614
848,7	43,843
849,2	46,386
849,6	46,271
850	49,671
850,4	47,271
850,9	49,643
851,3	49,843
851,7	52,786
852,2	53,071
852,6	56,471
853	52,214
853,4	49,614
853,9	46,586
854,3	44,586
854,7	44,443
855,2	42,929
855,6	43,871
856	38,271
856,4	38,3
856,9	34,414
857,3	37,929
857,7	36,329
858,2	40,386
858,6	37,957
859	43,843
859,4	42,271
859,9	41,1
860,3	38,757
860,7	34,671
861,1	34,871
861,6	36,129
862	34,043
862,4	33,043
862,9	38,214
863,3	34,386
863,7	38,071
864,1	38,043
864,6	31,729
865	32,014
865,4	33,586
865,9	33,986
866,3	35,329
866,7	29,871
867,1	22,871
867,6	28,214
868	24,9
868,4	23,871
868,8	21,129
869,3	20,243
869,7	28,443
870,1	22,757
870,6	20,386
871	-44,214
871,4	-37,757
871,8	-40,871
872,3	-37,671
872,7	-42,843
873,1	-33,471
873,5	-33,157
874	33,1
874,4	30,414
874,8	28,986
875,3	29,957
875,7	28,1
876,1	29,386
876,5	28,3
877	29,471
877,4	25,957
877,8	30,843
878,2	30,843
878,7	33,7
879,1	28,471
879,5	33,243
879,9	31,386
880,4	34,557
880,8	33,386
881,2	28,614
881,7	25,243
882,1	27,471
882,5	22,843
882,9	20,329
883,4	16,214
883,8	17,243
884,2	17,186
884,6	15,614
885,1	15,814
885,5	16,329
885,9	16,443
886,3	19,471
886,8	18,243
887,2	17,157
887,6	18,243
888	19,129
888,5	17,957
888,9	19,014
889,3	16,671
889,8	15,643
890,2	19,729
890,6	16,814
891	14,3
891,5	16,014
891,9	19,014
892,3	19,643
892,7	19,729
893,2	19,014
893,6	23,329
894	23,129
894,4	22,957
894,9	24,614
895,3	25,157
895,7	26,443
896,1	26,1
896,6	27,071
897	25,529
897,4	28,986
897,8	27,957
898,3	27,329
898,7	22,529
899,1	21,871
899,5	19,357
900	19,957
900,4	14,186
900,8	11,3
901,2	6,157
901,7	6,214
902,1	7,186
902,5	14,014
902,9	13,186
903,4	14,357
903,8	17,157
904,2	22,1
904,6	23,386
905,1	21,414
905,5	16,557
905,9	21,586
906,3	24,1
906,8	23,186
907,2	21,243
907,6	24,129
908	24,186
908,5	20,643
908,9	15,157
909,3	11,243
909,7	8,871
910,2	10,671
910,6	15,157
911	16,014
911,4	16,414
911,9	14,157
912,3	13,357
912,7	14,757
913,1	18,414
913,6	11,386
914	10,414
914,4	10,557
914,8	15,5
915,3	13,414
915,7	14,043
916,1	8,871
916,5	11,5
916,9	8,357
917,4	12,729
917,8	12,3
918,2	12,3
918,6	4,757
919,1	8,043
919,5	6,071
919,9	6,3
920,3	1,1
920,8	0,5
921,2	0,757
921,6	7,843
922	6,014
922,5	3,157
922,9	8,014
923,3	8,186
923,7	7,786
924,2	8,557
924,6	6,129
925	7,243
925,4	7,386
925,8	6,5
926,3	5,843
926,7	1,443
927,1	3,986
927,5	7,557
928	0,557
928,4	0,157
928,8	-2,3
929,2	-2,3
929,7	2,557
930,1	3,871
930,5	2,129
930,9	7,671
931,3	7,843
931,8	9,786
932,2	12,9
932,6	9,814
933	-0,443
933,5	-2,471
933,9	1,243
934,3	5,1
934,7	1,043
935,2	-0,671
935,6	-2,529
936	5,471
936,4	4,757
936,8	3,614
937,3	2,7
937,7	7,7
938,1	9,786
938,5	9,586
939	10,643
939,4	11,529
939,8	11,386
940,2	14,386
940,6	12,014
941,1	12,671
941,5	23,986
941,9	20,043
942,3	20,014
942,8	17,043
943,2	17,957
943,6	13,929
944	15,1
944,4	10,1
944,9	10,443
945,3	12,414
945,7	8,843
946,1	3,843
946,6	8,3
947	3,814
947,4	5,929
947,8	7,471
948,2	4,386
948,7	7,786
949,1	6,071
949,5	8,386
949,9	12,529
950,3	5,843
950,8	5,843
951,2	2,529
951,6	0,1
952	2,9
952,5	-2,357
952,9	-3,214
953,3	-3,071
953,7	-3,414
954,1	4,157
954,6	9,271
955	9,214
955,4	10,214
955,8	10,357
956,2	12,243
956,7	15,529
957,1	11,329
957,5	11,814
957,9	13,643
958,3	13,386
958,8	11,5
959,2	14,129
959,6	16,386
960	16,7
960,5	11,757
960,9	9,843
961,3	10,5
961,7	10,986
962,1	11,529
962,6	8,186
963	10,043
963,4	7,9
963,8	8,729
964,2	8,329
964,7	6,529
965,1	7,957
965,5	9,329
965,9	8,071
966,3	11,729
966,8	10,643
967,2	12,586
967,6	10,186
968	4,871
968,4	2,7
968,9	4,043
969,3	6,643
969,7	2,843
970,1	0,929
970,5	-0,214
971	2,957
971,4	4,471
971,8	5,414
972,2	4,557
972,6	7,386
973,1	9,957
973,5	12,357
973,9	12,357
974,3	9,986
974,7	9,643
975,2	8,271
975,6	9,614
976	10,071
976,4	9,729
976,8	10,271
977,3	6,586
977,7	3,014
978,1	1,243
978,5	-2,271
978,9	-4,814
979,4	-7,1
979,8	-10,186
980,2	-4,414
980,6	-7,1
981	-4,871
981,5	-1,071
981,9	-0,386
982,3	2,357
982,7	3,071
983,1	-0,271
983,6	5,243
984	7,214
984,4	6,357
984,8	5,786
985,2	8,186
985,6	5,1
986,1	5,929
986,5	6,586
986,9	1,271
987,3	-0,871
987,7	-1,186
988,2	-6,3
988,6	-4,471
989	-3,471
989,4	-7,357
989,8	-5,671
990,3	-6,757
990,7	-5,786
991,1	-1,5
991,5	1,271
991,9	5,814
992,3	11,671
992,8	14,357
993,2	15,1
993,6	14,214
994	15,414
994,4	16,243
994,9	12,186
995,3	7,414
995,7	7,786
996,1	9,586
996,5	8,614
996,9	6,471
997,4	7,757
997,8	4,557
998,2	4,214
998,6	-0,929
999	-1,9
999,5	-1,671
999,9	-0,843
1000,3	-3,214
1000,7	0,014
1001,1	0,814
1001,5	4,271
1002	10,557
1002,4	11,357
1002,8	11,786
1003,2	12,271
1003,6	10,986
1004	12,814
1004,5	11,729
1004,9	9,071
1005,3	5,929
1005,7	7,586
1006,1	3,557
1006,6	4,843
1007	4,643
1007,4	5,271
1007,8	3,5
1008,2	1,843
1008,6	-1,1
1009,1	4,214
1009,5	1,186
1009,9	3,214
1010,3	2,1
1010,7	2,157
1011,1	6,7
1011,6	6,243
1012	5,5
1012,4	7,386
1012,8	3,557
1013,2	6,871
1013,6	3,529
1014,1	5,014
1014,5	5,671
1014,9	3,671
1015,3	1,7
1015,7	3,7
1016,1	3,7
1016,6	8,871
1017	9,3
1017,4	11,414
1017,8	10,929
1018,2	14,7
1018,6	10,729
1019,1	9,5
1019,5	3,7
1019,9	3,757
1020,3	2,757
1020,7	3,529
1021,1	2,043
1021,6	4,129
1022	9,414
1022,4	15,071
1022,8	15,214
1023,2	12,414
1023,6	10,614
1024,1	12,729
1024,5	14,643
1024,9	4,843
1025,3	0,043
1025,7	-2,9
1026,1	-1,329
1026,6	1,014
1027	-0,986
1027,4	-0,329
1027,8	2,243
1028,2	0,614
1028,6	7,929
1029	7,786
1029,5	11,014
1029,9	9,786
1030,3	3,843
1030,7	4,443
1031,1	7,071
1031,5	-3,986
1032	-5,586
1032,4	-8,929
1032,8	-8,1
1033,2	-1,271
1033,6	-1,614
1034	-2,614
1034,4	-0,186
1034,9	6,529
1035,3	3,729
1035,7	5,3
1036,1	-2,9
1036,5	-6,271
1036,9	-5,9
1037,4	0,043
1037,8	-6,671
1038,2	-5,071
1038,6	-4,9
1039	1,043
1039,4	8,757
1039,8	8,957
1040,3	7,014
1040,7	3,443
1041,1	3,129
1041,5	2,014
1041,9	-0,729
1042,3	-2,243
1042,7	1,957
1043,2	0,7
1043,6	1,586
1044	2,786
1044,4	1,643
1044,8	5,529
1045,2	4,614
1045,6	3,929
1046,1	1,871
1046,5	7,386
1046,9	3,986
1047,3	4,3
1047,7	2,929
1048,1	1,614
1048,5	0,271
1049	1,929
1049,4	2,443
1049,8	2,529
1050,2	5,529
1050,6	11,3
1051	13,157
1051,4	12,786
1051,9	14,757
1052,3	20,043
1052,7	23,129
1053,1	17,643
1053,5	14,043
1053,9	12,443
1054,3	9,7
1054,8	11,814
1055,2	10,643
1055,6	14,471
1056	18,414
1056,4	16,9
1056,8	17,271
1057,2	16,357
1057,6	11,3
1058,1	4,643
1058,5	-1,729
1058,9	1,014
1059,3	4,9
1059,7	2,586
1060,1	8,814
1060,5	9,357
1061	10,9
1061,4	8,043
1061,8	7,3
1062,2	3,929
1062,6	6,1
1063	4,243
1063,4	6,214
1063,8	7,329
1064,3	11,386
1064,7	6,529
1065,1	3,7
1065,5	-0,814
1065,9	-3,757
1066,3	-3,271
1066,7	-5,586
1067,1	-9,386
1067,6	-3,929
1068	-5,243
1068,4	-1,243
1068,8	1,243
1069,2	2,129
1069,6	5,5
1070	7,443
1070,4	2,129
1070,9	5,614
1071,3	5,329
1071,7	2,386
1072,1	1,757
1072,5	-2,3
1072,9	-3,3
1073,3	0,129
1073,7	-1,071
1074,2	-1,843
1074,6	3,214
1075	-2,9
1075,4	0,471
1075,8	4,1
1076,2	2,614
1076,6	0,843
1077	2,271
1077,5	1,729
1077,9	5,757
1078,3	5,5
1078,7	2,014
1079,1	0,786
1079,5	0,129
1079,9	1,414
1080,3	-4,271
1080,7	-4,186
1081,2	-0,9
1081,6	1,243
1082	-0,243
1082,4	5,1
1082,8	0,986
1083,2	3,957
1083,6	6,929
1084	0,871
1084,5	-1,643
1084,9	-3,3
1085,3	-11,271
1085,7	-8,814
1086,1	-7,7
1086,5	-11,5
1086,9	-8,814
1087,3	-6,443
1087,7	-1,129
1088,2	2,271
1088,6	2,586
1089	3,643
1089,4	2,214
1089,8	6,157
1090,2	5,986
1090,6	5,9
1091	9,157
1091,4	10,957
1091,9	8,357
1092,3	11,957
1092,7	5,957
1093,1	9,557
1093,5	8,443
1093,9	6,5
1094,3	7,271
1094,7	6,929
1095,1	4,957
1095,5	5,614
1096	0,386
1096,4	0,157
1096,8	-2,471
1097,2	-5,957
1097,6	-1,757
1098	-0,043
1098,4	2,129
1098,8	6,9
1099,2	12,071
1099,6	14,786
1100,1	14,471
1100,5	10,786
1100,9	8,986
1101,3	8,614
1101,7	7,5
1102,1	0,557
1102,5	2,471
1102,9	2,414
1103,3	6,643
1103,7	7,671
1104,2	8,786
1104,6	8,443
1105	9,786
1105,4	8,729
1105,8	8,814
1106,2	5,357
1106,6	4,5
1107	1,643
1107,4	0,633
1107,8	1,18
1108,3	0
