Data from Subt2_180.txt Node
Date: Sat Aug 26 18:39:33 MSK 2023
User: vat
Spectrometer: MAYP114033
Trigger mode: 0
Integration Time (sec): 1,000000E0
Scans to average: 5
Electric dark correction enabled: true
Nonlinearity correction enabled: false
Boxcar width: 3
XAxis mode: Wavelengths
Number of Pixels in Spectrum: 2068
>>>>>Begin Spectral Data<<<<<
199,4	-0,4
199,9	-0,14
200,4	-1,5
200,8	2,214
201,3	-1,1
201,8	2,7
202,2	2,586
202,7	8,186
203,2	7,929
203,6	10,129
204,1	3,386
204,6	8,729
205	7,157
205,5	3,757
206	-3,214
206,4	-1,986
206,9	-5,929
207,4	-0,214
207,8	2,071
208,3	1,443
208,8	2,586
209,2	6,529
209,7	5,957
210,2	11,814
210,6	9,614
211,1	4,871
211,5	2,843
212	6,729
212,5	3,443
212,9	1,214
213,4	-1,871
213,9	-4,7
214,3	-3,471
214,8	-3,757
215,3	-10,071
215,7	-5,957
216,2	-5,129
216,7	-4,214
217,1	-4,786
217,6	-3,843
218,1	-3,243
218,5	-2,129
219	-10,843
219,5	-5,357
219,9	-7,471
220,4	1,071
220,9	-0,471
221,3	1,986
221,8	4,557
222,3	10,214
222,7	8,929
223,2	9,786
223,6	4,871
224,1	3,214
224,6	0,843
225	1,414
225,5	-0,757
226	-5,271
226,4	-4,386
226,9	-2,7
227,4	-1,843
227,8	-5,757
228,3	-8,243
228,8	-4,957
229,2	-2,043
229,7	-4,443
230,2	-6,671
230,6	-3,557
231,1	3,843
231,5	8,414
232	7,157
232,5	4,243
232,9	9,1
233,4	12,671
233,9	7,843
234,3	4,757
234,8	4,157
235,3	4,814
235,7	5,529
236,2	3,557
236,7	0,357
237,1	6,814
237,6	1,871
238,1	0,243
238,5	-5,729
239	-3,471
239,4	-2,929
239,9	-4,214
240,4	-9,071
240,8	-0,871
241,3	-4,957
241,8	-4,071
242,2	-7,557
242,7	-10,329
243,2	-8,214
243,6	-6,357
244,1	-9,5
244,6	-7,1
245	-2,671
245,5	-0,786
245,9	-1,043
246,4	-0,129
246,9	4,471
247,3	3,843
247,8	6,529
248,3	8,9
248,7	9,671
249,2	11,643
249,7	5,3
250,1	1,214
250,6	2,443
251	1,986
251,5	-0,957
252	-2,957
252,4	-1,929
252,9	1,329
253,4	-0,557
253,8	-3,7
254,3	-3,443
254,8	-1,414
255,2	-1,757
255,7	-2,614
256,1	0,814
256,6	0,614
257,1	4,1
257,5	2,643
258	1,157
258,5	3,471
258,9	2,129
259,4	-1,414
259,9	-2,3
260,3	-7,043
260,8	-4,014
261,2	-3,443
261,7	-6,957
262,2	-10,129
262,6	-7,557
263,1	-2,386
263,6	2,871
264	2,386
264,5	2,986
264,9	4,957
265,4	10,786
265,9	7,471
266,3	7,9
266,8	8,9
267,3	6,729
267,7	4,9
268,2	3,729
268,7	1,871
269,1	2,843
269,6	-2,157
270	-2,9
270,5	-5,329
271	-3,986
271,4	-2,729
271,9	-4,586
272,4	-2,957
272,8	-3,757
273,3	-6,3
273,7	0,729
274,2	0,529
274,7	0,129
275,1	3,9
275,6	5,929
276,1	5,271
276,5	9,986
277	5,071
277,4	5,757
277,9	13,014
278,4	13,386
278,8	13,786
279,3	19,729
279,8	17,1
280,2	17,071
280,7	17,071
281,1	5,043
281,6	0,614
282,1	-2,214
282,5	-8,414
283	-8,1
283,4	-7,329
283,9	-5,614
284,4	0,786
284,8	2,443
285,3	0,271
285,8	4,386
286,2	1,529
286,7	0,129
287,1	-7,157
287,6	-6,814
288,1	-9,786
288,5	-4,786
289	-6,814
289,5	-2,214
289,9	0,414
290,4	7,814
290,8	7,557
291,3	9,643
291,8	9,386
292,2	11,529
292,7	11,814
293,1	7,357
293,6	3,014
294,1	3,529
294,5	6,329
295	3,043
295,5	1,129
295,9	-5,586
296,4	-5,214
296,8	-4,957
297,3	-5,3
297,8	-11,3
298,2	-9,214
298,7	-7,414
299,1	-1,014
299,6	-2,157
300,1	-0,757
300,5	-3,471
301	4,757
301,5	7,043
301,9	6,043
302,4	1,386
302,8	6,986
303,3	7,757
303,8	4,814
304,2	1,243
304,7	-1,786
305,1	-3,3
305,6	-0,529
306,1	1,557
306,5	1,957
307	9,071
307,4	11,814
307,9	8,214
308,4	8,557
308,8	2,471
309,3	-0,1
309,8	-2,3
310,2	-2,786
310,7	-7,586
311,1	-5,329
311,6	-5,786
312,1	2,129
312,5	1,957
313	5,957
313,4	2,586
313,9	4,843
314,4	4,557
314,8	4,043
315,3	1,357
315,7	-1,557
316,2	-7,614
316,7	-5,614
317,1	0,1
317,6	1,014
318	6,471
318,5	5,843
319	7,1
319,4	11,329
319,9	11,271
320,3	6,1
320,8	4,529
321,3	2,843
321,7	5,614
322,2	4,243
322,6	4,957
323,1	4,014
323,6	4,414
324	5,129
324,5	7,814
324,9	5,614
325,4	5,7
325,9	7,157
326,3	8,786
326,8	7,271
327,2	5,614
327,7	3,957
328,2	6,729
328,6	7,957
329,1	-0,529
329,5	0,671
330	-0,243
330,5	3,071
330,9	1,014
331,4	-2,729
331,8	-1,529
332,3	10,443
332,8	10,5
333,2	13,614
333,7	15,186
334,1	17,043
334,6	12,414
335,1	6,729
335,5	1,329
336	-0,786
336,4	-2,329
336,9	2,214
337,4	2,271
337,8	7,329
338,3	11,271
338,7	12,443
339,2	12,043
339,7	15,643
340,1	10,186
340,6	7,129
341	5,586
341,5	9,871
342	4,871
342,4	5,357
342,9	-1,243
343,3	-2,814
343,8	-3,1
344,2	-2,614
344,7	-2,157
345,2	3,014
345,6	1,757
346,1	7,1
346,5	5,929
347	9,129
347,5	11,9
347,9	10,614
348,4	8,7
348,8	11,843
349,3	10,871
349,8	16,757
350,2	20,5
350,7	18,757
351,1	20,7
351,6	22,157
352	26,329
352,5	31,814
353	39,5
353,4	41,243
353,9	54,843
354,3	68,329
354,8	80,129
355,3	99,043
355,7	123,414
356,2	143,357
356,6	174,471
357,1	205,1
357,5	236,614
358	282,414
358,5	321,271
358,9	369,186
359,4	427,929
359,8	488,014
360,3	567,329
360,8	648,014
361,2	738,786
361,7	841,786
362,1	957,729
362,6	1078,243
363	1210,957
363,5	1340,814
364	1493,786
364,4	1644,214
364,9	1798,443
365,3	1944,5
365,8	2088,1
366,3	2222,557
366,7	2349,9
367,2	2453,414
367,6	2539,7
368,1	2608,557
368,5	2650,643
369	2672,786
369,5	2679,271
369,9	2658,614
370,4	2618,957
370,8	2562,671
371,3	2480,7
371,7	2389,271
372,2	2287,014
372,7	2174,414
373,1	2058,643
373,6	1939,443
374	1817,586
374,5	1702,529
374,9	1592,871
375,4	1481,557
375,9	1371,043
376,3	1262,614
376,8	1160,957
377,2	1070,071
377,7	985,329
378,2	898,129
378,6	826,329
379,1	758,643
379,5	699,843
380	642,871
380,4	589,757
380,9	540,1
381,4	501,243
381,8	459,814
382,3	429,271
382,7	397,729
383,2	374,329
383,6	345,871
384,1	320,557
384,6	294,1
385	273,357
385,5	251,586
385,9	231,1
386,4	207,786
386,8	195,1
387,3	182,786
387,7	174,414
388,2	163,957
388,7	149,614
389,1	139,357
389,6	134,186
390	125,129
390,5	118,386
390,9	113,271
391,4	103,929
391,9	100,614
392,3	98,386
392,8	87,586
393,2	80,214
393,7	73,557
394,1	63,071
394,6	63,014
395,1	61,814
395,5	55,071
396	56,5
396,4	58,043
396,9	56,329
397,3	59,186
397,8	54,871
398,2	49,043
398,7	47,271
399,2	44,786
399,6	43,986
400,1	42,357
400,5	36,043
401	33,157
401,4	30,643
401,9	33,443
402,4	35,414
402,8	29,271
403,3	33,157
403,7	32,214
404,2	39,071
404,6	47,729
405,1	47,643
405,5	45,014
406	47,243
406,5	43,986
406,9	54,243
407,4	52,957
407,8	51,786
408,3	54,329
408,7	61,614
409,2	68,614
409,6	77,443
410,1	80,071
410,6	86,3
411	89,414
411,5	94,443
411,9	97,129
412,4	102,729
412,8	108,986
413,3	115,014
413,7	119,557
414,2	126,214
414,7	137,043
415,1	150,871
415,6	156,557
416	161,1
416,5	167,014
416,9	174,586
417,4	185,3
417,8	197,243
418,3	204,586
418,8	220,557
419,2	232,386
419,7	245,414
420,1	258,243
420,6	276,3
421	281,043
421,5	296,014
421,9	306,729
422,4	322,414
422,8	339,271
423,3	357,1
423,8	366,757
424,2	388,186
424,7	408,729
425,1	428,671
425,6	449,729
426	465,186
426,5	490,843
426,9	519,557
427,4	541,443
427,9	556,9
428,3	585,157
428,8	613,557
429,2	641,271
429,7	670,986
430,1	696,671
430,6	730,3
431	770,014
431,5	803,271
431,9	837,643
432,4	882,129
432,8	921,986
433,3	968,757
433,8	1011,7
434,2	1056,357
434,7	1105,1
435,1	1158,214
435,6	1209,757
436	1266,357
436,5	1324,986
436,9	1389,414
437,4	1456,7
437,8	1526,1
438,3	1600,9
438,8	1671,043
439,2	1743,986
439,7	1821,529
440,1	1898,043
440,6	1983,243
441	2067,129
441,5	2150,3
441,9	2242,9
442,4	2331,529
442,8	2425,214
443,3	2531,129
443,7	2630,557
444,2	2739,671
444,7	2847,329
445,1	2960,643
445,6	3080,329
446	3201,586
446,5	3318,929
446,9	3441,786
447,4	3565,043
447,8	3696,586
448,3	3836,757
448,7	3972,157
449,2	4109,443
449,6	4248,757
450,1	4394,557
450,6	4548,014
451	4697,357
451,5	4853,414
451,9	5015,814
452,4	5186,757
452,8	5357,129
453,3	5524,214
453,7	5689,557
454,2	5874,414
454,6	6045,986
455,1	6219,214
455,5	6388,757
456	6570,071
456,4	6748,586
456,9	6941,014
457,3	7119,671
457,8	7302,129
458,3	7501,1
458,7	7702,786
459,2	7905,471
459,6	8114,157
460,1	8311,329
460,5	8513,814
461	8734,729
461,4	8935,586
461,9	9132,957
462,3	9337,414
462,8	9541,471
463,2	9746,157
463,7	9956,5
464,1	10156,871
464,6	10364,957
465	10578,614
465,5	10786,214
466	10992,929
466,4	11201,329
466,9	11406,3
467,3	11604,814
467,8	11812,157
468,2	12016,443
468,7	12225,557
469,1	12434,329
469,6	12628,957
470	12822,814
470,5	13021,871
470,9	13220,643
471,4	13399,471
471,8	13570,329
472,3	13752,443
472,7	13934,986
473,2	14118,871
473,6	14296,471
474,1	14467,957
474,5	14655,071
475	14843,443
475,4	15007,586
475,9	15175,157
476,4	15335,1
476,8	15495,014
477,3	15639,043
477,7	15783,729
478,2	15909,329
478,6	16044,043
479,1	16170,586
479,5	16290,243
480	16404,643
480,4	16519,414
480,9	16623,129
481,3	16726,843
481,8	16829,843
482,2	16924,214
482,7	17020,329
483,1	17100,757
483,6	17169,414
484	17244,614
484,5	17313,3
484,9	17356,614
485,4	17411,5
485,8	17455,586
486,3	17503,386
486,7	17548,186
487,2	17580,557
487,6	17609,957
488,1	17648,071
488,5	17664,271
489	17691,357
489,4	17711,214
489,9	17714,071
490,4	17707,814
490,8	17696,643
491,3	17685,271
491,7	17674,214
492,2	17639,786
492,6	17595,014
493,1	17557,529
493,5	17513,129
494	17465,414
494,4	17414,929
494,9	17365,5
495,3	17310,843
495,8	17265,586
496,2	17211,7
496,7	17151,586
497,1	17100,414
497,6	17033,243
498	16964,929
498,5	16890,986
498,9	16803,757
499,4	16723,929
499,8	16655,529
500,3	16567,157
500,7	16478,157
501,2	16377,5
501,6	16292,3
502,1	16201,7
502,5	16108,643
503	16004,5
503,4	15899,014
503,9	15796,1
504,3	15697,9
504,8	15582,1
505,2	15470,357
505,7	15361,386
506,1	15254,071
506,6	15135,214
507	15021,9
507,5	14916,614
507,9	14806,9
508,4	14684,614
508,8	14561,157
509,3	14428,014
509,7	14316,129
510,2	14200,1
510,6	14064,871
511,1	13933,271
511,5	13809,243
512	13679,014
512,4	13551,414
512,9	13427,557
513,3	13293,471
513,8	13162,843
514,2	13041,671
514,7	12913,043
515,1	12786,843
515,6	12664,986
516	12525,386
516,5	12406,843
516,9	12277,586
517,4	12148,614
517,8	12026,443
518,3	11901,671
518,7	11764,786
519,2	11645,757
519,6	11504,214
520,1	11378,7
520,5	11256,9
521	11127,729
521,4	11008,243
521,9	10896,157
522,3	10772,071
522,8	10655,214
523,2	10541,7
523,7	10425,586
524,1	10312,671
524,6	10188,414
525	10079,5
525,5	9966,386
525,9	9857,129
526,4	9746,329
526,8	9629,386
527,3	9521,9
527,7	9428,357
528,2	9323,186
528,6	9217,7
529,1	9120,757
529,5	9023,957
530	8927,786
530,4	8829,7
530,9	8724,671
531,3	8621,471
531,8	8530,1
532,2	8433,643
532,6	8337,957
533,1	8240,614
533,5	8147,329
534	8059,471
534,4	7977,643
534,9	7892,7
535,3	7798,443
535,8	7711,471
536,2	7633,157
536,7	7554,443
537,1	7466,957
537,6	7384,557
538	7312,157
538,5	7242,357
538,9	7159,386
539,4	7078,9
539,8	7004,071
540,3	6939,671
540,7	6859,357
541,2	6775,814
541,6	6700,243
542,1	6632,843
542,5	6565,871
543	6491,843
543,4	6417,414
543,9	6358,871
544,3	6289,786
544,8	6227,786
545,2	6159,1
545,7	6101,186
546,1	6044,243
546,5	5984,357
547	5916,557
547,4	5866,329
547,9	5805,214
548,3	5758,043
548,8	5698,957
549,2	5644,386
549,7	5595,614
550,1	5551,243
550,6	5497,986
551	5448,243
551,5	5390,386
551,9	5337,329
552,4	5286,3
552,8	5238,271
553,3	5188,214
553,7	5141,957
554,2	5099,557
554,6	5065,414
555,1	5021,957
555,5	4981,014
555,9	4934,329
556,4	4892,871
556,8	4850,1
557,3	4807,271
557,7	4761,9
558,2	4726,986
558,6	4685,357
559,1	4645,9
559,5	4602,671
560	4558,414
560,4	4521,329
560,9	4484,643
561,3	4444,9
561,8	4404,843
562,2	4372,329
562,7	4335,757
563,1	4308,814
563,6	4270,843
564	4235,929
564,4	4197,614
564,9	4170,129
565,3	4137,443
565,8	4111,071
566,2	4072,443
566,7	4047,443
567,1	4022,271
567,6	3994,7
568	3964,129
568,5	3936,3
568,9	3901,071
569,4	3877,5
569,8	3842,871
570,3	3806,071
570,7	3773,329
571,1	3744,043
571,6	3717,871
572	3699,614
572,5	3673,071
572,9	3642,157
573,4	3616,586
573,8	3595,214
574,3	3568,843
574,7	3535,157
575,2	3504,814
575,6	3479,9
576,1	3461,186
576,5	3439,129
576,9	3410,986
577,4	3384,214
577,8	3361,786
578,3	3341,414
578,7	3314,214
579,2	3295,929
579,6	3268,329
580,1	3243,614
580,5	3224,786
581	3209,643
581,4	3183,586
581,9	3162,471
582,3	3133,3
582,7	3115,471
583,2	3097,729
583,6	3074,329
584,1	3051,414
584,5	3030,929
585	3012,386
585,4	2989,614
585,9	2969,129
586,3	2949,7
586,8	2937,929
587,2	2912,186
587,6	2893,014
588,1	2879,557
588,5	2866,757
589	2849,929
589,4	2833,214
589,9	2808,471
590,3	2793,214
590,8	2771,357
591,2	2748,214
591,7	2732,3
592,1	2719,786
592,5	2700,386
593	2684,357
593,4	2670,843
593,9	2657,786
594,3	2640,157
594,8	2623,671
595,2	2604,671
595,7	2590,043
596,1	2576,443
596,6	2563,586
597	2551,5
597,4	2542,814
597,9	2527,729
598,3	2516,386
598,8	2504,9
599,2	2492,986
599,7	2473,786
600,1	2459,071
600,6	2439,557
601	2424,529
601,4	2410,329
601,9	2400,329
602,3	2385,586
602,8	2374,214
603,2	2363,357
603,7	2350,443
604,1	2341,643
604,6	2326,814
605	2302,757
605,4	2289,814
605,9	2275,071
606,3	2262,1
606,8	2251,643
607,2	2227,529
607,7	2211,443
608,1	2208,5
608,6	2192,929
609	2187,557
609,4	2172,786
609,9	2158,986
610,3	2156,386
610,8	2148,1
611,2	2131,929
611,7	2119,614
612,1	2098,157
612,6	2087,643
613	2079,471
613,4	2068,043
613,9	2056,214
614,3	2039,129
614,8	2031,271
615,2	2024,5
615,7	2012,3
616,1	1996,357
616,6	1981,357
617	1965,357
617,4	1959,186
617,9	1950,271
618,3	1939,129
618,8	1929,129
619,2	1921,386
619,7	1914,271
620,1	1906,814
620,5	1902,5
621	1891,443
621,4	1877,129
621,9	1862,1
622,3	1849,1
622,8	1831,843
623,2	1818,786
623,6	1803,386
624,1	1787,271
624,5	1774,557
625	1765,929
625,4	1755,786
625,9	1742,043
626,3	1727,186
626,8	1712,729
627,2	1702,557
627,6	1686,643
628,1	1673,643
628,5	1663,957
629	1656,043
629,4	1646,786
629,9	1638,9
630,3	1628,043
630,7	1616,5
631,2	1606,786
631,6	1592,5
632,1	1581,786
632,5	1570,129
633	1552,729
633,4	1544,929
633,8	1545,471
634,3	1535,014
634,7	1528,129
635,2	1520,9
635,6	1514,557
636,1	1506,386
636,5	1492,414
636,9	1480,529
637,4	1473,814
637,8	1460,614
638,3	1449,157
638,7	1436,814
639,2	1425,471
639,6	1417,186
640	1400,9
640,5	1389,186
640,9	1376,186
641,4	1368,1
641,8	1357,671
642,2	1355,243
642,7	1352,557
643,1	1353,071
643,6	1344,043
644	1341,7
644,5	1338,157
644,9	1334,5
645,3	1322,5
645,8	1307,529
646,2	1296,357
646,7	1288,929
647,1	1275,186
647,6	1262,757
648	1260,529
648,4	1252,214
648,9	1246,671
649,3	1237,3
649,8	1231,814
650,2	1232,214
650,6	1224,529
651,1	1209,9
651,5	1208,7
652	1200,5
652,4	1194,186
652,9	1186,671
653,3	1173,586
653,7	1163,757
654,2	1157,043
654,6	1143,643
655,1	1141,9
655,5	1139,1
655,9	1130,043
656,4	1129,557
656,8	1126,1
657,3	1119,529
657,7	1113,7
658,2	1097,414
658,6	1087,243
659	1079,043
659,5	1067,3
659,9	1059,386
660,4	1052,157
660,8	1044,157
661,2	1040,014
661,7	1036,443
662,1	1028,3
662,6	1019,5
663	1009,271
663,4	996,357
663,9	993,186
664,3	983,157
664,8	968,414
665,2	958,957
665,6	951,986
666,1	948,671
666,5	951,243
667	943,471
667,4	939,871
667,9	935,1
668,3	931,5
668,7	925,757
669,2	919,186
669,6	909,586
670,1	902,5
670,5	893,157
670,9	882,871
671,4	874,357
671,8	871,357
672,3	865,329
672,7	858,9
673,1	850,271
673,6	844,729
674	845,586
674,5	837,557
674,9	820,071
675,3	807,729
675,8	803,271
676,2	796,7
676,7	791,1
677,1	781,671
677,5	778,586
678	780,471
678,4	783,843
678,9	776,129
679,3	774,357
679,7	770,614
680,2	765,443
680,6	765,7
681,1	762,3
681,5	758,329
681,9	755,843
682,4	748,557
682,8	747,186
683,3	745,9
683,7	735,957
684,1	728,986
684,6	721,014
685	714,986
685,5	706,471
685,9	694,614
686,3	681,1
686,8	679,186
687,2	676,243
687,7	665,871
688,1	654,443
688,5	653,643
689	650,586
689,4	650,1
689,9	640,871
690,3	631,586
690,7	630,557
691,2	630,329
691,6	629,643
692	624,386
692,5	624,414
692,9	624,586
693,4	622,214
693,8	616,614
694,2	611,729
694,7	602,643
695,1	598,643
695,6	594,5
696	592,443
696,4	588,614
696,9	583,671
697,3	576,271
697,8	572,443
698,2	562,5
698,6	557,5
699,1	547,871
699,5	546,586
699,9	542,843
700,4	536,443
700,8	531,986
701,3	536,414
701,7	528,271
702,1	524,271
702,6	519,1
703	517,214
703,5	515,414
703,9	508,786
704,3	505,729
704,8	503,7
705,2	499,614
705,6	491,557
706,1	489,243
706,5	486,071
707	488,1
707,4	482,329
707,8	476,443
708,3	476,986
708,7	479,214
709,2	476,043
709,6	472,957
710	472,043
710,5	464,9
710,9	464,614
711,3	456,586
711,8	452,643
712,2	446,529
712,7	443,3
713,1	436,386
713,5	439,871
714	433,1
714,4	429,471
714,8	425,586
715,3	423,271
715,7	421,386
716,2	415,014
716,6	411,557
717	406,357
717,5	408,443
717,9	407,471
718,3	402,986
718,8	402,186
719,2	403,157
719,7	396,471
720,1	400,586
720,5	398,614
721	392,443
721,4	392,3
721,8	391,1
722,3	386,757
722,7	389,643
723,2	382,129
723,6	366,729
724	362,843
724,5	352,786
724,9	343,157
725,3	337,814
725,8	329,271
726,2	326,471
726,7	332,929
727,1	330,071
727,5	333,157
728	336,214
728,4	334,186
728,8	335,786
729,3	334,843
729,7	330,357
730,1	328,986
730,6	328,871
731	321,243
731,5	323,157
731,9	316,586
732,3	315,5
732,8	318,729
733,2	319,557
733,6	315,529
734,1	314,357
734,5	311,329
734,9	310,871
735,4	311,071
735,8	299,5
736,3	301,043
736,7	297,386
737,1	298,443
737,6	295,386
738	295,586
738,4	293,129
738,9	300,5
739,3	292,243
739,7	292,243
740,2	285,643
740,6	286,157
741,1	284,957
741,5	276,414
741,9	273,386
742,4	278,814
742,8	275,243
743,2	280,443
743,7	268,9
744,1	258,671
744,5	256,871
745	254,329
745,4	243,786
745,8	244,243
746,3	239,9
746,7	242,357
747,2	250,786
747,6	255,529
748	254,9
748,5	256,414
748,9	253,614
749,3	249,186
749,8	251,986
750,2	248,671
750,6	237,043
751,1	236,3
751,5	233,443
751,9	233,386
752,4	235,3
752,8	234,957
753,3	231,729
753,7	243,614
754,1	235,471
754,6	234,471
755	227,9
755,4	226,071
755,9	222,043
756,3	221,671
756,7	215,9
757,2	218,443
757,6	219,471
758	217,757
758,5	214,243
758,9	213,586
759,3	213,7
759,8	212,814
760,2	212,614
760,6	206,729
761,1	204,529
761,5	204,014
761,9	204,586
762,4	201,129
762,8	201,671
763,3	196,157
763,7	199,186
764,1	201,071
764,6	201,929
765	198,157
765,4	195,414
765,9	189,271
766,3	190,329
766,7	183,557
767,2	180,7
767,6	175,814
768	173,9
768,5	174,529
768,9	175,157
769,3	176,186
769,8	174,214
770,2	178,586
770,6	178,643
771,1	182,614
771,5	180,271
771,9	178,814
772,4	175,986
772,8	178,157
773,2	174,186
773,7	173,414
774,1	167,1
774,5	160,614
775	160,186
775,4	164,757
775,8	165,071
776,3	163,614
776,7	163,186
777,1	162,757
777,6	164,243
778	167,271
778,4	160,357
778,9	157,7
779,3	158,986
779,7	158,786
780,2	160,614
780,6	160,929
781	154,671
781,5	152,757
781,9	153,7
782,3	151,414
782,8	148,9
783,2	145,271
783,6	148,929
784,1	147,243
784,5	148,243
784,9	144,043
785,4	142,643
785,8	143,414
786,2	143,871
786,7	140,614
787,1	140,614
787,5	136,529
788	138,043
788,4	136,957
788,8	133,214
789,3	131,243
789,7	127,129
790,1	128,386
790,6	130,1
791	126,014
791,4	125,986
791,9	123,043
792,3	116,786
792,7	122,729
793,2	121,014
793,6	118,786
794	121,243
794,5	118,643
794,9	123,957
795,3	125,871
795,8	123,129
796,2	124,5
796,6	123,043
797,1	122,214
797,5	120,5
797,9	114,157
798,4	112,871
798,8	107,186
799,2	100,414
799,7	103,157
800,1	100,786
800,5	101,214
801	107,071
801,4	105,3
801,8	104,9
802,2	104,643
802,7	100,271
803,1	101,157
803,5	102,214
804	92,614
804,4	95,443
804,8	97,071
805,3	100,243
805,7	104,557
806,1	103,786
806,6	101,957
807	107,243
807,4	104,986
807,9	98,786
808,3	97,3
808,7	90,786
809,2	92,614
809,6	93,357
810	90,3
810,4	93,671
810,9	98,529
811,3	101,643
811,7	105,957
812,2	105,671
812,6	100,443
813	104,043
813,5	101,157
813,9	100,814
814,3	96,929
814,8	89,586
815,2	86,443
815,6	88,071
816,1	89,329
816,5	89,186
816,9	88,814
817,3	86,443
817,8	94,043
818,2	92,5
818,6	87,614
819,1	82,471
819,5	80,3
819,9	80,529
820,4	78,043
820,8	72,843
821,2	69,271
821,7	75,043
822,1	77,243
822,5	81,471
822,9	79,814
823,4	81,814
823,8	83,871
824,2	85,186
824,7	81,443
825,1	76,557
825,5	68,786
826	63,157
826,4	64,843
826,8	59,471
827,3	63,214
827,7	62,586
828,1	63,671
828,5	65,471
829	64,729
829,4	63,414
829,8	63,671
830,3	60,729
830,7	58,643
831,1	59,5
831,6	62,357
832	64,186
832,4	59,3
832,8	59,071
833,3	58,814
833,7	58,386
834,1	55,557
834,6	51,957
835	53,529
835,4	55,986
835,8	51,014
836,3	47,043
836,7	52,786
837,1	53,329
837,6	56,7
838	53,986
838,4	53,614
838,9	58,329
839,3	56,643
839,7	54,243
840,1	49,7
840,6	45,071
841	51,357
841,4	46,5
841,9	47,614
842,3	52,014
842,7	54,214
843,1	56,386
843,6	56,129
844	50,586
844,4	58,043
844,9	56,871
845,3	56,157
845,7	52,043
846,2	49,643
846,6	48,786
847	50,329
847,4	46,386
847,9	50,157
848,3	48,871
848,7	48,986
849,2	52,586
849,6	51,214
850	54,271
850,4	52,9
850,9	51,043
851,3	52,9
851,7	52,986
852,2	48,9
852,6	55,643
853	52,843
853,4	52,786
853,9	48,043
854,3	44,443
854,7	46,9
855,2	46,529
855,6	41,1
856	33,157
856,4	33,129
856,9	30,9
857,3	34,5
857,7	34,157
858,2	43,443
858,6	41,671
859	45,986
859,4	47,157
859,9	49,157
860,3	46,9
860,7	41,786
861,1	33,414
861,6	35,614
862	31,871
862,4	27,957
862,9	28,557
863,3	29,329
863,7	29,271
864,1	33,271
864,6	31,357
865	34,386
865,4	39,814
865,9	41,7
866,3	34,214
866,7	34,243
867,1	27,014
867,6	25,586
868	24,729
868,4	21,671
868,8	19,129
869,3	24,329
869,7	28,357
870,1	29,3
870,6	25,729
871	-48,671
871,4	-44,157
871,8	-46,214
872,3	-47,386
872,7	-51,957
873,1	-49,586
873,5	-42,529
874	32,929
874,4	27,157
874,8	27,129
875,3	30,214
875,7	29,614
876,1	30,986
876,5	27,729
877	25,529
877,4	24,243
877,8	25,443
878,2	25,157
878,7	29,271
879,1	26,214
879,5	27,957
879,9	32,557
880,4	32,043
880,8	32,557
881,2	32,814
881,7	28,071
882,1	30,414
882,5	26,986
882,9	23,814
883,4	21,3
883,8	23,9
884,2	20,757
884,6	21,757
885,1	22,157
885,5	24,614
885,9	24,7
886,3	31,043
886,8	23,643
887,2	24,957
887,6	21,529
888	18,871
888,5	19,271
888,9	16,957
889,3	10,3
889,8	15,929
890,2	13,871
890,6	12,614
891	14,9
891,5	14,386
891,9	14,157
892,3	19,3
892,7	19,529
893,2	20,414
893,6	23,386
894	26,814
894,4	22,214
894,9	24,214
895,3	24,586
895,7	24,5
896,1	20,129
896,6	19,643
897	16,357
897,4	23,014
897,8	26,214
898,3	25,214
898,7	19,614
899,1	20,043
899,5	21,014
900	14,471
900,4	7,643
900,8	1,871
901,2	-0,271
901,7	4,986
902,1	8,814
902,5	12,186
902,9	17,186
903,4	19,443
903,8	20,357
904,2	18,071
904,6	15,957
905,1	16,1
905,5	12,871
905,9	15,9
906,3	20,871
906,8	24,957
907,2	28,671
907,6	27,471
908	26,786
908,5	29,5
908,9	22,5
909,3	17,586
909,7	15,786
910,2	13,757
910,6	17,7
911	14,014
911,4	12,214
911,9	13,9
912,3	14,9
912,7	14,843
913,1	16,043
913,6	11,329
914	12,557
914,4	7,957
914,8	7,786
915,3	5,5
915,7	4,014
916,1	0,814
916,5	2,929
916,9	7,557
917,4	9,329
917,8	12,357
918,2	11,586
918,6	7,871
919,1	9,3
919,5	10,843
919,9	7,329
920,3	8,957
920,8	8,671
921,2	8,557
921,6	9,814
922	13,157
922,5	11,043
922,9	11,014
923,3	11,014
923,7	8,386
924,2	10,586
924,6	10,986
925	5,157
925,4	2,814
925,8	1,1
926,3	-2,3
926,7	-2,557
927,1	-2,471
927,5	-1,357
928	-0,757
928,4	1,3
928,8	10,443
929,2	9,957
929,7	13,5
930,1	12,329
930,5	13,186
930,9	14,7
931,3	14,529
931,8	7,5
932,2	10,5
932,6	6,786
933	1,157
933,5	0,7
933,9	4,071
934,3	7,243
934,7	3,757
935,2	3,757
935,6	4,1
936	10,871
936,4	13,014
936,8	15,957
937,3	9,271
937,7	13,586
938,1	18,614
938,5	16,986
939	16,414
939,4	11,729
939,8	9,9
940,2	15,014
940,6	14,243
941,1	9,471
941,5	16,443
941,9	12,014
942,3	13,5
942,8	11,643
943,2	11,557
943,6	7,386
944	7,814
944,4	1,443
944,9	2,729
945,3	3,814
945,7	-1,157
946,1	-7,043
946,6	-6,529
947	-6,671
947,4	-0,214
947,8	1,071
948,2	-2,757
948,7	2,129
949,1	3,271
949,5	11,129
949,9	9,729
950,3	5,357
950,8	7,557
951,2	7,243
951,6	1,529
952	7,814
952,5	2,3
952,9	1,557
953,3	1,414
953,7	-2,214
954,1	0,929
954,6	2,786
955	2,043
955,4	2,271
955,8	7,071
956,2	7,5
956,7	10,7
957,1	9,157
957,5	12,671
957,9	10,643
958,3	8,329
958,8	7,3
959,2	7,414
959,6	10,729
960	9,214
960,5	9,1
960,9	11,7
961,3	14,243
961,7	10,843
962,1	8,871
962,6	4,386
963	8,329
963,4	4,757
963,8	3,586
964,2	3,586
964,7	7,5
965,1	12,271
965,5	11,529
965,9	11,157
966,3	15,643
966,8	12,186
967,2	12,186
967,6	7,157
968	1,186
968,4	4,414
968,9	3,271
969,3	5,157
969,7	4,157
970,1	5,243
970,5	4,786
971	9,443
971,4	9,043
971,8	9,357
972,2	7,329
972,6	11,443
973,1	8,3
973,5	12,614
973,9	13,614
974,3	10,386
974,7	12,814
975,2	9,157
975,6	5,586
976	8,071
976,4	3,814
976,8	3,757
977,3	2,871
977,7	0,186
978,1	2,614
978,5	2,5
978,9	-1,1
979,4	1,643
979,8	-2,586
980,2	-1,5
980,6	-3,614
981	-4,3
981,5	-1,129
981,9	-2,071
982,3	0,214
982,7	-0,929
983,1	-1,786
983,6	-0,357
984	0,671
984,4	-0,757
984,8	-0,529
985,2	-2,9
985,6	-4,071
986,1	1,043
986,5	1,586
986,9	-3,557
987,3	-2,186
987,7	1,871
988,2	1,471
988,6	4,414
989	-0,414
989,4	2,671
989,8	7,071
990,3	4,986
990,7	4,443
991,1	6,414
991,5	10,3
991,9	11,329
992,3	9,671
992,8	10,957
993,2	10,986
993,6	11,929
994	12,214
994,4	6,5
994,9	6,986
995,3	3,529
995,7	-0,471
996,1	-3,186
996,5	-3,671
996,9	-8,186
997,4	-3,614
997,8	-9,986
998,2	-11,329
998,6	-12,729
999	-9,329
999,5	-10,671
999,9	-9,071
1000,3	-13,729
1000,7	-9,7
1001,1	-7,586
1001,5	0,271
1002	6,243
1002,4	7,3
1002,8	10,443
1003,2	17,443
1003,6	17,014
1004	20,043
1004,5	11,757
1004,9	9,129
1005,3	5,586
1005,7	0,9
1006,1	-8,014
1006,6	-8,129
1007	-8,986
1007,4	-7,414
1007,8	-12,043
1008,2	-13,3
1008,6	-6,014
1009,1	-5,814
1009,5	-4,157
1009,9	-2,986
1010,3	0,186
1010,7	1,471
1011,1	3,186
1011,6	-1,471
1012	5,043
1012,4	3,5
1012,8	-1,814
1013,2	2,214
1013,6	4,471
1014,1	8,443
1014,5	8,9
1014,9	6,729
1015,3	3,871
1015,7	11,014
1016,1	4,243
1016,6	4,214
1017	3,786
1017,4	4,7
1017,8	2,214
1018,2	11,7
1018,6	5,129
1019,1	7,014
1019,5	6,986
1019,9	-0,386
1020,3	-3,557
1020,7	-0,729
1021,1	-5,614
1021,6	-4,871
1022	1,814
1022,4	0,729
1022,8	7,243
1023,2	10,1
1023,6	12,929
1024,1	18,957
1024,5	18,529
1024,9	9,443
1025,3	8,5
1025,7	8,186
1026,1	11,729
1026,6	5,3
1027	0,414
1027,4	6,357
1027,8	9,957
1028,2	7,014
1028,6	10,757
1029	4,186
1029,5	9,157
1029,9	7,786
1030,3	-0,243
1030,7	-2,871
1031,1	-1,786
1031,5	-8,986
1032	-7,329
1032,4	-6,671
1032,8	-1,986
1033,2	5,043
1033,6	3,5
1034	5,957
1034,4	7,357
1034,9	11,614
1035,3	6,157
1035,7	4,5
1036,1	0,986
1036,5	1,3
1036,9	1,414
1037,4	6,243
1037,8	-2,671
1038,2	-4,443
1038,6	-5,043
1039	-3,614
1039,4	3,129
1039,8	-0,386
1040,3	-5,729
1040,7	-4,071
1041,1	2,014
1041,5	2,671
1041,9	-1,757
1042,3	-9,414
1042,7	-5,3
1043,2	-5,929
1043,6	0,014
1044	-1,271
1044,4	1,957
1044,8	8,414
1045,2	9,357
1045,6	10,271
1046,1	10,586
1046,5	6,043
1046,9	4,786
1047,3	1,1
1047,7	0,214
1048,1	0,414
1048,5	-0,614
1049	3,043
1049,4	6,786
1049,8	7,557
1050,2	7,157
1050,6	5,529
1051	9,786
1051,4	8,986
1051,9	8,271
1052,3	13,757
1052,7	13,586
1053,1	11,957
1053,5	16,157
1053,9	14,071
1054,3	12,529
1054,8	14,671
1055,2	8,329
1055,6	9,157
1056	9,329
1056,4	2,214
1056,8	-2,014
1057,2	-3,043
1057,6	-5,586
1058,1	-5,043
1058,5	-8,871
1058,9	-7,586
1059,3	-7,843
1059,7	-3,157
1060,1	-0,071
1060,5	1,529
1061	0,329
1061,4	4,1
1061,8	5,443
1062,2	7,643
1062,6	12,157
1063	15,9
1063,4	16,557
1063,8	11,729
1064,3	6,614
1064,7	5,586
1065,1	9,929
1065,5	1,586
1065,9	-4,586
1066,3	-8,186
1066,7	-5,814
1067,1	-5,643
1067,6	-4,786
1068	-11,986
1068,4	-5,986
1068,8	-3,757
1069,2	-0,9
1069,6	-1,529
1070	2,129
1070,4	4,357
1070,9	7,443
1071,3	9,443
1071,7	4,386
1072,1	5,586
1072,5	5,386
1072,9	4,786
1073,3	3,214
1073,7	2,386
1074,2	0,586
1074,6	7,271
1075	2,671
1075,4	8,443
1075,8	9,986
1076,2	7,014
1076,6	8,671
1077	4,786
1077,5	6,814
1077,9	7,014
1078,3	1,757
1078,7	1,357
1079,1	2,443
1079,5	4,757
1079,9	7,671
1080,3	-0,5
1080,7	2,071
1081,2	6,414
1081,6	5,243
1082	5,557
1082,4	7,786
1082,8	2,329
1083,2	4,529
1083,6	3,957
1084	0,214
1084,5	-0,614
1084,9	-3,986
1085,3	-11,471
1085,7	-2,014
1086,1	-0,471
1086,5	1,843
1086,9	6,5
1087,3	8,871
1087,7	12,586
1088,2	15,586
1088,6	8,1
1089	8,929
1089,4	6,757
1089,8	3,271
1090,2	1,129
1090,6	-0,729
1091	-2,614
1091,4	-0,557
1091,9	-1,071
1092,3	1,329
1092,7	-4,243
1093,1	0,243
1093,5	-0,1
1093,9	2,729
1094,3	4,957
1094,7	3,729
1095,1	1,043
1095,5	5,329
1096	1,986
1096,4	2,5
1096,8	0,586
1097,2	-1,243
1097,6	4,214
1098	4,014
1098,4	6,614
1098,8	6,071
1099,2	11,5
1099,6	10,671
1100,1	9,1
1100,5	2,614
1100,9	4,786
1101,3	4,157
1101,7	3,271
1102,1	-0,471
1102,5	2,043
1102,9	2,214
1103,3	7,729
1103,7	7,1
1104,2	7,386
1104,6	8,014
1105	4,814
1105,4	4,157
1105,8	3,986
1106,2	0,129
1106,6	-1,471
1107	-2,7
1107,4	-2
1107,8	0,26
1108,3	-0,8
