Data from Subt2_217.txt Node
Date: Sat Aug 26 18:49:23 MSK 2023
User: vat
Spectrometer: MAYP114033
Trigger mode: 0
Integration Time (sec): 1,000000E0
Scans to average: 5
Electric dark correction enabled: true
Nonlinearity correction enabled: false
Boxcar width: 3
XAxis mode: Wavelengths
Number of Pixels in Spectrum: 2068
>>>>>Begin Spectral Data<<<<<
199,4	-0,383
199,9	0,907
200,4	0,033
200,8	-0,362
201,3	-2,105
201,8	0,381
202,2	-0,79
202,7	1,61
203,2	0,467
203,6	1,581
204,1	-2,705
204,6	0,61
205	2,01
205,5	0,581
206	-1,419
206,4	-2,905
206,9	-3,99
207,4	2,095
207,8	0,552
208,3	-2,476
208,8	1,638
209,2	0,724
209,7	6,752
210,2	8,924
210,6	6,01
211,1	8,152
211,5	8,552
212	7,952
212,5	6,781
212,9	1,238
213,4	0,81
213,9	-0,762
214,3	-1,219
214,8	-2,733
215,3	-4,19
215,7	-1,505
216,2	2,581
216,7	4,152
217,1	6,124
217,6	3,81
218,1	2,752
218,5	2,981
219	-2,019
219,5	-3,105
219,9	-5,79
220,4	5,838
220,9	6,067
221,3	10,695
221,8	12,781
222,3	18,61
222,7	19,124
223,2	19,295
223,6	9,638
224,1	10,724
224,6	8,324
225	0,352
225,5	-0,79
226	-3,276
226,4	-0,362
226,9	-1,162
227,4	-0,248
227,8	-3,19
228,3	4,067
228,8	3,61
229,2	6,781
229,7	6,438
230,2	8,895
230,6	7,41
231,1	14,638
231,5	18,238
232	19,638
232,5	15,038
232,9	11,981
233,4	10,924
233,9	9,41
234,3	5,152
234,8	1,667
235,3	-2,733
235,7	0,924
236,2	3,981
236,7	3,952
237,1	5,095
237,6	4,067
238,1	1,838
238,5	2,61
239	3,838
239,4	6,267
239,9	8,838
240,4	8,438
240,8	11,924
241,3	12,667
241,8	16,41
242,2	12,524
242,7	6,324
243,2	3,01
243,6	3,267
244,1	-0,333
244,6	-0,133
245	-0,533
245,5	1,952
245,9	1,838
246,4	4,324
246,9	7,01
247,3	6,181
247,8	10,124
248,3	10,838
248,7	9,952
249,2	13,21
249,7	12,381
250,1	10,095
250,6	9,638
251	9,495
251,5	8,438
252	8,61
252,4	8,152
252,9	2,581
253,4	1,438
253,8	2,41
254,3	1,838
254,8	1,695
255,2	-2,79
255,7	-4,219
256,1	2,067
256,6	4,438
257,1	9,41
257,5	3,21
258	0,752
258,5	4,724
258,9	5,981
259,4	2,152
259,9	6,981
260,3	-1,305
260,8	0,524
261,2	6,295
261,7	6,438
262,2	2,752
262,6	6,81
263,1	5,495
263,6	12,352
264	14,867
264,5	10,438
264,9	7,238
265,4	9,61
265,9	6,781
266,3	6,952
266,8	4,638
267,3	6,867
267,7	8,038
268,2	9,495
268,7	12,581
269,1	10,238
269,6	4,381
270	11,41
270,5	7,238
271	6,867
271,4	10,438
271,9	3,124
272,4	7,438
272,8	10,067
273,3	-0,876
273,7	3,467
274,2	2,21
274,7	2,381
275,1	4,924
275,6	6,41
276,1	2,552
276,5	11,81
277	7,895
277,4	9,438
277,9	8,695
278,4	12,61
278,8	10,438
279,3	12,867
279,8	8,01
280,2	10,695
280,7	11,41
281,1	6,381
281,6	2,952
282,1	0,724
282,5	1,095
283	-0,79
283,4	-1,848
283,9	-1,533
284,4	7,41
284,8	8,41
285,3	7,524
285,8	8,095
286,2	6,752
286,7	4,895
287,1	2,295
287,6	-2,133
288,1	-4,762
288,5	-0,933
289	-3,105
289,5	-1,562
289,9	-1,419
290,4	3,381
290,8	5,295
291,3	6,667
291,8	11,524
292,2	9,41
292,7	14,552
293,1	13,495
293,6	14,152
294,1	15,095
294,5	15,695
295	11,067
295,5	16,352
295,9	14,638
296,4	15,381
296,8	13,381
297,3	8,981
297,8	2,438
298,2	2,552
298,7	2,695
299,1	0,552
299,6	-3,676
300,1	-2,79
300,5	-3,248
301	5,152
301,5	7,695
301,9	5,41
302,4	6,61
302,8	10,01
303,3	8,267
303,8	8,01
304,2	8,952
304,7	2,952
305,1	2,238
305,6	2,695
306,1	7,495
306,5	6,295
307	8,238
307,4	6,381
307,9	8,924
308,4	7,867
308,8	0,552
309,3	-3,79
309,8	-6,276
310,2	-3,476
310,7	-6,448
311,1	-7,362
311,6	-5,276
312,1	0,952
312,5	5,61
313	12,267
313,4	11,01
313,9	14,781
314,4	13,61
314,8	9,81
315,3	10,267
315,7	1,952
316,2	-0,19
316,7	-0,419
317,1	2,81
317,6	5,238
318	9,724
318,5	8,467
319	14,695
319,4	14,467
319,9	17,695
320,3	14,238
320,8	12,61
321,3	14,781
321,7	16,695
322,2	14,152
322,6	15,752
323,1	9,067
323,6	7,124
324	7,295
324,5	4,124
324,9	3,781
325,4	2,895
325,9	0,324
326,3	1,895
326,8	5,638
327,2	2,067
327,7	4,867
328,2	6,467
328,6	9,524
329,1	8,352
329,5	8,295
330	3,867
330,5	12,667
330,9	11,638
331,4	8,067
331,8	5,952
332,3	8,01
332,8	11,295
333,2	13,01
333,7	9,181
334,1	8,267
334,6	8,952
335,1	6,381
335,5	5,638
336	0,781
336,4	2,924
336,9	9,552
337,4	10,638
337,8	9,495
338,3	14,495
338,7	17,21
339,2	17,01
339,7	18,467
340,1	7,381
340,6	7,81
341	9,467
341,5	9,638
342	6,124
342,4	6,724
342,9	2,01
343,3	4,152
343,8	0,524
344,2	-0,505
344,7	1,495
345,2	-0,562
345,6	3,495
346,1	6,438
346,5	5,524
347	9,695
347,5	7,838
347,9	8,981
348,4	7,324
348,8	7,095
349,3	9,552
349,8	13,467
350,2	17,524
350,7	19,352
351,1	19,124
351,6	27,067
352	28,838
352,5	30,295
353	38,152
353,4	39,61
353,9	54,381
354,3	67,724
354,8	81,781
355,3	103,181
355,7	127,21
356,2	153,038
356,6	182,352
357,1	211,838
357,5	245,667
358	287,01
358,5	328,038
358,9	380,324
359,4	435,667
359,8	499,667
360,3	577,495
360,8	658,181
361,2	750,867
361,7	857,61
362,1	973,095
362,6	1100,124
363	1239,238
363,5	1378,638
364	1538,695
364,4	1688,981
364,9	1847,61
365,3	1996,667
365,8	2139,41
366,3	2273,152
366,7	2395,581
367,2	2496,838
367,6	2586,124
368,1	2653,01
368,5	2699,61
369	2724,924
369,5	2734,695
369,9	2717,295
370,4	2671,867
370,8	2616,438
371,3	2533,838
371,7	2443,867
372,2	2336,495
372,7	2218,781
373,1	2100,267
373,6	1983,181
374	1858,552
374,5	1741,61
374,9	1619,41
375,4	1508,638
375,9	1396,581
376,3	1288,524
376,8	1186,095
377,2	1092,724
377,7	1000,495
378,2	920,152
378,6	839,867
379,1	769,381
379,5	706,667
380	646,524
380,4	592,638
380,9	539,01
381,4	489,781
381,8	457,21
382,3	425,038
382,7	395,61
383,2	372,552
383,6	343,781
384,1	326,038
384,6	309,324
385	283,695
385,5	262,152
385,9	238,61
386,4	220,495
386,8	208,495
387,3	190,952
387,7	176,495
388,2	165,952
388,7	150,324
389,1	144,324
389,6	131,781
390	122,61
390,5	117,01
390,9	107,352
391,4	97,352
391,9	91,124
392,3	83,324
392,8	75,095
393,2	69,61
393,7	63,381
394,1	59,667
394,6	57,152
395,1	59,067
395,5	56,895
396	58,581
396,4	55,324
396,9	56,81
397,3	60,667
397,8	59,21
398,2	53,981
398,7	54,638
399,2	54,924
399,6	52,924
400,1	51,181
400,5	43,095
401	41,238
401,4	35,952
401,9	39,267
402,4	39,952
402,8	36,41
403,3	36,695
403,7	36,095
404,2	38,038
404,6	44,124
405,1	38,495
405,5	32,667
406	33,038
406,5	26,81
406,9	28,352
407,4	26,352
407,8	25,267
408,3	24,01
408,7	21,352
409,2	27,095
409,6	31,752
410,1	33,124
410,6	38,295
411	40,095
411,5	42,381
411,9	51,181
412,4	51,638
412,8	57,381
413,3	60,581
413,7	61,295
414,2	64,038
414,7	70,752
415,1	75,524
415,6	77,667
416	77,238
416,5	78,981
416,9	80,838
417,4	81,61
417,8	86,438
418,3	86,695
418,8	95,695
419,2	102,695
419,7	111,581
420,1	114,752
420,6	118,21
421	114,152
421,5	115,895
421,9	112,924
422,4	115,067
422,8	111,581
423,3	110,895
423,8	110,61
424,2	111,524
424,7	112,981
425,1	117,695
425,6	120,21
426	118,124
426,5	124,581
426,9	134,41
427,4	134,581
427,9	130,21
428,3	130,581
428,8	127,124
429,2	130,581
429,7	126,467
430,1	121,295
430,6	122,438
431	127,867
431,5	134,01
431,9	132,838
432,4	141,01
432,8	151,467
433,3	156,21
433,8	161,495
434,2	166,181
434,7	166,295
435,1	174,867
435,6	179,41
436	182,238
436,5	192,524
436,9	195,324
437,4	206,295
437,8	213,124
438,3	222,667
438,8	229,895
439,2	239,895
439,7	244,752
440,1	258,524
440,6	272,467
441	279,695
441,5	290,21
441,9	300,667
442,4	309,781
442,8	321,295
443,3	333,581
443,7	336,238
444,2	353,038
444,7	363,61
445,1	375,495
445,6	388,867
446	405,552
446,5	420,352
446,9	432,724
447,4	445,781
447,8	465,038
448,3	484,152
448,7	493,381
449,2	506,724
449,6	524,695
450,1	544,524
450,6	569,552
451	584,724
451,5	601,438
451,9	628,095
452,4	653,41
452,8	672,067
453,3	693,581
453,7	703,124
454,2	722,41
454,6	742,41
455,1	761,952
455,5	773,724
456	798,552
456,4	814,352
456,9	844,752
457,3	870,667
457,8	889,067
458,3	917,152
458,7	942,667
459,2	965,752
459,6	995,781
460,1	1017,01
460,5	1037,324
461	1067,152
461,4	1084,724
461,9	1118,01
462,3	1139,438
462,8	1166,267
463,2	1187,724
463,7	1213,495
464,1	1244,924
464,6	1274,581
465	1297,61
465,5	1329,924
466	1356,067
466,4	1383,01
466,9	1417,667
467,3	1438,61
467,8	1466,267
468,2	1493,01
468,7	1518,038
469,1	1545,524
469,6	1576,038
470	1595,924
470,5	1621,81
470,9	1644,981
471,4	1673,352
471,8	1699,295
472,3	1726,895
472,7	1751,895
473,2	1775,952
473,6	1797,267
474,1	1827,81
474,5	1845,067
475	1869,038
475,4	1893,41
475,9	1916,267
476,4	1940,324
476,8	1968,238
477,3	1982,895
477,7	2008,438
478,2	2025,552
478,6	2038,21
479,1	2054,495
479,5	2073,895
480	2087,952
480,4	2109,295
480,9	2126,267
481,3	2141,752
481,8	2161,667
482,2	2169,981
482,7	2182,267
483,1	2196,867
483,6	2205,495
484	2211,924
484,5	2222,324
484,9	2229,552
485,4	2247,381
485,8	2253,038
486,3	2261,181
486,7	2267,952
487,2	2272,038
487,6	2279,581
488,1	2279,467
488,5	2272,981
489	2279,81
489,4	2280,495
489,9	2280,724
490,4	2283,01
490,8	2278,038
491,3	2282,552
491,7	2286,01
492,2	2280,352
492,6	2276,895
493,1	2272,752
493,5	2266,038
494	2257,981
494,4	2252,295
494,9	2246,952
495,3	2240,895
495,8	2234,381
496,2	2226,01
496,7	2215,095
497,1	2214,552
497,6	2201,381
498	2193,895
498,5	2186,495
498,9	2171,838
499,4	2159,067
499,8	2158,095
500,3	2145,181
500,7	2135,21
501,2	2116,867
501,6	2095,581
502,1	2082,238
502,5	2072,952
503	2057,552
503,4	2044,61
503,9	2024,21
504,3	2008,181
504,8	1996,267
505,2	1978,41
505,7	1964,095
506,1	1949,695
506,6	1921,667
507	1909,495
507,5	1900,924
507,9	1887,095
508,4	1875,524
508,8	1857,895
509,3	1835,381
509,7	1823,981
510,2	1812,667
510,6	1786,81
511,1	1765,01
511,5	1752,838
512	1729,381
512,4	1712,238
512,9	1698,638
513,3	1678,438
513,8	1665,124
514,2	1647,752
514,7	1619,952
515,1	1607,781
515,6	1583,467
516	1558,752
516,5	1540,724
516,9	1519,981
517,4	1509,21
517,8	1496,952
518,3	1478,238
518,7	1466,695
519,2	1454,295
519,6	1437,61
520,1	1426,067
520,5	1405,952
521	1387,552
521,4	1371,495
521,9	1355,21
522,3	1338,867
522,8	1318,21
523,2	1300,295
523,7	1281,524
524,1	1267,152
524,6	1251,038
525	1235,095
525,5	1219,095
525,9	1206,381
526,4	1191,067
526,8	1177,667
527,3	1163,867
527,7	1148,724
528,2	1134,752
528,6	1117,981
529,1	1102,581
529,5	1092,952
530	1080,695
530,4	1062,924
530,9	1051,267
531,3	1039,181
531,8	1029,324
532,2	1019,495
532,6	1002,038
533,1	990,038
533,5	981,152
534	966,838
534,4	954,181
534,9	945,924
535,3	932,581
535,8	920,895
536,2	912,352
536,7	905,352
537,1	896,21
537,6	883,324
538	872,752
538,5	865,124
538,9	854,495
539,4	840,724
539,8	825,81
540,3	816,524
540,7	810,352
541,2	795,952
541,6	786,324
542,1	777,952
542,5	773,924
543	766,581
543,4	756,638
543,9	750,867
544,3	747,895
544,8	737,124
545,2	729,781
545,7	721,381
546,1	716,895
546,5	714,495
547	707,61
547,4	700,867
547,9	694,638
548,3	688,352
548,8	679,867
549,2	668,581
549,7	658,867
550,1	653,752
550,6	649,152
551	644,667
551,5	640,952
551,9	631,838
552,4	630,495
552,8	625,524
553,3	615,41
553,7	602,667
554,2	599,238
554,6	594,781
555,1	595,238
555,5	585,438
555,9	582,152
556,4	575,238
556,8	571,895
557,3	565,581
557,7	558,924
558,2	551,61
558,6	552,152
559,1	543,324
559,5	539,124
560	535,238
560,4	533,181
560,9	528,352
561,3	525,181
561,8	515,638
562,2	515,524
562,7	514,895
563,1	513,152
563,6	504,524
564	502,124
564,4	495,552
564,9	495,524
565,3	489,038
565,8	487,095
566,2	482,552
566,7	473,181
567,1	470,695
567,6	470,495
568	466,295
568,5	463,61
568,9	456,638
569,4	451,124
569,8	455,838
570,3	450,781
570,7	444,81
571,1	440,352
571,6	438,067
572	437,152
572,5	437,552
572,9	432,724
573,4	433,667
573,8	435,924
574,3	432,667
574,7	428,495
575,2	422,552
575,6	417,81
576,1	417,038
576,5	410,838
576,9	401,952
577,4	399,267
577,8	395,638
578,3	394,552
578,7	390,381
579,2	390,981
579,6	389,381
580,1	386,181
580,5	383,581
581	387,238
581,4	384,181
581,9	381,152
582,3	369,838
582,7	367,438
583,2	369,267
583,6	372,952
584,1	366,238
584,5	363,952
585	366,21
585,4	364,067
585,9	363,838
586,3	358,438
586,8	355,038
587,2	351,238
587,6	355,067
588,1	353,324
588,5	355,581
589	353,181
589,4	351,267
589,9	342,695
590,3	342,295
590,8	332,695
591,2	332,581
591,7	332,838
592,1	329,067
592,5	331,095
593	331,667
593,4	328,067
593,9	327,867
594,3	323,381
594,8	323,81
595,2	320,467
595,7	318,295
596,1	315,181
596,6	316,295
597	315,095
597,4	313,61
597,9	305,667
598,3	308,324
598,8	306,638
599,2	307,61
599,7	305,638
600,1	303,467
600,6	298,524
601	300,581
601,4	300,895
601,9	299,524
602,3	294,981
602,8	290,781
603,2	292,295
603,7	291,61
604,1	290,61
604,6	286,667
605	283,41
605,4	285,581
605,9	285,124
606,3	276,667
606,8	272,181
607,2	263,181
607,7	255,524
608,1	257,067
608,6	254,552
609	259,838
609,4	268,838
609,9	271,952
610,3	276,695
610,8	278,181
611,2	276,21
611,7	276,781
612,1	267,952
612,6	263,01
613	265,324
613,4	264,352
613,9	264,124
614,3	258,667
614,8	259,495
615,2	258,667
615,7	255,752
616,1	252,381
616,6	246,181
617	241,781
617,4	245,695
617,9	244,41
618,3	245,41
618,8	248,638
619,2	243,067
619,7	249,438
620,1	252,667
620,5	249,21
621	247,095
621,4	246,295
621,9	239,924
622,3	241,981
622,8	235,352
623,2	233,124
623,6	232,895
624,1	230,381
624,5	228,095
625	230,695
625,4	228,524
625,9	233,067
626,3	231,724
626,8	226,552
627,2	226,524
627,6	223,152
628,1	218,724
628,5	222,438
629	216,01
629,4	215,152
629,9	214,41
630,3	206,581
630,7	203,495
631,2	208,695
631,6	204,095
632,1	204,552
632,5	202,724
633	204,781
633,4	206,781
633,8	211,981
634,3	203,324
634,7	201,724
635,2	197,867
635,6	197,952
636,1	196,267
636,5	193,752
636,9	188,152
637,4	189,924
637,8	185,695
638,3	183,752
638,7	178,924
639,2	176,038
639,6	178,095
640	177,924
640,5	176,267
640,9	176,124
641,4	177,981
641,8	182,152
642,2	181,695
642,7	185,01
643,1	190,295
643,6	187,752
644	187,724
644,5	188,438
644,9	186,438
645,3	187,324
645,8	180,324
646,2	178,61
646,7	179,152
647,1	177,924
647,6	179,867
648	180,124
648,4	175,781
648,9	175,124
649,3	166,21
649,8	166,295
650,2	168,81
650,6	164,238
651,1	161,352
651,5	164,438
652	163,524
652,4	163,238
652,9	164,267
653,3	159,524
653,7	160,352
654,2	158,067
654,6	149,124
655,1	151,324
655,5	160,181
655,9	157,381
656,4	161,467
656,8	157,952
657,3	157,495
657,7	164,495
658,2	158,524
658,6	152,095
659	149,61
659,5	140,495
659,9	142,352
660,4	146,067
660,8	140,724
661,2	144,81
661,7	146,81
662,1	146,581
662,6	149,467
663	148,781
663,4	146,267
663,9	148,981
664,3	147,21
664,8	137,781
665,2	134,352
665,6	134,324
666,1	133,21
666,5	134,095
667	134,095
667,4	129,981
667,9	134,438
668,3	133,495
668,7	132,981
669,2	131,21
669,6	126,067
670,1	123,352
670,5	122,381
670,9	119,781
671,4	122,438
671,8	120,067
672,3	121,267
672,7	119,638
673,1	116,295
673,6	117,095
674	119,895
674,5	117,924
674,9	114,667
675,3	109,61
675,8	110,924
676,2	113,01
676,7	113,981
677,1	111,838
677,5	110,724
678	111,867
678,4	117,524
678,9	116,495
679,3	117,181
679,7	113,895
680,2	109,324
680,6	104,724
681,1	102,981
681,5	100,981
681,9	103,238
682,4	103,324
682,8	104,295
683,3	108,152
683,7	114,01
684,1	116,81
684,6	114,381
685	108,895
685,5	105,381
685,9	100,467
686,3	97,095
686,8	94,524
687,2	91,01
687,7	90,924
688,1	84,41
688,5	86,01
689	91,01
689,4	88,81
689,9	87,867
690,3	85,952
690,7	85,552
691,2	98,095
691,6	97,895
692	96,238
692,5	101,352
692,9	102,381
693,4	102,181
693,8	100,695
694,2	95,81
694,7	90,295
695,1	85,895
695,6	82,638
696	83,495
696,4	84,438
696,9	76,524
697,3	71,295
697,8	71,552
698,2	72,552
698,6	73,952
699,1	69,21
699,5	72,095
699,9	75,41
700,4	76,981
700,8	79,752
701,3	79,838
701,7	77,41
702,1	79,152
702,6	75,295
703	78,41
703,5	79,181
703,9	75,667
704,3	80,752
704,8	79,695
705,2	78,01
705,6	78,952
706,1	80,181
706,5	79,238
707	82,895
707,4	77,838
707,8	74,01
708,3	71,352
708,7	71,21
709,2	68,01
709,6	66,324
710	69,638
710,5	69,581
710,9	73,124
711,3	79,267
711,8	79,552
712,2	79,467
712,7	78,952
713,1	75,381
713,5	78,238
714	77,924
714,4	70,067
714,8	69,467
715,3	68,152
715,7	70,01
716,2	64,238
716,6	61,01
717	58,752
717,5	63,238
717,9	64,581
718,3	62,495
718,8	60,038
719,2	62,952
719,7	62,324
720,1	63,781
720,5	65,381
721	61,124
721,4	67,552
721,8	71,21
722,3	66,695
722,7	69,21
723,2	65,552
723,6	57,952
724	57,838
724,5	52,695
724,9	49,552
725,3	51,324
725,8	49,438
726,2	50,752
726,7	54,295
727,1	53,495
727,5	55,638
728	52,981
728,4	53,867
728,8	49,181
729,3	51,067
729,7	49,152
730,1	53,438
730,6	50,781
731	50,01
731,5	50,152
731,9	53,038
732,3	53,752
732,8	55,324
733,2	50,838
733,6	52,181
734,1	56,724
734,5	54,781
734,9	55,095
735,4	53,638
735,8	51,038
736,3	53,324
736,7	48,038
737,1	44,952
737,6	47,067
738	45,81
738,4	45,152
738,9	48,895
739,3	47,838
739,7	53,924
740,2	54,552
740,6	56,124
741,1	58,895
741,5	54,381
741,9	50,924
742,4	53,752
742,8	50,495
743,2	52,038
743,7	46,267
744,1	42,81
744,5	45,095
745	43,724
745,4	35,038
745,8	37,381
746,3	37,81
746,7	41,038
747,2	40,895
747,6	45,095
748	50,41
748,5	62,781
748,9	58,152
749,3	54,067
749,8	57,01
750,2	56,552
750,6	51,124
751,1	49,581
751,5	41,752
751,9	42,752
752,4	43,724
752,8	40,267
753,3	38,495
753,7	42,181
754,1	37,61
754,6	34,552
755	34,752
755,4	34,838
755,9	34,581
756,3	32,295
756,7	30,324
757,2	29,238
757,6	35,21
758	34,038
758,5	31,524
758,9	30,095
759,3	34,324
759,8	33,295
760,2	36,181
760,6	32,41
761,1	33,381
761,5	34,695
761,9	35,181
762,4	29,695
762,8	28,981
763,3	27,667
763,7	29,038
764,1	29,667
764,6	31,638
765	33,61
765,4	40,124
765,9	40,067
766,3	41,124
766,7	42,267
767,2	40,381
767,6	38,81
768	37,724
768,5	34,41
768,9	34,295
769,3	32,838
769,8	28,038
770,2	29,152
770,6	26,781
771,1	26,124
771,5	25,41
771,9	27,838
772,4	31,895
772,8	33,752
773,2	34,895
773,7	38,41
774,1	38,067
774,5	36,81
775	34,581
775,4	33,867
775,8	32,895
776,3	35,781
776,7	36,152
777,1	36,81
777,6	41,638
778	46,61
778,4	43,752
778,9	46,095
779,3	39,638
779,7	34,381
780,2	33,638
780,6	34,41
781	26,095
781,5	23,924
781,9	21,438
782,3	19,295
782,8	22,524
783,2	21,324
783,6	20,552
784,1	25,438
784,5	28,524
784,9	27,61
785,4	32,81
785,8	35,81
786,2	38,467
786,7	39,781
787,1	34,895
787,5	33,238
788	34,867
788,4	33,438
788,8	31,752
789,3	28,095
789,7	25,952
790,1	29,752
790,6	30,381
791	24,724
791,4	25,581
791,9	20,638
792,3	16,095
792,7	18,581
793,2	15,838
793,6	15,667
794	21,61
794,5	19,924
794,9	21,41
795,3	27,181
795,8	27,21
796,2	29,095
796,6	32,267
797,1	28,095
797,5	28,467
797,9	28,038
798,4	27,952
798,8	21,638
799,2	24,524
799,7	22,581
800,1	22,724
800,5	24,924
801	27,952
801,4	23,61
801,8	25,981
802,2	20,495
802,7	19,067
803,1	20,838
803,5	19,61
804	20,295
804,4	22,781
804,8	23,638
805,3	27,267
805,7	28,01
806,1	27,61
806,6	27,238
807	26,095
807,4	26,267
807,9	18,638
808,3	16,752
808,7	16,524
809,2	19,01
809,6	19,724
810	17,981
810,4	19,124
810,9	26,61
811,3	29,81
811,7	29,952
812,2	32,895
812,6	29,438
813	31,295
813,5	32,61
813,9	33,038
814,3	29,095
814,8	29,267
815,2	25,238
815,6	28,152
816,1	30,524
816,5	24,838
816,9	19,81
817,3	18,838
817,8	23,21
818,2	23,438
818,6	20,152
819,1	18,638
819,5	22,038
819,9	22,01
820,4	23,895
820,8	16,41
821,2	12,124
821,7	14,267
822,1	13,095
822,5	21,41
822,9	23,238
823,4	19,61
823,8	22,467
824,2	23,524
824,7	21,981
825,1	15,838
825,5	5,21
826	2,495
826,4	5,467
826,8	3,095
827,3	10,667
827,7	9,095
828,1	13,781
828,5	13,838
829	13,467
829,4	11,61
829,8	7,638
830,3	3,152
830,7	0,61
831,1	2,324
831,6	3,21
832	6,352
832,4	7,467
832,8	14,61
833,3	12,781
833,7	14,21
834,1	10,438
834,6	11,467
835	12,61
835,4	16,238
835,8	10,952
836,3	9,495
836,7	16,124
837,1	15,752
837,6	18,724
838	14,667
838,4	11,867
838,9	11,981
839,3	14,781
839,7	13,695
840,1	13,095
840,6	9,838
841	15,267
841,4	13,267
841,9	16,724
842,3	17,21
842,7	14,667
843,1	15,124
843,6	20,638
844	18,438
844,4	26,124
844,9	32,181
845,3	31,61
845,7	29,61
846,2	32,01
846,6	22,695
847	26,152
847,4	19,01
847,9	12,067
848,3	8,21
848,7	11,952
849,2	11,552
849,6	11,81
850	11,238
850,4	10,895
850,9	14,438
851,3	17,638
851,7	19,324
852,2	20,067
852,6	26,21
853	25,381
853,4	25,724
853,9	19,667
854,3	20,067
854,7	15,752
855,2	12,267
855,6	8,895
856	8,181
856,4	8,181
856,9	7,895
857,3	8,467
857,7	12,838
858,2	14,752
858,6	16,238
859	13,552
859,4	13,61
859,9	16,981
860,3	13,21
860,7	10,581
861,1	12,895
861,6	9,181
862	10,352
862,4	8,867
862,9	9,01
863,3	13,695
863,7	12,981
864,1	14,181
864,6	13,495
865	15,924
865,4	16,295
865,9	16,095
866,3	12,324
866,7	12,695
867,1	6,752
867,6	13,438
868	6,61
868,4	6,752
868,8	4,581
869,3	6,038
869,7	10,095
870,1	8,381
870,6	2,152
871	-64,705
871,4	-61,305
871,8	-61,819
872,3	-59,99
872,7	-61,448
873,1	-55,648
873,5	-52,362
874	19,295
874,4	20,952
874,8	21,21
875,3	19,552
875,7	13,838
876,1	14,552
876,5	13,524
877	8,067
877,4	1,695
877,8	1,552
878,2	6,067
878,7	11,895
879,1	10,41
879,5	12,752
879,9	17,267
880,4	19,01
880,8	20,895
881,2	17,467
881,7	11,752
882,1	8,867
882,5	5,638
882,9	3,381
883,4	1,952
883,8	3,467
884,2	2,81
884,6	5,152
885,1	7,981
885,5	9,324
885,9	14,01
886,3	16,438
886,8	11,295
887,2	10,352
887,6	7,61
888	7,181
888,5	7,381
888,9	3,838
889,3	3,924
889,8	4,267
890,2	2,81
890,6	2,324
891	1,581
891,5	1,467
891,9	3,495
892,3	0,581
892,7	6,324
893,2	8,638
893,6	12,238
894	16,867
894,4	15,781
894,9	10,867
895,3	11,81
895,7	8,238
896,1	9,067
896,6	7,781
897	5,638
897,4	11,181
897,8	17,495
898,3	20,981
898,7	20,724
899,1	18,667
899,5	15,838
900	12,152
900,4	8,324
900,8	3,324
901,2	-2,019
901,7	-6,448
902,1	-4,133
902,5	1,238
902,9	-1,105
903,4	0,495
903,8	2,838
904,2	2,267
904,6	10,124
905,1	7,752
905,5	5,552
905,9	11,638
906,3	11,038
906,8	15,467
907,2	18,095
907,6	12,981
908	12,01
908,5	10,895
908,9	5,21
909,3	4,01
909,7	-0,019
910,2	-0,59
910,6	3,667
911	1,724
911,4	3,152
911,9	3,781
912,3	3,152
912,7	8,124
913,1	9,952
913,6	6,21
914	9,81
914,4	8,267
914,8	12,352
915,3	10,267
915,7	7,724
916,1	5,924
916,5	7,381
916,9	9,61
917,4	9,952
917,8	7,667
918,2	6,381
918,6	0,924
919,1	4,295
919,5	4,838
919,9	2,781
920,3	0,924
920,8	1,781
921,2	1,695
921,6	3,124
922	3,067
922,5	2,124
922,9	2,095
923,3	2,067
923,7	3,467
924,2	4,295
924,6	5,181
925	4,21
925,4	2,267
925,8	0,867
926,3	-0,876
926,7	-1,733
927,1	-0,733
927,5	-0,105
928	-1,333
928,4	0,438
928,8	4,724
929,2	5,295
929,7	5,352
930,1	9,01
930,5	7,838
930,9	12,41
931,3	13,381
931,8	12,781
932,2	14,981
932,6	14,067
933	7,895
933,5	12,895
933,9	10,467
934,3	12,667
934,7	8,21
935,2	8,838
935,6	7,752
936	10,952
936,4	7,524
936,8	6,267
937,3	1,724
937,7	2,952
938,1	6,238
938,5	-0,562
939	-1,448
939,4	-1,076
939,8	-1,448
940,2	-3,848
940,6	-2,333
941,1	-3,219
941,5	9,81
941,9	7,638
942,3	3,781
942,8	3,667
943,2	10,924
943,6	8,952
944	9,238
944,4	5,352
944,9	6,552
945,3	10,181
945,7	7,724
946,1	2,038
946,6	-0,105
947	-4,076
947,4	-3,248
947,8	-1,39
948,2	-5,99
948,7	-4,419
949,1	-3,876
949,5	2,01
949,9	7,067
950,3	7,238
950,8	5,438
951,2	8,552
951,6	7,61
952	14,41
952,5	7,895
952,9	2,895
953,3	-0,79
953,7	-2,762
954,1	-0,133
954,6	2,724
955	1,61
955,4	4,467
955,8	9,952
956,2	14,038
956,7	17,495
957,1	14,067
957,5	16,667
957,9	12,295
958,3	10,238
958,8	9,124
959,2	9,095
959,6	9,981
960	10,81
960,5	10,581
960,9	15,095
961,3	14,638
961,7	11,752
962,1	10,467
962,6	9,667
963	11,981
963,4	5,324
963,8	0,695
964,2	3,695
964,7	7,295
965,1	12,61
965,5	13,038
965,9	12,324
966,3	13,895
966,8	13,61
967,2	13,952
967,6	12,038
968	4,152
968,4	3,267
968,9	0,781
969,3	2,781
969,7	1,352
970,1	2,438
970,5	-2,333
971	0,152
971,4	2,81
971,8	6,667
972,2	10,667
972,6	12,267
973,1	10,867
973,5	12,81
973,9	15,495
974,3	12,067
974,7	14,867
975,2	16,067
975,6	11,181
976	13,981
976,4	10,781
976,8	8,495
977,3	5,21
977,7	1,467
978,1	-4,99
978,5	-2,876
978,9	-9,562
979,4	-4,533
979,8	-9,19
980,2	-4,362
980,6	-11,533
981	-6,276
981,5	-1,648
981,9	2,695
982,3	2,895
982,7	8,895
983,1	7,381
983,6	14,067
984	11,981
984,4	10,724
984,8	8,381
985,2	6,152
985,6	1,695
986,1	2,01
986,5	2,038
986,9	-4,219
987,3	-4,619
987,7	-5,276
988,2	-7,933
988,6	-2,99
989	-3,105
989,4	-1,562
989,8	2,324
990,3	0,752
990,7	2,81
991,1	4,181
991,5	3,552
991,9	9,01
992,3	6,61
992,8	9,295
993,2	13,01
993,6	14,838
994	17,152
994,4	15,638
994,9	13,124
995,3	12,524
995,7	11,21
996,1	9,01
996,5	7,381
996,9	7,867
997,4	9,267
997,8	1,952
998,2	0,238
998,6	-6,733
999	-5,99
999,5	-6,562
999,9	-10,219
1000,3	-11,133
1000,7	-5,648
1001,1	-3,448
1001,5	3,21
1002	6,867
1002,4	6,695
1002,8	10,01
1003,2	10,467
1003,6	10,895
1004	16,438
1004,5	14,238
1004,9	13,695
1005,3	11,238
1005,7	10,495
1006,1	8,752
1006,6	5,61
1007	3,867
1007,4	4,524
1007,8	2,267
1008,2	3,181
1008,6	6,924
1009,1	6,524
1009,5	9,867
1009,9	9,552
1010,3	13,41
1010,7	13,01
1011,1	15,61
1011,6	14,295
1012	17,724
1012,4	14,752
1012,8	12,152
1013,2	12,467
1013,6	12,81
1014,1	14,352
1014,5	11,438
1014,9	7,867
1015,3	10,124
1015,7	10,152
1016,1	7,81
1016,6	5,981
1017	1,61
1017,4	5,21
1017,8	7,152
1018,2	7,695
1018,6	1,438
1019,1	1,952
1019,5	3,895
1019,9	1,638
1020,3	3,095
1020,7	3,438
1021,1	1,61
1021,6	5,267
1022	4,924
1022,4	5,524
1022,8	9,124
1023,2	4,81
1023,6	3,581
1024,1	12,381
1024,5	14,838
1024,9	11,781
1025,3	6,838
1025,7	10,21
1026,1	14,438
1026,6	12,61
1027	3,724
1027,4	4,61
1027,8	0,467
1028,2	-0,476
1028,6	3,752
1029	1,01
1029,5	5,124
1029,9	3,695
1030,3	-0,762
1030,7	7,267
1031,1	10,867
1031,5	3,667
1032	4,524
1032,4	2,495
1032,8	4,552
1033,2	6,324
1033,6	7,467
1034	8,267
1034,4	5,752
1034,9	9,01
1035,3	3,838
1035,7	5,267
1036,1	3,638
1036,5	-2,305
1036,9	3,152
1037,4	10,924
1037,8	1,21
1038,2	6,467
1038,6	5,238
1039	9,01
1039,4	16,067
1039,8	8,752
1040,3	4,095
1040,7	8,01
1041,1	7,238
1041,5	8,21
1041,9	5,324
1042,3	2,924
1042,7	4,638
1043,2	2,61
1043,6	0,752
1044	0,21
1044,4	0,038
1044,8	2,21
1045,2	1,067
1045,6	1,067
1046,1	1,495
1046,5	3,81
1046,9	-0,733
1047,3	-4,848
1047,7	-4,362
1048,1	-8,076
1048,5	-6,733
1049	-1,848
1049,4	3,838
1049,8	6,752
1050,2	9,095
1050,6	13,238
1051	18,695
1051,4	18,324
1051,9	15,724
1052,3	15,095
1052,7	19,81
1053,1	21,41
1053,5	21,438
1053,9	16,781
1054,3	14,038
1054,8	18,067
1055,2	15,667
1055,6	14,81
1056	15,095
1056,4	7,067
1056,8	9,724
1057,2	11,295
1057,6	4,667
1058,1	2,324
1058,5	-4,048
1058,9	-3,648
1059,3	0,581
1059,7	3,61
1060,1	4,41
1060,5	4,267
1061	2,724
1061,4	6,095
1061,8	6,638
1062,2	5,438
1062,6	0,495
1063	-0,39
1063,4	2,638
1063,8	4,781
1064,3	1,752
1064,7	-1,619
1065,1	-0,219
1065,5	-2,162
1065,9	-2,848
1066,3	-7,79
1066,7	-10,619
1067,1	-12,619
1067,6	-8,562
1068	-13,619
1068,4	-9,333
1068,8	-2,219
1069,2	4,524
1069,6	8,01
1070	14,752
1070,4	9,838
1070,9	10,924
1071,3	9,095
1071,7	1,895
1072,1	-1,362
1072,5	-4,476
1072,9	-6,362
1073,3	-2,476
1073,7	-0,048
1074,2	0,752
1074,6	4,21
1075	4,238
1075,4	4,324
1075,8	8,181
1076,2	7,581
1076,6	6,181
1077	4,438
1077,5	5,867
1077,9	3,81
1078,3	4,81
1078,7	1,838
1079,1	1,238
1079,5	2,724
1079,9	7,038
1080,3	3,924
1080,7	6,324
1081,2	13,495
1081,6	13,867
1082	12,838
1082,4	16,981
1082,8	13,495
1083,2	11,638
1083,6	13,81
1084	8,781
1084,5	11,61
1084,9	10,581
1085,3	1,495
1085,7	3,981
1086,1	5,324
1086,5	2,61
1086,9	4,952
1087,3	-1,533
1087,7	2,181
1088,2	6,21
1088,6	2,552
1089	2,067
1089,4	3,381
1089,8	1,552
1090,2	2,924
1090,6	-0,048
1091	1,152
1091,4	2,838
1091,9	0,752
1092,3	2,752
1092,7	-0,876
1093,1	2,552
1093,5	2,124
1093,9	0,952
1094,3	5,295
1094,7	4,095
1095,1	1,181
1095,5	4,695
1096	2,01
1096,4	1,695
1096,8	0,152
1097,2	-4,105
1097,6	3,238
1098	3,838
1098,4	3,067
1098,8	4,867
1099,2	13,41
1099,6	14,495
1100,1	14,067
1100,5	9,067
1100,9	8,295
1101,3	9,324
1101,7	7,124
1102,1	0,81
1102,5	2,924
1102,9	5,781
1103,3	10,124
1103,7	11,381
1104,2	8,667
1104,6	12,038
1105	9,838
1105,4	8,41
1105,8	5,552
1106,2	1,781
1106,6	0,438
1107	0,981
1107,4	-1,5
1107,8	0,667
1108,3	-0,133
