Data from Subt2_032.txt Node
Date: Sat Aug 26 16:22:09 MSK 2023
User: vat
Spectrometer: MAYP114033
Trigger mode: 0
Integration Time (sec): 1,000000E0
Scans to average: 5
Electric dark correction enabled: true
Nonlinearity correction enabled: false
Boxcar width: 3
XAxis mode: Wavelengths
Number of Pixels in Spectrum: 2068
>>>>>Begin Spectral Data<<<<<
199,4	-1,05
199,9	-3,3
200,4	-5
200,8	-6,986
201,3	-7,671
201,8	-5,814
202,2	-3,871
202,7	-0,471
203,2	0,757
203,6	3,929
204,1	6,586
204,6	11,157
205	11,329
205,5	9,414
206	6,814
206,4	11,957
206,9	6,471
207,4	11,329
207,8	6,643
208,3	5,614
208,8	8,671
209,2	9,7
209,7	6,357
210,2	16,814
210,6	13,729
211,1	16,757
211,5	13,957
212	5,871
212,5	3,014
212,9	2,271
213,4	0,157
213,9	-1,729
214,3	-2,1
214,8	5,129
215,3	9,157
215,7	7,729
216,2	10,414
216,7	5,471
217,1	5,814
217,6	3,3
218,1	2,214
218,5	2,9
219	12,043
219,5	9,243
219,9	10,671
220,4	9,786
220,9	11,643
221,3	7,3
221,8	4,757
222,3	-1,243
222,7	0,443
223,2	3,586
223,6	1,786
224,1	0,9
224,6	2,243
225	3,786
225,5	8,1
226	3,5
226,4	0,586
226,9	1,586
227,4	6,557
227,8	9,529
228,3	14,443
228,8	7,986
229,2	10,671
229,7	7,043
230,2	17,414
230,6	14,671
231,1	11,157
231,5	13,871
232	21,814
232,5	20,214
232,9	22,529
233,4	14,271
233,9	14,843
234,3	15,843
234,8	9,786
235,3	6,014
235,7	12,129
236,2	9,871
236,7	8,786
237,1	4,843
237,6	3,471
238,1	3,1
238,5	0,471
239	-3,757
239,4	-0,386
239,9	-0,643
240,4	0,871
240,8	2,443
241,3	-1,386
241,8	-0,814
242,2	-2,5
242,7	-1,557
243,2	0,757
243,6	4,329
244,1	3,3
244,6	4,757
245	5,957
245,5	6,729
245,9	8,1
246,4	5,557
246,9	1,871
247,3	1,1
247,8	3,9
248,3	5,757
248,7	9,586
249,2	5,271
249,7	5,871
250,1	5,471
250,6	5,043
251	6,071
251,5	1,5
252	0,329
252,4	0,757
252,9	2,871
253,4	3,3
253,8	-0,5
254,3	-0,614
254,8	-0,271
255,2	-0,5
255,7	0,386
256,1	-1,357
256,6	0,243
257,1	7,671
257,5	9,186
258	9,814
258,5	7,357
258,9	6,586
259,4	6,957
259,9	10,386
260,3	7,671
260,8	7,957
261,2	10,957
261,7	15,386
262,2	12,3
262,6	10,329
263,1	5,729
263,6	5,9
264	0,9
264,5	2,214
264,9	-1,643
265,4	1,214
265,9	8,529
266,3	11,729
266,8	12,129
267,3	14,071
267,7	12,557
268,2	11,557
268,7	10,671
269,1	6,614
269,6	6,071
270	8,671
270,5	9,071
271	8,386
271,4	3,643
271,9	8,186
272,4	7,729
272,8	4,871
273,3	0,443
273,7	-0,214
274,2	-2,957
274,7	1,529
275,1	-6,614
275,6	-6,386
276,1	-3,7
276,5	-0,186
277	1,329
277,4	5,729
277,9	4,157
278,4	11,5
278,8	13,814
279,3	7,443
279,8	9,814
280,2	12,3
280,7	9,757
281,1	15,957
281,6	12,871
282,1	11,443
282,5	16,043
283	15,814
283,4	10,1
283,9	6,214
284,4	1,871
284,8	3,3
285,3	1,1
285,8	-3,929
286,2	-9,329
286,7	-7,9
287,1	-5,929
287,6	-2,729
288,1	-1,043
288,5	2,1
289	6,214
289,5	4,014
289,9	4,357
290,4	5,614
290,8	9,414
291,3	6,529
291,8	3,214
292,2	5,814
292,7	9,986
293,1	11,9
293,6	10,071
294,1	2,957
294,5	10,329
295	9,586
295,5	5,386
295,9	8,814
296,4	10,671
296,8	10,871
297,3	14,157
297,8	10,843
298,2	12,843
298,7	10,243
299,1	9,386
299,6	6,9
300,1	9,071
300,5	10,414
301	12,614
301,5	10,814
301,9	15,157
302,4	12,843
302,8	11,329
303,3	8,1
303,8	4,214
304,2	0,014
304,7	1,329
305,1	3,757
305,6	-3,271
306,1	0,614
306,5	3,957
307	5,186
307,4	2,843
307,9	3,757
308,4	4,271
308,8	15,729
309,3	12,357
309,8	17,443
310,2	14,329
310,7	24,443
311,1	20,157
311,6	14,1
312,1	11,357
312,5	12,529
313	4,7
313,4	10,386
313,9	8,643
314,4	9,843
314,8	15,3
315,3	11,729
315,7	13,157
316,2	15,329
316,7	13,643
317,1	10,614
317,6	8,986
318	10,071
318,5	12,386
319	8,471
319,4	5,814
319,9	4,071
320,3	4,3
320,8	7,786
321,3	3,9
321,7	4,5
322,2	8,414
322,6	8,1
323,1	9,843
323,6	6,014
324	10,186
324,5	11,129
324,9	9,871
325,4	10,757
325,9	16,557
326,3	19,386
326,8	21,9
327,2	19,443
327,7	17,929
328,2	17,214
328,6	16,786
329,1	14,471
329,5	13,643
330	11,986
330,5	11,443
330,9	16,786
331,4	14,471
331,8	14,186
332,3	14,271
332,8	9,357
333,2	9,129
333,7	8,814
334,1	7,357
334,6	10,814
335,1	10,757
335,5	9,957
336	9,9
336,4	7,671
336,9	10,643
337,4	3,729
337,8	2,643
338,3	1,1
338,7	1,929
339,2	5,957
339,7	9,1
340,1	6,157
340,6	8,329
341	12,443
341,5	14,471
342	17,814
342,4	15,157
342,9	9,1
343,3	11,071
343,8	14,814
344,2	14,9
344,7	12,5
345,2	6,014
345,6	10,471
346,1	16,786
346,5	17,386
347	19,271
347,5	13,414
347,9	15,071
348,4	21,957
348,8	22,729
349,3	23,043
349,8	21,7
350,2	19,243
350,7	23,671
351,1	24,9
351,6	23,414
352	29,957
352,5	38,414
353	47,443
353,4	59,843
353,9	76,3
354,3	99,129
354,8	122,386
355,3	144,014
355,7	167,7
356,2	201,986
356,6	242,186
357,1	281,843
357,5	325,529
358	387,157
358,5	454,986
358,9	532,614
359,4	619,557
359,8	710,814
360,3	819,957
360,8	943,757
361,2	1077,186
361,7	1225,071
362,1	1389,929
362,6	1566,157
363	1761,586
363,5	1973,386
364	2176,214
364,4	2389,357
364,9	2600,929
365,3	2809,243
365,8	3009,243
366,3	3198,671
366,7	3357,986
367,2	3510,014
367,6	3630,5
368,1	3722,5
368,5	3781,929
369	3813,043
369,5	3807,871
369,9	3777,243
370,4	3716,471
370,8	3626,471
371,3	3523,7
371,7	3398,786
372,2	3247,129
372,7	3082,871
373,1	2918,471
373,6	2747,986
374	2574,986
374,5	2394,843
374,9	2226,786
375,4	2069,871
375,9	1923,586
376,3	1775,414
376,8	1637,157
377,2	1511,157
377,7	1388,929
378,2	1272,214
378,6	1164,5
379,1	1064,729
379,5	977,386
380	896,071
380,4	816,129
380,9	752,557
381,4	694,871
381,8	639,071
382,3	589,843
382,7	539,871
383,2	498,557
383,6	464,471
384,1	428,329
384,6	391,386
385	364,986
385,5	333,157
385,9	314,929
386,4	293,986
386,8	277,243
387,3	256,871
387,7	244,957
388,2	226,043
388,7	215,729
389,1	196,471
389,6	180,7
390	164,071
390,5	152,214
390,9	145,843
391,4	141,643
391,9	129,529
392,3	121,014
392,8	113,871
393,2	107,357
393,7	109,157
394,1	102,271
394,6	93,9
395,1	97,3
395,5	99,5
396	98,271
396,4	96,443
396,9	88,786
397,3	84,414
397,8	84,786
398,2	77,729
398,7	66,157
399,2	62,443
399,6	63,929
400,1	59,186
400,5	58,271
401	59,986
401,4	60,957
401,9	65,414
402,4	68,329
402,8	65,414
403,3	70,129
403,7	66,214
404,2	65,443
404,6	62,814
405,1	62,586
405,5	58,586
406	60,529
406,5	59,671
406,9	63,7
407,4	63,729
407,8	66,5
408,3	72,157
408,7	80,986
409,2	82,643
409,6	87,271
410,1	98,157
410,6	104,329
411	112,957
411,5	116,214
411,9	119,586
412,4	130,871
412,8	138,5
413,3	142,614
413,7	151,471
414,2	161,243
414,7	176,786
415,1	190,157
415,6	204,586
416	221,357
416,5	234,529
416,9	248,7
417,4	264,443
417,8	278,186
418,3	293,586
418,8	303,957
419,2	322,871
419,7	344,214
420,1	362,071
420,6	381,471
421	399,757
421,5	421,357
421,9	445,957
422,4	463,814
422,8	488,243
423,3	512,929
423,8	546,414
424,2	579,071
424,7	609,586
425,1	645,214
425,6	687,243
426	721,186
426,5	765,529
426,9	801,814
427,4	839,186
427,9	879,271
428,3	921,129
428,8	966,843
429,2	1014,014
429,7	1064,957
430,1	1116,243
430,6	1177,157
431	1241,7
431,5	1307,214
431,9	1375,071
432,4	1448,243
432,8	1522,1
433,3	1601,214
433,8	1684,443
434,2	1772,357
434,7	1858,529
435,1	1946,386
435,6	2048,986
436	2142,786
436,5	2248,843
436,9	2356,614
437,4	2469,871
437,8	2590,471
438,3	2718,843
438,8	2839,214
439,2	2974,557
439,7	3110,214
440,1	3256,614
440,6	3404,357
441	3556,271
441,5	3713,9
441,9	3874,214
442,4	4046,129
442,8	4219,529
443,3	4392,071
443,7	4573,157
444,2	4760,814
444,7	4953,243
445,1	5153,614
445,6	5356,071
446	5579,586
446,5	5808,043
446,9	6030,643
447,4	6262,3
447,8	6499,414
448,3	6741,414
448,7	6984,329
449,2	7225,529
449,6	7467,729
450,1	7735,671
450,6	7996,643
451	8247,414
451,5	8519,414
451,9	8800,614
452,4	9094,557
452,8	9387,157
453,3	9672,129
453,7	9966,243
454,2	10281,671
454,6	10591,7
455,1	10903,814
455,5	11200,586
456	11518,071
456,4	11847,071
456,9	12177,014
457,3	12513,357
457,8	12849,986
458,3	13186,271
458,7	13541,014
459,2	13893,471
459,6	14241,186
460,1	14593,243
460,5	14935,329
461	15284,729
461,4	15636,757
461,9	15972,843
462,3	16322,243
462,8	16676,671
463,2	17036,929
463,7	17400,443
464,1	17753,129
464,6	18109,729
465	18464,9
465,5	18815,557
466	19158,557
466,4	19494,9
466,9	19831,871
467,3	20168,986
467,8	20514,957
468,2	20861,014
468,7	21191,186
469,1	21517,7
469,6	21850,129
470	22184,443
470,5	22513,214
470,9	22830,271
471,4	23144,471
471,8	23447,986
472,3	23751,014
472,7	24054,214
473,2	24341,357
473,6	24628,529
474,1	24896,157
474,5	25175,386
475	25460,814
475,4	25722,643
475,9	25990,843
476,4	26229,757
476,8	26470,786
477,3	26721,071
477,7	26957,671
478,2	27173,529
478,6	27404,929
479,1	27598,243
479,5	27815,643
480	27990,529
480,4	28161,671
480,9	28318,214
481,3	28462,157
481,8	28610,586
482,2	28758,014
482,7	28884,071
483,1	29041,071
483,6	29155,186
484	29276,729
484,5	29400,357
484,9	29476,814
485,4	29553,243
485,8	29620,214
486,3	29692,757
486,7	29752,929
487,2	29802,957
487,6	29832,614
488,1	29875,7
488,5	29896,557
489	29919,529
489,4	29910,043
489,9	29925,871
490,4	29897,586
490,8	29884,7
491,3	29860,843
491,7	29821,786
492,2	29791,386
492,6	29728,1
493,1	29640,043
493,5	29569,729
494	29488,871
494,4	29396,071
494,9	29312,414
495,3	29208,014
495,8	29123,414
496,2	29034,529
496,7	28930,157
497,1	28839,757
497,6	28728,271
498	28614,043
498,5	28495,471
498,9	28363,586
499,4	28231,214
499,8	28108,729
500,3	27962,071
500,7	27824,986
501,2	27685,9
501,6	27538,243
502,1	27387,129
502,5	27237,929
503	27085,157
503,4	26917,586
503,9	26752,957
504,3	26578,471
504,8	26398,3
505,2	26237,643
505,7	26071,986
506,1	25887,9
506,6	25698,757
507	25511,557
507,5	25317,557
507,9	25124,529
508,4	24919,186
508,8	24714,071
509,3	24507,157
509,7	24312,557
510,2	24118,1
510,6	23921,557
511,1	23724,1
511,5	23510,586
512	23308,071
512,4	23119,386
512,9	22890,1
513,3	22675,043
513,8	22476,586
514,2	22256,986
514,7	22038,243
515,1	21810,671
515,6	21582,357
516	21380,557
516,5	21165,9
516,9	20939,9
517,4	20734,271
517,8	20541,671
518,3	20331,043
518,7	20110,243
519,2	19903,386
519,6	19689,071
520,1	19465,586
520,5	19251,186
521	19030,157
521,4	18828,043
521,9	18627,157
522,3	18430,643
522,8	18240,357
523,2	18050,986
523,7	17864,414
524,1	17664,214
524,6	17444,929
525	17252,071
525,5	17052,243
525,9	16847,643
526,4	16655,186
526,8	16455,471
527,3	16272,214
527,7	16105,529
528,2	15920,5
528,6	15740,1
529,1	15558,9
529,5	15378,1
530	15207,814
530,4	15040,586
530,9	14867,357
531,3	14691,5
531,8	14523,214
532,2	14361,443
532,6	14200,557
533,1	14034,243
533,5	13859,214
534	13703,071
534,4	13552,3
534,9	13397,843
535,3	13241,843
535,8	13093,529
536,2	12942,757
536,7	12805,443
537,1	12662,786
537,6	12513,271
538	12369,443
538,5	12238,9
538,9	12095,129
539,4	11960,671
539,8	11818,157
540,3	11679,957
540,7	11552,957
541,2	11428,671
541,6	11298,957
542,1	11171,729
542,5	11039,471
543	10919,729
543,4	10809,414
543,9	10686,186
544,3	10561,043
544,8	10442,414
545,2	10330,129
545,7	10221,357
546,1	10111,557
546,5	9981,471
547	9872,614
547,4	9758,557
547,9	9649,5
548,3	9537,871
548,8	9434,043
549,2	9329,957
549,7	9241,414
550,1	9141,329
550,6	9045,7
551	8949,414
551,5	8856,957
551,9	8765,386
552,4	8680,014
552,8	8584,586
553,3	8502,757
553,7	8418,529
554,2	8336,586
554,6	8258,043
555,1	8174,786
555,5	8095,014
555,9	8016,157
556,4	7934,5
556,8	7860,129
557,3	7779,643
557,7	7705,3
558,2	7624,557
558,6	7544,129
559,1	7468,671
559,5	7394,271
560	7321,1
560,4	7246,9
560,9	7175,071
561,3	7108,043
561,8	7042,386
562,2	6976,414
562,7	6909,843
563,1	6840,014
563,6	6768,957
564	6705,329
564,4	6643,157
564,9	6575,643
565,3	6516,786
565,8	6467,329
566,2	6412,5
566,7	6359,243
567,1	6303,5
567,6	6246,786
568	6195,129
568,5	6139,271
568,9	6070,757
569,4	6014,214
569,8	5959,729
570,3	5902,529
570,7	5846,729
571,1	5788,814
571,6	5736,843
572	5691,014
572,5	5637,214
572,9	5603,986
573,4	5557,1
573,8	5513,471
574,3	5469,9
574,7	5425,471
575,2	5376,271
575,6	5334,243
576,1	5277,643
576,5	5233,957
576,9	5186,471
577,4	5142,557
577,8	5095,1
578,3	5048,386
578,7	5012,1
579,2	4968,043
579,6	4926,014
580,1	4887,586
580,5	4840,814
581	4800,414
581,4	4763,557
581,9	4719,214
582,3	4674,443
582,7	4631,5
583,2	4586,529
583,6	4548,929
584,1	4515,071
584,5	4478,157
585	4437,443
585,4	4406,614
585,9	4364,243
586,3	4323,443
586,8	4286,386
587,2	4244,957
587,6	4209,271
588,1	4170,243
588,5	4133,1
589	4105,1
589,4	4081,929
589,9	4052,329
590,3	4019,014
590,8	3990,043
591,2	3960,7
591,7	3931,729
592,1	3904,414
592,5	3870,671
593	3840,014
593,4	3816,786
593,9	3785,814
594,3	3757,986
594,8	3727,7
595,2	3697,9
595,7	3675,214
596,1	3652,529
596,6	3631,1
597	3609,871
597,4	3586,014
597,9	3559,414
598,3	3537,414
598,8	3512,214
599,2	3486,243
599,7	3456,243
600,1	3425,671
600,6	3403,357
601	3379,471
601,4	3357,557
601,9	3335,186
602,3	3321,329
602,8	3297,357
603,2	3282,271
603,7	3258,7
604,1	3246,586
604,6	3214,957
605	3192,957
605,4	3158,157
605,9	3133,843
606,3	3104,9
606,8	3082,186
607,2	3052,786
607,7	3038,157
608,1	3017,586
608,6	3003,329
609	2986,871
609,4	2966,957
609,9	2951,329
610,3	2932,643
610,8	2917,843
611,2	2897,471
611,7	2873,014
612,1	2848,129
612,6	2829,443
613	2808,7
613,4	2785,557
613,9	2756,157
614,3	2733,5
614,8	2714,529
615,2	2701,757
615,7	2685,386
616,1	2662,157
616,6	2646,614
617	2628,214
617,4	2606,357
617,9	2591,786
618,3	2567,443
618,8	2547,1
619,2	2533,414
619,7	2515,757
620,1	2498,129
620,5	2482,729
621	2463,757
621,4	2451,843
621,9	2428,729
622,3	2412,214
622,8	2387,386
623,2	2372,9
623,6	2352,386
624,1	2338,386
624,5	2323,843
625	2312,243
625,4	2298,871
625,9	2286,1
626,3	2267,7
626,8	2260,214
627,2	2244,071
627,6	2220,929
628,1	2204,5
628,5	2184,214
629	2177,643
629,4	2162,757
629,9	2144,614
630,3	2126,671
630,7	2115,014
631,2	2098,814
631,6	2083,386
632,1	2065,386
632,5	2050,814
633	2031,7
633,4	2017,414
633,8	2002,614
634,3	1986,129
634,7	1973,814
635,2	1950,014
635,6	1932,643
636,1	1924,786
636,5	1902,043
636,9	1883,443
637,4	1875,357
637,8	1856,271
638,3	1847,814
638,7	1839,014
639,2	1825,243
639,6	1816,586
640	1802,357
640,5	1789,786
640,9	1780,357
641,4	1767,214
641,8	1750,786
642,2	1736,3
642,7	1726,729
643,1	1723,586
643,6	1707,671
644	1701,786
644,5	1694,929
644,9	1687,329
645,3	1678,871
645,8	1671,7
646,2	1658,443
646,7	1647,843
647,1	1630,757
647,6	1615,271
648	1606,871
648,4	1592,929
648,9	1576,643
649,3	1563,986
649,8	1556,186
650,2	1541,1
650,6	1532,443
651,1	1521,186
651,5	1513,9
652	1507,071
652,4	1495,929
652,9	1489,557
653,3	1480,243
653,7	1473,9
654,2	1462,643
654,6	1451,014
655,1	1434,614
655,5	1422,243
655,9	1402,671
656,4	1395,414
656,8	1382,071
657,3	1367,957
657,7	1356,7
658,2	1348,957
658,6	1339,386
659	1330,529
659,5	1322,9
659,9	1311,986
660,4	1305,071
660,8	1296,386
661,2	1290,214
661,7	1275,957
662,1	1269,386
662,6	1260,586
663	1250,357
663,4	1242,529
663,9	1234,814
664,3	1221,986
664,8	1218,9
665,2	1210,871
665,6	1200,557
666,1	1191,043
666,5	1184,414
667	1171,214
667,4	1169,9
667,9	1159,957
668,3	1150,9
668,7	1141,614
669,2	1132,614
669,6	1119,786
670,1	1117,614
670,5	1100,443
670,9	1095,186
671,4	1085,729
671,8	1075,557
672,3	1069,843
672,7	1064,329
673,1	1050,986
673,6	1044,014
674	1036,129
674,5	1029,386
674,9	1022,5
675,3	1015,157
675,8	1007,271
676,2	1002,614
676,7	1001,1
677,1	996,414
677,5	989,329
678	985,9
678,4	980,671
678,9	973,671
679,3	962,929
679,7	956,014
680,2	950,9
680,6	942,986
681,1	931,271
681,5	922,243
681,9	913,529
682,4	909,929
682,8	898,929
683,3	884,9
683,7	879,443
684,1	879,9
684,6	874,614
685	873,729
685,5	867,843
685,9	860,557
686,3	860,014
686,8	854,014
687,2	844,757
687,7	838,243
688,1	829,243
688,5	820,1
689	818,643
689,4	814,329
689,9	811,643
690,3	806,871
690,7	801,129
691,2	795,814
691,6	791,186
692	784,243
692,5	773,586
692,9	763,071
693,4	758,157
693,8	755,7
694,2	747,957
694,7	746,014
695,1	742,729
695,6	738,414
696	733,843
696,4	724,529
696,9	717,729
697,3	714,414
697,8	702,643
698,2	693,443
698,6	688,357
699,1	681,243
699,5	677,957
699,9	670,3
700,4	663,586
700,8	667,214
701,3	662,843
701,7	656,9
702,1	654,443
702,6	650,386
703	641,557
703,5	636,243
703,9	627,186
704,3	622,957
704,8	620,586
705,2	616,871
705,6	605,214
706,1	612,5
706,5	612,843
707	609,271
707,4	609,729
707,8	606,329
708,3	598,214
708,7	602,929
709,2	591,014
709,6	586,271
710	578,443
710,5	571,443
710,9	565,157
711,3	561,386
711,8	557,014
712,2	554,014
712,7	548,557
713,1	545,271
713,5	538,471
714	532,443
714,4	530,586
714,8	524,671
715,3	523,757
715,7	512,471
716,2	507,186
716,6	507,071
717	499,5
717,5	495,014
717,9	487,986
718,3	480,871
718,8	483,186
719,2	479,071
719,7	477,186
720,1	475,786
720,5	474,357
721	471,443
721,4	470,186
721,8	467,471
722,3	464,3
722,7	453,557
723,2	453,529
723,6	448,529
724	446,071
724,5	437,443
724,9	428,614
725,3	425,757
725,8	422,214
726,2	415,414
726,7	412,214
727,1	403,129
727,5	403,957
728	402,786
728,4	399,7
728,8	400,014
729,3	396,529
729,7	393,414
730,1	395,814
730,6	389,214
731	394,386
731,5	395,729
731,9	394,929
732,3	397,757
732,8	397,1
733,2	394,386
733,6	395,214
734,1	388,986
734,5	381,843
734,9	374,843
735,4	371,871
735,8	366,529
736,3	365,386
736,7	362,271
737,1	361,786
737,6	363,1
738	364,129
738,4	363,5
738,9	364,357
739,3	356,586
739,7	357,729
740,2	351,7
740,6	345,014
741,1	339,5
741,5	335,9
741,9	327,786
742,4	331,3
742,8	329,7
743,2	332,871
743,7	336,557
744,1	333,814
744,5	332,871
745	333,471
745,4	333,386
745,8	326,843
746,3	323,614
746,7	318,729
747,2	322,443
747,6	316,386
748	312,729
748,5	313,329
748,9	312,414
749,3	308,586
749,8	306,643
750,2	304,157
750,6	299,871
751,1	304,9
751,5	293,386
751,9	290,129
752,4	284,814
752,8	280,014
753,3	275,243
753,7	277,014
754,1	271,9
754,6	273,7
755	269,871
755,4	269,186
755,9	271,757
756,3	267,929
756,7	264,129
757,2	260,671
757,6	262,9
758	262,157
758,5	259,729
758,9	254,871
759,3	253,586
759,8	258,871
760,2	263,471
760,6	257,586
761,1	255,129
761,5	253,3
761,9	253,357
762,4	255,3
762,8	247,957
763,3	238,957
763,7	237,443
764,1	236,243
764,6	235,9
765	230,586
765,4	229,957
765,9	225,986
766,3	223,586
766,7	220,729
767,2	223,7
767,6	222,157
768	224,329
768,5	220,014
768,9	217,786
769,3	220,557
769,8	223,157
770,2	221,614
770,6	216,957
771,1	220,157
771,5	218,757
771,9	221,843
772,4	223,929
772,8	220,157
773,2	219,129
773,7	222,557
774,1	220,871
774,5	222,843
775	216,614
775,4	211,9
775,8	209,386
776,3	201,3
776,7	200,729
777,1	199,957
777,6	193,957
778	196,929
778,4	195,357
778,9	192,043
779,3	193,814
779,7	189,186
780,2	179,729
780,6	180,014
781	181,1
781,5	178,243
781,9	181,871
782,3	182,271
782,8	178,843
783,2	176,386
783,6	172,729
784,1	168,157
784,5	166,843
784,9	162,329
785,4	159,271
785,8	158,586
786,2	161,757
786,7	159,729
787,1	157,729
787,5	159,957
788	159,643
788,4	155,357
788,8	153,529
789,3	154,071
789,7	155,329
790,1	156,957
790,6	151,643
791	152,586
791,4	153,729
791,9	153,5
792,3	151,243
792,7	152,814
793,2	147,357
793,6	150,1
794	147,529
794,5	149,471
794,9	152,471
795,3	152,529
795,8	147,871
796,2	150,929
796,6	149,729
797,1	143,129
797,5	139,414
797,9	136,271
798,4	134,643
798,8	133,557
799,2	133,957
799,7	131,443
800,1	135,814
800,5	136,414
801	136,3
801,4	129,9
801,8	131,386
802,2	127,129
802,7	124,871
803,1	125,757
803,5	126,729
804	127,043
804,4	128,071
804,8	126,214
805,3	124,986
805,7	123,986
806,1	123,843
806,6	119,414
807	120,443
807,4	122,3
807,9	123,243
808,3	122,329
808,7	120,471
809,2	116,814
809,6	117,329
810	115,557
810,4	115,643
810,9	113,843
811,3	114,871
811,7	113,1
812,2	114,843
812,6	114,957
813	110,957
813,5	109,871
813,9	106,9
814,3	104,7
814,8	107,757
815,2	103,443
815,6	97,271
816,1	96,329
816,5	93,586
816,9	98,357
817,3	101,071
817,8	104,271
818,2	103,243
818,6	108,586
819,1	109,9
819,5	109,757
819,9	105,157
820,4	103,643
820,8	93,957
821,2	99,471
821,7	97,814
822,1	92,643
822,5	92,214
822,9	95,271
823,4	90,214
823,8	92,7
824,2	88,786
824,7	91,414
825,1	90,557
825,5	93,414
826	89,014
826,4	91,386
826,8	93,814
827,3	95,729
827,7	93,214
828,1	96,3
828,5	92,471
829	90,243
829,4	92,129
829,8	90,129
830,3	88,243
830,7	85,986
831,1	83,071
831,6	79,357
832	78,471
832,4	76,443
832,8	74,643
833,3	70,814
833,7	74,129
834,1	73,843
834,6	75,357
835	76,043
835,4	73,871
835,8	73,243
836,3	71,586
836,7	63,786
837,1	64,186
837,6	61,757
838	60,529
838,4	55,757
838,9	57,614
839,3	62,186
839,7	65,071
840,1	62,586
840,6	66,9
841	68,243
841,4	69,129
841,9	66,329
842,3	64,414
842,7	61,843
843,1	66,757
843,6	66,243
844	64,443
844,4	67,529
844,9	69,329
845,3	67,157
845,7	72,929
846,2	70,986
846,6	66,986
847	66,671
847,4	63,386
847,9	61,243
848,3	64,186
848,7	60,786
849,2	63,529
849,6	66,186
850	65,014
850,4	69,9
850,9	68,986
851,3	64,1
851,7	62,643
852,2	55,414
852,6	52,786
853	55,443
853,4	58,671
853,9	56,1
854,3	54,329
854,7	51,5
855,2	50,614
855,6	47,414
856	41,557
856,4	37,271
856,9	35,843
857,3	35,814
857,7	42,186
858,2	43,329
858,6	50,9
859	48,9
859,4	44,157
859,9	47,9
860,3	49,5
860,7	45,271
861,1	47,014
861,6	39,329
862	43,786
862,4	46,729
862,9	46,757
863,3	45,129
863,7	41,129
864,1	38,614
864,6	37,843
865	33,157
865,4	28,471
865,9	24,786
866,3	28,271
866,7	32,443
867,1	37,071
867,6	38,729
868	44,871
868,4	46,043
868,8	47,529
869,3	47,557
869,7	44,957
870,1	45,1
870,6	42,957
871	75,414
871,4	73,386
871,8	75,529
872,3	72,071
872,7	72,871
873,1	68,471
873,5	74,214
874	38,9
874,4	40,671
874,8	33,9
875,3	32,271
875,7	31,243
876,1	29,729
876,5	29,329
877	30,9
877,4	29,357
877,8	36,3
878,2	36,671
878,7	41,157
879,1	40,271
879,5	41,614
879,9	39,271
880,4	40,7
880,8	37,414
881,2	39,614
881,7	40,1
882,1	43,329
882,5	41,071
882,9	41,414
883,4	42,529
883,8	43,643
884,2	40,7
884,6	36,214
885,1	33,757
885,5	34,214
885,9	37,129
886,3	35,929
886,8	33,929
887,2	34,014
887,6	30,671
888	30,729
888,5	27,671
888,9	26,043
889,3	22,214
889,8	21,729
890,2	19,957
890,6	25,129
891	23,671
891,5	24,986
891,9	23,871
892,3	23,357
892,7	27,186
893,2	26,129
893,6	19,643
894	19,1
894,4	18,614
894,9	19,1
895,3	23,329
895,7	19,386
896,1	20,786
896,6	22,271
897	22,271
897,4	17,386
897,8	15,614
898,3	18,414
898,7	14,443
899,1	13,986
899,5	14,757
900	15,3
900,4	16,3
900,8	19,529
901,2	15,729
901,7	19,557
902,1	22,9
902,5	20,9
902,9	23,9
903,4	25,643
903,8	16,7
904,2	19,643
904,6	16,814
905,1	17,329
905,5	18,043
905,9	14,586
906,3	13,586
906,8	18,786
907,2	13,586
907,6	14,786
908	11,9
908,5	12,671
908,9	11,386
909,3	9,071
909,7	7,129
910,2	8,529
910,6	10,614
911	11,214
911,4	12,357
911,9	11,814
912,3	14,529
912,7	15,929
913,1	9,214
913,6	10,614
914	9,957
914,4	3,443
914,8	7,271
915,3	6,614
915,7	2,871
916,1	7,986
916,5	7,671
916,9	7,5
917,4	14,271
917,8	12,529
918,2	8,9
918,6	12,5
919,1	13,214
919,5	12,243
919,9	14,014
920,3	14,843
920,8	15,643
921,2	22,5
921,6	17,271
922	15,557
922,5	16,557
922,9	11,757
923,3	11,043
923,7	5,871
924,2	-2,129
924,6	2,643
925	2,614
925,4	0,757
925,8	1,557
926,3	1,557
926,7	4,129
927,1	8,071
927,5	8,614
928	6,9
928,4	5,471
928,8	10,071
929,2	10,729
929,7	7,814
930,1	9,414
930,5	7,071
930,9	10,643
931,3	14,1
931,8	11,957
932,2	10,357
932,6	14,843
933	11,729
933,5	10,329
933,9	13,3
934,3	9,843
934,7	11,043
935,2	11,843
935,6	11,643
936	12,7
936,4	15,014
936,8	12,5
937,3	15,157
937,7	16,5
938,1	10,671
938,5	8,214
939	11,957
939,4	13,586
939,8	14,7
940,2	11,157
940,6	2,471
941,1	8,614
941,5	11,729
941,9	7,186
942,3	3,671
942,8	2,643
943,2	0,671
943,6	6,929
944	3,929
944,4	-1,729
944,9	-2,386
945,3	0,986
945,7	0,071
946,1	2,1
946,6	-0,214
947	1,471
947,4	4,014
947,8	7,129
948,2	3,271
948,7	1,014
949,1	1,243
949,5	2,986
949,9	5,9
950,3	8,243
950,8	5,9
951,2	9,471
951,6	13,843
952	13,386
952,5	12,071
952,9	7,7
953,3	5,043
953,7	7,9
954,1	8,5
954,6	10,871
955	15,586
955,4	17,7
955,8	19,9
956,2	18,529
956,7	17,329
957,1	14,5
957,5	7,357
957,9	1,443
958,3	1,043
958,8	-0,243
959,2	1,014
959,6	0,757
960	1,157
960,5	1,271
960,9	4,729
961,3	1,986
961,7	-1,843
962,1	-0,071
962,6	-2,7
963	-1,671
963,4	0,843
963,8	-2,443
964,2	0,1
964,7	0,986
965,1	1,729
965,5	2,186
965,9	2,386
966,3	-0,129
966,8	0,614
967,2	-0,129
967,6	1,529
968	3,443
968,4	5,786
968,9	11,271
969,3	11,586
969,7	10,643
970,1	10,671
970,5	11,843
971	5,214
971,4	8,014
971,8	5,329
972,2	6,471
972,6	7,214
973,1	8,757
973,5	7,786
973,9	10,729
974,3	7,729
974,7	1,7
975,2	0,7
975,6	-5,186
976	-3,357
976,4	-4,414
976,8	-1,986
977,3	-5,3
977,7	-5,986
978,1	-7,614
978,5	1,786
978,9	-2,986
979,4	-4,929
979,8	-8,957
980,2	-9,843
980,6	-6,9
981	-6,186
981,5	-10,271
981,9	-13,214
982,3	-12,643
982,7	-11,014
983,1	-7,643
983,6	-6,043
984	-3,443
984,4	0,386
984,8	5,214
985,2	6,7
985,6	7,386
986,1	3,843
986,5	-2,443
986,9	-2,757
987,3	-5,843
987,7	-7,786
988,2	-4,814
988,6	-9,186
989	-1,271
989,4	7,471
989,8	8,3
990,3	8,529
990,7	4,929
991,1	1,843
991,5	7,671
991,9	4,643
992,3	0,386
992,8	-0,986
993,2	2,757
993,6	9,614
994	4,329
994,4	2,243
994,9	-0,214
995,3	0,014
995,7	2,529
996,1	0,186
996,5	-0,014
996,9	7,243
997,4	7,5
997,8	11,871
998,2	12,586
998,6	11,386
999	9,671
999,5	7,557
999,9	9,014
1000,3	8,586
1000,7	4,7
1001,1	0,814
1001,5	-2,014
1002	-5,329
1002,4	-6,243
1002,8	-4,871
1003,2	-3,871
1003,6	1,986
1004	0,557
1004,5	3,1
1004,9	2,529
1005,3	0,414
1005,7	-2,214
1006,1	-6,3
1006,6	-10,129
1007	-7,5
1007,4	-9,3
1007,8	-5,729
1008,2	-0,529
1008,6	-5,357
1009,1	-4,786
1009,5	1,9
1009,9	6,043
1010,3	9,929
1010,7	13,871
1011,1	12,5
1011,6	12,243
1012	12,986
1012,4	6,043
1012,8	1,529
1013,2	-0,986
1013,6	-5,014
1014,1	-3,614
1014,5	0,843
1014,9	4,329
1015,3	4,443
1015,7	4,071
1016,1	7,157
1016,6	10,5
1017	9,071
1017,4	7,5
1017,8	1,929
1018,2	-0,186
1018,6	3,5
1019,1	-3,071
1019,5	-3,586
1019,9	-2,3
1020,3	-3,3
1020,7	1,529
1021,1	3,243
1021,6	-3,129
1022	-2,957
1022,4	1,157
1022,8	-1,9
1023,2	-1,1
1023,6	-3,5
1024,1	-0,157
1024,5	5,271
1024,9	11,871
1025,3	5,443
1025,7	5,329
1026,1	9,357
1026,6	12,014
1027	10,471
1027,4	8,157
1027,8	3,414
1028,2	8,586
1028,6	12,271
1029	8,9
1029,5	7,7
1029,9	3,1
1030,3	5,929
1030,7	8,129
1031,1	-1,186
1031,5	-3,814
1032	-3,043
1032,4	-5,929
1032,8	-1,614
1033,2	0,5
1033,6	2,1
1034	7,929
1034,4	9,814
1034,9	6,243
1035,3	11,043
1035,7	10,243
1036,1	10,557
1036,5	4,986
1036,9	4,357
1037,4	2,043
1037,8	1,071
1038,2	-6,386
1038,6	-8,471
1039	-16,671
1039,4	-12,5
1039,8	-16,9
1040,3	-18,1
1040,7	-19,671
1041,1	-15,014
1041,5	-18,157
1041,9	-12,9
1042,3	-13,529
1042,7	-8,557
1043,2	-7,757
1043,6	-2,929
1044	-3,214
1044,4	-0,329
1044,8	-6,214
1045,2	-4,471
1045,6	0,071
1046,1	5,329
1046,5	11,014
1046,9	13,243
1047,3	15,471
1047,7	19,957
1048,1	16,757
1048,5	12,071
1049	6,786
1049,4	1,814
1049,8	1,329
1050,2	1,643
1050,6	5,814
1051	10,957
1051,4	8,071
1051,9	10,471
1052,3	7,614
1052,7	7,929
1053,1	5,557
1053,5	2,071
1053,9	-2,157
1054,3	-0,357
1054,8	4,043
1055,2	4,557
1055,6	-0,814
1056	2,243
1056,4	0,557
1056,8	-1,357
1057,2	0,329
1057,6	-5,586
1058,1	-3,414
1058,5	0,7
1058,9	0,243
1059,3	4,443
1059,7	5,757
1060,1	2,471
1060,5	-1,671
1061	-2,986
1061,4	0,871
1061,8	-5,929
1062,2	-3,329
1062,6	-4,7
1063	-4,757
1063,4	0,757
1063,8	2,586
1064,3	0,643
1064,7	3,186
1065,1	-2,014
1065,5	1,214
1065,9	2,443
1066,3	-1,786
1066,7	-4,071
1067,1	-6,129
1067,6	-2,014
1068	-2,471
1068,4	-2,643
1068,8	-0,186
1069,2	0,071
1069,6	2,729
1070	6,357
1070,4	6,529
1070,9	8,586
1071,3	8,014
1071,7	7,986
1072,1	14,129
1072,5	16,014
1072,9	17,271
1073,3	13,671
1073,7	13,5
1074,2	13,814
1074,6	13,271
1075	7,986
1075,4	7,186
1075,8	5,214
1076,2	6,271
1076,6	3,929
1077	0,586
1077,5	-0,186
1077,9	1,329
1078,3	-1,471
1078,7	0,471
1079,1	1,414
1079,5	-1,929
1079,9	3,786
1080,3	4,5
1080,7	6,157
1081,2	7,414
1081,6	5,614
1082	5,271
1082,4	9,757
1082,8	3,557
1083,2	-2,157
1083,6	-5,529
1084	-7,3
1084,5	-8,9
1084,9	-11,357
1085,3	-10,214
1085,7	-12,157
1086,1	-10,957
1086,5	-0,5
1086,9	-2,929
1087,3	-0,214
1087,7	4,614
1088,2	3,129
1088,6	8,557
1089	10,414
1089,4	3,614
1089,8	9,157
1090,2	7,786
1090,6	5,471
1091	6,586
1091,4	5,471
1091,9	8,957
1092,3	4,814
1092,7	1,986
1093,1	-3,1
1093,5	-4,9
1093,9	-3,214
1094,3	-4,1
1094,7	-7,157
1095,1	-8,671
1095,5	-8,271
1096	-9,386
1096,4	-4,414
1096,8	-11,614
1097,2	-8,557
1097,6	-9,9
1098	-7,243
1098,4	-8,014
1098,8	-4,671
1099,2	-11,243
1099,6	-4,643
1100,1	-3,443
1100,5	-0,071
1100,9	2,929
1101,3	6,786
1101,7	11,7
1102,1	15,643
1102,5	11,871
1102,9	6,786
1103,3	3,157
1103,7	0,671
1104,2	0,671
1104,6	-1,129
1105	-0,9
1105,4	0,9
1105,8	3,471
1106,2	5,671
1106,6	5,643
1107	3,014
1107,4	0,333
1107,8	-0,5
1108,3	0,2
