Data from Subt2_099.txt Node
Date: Sat Aug 26 16:44:44 MSK 2023
User: vat
Spectrometer: MAYP114033
Trigger mode: 0
Integration Time (sec): 1,000000E0
Scans to average: 5
Electric dark correction enabled: true
Nonlinearity correction enabled: false
Boxcar width: 3
XAxis mode: Wavelengths
Number of Pixels in Spectrum: 2068
>>>>>Begin Spectral Data<<<<<
199,4	-0,5
199,9	-1,76
200,4	-0,167
200,8	-0,629
201,3	1
201,8	0,629
202,2	2,029
202,7	2,171
203,2	1,6
203,6	1,6
204,1	5,343
204,6	7,629
205	11,714
205,5	9,4
206	12,657
206,4	16,4
206,9	17,143
207,4	18,371
207,8	11,743
208,3	8,371
208,8	12,171
209,2	14,743
209,7	15,771
210,2	17,143
210,6	15,143
211,1	18,714
211,5	19,4
212	14
212,5	4,343
212,9	1,429
213,4	0,829
213,9	-3,714
214,3	-0,457
214,8	0,114
215,3	2,229
215,7	2,429
216,2	7,486
216,7	6,314
217,1	7,4
217,6	2,229
218,1	4,114
218,5	7,914
219	17,257
219,5	12,714
219,9	11,543
220,4	13,629
220,9	15,771
221,3	13,114
221,8	9,543
222,3	5,629
222,7	4,914
223,2	7,714
223,6	8,657
224,1	9,086
224,6	10,114
225	10,8
225,5	15,514
226	15,514
226,4	14,943
226,9	11,657
227,4	14,971
227,8	14,057
228,3	16
228,8	9,143
229,2	13,8
229,7	10,743
230,2	19,457
230,6	15,286
231,1	15,943
231,5	15,971
232	21,629
232,5	19,086
232,9	21,943
233,4	18,686
233,9	20,257
234,3	22,714
234,8	18,714
235,3	17,029
235,7	19,8
236,2	18,943
236,7	16,6
237,1	15,629
237,6	16,686
238,1	21,114
238,5	20,914
239	16,514
239,4	16,286
239,9	14,486
240,4	13,657
240,8	15,571
241,3	10,8
241,8	10,629
242,2	10,371
242,7	9,543
243,2	13,914
243,6	14,743
244,1	10,371
244,6	12,286
245	11,229
245,5	12,829
245,9	14,429
246,4	9,371
246,9	11,714
247,3	10,371
247,8	11,743
248,3	13,229
248,7	16,8
249,2	14,257
249,7	19,229
250,1	14,086
250,6	16,143
251	13,686
251,5	9,114
252	6,914
252,4	8,629
252,9	3,771
253,4	8,943
253,8	8,143
254,3	11,429
254,8	16,057
255,2	14,086
255,7	14,171
256,1	18,914
256,6	17,343
257,1	18,543
257,5	22,229
258	19,629
258,5	19,857
258,9	20,143
259,4	17,943
259,9	19,029
260,3	13,286
260,8	11,886
261,2	16,714
261,7	21,657
262,2	21,943
262,6	25,314
263,1	22,486
263,6	28,114
264	24,857
264,5	22,943
264,9	18,829
265,4	21,057
265,9	18,886
266,3	21,457
266,8	20,8
267,3	23,114
267,7	25,657
268,2	23,257
268,7	19,143
269,1	17,114
269,6	20,514
270	21,8
270,5	22,543
271	16,343
271,4	12,829
271,9	17,6
272,4	19,057
272,8	10,857
273,3	7,571
273,7	4,371
274,2	2,514
274,7	8,457
275,1	1,229
275,6	3,6
276,1	11,8
276,5	14,629
277	15,543
277,4	19,886
277,9	17,657
278,4	24,629
278,8	26,371
279,3	19,371
279,8	24,886
280,2	25,943
280,7	25,943
281,1	31,314
281,6	31,143
282,1	28,6
282,5	32,686
283	24,629
283,4	21,514
283,9	17,886
284,4	12,914
284,8	7,886
285,3	6,743
285,8	2,686
286,2	1,686
286,7	-1,943
287,1	1,857
287,6	5,286
288,1	6,543
288,5	6,086
289	8,857
289,5	9,829
289,9	12,286
290,4	8,6
290,8	9,771
291,3	10,829
291,8	8,543
292,2	10,629
292,7	12,486
293,1	16,229
293,6	18,714
294,1	14
294,5	18
295	17,8
295,5	17,971
295,9	20,286
296,4	18,914
296,8	16,543
297,3	18,029
297,8	14,543
298,2	13,8
298,7	10,543
299,1	7,029
299,6	5,2
300,1	10,486
300,5	12,8
301	15
301,5	15,4
301,9	12,2
302,4	13,829
302,8	18,314
303,3	15,971
303,8	12,029
304,2	5,486
304,7	5,486
305,1	8,686
305,6	6,457
306,1	7,657
306,5	8,771
307	9,514
307,4	10,114
307,9	14,743
308,4	15,571
308,8	21,543
309,3	15,057
309,8	16,714
310,2	15
310,7	23,571
311,1	14,829
311,6	16,771
312,1	12,657
312,5	13,171
313	8,371
313,4	10,829
313,9	11,486
314,4	13,829
314,8	12,943
315,3	14,886
315,7	18,257
316,2	17,943
316,7	22,8
317,1	18,286
317,6	22,4
318	23,457
318,5	21,714
319	22,457
319,4	22,771
319,9	18,571
320,3	20,543
320,8	18,914
321,3	17,029
321,7	15,514
322,2	13,686
322,6	13,914
323,1	14,714
323,6	11,257
324	17,343
324,5	14,943
324,9	17,029
325,4	18,257
325,9	19,6
326,3	19,886
326,8	20,457
327,2	18,971
327,7	19,657
328,2	14,086
328,6	11,229
329,1	11,314
329,5	12,171
330	13,486
330,5	10,971
330,9	17,171
331,4	18,543
331,8	27
332,3	31,743
332,8	31,743
333,2	28,2
333,7	27,6
334,1	25,429
334,6	28,086
335,1	21,029
335,5	16,171
336	11,229
336,4	13,857
336,9	13,543
337,4	10,971
337,8	9,286
338,3	11,371
338,7	11,429
339,2	17,2
339,7	20,914
340,1	22,057
340,6	22,086
341	27,171
341,5	27,714
342	29,029
342,4	23,657
342,9	17,371
343,3	19,229
343,8	22,143
344,2	22,514
344,7	18,2
345,2	16,486
345,6	20,943
346,1	25
346,5	26,657
347	26,286
347,5	19,486
347,9	21,457
348,4	23,857
348,8	21,029
349,3	22,6
349,8	17,743
350,2	14,286
350,7	21,686
351,1	24,8
351,6	27,2
352	38,143
352,5	42,686
353	55,657
353,4	66,886
353,9	77,371
354,3	92,857
354,8	104,171
355,3	120,629
355,7	139,4
356,2	160,629
356,6	189,371
357,1	217,457
357,5	253,714
358	301,057
358,5	344,771
358,9	400,057
359,4	465,771
359,8	531,086
360,3	609
360,8	692,229
361,2	788,429
361,7	892,886
362,1	1011,029
362,6	1131,714
363	1264,543
363,5	1410,771
364	1558,8
364,4	1710,171
364,9	1856,257
365,3	2005,029
365,8	2144,343
366,3	2283,457
366,7	2402,714
367,2	2508,857
367,6	2592,086
368,1	2667,029
368,5	2707,457
369	2731,543
369,5	2731,486
369,9	2705,914
370,4	2659,657
370,8	2597,429
371,3	2520,171
371,7	2431,086
372,2	2331,943
372,7	2212,743
373,1	2102,057
373,6	1981,457
374	1858,657
374,5	1737,229
374,9	1613,086
375,4	1496,257
375,9	1390,886
376,3	1281,6
376,8	1186,371
377,2	1095,829
377,7	1007,114
378,2	930,2
378,6	850,657
379,1	780,943
379,5	715,543
380	654,629
380,4	597,086
380,9	548,143
381,4	503,457
381,8	465,486
382,3	424,286
382,7	391,086
383,2	363,171
383,6	342,057
384,1	317,6
384,6	290,029
385	269,514
385,5	258,257
385,9	246,257
386,4	230,057
386,8	218,943
387,3	204,657
387,7	197,886
388,2	187,171
388,7	172,171
389,1	158,6
389,6	147,171
390	133,829
390,5	125,229
390,9	119,8
391,4	114,457
391,9	108,771
392,3	99,914
392,8	95,314
393,2	85,686
393,7	81,4
394,1	77,571
394,6	67,743
395,1	64,943
395,5	64,571
396	63,971
396,4	64,143
396,9	61,2
397,3	54,943
397,8	56,543
398,2	52,314
398,7	46,714
399,2	38,714
399,6	42,886
400,1	40,171
400,5	39,914
401	40,686
401,4	43,971
401,9	45,257
402,4	49,029
402,8	42,829
403,3	40,686
403,7	42,171
404,2	41,886
404,6	37,486
405,1	37,457
405,5	33,543
406	34,829
406,5	36,314
406,9	32,4
407,4	29,086
407,8	33,514
408,3	31,514
408,7	41,657
409,2	42,914
409,6	42,971
410,1	49,543
410,6	54,543
411	54,143
411,5	57,2
411,9	50,457
412,4	53,686
412,8	56,943
413,3	53,343
413,7	55,057
414,2	57,143
414,7	63,429
415,1	68,114
415,6	65,8
416	68,514
416,5	73,943
416,9	72,457
417,4	74,457
417,8	74,114
418,3	79,629
418,8	80,971
419,2	84,429
419,7	83,343
420,1	86,771
420,6	85,686
421	86,114
421,5	82,914
421,9	86,257
422,4	86,286
422,8	87,486
423,3	86,286
423,8	93,429
424,2	91,714
424,7	92,171
425,1	94,629
425,6	92,857
426	95,429
426,5	96,514
426,9	90,114
427,4	88,829
427,9	85,686
428,3	81,571
428,8	85,571
429,2	77,457
429,7	72,771
430,1	74,143
430,6	78,771
431	81,143
431,5	85,257
431,9	82,543
432,4	89
432,8	94,086
433,3	92,343
433,8	91,886
434,2	87,486
434,7	81,2
435,1	82,086
435,6	86,457
436	90,229
436,5	97,429
436,9	99,029
437,4	110,2
437,8	114,143
438,3	118,686
438,8	112,771
439,2	113,029
439,7	112,314
440,1	115,829
440,6	116,057
441	119,543
441,5	118,743
441,9	129,486
442,4	138,457
442,8	145,057
443,3	150,086
443,7	152,629
444,2	161,629
444,7	168,657
445,1	174,829
445,6	176,543
446	183,714
446,5	190,171
446,9	202,857
447,4	209,543
447,8	219,343
448,3	224,486
448,7	229,429
449,2	236,6
449,6	246,171
450,1	252,914
450,6	262,286
451	265,457
451,5	274,543
451,9	286
452,4	295,743
452,8	306,086
453,3	312,4
453,7	322,771
454,2	335,314
454,6	349,314
455,1	356,771
455,5	368,343
456	380,086
456,4	394,914
456,9	403,229
457,3	421,686
457,8	434,029
458,3	452,029
458,7	466,743
459,2	478,8
459,6	493,943
460,1	510,771
460,5	524,629
461	537,8
461,4	550,971
461,9	564,886
462,3	579,429
462,8	594,714
463,2	612,229
463,7	626,086
464,1	643,2
464,6	661,314
465	681,143
465,5	701,886
466	722,943
466,4	738,971
466,9	760,771
467,3	778,886
467,8	801,371
468,2	817,629
468,7	833,171
469,1	846,714
469,6	865,457
470	887,657
470,5	909,229
470,9	928,457
471,4	950,486
471,8	969,371
472,3	990,171
472,7	1013,429
473,2	1027,514
473,6	1044,743
474,1	1057,829
474,5	1077
475	1098,2
475,4	1114,943
475,9	1138,6
476,4	1153,286
476,8	1173,4
477,3	1194,857
477,7	1211,771
478,2	1228,486
478,6	1249,8
479,1	1264,571
479,5	1289,114
480	1308,514
480,4	1330,829
480,9	1351,257
481,3	1373,086
481,8	1391,229
482,2	1406,857
482,7	1424,886
483,1	1441,371
483,6	1450,486
484	1458,486
484,5	1469,943
484,9	1483,343
485,4	1495,914
485,8	1502,686
486,3	1510,771
486,7	1529,229
487,2	1548,029
487,6	1561,714
488,1	1577,829
488,5	1588,914
489	1603,571
489,4	1617,629
489,9	1630,257
490,4	1638,029
490,8	1646,6
491,3	1652,371
491,7	1667,057
492,2	1677,371
492,6	1686,771
493,1	1691,629
493,5	1699,971
494	1708,171
494,4	1715,857
494,9	1718,286
495,3	1730,314
495,8	1739,343
496,2	1747,114
496,7	1753,686
497,1	1765,429
497,6	1777,429
498	1783,486
498,5	1788,629
498,9	1795,686
499,4	1804,314
499,8	1811
500,3	1818,571
500,7	1821,4
501,2	1833,457
501,6	1839,686
502,1	1849,886
502,5	1847,514
503	1861
503,4	1864,171
503,9	1868,457
504,3	1869,229
504,8	1874,829
505,2	1872,114
505,7	1890,286
506,1	1892,057
506,6	1894,4
507	1899,543
507,5	1908,286
507,9	1912,571
508,4	1920,029
508,8	1921
509,3	1925,6
509,7	1929,486
510,2	1935,457
510,6	1936,114
511,1	1937,514
511,5	1938,057
512	1944,429
512,4	1945,657
512,9	1951,429
513,3	1961,743
513,8	1968,629
514,2	1979,857
514,7	1989,686
515,1	1990,457
515,6	1996,114
516	2002,8
516,5	2004,914
516,9	2005,971
517,4	2003,686
517,8	2006,486
518,3	2009,257
518,7	2018,8
519,2	2021,6
519,6	2021,343
520,1	2030,143
520,5	2041,143
521	2047,771
521,4	2054,371
521,9	2056,543
522,3	2064,486
522,8	2076,286
523,2	2077,971
523,7	2085,486
524,1	2096,171
524,6	2103,657
525	2113,486
525,5	2122,686
525,9	2125,286
526,4	2135,114
526,8	2133,829
527,3	2135,343
527,7	2144,429
528,2	2145,514
528,6	2147,686
529,1	2153,143
529,5	2153,114
530	2165,686
530,4	2172,171
530,9	2168,686
531,3	2176,4
531,8	2187,229
532,2	2194,114
532,6	2205,629
533,1	2207,343
533,5	2217,6
534	2229,571
534,4	2240
534,9	2252,943
535,3	2260,114
535,8	2267,429
536,2	2276,286
536,7	2278,829
537,1	2287,257
537,6	2293,171
538	2288,543
538,5	2299,229
538,9	2311,4
539,4	2321,829
539,8	2330,771
540,3	2339,171
540,7	2349,914
541,2	2362,914
541,6	2365,571
542,1	2369,286
542,5	2373,229
543	2378,771
543,4	2391,743
543,9	2390,743
544,3	2396,143
544,8	2408,371
545,2	2417,8
545,7	2422,229
546,1	2429,686
546,5	2432,2
547	2443,4
547,4	2446,8
547,9	2450,857
548,3	2455,571
548,8	2466,657
549,2	2477,114
549,7	2485,343
550,1	2493,086
550,6	2501,171
551	2512,143
551,5	2518,543
551,9	2525,829
552,4	2531,171
552,8	2533,4
553,3	2539,229
553,7	2541,457
554,2	2543,171
554,6	2548,829
555,1	2557,657
555,5	2558,657
555,9	2566,029
556,4	2569,343
556,8	2584,143
557,3	2586,629
557,7	2593,057
558,2	2593,914
558,6	2606,6
559,1	2610,8
559,5	2614,457
560	2617,714
560,4	2624,229
560,9	2628,257
561,3	2631,086
561,8	2640,429
562,2	2644,8
562,7	2651,343
563,1	2650,371
563,6	2655,057
564	2660,657
564,4	2669,8
564,9	2664,486
565,3	2667,8
565,8	2678,371
566,2	2684,114
566,7	2687,857
567,1	2694,6
567,6	2699,571
568	2711,314
568,5	2721,286
568,9	2714,886
569,4	2717,314
569,8	2718,029
570,3	2720,571
570,7	2710,514
571,1	2700,886
571,6	2696
572	2697,6
572,5	2698,314
572,9	2704,257
573,4	2703,343
573,8	2710,429
574,3	2712,429
574,7	2714,657
575,2	2717,057
575,6	2720,829
576,1	2721,057
576,5	2716,943
576,9	2723,914
577,4	2729,686
577,8	2727,343
578,3	2722,914
578,7	2723,829
579,2	2725,257
579,6	2726,886
580,1	2724,4
580,5	2719,657
581	2716,571
581,4	2717,886
581,9	2716,314
582,3	2709,686
582,7	2706,943
583,2	2694,143
583,6	2690,057
584,1	2690,086
584,5	2685,514
585	2678,171
585,4	2675,743
585,9	2676,4
586,3	2674,829
586,8	2668,143
587,2	2659,143
587,6	2656,486
588,1	2655,6
588,5	2649,771
589	2640,057
589,4	2637,657
589,9	2636,429
590,3	2639
590,8	2635,314
591,2	2631,771
591,7	2630,971
592,1	2630,714
592,5	2631,257
593	2628,229
593,4	2618,143
593,9	2608,143
594,3	2596,371
594,8	2589,714
595,2	2582,571
595,7	2577,457
596,1	2571,857
596,6	2570,571
597	2572,543
597,4	2570,629
597,9	2566,771
598,3	2563,886
598,8	2552,286
599,2	2548,229
599,7	2548,029
600,1	2540,657
600,6	2537,486
601	2529,314
601,4	2526
601,9	2521,114
602,3	2521,257
602,8	2508,057
603,2	2506,686
603,7	2500,686
604,1	2498,371
604,6	2481,286
605	2479,771
605,4	2467,4
605,9	2464,057
606,3	2453,457
606,8	2442,914
607,2	2434,914
607,7	2434,6
608,1	2427,171
608,6	2415,229
609	2405,971
609,4	2402,914
609,9	2400,143
610,3	2395,514
610,8	2392,771
611,2	2380
611,7	2378,629
612,1	2369,286
612,6	2358,571
613	2351,857
613,4	2338,543
613,9	2328,343
614,3	2321,486
614,8	2308,2
615,2	2304,657
615,7	2291,686
616,1	2275,829
616,6	2267,657
617	2255,6
617,4	2247,143
617,9	2239,714
618,3	2230,914
618,8	2223,629
619,2	2221,829
619,7	2208,686
620,1	2199,143
620,5	2192,286
621	2186,229
621,4	2178,143
621,9	2170,029
622,3	2161,629
622,8	2154,457
623,2	2143,886
623,6	2127,4
624,1	2124,114
624,5	2113,2
625	2101,686
625,4	2089,057
625,9	2086,714
626,3	2079,086
626,8	2077,629
627,2	2061,771
627,6	2053,314
628,1	2049,571
628,5	2042,657
629	2030,686
629,4	2016,943
629,9	2007,114
630,3	1999,4
630,7	1989,571
631,2	1979,829
631,6	1969,257
632,1	1956,429
632,5	1948
633	1930,743
633,4	1917,057
633,8	1906,371
634,3	1897,029
634,7	1885,457
635,2	1872,371
635,6	1866,943
636,1	1862,314
636,5	1850,686
636,9	1841,114
637,4	1829,2
637,8	1815,286
638,3	1805,971
638,7	1792,8
639,2	1786,429
639,6	1779,629
640	1766
640,5	1754,571
640,9	1747,857
641,4	1739,886
641,8	1734
642,2	1724,857
642,7	1713,629
643,1	1711,171
643,6	1700,743
644	1696,257
644,5	1690,857
644,9	1679,8
645,3	1670,657
645,8	1663,771
646,2	1654,229
646,7	1650,286
647,1	1639,514
647,6	1634,943
648	1625,571
648,4	1614,6
648,9	1603,571
649,3	1593
649,8	1584,343
650,2	1568,943
650,6	1558,171
651,1	1556,514
651,5	1554,286
652	1553,086
652,4	1538,057
652,9	1534,514
653,3	1530,771
653,7	1522,571
654,2	1514,743
654,6	1499,143
655,1	1484,771
655,5	1481,057
655,9	1464,943
656,4	1460,714
656,8	1441
657,3	1420,229
657,7	1414,486
658,2	1407,857
658,6	1397,943
659	1389,8
659,5	1379,571
659,9	1377,857
660,4	1377,314
660,8	1370,971
661,2	1363,743
661,7	1355,686
662,1	1345,114
662,6	1333,657
663	1331,6
663,4	1321,486
663,9	1313,4
664,3	1302,4
664,8	1300,486
665,2	1295,857
665,6	1289,286
666,1	1275,6
666,5	1267,229
667	1255,6
667,4	1250,057
667,9	1239,486
668,3	1230,714
668,7	1223,429
669,2	1212,371
669,6	1203,486
670,1	1195,571
670,5	1185,629
670,9	1178,086
671,4	1170,343
671,8	1164,457
672,3	1162,086
672,7	1157,114
673,1	1150,8
673,6	1141,771
674	1132,886
674,5	1128,486
674,9	1113,2
675,3	1104,086
675,8	1094,314
676,2	1088,886
676,7	1084,571
677,1	1078,714
677,5	1071,8
678	1075,343
678,4	1071,429
678,9	1066,571
679,3	1054,2
679,7	1046,029
680,2	1039,571
680,6	1024,943
681,1	1012,314
681,5	1004,257
681,9	997,8
682,4	999,829
682,8	989,171
683,3	982,943
683,7	982,771
684,1	978,6
684,6	969,629
685	964,829
685,5	954,714
685,9	954,943
686,3	947,514
686,8	938,314
687,2	930,971
687,7	926,457
688,1	923,029
688,5	916,229
689	909,429
689,4	904,343
689,9	900,4
690,3	898,657
690,7	889,229
691,2	880,486
691,6	871,4
692	862,457
692,5	854,886
692,9	850,486
693,4	843,629
693,8	843,971
694,2	833,6
694,7	830,029
695,1	830,829
695,6	820,343
696	812,571
696,4	807,086
696,9	798,686
697,3	797,943
697,8	788,6
698,2	776,657
698,6	778,857
699,1	771,057
699,5	764,257
699,9	759,171
700,4	752,571
700,8	756,686
701,3	749,571
701,7	740,914
702,1	737,429
702,6	733,8
703	728,143
703,5	724,029
703,9	715,029
704,3	717,857
704,8	715,486
705,2	713,657
705,6	704,8
706,1	701,686
706,5	695,829
707	690,086
707,4	683,886
707,8	677,914
708,3	667,257
708,7	665,486
709,2	659,429
709,6	657,2
710	651,4
710,5	647,857
710,9	642,686
711,3	640,571
711,8	635,714
712,2	634,6
712,7	630,629
713,1	628
713,5	619,2
714	615,514
714,4	611,914
714,8	606,429
715,3	603,314
715,7	594,114
716,2	588,086
716,6	587,486
717	583,057
717,5	579,429
717,9	573,771
718,3	566,486
718,8	566,886
719,2	563,657
719,7	558,314
720,1	550,914
720,5	548,686
721	544,886
721,4	540,343
721,8	537,086
722,3	531,029
722,7	525,114
723,2	524,914
723,6	518,629
724	514,829
724,5	510,514
724,9	502,429
725,3	501,657
725,8	500,343
726,2	492,914
726,7	490,429
727,1	484,486
727,5	483,743
728	483,286
728,4	478,457
728,8	476,886
729,3	475,4
729,7	474,229
730,1	473,143
730,6	468,114
731	464,886
731,5	464,8
731,9	461,543
732,3	460,8
732,8	454,257
733,2	455,4
733,6	455,371
734,1	449,914
734,5	442,086
734,9	436,657
735,4	434,486
735,8	430,486
736,3	427,714
736,7	421,686
737,1	417,971
737,6	418,571
738	416,114
738,4	414,114
738,9	417,543
739,3	412,743
739,7	410,4
740,2	409,686
740,6	404,2
741,1	403,571
741,5	401,514
741,9	394,686
742,4	392,543
742,8	395,371
743,2	395,6
743,7	395,2
744,1	391,114
744,5	387,029
745	383,543
745,4	383,857
745,8	376,086
746,3	373,943
746,7	372,543
747,2	372,657
747,6	370,086
748	366,629
748,5	360,771
748,9	357,457
749,3	354,2
749,8	350,829
750,2	347,429
750,6	343,029
751,1	347,971
751,5	344,971
751,9	344,4
752,4	345,057
752,8	340,914
753,3	335,4
753,7	334,429
754,1	328,543
754,6	323,429
755	320,286
755,4	314,429
755,9	313,943
756,3	310,343
756,7	309,2
757,2	307,429
757,6	306,829
758	305,971
758,5	301,829
758,9	298,229
759,3	297,057
759,8	300,629
760,2	302,2
760,6	304,486
761,1	301,343
761,5	303,057
761,9	303,429
762,4	300,371
762,8	293,2
763,3	286,543
763,7	284,543
764,1	283,543
764,6	281,971
765	277,886
765,4	281,343
765,9	274,429
766,3	273,257
766,7	266,8
767,2	267,371
767,6	263,171
768	264,4
768,5	257,343
768,9	257
769,3	254,857
769,8	255,514
770,2	253,914
770,6	250,057
771,1	248,857
771,5	249,543
771,9	250,4
772,4	256,086
772,8	254,686
773,2	248,229
773,7	249,486
774,1	247,943
774,5	249,371
775	248,514
775,4	242,571
775,8	242,429
776,3	241,314
776,7	242,114
777,1	241,286
777,6	238,486
778	235,114
778,4	231,714
778,9	230,429
779,3	231,029
779,7	226,171
780,2	220,343
780,6	222,971
781	224,343
781,5	224,343
781,9	219
782,3	217,829
782,8	215,143
783,2	213,143
783,6	199,971
784,1	199,943
784,5	200,429
784,9	200,114
785,4	197,486
785,8	194,086
786,2	195,971
786,7	202,171
787,1	196,686
787,5	193,686
788	191,943
788,4	192,686
788,8	191,857
789,3	192,171
789,7	187,914
790,1	190,686
790,6	190,2
791	191,457
791,4	185,229
791,9	184,657
792,3	179,714
792,7	185,686
793,2	179,257
793,6	178,029
794	176,6
794,5	179,371
794,9	185,543
795,3	185,457
795,8	180,314
796,2	181,857
796,6	172,686
797,1	169,057
797,5	166,2
797,9	158,971
798,4	159,371
798,8	153,686
799,2	153,086
799,7	162,286
800,1	159,257
800,5	164,086
801	166,743
801,4	160,429
801,8	163,914
802,2	162,971
802,7	157,371
803,1	154,943
803,5	147,286
804	141,771
804,4	140,257
804,8	143,514
805,3	139,4
805,7	136,657
806,1	145,143
806,6	144,2
807	143,286
807,4	141,457
807,9	135,829
808,3	135,943
808,7	137,771
809,2	133,6
809,6	136,543
810	135,886
810,4	137,314
810,9	135,057
811,3	138
811,7	134,743
812,2	134,686
812,6	131,343
813	131,743
813,5	133
813,9	130,829
814,3	127,743
814,8	130,286
815,2	123,743
815,6	120,714
816,1	122,771
816,5	120,457
816,9	124,429
817,3	123,314
817,8	126,343
818,2	128,6
818,6	129,343
819,1	127,286
819,5	122,886
819,9	116,514
820,4	114,657
820,8	102,886
821,2	99,8
821,7	100
822,1	99
822,5	105,143
822,9	106,286
823,4	104,286
823,8	110,8
824,2	112,457
824,7	112,886
825,1	107,086
825,5	102,514
826	102,886
826,4	108,143
826,8	106,286
827,3	108,629
827,7	107,657
828,1	112,914
828,5	117,371
829	112,143
829,4	110,229
829,8	105,229
830,3	100,057
830,7	95,6
831,1	93,086
831,6	87,657
832	88,629
832,4	86,371
832,8	89,914
833,3	85,971
833,7	91,114
834,1	88,629
834,6	87,371
835	91,486
835,4	91
835,8	86,4
836,3	88,886
836,7	80,257
837,1	78,971
837,6	78,229
838	73,914
838,4	65,343
838,9	68,914
839,3	73,286
839,7	76,771
840,1	74,257
840,6	75,514
841	75,571
841,4	80,743
841,9	75,457
842,3	73,714
842,7	73,486
843,1	79,229
843,6	82,371
844	81,857
844,4	80,686
844,9	83,371
845,3	79,4
845,7	79,286
846,2	75,971
846,6	69,571
847	69,486
847,4	68,4
847,9	69,171
848,3	70,229
848,7	71,171
849,2	74,914
849,6	74,943
850	72,743
850,4	75,857
850,9	72,286
851,3	67,657
851,7	64,514
852,2	58,8
852,6	59,886
853	64,4
853,4	63,686
853,9	61,543
854,3	63,086
854,7	62,714
855,2	61,571
855,6	56,886
856	49,714
856,4	46,371
856,9	48
857,3	47,571
857,7	49,657
858,2	48,257
858,6	54,943
859	56,314
859,4	56,6
859,9	57,6
860,3	57,343
860,7	57,057
861,1	61,743
861,6	56,429
862	58,914
862,4	62,143
862,9	60
863,3	59,657
863,7	55,8
864,1	54,114
864,6	54,743
865	52,914
865,4	47,429
865,9	46,514
866,3	49,6
866,7	53,2
867,1	55,457
867,6	55,2
868	57,371
868,4	57,771
868,8	62,057
869,3	64,143
869,7	60
870,1	59,657
870,6	57,943
871	73
871,4	70,2
871,8	66,743
872,3	64,657
872,7	66,771
873,1	65,257
873,5	69,314
874	53,371
874,4	55,4
874,8	54,629
875,3	48,6
875,7	46,229
876,1	43,829
876,5	44,229
877	44,171
877,4	44,286
877,8	45,2
878,2	50,714
878,7	54,629
879,1	53,857
879,5	53,629
879,9	49,514
880,4	46,514
880,8	50,629
881,2	52,029
881,7	50,314
882,1	50,886
882,5	45,314
882,9	44,229
883,4	50,286
883,8	44,657
884,2	39,971
884,6	38,657
885,1	38,343
885,5	44,8
885,9	50,571
886,3	45,743
886,8	40,8
887,2	37,429
887,6	37,543
888	34,943
888,5	35,314
888,9	32,143
889,3	25,086
889,8	29,914
890,2	30,029
890,6	24,143
891	27,029
891,5	26,171
891,9	24,971
892,3	34,4
892,7	36,086
893,2	40,743
893,6	42,114
894	42,2
894,4	38,086
894,9	37,514
895,3	35,686
895,7	34,829
896,1	33,057
896,6	34,629
897	32,257
897,4	30,657
897,8	32,743
898,3	35,143
898,7	33,2
899,1	28,971
899,5	30,743
900	31,029
900,4	29,829
900,8	31,314
901,2	29,829
901,7	27,057
902,1	27,6
902,5	26,143
902,9	27,286
903,4	31,143
903,8	25,486
904,2	26,314
904,6	26,229
905,1	29,057
905,5	25,629
905,9	23,886
906,3	23,2
906,8	24,486
907,2	21,029
907,6	25,429
908	23,8
908,5	28,171
908,9	27,743
909,3	24,229
909,7	25,657
910,2	27,229
910,6	27,057
911	28,6
911,4	28,229
911,9	29,943
912,3	30,514
912,7	30,771
913,1	24,286
913,6	26,371
914	25,6
914,4	23,714
914,8	21,743
915,3	21,514
915,7	16,714
916,1	21,686
916,5	18,057
916,9	17
917,4	19,6
917,8	17
918,2	19,286
918,6	19,257
919,1	22,371
919,5	22,571
919,9	24,857
920,3	25,086
920,8	27,8
921,2	27,886
921,6	26,2
922	23,543
922,5	25,286
922,9	23
923,3	22,743
923,7	21,2
924,2	17,429
924,6	20,171
925	19,114
925,4	17,914
925,8	16,6
926,3	15,229
926,7	17,486
927,1	23,086
927,5	22,943
928	21,6
928,4	18,857
928,8	25,657
929,2	29,029
929,7	24,914
930,1	23,114
930,5	22,286
930,9	25,714
931,3	28,371
931,8	23,057
932,2	18,143
932,6	21,343
933	17,543
933,5	17,943
933,9	19,429
934,3	19,2
934,7	21,943
935,2	23,629
935,6	25,057
936	22,429
936,4	22,886
936,8	20,171
937,3	18,943
937,7	19,343
938,1	16
938,5	15,257
939	22,457
939,4	25,6
939,8	30,714
940,2	28,629
940,6	23,886
941,1	30,343
941,5	32,343
941,9	32,057
942,3	27,571
942,8	23,6
943,2	23,943
943,6	27,857
944	22,429
944,4	16,6
944,9	12,429
945,3	19,229
945,7	19,114
946,1	20,743
946,6	16,171
947	18,543
947,4	18,543
947,8	21,2
948,2	17,771
948,7	16,114
949,1	14,743
949,5	20,229
949,9	22
950,3	23,2
950,8	22,4
951,2	20,486
951,6	24,086
952	23,257
952,5	20
952,9	13,286
953,3	12,543
953,7	13,171
954,1	14,6
954,6	14,4
955	14,057
955,4	13,371
955,8	20,714
956,2	21,686
956,7	19,371
957,1	18,6
957,5	17,057
957,9	18,229
958,3	20,429
958,8	14,886
959,2	13,171
959,6	16,171
960	17,257
960,5	16,343
960,9	21,029
961,3	15,486
961,7	15,314
962,1	17,714
962,6	14,057
963	10,143
963,4	14,714
963,8	13,486
964,2	15,514
964,7	17,457
965,1	19,714
965,5	20,429
965,9	22,971
966,3	14,514
966,8	11,629
967,2	11
967,6	9,629
968	7,8
968,4	12,229
968,9	18,8
969,3	20,343
969,7	20,057
970,1	22,543
970,5	23,286
971	18,314
971,4	14,2
971,8	8,429
972,2	9,171
972,6	8,771
973,1	11,257
973,5	12,171
973,9	15,171
974,3	15,829
974,7	17,4
975,2	17,429
975,6	13,6
976	12,429
976,4	12,143
976,8	13,943
977,3	14,943
977,7	15,6
978,1	17,886
978,5	25,314
978,9	20,771
979,4	19,629
979,8	20,486
980,2	17,086
980,6	12,143
981	12,429
981,5	6,057
981,9	11,686
982,3	6,943
982,7	5,314
983,1	9,343
983,6	8,143
984	7,371
984,4	13,2
984,8	11,886
985,2	18,886
985,6	20,6
986,1	17,286
986,5	17,629
986,9	16,886
987,3	13,886
987,7	12
988,2	13,057
988,6	15,171
989	17,229
989,4	23
989,8	24,229
990,3	27,514
990,7	26
991,1	22,714
991,5	18,371
991,9	20,314
992,3	16,114
992,8	17,229
993,2	15,629
993,6	17,429
994	15,771
994,4	15,686
994,9	14,771
995,3	15,6
995,7	12,571
996,1	8,743
996,5	3,2
996,9	4,286
997,4	4,343
997,8	5,114
998,2	4,314
998,6	4,8
999	10,057
999,5	14,057
999,9	17,686
1000,3	22,714
1000,7	20,2
1001,1	19,714
1001,5	18,8
1002	14,457
1002,4	14,257
1002,8	13,629
1003,2	10,571
1003,6	15,371
1004	17,371
1004,5	15,057
1004,9	19,6
1005,3	19,057
1005,7	16,314
1006,1	15,971
1006,6	12,8
1007	13,286
1007,4	16,686
1007,8	11,229
1008,2	11,457
1008,6	9,229
1009,1	5,686
1009,5	8,857
1009,9	10,943
1010,3	10,6
1010,7	17,8
1011,1	20,314
1011,6	22,114
1012	22,229
1012,4	23,857
1012,8	15,4
1013,2	18,6
1013,6	14,114
1014,1	14,6
1014,5	16,886
1014,9	22
1015,3	17,429
1015,7	17,486
1016,1	14,743
1016,6	16
1017	14,743
1017,4	12,857
1017,8	9,086
1018,2	7,8
1018,6	17,257
1019,1	15,886
1019,5	16,629
1019,9	21,571
1020,3	17,943
1020,7	16,714
1021,1	19,371
1021,6	10,686
1022	8,971
1022,4	12,6
1022,8	8,543
1023,2	12,343
1023,6	12,314
1024,1	16,143
1024,5	19,314
1024,9	22,857
1025,3	19
1025,7	21,229
1026,1	23,286
1026,6	28,886
1027	21,257
1027,4	21,229
1027,8	16,714
1028,2	15,257
1028,6	13,6
1029	7,857
1029,5	4,429
1029,9	3,143
1030,3	7,171
1030,7	10,4
1031,1	4,829
1031,5	2,457
1032	9,543
1032,4	8,086
1032,8	10,571
1033,2	8,343
1033,6	11
1034	19,543
1034,4	24,057
1034,9	16,943
1035,3	22,886
1035,7	25,029
1036,1	25,057
1036,5	18,429
1036,9	14,029
1037,4	13,914
1037,8	20,857
1038,2	12,914
1038,6	5,857
1039	2,086
1039,4	8,086
1039,8	4,143
1040,3	1,457
1040,7	-4,429
1041,1	1,343
1041,5	5,429
1041,9	10,314
1042,3	9,371
1042,7	16,086
1043,2	18,686
1043,6	24,857
1044	20,971
1044,4	20,257
1044,8	14,371
1045,2	15,829
1045,6	19,229
1046,1	20,629
1046,5	20,686
1046,9	23,629
1047,3	24
1047,7	28,857
1048,1	24,457
1048,5	19
1049	16,571
1049,4	15,429
1049,8	15,429
1050,2	17,886
1050,6	20,114
1051	22,4
1051,4	20,229
1051,9	23,457
1052,3	18,371
1052,7	14,971
1053,1	16,857
1053,5	16,4
1053,9	16,171
1054,3	16,829
1054,8	16,971
1055,2	20,8
1055,6	23,257
1056	19,571
1056,4	17,886
1056,8	21,4
1057,2	23,486
1057,6	16,257
1058,1	19,429
1058,5	17,457
1058,9	18,914
1059,3	21,971
1059,7	15,686
1060,1	14,029
1060,5	13,429
1061	9,371
1061,4	13,914
1061,8	9,114
1062,2	2,629
1062,6	4,171
1063	3,629
1063,4	5,943
1063,8	5,429
1064,3	0,343
1064,7	2,514
1065,1	5,971
1065,5	4,2
1065,9	5,571
1066,3	4,771
1066,7	5,857
1067,1	6,714
1067,6	9,114
1068	10,029
1068,4	14,943
1068,8	15,2
1069,2	18,457
1069,6	19,371
1070	22,943
1070,4	20,086
1070,9	19,143
1071,3	16,314
1071,7	16,914
1072,1	17,086
1072,5	17,686
1072,9	20,543
1073,3	21,057
1073,7	18,2
1074,2	22,8
1074,6	21,8
1075	19,571
1075,4	21,2
1075,8	16,514
1076,2	16,257
1076,6	18,4
1077	12,971
1077,5	14,743
1077,9	14,457
1078,3	12,114
1078,7	12,371
1079,1	15,229
1079,5	15,086
1079,9	18,657
1080,3	18,743
1080,7	19,943
1081,2	17,486
1081,6	18,771
1082	18,286
1082,4	18,571
1082,8	14,143
1083,2	10,8
1083,6	9,829
1084	9,429
1084,5	4,543
1084,9	3,657
1085,3	3,543
1085,7	3,543
1086,1	2,486
1086,5	5,886
1086,9	8,2
1087,3	11,457
1087,7	16,4
1088,2	13,771
1088,6	16,257
1089	16,886
1089,4	12,829
1089,8	16,971
1090,2	17,086
1090,6	11,8
1091	16,743
1091,4	19,971
1091,9	25,286
1092,3	26,543
1092,7	20,914
1093,1	18,571
1093,5	17,914
1093,9	18,543
1094,3	18,886
1094,7	14,6
1095,1	16,857
1095,5	16,143
1096	13,229
1096,4	16,371
1096,8	13,8
1097,2	11,229
1097,6	11,857
1098	7,286
1098,4	8,686
1098,8	17,314
1099,2	14,486
1099,6	14,886
1100,1	14,657
1100,5	13,514
1100,9	15
1101,3	13,914
1101,7	12,8
1102,1	14,4
1102,5	14,286
1102,9	10,343
1103,3	12,629
1103,7	12,057
1104,2	13,286
1104,6	12,4
1105	11,914
1105,4	9,8
1105,8	11,714
1106,2	9,229
1106,6	7,4
1107	5,6
1107,4	2,3
1107,8	0,12
1108,3	-0,1
