Data from Subt2_131.txt Node
Date: Sat Aug 26 18:26:38 MSK 2023
User: vat
Spectrometer: MAYP114033
Trigger mode: 0
Integration Time (sec): 1,000000E0
Scans to average: 5
Electric dark correction enabled: true
Nonlinearity correction enabled: false
Boxcar width: 3
XAxis mode: Wavelengths
Number of Pixels in Spectrum: 2068
>>>>>Begin Spectral Data<<<<<
199,4	-1,183
199,9	-1,313
200,4	-2,233
200,8	-0,719
201,3	-1,433
201,8	-1,69
202,2	-3,719
202,7	1,538
203,2	0,852
203,6	1,51
204,1	-2,348
204,6	-1,262
205	2,138
205,5	4,252
206	-2,262
206,4	-4,262
206,9	-4,948
207,4	0,738
207,8	-0,29
208,3	-3,29
208,8	-4,319
209,2	-3,033
209,7	-0,576
210,2	0,824
210,6	-3,233
211,1	-1,976
211,5	-7,033
212	-7,233
212,5	-8,576
212,9	-7,662
213,4	-7,205
213,9	-5,348
214,3	-4,605
214,8	1,824
215,3	2,795
215,7	7,138
216,2	6,367
216,7	7,91
217,1	6,824
217,6	7,938
218,1	6,824
218,5	6,024
219	-3,148
219,5	0,824
219,9	-5,948
220,4	1,281
220,9	-1,605
221,3	-1,948
221,8	-1,348
222,3	6,281
222,7	5,195
223,2	8,424
223,6	0,738
224,1	0,424
224,6	0,567
225	-3,548
225,5	-1,948
226	-4,262
226,4	-1,376
226,9	-1,348
227,4	-1,319
227,8	-3,633
228,3	-0,376
228,8	-4,776
229,2	-8,09
229,7	-9,233
230,2	-8,748
230,6	-6,748
231,1	-1,89
231,5	0,824
232	2,795
232,5	2,824
232,9	2,795
233,4	6,11
233,9	5,452
234,3	3,367
234,8	2,11
235,3	-0,033
235,7	5,567
236,2	3,51
236,7	-0,033
237,1	4,31
237,6	2,252
238,1	1,31
238,5	0,852
239	-0,405
239,4	5,852
239,9	3,024
240,4	-1,919
240,8	3,195
241,3	-0,89
241,8	-0,576
242,2	-6,205
242,7	-11,89
243,2	-6,748
243,6	-8,719
244,1	-8,205
244,6	-3,919
245	-3,862
245,5	1,31
245,9	-2,576
246,4	-5,176
246,9	-0,919
247,3	-4,319
247,8	-2,719
248,3	1,595
248,7	0,052
249,2	7,395
249,7	8,452
250,1	10,11
250,6	11,767
251	12,881
251,5	8,852
252	9,738
252,4	6,795
252,9	3,538
253,4	-4,233
253,8	-11,005
254,3	-13,233
254,8	-11,148
255,2	-17,176
255,7	-19,462
256,1	-14,433
256,6	-7,033
257,1	-0,948
257,5	-3,233
258	-4,319
258,5	1,481
258,9	3,138
259,4	2,052
259,9	1,424
260,3	-3,748
260,8	-4,662
261,2	-2,805
261,7	0,995
262,2	-1,633
262,6	-3,548
263,1	-3,148
263,6	-1,148
264	4,881
264,5	5,595
264,9	1,681
265,4	8,624
265,9	7,395
266,3	6,51
266,8	12,224
267,3	6,51
267,7	5,024
268,2	3,738
268,7	2,395
269,1	4,167
269,6	0,938
270	-1,633
270,5	-4,662
271	-6,062
271,4	-3,119
271,9	-10,576
272,4	-6,376
272,8	-3,919
273,3	-5,776
273,7	0,167
274,2	-2,662
274,7	-4,548
275,1	4,052
275,6	2,367
276,1	-3,605
276,5	-0,948
277	-0,09
277,4	1,824
277,9	4,938
278,4	2,395
278,8	2,31
279,3	9,481
279,8	8,252
280,2	8,681
280,7	11,024
281,1	5,395
281,6	6,367
282,1	9,395
282,5	4,367
283	6,224
283,4	3,995
283,9	5,567
284,4	10,395
284,8	8,424
285,3	2,881
285,8	5,224
286,2	0,852
286,7	0,31
287,1	-5,433
287,6	-9,205
288,1	-13,49
288,5	-13,319
289	-15,719
289,5	-13,719
289,9	-14,69
290,4	-9,09
290,8	-6,976
291,3	-0,633
291,8	0,395
292,2	1,167
292,7	2,595
293,1	3,595
293,6	0,767
294,1	4,052
294,5	2,367
295	5,252
295,5	5,91
295,9	7,167
296,4	5,052
296,8	2,31
297,3	-1,09
297,8	-5,548
298,2	-10,433
298,7	-4,748
299,1	-4,605
299,6	-6,005
300,1	0,338
300,5	2,967
301	8,31
301,5	14,852
301,9	10,338
302,4	6,281
302,8	11,452
303,3	9,052
303,8	3,567
304,2	3,795
304,7	1,31
305,1	-1,805
305,6	0,11
306,1	4,795
306,5	3,338
307	8,824
307,4	9,824
307,9	8,881
308,4	9,138
308,8	6,11
309,3	-0,462
309,8	1,281
310,2	0,767
310,7	-5,833
311,1	-6,862
311,6	-6,348
312,1	-5,519
312,5	-3,262
313	-7,405
313,4	-10,805
313,9	-5,433
314,4	-6,69
314,8	-8,205
315,3	-9,033
315,7	-11,948
316,2	-9,09
316,7	-9,748
317,1	-4,119
317,6	-2,462
318	4,338
318,5	3,11
319	5,567
319,4	7,31
319,9	12,338
320,3	6,052
320,8	1,91
321,3	0,195
321,7	6,624
322,2	8,452
322,6	10,967
323,1	8,538
323,6	5,338
324	5,738
324,5	4,624
324,9	2,224
325,4	-2,233
325,9	-2,833
326,3	-1,49
326,8	3,624
327,2	5,167
327,7	5,424
328,2	3,481
328,6	8,024
329,1	0,71
329,5	1,281
330	-0,776
330,5	2,224
330,9	3,624
331,4	6,681
331,8	2,824
332,3	6,624
332,8	5,481
333,2	5,452
333,7	6,195
334,1	6,51
334,6	-0,319
335,1	-4,262
335,5	-3,148
336	-9,29
336,4	-5,833
336,9	-5,319
337,4	-4,919
337,8	0,024
338,3	5,595
338,7	9,881
339,2	12,167
339,7	11,738
340,1	6,052
340,6	5,652
341	3,538
341,5	3,367
342	0,71
342,4	1,11
342,9	-3,005
343,3	-0,462
343,8	-1,605
344,2	-0,576
344,7	4,567
345,2	3,938
345,6	4,91
346,1	7,024
346,5	5,681
347	2,995
347,5	1,138
347,9	1,31
348,4	-0,433
348,8	1,738
349,3	3,11
349,8	8,995
350,2	13,538
350,7	14,424
351,1	11,195
351,6	15,824
352	18,767
352,5	19,938
353	25,367
353,4	31,681
353,9	45,595
354,3	56,452
354,8	67,167
355,3	88,767
355,7	108,91
356,2	128,91
356,6	156,024
357,1	182,338
357,5	214,652
358	252,224
358,5	287,224
358,9	331,224
359,4	383,424
359,8	441,967
360,3	512,681
360,8	582,767
361,2	667,738
361,7	757,795
362,1	865,281
362,6	977,138
363	1094,995
363,5	1216,567
364	1355,367
364,4	1490,795
364,9	1627,824
365,3	1756,652
365,8	1879,567
366,3	1999,024
366,7	2111,224
367,2	2204,681
367,6	2279,738
368,1	2345,31
368,5	2383,681
369	2406,967
369,5	2409,624
369,9	2387,824
370,4	2352,338
370,8	2302,595
371,3	2229,624
371,7	2150,538
372,2	2059,138
372,7	1960,367
373,1	1857,71
373,6	1744,51
374	1634,11
374,5	1523,595
374,9	1421,51
375,4	1316,567
375,9	1215,11
376,3	1116,595
376,8	1029,481
377,2	947,338
377,7	874,252
378,2	796,795
378,6	733,367
379,1	673,852
379,5	623,767
380	578,652
380,4	527,138
380,9	478,881
381,4	439,281
381,8	404,11
382,3	377,624
382,7	348,167
383,2	321,167
383,6	301,824
384,1	282,938
384,6	268,795
385	252,567
385,5	227,595
385,9	213,538
386,4	195,367
386,8	181,424
387,3	168,138
387,7	157,052
388,2	145,081
388,7	136,024
389,1	125,71
389,6	114,91
390	107,11
390,5	106,081
390,9	99,252
391,4	94,31
391,9	89,738
392,3	82,824
392,8	75,795
393,2	69,852
393,7	65,052
394,1	59,51
394,6	52,967
395,1	54,595
395,5	50,538
396	53,224
396,4	54,367
396,9	48,195
397,3	52,281
397,8	52,91
398,2	46,338
398,7	47,395
399,2	46,624
399,6	41,11
400,1	40,995
400,5	31,567
401	35,052
401,4	33,338
401,9	34,452
402,4	36,338
402,8	35,395
403,3	39,31
403,7	42,995
404,2	40,795
404,6	44,71
405,1	40,995
405,5	38,338
406	43,081
406,5	39,252
406,9	44,252
407,4	43,11
407,8	45,652
408,3	52,824
408,7	54,338
409,2	57,31
409,6	65,681
410,1	72,367
410,6	78,481
411	84,51
411,5	91,395
411,9	101,024
412,4	105,138
412,8	112,681
413,3	113,281
413,7	118,624
414,2	121,167
414,7	126,881
415,1	138,338
415,6	150,31
416	157,881
416,5	170,252
416,9	176,795
417,4	188,51
417,8	203,852
418,3	214,595
418,8	223,367
419,2	235,024
419,7	239,595
420,1	255,281
420,6	270,91
421	277,252
421,5	291,881
421,9	308,024
422,4	326,138
422,8	349,11
423,3	365,995
423,8	378,424
424,2	397,481
424,7	413,138
425,1	433,624
425,6	452,652
426	472,624
426,5	504,31
426,9	536,31
427,4	556,395
427,9	578,595
428,3	609,367
428,8	638,71
429,2	671,424
429,7	696,167
430,1	723,452
430,6	765,624
431	803,824
431,5	839,91
431,9	875,824
432,4	921,395
432,8	974,338
433,3	1027,967
433,8	1077,395
434,2	1136,167
434,7	1194,395
435,1	1254,51
435,6	1316,938
436	1377,652
436,5	1446,395
436,9	1515,424
437,4	1585,767
437,8	1665,167
438,3	1747,138
438,8	1825,795
439,2	1913,652
439,7	1999,338
440,1	2090,167
440,6	2191,081
441	2280,824
441,5	2378,195
441,9	2478,767
442,4	2577,881
442,8	2688,795
443,3	2806,824
443,7	2917,995
444,2	3043,767
444,7	3167,967
445,1	3302,51
445,6	3429,424
446	3564,681
446,5	3694,652
446,9	3834,052
447,4	3980,224
447,8	4131,795
448,3	4288,367
448,7	4450,538
449,2	4608,824
449,6	4779,767
450,1	4951,167
450,6	5117,652
451	5286,167
451,5	5451,338
451,9	5638,052
452,4	5829,51
452,8	6008,252
453,3	6203,367
453,7	6398,881
454,2	6597,652
454,6	6802,624
455,1	7000,852
455,5	7185,938
456	7394,081
456,4	7595,224
456,9	7809,138
457,3	8026,538
457,8	8232,624
458,3	8442,624
458,7	8668,51
459,2	8897,824
459,6	9120,195
460,1	9347,395
460,5	9564,138
461	9795,652
461,4	10027,224
461,9	10252,481
462,3	10486,138
462,8	10716,052
463,2	10933,995
463,7	11168,71
464,1	11396,367
464,6	11637,052
465	11876,481
465,5	12095,881
466	12313,51
466,4	12546,224
466,9	12775,71
467,3	12999,452
467,8	13209,51
468,2	13430,795
468,7	13643,31
469,1	13867,538
469,6	14075,395
470	14287,138
470,5	14496,11
470,9	14707,852
471,4	14909,367
471,8	15125,024
472,3	15328,995
472,7	15527,595
473,2	15709,081
473,6	15902,938
474,1	16089,367
474,5	16271,024
475	16449,31
475,4	16631,167
475,9	16809,738
476,4	16992,424
476,8	17157,281
477,3	17318,881
477,7	17482,824
478,2	17611,738
478,6	17748,652
479,1	17881,852
479,5	18013,024
480	18131,252
480,4	18250,424
480,9	18355,024
481,3	18474,424
481,8	18573,824
482,2	18680,481
482,7	18769,881
483,1	18873,081
483,6	18961,338
484	19038,052
484,5	19109,852
484,9	19185,224
485,4	19239,11
485,8	19289,081
486,3	19329,995
486,7	19370,11
487,2	19417,652
487,6	19446,052
488,1	19452,538
488,5	19468,081
489	19490,795
489,4	19498,538
489,9	19486,881
490,4	19475,567
490,8	19473,938
491,3	19472,595
491,7	19460,281
492,2	19424,938
492,6	19387,195
493,1	19346,852
493,5	19305,652
494	19261,224
494,4	19205,481
494,9	19136,11
495,3	19084,51
495,8	19031,681
496,2	18970,567
496,7	18894,681
497,1	18829,081
497,6	18752,795
498	18687,167
498,5	18605,681
498,9	18518,081
499,4	18451,567
499,8	18374,538
500,3	18280,681
500,7	18194,852
501,2	18098,167
501,6	17996,11
502,1	17893,967
502,5	17786,195
503	17677,31
503,4	17565,338
503,9	17456,424
504,3	17346,281
504,8	17240,881
505,2	17134,881
505,7	17014,624
506,1	16912,652
506,6	16794,481
507	16669,51
507,5	16535,424
507,9	16413,795
508,4	16283,567
508,8	16150,138
509,3	15990,395
509,7	15860,595
510,2	15739,967
510,6	15614,138
511,1	15476,995
511,5	15347,967
512	15218,967
512,4	15099,367
512,9	14954,738
513,3	14812,452
513,8	14676,167
514,2	14525,795
514,7	14381,852
515,1	14233,281
515,6	14085,681
516	13948,081
516,5	13800,452
516,9	13661,31
517,4	13531,481
517,8	13392,195
518,3	13262,395
518,7	13127,31
519,2	12993,652
519,6	12859,052
520,1	12721,681
520,5	12589,052
521	12444,31
521,4	12305,967
521,9	12174,338
522,3	12037,738
522,8	11903,452
523,2	11778,91
523,7	11646,024
524,1	11522,052
524,6	11393,024
525	11264,138
525,5	11132,881
525,9	11007,652
526,4	10871,452
526,8	10746,452
527,3	10628,881
527,7	10512,281
528,2	10390,595
528,6	10283,881
529,1	10174,51
529,5	10066,51
530	9956,652
530,4	9841,424
530,9	9722,167
531,3	9611,967
531,8	9497,195
532,2	9376,995
532,6	9269,567
533,1	9161,11
533,5	9062,852
534	8960,481
534,4	8860,852
534,9	8755,795
535,3	8662,852
535,8	8556,11
536,2	8461,624
536,7	8361,338
537,1	8273,767
537,6	8176,995
538	8091,424
538,5	7997,538
538,9	7902,795
539,4	7811,852
539,8	7719,424
540,3	7632,367
540,7	7553,052
541,2	7460,681
541,6	7375,052
542,1	7304,824
542,5	7211,167
543	7130,967
543,4	7049,71
543,9	6966,795
544,3	6897,052
544,8	6820,938
545,2	6749,51
545,7	6685,481
546,1	6623,052
546,5	6550,224
547	6482,652
547,4	6412,91
547,9	6351,024
548,3	6285,538
548,8	6220,395
549,2	6146,595
549,7	6076,824
550,1	6017,567
550,6	5949,624
551	5881,795
551,5	5816,71
551,9	5754,767
552,4	5694,881
552,8	5650,452
553,3	5587,052
553,7	5529,624
554,2	5476,195
554,6	5417,51
555,1	5363,767
555,5	5316,138
555,9	5261,738
556,4	5214,252
556,8	5168,452
557,3	5118,281
557,7	5070,281
558,2	5023,852
558,6	4976,224
559,1	4925,995
559,5	4868,024
560	4822,795
560,4	4781,167
560,9	4734,195
561,3	4684,738
561,8	4638,51
562,2	4595,252
562,7	4559,052
563,1	4522,167
563,6	4480,11
564	4439,938
564,4	4397,195
564,9	4349,081
565,3	4304,824
565,8	4257,91
566,2	4213,995
566,7	4177,024
567,1	4140,167
567,6	4106,081
568	4076,052
568,5	4037,595
568,9	4011,081
569,4	3981,567
569,8	3947,024
570,3	3905,452
570,7	3870,881
571,1	3837,51
571,6	3816,31
572	3784,195
572,5	3750,395
572,9	3713,624
573,4	3684,367
573,8	3658,967
574,3	3621,595
574,7	3582,224
575,2	3552,138
575,6	3514,624
576,1	3490,881
576,5	3466,71
576,9	3432,624
577,4	3408,538
577,8	3375,052
578,3	3342,71
578,7	3315,824
579,2	3286,338
579,6	3254,51
580,1	3230,252
580,5	3205,767
581	3182,281
581,4	3161,367
581,9	3136,881
582,3	3107,195
582,7	3084,424
583,2	3054,767
583,6	3026,938
584,1	3004,795
584,5	2975,395
585	2946,881
585,4	2924,681
585,9	2899,367
586,3	2875,624
586,8	2854,024
587,2	2832,138
587,6	2817,024
588,1	2801,481
588,5	2778,852
589	2760,31
589,4	2740,624
589,9	2718,681
590,3	2693,91
590,8	2664,338
591,2	2642,567
591,7	2630,052
592,1	2611,995
592,5	2597,395
593	2583,481
593,4	2568,624
593,9	2548,538
594,3	2530,538
594,8	2506,795
595,2	2482,767
595,7	2463,338
596,1	2438,081
596,6	2416,824
597	2408,138
597,4	2390,138
597,9	2372,452
598,3	2363,538
598,8	2346,252
599,2	2335,681
599,7	2322,938
600,1	2306,452
600,6	2291,452
601	2278,024
601,4	2269,424
601,9	2256,31
602,3	2241,595
602,8	2227,281
603,2	2209,167
603,7	2197,052
604,1	2183,852
604,6	2163,31
605	2147,51
605,4	2134,567
605,9	2117,395
606,3	2101,224
606,8	2079,767
607,2	2061,852
607,7	2040,624
608,1	2025,595
608,6	2013,967
609	2009,395
609,4	2000,538
609,9	1994,652
610,3	1984,024
610,8	1978,681
611,2	1965,767
611,7	1948,338
612,1	1925,967
612,6	1909,824
613	1900,538
613,4	1889,338
613,9	1873,224
614,3	1854,881
614,8	1845,824
615,2	1834,51
615,7	1823,624
616,1	1806,481
616,6	1785,995
617	1772,081
617,4	1762,11
617,9	1748,767
618,3	1735,538
618,8	1722,852
619,2	1712,338
619,7	1712,395
620,1	1697,624
620,5	1689,452
621	1673,595
621,4	1668,852
621,9	1659,852
622,3	1643,281
622,8	1624,11
623,2	1618,452
623,6	1607,738
624,1	1603,767
624,5	1588,11
625	1578,938
625,4	1576,081
625,9	1569,31
626,3	1554,024
626,8	1545,681
627,2	1534,167
627,6	1516,252
628,1	1499,91
628,5	1486,224
629	1469,938
629,4	1462,795
629,9	1451,738
630,3	1434,738
630,7	1429,195
631,2	1420,167
631,6	1409,11
632,1	1400,424
632,5	1386,395
633	1375,938
633,4	1365,71
633,8	1359,367
634,3	1350,595
634,7	1345,995
635,2	1332,367
635,6	1330,538
636,1	1317,081
636,5	1308,224
636,9	1293,138
637,4	1281,881
637,8	1261,567
638,3	1250,452
638,7	1233,081
639,2	1223,681
639,6	1215,71
640	1208,91
640,5	1199,481
640,9	1191,367
641,4	1187,881
641,8	1188,824
642,2	1185,595
642,7	1181,91
643,1	1180,424
643,6	1177,852
644	1171,767
644,5	1168,252
644,9	1158,481
645,3	1149,938
645,8	1137,967
646,2	1130,367
646,7	1119,51
647,1	1114,652
647,6	1111,481
648	1102,51
648,4	1092,51
648,9	1090,567
649,3	1078,195
649,8	1076,281
650,2	1068,538
650,6	1056,938
651,1	1050,681
651,5	1051,11
652	1042,452
652,4	1036,652
652,9	1025,224
653,3	1017,224
653,7	1011,795
654,2	1005,195
654,6	990,138
655,1	981,052
655,5	980,567
655,9	975,738
656,4	969,51
656,8	959,11
657,3	953,881
657,7	953,052
658,2	949,252
658,6	931,31
659	929,052
659,5	923,11
659,9	915,538
660,4	905,567
660,8	892,224
661,2	878,795
661,7	881,567
662,1	869,452
662,6	862,452
663	862,452
663,4	855,567
663,9	858,252
664,3	855,252
664,8	845,167
665,2	836,767
665,6	829,824
666,1	820,252
666,5	816,967
667	807,938
667,4	800,367
667,9	791,452
668,3	787,71
668,7	784,824
669,2	783,967
669,6	779,281
670,1	769,395
670,5	763,881
670,9	762,395
671,4	755,938
671,8	752,71
672,3	744,91
672,7	737,738
673,1	732,224
673,6	724,452
674	720,51
674,5	716,081
674,9	703,11
675,3	695,71
675,8	690,367
676,2	688,51
676,7	684,31
677,1	679,738
677,5	675,367
678	675,081
678,4	676,481
678,9	668,452
679,3	664,681
679,7	663,938
680,2	650,624
680,6	644,281
681,1	640,31
681,5	633,767
681,9	634,681
682,4	630,91
682,8	626,452
683,3	627,738
683,7	627,195
684,1	619,795
684,6	607,738
685	598,31
685,5	590,538
685,9	584,852
686,3	579,652
686,8	570,567
687,2	569,938
687,7	569,852
688,1	563,424
688,5	562,252
689	562,824
689,4	560,91
689,9	558,481
690,3	549,852
690,7	547,624
691,2	547,881
691,6	543,452
692	537,938
692,5	533,195
692,9	532,481
693,4	530,738
693,8	526,167
694,2	518,281
694,7	513,567
695,1	507,567
695,6	505,624
696	500,652
696,4	496,824
696,9	489,195
697,3	485,795
697,8	481,367
698,2	482,367
698,6	481,91
699,1	480,824
699,5	481,738
699,9	478,11
700,4	478,652
700,8	478,995
701,3	472,167
701,7	459,281
702,1	449,195
702,6	443,11
703	443,138
703,5	435,852
703,9	431,167
704,3	427,167
704,8	428,224
705,2	426,595
705,6	423,195
706,1	416,738
706,5	416,395
707	413,967
707,4	414,595
707,8	410,052
708,3	408,481
708,7	403,767
709,2	401,138
709,6	399,538
710	398,652
710,5	388,424
710,9	388,367
711,3	385,024
711,8	385,995
712,2	387,71
712,7	385,881
713,1	382,138
713,5	383,681
714	381,595
714,4	376,167
714,8	374,995
715,3	371,31
715,7	367,11
716,2	362,681
716,6	359,31
717	352,795
717,5	350,71
717,9	347,081
718,3	338,767
718,8	337,567
719,2	333,052
719,7	330,967
720,1	333,852
720,5	336,138
721	330,024
721,4	330,167
721,8	331,395
722,3	327,824
722,7	328,452
723,2	318,024
723,6	307,395
724	305,795
724,5	302,481
724,9	295,338
725,3	293,51
725,8	286,538
726,2	286,024
726,7	286,424
727,1	284,452
727,5	286,452
728	278,938
728,4	277,195
728,8	277,681
729,3	277,852
729,7	275,081
730,1	274,052
730,6	269,081
731	272,452
731,5	269,51
731,9	263,195
732,3	261,652
732,8	267,938
733,2	262,567
733,6	263,938
734,1	259,252
734,5	261,024
734,9	267,881
735,4	267,367
735,8	255,081
736,3	262,624
736,7	257,167
737,1	257,195
737,6	251,31
738	244,652
738,4	236,624
738,9	242,367
739,3	236,995
739,7	235,11
740,2	231,824
740,6	235,11
741,1	234,338
741,5	236,795
741,9	229,51
742,4	226,624
742,8	225,395
743,2	229,824
743,7	222,681
744,1	218,881
744,5	216,995
745	220,138
745,4	217,252
745,8	214,138
746,3	206,71
746,7	206,681
747,2	209,052
747,6	213,281
748	214,567
748,5	217,052
748,9	217,51
749,3	215,138
749,8	215,195
750,2	211,595
750,6	204,138
751,1	204,824
751,5	202,824
751,9	201,138
752,4	203,681
752,8	203,338
753,3	199,11
753,7	203,995
754,1	198,795
754,6	193,51
755	191,881
755,4	190,395
755,9	185,767
756,3	185,167
756,7	180,167
757,2	175,081
757,6	173,338
758	172,11
758,5	170,567
758,9	169,795
759,3	172,967
759,8	171,881
760,2	174,738
760,6	175,538
761,1	174,11
761,5	171,995
761,9	168,567
762,4	164,652
762,8	164,738
763,3	159,481
763,7	159,11
764,1	160,252
764,6	164,395
765	167,052
765,4	166,224
765,9	165,652
766,3	170,967
766,7	168,538
767,2	166,281
767,6	164,052
768	165,195
768,5	163,51
768,9	159,967
769,3	157,567
769,8	153,652
770,2	155,224
770,6	152,024
771,1	149,795
771,5	148,195
771,9	151,967
772,4	151,081
772,8	151,11
773,2	151,081
773,7	146,481
774,1	144,367
774,5	141,024
775	137,424
775,4	137,167
775,8	136,852
776,3	134,767
776,7	136,767
777,1	135,852
777,6	140,281
778	143,167
778,4	137,767
778,9	136,567
779,3	132,052
779,7	132,652
780,2	135,081
780,6	136,652
781	127,967
781,5	127,481
781,9	128,224
782,3	127,624
782,8	123,024
783,2	116,71
783,6	112,852
784,1	114,024
784,5	112,081
784,9	110,338
785,4	113,995
785,8	121,224
786,2	126,738
786,7	122,938
787,1	122,767
787,5	124,424
788	123,138
788,4	119,338
788,8	113,481
789,3	108,71
789,7	113,052
790,1	110,91
790,6	114,71
791	114,995
791,4	116,424
791,9	115,995
792,3	111,138
792,7	114,995
793,2	111,91
793,6	108,11
794	111,852
794,5	107,024
794,9	105,881
795,3	110,31
795,8	103,052
796,2	107,195
796,6	105,767
797,1	101,338
797,5	102,624
797,9	98,938
798,4	96,224
798,8	96,395
799,2	95,91
799,7	99,538
800,1	96,252
800,5	94,224
801	98,824
801,4	96,938
801,8	90,881
802,2	90,567
802,7	83,767
803,1	84,767
803,5	86,967
804	81,795
804,4	84,281
804,8	90,167
805,3	89,195
805,7	91,767
806,1	90,395
806,6	89,31
807	88,795
807,4	86,995
807,9	79,738
808,3	80,395
808,7	79,481
809,2	82,71
809,6	85,338
810	85,91
810,4	84,195
810,9	86,567
811,3	82,91
811,7	80,738
812,2	82,338
812,6	78,424
813	81,881
813,5	84,538
813,9	84,395
814,3	82,738
814,8	82,024
815,2	76,938
815,6	73,881
816,1	72,167
816,5	71,767
816,9	73,595
817,3	72,995
817,8	77,481
818,2	77,31
818,6	73,567
819,1	72,567
819,5	68,91
819,9	64,91
820,4	68,252
820,8	61,11
821,2	58,938
821,7	63,024
822,1	60,224
822,5	66,11
822,9	66,938
823,4	60,481
823,8	64,795
824,2	67,91
824,7	65,652
825,1	61,967
825,5	56,91
826	52,738
826,4	56,738
826,8	53,538
827,3	52,081
827,7	52,91
828,1	56,338
828,5	59,024
829	56,51
829,4	57,024
829,8	52,424
830,3	52,252
830,7	50,367
831,1	50,538
831,6	48,11
832	55,252
832,4	53,595
832,8	58,052
833,3	58,481
833,7	57,281
834,1	52,51
834,6	47,681
835	48,452
835,4	46,138
835,8	43,424
836,3	38,252
836,7	40,795
837,1	43,252
837,6	46,538
838	41,481
838,4	43,11
838,9	41,738
839,3	41,795
839,7	38,367
840,1	35,795
840,6	35,852
841	38,31
841,4	37,024
841,9	40,567
842,3	41,195
842,7	43,595
843,1	44,51
843,6	47,31
844	46,452
844,4	51,852
844,9	55,081
845,3	55,938
845,7	56,338
846,2	53,567
846,6	49,91
847	50,738
847,4	48,852
847,9	45,538
848,3	45,024
848,7	46,51
849,2	48,652
849,6	43,91
850	44,967
850,4	39,51
850,9	35,71
851,3	35,167
851,7	32,538
852,2	33,824
852,6	41,681
853	39,167
853,4	42,995
853,9	38,852
854,3	38,681
854,7	39,824
855,2	41,195
855,6	35,995
856	32,138
856,4	25,395
856,9	28,052
857,3	30,424
857,7	31,424
858,2	32,367
858,6	33,367
859	36,738
859,4	39,138
859,9	41,167
860,3	38,51
860,7	35,367
861,1	33,31
861,6	28,795
862	28,824
862,4	24,624
862,9	24,481
863,3	20,881
863,7	18,967
864,1	18,71
864,6	20,738
865	20,024
865,4	27,252
865,9	31,852
866,3	29,681
866,7	33,424
867,1	31,024
867,6	31,224
868	30,995
868,4	28,738
868,8	26,367
869,3	31,624
869,7	34,852
870,1	31,967
870,6	34,71
871	-20,49
871,4	-17,805
871,8	-22,348
872,3	-23,976
872,7	-29,519
873,1	-27,262
873,5	-29,719
874	22,081
874,4	23,195
874,8	21,167
875,3	22,938
875,7	20,51
876,1	24,51
876,5	24,567
877	23,367
877,4	17,967
877,8	22,367
878,2	24,767
878,7	31,824
879,1	28,824
879,5	25,738
879,9	28,967
880,4	30,71
880,8	25,824
881,2	22,824
881,7	16,481
882,1	18,738
882,5	16,481
882,9	14,567
883,4	11,452
883,8	16,624
884,2	13,824
884,6	11,91
885,1	10,195
885,5	13,11
885,9	13,795
886,3	13,681
886,8	9,167
887,2	7,995
887,6	10,681
888	7,738
888,5	9,967
888,9	11,681
889,3	9,71
889,8	10,738
890,2	13,51
890,6	10,481
891	13,481
891,5	13,881
891,9	9,51
892,3	11,824
892,7	13,052
893,2	12,224
893,6	14,367
894	12,138
894,4	7,91
894,9	10,967
895,3	13,624
895,7	15,938
896,1	15,738
896,6	15,281
897	15,281
897,4	19,995
897,8	22,767
898,3	24,052
898,7	18,024
899,1	18,938
899,5	19,281
900	17,567
900,4	15,024
900,8	5,31
901,2	-2,862
901,7	-3,119
902,1	-4,376
902,5	-1,633
902,9	-2,319
903,4	-1,148
903,8	5,51
904,2	7,624
904,6	9,624
905,1	10,652
905,5	7,195
905,9	15,824
906,3	14,881
906,8	17,281
907,2	21,081
907,6	24,71
908	28,567
908,5	31,138
908,9	22,624
909,3	19,967
909,7	16,71
910,2	11,224
910,6	14,424
911	10,281
911,4	6,481
911,9	5,31
912,3	7,224
912,7	13,252
913,1	18,024
913,6	9,538
914	8,881
914,4	10,681
914,8	13,795
915,3	12,51
915,7	6,995
916,1	3,11
916,5	6,91
916,9	6,995
917,4	6,738
917,8	3,681
918,2	1,595
918,6	-2,948
919,1	0,424
919,5	-3,433
919,9	-2,376
920,3	-3,89
920,8	-2,29
921,2	0,11
921,6	2,338
922	-2,062
922,5	0,652
922,9	-0,09
923,3	1,595
923,7	2,138
924,2	2,167
924,6	3,31
925	8,881
925,4	4,91
925,8	2,852
926,3	1,567
926,7	2,91
927,1	1,995
927,5	4,681
928	-0,433
928,4	0,367
928,8	6,338
929,2	7,138
929,7	7,767
930,1	7,51
930,5	6,681
930,9	11,852
931,3	13,567
931,8	10,767
932,2	11,024
932,6	10,395
933	5,795
933,5	6,281
933,9	6,938
934,3	12,424
934,7	8,452
935,2	5,852
935,6	5,538
936	10,91
936,4	9,367
936,8	11,71
937,3	7,91
937,7	10,167
938,1	15,51
938,5	10,938
939	11,938
939,4	13,452
939,8	10,424
940,2	7,767
940,6	5,195
941,1	1,081
941,5	7,652
941,9	1,995
942,3	-1,548
942,8	-4,033
943,2	-0,69
943,6	-1,148
944	-0,176
944,4	-1,976
944,9	-2,49
945,3	-1,833
945,7	-3,548
946,1	-8,605
946,6	-5,176
947	-7,205
947,4	-2,89
947,8	2,081
948,2	1,224
948,7	4,795
949,1	6,624
949,5	13,338
949,9	17,195
950,3	13,024
950,8	11,281
951,2	8,281
951,6	-0,805
952	1,052
952,5	-8,405
952,9	-9,148
953,3	-10,976
953,7	-10,033
954,1	-1,605
954,6	7,71
955	5,452
955,4	4,024
955,8	5,31
956,2	8,852
956,7	11,281
957,1	3,567
957,5	1,052
957,9	8,138
958,3	10,595
958,8	12,852
959,2	13,338
959,6	13,195
960	15,281
960,5	19,452
960,9	13,767
961,3	9,281
961,7	1,052
962,1	-4,548
962,6	-4,262
963	-2,662
963,4	-9,519
963,8	-6,748
964,2	-2,748
964,7	1,367
965,1	7,367
965,5	6,795
965,9	3,767
966,3	6,138
966,8	4,452
967,2	5,767
967,6	7,281
968	0,424
968,4	0,624
968,9	4,252
969,3	6,852
969,7	5,824
970,1	7,195
970,5	1,424
971	5,31
971,4	1,938
971,8	2,595
972,2	1,052
972,6	-0,633
973,1	1,138
973,5	6,367
973,9	4,995
974,3	8,938
974,7	9,967
975,2	12,081
975,6	8,738
976	8,567
976,4	2,338
976,8	-0,633
977,3	-4,89
977,7	-12,89
978,1	-19,033
978,5	-14,69
978,9	-18,776
979,4	-13,548
979,8	-10,948
980,2	-10,69
980,6	-10,89
981	-6,09
981,5	-8,805
981,9	-6,862
982,3	-6,262
982,7	-3,89
983,1	-7,662
983,6	-1,69
984	-2,376
984,4	-0,805
984,8	-1,005
985,2	-4,376
985,6	-10,119
986,1	-6,605
986,5	-3,862
986,9	-6,319
987,3	-0,776
987,7	-3,09
988,2	-1,262
988,6	2,681
989	3,967
989,4	-1,233
989,8	-1,69
990,3	-6,548
990,7	-7,205
991,1	-8,462
991,5	-4,748
991,9	-3,548
992,3	0,852
992,8	3,624
993,2	5,167
993,6	6,824
994	10,167
994,4	8,938
994,9	8,11
995,3	5,538
995,7	3,71
996,1	7,024
996,5	10,167
996,9	4,081
997,4	3,138
997,8	-1,233
998,2	-3,662
998,6	-8,119
999	-14,748
999,5	-21,119
999,9	-19,09
1000,3	-21,176
1000,7	-14,633
1001,1	-12,005
1001,5	-4,29
1002	1,11
1002,4	4,995
1002,8	7,595
1003,2	9,11
1003,6	8,595
1004	11,71
1004,5	6,795
1004,9	5,367
1005,3	4,624
1005,7	5,595
1006,1	1,51
1006,6	-3,119
1007	-6,033
1007,4	-4,29
1007,8	-4,348
1008,2	-7,976
1008,6	-9,462
1009,1	-7,948
1009,5	-5,376
1009,9	-3,119
1010,3	-4,09
1010,7	-6,205
1011,1	-3,319
1011,6	-0,662
1012	5,738
1012,4	5,681
1012,8	0,51
1013,2	4,338
1013,6	6,138
1014,1	6,252
1014,5	1,31
1014,9	-0,748
1015,3	-2,005
1015,7	-2,719
1016,1	-3,405
1016,6	-6,205
1017	-5,29
1017,4	-3,948
1017,8	-7,262
1018,2	-5,262
1018,6	-7,005
1019,1	-9,462
1019,5	-5,262
1019,9	-7,062
1020,3	-4,433
1020,7	-1,148
1021,1	-0,948
1021,6	1,938
1022	5,024
1022,4	5,395
1022,8	10,224
1023,2	9,167
1023,6	7,51
1024,1	12,167
1024,5	15,31
1024,9	13,367
1025,3	9,052
1025,7	7,195
1026,1	11,052
1026,6	13,738
1027	7,795
1027,4	7,052
1027,8	6,881
1028,2	5,052
1028,6	11,538
1029	6,024
1029,5	6,31
1029,9	4,138
1030,3	1,167
1030,7	1,195
1031,1	4,395
1031,5	-5,319
1032	-4,948
1032,4	-1,348
1032,8	5,138
1033,2	6,281
1033,6	7,767
1034	9,881
1034,4	12,938
1034,9	13,681
1035,3	1,624
1035,7	1,91
1036,1	0,881
1036,5	-0,633
1036,9	-0,89
1037,4	-1,062
1037,8	-5,29
1038,2	-3,233
1038,6	-8,062
1039	-2,748
1039,4	-2,976
1039,8	-9,119
1040,3	-11,29
1040,7	-8,805
1041,1	-5,919
1041,5	-5,948
1041,9	-13,148
1042,3	-13,605
1042,7	-8,09
1043,2	-11,148
1043,6	-12,29
1044	-11,805
1044,4	-11,433
1044,8	-6,033
1045,2	-6,405
1045,6	-6,376
1046,1	-3,062
1046,5	-0,348
1046,9	-2,519
1047,3	0,538
1047,7	1,652
1048,1	-0,29
1048,5	1,51
1049	7,767
1049,4	10,795
1049,8	9,338
1050,2	7,767
1050,6	8,995
1051	13,567
1051,4	9,852
1051,9	3,281
1052,3	9,11
1052,7	13,967
1053,1	9,967
1053,5	5,881
1053,9	4,395
1054,3	6,224
1054,8	16,681
1055,2	7,738
1055,6	7,91
1056	13,652
1056,4	12,195
1056,8	15,51
1057,2	13,567
1057,6	2,51
1058,1	-0,033
1058,5	-4,633
1058,9	-4,89
1059,3	-2,519
1059,7	-5,69
1060,1	-3,205
1060,5	-5,748
1061	0,281
1061,4	-0,919
1061,8	3,452
1062,2	-0,433
1062,6	3,052
1063	4,938
1063,4	9,938
1063,8	6,395
1064,3	7,538
1064,7	-0,833
1065,1	2,452
1065,5	-2,29
1065,9	-5,062
1066,3	-5,69
1066,7	-10,148
1067,1	-13,833
1067,6	-8,205
1068	-8,976
1068,4	-8,776
1068,8	-6,948
1069,2	-5,748
1069,6	-2,348
1070	4,024
1070,4	-3,89
1070,9	-5,633
1071,3	-7,49
1071,7	-10,119
1072,1	-10,976
1072,5	-14,205
1072,9	-13,948
1073,3	-4,319
1073,7	-4,119
1074,2	-0,462
1074,6	-0,69
1075	-5,462
1075,4	-1,176
1075,8	-0,633
1076,2	-5,805
1076,6	1,081
1077	0,31
1077,5	2,795
1077,9	3,595
1078,3	-0,433
1078,7	1,395
1079,1	0,11
1079,5	-4,462
1079,9	-3,176
1080,3	-6,49
1080,7	-4,548
1081,2	4,452
1081,6	2,452
1082	3,481
1082,4	9,652
1082,8	7,424
1083,2	10,595
1083,6	13,31
1084	8,995
1084,5	5,795
1084,9	1,481
1085,3	-6,548
1085,7	-5,262
1086,1	-6,062
1086,5	-3,862
1086,9	-3,29
1087,3	-2,319
1087,7	4,738
1088,2	6,624
1088,6	3,452
1089	2,824
1089,4	-0,719
1089,8	-2,062
1090,2	-0,405
1090,6	-1,662
1091	-0,062
1091,4	8,024
1091,9	8,995
1092,3	10,767
1092,7	9,624
1093,1	9,281
1093,5	7,938
1093,9	7,252
1094,3	7,538
1094,7	3,538
1095,1	4,767
1095,5	6,51
1096	4,195
1096,4	7,71
1096,8	5,452
1097,2	0,11
1097,6	4,681
1098	3,995
1098,4	6,681
1098,8	8,195
1099,2	9,595
1099,6	11,995
1100,1	9,595
1100,5	6,367
1100,9	4,424
1101,3	0,852
1101,7	3,91
1102,1	-1,748
1102,5	-1,976
1102,9	0,452
1103,3	4,167
1103,7	5,11
1104,2	6,481
1104,6	1,881
1105	1,91
1105,4	0,395
1105,8	0,11
1106,2	-2,433
1106,6	-3,233
1107	-3,976
1107,4	-2,067
1107,8	-1,273
1108,3	-0,183
