Data from Subt2_199.txt Node
Date: Sat Aug 26 18:44:38 MSK 2023
User: vat
Spectrometer: MAYP114033
Trigger mode: 0
Integration Time (sec): 1,000000E0
Scans to average: 5
Electric dark correction enabled: true
Nonlinearity correction enabled: false
Boxcar width: 3
XAxis mode: Wavelengths
Number of Pixels in Spectrum: 2068
>>>>>Begin Spectral Data<<<<<
199,4	-1,1
199,9	3,28
200,4	-0,167
200,8	-0,171
201,3	-0,457
201,8	0,457
202,2	-2,486
202,7	1,486
203,2	-2,857
203,6	-0,429
204,1	-3,857
204,6	-3,771
205	-3,571
205,5	0,286
206	-3,086
206,4	-0,714
206,9	-0,514
207,4	4,457
207,8	4,914
208,3	4,457
208,8	4,771
209,2	8,6
209,7	8,286
210,2	11,086
210,6	10,086
211,1	12
211,5	10,857
212	14,943
212,5	13,286
212,9	10,857
213,4	11,086
213,9	9
214,3	8,171
214,8	9,743
215,3	2,257
215,7	-0,457
216,2	5,714
216,7	2,971
217,1	0,371
217,6	2,114
218,1	-0,286
218,5	0,514
219	-4,943
219,5	-7,143
219,9	-10,714
220,4	-1,6
220,9	-1,8
221,3	0,657
221,8	2,2
222,3	8,143
222,7	8,057
223,2	12,543
223,6	8,429
224,1	4,114
224,6	5,057
225	2,6
225,5	4,429
226	3,171
226,4	4,286
226,9	5,486
227,4	7
227,8	4,514
228,3	6,743
228,8	5,286
229,2	6,857
229,7	6,314
230,2	8,371
230,6	11,6
231,1	16,886
231,5	16,886
232	15,514
232,5	14,4
232,9	14,114
233,4	8
233,9	2,229
234,3	-1,771
234,8	-0,343
235,3	-0,2
235,7	-1,943
236,2	-3,657
236,7	-1,314
237,1	5,743
237,6	4,086
238,1	-1,771
238,5	-2,029
239	0,229
239,4	4,629
239,9	3,314
240,4	0,486
240,8	1,714
241,3	5,886
241,8	4,486
242,2	2,171
242,7	-4,343
243,2	-3,857
243,6	-6,486
244,1	-5,171
244,6	-1,629
245	0,086
245,5	2,543
245,9	-0,171
246,4	0,314
246,9	3,029
247,3	2,114
247,8	-1,514
248,3	3,143
248,7	2,571
249,2	9,886
249,7	10,857
250,1	10,571
250,6	7,914
251	8,029
251,5	1,029
252	1,629
252,4	-0,771
252,9	-3,229
253,4	-9,286
253,8	-3,257
254,3	-1,086
254,8	3,914
255,2	1,029
255,7	-0,171
256,1	-2,029
256,6	4
257,1	0,857
257,5	-4,971
258	-7,229
258,5	-7,086
258,9	-8,886
259,4	-3,371
259,9	-4,286
260,3	-6,314
260,8	-5,743
261,2	-5,543
261,7	-5,486
262,2	-6,457
262,6	-10,8
263,1	-5,8
263,6	-1,743
264	5,743
264,5	7,743
264,9	7,2
265,4	6,829
265,9	6,657
266,3	2,143
266,8	2,657
267,3	2,143
267,7	-1,6
268,2	4,257
268,7	6,971
269,1	12,971
269,6	10,686
270	9,6
270,5	3,657
271	4,714
271,4	2,571
271,9	1,743
272,4	-0,143
272,8	1,457
273,3	0,171
273,7	3,371
274,2	5,2
274,7	0,8
275,1	3,171
275,6	3,029
276,1	2,571
276,5	1,943
277	0,914
277,4	-0,171
277,9	5,086
278,4	6,4
278,8	9,571
279,3	11,629
279,8	10,543
280,2	12,229
280,7	15,771
281,1	9,771
281,6	11,2
282,1	8,829
282,5	9,457
283	11,914
283,4	9,686
283,9	12
284,4	18,743
284,8	18,257
285,3	17,057
285,8	17,371
286,2	16,286
286,7	14,486
287,1	8,543
287,6	4,886
288,1	0,486
288,5	-1,486
289	-5,8
289,5	-4,886
289,9	-2,543
290,4	2,514
290,8	3,286
291,3	6,114
291,8	8,914
292,2	10,257
292,7	11,857
293,1	12,086
293,6	9,6
294,1	9,657
294,5	9,314
295	7,8
295,5	6,943
295,9	5,171
296,4	3,486
296,8	3,257
297,3	2,257
297,8	-1
298,2	-3
298,7	4,029
299,1	3,886
299,6	2,857
300,1	8,571
300,5	7,286
301	11,286
301,5	16,314
301,9	9,886
302,4	6,914
302,8	8,371
303,3	-1,457
303,8	-3,057
304,2	-5,114
304,7	-11,429
305,1	-11,743
305,6	-8,6
306,1	-0,143
306,5	1,057
307	7,371
307,4	10,457
307,9	12,829
308,4	14,457
308,8	11,286
309,3	6,743
309,8	7,229
310,2	7,143
310,7	1,286
311,1	1,771
311,6	-0,743
312,1	1,486
312,5	0,429
313	0,171
313,4	-3,457
313,9	2,2
314,4	2
314,8	1,886
315,3	2,771
315,7	-6,171
316,2	-4,886
316,7	-6,057
317,1	-5,257
317,6	-3,886
318	0,429
318,5	-2,171
319	2,686
319,4	3,943
319,9	9,743
320,3	8,571
320,8	8,686
321,3	10,029
321,7	12,286
322,2	14,971
322,6	12,686
323,1	8,086
323,6	6,943
324	4,343
324,5	1,371
324,9	5,686
325,4	4,771
325,9	10
326,3	11,143
326,8	10,143
327,2	8,6
327,7	10,057
328,2	6,686
328,6	7,371
329,1	-0,514
329,5	0,314
330	1,743
330,5	5,429
330,9	6,2
331,4	6,514
331,8	3,114
332,3	8,086
332,8	9,914
333,2	8,457
333,7	8,829
334,1	8,086
334,6	3,714
335,1	2,114
335,5	4
336	-1,429
336,4	3,257
336,9	7,086
337,4	6,257
337,8	9,743
338,3	12,657
338,7	11,914
339,2	11,4
339,7	11,029
340,1	4,114
340,6	4,629
341	5,171
341,5	4,743
342	2,171
342,4	2,286
342,9	-0,486
343,3	0,4
343,8	-3,171
344,2	-1,771
344,7	4,429
345,2	2,914
345,6	7,029
346,1	7,371
346,5	3,343
347	3,029
347,5	-3,314
347,9	-4,057
348,4	-2,657
348,8	-3,029
349,3	-3,4
349,8	2,171
350,2	6,314
350,7	6,971
351,1	9,914
351,6	17,714
352	20,971
352,5	28,6
353	41
353,4	47,8
353,9	62,657
354,3	71,2
354,8	79,086
355,3	97,829
355,7	114,314
356,2	134,514
356,6	161,086
357,1	187,229
357,5	217,514
358	258,114
358,5	293,943
358,9	341,314
359,4	392,571
359,8	449,914
360,3	519,571
360,8	596,8
361,2	677,829
361,7	775,771
362,1	876,943
362,6	991,686
363	1108,943
363,5	1233,314
364	1364,114
364,4	1504,086
364,9	1638,171
365,3	1777,743
365,8	1900,2
366,3	2019,743
366,7	2129,943
367,2	2229,886
367,6	2297,771
368,1	2359,714
368,5	2395,543
369	2417,343
369,5	2425,029
369,9	2407,8
370,4	2365,514
370,8	2316,2
371,3	2246,486
371,7	2168,6
372,2	2069,8
372,7	1970,6
373,1	1866,171
373,6	1756,886
374	1653,571
374,5	1546,429
374,9	1437,286
375,4	1342,171
375,9	1244,771
376,3	1145,571
376,8	1053,886
377,2	967,857
377,7	887,4
378,2	812,257
378,6	742,714
379,1	674,857
379,5	621,514
380	574,143
380,4	524,629
380,9	482,743
381,4	443,486
381,8	409,6
382,3	380,514
382,7	350,114
383,2	330,057
383,6	307,4
384,1	285,2
384,6	269,457
385	248,543
385,5	228,943
385,9	213,4
386,4	193,2
386,8	180,829
387,3	165,886
387,7	150,4
388,2	144,314
388,7	135,171
389,1	128,914
389,6	121,457
390	113,657
390,5	108,771
390,9	106,2
391,4	98,829
391,9	93,629
392,3	89,943
392,8	82,229
393,2	74,257
393,7	69,857
394,1	62,686
394,6	58,8
395,1	55,971
395,5	51,143
396	50,629
396,4	51,029
396,9	49,171
397,3	53,971
397,8	54,371
398,2	53,314
398,7	55,714
399,2	54,714
399,6	54,457
400,1	53,229
400,5	45,771
401	44,457
401,4	40,829
401,9	41,114
402,4	44,8
402,8	44,114
403,3	49,286
403,7	50,229
404,2	52,486
404,6	58,286
405,1	53,257
405,5	48,943
406	48,886
406,5	43,8
406,9	50,657
407,4	48,686
407,8	50,429
408,3	58,286
408,7	58,314
409,2	63,943
409,6	67,571
410,1	67,829
410,6	79,8
411	82,629
411,5	85,486
411,9	93,343
412,4	92,686
412,8	100,429
413,3	104,057
413,7	99,571
414,2	103,257
414,7	110,514
415,1	122,971
415,6	136,029
416	143,514
416,5	149,914
416,9	161,743
417,4	171,629
417,8	182,514
418,3	189,2
418,8	197,114
419,2	208,314
419,7	222,914
420,1	231,829
420,6	241,057
421	249,6
421,5	262,114
421,9	274,143
422,4	287,2
422,8	300,029
423,3	309,829
423,8	324,286
424,2	333,229
424,7	345,257
425,1	358,6
425,6	372,686
426	385,714
426,5	405,257
426,9	423,686
427,4	439,4
427,9	454,257
428,3	475,229
428,8	493,914
429,2	513,714
429,7	533,829
430,1	557
430,6	589
431	617,229
431,5	646,6
431,9	671,714
432,4	707,343
432,8	741,914
433,3	776,257
433,8	811,229
434,2	850,086
434,7	886,857
435,1	933,543
435,6	974,4
436	1022,4
436,5	1070,886
436,9	1114,886
437,4	1162,857
437,8	1212,943
438,3	1266,543
438,8	1319,886
439,2	1375,371
439,7	1434,057
440,1	1497,543
440,6	1567,686
441	1633,4
441,5	1702,229
441,9	1774,657
442,4	1841,8
442,8	1919,657
443,3	1993,429
443,7	2068,8
444,2	2154,486
444,7	2232,486
445,1	2317,086
445,6	2410,743
446	2499,143
446,5	2591,286
446,9	2681,771
447,4	2774,857
447,8	2874,829
448,3	2976,629
448,7	3081,914
449,2	3187,629
449,6	3302,457
450,1	3416,657
450,6	3538,943
451	3656,8
451,5	3773,943
451,9	3889,714
452,4	4014,657
452,8	4139,6
453,3	4267,543
453,7	4383,371
454,2	4522,114
454,6	4659,314
455,1	4795,943
455,5	4922,771
456	5064,2
456,4	5197,771
456,9	5351,2
457,3	5489,029
457,8	5625,714
458,3	5774,829
458,7	5928,286
459,2	6070,171
459,6	6219,371
460,1	6360,286
460,5	6508,914
461	6671,343
461,4	6816,571
461,9	6971,286
462,3	7132,371
462,8	7295,086
463,2	7452,314
463,7	7614,286
464,1	7760,886
464,6	7925,286
465	8078,171
465,5	8229,114
466	8384,514
466,4	8538,571
466,9	8692,486
467,3	8843,914
467,8	8988,143
468,2	9144,086
468,7	9288,286
469,1	9436,429
469,6	9590,314
470	9732,971
470,5	9884,886
470,9	10031,486
471,4	10172,629
471,8	10317,514
472,3	10458,371
472,7	10593,086
473,2	10729,914
473,6	10858,514
474,1	10987,486
474,5	11115,143
475	11242,4
475,4	11357,886
475,9	11472,286
476,4	11587,457
476,8	11702,829
477,3	11813,371
477,7	11917,057
478,2	12013,8
478,6	12108,657
479,1	12201,943
479,5	12283,971
480	12368,343
480,4	12457,686
480,9	12540,086
481,3	12609,257
481,8	12690,4
482,2	12764,286
482,7	12829,429
483,1	12894,486
483,6	12948,229
484	12991,057
484,5	13051,886
484,9	13082,457
485,4	13116,971
485,8	13154,057
486,3	13185,429
486,7	13210,057
487,2	13238,371
487,6	13258,257
488,1	13283,8
488,5	13292,314
489	13300,343
489,4	13302,143
489,9	13302,029
490,4	13295,314
490,8	13281,429
491,3	13273,114
491,7	13252,657
492,2	13235,714
492,6	13210,914
493,1	13186,971
493,5	13149
494	13105,171
494,4	13060,114
494,9	13026,371
495,3	12986,943
495,8	12932,886
496,2	12877,629
496,7	12832,2
497,1	12788,571
497,6	12736,171
498	12681,543
498,5	12622,857
498,9	12564,943
499,4	12509,143
499,8	12445,429
500,3	12385,314
500,7	12311
501,2	12230,371
501,6	12148,8
502,1	12071,029
502,5	11993,429
503	11913,857
503,4	11825,4
503,9	11746,429
504,3	11676,029
504,8	11596,371
505,2	11522,971
505,7	11439,4
506,1	11356,743
506,6	11262,943
507	11171,486
507,5	11083,657
507,9	10989,4
508,4	10894,171
508,8	10795,571
509,3	10701,6
509,7	10614,714
510,2	10526,829
510,6	10428,314
511,1	10338,2
511,5	10239,914
512	10145,486
512,4	10056,857
512,9	9959,914
513,3	9868
513,8	9766,2
514,2	9668,229
514,7	9578,829
515,1	9477,371
515,6	9370,914
516	9274,143
516,5	9171,6
516,9	9086,943
517,4	8996,057
517,8	8899,429
518,3	8808,171
518,7	8708,686
519,2	8611,286
519,6	8514,886
520,1	8414,914
520,5	8313,229
521	8207,829
521,4	8117,971
521,9	8039,829
522,3	7955,629
522,8	7866,086
523,2	7777,057
523,7	7693,514
524,1	7609,943
524,6	7519,857
525	7425,114
525,5	7335,686
525,9	7252,6
526,4	7167,057
526,8	7083,914
527,3	7008,371
527,7	6924,171
528,2	6851,857
528,6	6768,457
529,1	6697,171
529,5	6621,143
530	6537,657
530,4	6464,543
530,9	6396,914
531,3	6318,971
531,8	6252,514
532,2	6173,657
532,6	6103,086
533,1	6043,829
533,5	5974,314
534	5900,629
534,4	5836,514
534,9	5774,171
535,3	5706,686
535,8	5645,571
536,2	5580,371
536,7	5516,286
537,1	5457,2
537,6	5396,029
538	5336,114
538,5	5289,8
538,9	5223,8
539,4	5166,229
539,8	5115
540,3	5060,229
540,7	5006,143
541,2	4952,2
541,6	4891,057
542,1	4846,971
542,5	4798,371
543	4742,6
543,4	4695,457
543,9	4647,914
544,3	4603,571
544,8	4549,429
545,2	4501,314
545,7	4454
546,1	4415,371
546,5	4368,257
547	4316,343
547,4	4264,6
547,9	4228,143
548,3	4189,029
548,8	4147,057
549,2	4100,714
549,7	4062,457
550,1	4030,429
550,6	3994,657
551	3961,829
551,5	3917,171
551,9	3879,6
552,4	3847,886
552,8	3818,6
553,3	3785,343
553,7	3752,686
554,2	3721,629
554,6	3690,114
555,1	3658,657
555,5	3619,314
555,9	3579,457
556,4	3534,514
556,8	3500,971
557,3	3463,314
557,7	3433,943
558,2	3403,086
558,6	3376,943
559,1	3345,714
559,5	3325,857
560	3305,457
560,4	3282,229
560,9	3254,286
561,3	3219,743
561,8	3189,657
562,2	3168,4
562,7	3145,114
563,1	3114,8
563,6	3084,914
564	3059,914
564,4	3043,829
564,9	3020,114
565,3	2995,114
565,8	2968,057
566,2	2942,914
566,7	2918,743
567,1	2902,971
567,6	2874,486
568	2853,457
568,5	2830,8
568,9	2806,343
569,4	2784,829
569,8	2764,314
570,3	2733,571
570,7	2712,943
571,1	2691,8
571,6	2672,143
572	2657,029
572,5	2635,857
572,9	2613,314
573,4	2596,657
573,8	2580,486
574,3	2558,914
574,7	2537,943
575,2	2516
575,6	2499,543
576,1	2490,657
576,5	2478,143
576,9	2458,429
577,4	2438,886
577,8	2419,886
578,3	2403,657
578,7	2381,2
579,2	2360,514
579,6	2336,314
580,1	2314,657
580,5	2301,371
581	2288,257
581,4	2272,6
581,9	2256,686
582,3	2238,371
582,7	2224,971
583,2	2214,343
583,6	2198,057
584,1	2179,2
584,5	2162,086
585	2153,971
585,4	2132,2
585,9	2117,914
586,3	2105
586,8	2092,571
587,2	2083,086
587,6	2069,943
588,1	2060,343
588,5	2061,257
589	2046,657
589,4	2033,429
589,9	2016,486
590,3	2004,114
590,8	1992,714
591,2	1974,657
591,7	1958,514
592,1	1951,143
592,5	1941,629
593	1932,714
593,4	1915,886
593,9	1906,714
594,3	1893,686
594,8	1877,971
595,2	1863,771
595,7	1850,314
596,1	1839,943
596,6	1832,8
597	1824,314
597,4	1814,457
597,9	1808,286
598,3	1801,6
598,8	1790,486
599,2	1783,086
599,7	1775,086
600,1	1758,029
600,6	1751,457
601	1739,571
601,4	1735,686
601,9	1732,057
602,3	1721,629
602,8	1711,229
603,2	1702,371
603,7	1689,114
604,1	1684,857
604,6	1664,771
605	1647,4
605,4	1640,229
605,9	1626,371
606,3	1615,343
606,8	1601,971
607,2	1582,829
607,7	1575,714
608,1	1573,257
608,6	1564,771
609	1561,971
609,4	1555,543
609,9	1549,571
610,3	1545,2
610,8	1539,114
611,2	1527,229
611,7	1516,371
612,1	1504,429
612,6	1498,371
613	1492,514
613,4	1483,829
613,9	1470,4
614,3	1462,343
614,8	1454,514
615,2	1445,714
615,7	1437,314
616,1	1425,743
616,6	1410,8
617	1401,943
617,4	1391,886
617,9	1383,771
618,3	1378,371
618,8	1371,571
619,2	1365,743
619,7	1367,286
620,1	1362,029
620,5	1357,286
621	1345
621,4	1336,971
621,9	1323,371
622,3	1315,343
622,8	1299,629
623,2	1290,114
623,6	1278,8
624,1	1274,286
624,5	1264,686
625	1262,371
625,4	1256,057
625,9	1254,314
626,3	1249,914
626,8	1239,086
627,2	1230,114
627,6	1219,829
628,1	1207,429
628,5	1202,057
629	1190,629
629,4	1178,829
629,9	1177,914
630,3	1167,029
630,7	1158,429
631,2	1150,714
631,6	1141,029
632,1	1135,514
632,5	1130,343
633	1119,971
633,4	1114,743
633,8	1110,743
634,3	1108,429
634,7	1095,514
635,2	1084,086
635,6	1075,686
636,1	1068,029
636,5	1059,943
636,9	1051,257
637,4	1038,943
637,8	1030,771
638,3	1024,114
638,7	1017,886
639,2	1007,971
639,6	1004,8
640	997,657
640,5	992,229
640,9	989,086
641,4	984,857
641,8	977,057
642,2	974,657
642,7	968,4
643,1	967,857
643,6	963,743
644	958,829
644,5	959,8
644,9	952,686
645,3	947,057
645,8	935,4
646,2	924,743
646,7	918,743
647,1	913,686
647,6	899,714
648	895,086
648,4	888,714
648,9	886,714
649,3	878,857
649,8	873,086
650,2	869,943
650,6	869,029
651,1	868,4
651,5	868,086
652	864
652,4	860,971
652,9	858
653,3	849,029
653,7	837,829
654,2	829,171
654,6	819,057
655,1	812,743
655,5	813,571
655,9	806,629
656,4	805,829
656,8	801,971
657,3	797,8
657,7	796,286
658,2	791,543
658,6	776,971
659	770,943
659,5	759,971
659,9	756,686
660,4	755,657
660,8	745,543
661,2	739,029
661,7	740,543
662,1	742,771
662,6	740,886
663	736,343
663,4	726,4
663,9	724,029
664,3	718,514
664,8	708,629
665,2	696,429
665,6	687,486
666,1	682,4
666,5	678,2
667	672,257
667,4	668,8
667,9	666,229
668,3	658,886
668,7	656,114
669,2	656,171
669,6	649,171
670,1	646,343
670,5	643,229
670,9	637,514
671,4	637,314
671,8	635,114
672,3	629,943
672,7	630,486
673,1	623,886
673,6	619,571
674	619,857
674,5	615,629
674,9	608,857
675,3	599,971
675,8	595,114
676,2	588,457
676,7	580,429
677,1	577,486
677,5	569,171
678	569,571
678,4	572,057
678,9	566,657
679,3	568
679,7	565,457
680,2	557,4
680,6	553,8
681,1	546,171
681,5	539,571
681,9	536,171
682,4	529,771
682,8	528,371
683,3	524,743
683,7	524,686
684,1	523,114
684,6	518,229
685	511,714
685,5	505,343
685,9	496,829
686,3	490,743
686,8	487,343
687,2	481,571
687,7	474,457
688,1	469
688,5	471,314
689	471,914
689,4	470
689,9	466,543
690,3	459,457
690,7	462,371
691,2	465,2
691,6	459,886
692	454,4
692,5	451,086
692,9	445,057
693,4	443,143
693,8	437,8
694,2	429,857
694,7	427,571
695,1	426,457
695,6	427,257
696	428,171
696,4	428,829
696,9	420,857
697,3	416,914
697,8	411,114
698,2	404,371
698,6	399,229
699,1	393,657
699,5	390,486
699,9	391,8
700,4	387,429
700,8	389,914
701,3	389,6
701,7	384,143
702,1	378,143
702,6	371,886
703	368,886
703,5	367,914
703,9	361,6
704,3	364,629
704,8	364,829
705,2	361,686
705,6	364,743
706,1	362,4
706,5	357,314
707	353,429
707,4	346,086
707,8	336,6
708,3	338,829
708,7	335,114
709,2	332,4
709,6	335,257
710	335,171
710,5	333,457
710,9	336,943
711,3	331,257
711,8	330,514
712,2	329,857
712,7	326,343
713,1	324,343
713,5	324,343
714	324,257
714,4	321,771
714,8	317,171
715,3	313,229
715,7	312,286
716,2	306,486
716,6	302,571
717	298,943
717,5	296,829
717,9	297,486
718,3	292,686
718,8	291,543
719,2	289,486
719,7	289,857
720,1	289,086
720,5	294,143
721	286,6
721,4	285,543
721,8	285,629
722,3	284,857
722,7	283,571
723,2	275,257
723,6	261,4
724	264,171
724,5	264,771
724,9	257,943
725,3	252,8
725,8	246
726,2	247,371
726,7	251,143
727,1	246,429
727,5	245,657
728	242,657
728,4	244,171
728,8	242,857
729,3	241
729,7	239,086
730,1	237,371
730,6	234,971
731	232,571
731,5	231,314
731,9	227
732,3	226,2
732,8	226,371
733,2	226,4
733,6	223,714
734,1	223,229
734,5	223,114
734,9	227,857
735,4	227,371
735,8	221,8
736,3	222,6
736,7	219,857
737,1	220,714
737,6	220,257
738	217,8
738,4	210,486
738,9	213,743
739,3	212,143
739,7	212,571
740,2	205,143
740,6	206,143
741,1	204,914
741,5	203,4
741,9	202,457
742,4	202,514
742,8	201,857
743,2	210,029
743,7	203,829
744,1	200
744,5	202,4
745	199,743
745,4	194,657
745,8	188,971
746,3	187,371
746,7	182,543
747,2	184,457
747,6	189,429
748	193,6
748,5	198,114
748,9	199,971
749,3	194
749,8	200,143
750,2	196,143
750,6	189,4
751,1	187,057
751,5	177,886
751,9	180,886
752,4	181,4
752,8	179,857
753,3	180,457
753,7	182,371
754,1	175,457
754,6	173,029
755	166,657
755,4	162,2
755,9	156,229
756,3	154,257
756,7	154,314
757,2	154,686
757,6	160
758	159,6
758,5	162,486
758,9	163,771
759,3	162,886
759,8	159,2
760,2	158,371
760,6	152,914
761,1	149,8
761,5	145,857
761,9	144,143
762,4	140,943
762,8	140,514
763,3	139,2
763,7	141,2
764,1	144,6
764,6	147,171
765	148,114
765,4	153,029
765,9	152,2
766,3	155,514
766,7	150,8
767,2	146,829
767,6	146,2
768	139,714
768,5	134,743
768,9	132,686
769,3	131,629
769,8	132,914
770,2	132,486
770,6	130,971
771,1	138,371
771,5	137,286
771,9	139,114
772,4	138,943
772,8	139,457
773,2	140,257
773,7	138,543
774,1	129,971
774,5	125,571
775	124,086
775,4	119,943
775,8	118,114
776,3	118,371
776,7	118,771
777,1	120,486
777,6	122,057
778	121,457
778,4	120,514
778,9	124,457
779,3	123,2
779,7	123,857
780,2	127,171
780,6	129,514
781	125,4
781,5	125,829
781,9	122,629
782,3	120,143
782,8	118,286
783,2	112,829
783,6	117,057
784,1	118,486
784,5	109,086
784,9	108,371
785,4	107,314
785,8	106,943
786,2	110,229
786,7	105,971
787,1	100,429
787,5	108,857
788	107,314
788,4	105,571
788,8	104,543
789,3	98,086
789,7	97,8
790,1	101,229
790,6	101,857
791	97,943
791,4	100,343
791,9	96,886
792,3	96,714
792,7	99,114
793,2	98,029
793,6	94,229
794	95,257
794,5	89,8
794,9	91,457
795,3	90,657
795,8	82,143
796,2	83,543
796,6	82,114
797,1	78,6
797,5	80,057
797,9	76,8
798,4	76,114
798,8	77,2
799,2	74,543
799,7	78,286
800,1	76,429
800,5	75,6
801	83,086
801,4	84,314
801,8	80
802,2	78,057
802,7	72,371
803,1	76,571
803,5	78,771
804	68,143
804,4	70,171
804,8	76,657
805,3	79,029
805,7	77,343
806,1	75,114
806,6	73,314
807	75,771
807,4	74,086
807,9	66,171
808,3	63,943
808,7	67,114
809,2	70,771
809,6	72,371
810	72,829
810,4	71,971
810,9	76,914
811,3	80,714
811,7	79,743
812,2	81,457
812,6	78,2
813	79,286
813,5	83,486
813,9	80,743
814,3	75,171
814,8	74,6
815,2	66,457
815,6	65,2
816,1	67,714
816,5	64,486
816,9	66,371
817,3	69,657
817,8	72,057
818,2	75,114
818,6	74,771
819,1	68,743
819,5	66,714
819,9	70,4
820,4	67,686
820,8	63,2
821,2	57,2
821,7	57,829
822,1	61,057
822,5	63,2
822,9	58,343
823,4	57,286
823,8	60,2
824,2	67,314
824,7	65
825,1	60,143
825,5	54,2
826	50,8
826,4	50,914
826,8	46,257
827,3	46,286
827,7	47,571
828,1	52,057
828,5	51,829
829	50,514
829,4	45,514
829,8	46
830,3	41,914
830,7	43,4
831,1	45,657
831,6	48,8
832	52,514
832,4	55,114
832,8	57,543
833,3	58,743
833,7	55,171
834,1	52,4
834,6	49,457
835	47,457
835,4	50,886
835,8	48,371
836,3	43,257
836,7	45,829
837,1	41,2
837,6	47,914
838	45,057
838,4	43
838,9	43,4
839,3	42,543
839,7	40
840,1	38,286
840,6	32,029
841	36,686
841,4	36,829
841,9	36,171
842,3	42,229
842,7	42,229
843,1	41,8
843,6	45,343
844	41,971
844,4	47,857
844,9	51,2
845,3	50,714
845,7	49,571
846,2	48,4
846,6	41,629
847	48,543
847,4	48,229
847,9	47
848,3	42,229
848,7	43,686
849,2	47,8
849,6	45,457
850	40,029
850,4	33,943
850,9	36
851,3	38,943
851,7	41,6
852,2	37,886
852,6	44,171
853	43,971
853,4	39,6
853,9	33,143
854,3	35,971
854,7	33,714
855,2	37,543
855,6	37
856	31,857
856,4	32,857
856,9	32,771
857,3	28,486
857,7	31
858,2	36,429
858,6	35,686
859	37,743
859,4	39,743
859,9	39,657
860,3	37,886
860,7	32,686
861,1	28,086
861,6	25,886
862	27,857
862,4	27,486
862,9	25,714
863,3	27,343
863,7	28,457
864,1	28,457
864,6	26,914
865	23,886
865,4	24,714
865,9	27,629
866,3	21,914
866,7	22,286
867,1	15,657
867,6	17,457
868	16,914
868,4	14,429
868,8	13,314
869,3	20,371
869,7	25,143
870,1	26,029
870,6	24,629
871	9,971
871,4	15,114
871,8	13,429
872,3	11,829
872,7	5,114
873,1	6,429
873,5	6,543
874	22,971
874,4	18,257
874,8	20,143
875,3	22,257
875,7	21
876,1	21,971
876,5	21,457
877	16,486
877,4	16,457
877,8	17,029
878,2	20,857
878,7	25,886
879,1	24,686
879,5	29,914
879,9	38,886
880,4	37,429
880,8	37,829
881,2	28,429
881,7	23,457
882,1	25,514
882,5	22,714
882,9	17,371
883,4	17,4
883,8	18,257
884,2	25,343
884,6	26,943
885,1	26,429
885,5	23,4
885,9	25,857
886,3	29,114
886,8	27,314
887,2	22,714
887,6	23,657
888	22,343
888,5	25,429
888,9	22,943
889,3	21,486
889,8	15,771
890,2	15,886
890,6	14,057
891	11,743
891,5	6,943
891,9	10,114
892,3	9,286
892,7	10,743
893,2	7,686
893,6	9,943
894	13,229
894,4	14,771
894,9	10,914
895,3	11,971
895,7	18,371
896,1	19,171
896,6	19,229
897	18,057
897,4	25,171
897,8	29,8
898,3	29,829
898,7	21,086
899,1	24,257
899,5	20,086
900	15,086
900,4	9,8
900,8	2,829
901,2	0,171
901,7	3,086
902,1	0,743
902,5	4,457
902,9	6,943
903,4	8,8
903,8	12,314
904,2	10,857
904,6	11,314
905,1	8,714
905,5	5,571
905,9	8,314
906,3	10,457
906,8	13,2
907,2	17,057
907,6	17,771
908	20,914
908,5	18
908,9	12,514
909,3	4,629
909,7	3,429
910,2	3,171
910,6	8,571
911	7,171
911,4	9,543
911,9	12,057
912,3	15,714
912,7	17,457
913,1	17,571
913,6	9,829
914	11,514
914,4	13,743
914,8	17,171
915,3	15,4
915,7	12,886
916,1	9,143
916,5	15,514
916,9	16,943
917,4	18,686
917,8	19,343
918,2	18,486
918,6	14,086
919,1	17,4
919,5	15,571
919,9	14,629
920,3	10,743
920,8	6,886
921,2	5,971
921,6	12,543
922	11,057
922,5	8,286
922,9	7,914
923,3	6,686
923,7	8,143
924,2	7,771
924,6	5,943
925	6,686
925,4	7,6
925,8	3,286
926,3	6,543
926,7	4,2
927,1	8,771
927,5	7,371
928	6,257
928,4	7,086
928,8	12,657
929,2	11,486
929,7	15,971
930,1	15,571
930,5	12,029
930,9	12
931,3	13,257
931,8	9,086
932,2	8,057
932,6	3,657
933	-0,829
933,5	1,057
933,9	3,514
934,3	-0,057
934,7	-2,629
935,2	1,4
935,6	1,714
936	3,914
936,4	8,343
936,8	8,114
937,3	8,714
937,7	14,829
938,1	17
938,5	12,057
939	12,971
939,4	9,286
939,8	6,6
940,2	6,114
940,6	6,314
941,1	-0
941,5	6,257
941,9	6
942,3	4,4
942,8	4,314
943,2	7,971
943,6	4,029
944	4,857
944,4	6,714
944,9	7,029
945,3	10,857
945,7	11,029
946,1	7,143
946,6	5,2
947	4,171
947,4	6,2
947,8	6,029
948,2	0,629
948,7	3,629
949,1	1,229
949,5	7,029
949,9	9,771
950,3	4,429
950,8	-0,057
951,2	3,114
951,6	-1,829
952	5,429
952,5	-0,971
952,9	-1,086
953,3	1,629
953,7	6,171
954,1	8,543
954,6	13,629
955	11,657
955,4	16,771
955,8	18,6
956,2	18,6
956,7	18,286
957,1	12
957,5	9,857
957,9	7,686
958,3	6,4
958,8	6,686
959,2	9,371
959,6	7,4
960	11,8
960,5	11,6
960,9	13,286
961,3	13,657
961,7	9,886
962,1	3,257
962,6	6,229
963	3,714
963,4	-0,057
963,8	-1,886
964,2	-0,714
964,7	0,914
965,1	7,829
965,5	5,8
965,9	5,371
966,3	11,143
966,8	11,657
967,2	9,657
967,6	9,829
968	5,714
968,4	7,543
968,9	13,257
969,3	15,257
969,7	12,371
970,1	13,629
970,5	11,371
971	12,2
971,4	10,6
971,8	10,457
972,2	4,714
972,6	8,257
973,1	6,629
973,5	5,314
973,9	6,057
974,3	6,371
974,7	5,686
975,2	8,914
975,6	9,029
976	8,143
976,4	6,543
976,8	8,371
977,3	7,714
977,7	3,457
978,1	1,857
978,5	-2,086
978,9	-2,8
979,4	-3,743
979,8	-6,714
980,2	-6,486
980,6	-9,886
981	-4,229
981,5	-1,371
981,9	0,057
982,3	4,343
982,7	1,686
983,1	0,571
983,6	5,771
984	-1,029
984,4	-0,857
984,8	-2,229
985,2	-1,829
985,6	-2,114
986,1	1,943
986,5	2,629
986,9	-3,457
987,3	-2,057
987,7	0,057
988,2	-1,114
988,6	1,6
989	-0,486
989,4	0,2
989,8	5,714
990,3	4,343
990,7	3,657
991,1	2,257
991,5	3,057
991,9	6,029
992,3	7,971
992,8	12
993,2	10,543
993,6	11,743
994	16,286
994,4	12,743
994,9	8,771
995,3	5,514
995,7	5,686
996,1	4
996,5	-1,457
996,9	-3,657
997,4	1
997,8	-3,486
998,2	-5,371
998,6	-14,029
999	-11,343
999,5	-8,286
999,9	-9,971
1000,3	-14,771
1000,7	-9,914
1001,1	-6,6
1001,5	1,657
1002	4,6
1002,4	7,657
1002,8	5,257
1003,2	10,829
1003,6	15,2
1004	16,429
1004,5	11,086
1004,9	10,057
1005,3	5,914
1005,7	9,943
1006,1	4,029
1006,6	-0,629
1007	-1,229
1007,4	-2,971
1007,8	-0,743
1008,2	-0,343
1008,6	-1,086
1009,1	0,286
1009,5	0,514
1009,9	-3,086
1010,3	2,4
1010,7	0,457
1011,1	3,886
1011,6	9,429
1012	15,714
1012,4	13,943
1012,8	15,514
1013,2	18,371
1013,6	12,8
1014,1	15,343
1014,5	11,429
1014,9	7,486
1015,3	9,4
1015,7	9,4
1016,1	7,286
1016,6	10,314
1017	7,343
1017,4	3,229
1017,8	4,371
1018,2	5,086
1018,6	0,314
1019,1	-2,086
1019,5	-0,143
1019,9	-2,286
1020,3	0,971
1020,7	1
1021,1	-1,114
1021,6	4,743
1022	7,314
1022,4	6,029
1022,8	9,371
1023,2	13,943
1023,6	14,171
1024,1	19,4
1024,5	17,771
1024,9	13,657
1025,3	12,314
1025,7	10,514
1026,1	8,657
1026,6	7,943
1027	3,8
1027,4	7,886
1027,8	9,2
1028,2	7,314
1028,6	13,057
1029	9,486
1029,5	9,8
1029,9	8,114
1030,3	0,629
1030,7	2,057
1031,1	10,2
1031,5	4,171
1032	3,4
1032,4	1,829
1032,8	2,029
1033,2	5,914
1033,6	5,286
1034	1,029
1034,4	-2,2
1034,9	-0,114
1035,3	-3,886
1035,7	0,4
1036,1	-3,971
1036,5	-4,2
1036,9	-6,143
1037,4	0,286
1037,8	-2,086
1038,2	0,143
1038,6	-0,971
1039	7,486
1039,4	12,114
1039,8	10,029
1040,3	8,486
1040,7	8,771
1041,1	11,171
1041,5	13,629
1041,9	9,029
1042,3	7,857
1042,7	11,457
1043,2	11,343
1043,6	10,543
1044	11,114
1044,4	9,6
1044,8	9,657
1045,2	3,829
1045,6	4,629
1046,1	2
1046,5	-0,657
1046,9	-0,343
1047,3	-2,543
1047,7	-4,714
1048,1	-6,8
1048,5	-5,743
1049	1,743
1049,4	9,4
1049,8	3,543
1050,2	3,886
1050,6	8,857
1051	14,057
1051,4	8,8
1051,9	4,143
1052,3	7,543
1052,7	12,371
1053,1	12,657
1053,5	8,114
1053,9	8,314
1054,3	9,857
1054,8	11
1055,2	7,029
1055,6	8,743
1056	4,8
1056,4	6,429
1056,8	10,914
1057,2	10,886
1057,6	7,829
1058,1	8,429
1058,5	2,114
1058,9	10,257
1059,3	13,171
1059,7	9,057
1060,1	10,343
1060,5	9,114
1061	5,857
1061,4	6
1061,8	3,886
1062,2	3,514
1062,6	7
1063	6,686
1063,4	14,6
1063,8	14,257
1064,3	13,971
1064,7	10,371
1065,1	7,857
1065,5	4,857
1065,9	5,714
1066,3	-1,8
1066,7	-2,686
1067,1	-2,886
1067,6	1,143
1068	-2,029
1068,4	-2,857
1068,8	0,571
1069,2	0,429
1069,6	1,457
1070	8
1070,4	6,343
1070,9	6,914
1071,3	5,829
1071,7	1,486
1072,1	5,257
1072,5	5,086
1072,9	2,486
1073,3	0,8
1073,7	0,657
1074,2	2,429
1074,6	3,657
1075	1,371
1075,4	2,714
1075,8	6,6
1076,2	8,886
1076,6	14,257
1077	12,857
1077,5	14,286
1077,9	11,114
1078,3	9,771
1078,7	6,343
1079,1	7,114
1079,5	6,343
1079,9	8,829
1080,3	7,229
1080,7	8,686
1081,2	12,2
1081,6	9
1082	9,057
1082,4	6,8
1082,8	2,229
1083,2	5,086
1083,6	7,543
1084	5
1084,5	9,457
1084,9	3,143
1085,3	1,514
1085,7	6,543
1086,1	1,914
1086,5	3
1086,9	7,686
1087,3	4,457
1087,7	8,143
1088,2	10,914
1088,6	6,914
1089	8,8
1089,4	7,714
1089,8	4,171
1090,2	6,743
1090,6	4,286
1091	8,543
1091,4	10,714
1091,9	8,257
1092,3	8,514
1092,7	5,229
1093,1	6,286
1093,5	8,314
1093,9	0,686
1094,3	3,657
1094,7	6,371
1095,1	8,857
1095,5	12,457
1096	9,629
1096,4	10,714
1096,8	13,714
1097,2	13,971
1097,6	16,686
1098	12,143
1098,4	13,943
1098,8	14,943
1099,2	18,857
1099,6	16,057
1100,1	7,286
1100,5	4,857
1100,9	6,914
1101,3	3,686
1101,7	1,2
1102,1	-2,657
1102,5	3,8
1102,9	7,514
1103,3	8,857
1103,7	7,629
1104,2	8,971
1104,6	11,286
1105	8,943
1105,4	6,629
1105,8	6,4
1106,2	3,429
1106,6	3,314
1107	1,457
1107,4	0,8
1107,8	2,64
1108,3	-0,4
