Data from Subt2_027.txt Node
Date: Sat Aug 26 16:20:24 MSK 2023
User: vat
Spectrometer: MAYP114033
Trigger mode: 0
Integration Time (sec): 1,000000E0
Scans to average: 5
Electric dark correction enabled: true
Nonlinearity correction enabled: false
Boxcar width: 3
XAxis mode: Wavelengths
Number of Pixels in Spectrum: 2068
>>>>>Begin Spectral Data<<<<<
199,4	-0,55
199,9	-2,62
200,4	-4,233
200,8	-3,414
201,3	-0,471
201,8	-2,557
202,2	-2,471
202,7	-1,414
203,2	0,529
203,6	3,614
204,1	1,929
204,6	2,071
205	8,671
205,5	7,043
206	7,129
206,4	6,329
206,9	2,729
207,4	8,243
207,8	4,443
208,3	1,957
208,8	3,529
209,2	4,643
209,7	7,214
210,2	17,271
210,6	15,386
211,1	15,386
211,5	13,843
212	8,871
212,5	5,014
212,9	2,071
213,4	-3,614
213,9	-6,1
214,3	-6,671
214,8	-8,529
215,3	-6,529
215,7	-9,271
216,2	-3,414
216,7	-5,614
217,1	-4,671
217,6	-0,729
218,1	2,757
218,5	8,986
219	20,9
219,5	17,243
219,9	21,843
220,4	20,729
220,9	16,9
221,3	14,129
221,8	10,9
222,3	3,9
222,7	1,814
223,2	2,129
223,6	-1,614
224,1	1,214
224,6	1,614
225	1,671
225,5	6,243
226	5,186
226,4	2,1
226,9	4,929
227,4	7,186
227,8	9,471
228,3	10,3
228,8	5,929
229,2	10,014
229,7	8,729
230,2	14,443
230,6	8,957
231,1	8,414
231,5	14,386
232	19,271
232,5	16,1
232,9	14,357
233,4	11,471
233,9	11,729
234,3	9,7
234,8	3,1
235,3	-1,9
235,7	4,157
236,2	5,929
236,7	4,214
237,1	5,586
237,6	6,871
238,1	6,157
238,5	7,471
239	2,043
239,4	8,357
239,9	8,443
240,4	8,786
240,8	9,129
241,3	7,271
241,8	6,957
242,2	3,386
242,7	0,014
243,2	1,214
243,6	0,443
244,1	-1,329
244,6	-2,7
245	-2,957
245,5	1,729
245,9	-3,443
246,4	-1,729
246,9	-2,414
247,3	-1,443
247,8	-0,271
248,3	2,1
248,7	2,786
249,2	4,071
249,7	0,471
250,1	2,9
250,6	1,871
251	2,186
251,5	-2,814
252	-4,729
252,4	-4,214
252,9	-0,786
253,4	-2,357
253,8	-0,843
254,3	5,071
254,8	10,357
255,2	12,529
255,7	12,7
256,1	7,586
256,6	10,129
257,1	11,043
257,5	7,871
258	1,614
258,5	4,586
258,9	3,3
259,4	7,871
259,9	9,157
260,3	6,614
260,8	8,871
261,2	16,557
261,7	12,757
262,2	16,329
262,6	13,271
263,1	8,871
263,6	12,071
264	7,757
264,5	3,614
264,9	0,757
265,4	0,071
265,9	5,214
266,3	9,129
266,8	4,671
267,3	10,7
267,7	13,1
268,2	17,214
268,7	13,243
269,1	10,014
269,6	8,786
270	10,1
270,5	8,043
271	5,3
271,4	0,271
271,9	2,614
272,4	3,443
272,8	0,5
273,3	-2,186
273,7	-6,329
274,2	-3,843
274,7	0,243
275,1	-2,871
275,6	-2,957
276,1	1,157
276,5	7,557
277	11,157
277,4	10,471
277,9	10,814
278,4	18,357
278,8	21,586
279,3	18,1
279,8	18,586
280,2	17,557
280,7	16,843
281,1	19,586
281,6	22,414
282,1	20,414
282,5	22,9
283	21,214
283,4	23,243
283,9	20,357
284,4	16,3
284,8	7,729
285,3	4,271
285,8	4,814
286,2	2,329
286,7	0,443
287,1	-1,471
287,6	1,871
288,1	4,1
288,5	6,5
289	4,729
289,5	2,471
289,9	4,529
290,4	6,071
290,8	7,1
291,3	5,271
291,8	3,1
292,2	2,957
292,7	7,186
293,1	3,757
293,6	7,157
294,1	1,043
294,5	4,7
295	4,5
295,5	6,586
295,9	5,5
296,4	9,214
296,8	6,843
297,3	10,214
297,8	8,386
298,2	9,729
298,7	7,871
299,1	11,529
299,6	8,9
300,1	11,986
300,5	13,186
301	12,471
301,5	14,071
301,9	12,414
302,4	10,071
302,8	8,557
303,3	6,386
303,8	0,986
304,2	2,386
304,7	0,357
305,1	4,757
305,6	1,214
306,1	1,671
306,5	3,529
307	7,186
307,4	4,357
307,9	3,014
308,4	2,5
308,8	7,357
309,3	8,871
309,8	9,986
310,2	7,157
310,7	14,586
311,1	12,814
311,6	10,357
312,1	9,986
312,5	9,871
313	6,443
313,4	6,929
313,9	7,529
314,4	8,014
314,8	9,614
315,3	8,3
315,7	6,614
316,2	4,814
316,7	8,9
317,1	6,7
317,6	9,129
318	11,529
318,5	13,671
319	13,871
319,4	16,186
319,9	17,414
320,3	15,014
320,8	15,129
321,3	11,043
321,7	9,443
322,2	9,729
322,6	7,786
323,1	5,1
323,6	1,643
324	1,329
324,5	-3,1
324,9	-2,043
325,4	2,757
325,9	6,929
326,3	6,586
326,8	9,271
327,2	7,1
327,7	9,729
328,2	6,357
328,6	3,386
329,1	3,757
329,5	5,271
330	6,471
330,5	10,043
330,9	12,557
331,4	13,529
331,8	16,557
332,3	18,357
332,8	12,614
333,2	10,614
333,7	9,1
334,1	9,329
334,6	13,529
335,1	9,014
335,5	7,186
336	7,071
336,4	7,357
336,9	10,043
337,4	11,957
337,8	9,957
338,3	13,614
338,7	13,3
339,2	19,843
339,7	16,157
340,1	14,557
340,6	10,786
341	14,957
341,5	12,786
342	11,729
342,4	7,929
342,9	12,443
343,3	12,7
343,8	18,757
344,2	15,214
344,7	15,071
345,2	13,014
345,6	16,443
346,1	17,957
346,5	19,529
347	14,414
347,5	11,871
347,9	10,043
348,4	13,214
348,8	10,643
349,3	10,414
349,8	11,386
350,2	16,871
350,7	20,329
351,1	24,014
351,6	24,7
352	36,9
352,5	41,157
353	50,414
353,4	57,243
353,9	69,9
354,3	84,814
354,8	98,243
355,3	108,271
355,7	130,186
356,2	149,729
356,6	173,186
357,1	197,986
357,5	227,5
358	273,386
358,5	318,271
358,9	366,929
359,4	422,071
359,8	483,957
360,3	552,186
360,8	629,471
361,2	712,614
361,7	805,243
362,1	913,786
362,6	1032,729
363	1157,5
363,5	1296,214
364	1438,214
364,4	1575,814
364,9	1714,814
365,3	1845,614
365,8	1969,814
366,3	2090,643
366,7	2195,443
367,2	2281,614
367,6	2355,957
368,1	2411,529
368,5	2445,386
369	2459,5
369,5	2454,786
369,9	2424,386
370,4	2381,9
370,8	2317,957
371,3	2247,9
371,7	2159,871
372,2	2070,014
372,7	1954,986
373,1	1850,814
373,6	1738,357
374	1626,957
374,5	1513,643
374,9	1405,357
375,4	1295,071
375,9	1206,557
376,3	1108,7
376,8	1021,729
377,2	940,871
377,7	865,186
378,2	796,9
378,6	731,614
379,1	664,471
379,5	613,957
380	564,243
380,4	521,529
380,9	478,9
381,4	439,614
381,8	407,529
382,3	379,757
382,7	346,271
383,2	321,386
383,6	294,5
384,1	273,129
384,6	247,586
385	226,586
385,5	209,814
385,9	197,557
386,4	185,786
386,8	177,614
387,3	164,557
387,7	159,871
388,2	150,529
388,7	142,957
389,1	132,529
389,6	120,957
390	113,7
390,5	104,986
390,9	101,9
391,4	94,271
391,9	86,243
392,3	78,586
392,8	74,471
393,2	65,357
393,7	67,014
394,1	63,129
394,6	62,471
395,1	62,471
395,5	64,957
396	65,243
396,4	65,786
396,9	60,7
397,3	57,671
397,8	58,071
398,2	58,014
398,7	52,186
399,2	48,471
399,6	50,243
400,1	48,843
400,5	48,043
401	48,9
401,4	47,5
401,9	55,614
402,4	57,586
402,8	57,357
403,3	60,271
403,7	62,414
404,2	62,9
404,6	63,929
405,1	59,786
405,5	58,1
406	57,129
406,5	56,014
406,9	54,3
407,4	58,586
407,8	60,786
408,3	64,129
408,7	73,557
409,2	78,186
409,6	88,357
410,1	102,5
410,6	107,443
411	113,071
411,5	121,071
411,9	126,243
412,4	137,3
412,8	144,957
413,3	148,871
413,7	156,357
414,2	168,557
414,7	183,271
415,1	192,614
415,6	206,614
416	219,586
416,5	233,329
416,9	253,186
417,4	269,1
417,8	281,871
418,3	307,329
418,8	318,329
419,2	337,9
419,7	358,214
420,1	370,471
420,6	391,471
421	415,929
421,5	431,471
421,9	458,757
422,4	480,3
422,8	506,843
423,3	537,843
423,8	571,843
424,2	598,357
424,7	630,986
425,1	657,1
425,6	694,5
426	729,843
426,5	766,3
426,9	803,843
427,4	849,243
427,9	888,957
428,3	941,357
428,8	987,929
429,2	1037,243
429,7	1087,443
430,1	1141,786
430,6	1197,929
431	1259,186
431,5	1322,414
431,9	1390,957
432,4	1464,214
432,8	1540,471
433,3	1610,529
433,8	1689,929
434,2	1778,757
434,7	1868,757
435,1	1966,671
435,6	2069,386
436	2171,386
436,5	2289,243
436,9	2402,3
437,4	2520,443
437,8	2636,357
438,3	2755,729
438,8	2880,271
439,2	3012,357
439,7	3145,357
440,1	3288,957
440,6	3442,9
441	3594,671
441,5	3752,843
441,9	3916,357
442,4	4094,129
442,8	4272,043
443,3	4455,729
443,7	4637,5
444,2	4836,814
444,7	5040,157
445,1	5244,557
445,6	5447,614
446	5661,071
446,5	5874,5
446,9	6093,643
447,4	6322,814
447,8	6555,529
448,3	6796,929
448,7	7045,929
449,2	7297,443
449,6	7564,271
450,1	7832,157
450,6	8096,529
451	8353,586
451,5	8635,014
451,9	8920,643
452,4	9211,443
452,8	9498,986
453,3	9793,986
453,7	10096,3
454,2	10413,214
454,6	10719,871
455,1	11024,929
455,5	11332,186
456	11650,643
456,4	11983,557
456,9	12320,871
457,3	12654,157
457,8	12996,214
458,3	13340,729
458,7	13700,729
459,2	14054,271
459,6	14401,186
460,1	14751,1
460,5	15108,3
461	15457,529
461,4	15816,329
461,9	16157,557
462,3	16510,843
462,8	16869,557
463,2	17229,929
463,7	17576,557
464,1	17937,271
464,6	18296,529
465	18666,7
465,5	19019,614
466	19358,729
466,4	19706,386
466,9	20060,7
467,3	20407,329
467,8	20759,757
468,2	21099,1
468,7	21437,271
469,1	21784,214
469,6	22110,671
470	22456,9
470,5	22766,643
470,9	23086,729
471,4	23399,271
471,8	23719,014
472,3	24017,9
472,7	24327,9
473,2	24599,3
473,6	24893,843
474,1	25167,386
474,5	25445,729
475	25716,471
475,4	25976,843
475,9	26244,5
476,4	26505,986
476,8	26755,471
477,3	26979,986
477,7	27216,1
478,2	27429,843
478,6	27646,671
479,1	27832,929
479,5	28032,157
480	28217,757
480,4	28406,7
480,9	28561,671
481,3	28709,814
481,8	28873,671
482,2	29024,071
482,7	29168,786
483,1	29314,557
483,6	29426,586
484	29547,586
484,5	29680,414
484,9	29771,071
485,4	29856,071
485,8	29922,843
486,3	29956,757
486,7	30020,9
487,2	30056,929
487,6	30080,929
488,1	30110,986
488,5	30129,614
489	30132,071
489,4	30165,357
489,9	30162,271
490,4	30159,214
490,8	30134,5
491,3	30094,814
491,7	30061,871
492,2	30039,386
492,6	29980,5
493,1	29915,671
493,5	29833,986
494	29773,157
494,4	29694,786
494,9	29586,643
495,3	29476,386
495,8	29378,471
496,2	29285,071
496,7	29192,214
497,1	29069,1
497,6	28956,786
498	28848,729
498,5	28725,7
498,9	28600,586
499,4	28461,014
499,8	28323,7
500,3	28189,786
500,7	28055,614
501,2	27921,7
501,6	27780,357
502,1	27616,929
502,5	27469,557
503	27330,929
503,4	27166,1
503,9	27006,3
504,3	26842,329
504,8	26667,1
505,2	26491,786
505,7	26315,186
506,1	26118,586
506,6	25914,529
507	25709,843
507,5	25504,5
507,9	25315,786
508,4	25126,329
508,8	24920,729
509,3	24714,9
509,7	24522,3
510,2	24317,3
510,6	24114,7
511,1	23903,3
511,5	23682,3
512	23477,643
512,4	23267,414
512,9	23058,271
513,3	22848,471
513,8	22639,357
514,2	22421,986
514,7	22207,557
515,1	21976,557
515,6	21767,929
516	21555,129
516,5	21339,786
516,9	21127,929
517,4	20919,129
517,8	20712,5
518,3	20508,986
518,7	20285,671
519,2	20071,329
519,6	19848,843
520,1	19635,214
520,5	19424,643
521	19215,586
521,4	19001,3
521,9	18805,9
522,3	18604,529
522,8	18418,243
523,2	18217,9
523,7	18022,414
524,1	17812,243
524,6	17614,414
525	17420,014
525,5	17226,386
525,9	17020,386
526,4	16817,214
526,8	16620,871
527,3	16442,129
527,7	16266,643
528,2	16069,986
528,6	15889,214
529,1	15717,871
529,5	15545,043
530	15367,243
530,4	15192,014
530,9	15002,443
531,3	14832,7
531,8	14658,129
532,2	14499,214
532,6	14327,271
533,1	14150,671
533,5	13981,414
534	13826,214
534,4	13670,414
534,9	13517,671
535,3	13358,357
535,8	13206,043
536,2	13059,786
536,7	12908,871
537,1	12757,643
537,6	12608,157
538	12463,186
538,5	12320,986
538,9	12180,671
539,4	12046,214
539,8	11917,986
540,3	11792,386
540,7	11658,043
541,2	11527,071
541,6	11391,929
542,1	11266,129
542,5	11136,814
543	11011,529
543,4	10893,186
543,9	10768,929
544,3	10643,014
544,8	10524,357
545,2	10402,129
545,7	10289,157
546,1	10185,529
546,5	10061,9
547	9953,186
547,4	9850,186
547,9	9736,9
548,3	9639,7
548,8	9537,814
549,2	9426,214
549,7	9338,157
550,1	9238,671
550,6	9134,814
551	9047,271
551,5	8946,186
551,9	8847,757
552,4	8756,3
552,8	8660,843
553,3	8579,071
553,7	8490,043
554,2	8396,929
554,6	8315,443
555,1	8238,843
555,5	8152,071
555,9	8070,071
556,4	7983,5
556,8	7903,871
557,3	7829,557
557,7	7755,814
558,2	7677,529
558,6	7607,271
559,1	7529,214
559,5	7456,9
560	7394,071
560,4	7323,329
560,9	7245,014
561,3	7174,614
561,8	7107,757
562,2	7041,986
562,7	6973,986
563,1	6900,786
563,6	6834,529
564	6776,871
564,4	6717,3
564,9	6647,329
565,3	6589,871
565,8	6533,729
566,2	6479,843
566,7	6420,929
567,1	6367,186
567,6	6300,671
568	6247,129
568,5	6178,786
568,9	6117,186
569,4	6059,557
569,8	6001,957
570,3	5945,243
570,7	5896,529
571,1	5841,986
571,6	5796,843
572	5742,186
572,5	5690,757
572,9	5649,071
573,4	5593,043
573,8	5542,529
574,3	5497,929
574,7	5450,9
575,2	5409,929
575,6	5365,643
576,1	5313,986
576,5	5271,386
576,9	5225,814
577,4	5179,814
577,8	5131,214
578,3	5083,929
578,7	5038,071
579,2	4995,243
579,6	4958,043
580,1	4914,586
580,5	4872,643
581	4839,814
581,4	4797,357
581,9	4760,557
582,3	4712,014
582,7	4665,957
583,2	4628,586
583,6	4581,871
584,1	4537,786
584,5	4503,614
585	4462,671
585,4	4430,471
585,9	4394,186
586,3	4358,129
586,8	4328,129
587,2	4294,471
587,6	4252,386
588,1	4217,129
588,5	4181,814
589	4141,214
589,4	4104,843
589,9	4068,443
590,3	4035,414
590,8	4008,871
591,2	3974,271
591,7	3949,871
592,1	3923,357
592,5	3897,414
593	3876,157
593,4	3847,414
593,9	3816,471
594,3	3793,157
594,8	3763,729
595,2	3740,586
595,7	3713,157
596,1	3685,557
596,6	3664,557
597	3645,129
597,4	3612,5
597,9	3585,557
598,3	3558,786
598,8	3530,243
599,2	3507,271
599,7	3477,3
600,1	3449,586
600,6	3424,929
601	3398,443
601,4	3378,643
601,9	3356,214
602,3	3325,5
602,8	3302,671
603,2	3281,443
603,7	3264,014
604,1	3245,3
604,6	3214,557
605	3190,529
605,4	3174,871
605,9	3147,414
606,3	3121,271
606,8	3096,957
607,2	3077,243
607,7	3062,157
608,1	3048,643
608,6	3024,1
609	3010,529
609,4	2991,186
609,9	2971,243
610,3	2944,043
610,8	2925,729
611,2	2902,471
611,7	2883,357
612,1	2859,043
612,6	2843,529
613	2827,414
613,4	2808,986
613,9	2782,671
614,3	2761,586
614,8	2735,243
615,2	2713,643
615,7	2695,5
616,1	2673,871
616,6	2656,529
617	2638,529
617,4	2619,357
617,9	2602,671
618,3	2591,814
618,8	2568,7
619,2	2551,586
619,7	2535,814
620,1	2514,014
620,5	2491,643
621	2477,5
621,4	2453,271
621,9	2435,986
622,3	2424,586
622,8	2400,357
623,2	2387,5
623,6	2373,814
624,1	2358,357
624,5	2344,043
625	2330,471
625,4	2311,557
625,9	2295,7
626,3	2279,3
626,8	2265,5
627,2	2248,414
627,6	2229,557
628,1	2208,643
628,5	2190,271
629	2177,329
629,4	2153,929
629,9	2134,329
630,3	2115,5
630,7	2107,5
631,2	2088,786
631,6	2072,357
632,1	2053,471
632,5	2048,757
633	2029,614
633,4	2018,071
633,8	1998,7
634,3	1985,5
634,7	1967,443
635,2	1957,729
635,6	1937,9
636,1	1936,014
636,5	1922,014
636,9	1908,014
637,4	1897,5
637,8	1888,586
638,3	1874,3
638,7	1870,129
639,2	1854,186
639,6	1835,9
640	1819,157
640,5	1805,586
640,9	1788,871
641,4	1773,157
641,8	1751,671
642,2	1738,729
642,7	1732,071
643,1	1729,986
643,6	1719,1
644	1713,814
644,5	1705,357
644,9	1695,329
645,3	1684,271
645,8	1675,643
646,2	1665,443
646,7	1652,586
647,1	1639,7
647,6	1628,729
648	1617,586
648,4	1606,986
648,9	1595,329
649,3	1579,843
649,8	1574,357
650,2	1561,471
650,6	1552,471
651,1	1546,643
651,5	1535,3
652	1521,414
652,4	1510,214
652,9	1501,614
653,3	1489,957
653,7	1476,7
654,2	1467,214
654,6	1457,5
655,1	1447,9
655,5	1435,5
655,9	1416,871
656,4	1413,529
656,8	1403,729
657,3	1387,757
657,7	1375,186
658,2	1367,3
658,6	1353,386
659	1345,414
659,5	1325,929
659,9	1319,014
660,4	1311,3
660,8	1306,1
661,2	1292,671
661,7	1287,643
662,1	1278,586
662,6	1272,671
663	1262,3
663,4	1255,043
663,9	1242,157
664,3	1236,471
664,8	1229,414
665,2	1220,7
665,6	1215,357
666,1	1203,957
666,5	1191,5
667	1179,214
667,4	1174,957
667,9	1158,529
668,3	1151,357
668,7	1145,129
669,2	1137,414
669,6	1130,3
670,1	1131,386
670,5	1111,443
670,9	1111,929
671,4	1103,329
671,8	1090,3
672,3	1087,3
672,7	1080,5
673,1	1067,557
673,6	1066,786
674	1058,9
674,5	1053,757
674,9	1046,243
675,3	1036,529
675,8	1027,671
676,2	1023,729
676,7	1012,786
677,1	1004,643
677,5	994,529
678	988,671
678,4	982,271
678,9	975,329
679,3	961,643
679,7	958,871
680,2	954,814
680,6	945,271
681,1	937,557
681,5	925,929
681,9	919,043
682,4	917,043
682,8	907,929
683,3	896,757
683,7	887,214
684,1	878,757
684,6	878,129
685	870,271
685,5	864,043
685,9	858,557
686,3	854,7
686,8	854,071
687,2	852,443
687,7	838,529
688,1	836,271
688,5	827,043
689	822,786
689,4	819,357
689,9	814,9
690,3	810,3
690,7	809,757
691,2	802,1
691,6	802,786
692	793,586
692,5	779,7
692,9	769,643
693,4	762,671
693,8	757,786
694,2	747,414
694,7	736,986
695,1	732,871
695,6	730,071
696	729,471
696,4	721,129
696,9	717,414
697,3	720,186
697,8	711,386
698,2	702,471
698,6	697,986
699,1	687,529
699,5	685,586
699,9	677,643
700,4	668,557
700,8	670,043
701,3	668,129
701,7	667,186
702,1	664,614
702,6	660,614
703	651,957
703,5	649,557
703,9	642,814
704,3	639,814
704,8	630,671
705,2	626,614
705,6	612,471
706,1	614,786
706,5	611,871
707	604,786
707,4	600,386
707,8	596,871
708,3	590,9
708,7	594,671
709,2	584,929
709,6	583,471
710	580,7
710,5	577,957
710,9	576,3
711,3	572,157
711,8	565,729
712,2	565,929
712,7	557,3
713,1	552,729
713,5	546,643
714	541,014
714,4	537,443
714,8	534,043
715,3	531,129
715,7	527,157
716,2	516,414
716,6	514,5
717	508,957
717,5	508,786
717,9	504,3
718,3	497,529
718,8	496,071
719,2	497,786
719,7	495,243
720,1	493,929
720,5	490,957
721	486,929
721,4	486,7
721,8	482,5
722,3	476,7
722,7	467,557
723,2	462,443
723,6	458,7
724	457,386
724,5	444,586
724,9	440,071
725,3	440,586
725,8	437,529
726,2	431,014
726,7	422,271
727,1	412,557
727,5	417,671
728	413,871
728,4	407,157
728,8	409,414
729,3	408,243
729,7	407,843
730,1	412,957
730,6	410,157
731	407,043
731,5	406,671
731,9	400,414
732,3	402,586
732,8	401,529
733,2	397,529
733,6	394,643
734,1	392,214
734,5	387,043
734,9	384,243
735,4	382,243
735,8	379,243
736,3	371,757
736,7	370,757
737,1	370,786
737,6	370,5
738	367,671
738,4	365,414
738,9	363,957
739,3	362,157
739,7	358,243
740,2	351,243
740,6	349,814
741,1	349,643
741,5	348,186
741,9	340,7
742,4	340,9
742,8	339,871
743,2	338,5
743,7	336,271
744,1	329,357
744,5	321,329
745	321,243
745,4	318,414
745,8	314,529
746,3	319,3
746,7	316,157
747,2	324,386
747,6	325,7
748	324,871
748,5	318,5
748,9	313,786
749,3	305,843
749,8	299,9
750,2	292,957
750,6	286,614
751,1	287,7
751,5	288,671
751,9	290,443
752,4	288,014
752,8	289,1
753,3	287,071
753,7	289,843
754,1	284,1
754,6	285,471
755	281,786
755,4	274,386
755,9	273,414
756,3	267,129
756,7	265,071
757,2	264,929
757,6	260,186
758	252,643
758,5	256,386
758,9	254,043
759,3	256,357
759,8	256,643
760,2	258,014
760,6	262,014
761,1	265,671
761,5	265,614
761,9	263,386
762,4	257,729
762,8	251,557
763,3	245,329
763,7	235,786
764,1	231,986
764,6	226,414
765	224,557
765,4	223,3
765,9	217,471
766,3	217,386
766,7	218,614
767,2	221,729
767,6	222,5
768	220,243
768,5	221,014
768,9	221,414
769,3	219,786
769,8	221,243
770,2	220,586
770,6	219,157
771,1	221,043
771,5	221,586
771,9	223,386
772,4	227,786
772,8	222,443
773,2	221,7
773,7	223,186
774,1	224,071
774,5	222,729
775	219,1
775,4	210,843
775,8	214,757
776,3	207,643
776,7	205,043
777,1	205,7
777,6	199,814
778	201,586
778,4	199,929
778,9	196,414
779,3	199,071
779,7	195,614
780,2	189,957
780,6	193,214
781	191,843
781,5	193,929
781,9	189,414
782,3	189,329
782,8	190,129
783,2	187,814
783,6	183,357
784,1	184,7
784,5	180,671
784,9	183,043
785,4	182,843
785,8	178,957
786,2	180,214
786,7	182,357
787,1	177,557
787,5	177,414
788	170,614
788,4	164,043
788,8	161,357
789,3	159,014
789,7	155,671
790,1	158,243
790,6	157,071
791	159,214
791,4	158,671
791,9	162,043
792,3	159,986
792,7	161,5
793,2	155,471
793,6	154,386
794	154,729
794,5	155,557
794,9	156,786
795,3	160,529
795,8	153,7
796,2	155,957
796,6	154,529
797,1	150,271
797,5	148,329
797,9	140,443
798,4	134,814
798,8	138,357
799,2	133,443
799,7	137,929
800,1	134,614
800,5	130,957
801	133,814
801,4	129,586
801,8	127,414
802,2	126,986
802,7	121,357
803,1	126,071
803,5	129,386
804	126,586
804,4	129,357
804,8	129,5
805,3	128,643
805,7	127,614
806,1	123,871
806,6	124,729
807	128,186
807,4	125,529
807,9	126,186
808,3	126,129
808,7	121,729
809,2	122,043
809,6	118,843
810	111,186
810,4	114,5
810,9	110,443
811,3	106,843
811,7	109,071
812,2	112,843
812,6	110,757
813	114,729
813,5	113,014
813,9	113,243
814,3	115,529
814,8	115,757
815,2	110,271
815,6	109,757
816,1	110,186
816,5	108,214
816,9	111,986
817,3	109,157
817,8	112,443
818,2	107,586
818,6	109,243
819,1	106,843
819,5	106,529
819,9	98,786
820,4	100,929
820,8	91,814
821,2	97,443
821,7	95,386
822,1	94,5
822,5	90,957
822,9	94,129
823,4	92,414
823,8	96,586
824,2	93,443
824,7	96,043
825,1	94,529
825,5	98,5
826	92,529
826,4	95,1
826,8	93,586
827,3	96,871
827,7	93,5
828,1	92,843
828,5	91,071
829	93,729
829,4	95,271
829,8	90,7
830,3	90,7
830,7	83,1
831,1	83,9
831,6	74,614
832	74,9
832,4	71,186
832,8	74,643
833,3	66,3
833,7	73,243
834,1	74,557
834,6	77,786
835	78,786
835,4	77,386
835,8	71,843
836,3	72,814
836,7	69,929
837,1	68,471
837,6	68,471
838	65,929
838,4	66,671
838,9	76,557
839,3	82,671
839,7	79,614
840,1	75,843
840,6	76,557
841	74,1
841,4	69,386
841,9	59,414
842,3	54,729
842,7	57,071
843,1	59,071
843,6	62,1
844	62,1
844,4	66,871
844,9	72,214
845,3	68,357
845,7	69,843
846,2	66,9
846,6	63,729
847	61,729
847,4	57,243
847,9	56,7
848,3	61,957
848,7	60,814
849,2	65,186
849,6	67,414
850	68,1
850,4	71,214
850,9	67,557
851,3	58,529
851,7	54,986
852,2	46,9
852,6	46,957
853	49,386
853,4	47,957
853,9	46,871
854,3	52,9
854,7	50,043
855,2	51,614
855,6	46,5
856	43,9
856,4	45,414
856,9	45,243
857,3	46,843
857,7	56,871
858,2	57,786
858,6	59,786
859	57,871
859,4	55,414
859,9	55,871
860,3	54,757
860,7	46,986
861,1	47,071
861,6	48,329
862	47,986
862,4	50,271
862,9	50,529
863,3	47,586
863,7	47,214
864,1	48,214
864,6	43,9
865	42,7
865,4	35,871
865,9	32,186
866,3	32,043
866,7	33,557
867,1	34,129
867,6	36,957
868	42,529
868,4	41,5
868,8	44,814
869,3	47,071
869,7	45,871
870,1	45,757
870,6	43,614
871	51,986
871,4	52,957
871,8	48,043
872,3	46,529
872,7	48,271
873,1	46,614
873,5	48,9
874	38,414
874,4	37,843
874,8	39,814
875,3	35,7
875,7	30,957
876,1	25,043
876,5	24,614
877	21,986
877,4	24,329
877,8	26,586
878,2	28,871
878,7	34,043
879,1	40,071
879,5	35,443
879,9	36,929
880,4	31,7
880,8	32,329
881,2	33,414
881,7	34,871
882,1	32,271
882,5	34,414
882,9	33,357
883,4	37,157
883,8	35,3
884,2	33,786
884,6	29,614
885,1	33,843
885,5	36,214
885,9	40,443
886,3	42,329
886,8	39,786
887,2	36,929
887,6	32,671
888	28,557
888,5	30,986
888,9	28,7
889,3	23,929
889,8	23,586
890,2	24,529
890,6	28,271
891	27,929
891,5	22,9
891,9	21,957
892,3	25,271
892,7	26,957
893,2	30,986
893,6	28,443
894	25,729
894,4	27,786
894,9	25,9
895,3	22,843
895,7	25,014
896,1	25,271
896,6	26,586
897	30,243
897,4	22,357
897,8	23,957
898,3	30,557
898,7	28,357
899,1	22,643
899,5	21,529
900	21,5
900,4	27,071
900,8	25,814
901,2	18,814
901,7	16,671
902,1	22,043
902,5	20,7
902,9	19,871
903,4	21,129
903,8	15,014
904,2	19,557
904,6	19,7
905,1	19,214
905,5	17,5
905,9	15,643
906,3	11,786
906,8	18,643
907,2	12,614
907,6	13,043
908	10,957
908,5	15,929
908,9	15,5
909,3	15,271
909,7	12,386
910,2	13,471
910,6	16,929
911	16,671
911,4	12,7
911,9	14,329
912,3	16,843
912,7	18,614
913,1	15,929
913,6	12,986
914	17,129
914,4	17,357
914,8	18,414
915,3	14,471
915,7	10,3
916,1	10,186
916,5	10,929
916,9	5,729
917,4	12,1
917,8	7,014
918,2	5,071
918,6	8,5
919,1	11,729
919,5	14,214
919,9	12,671
920,3	7,329
920,8	10,243
921,2	18,7
921,6	14,671
922	12,643
922,5	11,414
922,9	11,157
923,3	14,614
923,7	10,043
924,2	2,443
924,6	5,957
925	6,071
925,4	6,329
925,8	7,386
926,3	8,671
926,7	16,5
927,1	22,157
927,5	21,129
928	20,671
928,4	18,414
928,8	24,1
929,2	19,814
929,7	14,271
930,1	9,1
930,5	9,243
930,9	9,243
931,3	8,957
931,8	1,214
932,2	1,157
932,6	3,386
933	0,929
933,5	-0,671
933,9	2,471
934,3	0,386
934,7	9,5
935,2	12,586
935,6	14,9
936	15,3
936,4	15,929
936,8	15,786
937,3	17,843
937,7	13,871
938,1	6,814
938,5	3,9
939	11,529
939,4	16,271
939,8	16,071
940,2	17,329
940,6	14,386
941,1	20,7
941,5	23,071
941,9	18,586
942,3	15,214
942,8	15,329
943,2	10,014
943,6	15,614
944	9,7
944,4	2,414
944,9	4,7
945,3	8,529
945,7	7,957
946,1	10,414
946,6	5,329
947	8,157
947,4	13,529
947,8	11,843
948,2	5,786
948,7	7,7
949,1	6,329
949,5	6,271
949,9	6,357
950,3	4,643
950,8	3,329
951,2	2,386
951,6	1,271
952	1,3
952,5	-3,186
952,9	-3,986
953,3	-3,443
953,7	1,9
954,1	2,957
954,6	2,786
955	5,129
955,4	7,3
955,8	14,271
956,2	13,214
956,7	12,871
957,1	15,557
957,5	14,157
957,9	11,443
958,3	13,243
958,8	11,071
959,2	13,643
959,6	13,214
960	11,243
960,5	8,557
960,9	10,157
961,3	7,386
961,7	0,7
962,1	-3,871
962,6	-9,3
963	-10,471
963,4	-8,643
963,8	-7,329
964,2	-8,157
964,7	-4,786
965,1	0,414
965,5	5,957
965,9	9,671
966,3	6,843
966,8	4,986
967,2	10,414
967,6	11,786
968	11,3
968,4	11,357
968,9	14,957
969,3	14,986
969,7	13,586
970,1	11,786
970,5	13,414
971	8,529
971,4	7,671
971,8	7,529
972,2	12,614
972,6	14,1
973,1	14,329
973,5	12,614
973,9	13,157
974,3	10,157
974,7	4,071
975,2	4,386
975,6	1,843
976	3,414
976,4	1,814
976,8	3,3
977,3	3,043
977,7	-0,386
978,1	-0,9
978,5	1,186
978,9	-0,786
979,4	-3,329
979,8	0,043
980,2	0,986
980,6	7,357
981	10,957
981,5	14,271
981,9	14,586
982,3	13,757
982,7	11,271
983,1	17,729
983,6	15,214
984	11,7
984,4	11,814
984,8	12,186
985,2	14,386
985,6	18,871
986,1	10,157
986,5	5,957
986,9	7,729
987,3	3,757
987,7	3,186
988,2	5,243
988,6	1,614
989	4,186
989,4	11,214
989,8	3,786
990,3	5,614
990,7	5,271
991,1	3,643
991,5	-1,671
991,9	2,957
992,3	-0,586
992,8	6,357
993,2	8,329
993,6	9,243
994	7,843
994,4	10,614
994,9	4,957
995,3	7,214
995,7	7,729
996,1	4,814
996,5	4,9
996,9	5,529
997,4	4,271
997,8	0,071
998,2	-0,443
998,6	-2,729
999	-1,871
999,5	-4,071
999,9	-2,7
1000,3	4,729
1000,7	9,043
1001,1	6,986
1001,5	4,643
1002	0,5
1002,4	0,9
1002,8	-0,757
1003,2	-5,014
1003,6	-1,529
1004	-2,7
1004,5	-5,414
1004,9	-3,186
1005,3	-5,1
1005,7	-4,414
1006,1	-4,586
1006,6	-6,414
1007	-7,3
1007,4	-2,671
1007,8	-4,957
1008,2	-6,729
1008,6	-8,414
1009,1	-11,757
1009,5	-8,471
1009,9	-1,214
1010,3	0,329
1010,7	6,071
1011,1	14,186
1011,6	13,786
1012	17,557
1012,4	13,929
1012,8	7,357
1013,2	6,614
1013,6	4,271
1014,1	3,471
1014,5	5,614
1014,9	6,986
1015,3	5,9
1015,7	5,186
1016,1	1,329
1016,6	0,871
1017	0,071
1017,4	0,843
1017,8	-1,129
1018,2	-0,414
1018,6	3,729
1019,1	3,986
1019,5	3,471
1019,9	5,671
1020,3	2,671
1020,7	3,3
1021,1	2,214
1021,6	-0,957
1022	-1,729
1022,4	0,243
1022,8	-6,957
1023,2	-3,671
1023,6	-5,1
1024,1	-0,957
1024,5	0,071
1024,9	5,243
1025,3	3,814
1025,7	9,414
1026,1	8,586
1026,6	9,729
1027	2,071
1027,4	3,157
1027,8	2,414
1028,2	2,186
1028,6	3,414
1029	5,614
1029,5	3,043
1029,9	4,814
1030,3	6,329
1030,7	1,729
1031,1	2,071
1031,5	-2,271
1032	-4,671
1032,4	-6,443
1032,8	-3,843
1033,2	-4,757
1033,6	-0,614
1034	1,414
1034,4	6,614
1034,9	2,786
1035,3	10,7
1035,7	7,871
1036,1	6,729
1036,5	2,529
1036,9	1,129
1037,4	-1,329
1037,8	3,529
1038,2	-8,671
1038,6	-5,614
1039	-7,129
1039,4	-3,557
1039,8	-13,129
1040,3	-14,386
1040,7	-18,9
1041,1	-7,186
1041,5	-10,871
1041,9	-4,243
1042,3	-2,929
1042,7	9,157
1043,2	7,7
1043,6	15,471
1044	11,414
1044,4	12,757
1044,8	4,129
1045,2	2,843
1045,6	0,643
1046,1	4,814
1046,5	2,214
1046,9	2,757
1047,3	10,214
1047,7	13,529
1048,1	11,729
1048,5	15,386
1049	17,329
1049,4	13,843
1049,8	14,357
1050,2	9,243
1050,6	11,986
1051	16,214
1051,4	10,157
1051,9	10,243
1052,3	9,557
1052,7	12,329
1053,1	15,557
1053,5	11,271
1053,9	5,9
1054,3	8,5
1054,8	12,043
1055,2	13,271
1055,6	8,671
1056	6,9
1056,4	11,129
1056,8	12,814
1057,2	17,557
1057,6	6,3
1058,1	8,5
1058,5	6,729
1058,9	5,957
1059,3	5,729
1059,7	0,643
1060,1	-4,614
1060,5	-2,3
1061	-4,529
1061,4	0,843
1061,8	-1,186
1062,2	-6,014
1062,6	-4,186
1063	-3,729
1063,4	0,529
1063,8	2,1
1064,3	0,414
1064,7	-0,471
1065,1	4,329
1065,5	7,071
1065,9	6,471
1066,3	-1,729
1066,7	-1,729
1067,1	-3,471
1067,6	-1,557
1068	-3,814
1068,4	-2,586
1068,8	0,357
1069,2	3,271
1069,6	6,5
1070	7,614
1070,4	4,929
1070,9	3,7
1071,3	2,214
1071,7	0,1
1072,1	2,414
1072,5	1,557
1072,9	3,3
1073,3	5,043
1073,7	4,671
1074,2	6,871
1074,6	5,471
1075	4,7
1075,4	6,814
1075,8	3,357
1076,2	3,557
1076,6	3,929
1077	1,586
1077,5	6,671
1077,9	8,386
1078,3	0,7
1078,7	3,843
1079,1	6,014
1079,5	4,7
1079,9	10,071
1080,3	4,471
1080,7	5,386
1081,2	8,671
1081,6	9,1
1082	8,443
1082,4	11,986
1082,8	4,5
1083,2	-0,243
1083,6	-1,529
1084	-3,471
1084,5	-2,586
1084,9	-2,071
1085,3	-2,786
1085,7	-3,643
1086,1	0,186
1086,5	1,529
1086,9	0,9
1087,3	0,671
1087,7	4,614
1088,2	3,643
1088,6	8,871
1089	8,014
1089,4	4,586
1089,8	9,986
1090,2	11,757
1090,6	7,414
1091	9,986
1091,4	7,786
1091,9	8,843
1092,3	8,186
1092,7	4,071
1093,1	-3,214
1093,5	-4,929
1093,9	-6,186
1094,3	-2,614
1094,7	-0,871
1095,1	-1,843
1095,5	-1,614
1096	0,157
1096,4	4,014
1096,8	3,329
1097,2	5,986
1097,6	6,043
1098	7,471
1098,4	8,671
1098,8	15,414
1099,2	9,729
1099,6	10,129
1100,1	7,643
1100,5	7,871
1100,9	8,9
1101,3	6,357
1101,7	3,3
1102,1	5,671
1102,5	5,529
1102,9	0,557
1103,3	0,043
1103,7	2,271
1104,2	8,871
1104,6	9,043
1105	10,014
1105,4	9,129
1105,8	11,586
1106,2	11,843
1106,6	8,757
1107	3,443
1107,4	0,867
1107,8	-0,5
1108,3	0,7
