Data from Subt2_130.txt Node
Date: Sat Aug 26 18:25:43 MSK 2023
User: vat
Spectrometer: MAYP114033
Trigger mode: 0
Integration Time (sec): 1,000000E0
Scans to average: 5
Electric dark correction enabled: true
Nonlinearity correction enabled: false
Boxcar width: 3
XAxis mode: Wavelengths
Number of Pixels in Spectrum: 2068
>>>>>Begin Spectral Data<<<<<
199,4	0,467
199,9	2,567
200,4	0,8
200,8	3,281
201,3	2,538
201,8	4,167
202,2	2,081
202,7	6,538
203,2	4,91
203,6	5,824
204,1	1,11
204,6	3,71
205	6,081
205,5	8,567
206	2,767
206,4	3,281
206,9	4,281
207,4	5,395
207,8	2,252
208,3	-3,405
208,8	-4,976
209,2	-3,376
209,7	-4,462
210,2	-4,662
210,6	-5,49
211,1	-5,519
211,5	-7,29
212	-7,89
212,5	-5,348
212,9	-6,576
213,4	-9,09
213,9	-11,805
214,3	-10,662
214,8	-5,176
215,3	-5,433
215,7	-6,29
216,2	-2,062
216,7	-1,576
217,1	-0,462
217,6	-0,062
218,1	-4,176
218,5	-2,09
219	-6,719
219,5	-10,69
219,9	-12,776
220,4	-1,548
220,9	0,51
221,3	4,11
221,8	4,881
222,3	10,167
222,7	16,481
223,2	21,452
223,6	10,024
224,1	4,881
224,6	5,538
225	4,281
225,5	-0,748
226	-2,148
226,4	-0,548
226,9	2,167
227,4	6,881
227,8	-1,233
228,3	-3,748
228,8	-1,233
229,2	-2,605
229,7	-3,662
230,2	-4,519
230,6	-4,319
231,1	5,567
231,5	6,452
232	1,967
232,5	-0,033
232,9	-4,205
233,4	0,738
233,9	-1,176
234,3	-3,976
234,8	-2,748
235,3	1,167
235,7	3,681
236,2	9,052
236,7	7,824
237,1	14,024
237,6	9,595
238,1	7,481
238,5	5,967
239	5,938
239,4	3,052
239,9	-0,233
240,4	-5,519
240,8	-3,49
241,3	-4,233
241,8	-6,719
242,2	-7,148
242,7	-11,976
243,2	-7,29
243,6	-10,519
244,1	-9,719
244,6	-2,805
245	0,281
245,5	-0,519
245,9	1,938
246,4	-0,462
246,9	2,71
247,3	5,281
247,8	3,281
248,3	6,138
248,7	5,31
249,2	9,567
249,7	7,138
250,1	9,852
250,6	6,71
251	6,224
251,5	4,51
252	2,595
252,4	-0,662
252,9	0,652
253,4	-7,062
253,8	-8,548
254,3	-7,833
254,8	-7,89
255,2	-7,633
255,7	-9,062
256,1	-5,205
256,6	2,195
257,1	5,624
257,5	-0,919
258	-7,49
258,5	-7,69
258,9	-7,462
259,4	-14,433
259,9	-19,462
260,3	-22,348
260,8	-21,29
261,2	-12,776
261,7	-13,49
262,2	-11,833
262,6	-10,119
263,1	-3,719
263,6	-1,09
264	4,938
264,5	3,938
264,9	3,195
265,4	4,795
265,9	5,795
266,3	5,31
266,8	7,281
267,3	5,195
267,7	3,338
268,2	9,224
268,7	4,995
269,1	4,167
269,6	2,967
270	4,852
270,5	1,252
271	3,738
271,4	1,824
271,9	3,538
272,4	8,71
272,8	3,167
273,3	-2,09
273,7	0,767
274,2	-1,948
274,7	-2,519
275,1	-1,233
275,6	-7,548
276,1	-5,062
276,5	-2,776
277	-1,805
277,4	-1,433
277,9	0,395
278,4	2,395
278,8	9,681
279,3	11,624
279,8	14,31
280,2	14,281
280,7	16,795
281,1	10,138
281,6	8,852
282,1	1,567
282,5	-0,119
283	-4,29
283,4	-3,805
283,9	-3,233
284,4	0,195
284,8	-0,348
285,3	4,967
285,8	6,51
286,2	4,967
286,7	6,538
287,1	2,624
287,6	4,595
288,1	1,738
288,5	1,281
289	0,967
289,5	2,281
289,9	-3,119
290,4	0,767
290,8	0,881
291,3	3,595
291,8	1,395
292,2	-3,119
292,7	-2,519
293,1	-1,548
293,6	2,538
294,1	5,138
294,5	4,167
295	5,652
295,5	6,795
295,9	8,652
296,4	8,224
296,8	2,71
297,3	0,024
297,8	-1,776
298,2	-5,348
298,7	-1,062
299,1	-2,062
299,6	-5,833
300,1	-4,69
300,5	-6,09
301	0,71
301,5	6,71
301,9	2,938
302,4	0,31
302,8	7,281
303,3	5,91
303,8	2,995
304,2	-2,633
304,7	-7,948
305,1	-8,976
305,6	-6,748
306,1	-2,176
306,5	-3,69
307	1,052
307,4	5,167
307,9	4,11
308,4	3,567
308,8	-0,233
309,3	-5,233
309,8	0,51
310,2	0,91
310,7	-3,548
311,1	0,338
311,6	0,281
312,1	3,881
312,5	6,024
313	-1,89
313,4	-3,548
313,9	-1,605
314,4	-4,805
314,8	-3,405
315,3	-4,348
315,7	-11,176
316,2	-5,633
316,7	-5,119
317,1	-4,005
317,6	-3,462
318	-1,548
318,5	-1,776
319	4,395
319,4	3,11
319,9	8,167
320,3	8,795
320,8	7,738
321,3	11,081
321,7	13,91
322,2	11,652
322,6	9,167
323,1	2,481
323,6	1,452
324	1,367
324,5	-1,348
324,9	-3,405
325,4	-5,176
325,9	-2,405
326,3	4,224
326,8	4,538
327,2	1,195
327,7	-1,519
328,2	-2,29
328,6	2,31
329,1	-3,605
329,5	-7,862
330	-8,662
330,5	-0,633
330,9	4,481
331,4	7,91
331,8	6,195
332,3	15,281
332,8	14,624
333,2	14,852
333,7	14,252
334,1	12,052
334,6	10,595
335,1	4,624
335,5	1,052
336	1,31
336,4	-1,148
336,9	3,167
337,4	4,081
337,8	2,395
338,3	10,71
338,7	10,71
339,2	8,681
339,7	11,052
340,1	4,31
340,6	1,052
341	0,338
341,5	-3,033
342	-3,919
342,4	-6,033
342,9	-6,862
343,3	-7,776
343,8	-5,548
344,2	-7,605
344,7	-6,405
345,2	-9,748
345,6	-5,605
346,1	-2,462
346,5	-5,776
347	-8,576
347,5	-5,576
347,9	-5,062
348,4	1,11
348,8	-1,062
349,3	0,138
349,8	4,91
350,2	11,052
350,7	7,081
351,1	7,452
351,6	7,767
352	13,567
352,5	15,71
353	23,595
353,4	27,71
353,9	42,681
354,3	51,738
354,8	59,395
355,3	72,481
355,7	85,424
356,2	101,595
356,6	117,395
357,1	136,367
357,5	158,281
358	187,024
358,5	212,081
358,9	245,652
359,4	282,281
359,8	324,252
360,3	373,91
360,8	427,452
361,2	485,538
361,7	553,11
362,1	628,624
362,6	708,652
363	795,081
363,5	885,081
364	986,281
364,4	1088,681
364,9	1192,452
365,3	1292,081
365,8	1387,281
366,3	1477,395
366,7	1555,91
367,2	1624,367
367,6	1677,052
368,1	1723,424
368,5	1748,224
369	1762,052
369,5	1765,91
369,9	1751,938
370,4	1723,024
370,8	1687,081
371,3	1630,938
371,7	1573,967
372,2	1500,224
372,7	1425,281
373,1	1351,281
373,6	1269,395
374	1192,138
374,5	1115,995
374,9	1040,281
375,4	971,167
375,9	900,31
376,3	828,252
376,8	761,824
377,2	701,652
377,7	639,795
378,2	581,538
378,6	532,852
379,1	483,367
379,5	446,852
380	415,052
380,4	376,567
380,9	348,767
381,4	320,824
381,8	296,367
382,3	277,367
382,7	252,738
383,2	234,167
383,6	215,624
384,1	200,538
384,6	190,452
385	173,281
385,5	159,452
385,9	144,652
386,4	131,852
386,8	126,281
387,3	115,252
387,7	106,224
388,2	102,481
388,7	96,595
389,1	92,224
389,6	89,11
390	85,824
390,5	82,767
390,9	75,91
391,4	72,567
391,9	66,195
392,3	68,424
392,8	62,824
393,2	53,424
393,7	51,452
394,1	48,852
394,6	45,138
395,1	46,767
395,5	38,738
396	35,395
396,4	35,195
396,9	28,138
397,3	31,195
397,8	33,395
398,2	32,395
398,7	33,824
399,2	38,481
399,6	40,51
400,1	44,624
400,5	38,452
401	33,795
401,4	28,71
401,9	30,252
402,4	27,652
402,8	25,024
403,3	32,395
403,7	33,652
404,2	38,767
404,6	44,281
405,1	46,024
405,5	44,595
406	46,652
406,5	40,681
406,9	47,738
407,4	49,995
407,8	49,224
408,3	56,71
408,7	58,052
409,2	65,938
409,6	70,938
410,1	74,795
410,6	81,681
411	88,338
411,5	88,338
411,9	98,138
412,4	101,995
412,8	105,967
413,3	113,281
413,7	117,338
414,2	124,995
414,7	138,081
415,1	154,395
415,6	164,624
416	177,567
416,5	183,91
416,9	192,167
417,4	203,824
417,8	219,652
418,3	227,681
418,8	241,252
419,2	257,824
419,7	271,538
420,1	289,738
420,6	304,652
421	311,367
421,5	327,424
421,9	343,052
422,4	358,452
422,8	379,338
423,3	394,052
423,8	411,795
424,2	434,138
424,7	456,252
425,1	484,995
425,6	512,681
426	534,052
426,5	561,652
426,9	592,91
427,4	618,881
427,9	645,424
428,3	674,424
428,8	701,967
429,2	737,138
429,7	777,538
430,1	814,681
430,6	854,652
431	901,367
431,5	940,938
431,9	985,538
432,4	1032,51
432,8	1084,967
433,3	1141,538
433,8	1199,767
434,2	1260,595
434,7	1329,052
435,1	1397,395
435,6	1469,167
436	1537,138
436,5	1614,995
436,9	1689,052
437,4	1766,824
437,8	1848,567
438,3	1938,252
438,8	2031,938
439,2	2127,052
439,7	2217,51
440,1	2326,91
440,6	2438,081
441	2542,795
441,5	2653,767
441,9	2767,738
442,4	2880,824
442,8	3013,652
443,3	3137,767
443,7	3266,624
444,2	3403,71
444,7	3548,338
445,1	3696,167
445,6	3850,681
446	3993,138
446,5	4148,367
446,9	4297,795
447,4	4464,367
447,8	4630,024
448,3	4799,367
448,7	4978,91
449,2	5164,167
449,6	5352,424
450,1	5538,595
450,6	5725,224
451	5915,652
451,5	6116,595
451,9	6311,967
452,4	6518,852
452,8	6721,681
453,3	6933,424
453,7	7148,538
454,2	7377,052
454,6	7594,224
455,1	7818,081
455,5	8033,938
456	8267,71
456,4	8496,595
456,9	8727,652
457,3	8959,138
457,8	9197,481
458,3	9443,338
458,7	9693,281
459,2	9944,624
459,6	10200,852
460,1	10467,281
460,5	10713,824
461	10965,795
461,4	11210,31
461,9	11466,652
462,3	11723,938
462,8	11975,395
463,2	12231,652
463,7	12483,652
464,1	12746,024
464,6	13006,995
465	13258,538
465,5	13504,595
466	13769,367
466,4	14017,367
466,9	14281,195
467,3	14526,967
467,8	14781,538
468,2	15026,252
468,7	15264,252
469,1	15508,167
469,6	15737,452
470	15968,195
470,5	16197,081
470,9	16433,995
471,4	16670,11
471,8	16902,881
472,3	17121,452
472,7	17337,481
473,2	17547,767
473,6	17760,338
474,1	17966,881
474,5	18167,824
475	18368,995
475,4	18575,31
475,9	18777,481
476,4	18967,852
476,8	19162,252
477,3	19330,481
477,7	19499,652
478,2	19659,652
478,6	19816,338
479,1	19957,795
479,5	20097,167
480	20229,224
480,4	20374,738
480,9	20512,824
481,3	20638,11
481,8	20738,71
482,2	20849,424
482,7	20967,452
483,1	21055,31
483,6	21120,081
484	21199,138
484,5	21282,138
484,9	21356,91
485,4	21435,967
485,8	21481,938
486,3	21538,567
486,7	21610,338
487,2	21638,424
487,6	21652,91
488,1	21674,538
488,5	21683,738
489	21708,51
489,4	21724,338
489,9	21709,11
490,4	21704,224
490,8	21708,167
491,3	21697,738
491,7	21667,681
492,2	21638,167
492,6	21607,252
493,1	21565,081
493,5	21523,081
494	21467,424
494,4	21408,31
494,9	21347,481
495,3	21274,224
495,8	21200,938
496,2	21129,452
496,7	21046,338
497,1	20977,424
497,6	20892,452
498	20813,11
498,5	20727,167
498,9	20635,624
499,4	20543,367
499,8	20463,824
500,3	20359,624
500,7	20270,167
501,2	20164,338
501,6	20056,938
502,1	19939,252
502,5	19835,824
503	19718,624
503,4	19604,252
503,9	19472,195
504,3	19354,281
504,8	19237,567
505,2	19117,995
505,7	18976,767
506,1	18831,595
506,6	18679,224
507	18542,795
507,5	18404,71
507,9	18251,452
508,4	18110,51
508,8	17976,481
509,3	17841,71
509,7	17704,538
510,2	17562,795
510,6	17407,824
511,1	17258,995
511,5	17108,424
512	16964,881
512,4	16810,824
512,9	16665,452
513,3	16519,338
513,8	16368,652
514,2	16219,624
514,7	16060,195
515,1	15900,252
515,6	15748,738
516	15582,938
516,5	15412,31
516,9	15254,138
517,4	15092,995
517,8	14943,995
518,3	14776,338
518,7	14614,281
519,2	14463,795
519,6	14313,881
520,1	14169,11
520,5	14017,224
521	13864,281
521,4	13720,452
521,9	13574,824
522,3	13428,252
522,8	13290,081
523,2	13138,852
523,7	13000,281
524,1	12855,167
524,6	12706,367
525	12563,081
525,5	12419,852
525,9	12276,652
526,4	12144,338
526,8	12008,795
527,3	11874,681
527,7	11742,767
528,2	11610,595
528,6	11473,452
529,1	11337,881
529,5	11204,252
530	11079,824
530,4	10947,967
530,9	10826,367
531,3	10704,767
531,8	10590,624
532,2	10479,252
532,6	10363,11
533,1	10240,252
533,5	10126,738
534	10018,024
534,4	9902,481
534,9	9785,595
535,3	9666,167
535,8	9550,624
536,2	9439,338
536,7	9330,767
537,1	9215,338
537,6	9113,738
538	9016,624
538,5	8916,167
538,9	8818,481
539,4	8722,795
539,8	8625,567
540,3	8531,195
540,7	8432,195
541,2	8330,738
541,6	8233,51
542,1	8141,91
542,5	8048,738
543	7963,91
543,4	7874,881
543,9	7783,91
544,3	7708,11
544,8	7623,881
545,2	7546,967
545,7	7461,281
546,1	7382,481
546,5	7309,395
547	7238,71
547,4	7154,167
547,9	7082,481
548,3	7002,995
548,8	6935,995
549,2	6855,052
549,7	6774,167
550,1	6702,51
550,6	6634,595
551	6569,538
551,5	6500,595
551,9	6432,052
552,4	6373,195
552,8	6310,567
553,3	6246,367
553,7	6174,195
554,2	6109,224
554,6	6047,481
555,1	5988,224
555,5	5926,395
555,9	5870,395
556,4	5804,395
556,8	5755,824
557,3	5697,967
557,7	5638,795
558,2	5581,081
558,6	5532,31
559,1	5479,395
559,5	5434,052
560	5390,052
560,4	5339,538
560,9	5294,11
561,3	5250,395
561,8	5198,995
562,2	5141,738
562,7	5095,91
563,1	5041,881
563,6	4992,71
564	4949,224
564,4	4898,11
564,9	4844,595
565,3	4811,081
565,8	4764,595
566,2	4720,738
566,7	4676,281
567,1	4636,938
567,6	4597,938
568	4556,567
568,5	4516,995
568,9	4477,195
569,4	4441,281
569,8	4404,852
570,3	4358,795
570,7	4312,281
571,1	4278,081
571,6	4240,31
572	4211,081
572,5	4171,538
572,9	4136,967
573,4	4099,024
573,8	4072,624
574,3	4031,195
574,7	3991,938
575,2	3947,795
575,6	3912,052
576,1	3877,71
576,5	3848,138
576,9	3813,681
577,4	3788,595
577,8	3753,91
578,3	3725,852
578,7	3699,795
579,2	3668,167
579,6	3637,71
580,1	3603,338
580,5	3571,452
581	3546,481
581,4	3513,795
581,9	3478,824
582,3	3447,281
582,7	3420,852
583,2	3395,338
583,6	3368,452
584,1	3339,51
584,5	3314,224
585	3290,824
585,4	3257,052
585,9	3227,967
586,3	3197,424
586,8	3174,71
587,2	3147,224
587,6	3123,052
588,1	3099,795
588,5	3084,538
589	3063,51
589,4	3040,595
589,9	3011,652
590,3	2987,567
590,8	2962,538
591,2	2935,881
591,7	2922,795
592,1	2898,91
592,5	2884,595
593	2864,31
593,4	2845,167
593,9	2822,995
594,3	2799,538
594,8	2771,167
595,2	2752,252
595,7	2733,995
596,1	2711,395
596,6	2696,795
597	2676,024
597,4	2663,938
597,9	2646,081
598,3	2630,252
598,8	2613,71
599,2	2598,795
599,7	2582,538
600,1	2568,367
600,6	2550,138
601	2531,338
601,4	2515,595
601,9	2496,567
602,3	2482,11
602,8	2463,224
603,2	2450,852
603,7	2429,995
604,1	2418,281
604,6	2397,052
605	2372,538
605,4	2357,595
605,9	2335,567
606,3	2312,51
606,8	2296,824
607,2	2278,624
607,7	2257,567
608,1	2246,367
608,6	2231,795
609	2223,995
609,4	2216,167
609,9	2203,71
610,3	2189,938
610,8	2180,967
611,2	2162,767
611,7	2140,652
612,1	2123,395
612,6	2106,538
613	2090,138
613,4	2068,624
613,9	2055,995
614,3	2043,024
614,8	2037,195
615,2	2019,967
615,7	2004,367
616,1	1996,91
616,6	1980,395
617	1963,967
617,4	1953,224
617,9	1937,567
618,3	1931,824
618,8	1925,395
619,2	1906,51
619,7	1908,567
620,1	1897,424
620,5	1890,252
621	1875,567
621,4	1857,224
621,9	1842,138
622,3	1826,195
622,8	1804,567
623,2	1789,281
623,6	1770,11
624,1	1760,081
624,5	1745,824
625	1732,11
625,4	1725,281
625,9	1717,367
626,3	1705,881
626,8	1697,281
627,2	1686,852
627,6	1673,938
628,1	1656,967
628,5	1644,967
629	1632,938
629,4	1619,824
629,9	1602,967
630,3	1585,624
630,7	1574,195
631,2	1569,767
631,6	1558,452
632,1	1548,824
632,5	1540,081
633	1528,51
633,4	1519,481
633,8	1511,824
634,3	1494,424
634,7	1483,11
635,2	1465,481
635,6	1452,11
636,1	1444,138
636,5	1427,052
636,9	1411,424
637,4	1403,995
637,8	1391,71
638,3	1381,081
638,7	1370,51
639,2	1358,252
639,6	1356,538
640	1351,338
640,5	1340,995
640,9	1335,938
641,4	1328,795
641,8	1323,881
642,2	1319,652
642,7	1313,252
643,1	1306,738
643,6	1301,652
644	1288,624
644,5	1284,195
644,9	1274,081
645,3	1264,195
645,8	1252,167
646,2	1243,91
646,7	1232,624
647,1	1226,024
647,6	1215,824
648	1211,938
648,4	1199,681
648,9	1190,395
649,3	1177,395
649,8	1172,767
650,2	1168,11
650,6	1161,995
651,1	1151,567
651,5	1148,338
652	1140,224
652,4	1134,024
652,9	1128,11
653,3	1114,367
653,7	1103,767
654,2	1094,624
654,6	1081,71
655,1	1078,824
655,5	1077,938
655,9	1066,738
656,4	1067,595
656,8	1060,652
657,3	1053,624
657,7	1056,71
658,2	1047,31
658,6	1034,852
659	1027,595
659,5	1014,11
659,9	1006,795
660,4	1005,052
660,8	988,795
661,2	981,252
661,7	974,91
662,1	965,338
662,6	959,367
663	956,024
663,4	945,081
663,9	943,081
664,3	934,938
664,8	929,338
665,2	920,824
665,6	914,538
666,1	902,652
666,5	898,91
667	889,881
667,4	881,938
667,9	875,081
668,3	870,738
668,7	864,852
669,2	862,767
669,6	854,252
670,1	848,538
670,5	841,767
670,9	834,595
671,4	829,395
671,8	825,624
672,3	822,052
672,7	818,938
673,1	807,195
673,6	804,195
674	800,167
674,5	794,624
674,9	783,424
675,3	771,967
675,8	761,681
676,2	763,424
676,7	754,538
677,1	749,652
677,5	744,938
678	743,824
678,4	741,91
678,9	736,567
679,3	730,11
679,7	729,595
680,2	720,338
680,6	715,367
681,1	711,081
681,5	705,767
681,9	701,567
682,4	695,767
682,8	684,824
683,3	680,11
683,7	678,281
684,1	673,195
684,6	666,795
685	661,252
685,5	657,624
685,9	655,881
686,3	650,11
686,8	640,624
687,2	632,452
687,7	622,624
688,1	613,424
688,5	604,395
689	602,595
689,4	598,967
689,9	594,595
690,3	592,595
690,7	593,367
691,2	599,481
691,6	599,395
692	591,71
692,5	584,71
692,9	580,51
693,4	576,367
693,8	573,481
694,2	563,738
694,7	557,795
695,1	552,652
695,6	550,967
696	549,195
696,4	542,738
696,9	534,395
697,3	529,767
697,8	530,652
698,2	527,338
698,6	526,481
699,1	520,395
699,5	523,881
699,9	523,367
700,4	515,424
700,8	509,452
701,3	509,452
701,7	503,452
702,1	498,395
702,6	487,138
703	484,71
703,5	484,367
703,9	477,081
704,3	472,51
704,8	470,224
705,2	469,967
705,6	470,167
706,1	464,538
706,5	456,738
707	454,224
707,4	455,338
707,8	450,795
708,3	449,281
708,7	445,967
709,2	440,824
709,6	442,424
710	443,881
710,5	433,824
710,9	431,11
711,3	425,538
711,8	423,538
712,2	425,71
712,7	421,167
713,1	415,167
713,5	418,224
714	415,681
714,4	409,424
714,8	405,195
715,3	397,424
715,7	398,338
716,2	392,195
716,6	385,167
717	377,338
717,5	378,281
717,9	378,967
718,3	377,624
718,8	375,167
719,2	377,395
719,7	375,338
720,1	382,195
720,5	381,424
721	372,167
721,4	371,367
721,8	370,452
722,3	361,31
722,7	360,31
723,2	351,51
723,6	341,681
724	336,938
724,5	333,167
724,9	324,852
725,3	323,91
725,8	320,11
726,2	316,31
726,7	314,11
727,1	314,567
727,5	310,938
728	307,767
728,4	307,367
728,8	303,995
729,3	299,652
729,7	300,138
730,1	296,51
730,6	296,681
731	293,167
731,5	291,852
731,9	291,052
732,3	290,367
732,8	289,538
733,2	292,081
733,6	285,281
734,1	286,652
734,5	281,481
734,9	277,195
735,4	278,024
735,8	272,338
736,3	272,281
736,7	272,224
737,1	272,738
737,6	272,567
738	273,91
738,4	270,538
738,9	271,052
739,3	265,195
739,7	263,31
740,2	256,481
740,6	260,138
741,1	259,024
741,5	254,452
741,9	254,824
742,4	255,024
742,8	255,967
743,2	256,081
743,7	251,31
744,1	241,367
744,5	242,824
745	237,195
745,4	233,224
745,8	232,424
746,3	231,281
746,7	226,452
747,2	227,681
747,6	229,252
748	232,767
748,5	235,91
748,9	228,167
749,3	224,938
749,8	228,424
750,2	232,652
750,6	227,338
751,1	226,281
751,5	218,938
751,9	223,824
752,4	229,938
752,8	226,367
753,3	217,652
753,7	222,281
754,1	215,11
754,6	211,195
755	208,738
755,4	198,51
755,9	197,881
756,3	199,367
756,7	196,881
757,2	197,567
757,6	201,481
758	198,624
758,5	200,624
758,9	201,367
759,3	203,824
759,8	201,595
760,2	200,71
760,6	199,738
761,1	198,538
761,5	194,824
761,9	187,224
762,4	181,681
762,8	182,081
763,3	179,138
763,7	175,052
764,1	181,938
764,6	180,624
765	185,652
765,4	188,71
765,9	185,195
766,3	188,395
766,7	185,51
767,2	172,51
767,6	173,51
768	167,395
768,5	163,652
768,9	162,195
769,3	160,824
769,8	161,452
770,2	167,681
770,6	169,824
771,1	173,624
771,5	172,852
771,9	172,31
772,4	169,11
772,8	169,452
773,2	166,167
773,7	161,281
774,1	156,91
774,5	153,71
775	152,681
775,4	154,824
775,8	150,052
776,3	151,595
776,7	150,595
777,1	151,224
777,6	152,967
778	152,824
778,4	151,052
778,9	152,567
779,3	148,31
779,7	148,252
780,2	149,767
780,6	149,252
781	145,91
781,5	138,738
781,9	140,538
782,3	139,652
782,8	140,795
783,2	137,024
783,6	140,71
784,1	140,995
784,5	140,681
784,9	135,31
785,4	135,367
785,8	135,281
786,2	135,652
786,7	128,652
787,1	124,71
787,5	129,167
788	132,452
788,4	133,31
788,8	129,11
789,3	124,967
789,7	128,567
790,1	129,738
790,6	130,338
791	124,081
791,4	124,195
791,9	123,224
792,3	120,138
792,7	120,767
793,2	113,538
793,6	110,852
794	116,31
794,5	111,71
794,9	113,995
795,3	110,852
795,8	103,281
796,2	110,395
796,6	109,024
797,1	104,652
797,5	102,624
797,9	97,195
798,4	102,338
798,8	103,567
799,2	99,138
799,7	98,91
800,1	95,51
800,5	98,081
801	103,224
801,4	100,738
801,8	96,681
802,2	96,595
802,7	94,452
803,1	97,995
803,5	95,567
804	89,452
804,4	91,995
804,8	95,71
805,3	94,024
805,7	94,481
806,1	92,967
806,6	92,624
807	92,595
807,4	91,767
807,9	87,195
808,3	91,31
808,7	88,11
809,2	88,195
809,6	89,138
810	90,652
810,4	86,024
810,9	89,567
811,3	90,195
811,7	92,71
812,2	95,938
812,6	91,281
813	93,252
813,5	96,767
813,9	96,967
814,3	92,967
814,8	90,51
815,2	86,052
815,6	87,395
816,1	85,595
816,5	88,367
816,9	87,881
817,3	89,538
817,8	93,91
818,2	92,367
818,6	90,681
819,1	84,452
819,5	75,995
819,9	72,852
820,4	72,138
820,8	65,967
821,2	66,338
821,7	66,881
822,1	74,195
822,5	81,481
822,9	79,51
823,4	78,281
823,8	82,31
824,2	80,452
824,7	75,338
825,1	69,852
825,5	63,938
826	62,138
826,4	62,938
826,8	59,538
827,3	62,881
827,7	61,795
828,1	61,91
828,5	63,338
829	63,995
829,4	58,967
829,8	53,081
830,3	47,995
830,7	53,824
831,1	53,281
831,6	49,595
832	50,767
832,4	49,967
832,8	54,824
833,3	54,167
833,7	50,824
834,1	50,852
834,6	51,395
835	50,738
835,4	51,338
835,8	44,452
836,3	43,881
836,7	42,338
837,1	41,052
837,6	41,767
838	42,252
838,4	41,31
838,9	49,824
839,3	49,938
839,7	51,481
840,1	48,795
840,6	47,852
841	46,938
841,4	50,881
841,9	47,138
842,3	47,538
842,7	49,024
843,1	50,167
843,6	53,738
844	54,081
844,4	53,938
844,9	56,681
845,3	53,738
845,7	53,91
846,2	54,567
846,6	49,967
847	50,224
847,4	47,138
847,9	47,881
848,3	50,052
848,7	48,11
849,2	46,11
849,6	45,71
850	47,024
850,4	46,31
850,9	43,767
851,3	42,881
851,7	45,452
852,2	43,51
852,6	47,452
853	43,081
853,4	40,452
853,9	35,852
854,3	38,738
854,7	38,31
855,2	41,595
855,6	37,795
856	36,652
856,4	39,567
856,9	40,367
857,3	40,195
857,7	35,624
858,2	38,338
858,6	34,938
859	39,995
859,4	40,481
859,9	40,595
860,3	38,167
860,7	40,91
861,1	39,681
861,6	40,395
862	34,024
862,4	32,424
862,9	31,395
863,3	31,995
863,7	31,167
864,1	34,567
864,6	31,11
865	30,567
865,4	30,91
865,9	35,51
866,3	31,938
866,7	30,681
867,1	23,31
867,6	26,195
868	26,881
868,4	26,795
868,8	22,281
869,3	20,881
869,7	25,538
870,1	23,71
870,6	24,91
871	27,367
871,4	30,652
871,8	30,31
872,3	33,31
872,7	28,738
873,1	32,767
873,5	30,824
874	28,424
874,4	23,367
874,8	25,224
875,3	24,995
875,7	23,11
876,1	23,567
876,5	26,367
877	24,71
877,4	24,224
877,8	21,824
878,2	21,852
878,7	24,167
879,1	22,281
879,5	23,852
879,9	30,052
880,4	31,51
880,8	32,538
881,2	28,767
881,7	24,424
882,1	22,481
882,5	18,31
882,9	14,024
883,4	13,881
883,8	17,852
884,2	20,567
884,6	20,224
885,1	22,567
885,5	23,11
885,9	24,795
886,3	25,338
886,8	17,767
887,2	18,138
887,6	21,624
888	18,367
888,5	17,624
888,9	15,138
889,3	9,652
889,8	13,395
890,2	12,738
890,6	9,767
891	12,767
891,5	15,91
891,9	15,367
892,3	18,31
892,7	19,71
893,2	23,481
893,6	23,995
894	24,538
894,4	17,595
894,9	20,767
895,3	18,881
895,7	17,452
896,1	13,081
896,6	11,51
897	12,881
897,4	20,91
897,8	19,624
898,3	23,195
898,7	19,224
899,1	20,795
899,5	22,024
900	11,367
900,4	6,51
900,8	4,195
901,2	-1,976
901,7	0,281
902,1	-1,319
902,5	1,91
902,9	6,795
903,4	8,938
903,8	12,995
904,2	13,995
904,6	12,767
905,1	13,31
905,5	12,252
905,9	15,224
906,3	17,395
906,8	16,052
907,2	19,424
907,6	22,452
908	25,424
908,5	22,224
908,9	19,024
909,3	17,938
909,7	12,852
910,2	12,481
910,6	13,024
911	5,195
911,4	10,538
911,9	10,481
912,3	6,31
912,7	12,395
913,1	12,224
913,6	9,395
914	12,852
914,4	7,167
914,8	12,024
915,3	9,938
915,7	7,652
916,1	6,767
916,5	7,367
916,9	8,395
917,4	8,252
917,8	0,852
918,2	-2,69
918,6	-7,348
919,1	-5,69
919,5	-2,548
919,9	-0,862
920,3	-2,405
920,8	-1,376
921,2	4,052
921,6	6,31
922	3,938
922,5	0,681
922,9	0,11
923,3	2,138
923,7	6,167
924,2	6,367
924,6	6,738
925	8,938
925,4	8,624
925,8	5,681
926,3	3,052
926,7	-1,948
927,1	-0,262
927,5	2,138
928	1,967
928,4	-0,319
928,8	1,881
929,2	3,567
929,7	8,224
930,1	5,567
930,5	1,824
930,9	2,481
931,3	6,481
931,8	5,881
932,2	9,195
932,6	10,11
933	7,052
933,5	9,195
933,9	12,824
934,3	13,624
934,7	11,881
935,2	12,567
935,6	7,51
936	11,138
936,4	11,31
936,8	5,652
937,3	1,824
937,7	7,767
938,1	10,11
938,5	14,195
939	13,138
939,4	11,024
939,8	8,595
940,2	10,195
940,6	6,252
941,1	-0,976
941,5	-0,462
941,9	-1,948
942,3	-2,462
942,8	2,367
943,2	3,567
943,6	-2,605
944	3,281
944,4	3,652
944,9	3,424
945,3	6,367
945,7	0,281
946,1	-2,319
946,6	2,481
947	-2,548
947,4	-3,948
947,8	-0,805
948,2	-5,548
948,7	-0,605
949,1	0,224
949,5	5,252
949,9	4,91
950,3	3,795
950,8	1,852
951,2	4,424
951,6	4,71
952	5,795
952,5	-2,433
952,9	-2,09
953,3	-4,09
953,7	-5,519
954,1	-4,548
954,6	-8,062
955	-8,776
955,4	-9,605
955,8	-4,062
956,2	-1,49
956,7	2,652
957,1	2,052
957,5	5,824
957,9	4,224
958,3	8,024
958,8	8,624
959,2	14,195
959,6	12,595
960	11,767
960,5	11,938
960,9	13,51
961,3	12,224
961,7	7,367
962,1	0,91
962,6	3,252
963	4,138
963,4	-0,776
963,8	-0,119
964,2	-0,433
964,7	-0,062
965,1	3,995
965,5	1,395
965,9	-2,205
966,3	2,767
966,8	6,024
967,2	7,052
967,6	6,681
968	-1,376
968,4	0,538
968,9	2,938
969,3	3,595
969,7	-3,233
970,1	-3,519
970,5	-6,376
971	2,195
971,4	3,281
971,8	1,738
972,2	-1,433
972,6	1,595
973,1	2,51
973,5	9,367
973,9	6,624
974,3	2,681
974,7	9,281
975,2	11,91
975,6	11,91
976	13,852
976,4	10,281
976,8	8,738
977,3	9,852
977,7	5,052
978,1	3,367
978,5	0,767
978,9	-3,348
979,4	-5,69
979,8	-2,862
980,2	-1,776
980,6	-6,548
981	-2,805
981,5	-2,405
981,9	0,51
982,3	3,395
982,7	5,11
983,1	1,567
983,6	8,881
984	5,652
984,4	6,338
984,8	7,224
985,2	5,424
985,6	-3,833
986,1	-0,29
986,5	-2,548
986,9	-2,49
987,3	0,367
987,7	0,31
988,2	0,338
988,6	6,824
989	4,71
989,4	4,252
989,8	1,567
990,3	1,224
990,7	-3,862
991,1	0,024
991,5	-1,348
991,9	-1,062
992,3	2,395
992,8	3,795
993,2	-0,005
993,6	2,138
994	-1,662
994,4	1,367
994,9	1,167
995,3	-0,005
995,7	-1,233
996,1	1,31
996,5	3,624
996,9	0,624
997,4	2,024
997,8	-0,576
998,2	-5,433
998,6	-5,262
999	-6,748
999,5	-9,805
999,9	-7,262
1000,3	-14,49
1000,7	-9,462
1001,1	-8,49
1001,5	-3,833
1002	-0,976
1002,4	2,681
1002,8	3,367
1003,2	7,281
1003,6	7,91
1004	11,881
1004,5	8,252
1004,9	6,881
1005,3	1,052
1005,7	3,395
1006,1	-3,148
1006,6	-4,49
1007	-3,49
1007,4	-5,633
1007,8	-3,719
1008,2	-3,662
1008,6	-4,576
1009,1	-1,633
1009,5	-1,69
1009,9	-3,376
1010,3	-0,662
1010,7	-1,605
1011,1	2,452
1011,6	3,11
1012	7,052
1012,4	6,052
1012,8	2,11
1013,2	3,91
1013,6	2,252
1014,1	0,681
1014,5	-1,09
1014,9	-3,119
1015,3	-3,862
1015,7	-1,348
1016,1	-2,919
1016,6	-3,748
1017	-3,576
1017,4	-3,548
1017,8	-3,176
1018,2	-2,633
1018,6	-6,376
1019,1	-11,719
1019,5	-8,462
1019,9	-7,405
1020,3	-9,205
1020,7	-6,319
1021,1	-5,29
1021,6	-2,319
1022	4,052
1022,4	3,595
1022,8	3,938
1023,2	4,252
1023,6	-0,805
1024,1	5,624
1024,5	8,824
1024,9	2,195
1025,3	-0,148
1025,7	-0,376
1026,1	4,567
1026,6	5,681
1027	-2,605
1027,4	-1,833
1027,8	2,967
1028,2	1,624
1028,6	4,595
1029	-0,976
1029,5	2,624
1029,9	1,681
1030,3	-6,976
1030,7	-2,462
1031,1	0,71
1031,5	-5,833
1032	-3,805
1032,4	-2,719
1032,8	-0,005
1033,2	7,681
1033,6	1,31
1034	-1,605
1034,4	0,795
1034,9	1,224
1035,3	-2,605
1035,7	1,281
1036,1	-3,348
1036,5	-2,233
1036,9	-1,605
1037,4	-1,719
1037,8	-4,805
1038,2	-5,005
1038,6	-9,376
1039	-3,919
1039,4	0,852
1039,8	0,995
1040,3	4,938
1040,7	6,081
1041,1	10,052
1041,5	10,252
1041,9	4,567
1042,3	1,252
1042,7	3,795
1043,2	1,052
1043,6	-0,576
1044	-2,319
1044,4	-3,176
1044,8	-0,376
1045,2	-3,548
1045,6	-5,433
1046,1	-1,433
1046,5	3,567
1046,9	0,452
1047,3	-1,405
1047,7	-3,49
1048,1	-0,405
1048,5	-1,233
1049	-2,49
1049,4	0,538
1049,8	0,452
1050,2	3,31
1050,6	9,395
1051	12,281
1051,4	14,024
1051,9	13,824
1052,3	13,738
1052,7	16,31
1053,1	9,595
1053,5	7,681
1053,9	5,138
1054,3	2,281
1054,8	6,538
1055,2	5,967
1055,6	4,252
1056	11,424
1056,4	9,224
1056,8	9,995
1057,2	12,052
1057,6	5,681
1058,1	4,367
1058,5	3,252
1058,9	1,995
1059,3	2,995
1059,7	0,967
1060,1	3,852
1060,5	4,567
1061	3,224
1061,4	3,538
1061,8	8,395
1062,2	7,024
1062,6	8,452
1063	5,424
1063,4	6,252
1063,8	1,195
1064,3	3,624
1064,7	-2,29
1065,1	-1,119
1065,5	-8,119
1065,9	-8,462
1066,3	-10,348
1066,7	-6,49
1067,1	-11,976
1067,6	-6,548
1068	-9,662
1068,4	-4,09
1068,8	-1,29
1069,2	2,452
1069,6	1,738
1070	2,224
1070,4	-0,833
1070,9	-2,005
1071,3	-3,605
1071,7	-7,205
1072,1	-9,662
1072,5	-12,319
1072,9	-13,405
1073,3	-10,919
1073,7	-7,548
1074,2	-4,319
1074,6	-1,519
1075	-3,205
1075,4	-0,719
1075,8	5,138
1076,2	2,881
1076,6	5,024
1077	3,452
1077,5	2,081
1077,9	2,481
1078,3	1,081
1078,7	-1,233
1079,1	-2,033
1079,5	-5,548
1079,9	-1,976
1080,3	-0,633
1080,7	-2,776
1081,2	5,252
1081,6	7,11
1082	6,31
1082,4	12,138
1082,8	9,224
1083,2	10,052
1083,6	12,081
1084	5,081
1084,5	8,624
1084,9	8,795
1085,3	1,595
1085,7	2,681
1086,1	0,452
1086,5	0,31
1086,9	7,052
1087,3	1,967
1087,7	3,995
1088,2	6,252
1088,6	3,881
1089	3,91
1089,4	5,024
1089,8	3,395
1090,2	2,967
1090,6	0,452
1091	-0,176
1091,4	3,395
1091,9	1,395
1092,3	0,024
1092,7	-5,805
1093,1	-3,205
1093,5	-0,719
1093,9	-0,29
1094,3	0,024
1094,7	1,767
1095,1	3,367
1095,5	6,51
1096	2,224
1096,4	0,11
1096,8	2,595
1097,2	3,681
1097,6	5,824
1098	7,195
1098,4	9,252
1098,8	15,167
1099,2	22,367
1099,6	16,71
1100,1	11,967
1100,5	7,481
1100,9	5,852
1101,3	1,195
1101,7	-0,462
1102,1	-6,748
1102,5	-1,748
1102,9	0,967
1103,3	4,452
1103,7	5,967
1104,2	7,738
1104,6	6,224
1105	4,652
1105,4	2,795
1105,8	-0,09
1106,2	-1,119
1106,6	-3,205
1107	-3,633
1107,4	-3,8
1107,8	-1,833
1108,3	-0,683
