Data from Subt2_040.txt Node
Date: Sat Aug 26 16:24:09 MSK 2023
User: vat
Spectrometer: MAYP114033
Trigger mode: 0
Integration Time (sec): 1,000000E0
Scans to average: 5
Electric dark correction enabled: true
Nonlinearity correction enabled: false
Boxcar width: 3
XAxis mode: Wavelengths
Number of Pixels in Spectrum: 2068
>>>>>Begin Spectral Data<<<<<
199,4	-1,817
199,9	-4,067
200,4	-1,367
200,8	-0,638
201,3	0,648
201,8	3,076
202,2	6,105
202,7	7,619
203,2	9,676
203,6	10,533
204,1	10,305
204,6	13,362
205	13,733
205,5	10,59
206	10,476
206,4	14,362
206,9	9,619
207,4	14,419
207,8	7,162
208,3	5,39
208,8	5,248
209,2	7,219
209,7	4,933
210,2	10,076
210,6	6,848
211,1	5,619
211,5	5,705
212	2,819
212,5	-3,638
212,9	-5,667
213,4	-8,124
213,9	-10,581
214,3	-3,924
214,8	-2,038
215,3	1,59
215,7	2,362
216,2	7,676
216,7	7,505
217,1	3,419
217,6	2,905
218,1	-0,324
218,5	-0,295
219	7,362
219,5	3,99
219,9	4,505
220,4	8,933
220,9	8,876
221,3	4,676
221,8	1,419
222,3	-1,495
222,7	-7,695
223,2	-6,238
223,6	-9,667
224,1	-9,381
224,6	-3,352
225	-0,867
225,5	2,305
226	7,39
226,4	7,19
226,9	6,848
227,4	7,076
227,8	9,648
228,3	11,248
228,8	6,619
229,2	6,619
229,7	4,533
230,2	11,19
230,6	7,819
231,1	9,505
231,5	10,476
232	15,79
232,5	14,419
232,9	17,048
233,4	16,848
233,9	19,533
234,3	15,419
234,8	15,962
235,3	12,733
235,7	16,99
236,2	14,448
236,7	13,905
237,1	14,448
237,6	11,676
238,1	7,362
238,5	5,676
239	6,505
239,4	8,105
239,9	6,762
240,4	7,019
240,8	9,505
241,3	10,333
241,8	10,219
242,2	2,39
242,7	0,619
243,2	0,905
243,6	-1,81
244,1	0,99
244,6	-2,124
245	-0,724
245,5	7,848
245,9	8,962
246,4	6,819
246,9	9,533
247,3	5,676
247,8	10,562
248,3	13,419
248,7	13,19
249,2	9,676
249,7	10,905
250,1	8,676
250,6	7,876
251	8,219
251,5	2,705
252	0,648
252,4	3,676
252,9	4,39
253,4	5,505
253,8	6,79
254,3	9,19
254,8	15,305
255,2	11,19
255,7	18,362
256,1	18,019
256,6	18,19
257,1	20,648
257,5	18,505
258	12,905
258,5	14,962
258,9	12,933
259,4	11,848
259,9	12,648
260,3	7,133
260,8	7,105
261,2	11,762
261,7	16,219
262,2	9,248
262,6	8,448
263,1	5,305
263,6	11,39
264	8,333
264,5	1,505
264,9	-4,81
265,4	-2,438
265,9	-0,095
266,3	3,476
266,8	2,79
267,3	6,448
267,7	7,133
268,2	8,276
268,7	7,076
269,1	7,276
269,6	9,019
270	5,762
270,5	3,733
271	8,019
271,4	5,105
271,9	6,648
272,4	7,076
272,8	-1,752
273,3	-1,267
273,7	-3,467
274,2	-3,838
274,7	-0,838
275,1	-3,724
275,6	-4,21
276,1	2,848
276,5	3,648
277	10,705
277,4	11,419
277,9	15,133
278,4	19,105
278,8	23,648
279,3	21,99
279,8	25,133
280,2	16,305
280,7	13,505
281,1	10,219
281,6	10,79
282,1	10,105
282,5	13,505
283	5,305
283,4	8,419
283,9	6,248
284,4	6,076
284,8	6,362
285,3	-0,61
285,8	-7,01
286,2	-4,095
286,7	-4,781
287,1	-4,181
287,6	-0,581
288,1	0,076
288,5	5,419
289	8,59
289,5	10,419
289,9	12,39
290,4	14,19
290,8	15,219
291,3	10,39
291,8	11,762
292,2	15,448
292,7	17,762
293,1	16,505
293,6	16,105
294,1	13,362
294,5	17,419
295	12,39
295,5	10,59
295,9	11,133
296,4	16,705
296,8	15,276
297,3	13,648
297,8	13,076
298,2	13,962
298,7	10,733
299,1	8,733
299,6	3,533
300,1	6,219
300,5	11,048
301	9,019
301,5	10,59
301,9	11,248
302,4	11,476
302,8	10,676
303,3	9,105
303,8	4,162
304,2	3,762
304,7	5,705
305,1	7,562
305,6	1,905
306,1	4,79
306,5	7,276
307	7,305
307,4	7,962
307,9	2,248
308,4	1,076
308,8	9,962
309,3	8,248
309,8	8,762
310,2	7,133
310,7	10,905
311,1	10,619
311,6	15,162
312,1	10,962
312,5	10,019
313	6,248
313,4	6,448
313,9	7,619
314,4	8,19
314,8	5,762
315,3	5,962
315,7	6,648
316,2	7,533
316,7	10,79
317,1	8,705
317,6	9,39
318	9,705
318,5	10,305
319	12,733
319,4	14,905
319,9	10,733
320,3	12,048
320,8	12,762
321,3	8,705
321,7	9,162
322,2	9,19
322,6	5,476
323,1	7,39
323,6	2,99
324	3,648
324,5	3,733
324,9	3,99
325,4	1,733
325,9	8,39
326,3	8,79
326,8	8,105
327,2	5,59
327,7	8,162
328,2	7,133
328,6	9,676
329,1	7,99
329,5	10,248
330	10,162
330,5	13,533
330,9	13,505
331,4	9,848
331,8	10,905
332,3	13,219
332,8	10,962
333,2	13,419
333,7	12,248
334,1	12,99
334,6	17,276
335,1	13,848
335,5	11,533
336	10,333
336,4	7,505
336,9	9,133
337,4	8,562
337,8	6,905
338,3	9,219
338,7	6,305
339,2	10,533
339,7	11,133
340,1	9,276
340,6	6,59
341	11,248
341,5	11,676
342	13,305
342,4	7,248
342,9	5,076
343,3	3,276
343,8	6,59
344,2	5,333
344,7	7,648
345,2	3,819
345,6	10,048
346,1	15,848
346,5	23,676
347	24,276
347,5	17,648
347,9	11,876
348,4	18,905
348,8	18,248
349,3	19,248
349,8	15,362
350,2	12,79
350,7	19,162
351,1	19,276
351,6	20,762
352	25,705
352,5	28,905
353	43,933
353,4	52,276
353,9	62,248
354,3	77,533
354,8	86,59
355,3	103,819
355,7	123,99
356,2	139,876
356,6	168,676
357,1	197,076
357,5	233,448
358	280,076
358,5	323,962
358,9	379,105
359,4	439,276
359,8	501,79
360,3	574,048
360,8	652,99
361,2	740,048
361,7	838,133
362,1	943,962
362,6	1062,648
363	1192,019
363,5	1330,276
364	1472,79
364,4	1620,019
364,9	1770,448
365,3	1912,305
365,8	2046,162
366,3	2180,276
366,7	2301,905
367,2	2401,448
367,6	2487,219
368,1	2549,562
368,5	2592,619
369	2614,362
369,5	2610,905
369,9	2585,705
370,4	2547,19
370,8	2485,419
371,3	2414,19
371,7	2325,648
372,2	2232,962
372,7	2120,105
373,1	2010,505
373,6	1895,648
374	1774,733
374,5	1653,648
374,9	1539,676
375,4	1429,333
375,9	1326,105
376,3	1220,562
376,8	1123,905
377,2	1039,676
377,7	957,476
378,2	879,876
378,6	799,876
379,1	731,648
379,5	671,333
380	623,448
380,4	571,476
380,9	524,876
381,4	488,762
381,8	455,59
382,3	423,733
382,7	391,533
383,2	356,19
383,6	325,79
384,1	301,419
384,6	276,105
385	258,419
385,5	237,819
385,9	225,619
386,4	211,219
386,8	205,819
387,3	194,39
387,7	181,876
388,2	166,562
388,7	155,648
389,1	140,419
389,6	129,19
390	115,448
390,5	104,676
390,9	100,105
391,4	98,448
391,9	94,476
392,3	89,876
392,8	90,905
393,2	85,676
393,7	86,39
394,1	83,019
394,6	75,076
395,1	76,19
395,5	76,448
396	70,562
396,4	71,59
396,9	67,105
397,3	61,705
397,8	56,448
398,2	50,505
398,7	45,333
399,2	41,019
399,6	36,533
400,1	26,59
400,5	28,048
401	33,905
401,4	38,648
401,9	45,019
402,4	46,99
402,8	48,59
403,3	57,133
403,7	58,876
404,2	57,362
404,6	52,133
405,1	46,476
405,5	47,39
406	46,962
406,5	47,762
406,9	46,59
407,4	49,276
407,8	55,99
408,3	63,105
408,7	74,276
409,2	78,933
409,6	82,619
410,1	91,019
410,6	94,848
411	99,876
411,5	103,19
411,9	102,419
412,4	110,248
412,8	119,562
413,3	124,933
413,7	138,333
414,2	149,762
414,7	162,419
415,1	174,905
415,6	188,533
416	204,762
416,5	217,105
416,9	226,533
417,4	236,048
417,8	247,476
418,3	266,333
418,8	276,133
419,2	285,962
419,7	304,39
420,1	318,819
420,6	336,705
421	356,448
421,5	369,876
421,9	389,819
422,4	411,219
422,8	429,248
423,3	452,219
423,8	478,962
424,2	502,933
424,7	527,762
425,1	559,39
425,6	587,219
426	617,305
426,5	649,505
426,9	681,619
427,4	714,248
427,9	749,59
428,3	784,933
428,8	830,933
429,2	872,162
429,7	913,905
430,1	957,476
430,6	1005,133
431	1056,762
431,5	1107,79
431,9	1157,048
432,4	1216,305
432,8	1280,619
433,3	1340,99
433,8	1411,933
434,2	1480,448
434,7	1554,676
435,1	1633,19
435,6	1714,933
436	1797,333
436,5	1889,19
436,9	1976,705
437,4	2072,562
437,8	2166,476
438,3	2267,962
438,8	2374,962
439,2	2485,419
439,7	2594,076
440,1	2711,59
440,6	2840,39
441	2971,276
441,5	3103,019
441,9	3235,562
442,4	3378,362
442,8	3527,19
443,3	3682,705
443,7	3829,39
444,2	3989,333
444,7	4143,819
445,1	4310,105
445,6	4474,905
446	4653,19
446,5	4829,39
446,9	5015,848
447,4	5206,39
447,8	5414,762
448,3	5617,105
448,7	5821,39
449,2	6031,39
449,6	6243,39
450,1	6458,476
450,6	6689,533
451	6906,39
451,5	7135,219
451,9	7374,248
452,4	7614,419
452,8	7866,705
453,3	8107,39
453,7	8345,676
454,2	8608,448
454,6	8870,733
455,1	9127,648
455,5	9392,133
456	9655,733
456,4	9935,905
456,9	10209,276
457,3	10482,419
457,8	10761,476
458,3	11047,19
458,7	11337,333
459,2	11625,619
459,6	11915,905
460,1	12215,648
460,5	12512,162
461	12805,619
461,4	13103,333
461,9	13399,333
462,3	13697,162
462,8	13994,219
463,2	14283,876
463,7	14567,648
464,1	14861,933
464,6	15155,705
465	15448,133
465,5	15739,533
466	16037,79
466,4	16334,39
466,9	16634,133
467,3	16921,676
467,8	17215,419
468,2	17492,619
468,7	17781,533
469,1	18055,676
469,6	18330,419
470	18618,019
470,5	18900,048
470,9	19168,333
471,4	19443,105
471,8	19689,048
472,3	19951,19
472,7	20209,705
473,2	20446,962
473,6	20686,419
474,1	20914,905
474,5	21143,533
475	21383,962
475,4	21606,19
475,9	21826,533
476,4	22048,876
476,8	22253,819
477,3	22466,876
477,7	22675,648
478,2	22853,048
478,6	23042,333
479,1	23223,876
479,5	23394,99
480	23558,819
480,4	23721,676
480,9	23861,019
481,3	24017,59
481,8	24145,962
482,2	24266,79
482,7	24374,59
483,1	24494,648
483,6	24583,733
484	24669,648
484,5	24753,59
484,9	24847,133
485,4	24918,762
485,8	24976,448
486,3	25018,59
486,7	25075,419
487,2	25120,905
487,6	25149,562
488,1	25174,619
488,5	25190,19
489	25203,505
489,4	25213,533
489,9	25210,876
490,4	25215,476
490,8	25208,133
491,3	25177,905
491,7	25153,733
492,2	25134,162
492,6	25093,333
493,1	25041,133
493,5	24978,505
494	24913,505
494,4	24845,733
494,9	24768,276
495,3	24680,876
495,8	24609,048
496,2	24531,962
496,7	24438,448
497,1	24353,133
497,6	24272,305
498	24184,333
498,5	24090,162
498,9	23976,305
499,4	23860,59
499,8	23755,133
500,3	23643,162
500,7	23512,99
501,2	23388,619
501,6	23258,105
502,1	23132,705
502,5	23012,476
503	22877,133
503,4	22731,933
503,9	22598,305
504,3	22451,59
504,8	22302,048
505,2	22146,876
505,7	21991,133
506,1	21832,333
506,6	21676,19
507	21507,505
507,5	21346,105
507,9	21203,876
508,4	21053,019
508,8	20884,99
509,3	20730,676
509,7	20568,219
510,2	20404,39
510,6	20240,762
511,1	20053,962
511,5	19869,133
512	19702,505
512,4	19525,762
512,9	19347,848
513,3	19170,19
513,8	18988,105
514,2	18806,79
514,7	18632,933
515,1	18441,362
515,6	18256,648
516	18071,305
516,5	17881,419
516,9	17691,933
517,4	17523,876
517,8	17344,219
518,3	17160,219
518,7	16979,19
519,2	16793,305
519,6	16608,533
520,1	16436,133
520,5	16255,819
521	16063,619
521,4	15892,162
521,9	15722,533
522,3	15561,305
522,8	15408,476
523,2	15236,99
523,7	15074,105
524,1	14921,905
524,6	14758,733
525	14594,705
525,5	14430,476
525,9	14256,162
526,4	14090,162
526,8	13923,333
527,3	13765,505
527,7	13613,533
528,2	13443,819
528,6	13296,448
529,1	13145,848
529,5	13010,733
530	12856,819
530,4	12703,676
530,9	12552,248
531,3	12428,448
531,8	12282,533
532,2	12149,248
532,6	12000,048
533,1	11857,962
533,5	11734,733
534	11600,819
534,4	11464,762
534,9	11328,562
535,3	11197,133
535,8	11073,562
536,2	10956,562
536,7	10826,476
537,1	10705,076
537,6	10580,762
538	10466,39
538,5	10348,99
538,9	10238,076
539,4	10122,705
539,8	10006,219
540,3	9891,733
540,7	9773,19
541,2	9667,248
541,6	9553,019
542,1	9439,219
542,5	9331,705
543	9230,276
543,4	9134,819
543,9	9029,79
544,3	8917,448
544,8	8820,133
545,2	8719,733
545,7	8622,048
546,1	8527,733
546,5	8432,962
547	8346,59
547,4	8269,39
547,9	8177,19
548,3	8097,133
548,8	8019,448
549,2	7930,676
549,7	7844,705
550,1	7766,648
550,6	7680,562
551	7602,819
551,5	7518,933
551,9	7439,819
552,4	7363,476
552,8	7289,848
553,3	7219,648
553,7	7145,105
554,2	7076,59
554,6	7004,019
555,1	6932,876
555,5	6859,362
555,9	6792,533
556,4	6721,676
556,8	6653,048
557,3	6587,448
557,7	6528,533
558,2	6457,819
558,6	6401,39
559,1	6339,076
559,5	6273,99
560	6212,676
560,4	6153,505
560,9	6094,505
561,3	6040,619
561,8	5988,19
562,2	5927,933
562,7	5870,962
563,1	5815,819
563,6	5757,362
564	5708,276
564,4	5655,905
564,9	5601,076
565,3	5552,619
565,8	5507,562
566,2	5466,076
566,7	5419,048
567,1	5365,076
567,6	5315,019
568	5272,448
568,5	5226,419
568,9	5180,133
569,4	5131,419
569,8	5092,219
570,3	5052,162
570,7	5003,99
571,1	4952,39
571,6	4907,733
572	4873,133
572,5	4828,076
572,9	4789,962
573,4	4740,048
573,8	4707,648
574,3	4671,048
574,7	4629,133
575,2	4574,448
575,6	4538,219
576,1	4490,076
576,5	4456,476
576,9	4420,219
577,4	4382,419
577,8	4347,876
578,3	4313,133
578,7	4276,076
579,2	4242,305
579,6	4212,762
580,1	4176,619
580,5	4143,276
581	4106,762
581,4	4077,819
581,9	4044,19
582,3	4009,648
582,7	3970,219
583,2	3933,276
583,6	3893,105
584,1	3860,762
584,5	3830,705
585	3799,505
585,4	3771,248
585,9	3743,619
586,3	3708,362
586,8	3683,648
587,2	3659,248
587,6	3625,99
588,1	3594,533
588,5	3559,305
589	3524,248
589,4	3501,133
589,9	3473,99
590,3	3440,705
590,8	3417,219
591,2	3395,39
591,7	3380,39
592,1	3359,305
592,5	3334,962
593	3311,762
593,4	3290,248
593,9	3268,476
594,3	3235,048
594,8	3204,448
595,2	3189,105
595,7	3166,99
596,1	3146,533
596,6	3131,876
597	3106,219
597,4	3095,162
597,9	3073,962
598,3	3044,248
598,8	3020,562
599,2	2999,048
599,7	2976,048
600,1	2952,076
600,6	2928,876
601	2912,59
601,4	2895,076
601,9	2875,105
602,3	2852,505
602,8	2827,476
603,2	2817,962
603,7	2796,676
604,1	2778,648
604,6	2755,762
605	2738,705
605,4	2724,219
605,9	2705,19
606,3	2685,905
606,8	2667,162
607,2	2642,819
607,7	2626,39
608,1	2607,476
608,6	2591,39
609	2581,248
609,4	2560,305
609,9	2543,676
610,3	2531,476
610,8	2517,905
611,2	2499,219
611,7	2477,19
612,1	2450,219
612,6	2435,105
613	2424,59
613,4	2409,562
613,9	2392,448
614,3	2382,648
614,8	2362,933
615,2	2349,962
615,7	2333,933
616,1	2310,562
616,6	2288,962
617	2271,533
617,4	2248,19
617,9	2233,333
618,3	2222,048
618,8	2205,19
619,2	2195,505
619,7	2184,619
620,1	2166,619
620,5	2159,762
621	2145,219
621,4	2121,476
621,9	2103,99
622,3	2086,505
622,8	2066,305
623,2	2057,876
623,6	2037,419
624,1	2029,99
624,5	2019,962
625	2003,819
625,4	1992,133
625,9	1983,076
626,3	1969,133
626,8	1960,59
627,2	1942,505
627,6	1930,362
628,1	1920,305
628,5	1908,448
629	1896,048
629,4	1879,219
629,9	1858,162
630,3	1847,676
630,7	1832,705
631,2	1817,39
631,6	1801,705
632,1	1785,648
632,5	1774,476
633	1766,19
633,4	1745,39
633,8	1736,419
634,3	1723,419
634,7	1710,762
635,2	1700,59
635,6	1685,505
636,1	1672,962
636,5	1668,905
636,9	1655,733
637,4	1647,819
637,8	1626,076
638,3	1610,819
638,7	1597,762
639,2	1586,762
639,6	1571,133
640	1559,59
640,5	1546,533
640,9	1547,19
641,4	1537,648
641,8	1529,59
642,2	1523,276
642,7	1514,048
643,1	1503,705
643,6	1496,705
644	1484,533
644,5	1476,762
644,9	1470,019
645,3	1460,733
645,8	1452,048
646,2	1442,276
646,7	1429,905
647,1	1423,762
647,6	1415,762
648	1404,076
648,4	1392,933
648,9	1386,448
649,3	1373,219
649,8	1367,962
650,2	1351,276
650,6	1336,99
651,1	1332,99
651,5	1322,619
652	1310,676
652,4	1302,133
652,9	1290,248
653,3	1284,733
653,7	1281,19
654,2	1271,476
654,6	1260,533
655,1	1251,905
655,5	1244,962
655,9	1235,933
656,4	1229,705
656,8	1215,905
657,3	1202,133
657,7	1190,362
658,2	1186,533
658,6	1176,133
659	1165,333
659,5	1153,248
659,9	1149,905
660,4	1140,876
660,8	1140,962
661,2	1129,305
661,7	1126,476
662,1	1123,19
662,6	1111,819
663	1106,419
663,4	1099,848
663,9	1090,99
664,3	1082,648
664,8	1073,99
665,2	1064,162
665,6	1060,705
666,1	1047,219
666,5	1039,276
667	1026,848
667,4	1019,19
667,9	1009,162
668,3	1003,733
668,7	994,476
669,2	987,819
669,6	978,705
670,1	977,019
670,5	965,133
670,9	965,248
671,4	959,133
671,8	956,905
672,3	950,019
672,7	944,962
673,1	930,533
673,6	927,876
674	916,733
674,5	908,676
674,9	899,59
675,3	889,59
675,8	882,648
676,2	884,905
676,7	876,762
677,1	873,99
677,5	869,39
678	865,79
678,4	861,419
678,9	855,905
679,3	842,876
679,7	838,333
680,2	829,076
680,6	814,905
681,1	803,19
681,5	799,99
681,9	792,333
682,4	791,419
682,8	789,219
683,3	778,476
683,7	774,99
684,1	772,99
684,6	768,562
685	763,933
685,5	757,905
685,9	750,448
686,3	747,848
686,8	746,59
687,2	740,962
687,7	738,59
688,1	735,648
688,5	729,905
689	723,705
689,4	723,562
689,9	718,819
690,3	714,448
690,7	702,933
691,2	697,133
691,6	692,505
692	685,533
692,5	678,562
692,9	670,79
693,4	666,219
693,8	666,876
694,2	659,79
694,7	653,533
695,1	652,162
695,6	641,59
696	636,79
696,4	633,39
696,9	625,819
697,3	623,533
697,8	615,505
698,2	610,848
698,6	608,133
699,1	602,448
699,5	597,362
699,9	595,933
700,4	586,448
700,8	583,676
701,3	577,019
701,7	575,248
702,1	572,419
702,6	565,362
703	553,19
703,5	555,362
703,9	551,533
704,3	549,59
704,8	544,676
705,2	540,848
705,6	535,505
706,1	538,248
706,5	533,248
707	523,048
707,4	519,819
707,8	517,676
708,3	513,562
708,7	513,933
709,2	510,219
709,6	506,848
710	511,648
710,5	507,333
710,9	503,248
711,3	496,19
711,8	488,019
712,2	480,505
712,7	476,505
713,1	471,905
713,5	464,048
714	459,933
714,4	461,076
714,8	464,676
715,3	467,79
715,7	460,133
716,2	456,533
716,6	452,133
717	446,762
717,5	443,133
717,9	437,848
718,3	427,362
718,8	427,99
719,2	422,333
719,7	427,276
720,1	424,219
720,5	422,076
721	418,305
721,4	421,419
721,8	419,248
722,3	418,905
722,7	409,076
723,2	407,19
723,6	402,048
724	399,162
724,5	390,419
724,9	385,219
725,3	382,819
725,8	381,133
726,2	378,99
726,7	377,019
727,1	370,562
727,5	371,79
728	373,79
728,4	368,562
728,8	367,876
729,3	364,533
729,7	365,219
730,1	363,505
730,6	360,505
731	355,048
731,5	354,39
731,9	355,19
732,3	354,819
732,8	346,076
733,2	345,79
733,6	342,305
734,1	341,419
734,5	334,962
734,9	328,333
735,4	322,848
735,8	321,905
736,3	320,305
736,7	316,39
737,1	314,448
737,6	315,562
738	313,305
738,4	315,105
738,9	315,933
739,3	311,962
739,7	311,905
740,2	307,676
740,6	306,99
741,1	305,933
741,5	305,162
741,9	301,505
742,4	296,19
742,8	296,305
743,2	297,705
743,7	295,933
744,1	291,648
744,5	287,59
745	285,819
745,4	284,105
745,8	279,733
746,3	274,333
746,7	268,362
747,2	269,848
747,6	266,676
748	267,248
748,5	269,076
748,9	266,762
749,3	268,676
749,8	269,019
750,2	266,505
750,6	266,905
751,1	265,533
751,5	263,648
751,9	261,333
752,4	257,162
752,8	253,59
753,3	249,848
753,7	247,076
754,1	245,476
754,6	241,076
755	238,905
755,4	236,848
755,9	234,248
756,3	231,019
756,7	227,819
757,2	227,962
757,6	230,39
758	226,276
758,5	224,133
758,9	225,048
759,3	222,505
759,8	225,705
760,2	221,762
760,6	219,533
761,1	219,448
761,5	217,562
761,9	217,162
762,4	221,419
762,8	216,876
763,3	209,505
763,7	207,39
764,1	207,19
764,6	208,619
765	206,362
765,4	205,705
765,9	202,505
766,3	204,905
766,7	202,962
767,2	205,533
767,6	200,133
768	203,39
768,5	198,905
768,9	198,162
769,3	194,362
769,8	195,99
770,2	194,362
770,6	195,876
771,1	194,333
771,5	194,133
771,9	193,733
772,4	200,619
772,8	196,905
773,2	196,648
773,7	195,59
774,1	198,219
774,5	197,619
775	189,19
775,4	183,39
775,8	183,162
776,3	175,733
776,7	177,876
777,1	169,905
777,6	166,876
778	175,562
778,4	173,248
778,9	170,733
779,3	173,219
779,7	166,248
780,2	164,076
780,6	167,876
781	161,819
781,5	164,448
781,9	163,619
782,3	163,533
782,8	160,305
783,2	160,448
783,6	151,962
784,1	154,305
784,5	152,762
784,9	155,705
785,4	155,619
785,8	155,905
786,2	154,848
786,7	154,648
787,1	154,248
787,5	151,162
788	149,076
788,4	142,905
788,8	141,533
789,3	141,733
789,7	141,048
790,1	136,819
790,6	136,048
791	134,562
791,4	135,019
791,9	136,333
792,3	133,076
792,7	138,819
793,2	138,419
793,6	137,676
794	134,419
794,5	135,59
794,9	137,619
795,3	140,248
795,8	130,248
796,2	128,448
796,6	126,076
797,1	125,019
797,5	123,39
797,9	123,99
798,4	119,59
798,8	119,762
799,2	123,362
799,7	126,39
800,1	126,019
800,5	124,362
801	117,276
801,4	117,59
801,8	120,105
802,2	118,276
802,7	111,505
803,1	112,219
803,5	112,676
804	114,333
804,4	112,419
804,8	114,448
805,3	107,79
805,7	113,305
806,1	113,733
806,6	112,448
807	114,448
807,4	113,619
807,9	111,962
808,3	116,619
808,7	112,419
809,2	108,676
809,6	108,848
810	105,39
810,4	108,162
810,9	103,962
811,3	101,876
811,7	99,705
812,2	102,876
812,6	101,019
813	103,19
813,5	98,79
813,9	99,676
814,3	97,105
814,8	94,733
815,2	89,762
815,6	88,59
816,1	84,419
816,5	84,39
816,9	84,505
817,3	85,905
817,8	91,248
818,2	88,933
818,6	92,619
819,1	95,076
819,5	95,819
819,9	91,79
820,4	89,419
820,8	82,19
821,2	85,676
821,7	81,505
822,1	79,19
822,5	77,505
822,9	82,362
823,4	81,476
823,8	84,248
824,2	80,99
824,7	83,162
825,1	80,505
825,5	84,19
826	83,362
826,4	86,448
826,8	89,99
827,3	90,905
827,7	87,39
828,1	89,905
828,5	83,248
829	77,59
829,4	76,762
829,8	71,705
830,3	72,762
830,7	69,39
831,1	67,848
831,6	67,133
832	66,448
832,4	63,79
832,8	65,905
833,3	63,448
833,7	71,562
834,1	72,59
834,6	71,933
835	73,648
835,4	79,048
835,8	77,562
836,3	76,476
836,7	66,448
837,1	63,105
837,6	61,848
838	58,648
838,4	52,533
838,9	53,362
839,3	54,476
839,7	55,676
840,1	53,248
840,6	55,276
841	58,39
841,4	59,676
841,9	55,933
842,3	56,648
842,7	53,362
843,1	58,448
843,6	62,59
844	61,733
844,4	58,762
844,9	61,705
845,3	54,162
845,7	58,848
846,2	55,333
846,6	51,848
847	52,076
847,4	52,59
847,9	51,619
848,3	55,019
848,7	56,362
849,2	57,876
849,6	57,305
850	58,819
850,4	62,076
850,9	60,048
851,3	63,79
851,7	62,419
852,2	58,048
852,6	60,448
853	60,533
853,4	61,705
853,9	58,133
854,3	52,505
854,7	47,876
855,2	47,076
855,6	40,39
856	34,019
856,4	30,533
856,9	28,419
857,3	29,505
857,7	35,962
858,2	39,733
858,6	48,705
859	46,076
859,4	42,305
859,9	44,39
860,3	44,133
860,7	37,39
861,1	37,99
861,6	34,619
862	39,248
862,4	42,648
862,9	45,819
863,3	45,79
863,7	44,19
864,1	39,476
864,6	37,933
865	34,848
865,4	31,705
865,9	28,762
866,3	30,619
866,7	35,362
867,1	39,505
867,6	36,962
868	40,705
868,4	42,562
868,8	46,648
869,3	41,933
869,7	39,105
870,1	37,333
870,6	37,39
871	50,219
871,4	43,562
871,8	38,133
872,3	39,448
872,7	39,59
873,1	39,619
873,5	44,133
874	31,19
874,4	32,39
874,8	33,19
875,3	32,99
875,7	33,648
876,1	31,276
876,5	28,876
877	26,276
877,4	28,019
877,8	31,905
878,2	31,276
878,7	33,848
879,1	34,248
879,5	31,162
879,9	34,59
880,4	35,019
880,8	33,162
881,2	36,562
881,7	38,533
882,1	37,362
882,5	36,99
882,9	34,619
883,4	38,848
883,8	35,419
884,2	31,99
884,6	30,19
885,1	37,276
885,5	38,505
885,9	41,048
886,3	35,619
886,8	38,248
887,2	39,819
887,6	35,476
888	32,333
888,5	34,505
888,9	26,533
889,3	25,505
889,8	21,619
890,2	18,362
890,6	19,676
891	16,648
891,5	15,162
891,9	23,076
892,3	24,848
892,7	26,076
893,2	27,933
893,6	27,848
894	27,362
894,4	27,619
894,9	20,676
895,3	20,362
895,7	23,59
896,1	22,19
896,6	21,133
897	24,276
897,4	18,876
897,8	23,362
898,3	30,533
898,7	26,162
899,1	26,419
899,5	27,076
900	24,19
900,4	24,705
900,8	22,133
901,2	12,562
901,7	13,019
902,1	16,99
902,5	14,848
902,9	16,105
903,4	16,848
903,8	13,39
904,2	20,733
904,6	21,733
905,1	21,019
905,5	22,162
905,9	20,39
906,3	22,019
906,8	26,79
907,2	20,448
907,6	22,962
908	17,59
908,5	22,39
908,9	24,248
909,3	21,619
909,7	21,59
910,2	23,419
910,6	20,562
911	23,819
911,4	17,905
911,9	15,305
912,3	18,333
912,7	16,133
913,1	9,362
913,6	12,933
914	12,362
914,4	13,59
914,8	13,133
915,3	11,876
915,7	12,733
916,1	16,705
916,5	14,248
916,9	14,362
917,4	14,533
917,8	9,505
918,2	6,962
918,6	5,276
919,1	6,276
919,5	8,99
919,9	9,048
920,3	6,448
920,8	14,762
921,2	18,762
921,6	18,19
922	13,848
922,5	10,162
922,9	7,905
923,3	10,819
923,7	7,79
924,2	2,276
924,6	4,762
925	11,705
925,4	13,448
925,8	14,333
926,3	16,019
926,7	16,248
927,1	18,933
927,5	18,733
928	14,648
928,4	12,333
928,8	17,533
929,2	14,905
929,7	11,362
930,1	13,276
930,5	8,876
930,9	9,733
931,3	12,79
931,8	4,019
932,2	1,533
932,6	1,619
933	0,505
933,5	5,59
933,9	4,39
934,3	1,876
934,7	8,876
935,2	13,733
935,6	19,019
936	14,39
936,4	10,448
936,8	12,076
937,3	9,648
937,7	10,105
938,1	3,076
938,5	3,105
939	6,848
939,4	9,676
939,8	10,305
940,2	9,762
940,6	3,476
941,1	9,876
941,5	11,362
941,9	12,59
942,3	8,219
942,8	10,99
943,2	9,619
943,6	13,705
944	11,733
944,4	5,876
944,9	4,048
945,3	10,59
945,7	8,419
946,1	16,648
946,6	17,076
947	18,305
947,4	19,876
947,8	23,305
948,2	18,676
948,7	15,819
949,1	12,219
949,5	10,619
949,9	12,705
950,3	14,59
950,8	9,333
951,2	12,733
951,6	17,133
952	12,79
952,5	14,19
952,9	4,59
953,3	0,905
953,7	4,076
954,1	1,505
954,6	0,448
955	2,219
955,4	-3,724
955,8	4,048
956,2	0,705
956,7	-1,124
957,1	-2,467
957,5	-9,724
957,9	-8,095
958,3	-3,81
958,8	-4,981
959,2	-0,752
959,6	1,019
960	2,248
960,5	5,219
960,9	3,219
961,3	0,476
961,7	-4,324
962,1	-3,495
962,6	-6,781
963	-3,352
963,4	0,39
963,8	3,305
964,2	5,076
964,7	8,333
965,1	8,133
965,5	8,448
965,9	7,19
966,3	2,333
966,8	1,19
967,2	2,248
967,6	2,733
968	1,819
968,4	6,99
968,9	10,248
969,3	13,962
969,7	10,762
970,1	9,905
970,5	12,905
971	10,933
971,4	10,79
971,8	9,048
972,2	7,019
972,6	9,962
973,1	9,59
973,5	5,19
973,9	5,505
974,3	0,248
974,7	-7,438
975,2	-10,524
975,6	-17,095
976	-16,552
976,4	-14,695
976,8	-13,41
977,3	-10,724
977,7	-10,152
978,1	-6,038
978,5	1,562
978,9	1,305
979,4	-0,495
979,8	3,276
980,2	-1,181
980,6	3,533
981	6,162
981,5	4,419
981,9	6,619
982,3	4,448
982,7	1,762
983,1	6,019
983,6	9,533
984	10,362
984,4	12,019
984,8	7,276
985,2	9,733
985,6	8,533
986,1	8,276
986,5	2,105
986,9	-2,724
987,3	-5,524
987,7	2,419
988,2	5,648
988,6	7,733
989	10,19
989,4	15,419
989,8	16,248
990,3	17,219
990,7	12,133
991,1	7,733
991,5	7,39
991,9	7,076
992,3	4,962
992,8	11,876
993,2	15,705
993,6	16,333
994	17,676
994,4	15,248
994,9	15,162
995,3	14,162
995,7	6,648
996,1	1,019
996,5	-2,01
996,9	-5,724
997,4	-0,81
997,8	-3,01
998,2	-1,324
998,6	-1,095
999	1,848
999,5	2,99
999,9	11,762
1000,3	12,39
1000,7	14,048
1001,1	9,162
1001,5	7,762
1002	4,019
1002,4	1,619
1002,8	0,619
1003,2	0,105
1003,6	1,105
1004	2,762
1004,5	4,619
1004,9	5,276
1005,3	4,648
1005,7	2,076
1006,1	-1,41
1006,6	-3,41
1007	-1,752
1007,4	1,848
1007,8	5,876
1008,2	4,905
1008,6	0,019
1009,1	-1,467
1009,5	5,848
1009,9	10,276
1010,3	8,219
1010,7	6,876
1011,1	16,619
1011,6	18,648
1012	18,133
1012,4	15,219
1012,8	7,99
1013,2	6,933
1013,6	7,419
1014,1	4,476
1014,5	4,648
1014,9	8,933
1015,3	5,819
1015,7	5,333
1016,1	6,305
1016,6	9,162
1017	8,876
1017,4	8,476
1017,8	5,562
1018,2	0,99
1018,6	3,819
1019,1	0,79
1019,5	-1,61
1019,9	0,048
1020,3	-2,152
1020,7	-1,295
1021,1	5,619
1021,6	5,505
1022	3,333
1022,4	7,105
1022,8	6,762
1023,2	14,448
1023,6	12,305
1024,1	13,333
1024,5	11,905
1024,9	18,048
1025,3	14,076
1025,7	14,733
1026,1	13,39
1026,6	17,79
1027	10,276
1027,4	15,019
1027,8	10,819
1028,2	9,076
1028,6	7,276
1029	4,505
1029,5	4,219
1029,9	6,933
1030,3	8,733
1030,7	11,733
1031,1	7,419
1031,5	1,905
1032	1,848
1032,4	-0,21
1032,8	-3,324
1033,2	-10,952
1033,6	-8,581
1034	-6,952
1034,4	1,905
1034,9	-0,695
1035,3	4,305
1035,7	5,933
1036,1	9,933
1036,5	5,105
1036,9	7,962
1037,4	5,19
1037,8	12,076
1038,2	3,362
1038,6	1,59
1039	-0,295
1039,4	1,305
1039,8	2,19
1040,3	-1,581
1040,7	-8,838
1041,1	-5,295
1041,5	-0,752
1041,9	0,048
1042,3	0,105
1042,7	-0,124
1043,2	3,019
1043,6	8,219
1044	5,99
1044,4	1,048
1044,8	-2,124
1045,2	0,648
1045,6	2,505
1046,1	5,448
1046,5	4,419
1046,9	6,419
1047,3	10,533
1047,7	12,105
1048,1	9,105
1048,5	8,533
1049	6,39
1049,4	5,676
1049,8	3,99
1050,2	2,562
1050,6	5,048
1051	9,019
1051,4	7,333
1051,9	8,305
1052,3	3,333
1052,7	5,362
1053,1	7,648
1053,5	9,248
1053,9	4,533
1054,3	2,476
1054,8	5,105
1055,2	10,933
1055,6	9,648
1056	9,19
1056,4	4,105
1056,8	7,59
1057,2	10,248
1057,6	0,448
1058,1	-0,324
1058,5	0,505
1058,9	2,019
1059,3	8,048
1059,7	0,533
1060,1	0,333
1060,5	0,619
1061	-3,41
1061,4	-1,352
1061,8	-8,01
1062,2	-10,752
1062,6	-6,41
1063	-5,695
1063,4	-3,095
1063,8	1,676
1064,3	-3,61
1064,7	-0,981
1065,1	-2,895
1065,5	1,733
1065,9	0,819
1066,3	-0,324
1066,7	-1,181
1067,1	0,162
1067,6	-0,238
1068	-0,895
1068,4	-0,781
1068,8	-0,752
1069,2	-2,924
1069,6	-1,295
1070	2,962
1070,4	1,419
1070,9	3,419
1071,3	-3,095
1071,7	-1,124
1072,1	8,619
1072,5	9,819
1072,9	11,59
1073,3	13,419
1073,7	12,333
1074,2	18,562
1074,6	14,076
1075	4,99
1075,4	3,705
1075,8	0,848
1076,2	2,99
1076,6	3,105
1077	-0,495
1077,5	3,162
1077,9	7,419
1078,3	4,39
1078,7	3,905
1079,1	5,733
1079,5	3,962
1079,9	9,59
1080,3	5,133
1080,7	7,019
1081,2	7,99
1081,6	7,79
1082	8,819
1082,4	7,162
1082,8	-1,238
1083,2	0,162
1083,6	1,676
1084	-0,41
1084,5	-0,924
1084,9	-2,467
1085,3	4,99
1085,7	3,362
1086,1	0,305
1086,5	-2,495
1086,9	-1,038
1087,3	-1,21
1087,7	1,305
1088,2	-2,21
1088,6	-2,724
1089	-0,01
1089,4	2,305
1089,8	5,59
1090,2	6,276
1090,6	3,39
1091	7,305
1091,4	12,905
1091,9	17,99
1092,3	10,362
1092,7	6,105
1093,1	5,562
1093,5	0,562
1093,9	-2,867
1094,3	-2,41
1094,7	-3,638
1095,1	-2,495
1095,5	-0,152
1096	-2,41
1096,4	2,533
1096,8	-0,752
1097,2	-3,61
1097,6	-6,552
1098	-3,724
1098,4	-1,61
1098,8	-1,124
1099,2	-6,295
1099,6	-1,352
1100,1	1,648
1100,5	4,248
1100,9	5,219
1101,3	2,048
1101,7	5,733
1102,1	9,533
1102,5	7,962
1102,9	7,79
1103,3	4,305
1103,7	4,648
1104,2	7,505
1104,6	8,219
1105	9,419
1105,4	9,076
1105,8	7,333
1106,2	9,562
1106,6	7,762
1107	5,248
1107,4	2,733
1107,8	0,653
1108,3	0,583
