Data from Subt2_286.txt Node
Date: Sat Aug 26 19:09:18 MSK 2023
User: vat
Spectrometer: MAYP114033
Trigger mode: 0
Integration Time (sec): 1,000000E0
Scans to average: 5
Electric dark correction enabled: true
Nonlinearity correction enabled: false
Boxcar width: 3
XAxis mode: Wavelengths
Number of Pixels in Spectrum: 2068
>>>>>Begin Spectral Data<<<<<
199,4	0,483
199,9	3,053
200,4	2,8
200,8	2,99
201,3	1,79
201,8	4,933
202,2	3,133
202,7	9,333
203,2	8,476
203,6	4,79
204,1	2,076
204,6	3,648
205	3,448
205,5	4,448
206	-1,781
206,4	-1,01
206,9	0,848
207,4	3,419
207,8	6,762
208,3	4,905
208,8	6,019
209,2	10,048
209,7	12,819
210,2	15,362
210,6	16,019
211,1	13,79
211,5	9,105
212	9,362
212,5	8,162
212,9	0,419
213,4	1,676
213,9	2,276
214,3	1,162
214,8	5,448
215,3	4,848
215,7	3,476
216,2	12,705
216,7	14,133
217,1	11,248
217,6	13,505
218,1	14,362
218,5	11,505
219	7,19
219,5	3,476
219,9	-2,238
220,4	6,648
220,9	3,505
221,3	2,305
221,8	6,048
222,3	9,39
222,7	10,362
223,2	11,905
223,6	4,59
224,1	3,705
224,6	6,19
225	4,048
225,5	5,219
226	3,762
226,4	8,162
226,9	9,79
227,4	11,905
227,8	3,99
228,3	6,648
228,8	5,505
229,2	6,362
229,7	1,848
230,2	3,762
230,6	7,933
231,1	16,076
231,5	16,448
232	18,248
232,5	17,762
232,9	22,076
233,4	17,876
233,9	10,933
234,3	13,133
234,8	14,99
235,3	11,733
235,7	9,762
236,2	8,99
236,7	7,562
237,1	12,762
237,6	6,333
238,1	2,248
238,5	0,276
239	3,362
239,4	7,79
239,9	9,905
240,4	6,819
240,8	14,39
241,3	13,648
241,8	15,248
242,2	15,676
242,7	9,39
243,2	15,105
243,6	14,619
244,1	10,79
244,6	17,762
245	17,99
245,5	12,733
245,9	9,962
246,4	3,905
246,9	7,648
247,3	8,79
247,8	6,876
248,3	13,333
248,7	17,448
249,2	22,705
249,7	24,019
250,1	27,048
250,6	24,819
251	28,619
251,5	22,419
252	20,048
252,4	21,905
252,9	22,276
253,4	15,19
253,8	14,733
254,3	10,419
254,8	14,133
255,2	11,333
255,7	6,648
256,1	7,905
256,6	6,648
257,1	10,305
257,5	4,162
258	1,39
258,5	3,59
258,9	3,476
259,4	1,562
259,9	4,362
260,3	1,362
260,8	1,648
261,2	0,705
261,7	2,99
262,2	0,59
262,6	0,162
263,1	2,59
263,6	4,733
264	11,448
264,5	16,076
264,9	12,248
265,4	13,619
265,9	14,676
266,3	16,533
266,8	16,419
267,3	12,876
267,7	7,676
268,2	11,762
268,7	16,048
269,1	14,333
269,6	9,876
270	11,905
270,5	8,19
271	9,99
271,4	10,048
271,9	3,705
272,4	7,705
272,8	6,533
273,3	-0,038
273,7	6,248
274,2	9,419
274,7	9,219
275,1	13,962
275,6	12,476
276,1	11,933
276,5	15,99
277	13,162
277,4	11,648
277,9	14,333
278,4	12,59
278,8	10,819
279,3	13,39
279,8	13,505
280,2	14,305
280,7	14,248
281,1	10,705
281,6	12,133
282,1	14,733
282,5	14,676
283	10,276
283,4	5,705
283,9	9,505
284,4	12,876
284,8	10,619
285,3	4,562
285,8	6,962
286,2	9,305
286,7	13,648
287,1	8,076
287,6	5,448
288,1	0,39
288,5	9,19
289	7,248
289,5	7,076
289,9	7,533
290,4	4,79
290,8	3,219
291,3	14,219
291,8	11,848
292,2	8,133
292,7	13,333
293,1	9,59
293,6	16,362
294,1	16,648
294,5	8,333
295	7,562
295,5	7,162
295,9	2,962
296,4	5,305
296,8	1,048
297,3	3,876
297,8	4,848
298,2	5,019
298,7	12,876
299,1	10,762
299,6	7,648
300,1	9,848
300,5	7,79
301	14,505
301,5	19,448
301,9	11,276
302,4	13,362
302,8	14,505
303,3	11,619
303,8	6,905
304,2	3,762
304,7	-4,038
305,1	-3,467
305,6	-4,238
306,1	5,162
306,5	10,448
307	15,705
307,4	16,962
307,9	18,905
308,4	17,19
308,8	16,362
309,3	10,105
309,8	6,219
310,2	6,105
310,7	1,076
311,1	0,505
311,6	3,819
312,1	6,305
312,5	7,733
313	8,819
313,4	4,676
313,9	7,39
314,4	6,305
314,8	5,276
315,3	3,419
315,7	2,819
316,2	1,676
316,7	8,019
317,1	12,019
317,6	11,362
318	17,79
318,5	16,019
319	13,648
319,4	16,476
319,9	16,619
320,3	15,876
320,8	14,419
321,3	12,333
321,7	12,362
322,2	14,505
322,6	16,019
323,1	10,848
323,6	9,533
324	7,676
324,5	5,59
324,9	11,133
325,4	7,762
325,9	6,105
326,3	8,162
326,8	7,848
327,2	10,419
327,7	9,99
328,2	4,59
328,6	9,905
329,1	3,276
329,5	6,019
330	2,99
330,5	7,676
330,9	10,219
331,4	12,933
331,8	11,562
332,3	18,448
332,8	22,819
333,2	25,305
333,7	24,076
334,1	24,619
334,6	21,305
335,1	17,733
335,5	16,362
336	6,448
336,4	7,933
336,9	13,076
337,4	17,562
337,8	19,019
338,3	20,448
338,7	24,79
339,2	27,962
339,7	28,962
340,1	21,19
340,6	16,048
341	13,105
341,5	13,99
342	5,648
342,4	5,59
342,9	4,133
343,3	4,848
343,8	2,333
344,2	5,162
344,7	9,99
345,2	12,933
345,6	8,705
346,1	10,333
346,5	8,762
347	6,562
347,5	8,276
347,9	5,876
348,4	5,048
348,8	13,619
349,3	13,133
349,8	22,762
350,2	31,705
350,7	27,419
351,1	29,648
351,6	39,762
352	39,333
352,5	46,333
353	50,905
353,4	55,933
353,9	71,19
354,3	87,048
354,8	94,733
355,3	119,476
355,7	141,933
356,2	163,933
356,6	194,276
357,1	232,248
357,5	267,905
358	315,648
358,5	364,59
358,9	418,619
359,4	486,162
359,8	556,619
360,3	640,133
360,8	728,333
361,2	828,219
361,7	935,19
362,1	1060,076
362,6	1196,59
363	1339,448
363,5	1491,848
364	1656,505
364,4	1823,848
364,9	1994,476
365,3	2156,762
365,8	2305,105
366,3	2450,619
366,7	2583,219
367,2	2699,676
367,6	2791,619
368,1	2865,905
368,5	2913,905
369	2945,248
369,5	2952,619
369,9	2925,133
370,4	2879,333
370,8	2817,505
371,3	2734,762
371,7	2639,248
372,2	2524,048
372,7	2398,305
373,1	2272,362
373,6	2138,505
374	2008,933
374,5	1874,705
374,9	1744,076
375,4	1624,076
375,9	1508,048
376,3	1394,362
376,8	1287,905
377,2	1184,362
377,7	1085,705
378,2	997,962
378,6	912,048
379,1	836,848
379,5	770,819
380	710,248
380,4	650,19
380,9	599,705
381,4	548,19
381,8	510,476
382,3	471,848
382,7	437,962
383,2	408,076
383,6	379,762
384,1	355,276
384,6	338,133
385	311,848
385,5	293,905
385,9	271,019
386,4	249,819
386,8	236,619
387,3	217,162
387,7	200,619
388,2	190,876
388,7	177,219
389,1	169,105
389,6	160,105
390	147,962
390,5	144,533
390,9	137,848
391,4	130,705
391,9	122,305
392,3	115,619
392,8	104,133
393,2	94,448
393,7	89,305
394,1	84,476
394,6	75,962
395,1	74,39
395,5	70,762
396	73,505
396,4	75,333
396,9	72,505
397,3	69,819
397,8	73,762
398,2	70,819
398,7	69,933
399,2	68,39
399,6	69,962
400,1	66,105
400,5	61,048
401	56,419
401,4	53,162
401,9	55,476
402,4	51,048
402,8	44,019
403,3	52,533
403,7	54,219
404,2	54,648
404,6	59,048
405,1	54,219
405,5	52,762
406	54,048
406,5	44,848
406,9	48,476
407,4	46,219
407,8	44,905
408,3	49,533
408,7	51,648
409,2	56,962
409,6	63,505
410,1	61,648
410,6	64,219
411	63,99
411,5	61,962
411,9	66,99
412,4	64,019
412,8	61,333
413,3	64,048
413,7	63,819
414,2	62,476
414,7	66,105
415,1	71,505
415,6	77,162
416	80,419
416,5	83,619
416,9	88,848
417,4	95,39
417,8	96,733
418,3	95,562
418,8	98,162
419,2	99,448
419,7	96,648
420,1	97,79
420,6	99,962
421	98,305
421,5	99,933
421,9	103,505
422,4	104,305
422,8	107,676
423,3	107,705
423,8	104,276
424,2	106,848
424,7	103,333
425,1	103,219
425,6	105,533
426	104,105
426,5	106,076
426,9	109,905
427,4	105,105
427,9	104,305
428,3	101,933
428,8	98,59
429,2	98,419
429,7	95,162
430,1	92,305
430,6	96,448
431	100,419
431,5	104,19
431,9	100,676
432,4	106,362
432,8	109,248
433,3	115,105
433,8	115,848
434,2	118,219
434,7	118,476
435,1	126,448
435,6	129,619
436	135,905
436,5	137,476
436,9	136,676
437,4	139,133
437,8	141,476
438,3	143,876
438,8	143,79
439,2	148,105
439,7	155,962
440,1	166,933
440,6	176,219
441	180,59
441,5	191,99
441,9	204,248
442,4	205,762
442,8	210,39
443,3	218,59
443,7	227,048
444,2	236,019
444,7	241,048
445,1	248,048
445,6	262,933
446	274,048
446,5	280,962
446,9	285,39
447,4	298,933
447,8	315,762
448,3	331,105
448,7	340,676
449,2	358,59
449,6	377,333
450,1	391,876
450,6	412,019
451	425,505
451,5	442,905
451,9	462,79
452,4	478,39
452,8	489,562
453,3	516,048
453,7	524,962
454,2	542,562
454,6	555,676
455,1	572,162
455,5	587,105
456	615,219
456,4	627,533
456,9	650,476
457,3	673,448
457,8	692,905
458,3	721,705
458,7	742,79
459,2	763,076
459,6	785,505
460,1	811,305
460,5	834,505
461	864,105
461,4	882,048
461,9	911,505
462,3	940,648
462,8	974,562
463,2	1003,705
463,7	1027,333
464,1	1058,79
464,6	1089,705
465	1118,133
465,5	1144,962
466	1170,562
466,4	1197,162
466,9	1230,79
467,3	1255,419
467,8	1279,162
468,2	1308,876
468,7	1340,219
469,1	1375,848
469,6	1409,476
470	1442,39
470,5	1476,762
470,9	1509,79
471,4	1540,59
471,8	1571,362
472,3	1600,19
472,7	1631,505
473,2	1656,133
473,6	1683,619
474,1	1724,162
474,5	1761,419
475	1793,105
475,4	1819,162
475,9	1853,133
476,4	1888,219
476,8	1921,619
477,3	1942,962
477,7	1970,533
478,2	1996,962
478,6	2031,162
479,1	2053,219
479,5	2084,648
480	2110,219
480,4	2140,276
480,9	2161,705
481,3	2188,533
481,8	2213,333
482,2	2236,19
482,7	2259,019
483,1	2281,105
483,6	2308,162
484	2335,562
484,5	2365,505
484,9	2388,619
485,4	2420,533
485,8	2439,99
486,3	2460,762
486,7	2474,962
487,2	2493,705
487,6	2504,676
488,1	2519,705
488,5	2531,533
489	2552,705
489,4	2572,476
489,9	2590,79
490,4	2607,048
490,8	2628,476
491,3	2644,533
491,7	2658,333
492,2	2674,076
492,6	2689,19
493,1	2701,448
493,5	2705,533
494	2709,819
494,4	2717,79
494,9	2723,019
495,3	2733,39
495,8	2739,762
496,2	2751,248
496,7	2759,419
497,1	2777,562
497,6	2786,79
498	2796,39
498,5	2796,048
498,9	2796,448
499,4	2801,819
499,8	2813,676
500,3	2809,19
500,7	2811,848
501,2	2813,076
501,6	2814,076
502,1	2819,762
502,5	2818,362
503	2821,219
503,4	2821,39
503,9	2825,419
504,3	2832,476
504,8	2843,619
505,2	2843,362
505,7	2847,533
506,1	2849,476
506,6	2849,962
507	2845,848
507,5	2846,019
507,9	2836,019
508,4	2842,648
508,8	2839,476
509,3	2832,505
509,7	2834,448
510,2	2833,305
510,6	2828,733
511,1	2832,676
511,5	2822,962
512	2823,048
512,4	2830,019
512,9	2829,105
513,3	2832,048
513,8	2833,019
514,2	2824,619
514,7	2825,619
515,1	2826,048
515,6	2814,276
516	2809,362
516,5	2810,048
516,9	2803,048
517,4	2807,448
517,8	2813,276
518,3	2808,819
518,7	2812,733
519,2	2815,848
519,6	2813,133
520,1	2820,19
520,5	2811,705
521	2804,876
521,4	2811,962
521,9	2811,705
522,3	2808,933
522,8	2804,705
523,2	2800,505
523,7	2807,105
524,1	2806,39
524,6	2797,305
525	2792,962
525,5	2792,133
525,9	2797,248
526,4	2795,648
526,8	2791,19
527,3	2794,105
527,7	2800,105
528,2	2801,79
528,6	2796,448
529,1	2791,505
529,5	2796,019
530	2792,533
530,4	2791,248
530,9	2786,648
531,3	2790,848
531,8	2800,705
532,2	2807,505
532,6	2805,076
533,1	2810,79
533,5	2812,333
534	2816,333
534,4	2822,305
534,9	2826,505
535,3	2823,533
535,8	2822,248
536,2	2829,733
536,7	2829,219
537,1	2830,705
537,6	2829,219
538	2819,819
538,5	2827,99
538,9	2830,105
539,4	2831,505
539,8	2838,819
540,3	2840,848
540,7	2837,676
541,2	2842,562
541,6	2840,762
542,1	2849,448
542,5	2854,105
543	2849,162
543,4	2851,076
543,9	2860,105
544,3	2870,19
544,8	2867,19
545,2	2867,59
545,7	2870,39
546,1	2875,933
546,5	2881,733
547	2881,99
547,4	2884,048
547,9	2893,533
548,3	2896,419
548,8	2900,476
549,2	2910,476
549,7	2916,305
550,1	2919,876
550,6	2917,162
551	2921,276
551,5	2926,39
551,9	2931,305
552,4	2931,19
552,8	2930,248
553,3	2935,276
553,7	2942,305
554,2	2944,533
554,6	2946,476
555,1	2949,133
555,5	2949,162
555,9	2950,048
556,4	2945,219
556,8	2947,048
557,3	2955,362
557,7	2959,905
558,2	2958,505
558,6	2962,19
559,1	2968,676
559,5	2976,333
560	2978,305
560,4	2976,476
560,9	2979,676
561,3	2978,848
561,8	2976,162
562,2	2977,676
562,7	2976,39
563,1	2982,419
563,6	2979,933
564	2981,905
564,4	2981,619
564,9	2988,905
565,3	2991,733
565,8	2995,533
566,2	2993,076
566,7	3003,505
567,1	3005,276
567,6	3010,819
568	3012,505
568,5	3008,905
568,9	3004,933
569,4	3004,59
569,8	2996,762
570,3	2995,133
570,7	2986,448
571,1	2987,59
571,6	2988,59
572	2999,19
572,5	2999,676
572,9	2996,105
573,4	2996,705
573,8	3008,419
574,3	3009,99
574,7	3002,019
575,2	2997,333
575,6	2998,59
576,1	3002,019
576,5	3004,076
576,9	3000,305
577,4	2993,505
577,8	2996,648
578,3	2996,419
578,7	2994,19
579,2	2995,676
579,6	2982,876
580,1	2974,39
580,5	2974,19
581	2976,019
581,4	2968,19
581,9	2960,019
582,3	2950,819
582,7	2958,819
583,2	2958,59
583,6	2954,676
584,1	2952,39
584,5	2945,733
585	2942,962
585,4	2938,362
585,9	2921,533
586,3	2918,019
586,8	2917,533
587,2	2911,505
587,6	2913,133
588,1	2911,133
588,5	2908,676
589	2911,362
589,4	2906,619
589,9	2894,562
590,3	2889,333
590,8	2883,448
591,2	2881,562
591,7	2883,048
592,1	2877,933
592,5	2875,162
593	2870,105
593,4	2863,876
593,9	2855,819
594,3	2850,648
594,8	2839,933
595,2	2834,933
595,7	2831,076
596,1	2827,248
596,6	2822,648
597	2819,705
597,4	2813,39
597,9	2808,133
598,3	2807,562
598,8	2802,733
599,2	2798,848
599,7	2794,105
600,1	2781,533
600,6	2777,648
601	2774,848
601,4	2773,59
601,9	2772,505
602,3	2767,476
602,8	2757,762
603,2	2758,59
603,7	2752,505
604,1	2748,905
604,6	2733,533
605	2717,676
605,4	2710,905
605,9	2708,19
606,3	2701,79
606,8	2688,619
607,2	2674,248
607,7	2664,59
608,1	2660,648
608,6	2655,848
609	2651,648
609,4	2646,505
609,9	2643,533
610,3	2640,819
610,8	2637,933
611,2	2633,248
611,7	2625,99
612,1	2611,162
612,6	2601,762
613	2594,99
613,4	2583,705
613,9	2570,648
614,3	2554,476
614,8	2544,39
615,2	2533,905
615,7	2522,276
616,1	2512,79
616,6	2499,648
617	2491,619
617,4	2483,905
617,9	2472,476
618,3	2466,333
618,8	2460,876
619,2	2449,448
619,7	2450,333
620,1	2443,39
620,5	2439,562
621	2430,019
621,4	2422,048
621,9	2409,419
622,3	2401,419
622,8	2384,59
623,2	2372,419
623,6	2357,705
624,1	2353,133
624,5	2346,533
625	2343,79
625,4	2337,848
625,9	2332,133
626,3	2324,076
626,8	2318,419
627,2	2313,476
627,6	2299,619
628,1	2283,79
628,5	2272,905
629	2256,562
629,4	2246,762
629,9	2235,333
630,3	2212,533
630,7	2199,79
631,2	2194,276
631,6	2175,933
632,1	2169,476
632,5	2151,362
633	2142,333
633,4	2136,933
633,8	2134,105
634,3	2120,676
634,7	2114,133
635,2	2105,876
635,6	2107,819
636,1	2097,619
636,5	2085,962
636,9	2069,733
637,4	2060,419
637,8	2047,133
638,3	2034,905
638,7	2019,105
639,2	2005,562
639,6	2000,476
640	1993,105
640,5	1983,133
640,9	1976,19
641,4	1964,933
641,8	1957,648
642,2	1949,533
642,7	1939,276
643,1	1932,362
643,6	1920,333
644	1915,505
644,5	1911,105
644,9	1901,305
645,3	1887,162
645,8	1870,819
646,2	1863,362
646,7	1856,333
647,1	1845,019
647,6	1838,448
648	1833,19
648,4	1827,448
648,9	1824,962
649,3	1809,076
649,8	1801,219
650,2	1792,305
650,6	1784,362
651,1	1769,276
651,5	1769,505
652	1760,448
652,4	1756,876
652,9	1751,19
653,3	1742,762
653,7	1727,819
654,2	1721,133
654,6	1703,848
655,1	1694,648
655,5	1686,219
655,9	1673,105
656,4	1666,048
656,8	1656,419
657,3	1645,676
657,7	1636,619
658,2	1624,99
658,6	1613,133
659	1603,476
659,5	1587,705
659,9	1579,505
660,4	1575,019
660,8	1565,476
661,2	1558,962
661,7	1555,848
662,1	1548,248
662,6	1545,048
663	1537,448
663,4	1525,99
663,9	1521,276
664,3	1508,933
664,8	1493,79
665,2	1485,533
665,6	1471,905
666,1	1463,048
666,5	1460,076
667	1449,276
667,4	1439,105
667,9	1432,448
668,3	1421,333
668,7	1412,162
669,2	1405,162
669,6	1388,933
670,1	1379,99
670,5	1374,905
670,9	1365,305
671,4	1356,619
671,8	1353,333
672,3	1348,876
672,7	1344,162
673,1	1337,019
673,6	1330,505
674	1326,019
674,5	1319,533
674,9	1310,133
675,3	1298,562
675,8	1295,962
676,2	1289,933
676,7	1275,962
677,1	1268,133
677,5	1264,048
678	1259,333
678,4	1250,048
678,9	1238,505
679,3	1231,162
679,7	1230,248
680,2	1214,019
680,6	1201,79
681,1	1191,933
681,5	1187,362
681,9	1177,962
682,4	1170,876
682,8	1162,733
683,3	1161,448
683,7	1161,505
684,1	1157,905
684,6	1148,133
685	1142,448
685,5	1133,876
685,9	1127,619
686,3	1117,676
686,8	1102,505
687,2	1093,99
687,7	1085,905
688,1	1075,362
688,5	1070,533
689	1061,819
689,4	1054,362
689,9	1049,619
690,3	1039,733
690,7	1034,762
691,2	1034,676
691,6	1027,505
692	1022,648
692,5	1021,019
692,9	1018,219
693,4	1015,362
693,8	1010,99
694,2	1000,676
694,7	993,219
695,1	984,705
695,6	982,476
696	976,448
696,4	968,876
696,9	958,848
697,3	950,362
697,8	942,733
698,2	937,276
698,6	929,133
699,1	921,162
699,5	918,762
699,9	913,533
700,4	909,99
700,8	906,333
701,3	903,476
701,7	895,105
702,1	890,419
702,6	884,476
703	878,819
703,5	871,59
703,9	861,99
704,3	856,676
704,8	850,048
705,2	845,219
705,6	834,562
706,1	831,933
706,5	827,305
707	827,248
707,4	821,676
707,8	815,79
708,3	815,819
708,7	815,419
709,2	810,39
709,6	805,333
710	800,819
710,5	795,362
710,9	795,876
711,3	782,733
711,8	775,59
712,2	769,133
712,7	762,79
713,1	762,476
713,5	759,876
714	751,419
714,4	746,048
714,8	742,419
715,3	738,39
715,7	741,79
716,2	728,048
716,6	723,676
717	717,819
717,5	712,962
717,9	708,562
718,3	703,076
718,8	694,533
719,2	690,59
719,7	685,676
720,1	684,019
720,5	687,248
721	680,505
721,4	679,705
721,8	677,619
722,3	673,133
722,7	668,562
723,2	655,848
723,6	639,848
724	635,19
724,5	625,162
724,9	617,048
725,3	611,076
725,8	604,333
726,2	605,848
726,7	608,876
727,1	603,619
727,5	602,39
728	595,762
728,4	596,962
728,8	592,019
729,3	588,248
729,7	583,505
730,1	579,59
730,6	577,733
731	575,562
731,5	569,562
731,9	566,39
732,3	564,505
732,8	563,276
733,2	562,848
733,6	556,162
734,1	553,533
734,5	551,105
734,9	551,876
735,4	546,419
735,8	535,133
736,3	534,733
736,7	532,219
737,1	528,762
737,6	524,705
738	518,133
738,4	516,99
738,9	515,99
739,3	506,905
739,7	507,048
740,2	504,99
740,6	507,505
741,1	508,305
741,5	499,848
741,9	500,59
742,4	500,476
742,8	497,19
743,2	493,905
743,7	484,105
744,1	476,905
744,5	476,962
745	476,162
745,4	468,905
745,8	464,99
746,3	464,79
746,7	464,848
747,2	465,333
747,6	468,276
748	466,476
748,5	470,076
748,9	463,276
749,3	456,59
749,8	453,819
750,2	449,676
750,6	441,619
751,1	440,819
751,5	435,848
751,9	437,133
752,4	438,019
752,8	437,533
753,3	434,305
753,7	436,219
754,1	426,019
754,6	421,99
755	417,105
755,4	412,419
755,9	407,876
756,3	402,962
756,7	398,305
757,2	399,248
757,6	399,848
758	396,59
758,5	394,333
758,9	391,076
759,3	389,705
759,8	383,133
760,2	377,79
760,6	372,39
761,1	366,676
761,5	365,39
761,9	359,848
762,4	357,648
762,8	357,562
763,3	354,333
763,7	354,505
764,1	357,305
764,6	356,619
765	357,762
765,4	357,476
765,9	357,876
766,3	361,419
766,7	353,39
767,2	349,248
767,6	347,105
768	343,19
768,5	337,762
768,9	337,305
769,3	335,219
769,8	335,219
770,2	334,276
770,6	332,962
771,1	337,019
771,5	337,048
771,9	336,248
772,4	335,419
772,8	334,876
773,2	333,39
773,7	328,105
774,1	322,19
774,5	315,676
775	311,905
775,4	308,59
775,8	305,39
776,3	308,848
776,7	307,219
777,1	303,305
777,6	306,476
778	306,105
778,4	305,105
778,9	302,905
779,3	293,962
779,7	290,419
780,2	287,048
780,6	282,905
781	276,448
781,5	273,648
781,9	273,848
782,3	272,59
782,8	272,219
783,2	269,848
783,6	274,448
784,1	274,648
784,5	266,648
784,9	264,933
785,4	267,962
785,8	268,762
786,2	271,876
786,7	267,705
787,1	263,533
787,5	265,733
788	266,162
788,4	262,562
788,8	257,99
789,3	254,248
789,7	250,533
790,1	249,59
790,6	251,619
791	246,676
791,4	243,59
791,9	235,79
792,3	230,562
792,7	232,705
793,2	227,933
793,6	224,99
794	223,905
794,5	222,39
794,9	230,276
795,3	234,333
795,8	228,276
796,2	225,533
796,6	223,333
797,1	226,39
797,5	222,333
797,9	215,019
798,4	207,562
798,8	208,762
799,2	209,99
799,7	207,333
800,1	203,219
800,5	201,162
801	204,39
801,4	201,762
801,8	195,79
802,2	196,79
802,7	191,476
803,1	187,305
803,5	189,476
804	183,19
804,4	186,933
804,8	188,476
805,3	185,562
805,7	186,962
806,1	187,648
806,6	186,676
807	189,848
807,4	190,619
807,9	184,019
808,3	185,848
808,7	184,762
809,2	182,248
809,6	180,905
810	177,248
810,4	171,076
810,9	174,076
811,3	173,733
811,7	170,39
812,2	172,419
812,6	170,79
813	175,419
813,5	180,105
813,9	177,476
814,3	174,676
814,8	174,79
815,2	169,819
815,6	168,762
816,1	165,419
816,5	159,676
816,9	157,848
817,3	154,962
817,8	161,962
818,2	166,219
818,6	159,705
819,1	153,905
819,5	150,419
819,9	152,819
820,4	150,419
820,8	140,676
821,2	133,219
821,7	140,39
822,1	145,276
822,5	155,819
822,9	153,562
823,4	154,105
823,8	153,39
824,2	154,419
824,7	146,848
825,1	138,676
825,5	129,076
826	126,019
826,4	122,248
826,8	120,562
827,3	120,562
827,7	121,79
828,1	122,733
828,5	122,59
829	121,276
829,4	123,733
829,8	121,648
830,3	120,39
830,7	119,619
831,1	121,076
831,6	119,448
832	119,99
832,4	118,162
832,8	117,048
833,3	114,476
833,7	111,79
834,1	107,619
834,6	104,59
835	105,162
835,4	106,419
835,8	103,648
836,3	100,705
836,7	100,648
837,1	100,39
837,6	99,99
838	98,419
838,4	96,648
838,9	99,962
839,3	100,619
839,7	101,162
840,1	96,933
840,6	100,305
841	102,419
841,4	96,733
841,9	96,933
842,3	96,905
842,7	96,762
843,1	98,905
843,6	98,305
844	96,076
844,4	102,248
844,9	102,79
845,3	104,076
845,7	104,819
846,2	105,562
846,6	100,333
847	99,619
847,4	96,59
847,9	97,39
848,3	96,333
848,7	94,876
849,2	96,419
849,6	93,048
850	92,048
850,4	91,562
850,9	89,133
851,3	90,705
851,7	88,905
852,2	84,59
852,6	88,848
853	89,733
853,4	89,705
853,9	86,219
854,3	81,933
854,7	81,105
855,2	79,905
855,6	78,276
856	74,59
856,4	68,619
856,9	66,876
857,3	65,419
857,7	66,962
858,2	68,876
858,6	69,762
859	74,762
859,4	76,133
859,9	77,362
860,3	75,819
860,7	73,305
861,1	75,362
861,6	71,59
862	67,133
862,4	66,333
862,9	67,333
863,3	67,476
863,7	66,59
864,1	64,705
864,6	66,676
865	64,448
865,4	66,676
865,9	68,533
866,3	67,362
866,7	66,248
867,1	60,333
867,6	59,876
868	62,619
868,4	60,448
868,8	57,19
869,3	61,105
869,7	63,219
870,1	63,276
870,6	60,505
871	8,219
871,4	10,933
871,8	8,276
872,3	4,876
872,7	7,219
873,1	6,99
873,5	11,105
874	58,105
874,4	56,019
874,8	53,419
875,3	56,99
875,7	50,219
876,1	52,819
876,5	52,905
877	50,648
877,4	46,705
877,8	53,105
878,2	54,648
878,7	58,59
879,1	59,219
879,5	54,133
879,9	58,105
880,4	61,105
880,8	56,39
881,2	51,533
881,7	49,019
882,1	49,19
882,5	49,505
882,9	45,59
883,4	44,39
883,8	47,162
884,2	46,533
884,6	47,105
885,1	47,59
885,5	48,533
885,9	48,733
886,3	50,133
886,8	46,276
887,2	40,79
887,6	39,39
888	37,933
888,5	37,962
888,9	38,476
889,3	33,019
889,8	36,019
890,2	40,276
890,6	35,848
891	33,762
891,5	31,448
891,9	33,333
892,3	40,562
892,7	38,219
893,2	38,39
893,6	43,048
894	45,733
894,4	47,333
894,9	44,676
895,3	41,248
895,7	42,476
896,1	41,276
896,6	40,162
897	40,705
897,4	46,133
897,8	47,79
898,3	49,762
898,7	47,533
899,1	43,476
899,5	41,305
900	33,876
900,4	28,276
900,8	25,933
901,2	21,99
901,7	21,162
902,1	24,848
902,5	30,562
902,9	29,562
903,4	28,676
903,8	31,162
904,2	27,505
904,6	30,419
905,1	34,505
905,5	34,276
905,9	40,962
906,3	40,59
906,8	42,648
907,2	45,762
907,6	43,162
908	41,99
908,5	34,819
908,9	29,276
909,3	31,39
909,7	29,048
910,2	26,476
910,6	33,305
911	29,848
911,4	34,733
911,9	33,39
912,3	34,676
912,7	32,762
913,1	35,933
913,6	29,133
914	28,819
914,4	27,448
914,8	32,162
915,3	26,19
915,7	30,305
916,1	29,59
916,5	29,019
916,9	32,79
917,4	32,105
917,8	31,79
918,2	28,59
918,6	21,39
919,1	24,333
919,5	27,619
919,9	24,648
920,3	22,848
920,8	22,362
921,2	24,476
921,6	22,505
922	17,476
922,5	15,876
922,9	15,848
923,3	16,476
923,7	16,219
924,2	17,99
924,6	20,762
925	20,476
925,4	19,705
925,8	18,99
926,3	20,362
926,7	18,59
927,1	20,133
927,5	23,733
928	19,619
928,4	18,505
928,8	18,105
929,2	14,99
929,7	15,819
930,1	17,79
930,5	16,076
930,9	25,819
931,3	26,505
931,8	29,105
932,2	31,362
932,6	29,362
933	21,133
933,5	20,933
933,9	22,59
934,3	23,933
934,7	18,019
935,2	17,79
935,6	18,505
936	20,79
936,4	21,99
936,8	17,19
937,3	18,419
937,7	21,39
938,1	23,705
938,5	20,79
939	22,276
939,4	20,048
939,8	21,533
940,2	17,219
940,6	19,676
941,1	18,762
941,5	24,419
941,9	19,305
942,3	19,533
942,8	17,562
943,2	20,19
943,6	16,733
944	16,962
944,4	15,019
944,9	19,59
945,3	20,533
945,7	16,162
946,1	11,048
946,6	12,648
947	7,762
947,4	10,448
947,8	6,505
948,2	2,705
948,7	5,305
949,1	8,562
949,5	12,19
949,9	12,448
950,3	12,476
950,8	18,248
951,2	17,962
951,6	17,762
952	21,162
952,5	12,733
952,9	15,676
953,3	13,333
953,7	9,19
954,1	16,562
954,6	16,219
955	15,333
955,4	17,362
955,8	17,133
956,2	17,39
956,7	21,219
957,1	12,39
957,5	16,59
957,9	16,905
958,3	20,305
958,8	22,219
959,2	23,99
959,6	25,59
960	28,99
960,5	30,076
960,9	27,105
961,3	22,59
961,7	19,905
962,1	22,105
962,6	19,076
963	19,305
963,4	13,676
963,8	14,619
964,2	16,619
964,7	15,476
965,1	13,276
965,5	11,59
965,9	11,733
966,3	14,39
966,8	11,933
967,2	12,762
967,6	12,562
968	9,048
968,4	13,048
968,9	15,905
969,3	21,248
969,7	21,648
970,1	23,562
970,5	24,533
971	30,362
971,4	29,819
971,8	28,419
972,2	23,219
972,6	23,876
973,1	25,248
973,5	25,933
973,9	21,819
974,3	15,448
974,7	15,476
975,2	16,819
975,6	13,648
976	10,648
976,4	7,219
976,8	9,362
977,3	13,476
977,7	10,562
978,1	8,419
978,5	10,562
978,9	9,762
979,4	9,876
979,8	4,676
980,2	3,933
980,6	1,505
981	5,305
981,5	5,505
981,9	4,762
982,3	7,219
982,7	10,305
983,1	12,333
983,6	14,19
984	11,162
984,4	13,048
984,8	16,962
985,2	17,819
985,6	15,733
986,1	16,79
986,5	21,105
986,9	19,705
987,3	20,333
987,7	18,476
988,2	17,362
988,6	20,248
989	17,162
989,4	12,39
989,8	13,619
990,3	10,619
990,7	8,562
991,1	10,19
991,5	12,619
991,9	14,276
992,3	16,59
992,8	14,676
993,2	12,733
993,6	14,876
994	14,419
994,4	11,362
994,9	11,019
995,3	10,59
995,7	11,162
996,1	15,619
996,5	14,562
996,9	12,105
997,4	15,305
997,8	12,562
998,2	11,133
998,6	7,562
999	2,905
999,5	0,048
999,9	-1,667
1000,3	-5,495
1000,7	-0,524
1001,1	1,59
1001,5	6,505
1002	15,848
1002,4	20,905
1002,8	20,733
1003,2	19,705
1003,6	17,162
1004	19,733
1004,5	16,533
1004,9	10,562
1005,3	7,533
1005,7	8,162
1006,1	7,762
1006,6	10,705
1007	7,762
1007,4	5,79
1007,8	7,219
1008,2	4,59
1008,6	9,905
1009,1	7,962
1009,5	3,133
1009,9	5,705
1010,3	8,705
1010,7	5,448
1011,1	7,619
1011,6	7,533
1012	12,419
1012,4	11,533
1012,8	6,505
1013,2	13,876
1013,6	17,733
1014,1	20,219
1014,5	14,448
1014,9	13,59
1015,3	14,333
1015,7	20,305
1016,1	13,562
1016,6	9,448
1017	8,048
1017,4	13,648
1017,8	12,362
1018,2	17,133
1018,6	10,705
1019,1	11,962
1019,5	15,162
1019,9	15,619
1020,3	12,733
1020,7	11,962
1021,1	9,305
1021,6	13,505
1022	16,219
1022,4	15,876
1022,8	13,219
1023,2	13,505
1023,6	14,819
1024,1	19,705
1024,5	22,248
1024,9	15,248
1025,3	13,905
1025,7	16,105
1026,1	19,533
1026,6	20,076
1027	17,162
1027,4	12,59
1027,8	13,019
1028,2	11,048
1028,6	16,905
1029	10,276
1029,5	11,39
1029,9	7,276
1030,3	7,619
1030,7	13,133
1031,1	21,076
1031,5	11,762
1032	16,876
1032,4	16,276
1032,8	22,762
1033,2	26,762
1033,6	22,219
1034	16,762
1034,4	18,133
1034,9	16,648
1035,3	13,562
1035,7	12,505
1036,1	6,619
1036,5	5,905
1036,9	8,876
1037,4	14,476
1037,8	12,276
1038,2	12,39
1038,6	9,162
1039	14,619
1039,4	22,905
1039,8	18,533
1040,3	15,733
1040,7	19,39
1041,1	21,19
1041,5	24,676
1041,9	18,276
1042,3	14,219
1042,7	15,762
1043,2	17,048
1043,6	10,105
1044	10,048
1044,4	5,876
1044,8	13,448
1045,2	10,133
1045,6	10,019
1046,1	6,933
1046,5	8,99
1046,9	10,419
1047,3	13,962
1047,7	6,448
1048,1	8,733
1048,5	4,248
1049	9,733
1049,4	15,819
1049,8	16,362
1050,2	10,733
1050,6	17,762
1051	18,648
1051,4	24,362
1051,9	20,333
1052,3	23,19
1052,7	18,676
1053,1	17,505
1053,5	15,648
1053,9	16,819
1054,3	15,933
1054,8	21,933
1055,2	18,733
1055,6	27,133
1056	31,705
1056,4	30,219
1056,8	23,905
1057,2	25,79
1057,6	15,562
1058,1	16,619
1058,5	7,99
1058,9	12,333
1059,3	8,076
1059,7	9,876
1060,1	4,819
1060,5	8,333
1061	10,962
1061,4	11,505
1061,8	10,048
1062,2	15,676
1062,6	22,476
1063	26,448
1063,4	26,733
1063,8	18,19
1064,3	16,219
1064,7	16,419
1065,1	13,133
1065,5	5,219
1065,9	-0,095
1066,3	0,105
1066,7	-1,181
1067,1	-0,467
1067,6	-2,781
1068	-3,124
1068,4	0,648
1068,8	4,162
1069,2	5,048
1069,6	5,59
1070	6,99
1070,4	6,362
1070,9	5,476
1071,3	4,362
1071,7	5,305
1072,1	3,219
1072,5	5,105
1072,9	5,419
1073,3	5,333
1073,7	4,162
1074,2	4,562
1074,6	6,476
1075	5,59
1075,4	5,133
1075,8	8,962
1076,2	8,105
1076,6	15,162
1077	17,162
1077,5	18,79
1077,9	20,962
1078,3	18,562
1078,7	12,19
1079,1	14,476
1079,5	9,276
1079,9	8,448
1080,3	5,219
1080,7	6,933
1081,2	12,99
1081,6	17,705
1082	14,619
1082,4	18,848
1082,8	19,448
1083,2	21,048
1083,6	18,848
1084	17,762
1084,5	17,305
1084,9	12,819
1085,3	7,905
1085,7	7,733
1086,1	8,019
1086,5	11,162
1086,9	11,076
1087,3	11,676
1087,7	15,562
1088,2	18,99
1088,6	16,848
1089	12,019
1089,4	7,59
1089,8	8,248
1090,2	11,476
1090,6	9,733
1091	10,905
1091,4	11,933
1091,9	13,276
1092,3	18,305
1092,7	12,848
1093,1	10,362
1093,5	13,99
1093,9	10,905
1094,3	12,276
1094,7	11,476
1095,1	7,876
1095,5	13,076
1096	10,99
1096,4	12,562
1096,8	12,705
1097,2	11,848
1097,6	16,705
1098	15,99
1098,4	14,79
1098,8	15,076
1099,2	18,59
1099,6	21,133
1100,1	17,048
1100,5	11,533
1100,9	12,105
1101,3	14,19
1101,7	12,99
1102,1	8,305
1102,5	9,533
1102,9	14,79
1103,3	19,962
1103,7	21,933
1104,2	18,933
1104,6	20,162
1105	18,619
1105,4	15,59
1105,8	11,362
1106,2	6,933
1106,6	3,79
1107	2,819
1107,4	1,333
1107,8	1,253
1108,3	-0,467
