Data from Subt2_301.txt Node
Date: Sat Aug 26 19:13:13 MSK 2023
User: vat
Spectrometer: MAYP114033
Trigger mode: 0
Integration Time (sec): 1,000000E0
Scans to average: 5
Electric dark correction enabled: true
Nonlinearity correction enabled: false
Boxcar width: 3
XAxis mode: Wavelengths
Number of Pixels in Spectrum: 2068
>>>>>Begin Spectral Data<<<<<
199,4	-0,467
199,9	1,033
200,4	1,967
200,8	1,919
201,3	1,548
201,8	3,919
202,2	0,519
202,7	2,29
203,2	1,833
203,6	0,433
204,1	-3,481
204,6	0,348
205	-1,681
205,5	1,062
206	1,719
206,4	1,376
206,9	-1,281
207,4	5,376
207,8	4,948
208,3	4,09
208,8	6,605
209,2	8,148
209,7	8,29
210,2	12,976
210,6	13,49
211,1	12,633
211,5	12,433
212	11,462
212,5	8,976
212,9	8,633
213,4	10,662
213,9	9,605
214,3	9,548
214,8	12,062
215,3	12,748
215,7	15,776
216,2	18,262
216,7	14,376
217,1	9,576
217,6	11,919
218,1	11,319
218,5	5,405
219	-3,195
219,5	-4,138
219,9	-9,167
220,4	0,833
220,9	-2,31
221,3	-1,538
221,8	3,519
222,3	8,548
222,7	9,89
223,2	11,176
223,6	1,576
224,1	-0,995
224,6	-0,367
225	-4,852
225,5	-6,881
226	-7,795
226,4	-1,31
226,9	5,176
227,4	7,862
227,8	1,09
228,3	5,033
228,8	9,29
229,2	13,205
229,7	13,833
230,2	12,262
230,6	13,262
231,1	22,69
231,5	24,862
232	27,005
232,5	18,862
232,9	19,719
233,4	19,119
233,9	19,976
234,3	14,748
234,8	15,148
235,3	11,462
235,7	17,319
236,2	16,776
236,7	16,005
237,1	16,948
237,6	17,69
238,1	17,348
238,5	10,148
239	11,948
239,4	12,776
239,9	10,319
240,4	6,748
240,8	9,805
241,3	7,748
241,8	12,319
242,2	8,948
242,7	3,49
243,2	6,548
243,6	4,948
244,1	2,576
244,6	3,033
245	5,09
245,5	4,09
245,9	4,148
246,4	1,548
246,9	5,29
247,3	6,29
247,8	5,033
248,3	6,433
248,7	7,748
249,2	11,319
249,7	13,462
250,1	15,233
250,6	9,576
251	11,262
251,5	13,519
252	10,233
252,4	11,633
252,9	9,119
253,4	0,662
253,8	3,433
254,3	2,576
254,8	-1,91
255,2	-3,452
255,7	-6,195
256,1	-3,91
256,6	1,862
257,1	3,005
257,5	-0,052
258	1,062
258,5	4,09
258,9	4,919
259,4	3,262
259,9	7,062
260,3	8,262
260,8	6,833
261,2	5,805
261,7	9,262
262,2	3,89
262,6	5,176
263,1	3,148
263,6	5,576
264	9,605
264,5	14,776
264,9	12,49
265,4	18,976
265,9	17,748
266,3	20,576
266,8	20,49
267,3	19,776
267,7	14,119
268,2	13,69
268,7	13,69
269,1	15,262
269,6	9,405
270	9,519
270,5	8,119
271	9,69
271,4	10,176
271,9	4,49
272,4	11,09
272,8	13,805
273,3	8,433
273,7	13,205
274,2	9,719
274,7	9,462
275,1	9,233
275,6	3,748
276,1	0,748
276,5	7,919
277	4,262
277,4	7,69
277,9	10,919
278,4	15,776
278,8	18,062
279,3	17,662
279,8	13,005
280,2	15,062
280,7	19,062
281,1	11,919
281,6	12,548
282,1	11,033
282,5	12,69
283	13,033
283,4	12,119
283,9	8,69
284,4	15,576
284,8	15,148
285,3	13,519
285,8	12,919
286,2	8,89
286,7	6,919
287,1	8,005
287,6	3,662
288,1	-0,71
288,5	-0,252
289	-0,338
289,5	2,862
289,9	4,462
290,4	4,205
290,8	4,805
291,3	6,605
291,8	7,176
292,2	3,805
292,7	10,176
293,1	6,748
293,6	6,205
294,1	7,062
294,5	7,89
295	6,319
295,5	8,576
295,9	3,776
296,4	4,405
296,8	3,576
297,3	2,548
297,8	0,605
298,2	-1,31
298,7	3,519
299,1	3,462
299,6	5,776
300,1	9,548
300,5	12,262
301	12,033
301,5	21,033
301,9	17,462
302,4	15,719
302,8	19,29
303,3	15,176
303,8	9,433
304,2	12,69
304,7	5,062
305,1	2,462
305,6	2,605
306,1	3,205
306,5	4,633
307	12,062
307,4	14,176
307,9	15,748
308,4	16,29
308,8	16,09
309,3	14,833
309,8	13,548
310,2	11,148
310,7	5,833
311,1	7,49
311,6	8,748
312,1	11,148
312,5	9,833
313	11,49
313,4	10,919
313,9	14,319
314,4	11,405
314,8	13,233
315,3	10,376
315,7	5,148
316,2	1,605
316,7	-2,538
317,1	-1,024
317,6	2,033
318	2,748
318,5	2,09
319	8,176
319,4	9,719
319,9	19,005
320,3	18,348
320,8	15,976
321,3	16,833
321,7	20,49
322,2	20,405
322,6	24,29
323,1	21,148
323,6	14,29
324	13,576
324,5	9,748
324,9	7,176
325,4	4,633
325,9	1,519
326,3	-2,595
326,8	4,205
327,2	1,776
327,7	3,948
328,2	4,29
328,6	7,805
329,1	4,205
329,5	5,576
330	3,748
330,5	9,633
330,9	9,548
331,4	9,433
331,8	3,09
332,3	11,69
332,8	13,862
333,2	15,605
333,7	14,348
334,1	15,062
334,6	12,119
335,1	11,176
335,5	7,862
336	7,462
336,4	6,119
336,9	8,519
337,4	11,662
337,8	11,948
338,3	15,748
338,7	19,919
339,2	18,89
339,7	19,833
340,1	15,005
340,6	12,005
341	13,376
341,5	12,233
342	3,319
342,4	-1,167
342,9	-2,938
343,3	-2,681
343,8	-3,252
344,2	0,462
344,7	4,09
345,2	8,662
345,6	13,319
346,1	15,29
346,5	13,805
347	11,319
347,5	10,548
347,9	12,89
348,4	14,233
348,8	14,09
349,3	17,119
349,8	19,719
350,2	26,633
350,7	22,833
351,1	21,519
351,6	25,09
352	30,062
352,5	30,29
353	35,033
353,4	39,576
353,9	57,433
354,3	68,49
354,8	78,719
355,3	98,148
355,7	116,119
356,2	136,519
356,6	157,748
357,1	180,805
357,5	209,233
358	244,948
358,5	272,348
358,9	316,148
359,4	369,262
359,8	424,89
360,3	483,348
360,8	549,976
361,2	625,205
361,7	711,862
362,1	807,233
362,6	907,662
363	1013,605
363,5	1127,776
364	1254,948
364,4	1379,862
364,9	1512,29
365,3	1633,462
365,8	1747,033
366,3	1861,262
366,7	1961,033
367,2	2042,405
367,6	2111,633
368,1	2159,09
368,5	2196,919
369	2214,719
369,5	2216,319
369,9	2201,776
370,4	2171,062
370,8	2120,89
371,3	2057,09
371,7	1987,376
372,2	1907,033
372,7	1814,976
373,1	1722,376
373,6	1623,69
374	1526,919
374,5	1430,033
374,9	1332,062
375,4	1237,319
375,9	1148,633
376,3	1058,062
376,8	972,948
377,2	893,29
377,7	820,29
378,2	748,776
378,6	692,662
379,1	633,719
379,5	586,348
380	546,89
380,4	506,662
380,9	464,233
381,4	428,833
381,8	393,776
382,3	370,462
382,7	343,176
383,2	316,776
383,6	295,919
384,1	282,548
384,6	266,005
385	245,919
385,5	224,633
385,9	208,833
386,4	191,176
386,8	179,633
387,3	167,033
387,7	154,376
388,2	146,462
388,7	136,405
389,1	127,948
389,6	122,89
390	114,576
390,5	112,49
390,9	109,09
391,4	104,29
391,9	99,205
392,3	99,433
392,8	91,405
393,2	80,205
393,7	71,748
394,1	66,176
394,6	63,09
395,1	62,09
395,5	54,148
396	57,205
396,4	58,805
396,9	56,319
397,3	59,605
397,8	56,976
398,2	59,633
398,7	61,348
399,2	57,919
399,6	59,69
400,1	62,462
400,5	51,176
401	49,862
401,4	40,776
401,9	38,233
402,4	40,69
402,8	38,605
403,3	40,748
403,7	42,633
404,2	43,548
404,6	50,462
405,1	49,29
405,5	48,776
406	50,719
406,5	45,519
406,9	47,948
407,4	48,005
407,8	43,433
408,3	45,29
408,7	40,662
409,2	39,348
409,6	43,519
410,1	46,805
410,6	51,376
411	56,405
411,5	56,748
411,9	64,805
412,4	71,148
412,8	73,376
413,3	76,405
413,7	75,948
414,2	72,748
414,7	76,862
415,1	82,433
415,6	81,49
416	79,005
416,5	80,662
416,9	77,633
417,4	85,148
417,8	91,033
418,3	92,462
418,8	93,662
419,2	97,005
419,7	99,548
420,1	104,662
420,6	103,548
421	98,462
421,5	98,062
421,9	102,69
422,4	106,462
422,8	104,462
423,3	106,405
423,8	103,519
424,2	104,748
424,7	101,748
425,1	101,976
425,6	97,805
426	94,833
426,5	97,262
426,9	100,748
427,4	102,119
427,9	96,605
428,3	96,033
428,8	97,433
429,2	99,033
429,7	93,462
430,1	92,262
430,6	90,948
431	94,805
431,5	97,233
431,9	92,29
432,4	92,262
432,8	97,833
433,3	98,605
433,8	98,433
434,2	98,519
434,7	98,176
435,1	106,262
435,6	110,776
436	112,633
436,5	120,405
436,9	120,833
437,4	127,633
437,8	130,948
438,3	135,748
438,8	138,833
439,2	142,748
439,7	149,748
440,1	160,662
440,6	168,262
441	168,605
441,5	177,262
441,9	185,09
442,4	187,348
442,8	189,233
443,3	195,948
443,7	198,548
444,2	209,205
444,7	210,89
445,1	222,262
445,6	233,348
446	242,148
446,5	241,919
446,9	248,233
447,4	256,548
447,8	269,976
448,3	280,433
448,7	293,69
449,2	307,976
449,6	327,519
450,1	338,833
450,6	358,062
451	370,833
451,5	381,805
451,9	397,919
452,4	411,805
452,8	424,376
453,3	448,09
453,7	457,69
454,2	475,148
454,6	491,805
455,1	504,462
455,5	516,919
456	537,69
456,4	549,519
456,9	570,748
457,3	586,862
457,8	597,662
458,3	617,29
458,7	636,862
459,2	657,462
459,6	676,576
460,1	696,062
460,5	717,433
461	745,805
461,4	764,29
461,9	787,748
462,3	807,49
462,8	832,405
463,2	849,29
463,7	871,89
464,1	898,948
464,6	923,462
465	945,69
465,5	971,719
466	999,862
466,4	1025,205
466,9	1055,719
467,3	1080,576
467,8	1110,205
468,2	1135,948
468,7	1161,405
469,1	1187,719
469,6	1217,776
470	1240,462
470,5	1264,062
470,9	1285,919
471,4	1310,033
471,8	1336,719
472,3	1363,976
472,7	1393,005
473,2	1417,662
473,6	1444,633
474,1	1476,776
474,5	1507,205
475	1535,29
475,4	1557,062
475,9	1580,605
476,4	1610,462
476,8	1637,319
477,3	1662,033
477,7	1690,205
478,2	1714,062
478,6	1736,89
479,1	1757,005
479,5	1780,148
480	1803,062
480,4	1829,662
480,9	1849,948
481,3	1866,605
481,8	1892,633
482,2	1913,976
482,7	1934,948
483,1	1953,805
483,6	1967,319
484	1984,633
484,5	2012,662
484,9	2029,576
485,4	2057,662
485,8	2076,319
486,3	2097,976
486,7	2116,005
487,2	2134,919
487,6	2145,148
488,1	2163,262
488,5	2164,205
489	2178,948
489,4	2187,148
489,9	2197,633
490,4	2215,605
490,8	2230,176
491,3	2239,233
491,7	2260,148
492,2	2269,633
492,6	2279,005
493,1	2293,69
493,5	2291,719
494	2298,919
494,4	2306,348
494,9	2312,776
495,3	2322,862
495,8	2331,662
496,2	2332,576
496,7	2341,376
497,1	2348,033
497,6	2354,69
498	2359,862
498,5	2362,433
498,9	2367,833
499,4	2374,176
499,8	2389,348
500,3	2394,09
500,7	2395,176
501,2	2389,576
501,6	2389,148
502,1	2383,462
502,5	2384,662
503	2378,119
503,4	2373,748
503,9	2373,176
504,3	2386,462
504,8	2387,719
505,2	2392,948
505,7	2394,519
506,1	2398,148
506,6	2396,548
507	2399,348
507,5	2394,348
507,9	2391,862
508,4	2394,548
508,8	2393,948
509,3	2386,005
509,7	2392,633
510,2	2393,119
510,6	2387,576
511,1	2385,69
511,5	2382,548
512	2377,062
512,4	2377,262
512,9	2370,976
513,3	2372,776
513,8	2373,262
514,2	2374,948
514,7	2374,405
515,1	2377,29
515,6	2376,776
516	2374,605
516,5	2367,033
516,9	2368,948
517,4	2368,062
517,8	2373,262
518,3	2367,548
518,7	2367,09
519,2	2368,919
519,6	2374,662
520,1	2372,262
520,5	2370,29
521	2359,748
521,4	2363,948
521,9	2361,49
522,3	2364,176
522,8	2360,976
523,2	2358,319
523,7	2355,833
524,1	2362,348
524,6	2359,005
525	2360,405
525,5	2353,519
525,9	2357,748
526,4	2358,548
526,8	2356,576
527,3	2351,833
527,7	2355,233
528,2	2358,176
528,6	2356,976
529,1	2354,633
529,5	2360,576
530	2356,319
530,4	2359,948
530,9	2357,519
531,3	2356,462
531,8	2356,29
532,2	2354,433
532,6	2351,233
533,1	2360,519
533,5	2358,005
534	2357,233
534,4	2357,09
534,9	2366,033
535,3	2369,262
535,8	2369,605
536,2	2370,262
536,7	2373,033
537,1	2378,205
537,6	2378,033
538	2381,519
538,5	2381,776
538,9	2382,348
539,4	2393,319
539,8	2398,233
540,3	2404,433
540,7	2412,376
541,2	2409,862
541,6	2414,948
542,1	2422,548
542,5	2421,148
543	2416,348
543,4	2416,976
543,9	2419,119
544,3	2424,69
544,8	2419,948
545,2	2418,862
545,7	2418,805
546,1	2428,176
546,5	2436,605
547	2431,462
547,4	2436,033
547,9	2437,633
548,3	2442,633
548,8	2450,033
549,2	2456,09
549,7	2450,519
550,1	2463,005
550,6	2467,062
551	2473,776
551,5	2474,805
551,9	2473,148
552,4	2469,176
552,8	2474,748
553,3	2472,748
553,7	2471,633
554,2	2476,576
554,6	2483,833
555,1	2490,805
555,5	2494,976
555,9	2494,233
556,4	2495,29
556,8	2502,548
557,3	2504,148
557,7	2506,776
558,2	2505,49
558,6	2515,605
559,1	2516,148
559,5	2520,719
560	2521,319
560,4	2526,605
560,9	2525,605
561,3	2528,69
561,8	2525,29
562,2	2529,49
562,7	2534,976
563,1	2536,319
563,6	2528,605
564	2531,605
564,4	2529,719
564,9	2533,205
565,3	2541,49
565,8	2545,262
566,2	2541,948
566,7	2549,548
567,1	2556,519
567,6	2558,348
568	2557,176
568,5	2556,948
568,9	2552,69
569,4	2562,833
569,8	2566,633
570,3	2562,862
570,7	2563,176
571,1	2563,49
571,6	2564,69
572	2565,319
572,5	2557,833
572,9	2555,576
573,4	2555,005
573,8	2560,89
574,3	2554,833
574,7	2546,233
575,2	2539,29
575,6	2540,033
576,1	2543,29
576,5	2541,548
576,9	2537,29
577,4	2538,662
577,8	2539,262
578,3	2545,348
578,7	2543,148
579,2	2539,89
579,6	2539,69
580,1	2537,348
580,5	2535,662
581	2537,119
581,4	2536,805
581,9	2531,662
582,3	2525,576
582,7	2523,748
583,2	2516,176
583,6	2514,262
584,1	2507,89
584,5	2497,833
585	2493,833
585,4	2485,576
585,9	2473,833
586,3	2472,376
586,8	2464,89
587,2	2465,49
587,6	2466,062
588,1	2465,205
588,5	2466,519
589	2463,29
589,4	2456,09
589,9	2454,176
590,3	2448,548
590,8	2441,29
591,2	2444,205
591,7	2443,89
592,1	2446,662
592,5	2447,148
593	2446,862
593,4	2439,262
593,9	2438,948
594,3	2425,319
594,8	2414,233
595,2	2404,09
595,7	2400,548
596,1	2395,262
596,6	2392,805
597	2383,919
597,4	2387,948
597,9	2388,462
598,3	2390,548
598,8	2382,605
599,2	2379,376
599,7	2373,005
600,1	2367,119
600,6	2361,348
601	2356,719
601,4	2355,748
601,9	2355,29
602,3	2341,976
602,8	2338,548
603,2	2336,005
603,7	2324,833
604,1	2320,748
604,6	2308,462
605	2304,376
605,4	2308,462
605,9	2306,262
606,3	2296,662
606,8	2291,776
607,2	2283,09
607,7	2278,262
608,1	2269,719
608,6	2257,433
609	2252,148
609,4	2248,433
609,9	2236,462
610,3	2229,09
610,8	2216,605
611,2	2206,348
611,7	2200,09
612,1	2185,433
612,6	2180,119
613	2178,805
613,4	2169,462
613,9	2166,319
614,3	2160,976
614,8	2156,805
615,2	2151,662
615,7	2152,719
616,1	2148,576
616,6	2138,662
617	2131,033
617,4	2123,433
617,9	2118,033
618,3	2110,776
618,8	2099,176
619,2	2084,748
619,7	2083,662
620,1	2074,233
620,5	2073,805
621	2062,69
621,4	2054,605
621,9	2040,49
622,3	2036,89
622,8	2022,519
623,2	2017,033
623,6	2006,062
624,1	2000,033
624,5	1991,29
625	1988,662
625,4	1980,948
625,9	1976,662
626,3	1969,319
626,8	1953,719
627,2	1945,376
627,6	1931,148
628,1	1916,948
628,5	1909,519
629	1898,148
629,4	1885,976
629,9	1880,748
630,3	1866,719
630,7	1864,033
631,2	1858,605
631,6	1848,89
632,1	1841,148
632,5	1832,548
633	1821,405
633,4	1816,69
633,8	1809,89
634,3	1799,805
634,7	1787,233
635,2	1779,776
635,6	1766,29
636,1	1759,033
636,5	1745,262
636,9	1732,119
637,4	1722,119
637,8	1716,176
638,3	1704,919
638,7	1702,062
639,2	1692,176
639,6	1686,09
640	1678,89
640,5	1672,062
640,9	1662,576
641,4	1657,633
641,8	1654,633
642,2	1646,262
642,7	1647,862
643,1	1644,205
643,6	1634,69
644	1628,519
644,5	1621,976
644,9	1611,405
645,3	1605,176
645,8	1587,319
646,2	1580,919
646,7	1579,376
647,1	1568,576
647,6	1562,033
648	1555,462
648,4	1548,519
648,9	1541,348
649,3	1528,719
649,8	1519,148
650,2	1518,005
650,6	1511,948
651,1	1502,205
651,5	1495,119
652	1487,519
652,4	1479,776
652,9	1473,233
653,3	1461,462
653,7	1452,462
654,2	1446,433
654,6	1434,805
655,1	1432,719
655,5	1432,976
655,9	1418,062
656,4	1409,605
656,8	1405,89
657,3	1396,29
657,7	1395,119
658,2	1384,976
658,6	1370,805
659	1369,919
659,5	1361,719
659,9	1350,405
660,4	1342,833
660,8	1332,548
661,2	1321,662
661,7	1318,062
662,1	1304,09
662,6	1296,433
663	1286,919
663,4	1277,976
663,9	1270,462
664,3	1267,69
664,8	1254,29
665,2	1248,262
665,6	1238,29
666,1	1227,605
666,5	1222,805
667	1215,433
667,4	1205,005
667,9	1199,776
668,3	1195,548
668,7	1193,29
669,2	1188,576
669,6	1178,862
670,1	1170,519
670,5	1160,49
670,9	1152,548
671,4	1142,348
671,8	1134,576
672,3	1129,376
672,7	1125,09
673,1	1113,576
673,6	1108,605
674	1105,633
674,5	1100,605
674,9	1084,405
675,3	1075,719
675,8	1068,833
676,2	1067,49
676,7	1062,119
677,1	1053,519
677,5	1044,919
678	1045,719
678,4	1043,519
678,9	1038,862
679,3	1032,948
679,7	1024,633
680,2	1011,919
680,6	1003,233
681,1	995,462
681,5	987,805
681,9	982,29
682,4	981,119
682,8	980,233
683,3	984,805
683,7	983,948
684,1	981,119
684,6	972,633
685	965,519
685,5	954,233
685,9	941,633
686,3	928,805
686,8	922,405
687,2	919,833
687,7	911,433
688,1	903,776
688,5	899,176
689	898,376
689,4	893,748
689,9	884,719
690,3	878,748
690,7	878,119
691,2	874,519
691,6	871,319
692	861,462
692,5	862,519
692,9	861,205
693,4	851,919
693,8	841,205
694,2	832,662
694,7	825,062
695,1	822,348
695,6	812,519
696	809,519
696,4	804,319
696,9	800,69
697,3	796,862
697,8	790,862
698,2	783,662
698,6	780,29
699,1	774,49
699,5	774,976
699,9	769,033
700,4	762,462
700,8	759,205
701,3	760,348
701,7	746,662
702,1	738,09
702,6	727,576
703	728,119
703,5	725,662
703,9	719,976
704,3	715,09
704,8	716,09
705,2	715,576
705,6	711,433
706,1	710,29
706,5	703,205
707	699,462
707,4	694,69
707,8	683,09
708,3	678,062
708,7	670,376
709,2	657,348
709,6	656,719
710	653,633
710,5	643,462
710,9	648,233
711,3	643,005
711,8	643,605
712,2	645,862
712,7	636,605
713,1	631,405
713,5	631,005
714	628,633
714,4	621,319
714,8	616,29
715,3	607,662
715,7	606,033
716,2	596,748
716,6	592,576
717	582,548
717,5	580,748
717,9	579,976
718,3	574,148
718,8	568,376
719,2	567,09
719,7	565,376
720,1	561,976
720,5	561,205
721	552,976
721,4	550,633
721,8	552,319
722,3	549,348
722,7	546,348
723,2	540,348
723,6	528,29
724	523,433
724,5	520,233
724,9	515,29
725,3	513,576
725,8	506,862
726,2	505,148
726,7	508,348
727,1	509,605
727,5	507,719
728	499,633
728,4	490,805
728,8	487,89
729,3	485,605
729,7	476,519
730,1	472,49
730,6	469,49
731	467,205
731,5	467,519
731,9	464,205
732,3	464,433
732,8	466,376
733,2	463,576
733,6	461,29
734,1	459,605
734,5	455,833
734,9	457,033
735,4	456,862
735,8	451,433
736,3	449,49
736,7	447,148
737,1	449,776
737,6	450,633
738	446,89
738,4	439,976
738,9	440,776
739,3	436,49
739,7	434,462
740,2	425,09
740,6	426,233
741,1	426,348
741,5	420,805
741,9	419,49
742,4	419,576
742,8	416,519
743,2	414,948
743,7	405,862
744,1	394,719
744,5	396,433
745	388,29
745,4	383,376
745,8	379,69
746,3	381,348
746,7	380,062
747,2	379,89
747,6	381,862
748	384,148
748,5	384,433
748,9	380,605
749,3	377,062
749,8	374,119
750,2	372,119
750,6	363,348
751,1	360,976
751,5	359,176
751,9	362,605
752,4	362,176
752,8	363,805
753,3	363,29
753,7	368,548
754,1	363,862
754,6	358,405
755	352,862
755,4	355,033
755,9	352,776
756,3	348,233
756,7	341,948
757,2	342,033
757,6	340,433
758	340,176
758,5	330,405
758,9	327,262
759,3	329,348
759,8	323,919
760,2	321,148
760,6	312,148
761,1	307,405
761,5	305,405
761,9	301,376
762,4	294,119
762,8	296,548
763,3	296,348
763,7	300,805
764,1	299,005
764,6	300,348
765	300,119
765,4	302,29
765,9	297,405
766,3	296,919
766,7	293,033
767,2	287,633
767,6	288,49
768	285,09
768,5	284,062
768,9	283,69
769,3	279,69
769,8	279,148
770,2	281,662
770,6	273,662
771,1	276,719
771,5	276,148
771,9	273,633
772,4	271,09
772,8	271,176
773,2	272,748
773,7	268,719
774,1	261,948
774,5	254,948
775	252,005
775,4	254,29
775,8	247,833
776,3	244,948
776,7	246,833
777,1	246,805
777,6	253,005
778	255,833
778,4	248,319
778,9	252,176
779,3	246,233
779,7	246,148
780,2	242,976
780,6	239,605
781	235,205
781,5	231,205
781,9	229,205
782,3	228,805
782,8	226,633
783,2	223,605
783,6	224,548
784,1	225,319
784,5	226,805
784,9	223,919
785,4	228,919
785,8	228,405
786,2	234,205
786,7	227,948
787,1	220,005
787,5	221,176
788	220,205
788,4	214,576
788,8	213,319
789,3	206,662
789,7	207,033
790,1	207,776
790,6	207,062
791	200,919
791,4	198,49
791,9	194,176
792,3	191,69
792,7	194,319
793,2	192,662
793,6	190,805
794	194,376
794,5	190,49
794,9	191,748
795,3	195,348
795,8	189,862
796,2	190,09
796,6	189,405
797,1	188,548
797,5	186,433
797,9	184,462
798,4	176,233
798,8	170,148
799,2	165,805
799,7	163,319
800,1	157,405
800,5	159,09
801	160,376
801,4	163,948
801,8	163,862
802,2	164,862
802,7	163,09
803,1	165,033
803,5	165,633
804	159,09
804,4	156,919
804,8	156,662
805,3	156,319
805,7	155,605
806,1	152,833
806,6	152,233
807	151,319
807,4	147,376
807,9	140,348
808,3	140,948
808,7	142,119
809,2	145,433
809,6	144,605
810	144,948
810,4	145,005
810,9	152,148
811,3	152,948
811,7	152,033
812,2	153,49
812,6	147,862
813	150,005
813,5	149,148
813,9	143,433
814,3	138,519
814,8	131,376
815,2	125,662
815,6	125,89
816,1	126,576
816,5	126,062
816,9	128,09
817,3	129,29
817,8	135,862
818,2	140,09
818,6	139,148
819,1	135,919
819,5	135,376
819,9	135,376
820,4	133,29
820,8	129,29
821,2	120,633
821,7	121,148
822,1	124,776
822,5	129,148
822,9	128,633
823,4	130,319
823,8	132,348
824,2	136,49
824,7	133,49
825,1	123,319
825,5	112,376
826	106,919
826,4	103,805
826,8	99,376
827,3	99,262
827,7	102,148
828,1	104,09
828,5	105,69
829	104,376
829,4	103,376
829,8	98,805
830,3	94,262
830,7	87,919
831,1	86,605
831,6	88,719
832	91,405
832,4	89,89
832,8	93,119
833,3	95,348
833,7	95,348
834,1	92,69
834,6	91,09
835	94,405
835,4	93,462
835,8	87,576
836,3	84,719
836,7	87,176
837,1	89,119
837,6	90,89
838	86,49
838,4	84,69
838,9	87,262
839,3	86,005
839,7	87,233
840,1	84,433
840,6	81,29
841	85,49
841,4	86,576
841,9	89,29
842,3	90,519
842,7	89,662
843,1	90,69
843,6	91,748
844	87,519
844,4	92,319
844,9	92,548
845,3	90,776
845,7	86,89
846,2	82,919
846,6	78,233
847	78,719
847,4	75,319
847,9	71,776
848,3	69,348
848,7	68,633
849,2	72,119
849,6	71,005
850	74,205
850,4	73,176
850,9	74,405
851,3	78,662
851,7	77,09
852,2	76,005
852,6	82,976
853	75,662
853,4	76,29
853,9	71,948
854,3	70,405
854,7	73,376
855,2	75,005
855,6	70,89
856	70,005
856,4	64,719
856,9	69,033
857,3	68,805
857,7	69,29
858,2	73,633
858,6	73,319
859	75,405
859,4	79,233
859,9	73,976
860,3	70,49
860,7	68,005
861,1	63,519
861,6	61,148
862	58,69
862,4	52,405
862,9	55,576
863,3	55,548
863,7	54,148
864,1	51,033
864,6	52,348
865	51,662
865,4	58,233
865,9	58,919
866,3	55,205
866,7	53,748
867,1	51,176
867,6	50,605
868	55,033
868,4	50,862
868,8	49,548
869,3	50,948
869,7	56,862
870,1	55,09
870,6	52,376
871	-22,738
871,4	-17,652
871,8	-19,938
872,3	-14,681
872,7	-18,567
873,1	-16,195
873,5	-12,967
874	57,919
874,4	55,89
874,8	55,005
875,3	52,748
875,7	52,005
876,1	57,948
876,5	54,433
877	49,548
877,4	44,119
877,8	43,348
878,2	46,262
878,7	47,862
879,1	42,233
879,5	43,748
879,9	48,605
880,4	52,29
880,8	56,262
881,2	50,176
881,7	45,662
882,1	46,805
882,5	45,205
882,9	45,29
883,4	42,719
883,8	44,119
884,2	44,462
884,6	46,948
885,1	45,605
885,5	48,405
885,9	47,576
886,3	49,376
886,8	43,176
887,2	44,462
887,6	40,948
888	41,262
888,5	39,605
888,9	33,833
889,3	28,605
889,8	24,919
890,2	25,976
890,6	24,033
891	24,233
891,5	23,433
891,9	30,376
892,3	33,748
892,7	39,005
893,2	37,29
893,6	41,29
894	40,548
894,4	40,862
894,9	39,576
895,3	40,119
895,7	42,719
896,1	42,89
896,6	44,233
897	42,662
897,4	45,005
897,8	47,548
898,3	43,719
898,7	38,833
899,1	34,776
899,5	34,89
900	29,376
900,4	29,09
900,8	24,348
901,2	25,833
901,7	25,119
902,1	26,09
902,5	29,062
902,9	33,376
903,4	33,262
903,8	33,148
904,2	33,719
904,6	34,376
905,1	38,119
905,5	34,262
905,9	35,176
906,3	33,119
906,8	37,033
907,2	39,033
907,6	41,348
908	40,948
908,5	35,948
908,9	35,233
909,3	33,433
909,7	31,005
910,2	28,49
910,6	31,49
911	27,233
911,4	35,319
911,9	33,462
912,3	35,49
912,7	38,09
913,1	40,033
913,6	33,005
914	36,49
914,4	30,176
914,8	33,519
915,3	33,29
915,7	31,319
916,1	26,262
916,5	30,805
916,9	32,433
917,4	35,719
917,8	35,89
918,2	30,605
918,6	24,576
919,1	27,548
919,5	29,033
919,9	26,69
920,3	20,176
920,8	14,519
921,2	17,662
921,6	17,748
922	17,205
922,5	11,205
922,9	10,748
923,3	12,548
923,7	15,976
924,2	13,948
924,6	13,748
925	14,548
925,4	16,262
925,8	13,033
926,3	14,033
926,7	13,862
927,1	16,119
927,5	21,862
928	20,233
928,4	18,262
928,8	22,633
929,2	23,49
929,7	25,462
930,1	26,89
930,5	23,233
930,9	25,862
931,3	27,005
931,8	24,29
932,2	24,833
932,6	23,405
933	15,119
933,5	17,405
933,9	18,919
934,3	21,748
934,7	21,49
935,2	24,005
935,6	23,376
936	24,805
936,4	22,119
936,8	20,033
937,3	13,805
937,7	15,119
938,1	13,948
938,5	11,262
939	16,062
939,4	18,49
939,8	16,519
940,2	17,948
940,6	19,09
941,1	14,605
941,5	18,776
941,9	19,205
942,3	15,948
942,8	17,862
943,2	24,376
943,6	15,662
944	16,462
944,4	13,348
944,9	12,976
945,3	14,233
945,7	8,09
946,1	2,433
946,6	8,148
947	8,29
947,4	14,376
947,8	14,005
948,2	12,833
948,7	17,205
949,1	17,548
949,5	20,576
949,9	22,69
950,3	16,176
950,8	14,49
951,2	13,69
951,6	10,948
952	13,433
952,5	8,89
952,9	5,005
953,3	8,09
953,7	5,662
954,1	11,119
954,6	15,319
955	13,433
955,4	12,29
955,8	22,119
956,2	22,719
956,7	27,862
957,1	22,776
957,5	22,948
957,9	24,633
958,3	25,29
958,8	19,948
959,2	22,862
959,6	25,433
960	27,348
960,5	27,29
960,9	28,262
961,3	28,376
961,7	25,976
962,1	21,976
962,6	18,719
963	18,89
963,4	12,519
963,8	13,662
964,2	16,062
964,7	15,233
965,1	13,862
965,5	13,433
965,9	10,376
966,3	17,09
966,8	12,548
967,2	13,262
967,6	15,119
968	11,805
968,4	9,833
968,9	13,433
969,3	13,748
969,7	12,29
970,1	14,662
970,5	12,319
971	18,233
971,4	17,119
971,8	18,233
972,2	15,862
972,6	14,462
973,1	11,862
973,5	12,805
973,9	14,976
974,3	18,319
974,7	18,119
975,2	20,119
975,6	20,605
976	20,148
976,4	16,519
976,8	14,605
977,3	10,519
977,7	9,319
978,1	6,89
978,5	5,948
978,9	7,062
979,4	8,548
979,8	4,176
980,2	5,919
980,6	2,09
981	5,233
981,5	9,29
981,9	9,062
982,3	9,633
982,7	11,548
983,1	11,862
983,6	17,119
984	13,519
984,4	14,348
984,8	11,433
985,2	13,376
985,6	12,376
986,1	14,119
986,5	12,69
986,9	9,833
987,3	11,148
987,7	15,69
988,2	13,09
988,6	12,148
989	13,805
989,4	12,033
989,8	13,776
990,3	9,662
990,7	7,205
991,1	9,119
991,5	12,233
991,9	10,376
992,3	13,662
992,8	17,176
993,2	17,176
993,6	16,633
994	20,29
994,4	25,262
994,9	24,319
995,3	18,948
995,7	14,662
996,1	17,89
996,5	18,233
996,9	14,348
997,4	7,89
997,8	3,119
998,2	4,976
998,6	5,005
999	1,462
999,5	2,119
999,9	4,233
1000,3	-1,167
1000,7	1,919
1001,1	0,462
1001,5	5,062
1002	10,433
1002,4	12,033
1002,8	11,462
1003,2	18,319
1003,6	19,662
1004	23,89
1004,5	18,376
1004,9	16,633
1005,3	10,776
1005,7	10,605
1006,1	6,662
1006,6	8,148
1007	8,262
1007,4	12,062
1007,8	11,605
1008,2	12,376
1008,6	12,805
1009,1	15,062
1009,5	15,662
1009,9	15,833
1010,3	19,576
1010,7	19,033
1011,1	19,148
1011,6	14,976
1012	16,862
1012,4	13,205
1012,8	10,605
1013,2	10,719
1013,6	14,548
1014,1	16,119
1014,5	19,233
1014,9	15,148
1015,3	18,748
1015,7	16,262
1016,1	10,748
1016,6	5,605
1017	6,462
1017,4	9,919
1017,8	13,719
1018,2	13,462
1018,6	14,09
1019,1	15,576
1019,5	15,148
1019,9	13,005
1020,3	6,462
1020,7	4,405
1021,1	1,633
1021,6	1,462
1022	4,633
1022,4	7,005
1022,8	9,462
1023,2	14,605
1023,6	15,433
1024,1	21,89
1024,5	24,776
1024,9	17,976
1025,3	16,833
1025,7	17,119
1026,1	17,462
1026,6	17,176
1027	14,462
1027,4	15,862
1027,8	15,405
1028,2	16,548
1028,6	20,262
1029	17,062
1029,5	20,633
1029,9	11,548
1030,3	10,862
1030,7	13,148
1031,1	13,29
1031,5	6,033
1032	8,29
1032,4	7,662
1032,8	15,776
1033,2	15,948
1033,6	17,605
1034	17,69
1034,4	18,833
1034,9	19,862
1035,3	17,462
1035,7	12,576
1036,1	6,462
1036,5	4,662
1036,9	2,005
1037,4	3,148
1037,8	-2,138
1038,2	0,376
1038,6	5,548
1039	12,148
1039,4	17,119
1039,8	16,49
1040,3	17,776
1040,7	22,69
1041,1	19,148
1041,5	20,233
1041,9	17,919
1042,3	14,49
1042,7	15,376
1043,2	14,205
1043,6	6,262
1044	6,262
1044,4	3,033
1044,8	4,948
1045,2	3,548
1045,6	6,805
1046,1	9,033
1046,5	13,119
1046,9	9,176
1047,3	12,233
1047,7	10,862
1048,1	12,005
1048,5	9,348
1049	8,805
1049,4	13,605
1049,8	18,033
1050,2	16,033
1050,6	21,776
1051	23,005
1051,4	24,348
1051,9	21,976
1052,3	20,29
1052,7	23,262
1053,1	19,49
1053,5	16,433
1053,9	15,233
1054,3	10,748
1054,8	16,29
1055,2	17,862
1055,6	17,462
1056	18,948
1056,4	17,519
1056,8	15,748
1057,2	18,548
1057,6	9,976
1058,1	3,29
1058,5	-2,481
1058,9	0,29
1059,3	-1,31
1059,7	-0,824
1060,1	-1,852
1060,5	4,719
1061	14,205
1061,4	16,148
1061,8	17,462
1062,2	21,176
1062,6	25,976
1063	31,405
1063,4	30,462
1063,8	23,405
1064,3	20,662
1064,7	19,633
1065,1	15,833
1065,5	11,405
1065,9	5,005
1066,3	1,148
1066,7	0,862
1067,1	3,148
1067,6	4,548
1068	-0,91
1068,4	0,405
1068,8	3,462
1069,2	9,548
1069,6	10,548
1070	16,376
1070,4	14,976
1070,9	18,148
1071,3	17,49
1071,7	12,662
1072,1	11,205
1072,5	9,605
1072,9	7,062
1073,3	6,662
1073,7	5,119
1074,2	3,89
1074,6	10,919
1075	7,033
1075,4	8,005
1075,8	4,605
1076,2	3,462
1076,6	10,176
1077	11,89
1077,5	9,719
1077,9	13,776
1078,3	12,119
1078,7	14,005
1079,1	17,576
1079,5	17,405
1079,9	16,49
1080,3	16,576
1080,7	13,576
1081,2	19,605
1081,6	20,319
1082	15,433
1082,4	17,89
1082,8	19,262
1083,2	17,948
1083,6	20,005
1084	16,062
1084,5	16,262
1084,9	17,148
1085,3	9,405
1085,7	7,205
1086,1	5,376
1086,5	5,319
1086,9	7,605
1087,3	6,49
1087,7	6,776
1088,2	9,09
1088,6	7,433
1089	9,976
1089,4	6,49
1089,8	6,176
1090,2	5,948
1090,6	8,205
1091	10,69
1091,4	15,376
1091,9	16,89
1092,3	20,576
1092,7	19,176
1093,1	20,919
1093,5	19,233
1093,9	15,262
1094,3	18,176
1094,7	13,433
1095,1	13,205
1095,5	11,89
1096	6,633
1096,4	8,976
1096,8	11,033
1097,2	8,148
1097,6	13,948
1098	14,348
1098,4	19,89
1098,8	21,805
1099,2	22,748
1099,6	22,519
1100,1	21,462
1100,5	17,89
1100,9	17,89
1101,3	13,605
1101,7	14,29
1102,1	11,576
1102,5	14,405
1102,9	15,176
1103,3	18,29
1103,7	15,833
1104,2	16,233
1104,6	15,89
1105	12,633
1105,4	8,376
1105,8	5,062
1106,2	1,262
1106,6	0,09
1107	-1,167
1107,4	-1,3
1107,8	0,073
1108,3	-0,267
