Data from Subt2_073.txt Node
Date: Sat Aug 26 16:35:29 MSK 2023
User: vat
Spectrometer: MAYP114033
Trigger mode: 0
Integration Time (sec): 1,000000E0
Scans to average: 5
Electric dark correction enabled: true
Nonlinearity correction enabled: false
Boxcar width: 3
XAxis mode: Wavelengths
Number of Pixels in Spectrum: 2068
>>>>>Begin Spectral Data<<<<<
199,4	0,183
199,9	0,993
200,4	-1,833
200,8	-1,967
201,3	-0,367
201,8	-0,367
202,2	0,576
202,7	2,633
203,2	1,976
203,6	2,776
204,1	1,148
204,6	2,69
205	5,719
205,5	5,176
206	4,376
206,4	3,062
206,9	5,519
207,4	12,176
207,8	5,919
208,3	4,576
208,8	4,919
209,2	6,633
209,7	12,09
210,2	16,033
210,6	12,833
211,1	16,49
211,5	13,09
212	7,89
212,5	0,976
212,9	-2,024
213,4	-5,452
213,9	-7,624
214,3	-7,567
214,8	-3,995
215,3	2,462
215,7	2,033
216,2	5,519
216,7	6,776
217,1	6,633
217,6	5,176
218,1	3,548
218,5	6,262
219	15,462
219,5	8,119
219,9	5,319
220,4	5,005
220,9	7,005
221,3	7,976
221,8	1,49
222,3	-3,995
222,7	-3,11
223,2	2,319
223,6	2,776
224,1	1,976
224,6	1,576
225	3,148
225,5	8,576
226	12,262
226,4	9,29
226,9	9,09
227,4	12,89
227,8	14,119
228,3	14,833
228,8	10,89
229,2	11,633
229,7	7,833
230,2	12,69
230,6	9,69
231,1	12,205
231,5	16,148
232	18,89
232,5	17,69
232,9	17,462
233,4	14,748
233,9	13,262
234,3	8,49
234,8	4,948
235,3	2,748
235,7	5,862
236,2	7,005
236,7	5,262
237,1	5,719
237,6	5,462
238,1	4,062
238,5	5,548
239	-0,252
239,4	3,576
239,9	4,576
240,4	5,319
240,8	6,548
241,3	5,633
241,8	2,976
242,2	1,033
242,7	2,348
243,2	2,433
243,6	2,033
244,1	0,862
244,6	0,833
245	0,519
245,5	4,776
245,9	-1,252
246,4	1,233
246,9	0,005
247,3	2,462
247,8	3,005
248,3	8,433
248,7	13,633
249,2	15,605
249,7	12,033
250,1	13,69
250,6	14,348
251	15,433
251,5	9,919
252	4,233
252,4	2,69
252,9	8,09
253,4	6,776
253,8	2,005
254,3	3,605
254,8	3,376
255,2	3,89
255,7	9,548
256,1	2,69
256,6	5,405
257,1	10,462
257,5	11,776
258	13,319
258,5	14,005
258,9	8,405
259,4	15,719
259,9	15,462
260,3	10,09
260,8	11,376
261,2	14,976
261,7	15,119
262,2	15,462
262,6	10,433
263,1	8,262
263,6	12,519
264	11,033
264,5	9,633
264,9	7,833
265,4	9,405
265,9	10,519
266,3	11,862
266,8	9,005
267,3	8,69
267,7	6,605
268,2	4,319
268,7	3,605
269,1	-1,967
269,6	0,862
270	7,576
270,5	10,205
271	11,748
271,4	11,776
271,9	15,548
272,4	21,433
272,8	19,176
273,3	14,062
273,7	5,776
274,2	3,176
274,7	3,462
275,1	-1,567
275,6	1,033
276,1	3,69
276,5	6,662
277	11,405
277,4	12,748
277,9	17,176
278,4	20,662
278,8	20,719
279,3	14,605
279,8	14,405
280,2	12,633
280,7	12,262
281,1	12,462
281,6	15,519
282,1	15,462
282,5	17,576
283	16,005
283,4	16,033
283,9	14,919
284,4	13,462
284,8	8,862
285,3	3,376
285,8	6,433
286,2	1,576
286,7	-3,281
287,1	-0,767
287,6	-1,167
288,1	-2,31
288,5	3,576
289	4,176
289,5	6,376
289,9	10,062
290,4	9,405
290,8	11,862
291,3	13,433
291,8	12,548
292,2	10,148
292,7	12,805
293,1	14,262
293,6	15,719
294,1	12,633
294,5	15,033
295	13,948
295,5	14,548
295,9	14,748
296,4	18,69
296,8	18,09
297,3	23,062
297,8	23,49
298,2	25,548
298,7	19,748
299,1	21,405
299,6	17,805
300,1	19,49
300,5	18,148
301	18,148
301,5	13,09
301,9	17,833
302,4	14,633
302,8	14,09
303,3	14,49
303,8	7,576
304,2	5,519
304,7	7,719
305,1	11,633
305,6	6,748
306,1	9,948
306,5	6,29
307	7,948
307,4	2,919
307,9	3,376
308,4	-0,252
308,8	11,376
309,3	10,09
309,8	13,719
310,2	14,233
310,7	21,976
311,1	17,062
311,6	14,805
312,1	9,719
312,5	8,433
313	3,462
313,4	6,033
313,9	6,519
314,4	8,862
314,8	13,033
315,3	13,69
315,7	11,776
316,2	14,119
316,7	12,433
317,1	8,09
317,6	5,719
318	8,119
318,5	11,119
319	13,89
319,4	12,005
319,9	12,09
320,3	14,433
320,8	16,033
321,3	10,519
321,7	8,776
322,2	8,833
322,6	8,605
323,1	6,205
323,6	2,319
324	5,548
324,5	2,948
324,9	1,862
325,4	3,433
325,9	7,576
326,3	14,09
326,8	12,919
327,2	12,405
327,7	13,605
328,2	9,976
328,6	9,49
329,1	8,633
329,5	5,319
330	10,119
330,5	7,548
330,9	10,519
331,4	10,29
331,8	10,433
332,3	12,519
332,8	10,09
333,2	6,919
333,7	9,89
334,1	11,462
334,6	17,662
335,1	14,948
335,5	10,262
336	8,49
336,4	12,005
336,9	14,348
337,4	9,09
337,8	7,148
338,3	8,548
338,7	8,919
339,2	15,09
339,7	13,519
340,1	11,49
340,6	10,805
341	11,319
341,5	12,319
342	14,805
342,4	11,033
342,9	5,719
343,3	4,976
343,8	8,262
344,2	8,633
344,7	8,405
345,2	2,976
345,6	8,89
346,1	15,805
346,5	15,89
347	15,233
347,5	11,29
347,9	9,919
348,4	14,605
348,8	13,576
349,3	10,69
349,8	10,662
350,2	15,433
350,7	20,148
351,1	22,833
351,6	24,919
352	28,262
352,5	32,633
353	40,548
353,4	45,976
353,9	55,033
354,3	64,633
354,8	70,205
355,3	87,005
355,7	104,119
356,2	120,119
356,6	144,376
357,1	163,748
357,5	190,805
358	229,548
358,5	261,005
358,9	301,633
359,4	348,576
359,8	393,548
360,3	454,462
360,8	519,548
361,2	591,719
361,7	671,348
362,1	761,176
362,6	855,205
363	961,033
363,5	1072,205
364	1192,09
364,4	1311,576
364,9	1430,833
365,3	1546,69
365,8	1662,262
366,3	1768,033
366,7	1866,519
367,2	1945,948
367,6	2013,833
368,1	2068,719
368,5	2105,09
369	2121,433
369,5	2127,862
369,9	2106,862
370,4	2078,605
370,8	2032,148
371,3	1971,519
371,7	1904,69
372,2	1827,405
372,7	1734,462
373,1	1647,348
373,6	1552,662
374	1452,862
374,5	1358,89
374,9	1259,262
375,4	1169,09
375,9	1085,576
376,3	995,833
376,8	919,233
377,2	852,519
377,7	781,719
378,2	724,433
378,6	663,119
379,1	608,09
379,5	565,405
380	520,005
380,4	472,948
380,9	439,09
381,4	401,69
381,8	371,462
382,3	341,433
382,7	312,662
383,2	285,748
383,6	267,062
384,1	249,319
384,6	229,233
385	214,205
385,5	198,89
385,9	188,719
386,4	179,29
386,8	175,233
387,3	162,148
387,7	154,89
388,2	145,576
388,7	140,148
389,1	127,176
389,6	119,948
390	107,49
390,5	101,433
390,9	98,862
391,4	95,776
391,9	91,062
392,3	82,89
392,8	75,69
393,2	69,062
393,7	65,548
394,1	63,919
394,6	59,776
395,1	57,576
395,5	64,89
396	62,719
396,4	64,062
396,9	62,462
397,3	56,233
397,8	56,719
398,2	50,548
398,7	42,233
399,2	37,833
399,6	40,405
400,1	35,548
400,5	37,405
401	38,376
401,4	42,919
401,9	47,548
402,4	53,119
402,8	48,319
403,3	51,262
403,7	50,748
404,2	46,519
404,6	45,148
405,1	41,462
405,5	38,748
406	34,69
406,5	33,262
406,9	28,433
407,4	30,805
407,8	31,605
408,3	33,519
408,7	36,005
409,2	40,148
409,6	40,062
410,1	51,148
410,6	54,833
411	57,09
411,5	59,576
411,9	61,548
412,4	65,062
412,8	69,148
413,3	64,69
413,7	62,948
414,2	63,576
414,7	70,862
415,1	68,033
415,6	72,576
416	74,776
416,5	78,862
416,9	80,89
417,4	83,148
417,8	83,005
418,3	91,119
418,8	90,833
419,2	95,09
419,7	101,348
420,1	97,719
420,6	100,805
421	97,976
421,5	95,119
421,9	96,062
422,4	93,462
422,8	87,262
423,3	91,49
423,8	94,719
424,2	97,919
424,7	96,748
425,1	94,748
425,6	98,862
426	98,119
426,5	101,69
426,9	97,576
427,4	95,662
427,9	94,69
428,3	93,49
428,8	91,462
429,2	91,462
429,7	87,576
430,1	89,89
430,6	89,748
431	95,119
431,5	95,29
431,9	97,976
432,4	99,405
432,8	100,69
433,3	97,29
433,8	100,919
434,2	103,205
434,7	103,89
435,1	101,033
435,6	106,148
436	112,805
436,5	120,49
436,9	120,833
437,4	122,948
437,8	128,576
438,3	137,69
438,8	135,605
439,2	143,005
439,7	142,205
440,1	146,662
440,6	153,776
441	159,376
441,5	165,719
441,9	175,862
442,4	179,748
442,8	191,719
443,3	199,633
443,7	199,976
444,2	208,205
444,7	212,862
445,1	218,776
445,6	224,205
446	230,662
446,5	240,376
446,9	253,376
447,4	262,405
447,8	272,662
448,3	282,719
448,7	288,005
449,2	296,119
449,6	306,09
450,1	318,719
450,6	328,262
451	336,119
451,5	352,662
451,9	368,976
452,4	382,205
452,8	399,462
453,3	408,833
453,7	421,176
454,2	435,519
454,6	447,376
455,1	459,519
455,5	477,033
456	487,405
456,4	502,433
456,9	519,776
457,3	539,119
457,8	553,748
458,3	577,033
458,7	595,805
459,2	613,748
459,6	632,376
460,1	654,833
460,5	674,748
461	692,462
461,4	710,148
461,9	725,633
462,3	747,833
462,8	770,976
463,2	789,719
463,7	808,919
464,1	837,176
464,6	861,29
465	888,862
465,5	917,462
466	945,233
466,4	972,433
466,9	1001,49
467,3	1022,319
467,8	1051,89
468,2	1071,262
468,7	1092,319
469,1	1113,262
469,6	1140,862
470	1163,833
470,5	1190,348
470,9	1205,033
471,4	1235,29
471,8	1257,805
472,3	1279,748
472,7	1305,148
473,2	1326,919
473,6	1349,548
474,1	1373,976
474,5	1400,29
475	1429,548
475,4	1454,033
475,9	1480,033
476,4	1502,376
476,8	1530,433
477,3	1564,033
477,7	1586,605
478,2	1607,119
478,6	1631,748
479,1	1648,033
479,5	1681,062
480	1705,462
480,4	1722,662
480,9	1747,833
481,3	1766,148
481,8	1793,405
482,2	1818,433
482,7	1832,519
483,1	1851,462
483,6	1872,148
484	1886,805
484,5	1911,576
484,9	1919,862
485,4	1931,148
485,8	1945,176
486,3	1960,919
486,7	1976,29
487,2	1992,576
487,6	2001,519
488,1	2026,576
488,5	2044,805
489	2056,805
489,4	2068,233
489,9	2084,433
490,4	2098,576
490,8	2110,205
491,3	2120,405
491,7	2127,833
492,2	2142,49
492,6	2153,176
493,1	2155,633
493,5	2157,833
494	2167,005
494,4	2166,633
494,9	2177,319
495,3	2181,862
495,8	2186,09
496,2	2194,748
496,7	2200,576
497,1	2212,662
497,6	2220,233
498	2219,262
498,5	2224,662
498,9	2230,348
499,4	2232,548
499,8	2232,833
500,3	2228,405
500,7	2230,376
501,2	2235,89
501,6	2237,605
502,1	2239,605
502,5	2236,119
503	2244,005
503,4	2245,862
503,9	2253,29
504,3	2254,262
504,8	2253,148
505,2	2250,605
505,7	2253,462
506,1	2252,005
506,6	2255,005
507	2250,376
507,5	2252,462
507,9	2256,719
508,4	2260,548
508,8	2264,433
509,3	2269,176
509,7	2265,633
510,2	2262,119
510,6	2259,176
511,1	2252,662
511,5	2252,89
512	2253,148
512,4	2250,262
512,9	2248,176
513,3	2259,148
513,8	2259,519
514,2	2269,662
514,7	2268,462
515,1	2265,29
515,6	2259,49
516	2261,748
516,5	2254,233
516,9	2250,548
517,4	2248,005
517,8	2242,776
518,3	2242,433
518,7	2241,69
519,2	2239,376
519,6	2237,519
520,1	2240,405
520,5	2234,205
521	2239,548
521,4	2237,719
521,9	2240,948
522,3	2239,862
522,8	2245,205
523,2	2242,919
523,7	2244,49
524,1	2242,176
524,6	2242,176
525	2241,919
525,5	2245,89
525,9	2239,148
526,4	2243,605
526,8	2245,176
527,3	2244,748
527,7	2244,462
528,2	2239,148
528,6	2238,29
529,1	2241,548
529,5	2239,548
530	2238,89
530,4	2238,833
530,9	2239,319
531,3	2248,862
531,8	2256,976
532,2	2256,805
532,6	2260,748
533,1	2260,348
533,5	2266,148
534	2270,29
534,4	2269,49
534,9	2267,833
535,3	2273,319
535,8	2273,862
536,2	2278,148
536,7	2270,662
537,1	2273,148
537,6	2278,69
538	2279,062
538,5	2278,319
538,9	2277,148
539,4	2286,376
539,8	2292,519
540,3	2288,862
540,7	2288,319
541,2	2290,233
541,6	2294,148
542,1	2302,69
542,5	2298,462
543	2300,69
543,4	2314,748
543,9	2312,262
544,3	2314,748
544,8	2313,376
545,2	2314,348
545,7	2315,576
546,1	2325,833
546,5	2323,262
547	2331,833
547,4	2334,662
547,9	2340,348
548,3	2345,033
548,8	2353,062
549,2	2350,148
549,7	2355,205
550,1	2359,862
550,6	2362,462
551	2372,376
551,5	2371,462
551,9	2370,062
552,4	2378,262
552,8	2379,862
553,3	2383,948
553,7	2385,948
554,2	2384,605
554,6	2392,376
555,1	2403,576
555,5	2407,376
555,9	2410,548
556,4	2411,519
556,8	2417,062
557,3	2419,29
557,7	2416,519
558,2	2414,719
558,6	2417,148
559,1	2421,09
559,5	2420,776
560	2422,205
560,4	2425,433
560,9	2428,719
561,3	2429,948
561,8	2433,719
562,2	2432,348
562,7	2435,519
563,1	2439,576
563,6	2435,833
564	2440,319
564,4	2444,348
564,9	2435,09
565,3	2446,776
565,8	2447,29
566,2	2447,548
566,7	2449,49
567,1	2451,748
567,6	2447,805
568	2459,233
568,5	2451,433
568,9	2454,576
569,4	2452,776
569,8	2455,119
570,3	2455,176
570,7	2457,719
571,1	2452,919
571,6	2455,748
572	2461,462
572,5	2465,433
572,9	2474,119
573,4	2474,919
573,8	2474,433
574,3	2471,776
574,7	2467,805
575,2	2466,919
575,6	2465,348
576,1	2460,062
576,5	2457,862
576,9	2459,919
577,4	2462,69
577,8	2464,433
578,3	2454,119
578,7	2455,005
579,2	2453,005
579,6	2454,205
580,1	2451,719
580,5	2444,69
581	2442,119
581,4	2440,833
581,9	2439,633
582,3	2434,062
582,7	2432,148
583,2	2426,09
583,6	2424,662
584,1	2420,148
584,5	2420,919
585	2416,376
585,4	2416,633
585,9	2413,405
586,3	2411,319
586,8	2407,148
587,2	2403,433
587,6	2398,633
588,1	2395,205
588,5	2382,605
589	2373,519
589,4	2370,833
589,9	2372,919
590,3	2369,033
590,8	2365,348
591,2	2356,776
591,7	2361,433
592,1	2356,605
592,5	2349,29
593	2338,833
593,4	2334,262
593,9	2325,405
594,3	2318,462
594,8	2315,233
595,2	2315,49
595,7	2314,976
596,1	2317,976
596,6	2319,576
597	2318,348
597,4	2313,348
597,9	2301,89
598,3	2299,348
598,8	2292,148
599,2	2285,833
599,7	2274,919
600,1	2273,862
600,6	2276,09
601	2274,433
601,4	2266,69
601,9	2259,519
602,3	2255,033
602,8	2251,405
603,2	2249,176
603,7	2247,033
604,1	2246,919
604,6	2240,89
605	2240,09
605,4	2238,119
605,9	2238,519
606,3	2226,833
606,8	2215,948
607,2	2206,748
607,7	2202,348
608,1	2194,633
608,6	2181,69
609	2173,433
609,4	2166,662
609,9	2164,262
610,3	2158,548
610,8	2152,862
611,2	2144,805
611,7	2138,29
612,1	2127,49
612,6	2124,376
613	2116,719
613,4	2110,662
613,9	2100,376
614,3	2096,148
614,8	2088,69
615,2	2083,89
615,7	2075,633
616,1	2062,033
616,6	2052,433
617	2046,776
617,4	2037,862
617,9	2029,605
618,3	2022,462
618,8	2015,605
619,2	2013,69
619,7	2006,262
620,1	1996,833
620,5	1989,29
621	1983,348
621,4	1971,605
621,9	1961,662
622,3	1951,233
622,8	1935,148
623,2	1926,833
623,6	1915,005
624,1	1911,805
624,5	1907,005
625	1897,09
625,4	1895,033
625,9	1893,862
626,3	1890,662
626,8	1885,719
627,2	1876,576
627,6	1866,805
628,1	1861,633
628,5	1844,205
629	1840,119
629,4	1823,833
629,9	1816,348
630,3	1806,576
630,7	1801,176
631,2	1789,862
631,6	1785,805
632,1	1772,348
632,5	1764,605
633	1750,433
633,4	1738,605
633,8	1723,662
634,3	1719,376
634,7	1713,262
635,2	1707,119
635,6	1698,862
636,1	1700,148
636,5	1696,433
636,9	1695,548
637,4	1687,062
637,8	1676,776
638,3	1665,005
638,7	1659,09
639,2	1644,862
639,6	1631,148
640	1618,233
640,5	1605,719
640,9	1597,233
641,4	1592,633
641,8	1584,176
642,2	1580,319
642,7	1571,462
643,1	1566,462
643,6	1563,662
644	1557,89
644,5	1550,233
644,9	1539,519
645,3	1529,976
645,8	1529,348
646,2	1521,805
646,7	1512,805
647,1	1506,833
647,6	1494,29
648	1489,49
648,4	1483,262
648,9	1473,548
649,3	1468,205
649,8	1462,262
650,2	1453,376
650,6	1452,005
651,1	1449,89
651,5	1443,605
652	1436,433
652,4	1423,633
652,9	1419,89
653,3	1408,605
653,7	1399,033
654,2	1394,605
654,6	1386,776
655,1	1375,805
655,5	1369,948
655,9	1352,948
656,4	1347,833
656,8	1342,833
657,3	1324,205
657,7	1313,89
658,2	1311,433
658,6	1306,262
659	1298,09
659,5	1290,633
659,9	1282,89
660,4	1278,662
660,8	1281,462
661,2	1274,29
661,7	1264,805
662,1	1264,119
662,6	1259,519
663	1251,176
663,4	1245,376
663,9	1228,405
664,3	1221,005
664,8	1218,748
665,2	1206,376
665,6	1196,69
666,1	1189,376
666,5	1181,405
667	1171,633
667,4	1159,148
667,9	1145,548
668,3	1144,09
668,7	1137,348
669,2	1129,69
669,6	1122,833
670,1	1122,148
670,5	1114,805
670,9	1116,262
671,4	1108,433
671,8	1104,148
672,3	1097,69
672,7	1088,262
673,1	1078,862
673,6	1076,462
674	1063,319
674,5	1054,319
674,9	1043,148
675,3	1038,062
675,8	1036,09
676,2	1033,576
676,7	1028,548
677,1	1026,205
677,5	1021,69
678	1015,776
678,4	1009,633
678,9	1000,148
679,3	989,605
679,7	983,205
680,2	976,462
680,6	967,433
681,1	960,519
681,5	954,09
681,9	952,519
682,4	950,49
682,8	945,519
683,3	935,633
683,7	929,862
684,1	927,519
684,6	924,976
685	914,548
685,5	908,005
685,9	901,719
686,3	899,033
686,8	896,119
687,2	890,148
687,7	882,748
688,1	882,405
688,5	875,976
689	870,462
689,4	865,69
689,9	862,919
690,3	859,005
690,7	850,89
691,2	844,348
691,6	839,062
692	830,119
692,5	820,548
692,9	811,919
693,4	803,319
693,8	799,919
694,2	790,09
694,7	787,005
695,1	786,09
695,6	782,348
696	781,062
696,4	778,833
696,9	770,148
697,3	768,633
697,8	757,976
698,2	747,748
698,6	748,633
699,1	736,862
699,5	733,919
699,9	734,776
700,4	727,748
700,8	731,033
701,3	728,948
701,7	720,576
702,1	722,119
702,6	713,29
703	704,662
703,5	700,205
703,9	690,719
704,3	693,119
704,8	688,033
705,2	680,119
705,6	673,348
706,1	678,348
706,5	678,233
707	669,319
707,4	661,69
707,8	659,462
708,3	654,719
708,7	657,919
709,2	645,49
709,6	636,976
710	636,576
710,5	630,319
710,9	624,119
711,3	621,776
711,8	616,519
712,2	615,233
712,7	614,805
713,1	610,49
713,5	603,776
714	602,833
714,4	598,605
714,8	599,405
715,3	594,776
715,7	587,005
716,2	581,005
716,6	583,29
717	578,976
717,5	576,833
717,9	567,405
718,3	562,833
718,8	561,376
719,2	560,09
719,7	555,062
720,1	549,69
720,5	546,662
721	540,748
721,4	540,49
721,8	538,233
722,3	530,148
722,7	520,062
723,2	515,233
723,6	510,033
724	508,062
724,5	498,29
724,9	488,662
725,3	491,89
725,8	491,09
726,2	487,319
726,7	483,205
727,1	475,833
727,5	475,148
728	477,29
728,4	473,919
728,8	472,776
729,3	469,662
729,7	466,205
730,1	464,148
730,6	461,833
731	462,948
731,5	458,862
731,9	457,376
732,3	458,233
732,8	458,719
733,2	459,519
733,6	457,862
734,1	451,976
734,5	442,062
734,9	439,148
735,4	436,833
735,8	432,662
736,3	430,662
736,7	430,405
737,1	426,548
737,6	431,548
738	425,519
738,4	423,233
738,9	424,29
739,3	417,833
739,7	410,405
740,2	410,319
740,6	407,405
741,1	405,805
741,5	404,49
741,9	394,776
742,4	394,605
742,8	398,976
743,2	396,519
743,7	398,176
744,1	395,748
744,5	392,862
745	390,69
745,4	388,405
745,8	386,405
746,3	385,748
746,7	379,548
747,2	379,462
747,6	372,376
748	372,976
748,5	367,09
748,9	355,633
749,3	353,748
749,8	346,748
750,2	342,49
750,6	342,205
751,1	342,548
751,5	339,376
751,9	340,662
752,4	337,633
752,8	337,719
753,3	334,862
753,7	338,548
754,1	333,49
754,6	330,462
755	327,919
755,4	324,205
755,9	329,833
756,3	328,748
756,7	320,176
757,2	317,919
757,6	319,005
758	317,776
758,5	315,062
758,9	305,09
759,3	301,433
759,8	301,405
760,2	300,662
760,6	302,662
761,1	301,548
761,5	301,548
761,9	300,49
762,4	301,662
762,8	299,748
763,3	294,719
763,7	289,833
764,1	282,119
764,6	277,576
765	273,005
765,4	272,69
765,9	267,805
766,3	267,605
766,7	268,376
767,2	273,233
767,6	268,976
768	274,376
768,5	268,805
768,9	272,462
769,3	271,633
769,8	269,548
770,2	269,633
770,6	271,29
771,1	267,433
771,5	266,748
771,9	258,976
772,4	264,548
772,8	264,576
773,2	259,748
773,7	261,49
774,1	266,433
774,5	267,748
775	267,833
775,4	260,005
775,8	256,89
776,3	253,89
776,7	250,062
777,1	244,005
777,6	239,262
778	236,948
778,4	234,376
778,9	230,033
779,3	230,833
779,7	229,176
780,2	225,205
780,6	222,548
781	221,348
781,5	221,662
781,9	221,09
782,3	218,176
782,8	210,69
783,2	207,062
783,6	204,805
784,1	204,348
784,5	200,548
784,9	197,033
785,4	195,49
785,8	195,576
786,2	198,176
786,7	197,005
787,1	195,862
787,5	197,805
788	198,576
788,4	197,119
788,8	199,062
789,3	194,69
789,7	194,519
790,1	198,29
790,6	196,862
791	192,262
791,4	192,233
791,9	189,233
792,3	189,176
792,7	191,748
793,2	181,09
793,6	180,033
794	183,519
794,5	181,09
794,9	184,805
795,3	184,805
795,8	177,89
796,2	182,462
796,6	176,205
797,1	174,89
797,5	173,805
797,9	167,319
798,4	161,89
798,8	163,176
799,2	160,976
799,7	167,662
800,1	163,633
800,5	159,062
801	159,662
801,4	159,319
801,8	156,662
802,2	155,833
802,7	151,519
803,1	150,119
803,5	156,005
804	155,576
804,4	154,605
804,8	159,633
805,3	155,748
805,7	151,605
806,1	152,776
806,6	151,033
807	153,462
807,4	151,748
807,9	147,176
808,3	144,519
808,7	144,919
809,2	142,833
809,6	142,862
810	137,405
810,4	139,948
810,9	137,176
811,3	138,548
811,7	134,319
812,2	136,376
812,6	130,319
813	128,519
813,5	127,148
813,9	130,176
814,3	129,49
814,8	132,148
815,2	127,548
815,6	127,805
816,1	132,662
816,5	130,49
816,9	126,233
817,3	126,176
817,8	127,605
818,2	122,69
818,6	125,919
819,1	120,89
819,5	122,033
819,9	122,205
820,4	122,976
820,8	116,005
821,2	123,919
821,7	119,862
822,1	118,548
822,5	115,919
822,9	117,662
823,4	112,033
823,8	114,976
824,2	112,89
824,7	113,633
825,1	113,062
825,5	114,205
826	115,233
826,4	117,776
826,8	116,376
827,3	116,176
827,7	114,033
828,1	115,376
828,5	112,576
829	103,519
829,4	107,519
829,8	105,576
830,3	104,719
830,7	99,605
831,1	94,662
831,6	92,376
832	92,405
832,4	86,262
832,8	86,919
833,3	84,29
833,7	88,433
834,1	88,205
834,6	86,062
835	91,833
835,4	93,605
835,8	90,633
836,3	88,976
836,7	82,205
837,1	81,033
837,6	80,633
838	71,09
838,4	65,662
838,9	68,148
839,3	69,062
839,7	73,948
840,1	73,319
840,6	75,262
841	82,662
841,4	83,062
841,9	79,348
842,3	79,833
842,7	80,89
843,1	82,062
843,6	85,148
844	83,262
844,4	85,748
844,9	88,29
845,3	82,633
845,7	82,862
846,2	83,548
846,6	78,633
847	74,09
847,4	69,633
847,9	66,119
848,3	69,348
848,7	67,005
849,2	66,776
849,6	66,462
850	68,719
850,4	72,376
850,9	74,633
851,3	71,49
851,7	69,233
852,2	62,148
852,6	62,719
853	63,605
853,4	64,948
853,9	62,119
854,3	59,89
854,7	57,805
855,2	60,062
855,6	54,862
856	48,119
856,4	41,433
856,9	39,805
857,3	43,49
857,7	46,89
858,2	46,576
858,6	51,205
859	51,548
859,4	53,376
859,9	54,919
860,3	53,462
860,7	49,548
861,1	52,948
861,6	53,405
862	58,033
862,4	57,09
862,9	58,233
863,3	57,776
863,7	58,376
864,1	55,919
864,6	49,29
865	47,519
865,4	44,462
865,9	40,09
866,3	37,233
866,7	39,69
867,1	44,605
867,6	48,948
868	48,919
868,4	50,605
868,8	53,433
869,3	54,919
869,7	52,433
870,1	47,119
870,6	44,148
871	102,233
871,4	101,633
871,8	101,776
872,3	106,09
872,7	104,205
873,1	105,605
873,5	109,033
874	51,119
874,4	52,319
874,8	50,348
875,3	46,205
875,7	42,748
876,1	39,805
876,5	44,948
877	41,319
877,4	38,805
877,8	42,576
878,2	40,376
878,7	48,976
879,1	51,548
879,5	44,605
879,9	48,462
880,4	47,633
880,8	44,405
881,2	45,405
881,7	42,862
882,1	40,748
882,5	38,148
882,9	34,462
883,4	37,348
883,8	35,548
884,2	36,405
884,6	35,576
885,1	35,948
885,5	40,405
885,9	45,062
886,3	46,49
886,8	42,462
887,2	41,662
887,6	36,662
888	32,376
888,5	33,376
888,9	28,462
889,3	24,548
889,8	31,205
890,2	31,862
890,6	35,89
891	39,719
891,5	39,348
891,9	40,176
892,3	41,919
892,7	40,148
893,2	39,719
893,6	37,719
894	37,748
894,4	34,376
894,9	33,548
895,3	31,776
895,7	30,948
896,1	31,519
896,6	33,49
897	29,348
897,4	25,89
897,8	26,348
898,3	31,748
898,7	30,69
899,1	27,49
899,5	24,576
900	27,462
900,4	27,576
900,8	30,49
901,2	28,148
901,7	27,033
902,1	31,033
902,5	32,29
902,9	34,233
903,4	38,633
903,8	31,205
904,2	33,862
904,6	29,548
905,1	30,033
905,5	26,519
905,9	27,205
906,3	23,348
906,8	27,148
907,2	18,348
907,6	21,033
908	16,205
908,5	19,376
908,9	16,005
909,3	13,805
909,7	14,49
910,2	17,519
910,6	20,69
911	21,348
911,4	18,176
911,9	18,433
912,3	23,119
912,7	24,433
913,1	22,719
913,6	24,462
914	27,748
914,4	27,976
914,8	31,348
915,3	32,205
915,7	26,376
916,1	23,776
916,5	19,519
916,9	18,176
917,4	20,233
917,8	16,405
918,2	12,833
918,6	15,09
919,1	20,776
919,5	25,148
919,9	26,262
920,3	25,776
920,8	28,605
921,2	31,862
921,6	31,548
922	27,548
922,5	25,662
922,9	21,405
923,3	23,633
923,7	17,576
924,2	13,519
924,6	11,605
925	12,119
925,4	12,69
925,8	13,633
926,3	16,233
926,7	22,233
927,1	24,233
927,5	27,776
928	27,005
928,4	26,262
928,8	27,29
929,2	22,405
929,7	18,148
930,1	18,919
930,5	13,662
930,9	17,462
931,3	20,405
931,8	19,233
932,2	16,233
932,6	16,633
933	11,119
933,5	17,09
933,9	14,348
934,3	9,748
934,7	13,919
935,2	18,005
935,6	19,233
936	20,748
936,4	17,49
936,8	15,719
937,3	17,062
937,7	10,748
938,1	5,49
938,5	4,776
939	6,233
939,4	6,633
939,8	10,033
940,2	8,662
940,6	12,233
941,1	19,748
941,5	21,69
941,9	22,69
942,3	18,919
942,8	17,319
943,2	15,576
943,6	16,205
944	12,69
944,4	4,919
944,9	4,576
945,3	11,605
945,7	13,805
946,1	14,862
946,6	13,576
947	13,433
947,4	17,033
947,8	18,662
948,2	14,748
948,7	14,948
949,1	15,49
949,5	16,948
949,9	21,576
950,3	20,948
950,8	18,719
951,2	22,205
951,6	19,948
952	18,976
952,5	16,662
952,9	7,805
953,3	7,748
953,7	10,976
954,1	6,748
954,6	8,49
955	6,09
955,4	6,176
955,8	11,976
956,2	14,148
956,7	13,233
957,1	14,605
957,5	13,005
957,9	15,348
958,3	12,605
958,8	9,948
959,2	11,119
959,6	12,633
960	14,319
960,5	12,062
960,9	14,29
961,3	16,376
961,7	15,262
962,1	11,548
962,6	5,405
963	7,833
963,4	8,033
963,8	11,205
964,2	9,776
964,7	10,719
965,1	14,09
965,5	15,519
965,9	10,662
966,3	13,233
966,8	10,262
967,2	12,948
967,6	13,005
968	14,176
968,4	20,29
968,9	22,719
969,3	22,005
969,7	17,662
970,1	16,519
970,5	18,548
971	9,919
971,4	9,605
971,8	10,605
972,2	10,462
972,6	14,319
973,1	15,805
973,5	17,719
973,9	24,49
974,3	20,005
974,7	15,919
975,2	14,29
975,6	8,433
976	7,69
976,4	3,005
976,8	2,519
977,3	3,519
977,7	4,69
978,1	5,833
978,5	10,462
978,9	10,919
979,4	8,319
979,8	9,262
980,2	5,862
980,6	6,69
981	7,748
981,5	8,348
981,9	4,148
982,3	2,89
982,7	1,233
983,1	3,862
983,6	7,09
984	8,205
984,4	5,633
984,8	6,462
985,2	12,948
985,6	15,348
986,1	11,233
986,5	5,69
986,9	2,89
987,3	1,348
987,7	5,776
988,2	3,662
988,6	0,605
989	4,69
989,4	6,976
989,8	7,776
990,3	8,719
990,7	2,633
991,1	0,405
991,5	0,176
991,9	3,348
992,3	4,605
992,8	11,805
993,2	14,576
993,6	17,633
994	20,833
994,4	19,89
994,9	16,69
995,3	13,29
995,7	6,005
996,1	4,319
996,5	2,948
996,9	3,662
997,4	4,005
997,8	4,348
998,2	5,462
998,6	8,148
999	7,462
999,5	9,462
999,9	5,919
1000,3	10,948
1000,7	7,176
1001,1	7,719
1001,5	1,719
1002	-0,395
1002,4	-1,652
1002,8	6,462
1003,2	2,262
1003,6	9,862
1004	9,119
1004,5	11,319
1004,9	16,176
1005,3	16,462
1005,7	9,719
1006,1	10,262
1006,6	7,119
1007	7,89
1007,4	9,005
1007,8	9,348
1008,2	7,348
1008,6	5,69
1009,1	4,205
1009,5	7,09
1009,9	13,576
1010,3	15,719
1010,7	16,976
1011,1	24,119
1011,6	22,405
1012	22,462
1012,4	23,262
1012,8	12,348
1013,2	10,748
1013,6	9,548
1014,1	5,69
1014,5	10,005
1014,9	13,719
1015,3	6,919
1015,7	10,576
1016,1	11,605
1016,6	12,176
1017	11,948
1017,4	10,29
1017,8	7,005
1018,2	6,462
1018,6	13,748
1019,1	10,205
1019,5	11,29
1019,9	15,119
1020,3	17,376
1020,7	15,69
1021,1	18,433
1021,6	5,548
1022	3,605
1022,4	7,176
1022,8	3,976
1023,2	3,405
1023,6	6,29
1024,1	6,776
1024,5	14,033
1024,9	23,005
1025,3	14,033
1025,7	13,976
1026,1	16,69
1026,6	19,29
1027	12,976
1027,4	11,348
1027,8	2,519
1028,2	2,976
1028,6	4,519
1029	-0,795
1029,5	2,29
1029,9	5,662
1030,3	11,205
1030,7	9,662
1031,1	10,633
1031,5	7,719
1032	11,205
1032,4	1,519
1032,8	2,433
1033,2	-1,51
1033,6	4,433
1034	5,062
1034,4	9,976
1034,9	6,319
1035,3	11,376
1035,7	12,605
1036,1	14,833
1036,5	12,862
1036,9	13,119
1037,4	10,49
1037,8	12,405
1038,2	9,805
1038,6	7,719
1039	4,205
1039,4	8,176
1039,8	4,09
1040,3	5,948
1040,7	6,205
1041,1	10,719
1041,5	12,862
1041,9	10,605
1042,3	5,519
1042,7	10,862
1043,2	10,719
1043,6	11,348
1044	5,776
1044,4	-2,224
1044,8	-5,452
1045,2	-1,424
1045,6	-1,881
1046,1	-1,11
1046,5	0,633
1046,9	6,348
1047,3	12,405
1047,7	17,319
1048,1	12,948
1048,5	12,748
1049	10,119
1049,4	5,662
1049,8	3,348
1050,2	10,262
1050,6	10,662
1051	16,29
1051,4	17,29
1051,9	16,262
1052,3	15,633
1052,7	14,662
1053,1	9,205
1053,5	10,548
1053,9	11,033
1054,3	9,833
1054,8	16,519
1055,2	20,405
1055,6	17,719
1056	18,576
1056,4	17,862
1056,8	14,462
1057,2	17,548
1057,6	10,119
1058,1	7,148
1058,5	8,462
1058,9	10,148
1059,3	12,062
1059,7	8,662
1060,1	6,433
1060,5	4,605
1061	8,49
1061,4	14,948
1061,8	11,49
1062,2	9,09
1062,6	16,176
1063	15,49
1063,4	18,29
1063,8	14,976
1064,3	7,919
1064,7	6,776
1065,1	7,576
1065,5	8,719
1065,9	5,605
1066,3	-0,167
1066,7	1,948
1067,1	1,148
1067,6	2,662
1068	-0,738
1068,4	-4,624
1068,8	-1,824
1069,2	1,862
1069,6	6,262
1070	11,462
1070,4	11,09
1070,9	15,833
1071,3	14,633
1071,7	17,862
1072,1	22,862
1072,5	20,776
1072,9	19,605
1073,3	20,748
1073,7	19,633
1074,2	22,776
1074,6	18,49
1075	15,233
1075,4	14,776
1075,8	13,319
1076,2	11,69
1076,6	9,576
1077	4,233
1077,5	7,69
1077,9	12,033
1078,3	6,719
1078,7	5,033
1079,1	9,519
1079,5	8,633
1079,9	15,548
1080,3	13,662
1080,7	7,262
1081,2	10,348
1081,6	14,148
1082	10,862
1082,4	10,862
1082,8	4,519
1083,2	-2,11
1083,6	-0,538
1084	-3,995
1084,5	-5,567
1084,9	-7,995
1085,3	-4,824
1085,7	-4,767
1086,1	-2,195
1086,5	1,005
1086,9	1,748
1087,3	3,605
1087,7	9,748
1088,2	9,605
1088,6	11,09
1089	12,09
1089,4	13,062
1089,8	16,262
1090,2	15,148
1090,6	8,605
1091	9,262
1091,4	13,633
1091,9	16,833
1092,3	11,176
1092,7	13,348
1093,1	10,776
1093,5	10,89
1093,9	9,89
1094,3	6,862
1094,7	6,462
1095,1	2,69
1095,5	2,605
1096	0,148
1096,4	4,376
1096,8	-0,595
1097,2	-2,11
1097,6	-3,852
1098	2,319
1098,4	0,633
1098,8	4,433
1099,2	3,462
1099,6	10,633
1100,1	11,09
1100,5	12,948
1100,9	9,805
1101,3	7,862
1101,7	10,348
1102,1	11,033
1102,5	7,833
1102,9	4,376
1103,3	2,433
1103,7	5,176
1104,2	6,376
1104,6	3,919
1105	2,376
1105,4	0,662
1105,8	3,69
1106,2	3,948
1106,6	1,69
1107	0,09
1107,4	-1,2
1107,8	-2,047
1108,3	-0,217
