Data from Subt2_168.txt Node
Date: Sat Aug 26 18:35:33 MSK 2023
User: vat
Spectrometer: MAYP114033
Trigger mode: 0
Integration Time (sec): 1,000000E0
Scans to average: 5
Electric dark correction enabled: true
Nonlinearity correction enabled: false
Boxcar width: 3
XAxis mode: Wavelengths
Number of Pixels in Spectrum: 2068
>>>>>Begin Spectral Data<<<<<
199,4	-0,45
199,9	3,24
200,4	2,3
200,8	2,257
201,3	-2,171
201,8	-4,743
202,2	-7,143
202,7	-3,486
203,2	-5,543
203,6	-5,571
204,1	-6,714
204,6	-5,171
205	-0,657
205,5	1,4
206	-2,457
206,4	-3,457
206,9	-5,543
207,4	-4,6
207,8	0,457
208,3	-2,914
208,8	-1,371
209,2	1,143
209,7	3,743
210,2	6,2
210,6	6,514
211,1	2,543
211,5	1,143
212	-1,257
212,5	-3,286
212,9	-7,829
213,4	-5,914
213,9	-7,514
214,3	-6,714
214,8	-4,114
215,3	-3,857
215,7	-0,029
216,2	5,286
216,7	2,4
217,1	1,914
217,6	4,486
218,1	5,657
218,5	4,514
219	-3,571
219,5	-8,2
219,9	-7,371
220,4	-1,4
220,9	-3,686
221,3	-4,4
221,8	-2,657
222,3	1,971
222,7	5,229
223,2	3,771
223,6	-3,029
224,1	-1,257
224,6	-1,257
225	-5,543
225,5	-5,057
226	-7,057
226,4	-4,086
226,9	2,114
227,4	0,829
227,8	-6,257
228,3	-3,886
228,8	-4,257
229,2	-3,229
229,7	-7,229
230,2	-10,257
230,6	-7,686
231,1	1,857
231,5	5
232	4,2
232,5	3,143
232,9	7,714
233,4	8,771
233,9	6,457
234,3	5,914
234,8	4,886
235,3	3,486
235,7	6,286
236,2	5
236,7	4,086
237,1	4,943
237,6	1,743
238,1	4,057
238,5	1,514
239	2,343
239,4	3,114
239,9	1,086
240,4	2,6
240,8	5,771
241,3	0,829
241,8	4,143
242,2	-1,143
242,7	-3,886
243,2	-0,914
243,6	-5,886
244,1	-7,543
244,6	-6,029
245	-7,114
245,5	-3,971
245,9	-2,714
246,4	-4,143
246,9	0,2
247,3	1,286
247,8	4,571
248,3	10,343
248,7	9,086
249,2	11,171
249,7	11,8
250,1	10,971
250,6	10,8
251	9,486
251,5	7,086
252	9,4
252,4	7,486
252,9	1,543
253,4	-0,171
253,8	-0,286
254,3	-2,429
254,8	-3,686
255,2	-7,086
255,7	-7,571
256,1	-2,314
256,6	1,229
257,1	-3,657
257,5	-6,914
258	-9,457
258,5	-5,743
258,9	-9,971
259,4	-9,8
259,9	-12,629
260,3	-7,343
260,8	-6,714
261,2	-3,286
261,7	-5,714
262,2	-5,4
262,6	-7,114
263,1	-5,8
263,6	-5,629
264	-0,171
264,5	3,771
264,9	2,943
265,4	6
265,9	7,114
266,3	8,257
266,8	9,886
267,3	7,886
267,7	0,886
268,2	1,857
268,7	4,343
269,1	2,571
269,6	-3,886
270	-5,629
270,5	-5,486
271	-1,829
271,4	-2,886
271,9	-7,2
272,4	-3,629
272,8	2
273,3	2,057
273,7	5,6
274,2	6,971
274,7	8,829
275,1	10,771
275,6	10,543
276,1	7,4
276,5	9,571
277	4,8
277,4	1,057
277,9	2,457
278,4	6,486
278,8	5,743
279,3	7,686
279,8	6,2
280,2	8,571
280,7	11,714
281,1	8,543
281,6	4,286
282,1	4,457
282,5	3,371
283	-1,714
283,4	-3,229
283,9	-5,286
284,4	-0,543
284,8	-0,343
285,3	-0,029
285,8	2,029
286,2	5,571
286,7	7,857
287,1	5,514
287,6	4
288,1	2,686
288,5	4,829
289	5,029
289,5	3,457
289,9	-2,029
290,4	2,371
290,8	-1,8
291,3	-1,057
291,8	-1,743
292,2	-7,257
292,7	-1,543
293,1	-0,971
293,6	1,829
294,1	1,514
294,5	0,743
295	2,914
295,5	5,771
295,9	5,714
296,4	8,886
296,8	6,914
297,3	11,429
297,8	8,171
298,2	-0,629
298,7	2,171
299,1	-1,2
299,6	-1,857
300,1	0,4
300,5	-1,371
301	8,6
301,5	14,2
301,9	12,057
302,4	10,657
302,8	6,171
303,3	-1,286
303,8	-3,657
304,2	-8,2
304,7	-11,686
305,1	-14,857
305,6	-12,2
306,1	-2,057
306,5	0,857
307	8,629
307,4	7,686
307,9	12,743
308,4	14,429
308,8	9,514
309,3	2,2
309,8	3,086
310,2	-3,229
310,7	-6,6
311,1	-11,057
311,6	-13,457
312,1	-12,314
312,5	-6,371
313	-7,086
313,4	-5,543
313,9	-2,343
314,4	-1,543
314,8	0,257
315,3	0,743
315,7	-4,4
316,2	-5,486
316,7	-9
317,1	-5,343
317,6	-5,743
318	0,457
318,5	1,057
319	2,629
319,4	2,029
319,9	7,629
320,3	5,371
320,8	6,457
321,3	2,743
321,7	7,457
322,2	5,057
322,6	8,771
323,1	5,543
323,6	4,857
324	2,686
324,5	3,829
324,9	-1,914
325,4	-0,057
325,9	0,886
326,3	3,029
326,8	6,629
327,2	4,857
327,7	3,629
328,2	7,8
328,6	9,714
329,1	3
329,5	-1,914
330	-6,229
330,5	0,114
330,9	4,029
331,4	3,143
331,8	0,343
332,3	7,486
332,8	10,971
333,2	9,371
333,7	7,714
334,1	6,6
334,6	0,943
335,1	-0,2
335,5	-2,457
336	-3,114
336,4	2,4
336,9	6,886
337,4	2,229
337,8	2,8
338,3	6,943
338,7	5,629
339,2	4,486
339,7	5,971
340,1	1,429
340,6	2,629
341	3,114
341,5	2,057
342	1,629
342,4	0,943
342,9	-7,2
343,3	-9,429
343,8	-12,943
344,2	-10,171
344,7	-9,657
345,2	-10,914
345,6	-8,514
346,1	-3,343
346,5	-6,371
347	-1,543
347,5	-4,943
347,9	-0,143
348,4	0,914
348,8	0,4
349,3	1,6
349,8	8,114
350,2	12,114
350,7	13,029
351,1	8,886
351,6	15,086
352	18,543
352,5	21,4
353	26,429
353,4	26,743
353,9	35,971
354,3	45,886
354,8	47,457
355,3	63,343
355,7	75,629
356,2	89,371
356,6	105,971
357,1	124,829
357,5	145,029
358	174,686
358,5	196,971
358,9	228
359,4	257,971
359,8	296,8
360,3	342,2
360,8	388,286
361,2	439,514
361,7	500,6
362,1	567,029
362,6	647,286
363	726,429
363,5	805,714
364	891,429
364,4	984,857
364,9	1074,686
365,3	1161,686
365,8	1238,686
366,3	1311,543
366,7	1381,343
367,2	1445,371
367,6	1487,886
368,1	1523,229
368,5	1548,743
369	1562,829
369,5	1571,714
369,9	1560,657
370,4	1534,457
370,8	1500,2
371,3	1455,514
371,7	1407,571
372,2	1347,4
372,7	1279
373,1	1208,857
373,6	1136,657
374	1070,714
374,5	1001,886
374,9	926,4
375,4	859,257
375,9	792,571
376,3	732,114
376,8	673,114
377,2	616,543
377,7	561,8
378,2	511,543
378,6	470
379,1	432,743
379,5	402,743
380	374,571
380,4	345,514
380,9	317,571
381,4	293,371
381,8	271,057
382,3	251,971
382,7	232,457
383,2	217,486
383,6	202,171
384,1	192,429
384,6	179,029
385	164,629
385,5	148,6
385,9	131,8
386,4	118,629
386,8	107,657
387,3	95,143
387,7	92,229
388,2	88,171
388,7	80,343
389,1	76,171
389,6	71,943
390	68,886
390,5	69,086
390,9	64,657
391,4	59,229
391,9	60,057
392,3	60,971
392,8	52,829
393,2	46,943
393,7	37,971
394,1	33,743
394,6	30,371
395,1	26,143
395,5	19
396	21,714
396,4	24,171
396,9	25,686
397,3	27,971
397,8	28
398,2	32,743
398,7	33,686
399,2	33,286
399,6	33,8
400,1	34,057
400,5	24,486
401	23,2
401,4	14,314
401,9	20,743
402,4	20,857
402,8	16,457
403,3	21,371
403,7	23,457
404,2	28,371
404,6	34,657
405,1	26,457
405,5	22,457
406	22,6
406,5	16,257
406,9	20,4
407,4	16,057
407,8	17,429
408,3	21,6
408,7	23,686
409,2	25,6
409,6	29,6
410,1	31,171
410,6	37,543
411	36
411,5	38,914
411,9	44,943
412,4	45,829
412,8	48,743
413,3	53,971
413,7	54,457
414,2	58,943
414,7	60,086
415,1	65,657
415,6	71,029
416	76,114
416,5	75,8
416,9	74,629
417,4	79,429
417,8	87,6
418,3	89,629
418,8	95,457
419,2	94,914
419,7	96,371
420,1	100,657
420,6	102,543
421	97,371
421,5	101,057
421,9	100,4
422,4	105,943
422,8	111,086
423,3	112,2
423,8	107,571
424,2	110,029
424,7	108,257
425,1	109,686
425,6	108,629
426	108,2
426,5	112,6
426,9	120,686
427,4	121,314
427,9	120
428,3	123,229
428,8	126,371
429,2	126,486
429,7	127,6
430,1	128,029
430,6	130,829
431	135,657
431,5	141,229
431,9	141,4
432,4	150,829
432,8	157,543
433,3	165,943
433,8	173,914
434,2	179,571
434,7	182,971
435,1	190,086
435,6	192,457
436	198,886
436,5	205,714
436,9	208,714
437,4	218,657
437,8	226,971
438,3	239,257
438,8	246,429
439,2	255,686
439,7	261,457
440,1	281,057
440,6	297,143
441	305,029
441,5	315,8
441,9	332,8
442,4	344,4
442,8	357,914
443,3	369,886
443,7	379,857
444,2	399,857
444,7	415,143
445,1	434,457
445,6	449,857
446	471,257
446,5	485,914
446,9	497,086
447,4	516,914
447,8	537,286
448,3	555,686
448,7	579,714
449,2	601,829
449,6	629,6
450,1	656,343
450,6	679,143
451	703,686
451,5	730,257
451,9	757,914
452,4	786,057
452,8	802,114
453,3	830,686
453,7	853
454,2	879,686
454,6	901,629
455,1	924,8
455,5	949,771
456	985,6
456,4	1012,2
456,9	1042,2
457,3	1072,771
457,8	1103,886
458,3	1138,657
458,7	1166,686
459,2	1196,143
459,6	1224,086
460,1	1260,143
460,5	1284,971
461	1322,514
461,4	1348,6
461,9	1379,514
462,3	1411,514
462,8	1452,314
463,2	1478,029
463,7	1514,286
464,1	1544,171
464,6	1581
465	1618,371
465,5	1650,257
466	1681,743
466,4	1719,914
466,9	1756,714
467,3	1788,171
467,8	1823,657
468,2	1860,714
468,7	1894,371
469,1	1931,314
469,6	1965,6
470	2002,943
470,5	2041,371
470,9	2076,4
471,4	2103,914
471,8	2139,657
472,3	2168,371
472,7	2202,829
473,2	2228,943
473,6	2251,314
474,1	2279,743
474,5	2311,6
475	2342,286
475,4	2367,086
475,9	2394,857
476,4	2422,943
476,8	2453,629
477,3	2479,943
477,7	2509,229
478,2	2532,086
478,6	2559,257
479,1	2581,857
479,5	2604,714
480	2629,171
480,4	2653,714
480,9	2668,6
481,3	2688,514
481,8	2711,629
482,2	2722,571
482,7	2737,371
483,1	2750,571
483,6	2756,943
484	2770,4
484,5	2779,657
484,9	2780,571
485,4	2790,686
485,8	2800,543
486,3	2811,571
486,7	2823,514
487,2	2829,914
487,6	2838,686
488,1	2849,571
488,5	2857,629
489	2862,143
489,4	2864,2
489,9	2860
490,4	2865,771
490,8	2864
491,3	2865,457
491,7	2864,229
492,2	2866,286
492,6	2861,4
493,1	2863,2
493,5	2852,686
494	2847,486
494,4	2837,4
494,9	2827,257
495,3	2818,343
495,8	2808,314
496,2	2798,114
496,7	2782,829
497,1	2776,543
497,6	2768,514
498	2760,771
498,5	2746,743
498,9	2732,4
499,4	2716,6
499,8	2714,257
500,3	2697
500,7	2682,743
501,2	2666,057
501,6	2642,4
502,1	2631,771
502,5	2620,371
503	2601,543
503,4	2589,8
503,9	2565,4
504,3	2549,457
504,8	2540,086
505,2	2521,514
505,7	2502,914
506,1	2489,457
506,6	2465,829
507	2453,029
507,5	2438,886
507,9	2417,743
508,4	2398,4
508,8	2374,086
509,3	2349,571
509,7	2332,286
510,2	2316,771
510,6	2289,657
511,1	2270,171
511,5	2250,6
512	2228,771
512,4	2209,314
512,9	2186,429
513,3	2161,086
513,8	2139,857
514,2	2118,371
514,7	2098,771
515,1	2080,4
515,6	2052,086
516	2024
516,5	1998,914
516,9	1981,286
517,4	1957,857
517,8	1940,429
518,3	1920,829
518,7	1900,714
519,2	1887,886
519,6	1869,914
520,1	1844,6
520,5	1824,086
521	1791,971
521,4	1766,657
521,9	1748,571
522,3	1723,343
522,8	1701,543
523,2	1681,743
523,7	1664,886
524,1	1650,4
524,6	1630,571
525	1604,343
525,5	1586,486
525,9	1574,343
526,4	1550,657
526,8	1532,029
527,3	1511,686
527,7	1499,914
528,2	1490,343
528,6	1468,343
529,1	1448,943
529,5	1442,057
530	1416,971
530,4	1403,029
530,9	1387,143
531,3	1368,457
531,8	1353,971
532,2	1338,686
532,6	1314,914
533,1	1306,143
533,5	1285,943
534	1262,371
534,4	1250,771
534,9	1243,2
535,3	1224,543
535,8	1212,8
536,2	1201,229
536,7	1185,343
537,1	1174,486
537,6	1155,057
538	1137,629
538,5	1126,486
538,9	1112,657
539,4	1101,714
539,8	1093,543
540,3	1086,229
540,7	1077,8
541,2	1062,4
541,6	1048,829
542,1	1038,771
542,5	1022,057
543	1011
543,4	989,429
543,9	978,086
544,3	972,714
544,8	960,543
545,2	948,943
545,7	936,743
546,1	926,943
546,5	925,143
547	915,743
547,4	902,914
547,9	893,486
548,3	883,629
548,8	875,171
549,2	864,971
549,7	855,771
550,1	849,2
550,6	842,371
551	833,086
551,5	823,171
551,9	816
552,4	807,371
552,8	795,057
553,3	782
553,7	772,314
554,2	766,857
554,6	760,086
555,1	750,857
555,5	743,543
555,9	739
556,4	734,629
556,8	727,657
557,3	720,857
557,7	715,629
558,2	708,514
558,6	705,086
559,1	695,657
559,5	684,8
560	675,171
560,4	669,571
560,9	660,229
561,3	654,543
561,8	643,029
562,2	641,143
562,7	634,743
563,1	633,8
563,6	628,143
564	626,657
564,4	621,6
564,9	619,543
565,3	613,143
565,8	609,057
566,2	602,371
566,7	596,314
567,1	595,943
567,6	592,657
568	587,743
568,5	585,971
568,9	581,229
569,4	578,2
569,8	575
570,3	566,514
570,7	554,943
571,1	552,629
571,6	546,343
572	546,314
572,5	544,714
572,9	540,229
573,4	535,8
573,8	541,514
574,3	531,914
574,7	526,8
575,2	523,8
575,6	514,257
576,1	510,429
576,5	509,2
576,9	501,657
577,4	498,857
577,8	497,6
578,3	491,143
578,7	487,086
579,2	484,886
579,6	479,886
580,1	471,2
580,5	468,4
581	461,543
581,4	459,686
581,9	457,086
582,3	450,629
582,7	447,514
583,2	449,114
583,6	448,143
584,1	449,314
584,5	447,829
585	446,086
585,4	439
585,9	432,171
586,3	434,057
586,8	431,629
587,2	423,886
587,6	418,829
588,1	418,686
588,5	418,886
589	418,8
589,4	409,4
589,9	408,543
590,3	408,029
590,8	404,2
591,2	400,686
591,7	402,143
592,1	399,143
592,5	406,314
593	399,171
593,4	392,514
593,9	385,514
594,3	384,543
594,8	377,514
595,2	377,314
595,7	368
596,1	369,743
596,6	370,286
597	371,971
597,4	367,2
597,9	362,514
598,3	358,629
598,8	355,229
599,2	349,229
599,7	347,857
600,1	342,4
600,6	339,314
601	342,457
601,4	347,4
601,9	351,657
602,3	348,514
602,8	347
603,2	347,629
603,7	344,771
604,1	342,143
604,6	335,257
605	323,343
605,4	323,429
605,9	316,343
606,3	308,457
606,8	303,314
607,2	299,971
607,7	293,857
608,1	299,743
608,6	300,229
609	308,771
609,4	315,343
609,9	317,229
610,3	315,686
610,8	317,086
611,2	312,229
611,7	304,543
612,1	297,514
612,6	296,543
613	299,371
613,4	300,114
613,9	296,571
614,3	295,914
614,8	297,286
615,2	292,2
615,7	287,857
616,1	281,429
616,6	274,8
617	269,714
617,4	272,571
617,9	274,514
618,3	274,914
618,8	277,914
619,2	278,914
619,7	281,086
620,1	279,486
620,5	275,743
621	271,457
621,4	273,514
621,9	267,429
622,3	262,029
622,8	262,8
623,2	264,486
623,6	258,086
624,1	257,314
624,5	253,8
625	259,6
625,4	261
625,9	257,971
626,3	254,686
626,8	256,6
627,2	259,114
627,6	250,343
628,1	240,886
628,5	243,771
629	239,486
629,4	243
629,9	240,429
630,3	231,229
630,7	238,114
631,2	242,629
631,6	236,171
632,1	236,514
632,5	234,086
633	233,886
633,4	234,429
633,8	230,343
634,3	225,229
634,7	225,371
635,2	221,543
635,6	221,114
636,1	219,371
636,5	215,857
636,9	212,857
637,4	211,029
637,8	202,143
638,3	197,543
638,7	196,029
639,2	188,029
639,6	191,514
640	191,971
640,5	192,886
640,9	196,257
641,4	201,686
641,8	199,286
642,2	205,171
642,7	207,657
643,1	211,086
643,6	208,057
644	208,686
644,5	209,514
644,9	207,429
645,3	204,571
645,8	195,6
646,2	192,6
646,7	191,914
647,1	186,429
647,6	183,543
648	185
648,4	183,4
648,9	184,571
649,3	179,514
649,8	175,743
650,2	180,857
650,6	181,114
651,1	179,057
651,5	180,857
652	178,571
652,4	176,886
652,9	178,943
653,3	174,657
653,7	168,171
654,2	167,286
654,6	164,171
655,1	169,143
655,5	174,143
655,9	173,914
656,4	175,343
656,8	177,571
657,3	175,629
657,7	175,971
658,2	173
658,6	169,486
659	167,943
659,5	161,371
659,9	159,857
660,4	162,057
660,8	155,943
661,2	151,086
661,7	149,4
662,1	146,514
662,6	152,657
663	151,086
663,4	145,657
663,9	147,029
664,3	147,571
664,8	144,8
665,2	141,229
665,6	134,971
666,1	138,114
666,5	138,743
667	138,457
667,4	136,514
667,9	137,286
668,3	139,143
668,7	137,6
669,2	136,4
669,6	135,486
670,1	137,514
670,5	137,2
670,9	136,886
671,4	136,343
671,8	141,257
672,3	140,829
672,7	141,343
673,1	135,886
673,6	133,571
674	138,343
674,5	136,114
674,9	130,543
675,3	125,086
675,8	125,629
676,2	128,457
676,7	131,857
677,1	125,486
677,5	125,114
678	127,4
678,4	126,771
678,9	124,257
679,3	122,286
679,7	120,371
680,2	114,629
680,6	112,857
681,1	114,114
681,5	118,6
681,9	119,486
682,4	119,314
682,8	119,857
683,3	128,686
683,7	132,257
684,1	128,457
684,6	125,086
685	121,514
685,5	120,971
685,9	113,657
686,3	106,714
686,8	102,714
687,2	104,6
687,7	100,971
688,1	97,8
688,5	94,8
689	102,914
689,4	102,343
689,9	99,771
690,3	94,4
690,7	95,571
691,2	99,4
691,6	102,8
692	95,4
692,5	94,6
692,9	97,571
693,4	95,057
693,8	92,657
694,2	89,143
694,7	85,171
695,1	86,714
695,6	88,429
696	87,6
696,4	91,657
696,9	88,514
697,3	85,943
697,8	84,543
698,2	80,114
698,6	81,429
699,1	83,971
699,5	87,029
699,9	87,286
700,4	85,686
700,8	86,657
701,3	89,143
701,7	83,629
702,1	81,543
702,6	75,343
703	76,629
703,5	78,8
703,9	78
704,3	82,429
704,8	80,943
705,2	78,943
705,6	80,943
706,1	82,171
706,5	81,629
707	83
707,4	80,714
707,8	82,629
708,3	84,629
708,7	78,657
709,2	77,229
709,6	79,2
710	83,486
710,5	78,2
710,9	79,4
711,3	76,771
711,8	84
712,2	83,629
712,7	77,429
713,1	73,571
713,5	80,429
714	81,4
714,4	77,971
714,8	72,629
715,3	71,457
715,7	74
716,2	67,8
716,6	64,371
717	59,8
717,5	62,314
717,9	69,2
718,3	69,914
718,8	69,371
719,2	70,457
719,7	66,629
720,1	74,657
720,5	75,571
721	69,057
721,4	69,486
721,8	72,429
722,3	70,886
722,7	75,257
723,2	64,829
723,6	58,343
724	58,886
724,5	56,771
724,9	54,229
725,3	52,886
725,8	48,571
726,2	50,314
726,7	53,943
727,1	51,971
727,5	51,971
728	46,4
728,4	51,829
728,8	50,429
729,3	49,457
729,7	46,429
730,1	48,257
730,6	47,829
731	51,343
731,5	48,543
731,9	49,686
732,3	50,2
732,8	52,714
733,2	52,429
733,6	53,486
734,1	52,171
734,5	49,2
734,9	48,571
735,4	52,486
735,8	46,486
736,3	48,6
736,7	48,057
737,1	49,143
737,6	50,829
738	51,543
738,4	44,714
738,9	50,771
739,3	44,314
739,7	39,114
740,2	34,943
740,6	37,371
741,1	40,229
741,5	39,514
741,9	38,429
742,4	42,171
742,8	45,857
743,2	47,343
743,7	42,086
744,1	35,971
744,5	34,8
745	33,571
745,4	32,057
745,8	29,971
746,3	29,314
746,7	29
747,2	29,057
747,6	37,829
748	42,714
748,5	46,514
748,9	45,286
749,3	47,371
749,8	48,914
750,2	51,4
750,6	44,486
751,1	41,114
751,5	37,086
751,9	39,429
752,4	38,829
752,8	39
753,3	39
753,7	43,771
754,1	42,314
754,6	39,771
755	38,743
755,4	38,714
755,9	38,057
756,3	34,371
756,7	32,771
757,2	36,829
757,6	41,914
758	44,2
758,5	43,543
758,9	43,457
759,3	45,657
759,8	42
760,2	37,543
760,6	35,4
761,1	29,686
761,5	31,257
761,9	30,314
762,4	28,286
762,8	26,686
763,3	26,857
763,7	24,829
764,1	29,886
764,6	29,457
765	33,314
765,4	35,314
765,9	38,286
766,3	40,514
766,7	41,686
767,2	42,457
767,6	43,457
768	40,943
768,5	39,943
768,9	41,457
769,3	39,114
769,8	34,343
770,2	32,686
770,6	28,886
771,1	31,886
771,5	34,429
771,9	34,514
772,4	35,371
772,8	37,4
773,2	34,2
773,7	37,686
774,1	35,629
774,5	26,314
775	23
775,4	20,543
775,8	19,571
776,3	22,257
776,7	21,343
777,1	20,829
777,6	29,314
778	33,514
778,4	32,914
778,9	34,314
779,3	33,543
779,7	32,486
780,2	32,686
780,6	28,6
781	28,8
781,5	28,543
781,9	29,629
782,3	27,857
782,8	31,714
783,2	27
783,6	32,343
784,1	26,2
784,5	27,686
784,9	24,629
785,4	28,8
785,8	24,371
786,2	25,829
786,7	26,4
787,1	28,971
787,5	27,829
788	29,743
788,4	27,143
788,8	24,543
789,3	27,971
789,7	26,457
790,1	25,257
790,6	28,629
791	25,743
791,4	30,657
791,9	27,943
792,3	22,229
792,7	24,086
793,2	23,457
793,6	21,143
794	23,6
794,5	14,057
794,9	18,8
795,3	24,029
795,8	18,943
796,2	20,429
796,6	21,571
797,1	21,143
797,5	22,486
797,9	23,086
798,4	19
798,8	17,371
799,2	11,4
799,7	14,714
800,1	12,429
800,5	14
801	15,429
801,4	14,171
801,8	13,429
802,2	20,286
802,7	9,8
803,1	12,886
803,5	12,286
804	6,857
804,4	10,8
804,8	15,171
805,3	12,314
805,7	16,371
806,1	12,086
806,6	14,657
807	17,371
807,4	12,514
807,9	6,571
808,3	8,771
808,7	11,8
809,2	18,6
809,6	20,086
810	19,771
810,4	26,371
810,9	29,8
811,3	30,286
811,7	27
812,2	27,743
812,6	22,486
813	24,657
813,5	21,657
813,9	20,829
814,3	19,086
814,8	19,514
815,2	10,314
815,6	12,743
816,1	12,229
816,5	11,743
816,9	14,857
817,3	14,971
817,8	18,914
818,2	24,514
818,6	21,114
819,1	21,457
819,5	18,771
819,9	15,4
820,4	15,629
820,8	9,657
821,2	7,571
821,7	12,2
822,1	15,286
822,5	22,229
822,9	24,4
823,4	19,743
823,8	25,4
824,2	27,971
824,7	21,343
825,1	11,743
825,5	7,2
826	0,114
826,4	1,257
826,8	-0,086
827,3	2,371
827,7	6,686
828,1	13,457
828,5	14,286
829	15,057
829,4	16,143
829,8	7,857
830,3	4,914
830,7	1,971
831,1	-0,857
831,6	-0,343
832	3,829
832,4	6,343
832,8	12,457
833,3	12,457
833,7	13,314
834,1	13,286
834,6	9,571
835	11,343
835,4	12,286
835,8	7,971
836,3	2,914
836,7	3,229
837,1	6,286
837,6	10,771
838	8,286
838,4	7,4
838,9	10,457
839,3	14,114
839,7	18,486
840,1	15,657
840,6	11,629
841	12,343
841,4	8,543
841,9	9,057
842,3	8,057
842,7	5,114
843,1	0,8
843,6	1,057
844	1,343
844,4	10,429
844,9	12,2
845,3	13,914
845,7	14,143
846,2	16,314
846,6	16
847	18,429
847,4	10,914
847,9	7,086
848,3	6,743
848,7	3,629
849,2	10,6
849,6	7,771
850	10,457
850,4	12,457
850,9	17,029
851,3	17,486
851,7	22,8
852,2	15,371
852,6	22
853	17,057
853,4	15,286
853,9	9,686
854,3	9,2
854,7	9,2
855,2	8,143
855,6	5,943
856	1,314
856,4	3,286
856,9	5,086
857,3	4,8
857,7	8,943
858,2	17,714
858,6	16,457
859	17,829
859,4	16
859,9	14,343
860,3	10,543
860,7	4,629
861,1	4,543
861,6	6,914
862	8,286
862,4	8,629
862,9	10
863,3	13,657
863,7	10,971
864,1	9,629
864,6	7,971
865	11,771
865,4	11,486
865,9	13,686
866,3	13,229
866,7	14,829
867,1	11,543
867,6	14,686
868	7,457
868,4	2,943
868,8	2,686
869,3	2,286
869,7	7
870,1	3,8
870,6	-1,771
871	-53,486
871,4	-44,943
871,8	-48,486
872,3	-47,943
872,7	-50,457
873,1	-48,743
873,5	-46,457
874	11,314
874,4	9,8
874,8	7,771
875,3	5,114
875,7	4,743
876,1	6,486
876,5	5,514
877	1,343
877,4	-3,343
877,8	2,629
878,2	7,743
878,7	8,6
879,1	6,714
879,5	9,486
879,9	12,571
880,4	15,086
880,8	11,857
881,2	7,514
881,7	4,171
882,1	9,857
882,5	9,657
882,9	9,114
883,4	6,029
883,8	11,771
884,2	14,943
884,6	14
885,1	7,2
885,5	5,057
885,9	1,943
886,3	4,771
886,8	0,171
887,2	-6,057
887,6	-6,371
888	-3,143
888,5	-2,057
888,9	-1,314
889,3	-6,286
889,8	-6,571
890,2	-2,914
890,6	-4,486
891	-6,057
891,5	-10,543
891,9	-6,829
892,3	-3
892,7	-2,629
893,2	-3,2
893,6	0,629
894	0,743
894,4	2,857
894,9	3,257
895,3	3,743
895,7	4,8
896,1	5,257
896,6	5,886
897	9,229
897,4	16,143
897,8	17,371
898,3	20,857
898,7	16,057
899,1	12,2
899,5	9,514
900	0,143
900,4	-6,657
900,8	-12,257
901,2	-15,286
901,7	-12,714
902,1	-7,4
902,5	-1,8
902,9	1,2
903,4	4,2
903,8	6,2
904,2	7
904,6	6,771
905,1	6,6
905,5	1,743
905,9	7,743
906,3	9,8
906,8	12,886
907,2	12,2
907,6	14,971
908	17,2
908,5	17,029
908,9	8,8
909,3	4,714
909,7	0,857
910,2	0,457
910,6	3,086
911	-2,429
911,4	-2,286
911,9	1,171
912,3	6,6
912,7	9,057
913,1	9,314
913,6	5,029
914	7,543
914,4	9,114
914,8	11,143
915,3	5,086
915,7	4,6
916,1	5,971
916,5	9,057
916,9	10,2
917,4	12,086
917,8	14,229
918,2	10,514
918,6	11,571
919,1	11,257
919,5	11,714
919,9	9,886
920,3	4,571
920,8	1,4
921,2	5,057
921,6	-0,6
922	-5,714
922,5	-5,8
922,9	-2,486
923,3	-1,714
923,7	-1,086
924,2	-5,886
924,6	-1,943
925	3,257
925,4	-1
925,8	-6,486
926,3	-4,143
926,7	-9,057
927,1	-5
927,5	-5,629
928	-8,686
928,4	-8,371
928,8	-4,114
929,2	-4
929,7	1,629
930,1	5,229
930,5	6,343
930,9	10,857
931,3	10,771
931,8	9,657
932,2	8,457
932,6	4,486
933	-0,914
933,5	-1,257
933,9	-4,171
934,3	-2,486
934,7	-4,743
935,2	-1,686
935,6	-0,457
936	4,457
936,4	8,571
936,8	10,257
937,3	11,971
937,7	16,029
938,1	15,943
938,5	14,429
939	12,286
939,4	3,714
939,8	2,143
940,2	-2,457
940,6	-2,943
941,1	-7,571
941,5	-3,971
941,9	-6,457
942,3	-5,971
942,8	-4,343
943,2	-1,8
943,6	-3,229
944	-1,457
944,4	-0,086
944,9	-0,114
945,3	3,114
945,7	-1,829
946,1	-2,743
946,6	-4,086
947	-7,943
947,4	-4,4
947,8	-1,057
948,2	0,829
948,7	6,343
949,1	7,886
949,5	12,114
949,9	14,886
950,3	10,914
950,8	14,886
951,2	11,229
951,6	6,514
952	6,657
952,5	1,143
952,9	3,4
953,3	-0,914
953,7	-6,571
954,1	-1,886
954,6	0,543
955	0
955,4	-3,829
955,8	-3,486
956,2	-1,029
956,7	0,486
957,1	-6,114
957,5	-3,286
957,9	-2,971
958,3	1,2
958,8	2,143
959,2	7,714
959,6	10,571
960	13,029
960,5	15,229
960,9	15,743
961,3	16,857
961,7	15,6
962,1	10,857
962,6	9,486
963	11,8
963,4	1,114
963,8	1,743
964,2	2,257
964,7	3,343
965,1	6,771
965,5	4,743
965,9	0,714
966,3	5,8
966,8	3,629
967,2	2,457
967,6	2,4
968	-4,2
968,4	-4,029
968,9	-1,543
969,3	1,571
969,7	1,6
970,1	7,2
970,5	1,914
971	6,743
971,4	7,371
971,8	6,029
972,2	5,429
972,6	5,257
973,1	-0,286
973,5	5,686
973,9	5,686
974,3	6,429
974,7	12,457
975,2	11,629
975,6	11,114
976	15,314
976,4	7,486
976,8	7,714
977,3	4,829
977,7	-2,343
978,1	-1,914
978,5	-6,343
978,9	-12,629
979,4	-10,229
979,8	-11,914
980,2	-9,514
980,6	-8,343
981	-6,286
981,5	-1
981,9	1,029
982,3	1,143
982,7	2,171
983,1	-0,686
983,6	4,4
984	2,343
984,4	0,886
984,8	0,8
985,2	2,2
985,6	-2,914
986,1	0,914
986,5	-3,543
986,9	-9,2
987,3	-3,943
987,7	-2,657
988,2	-1,457
988,6	2,314
989	-2,429
989,4	-7,8
989,8	-4,343
990,3	-7,943
990,7	-9,143
991,1	-9,829
991,5	-6,8
991,9	-0,371
992,3	5,4
992,8	7,371
993,2	4,6
993,6	9,086
994	11
994,4	9,914
994,9	6,914
995,3	9,571
995,7	4,743
996,1	6,629
996,5	4,171
996,9	-0,4
997,4	0,143
997,8	-5,057
998,2	-10,886
998,6	-13,371
999	-15,914
999,5	-15,629
999,9	-14,143
1000,3	-17,314
1000,7	-11,714
1001,1	-7,486
1001,5	-0,143
1002	4,143
1002,4	4,257
1002,8	4,057
1003,2	6,286
1003,6	6,2
1004	9,314
1004,5	5,029
1004,9	4,486
1005,3	0,857
1005,7	2,629
1006,1	0,229
1006,6	-3,886
1007	-7,029
1007,4	-5,286
1007,8	-10,4
1008,2	-9,429
1008,6	-7,114
1009,1	-6,857
1009,5	-0,6
1009,9	-0,514
1010,3	0,943
1010,7	6,571
1011,1	6,543
1011,6	1,629
1012	3,086
1012,4	-0,914
1012,8	-2,571
1013,2	2,171
1013,6	0,486
1014,1	-2,057
1014,5	1
1014,9	-1,286
1015,3	-1,171
1015,7	0,8
1016,1	-6,286
1016,6	-9
1017	-3,943
1017,4	-5,714
1017,8	-6,829
1018,2	-3,914
1018,6	-10,686
1019,1	-8,714
1019,5	-6,314
1019,9	-9,343
1020,3	-7,429
1020,7	-5,429
1021,1	-9,886
1021,6	-7,6
1022	-6,914
1022,4	-6,629
1022,8	-2,857
1023,2	-3,229
1023,6	-3,543
1024,1	0,457
1024,5	4,686
1024,9	1
1025,3	1,343
1025,7	-1,029
1026,1	1,914
1026,6	4,657
1027	1,714
1027,4	3,829
1027,8	5
1028,2	3,486
1028,6	4,714
1029	1,457
1029,5	4,457
1029,9	4,714
1030,3	1,857
1030,7	1,457
1031,1	9,4
1031,5	4,171
1032	2,143
1032,4	1,171
1032,8	7
1033,2	10,914
1033,6	9,943
1034	4,371
1034,4	5,086
1034,9	9,8
1035,3	1,8
1035,7	-3,257
1036,1	-7,371
1036,5	-3,657
1036,9	-4,571
1037,4	2,686
1037,8	-3
1038,2	1,286
1038,6	3,743
1039	8,914
1039,4	9,6
1039,8	7,657
1040,3	8,429
1040,7	11,429
1041,1	12,143
1041,5	8,314
1041,9	6,143
1042,3	4,543
1042,7	9,057
1043,2	5,143
1043,6	2,429
1044	0,6
1044,4	2,629
1044,8	1,657
1045,2	0,371
1045,6	-1,543
1046,1	-3
1046,5	-2,029
1046,9	-4,657
1047,3	-2,314
1047,7	-3,6
1048,1	-3,486
1048,5	-4,943
1049	-2,029
1049,4	2
1049,8	2,6
1050,2	1,886
1050,6	0,343
1051	1,771
1051,4	3,143
1051,9	-0,743
1052,3	3,371
1052,7	5,857
1053,1	-1,914
1053,5	-0,371
1053,9	0,629
1054,3	1,886
1054,8	8,743
1055,2	2,543
1055,6	1,886
1056	6,286
1056,4	4,771
1056,8	5,629
1057,2	3,714
1057,6	-0,371
1058,1	-3,886
1058,5	-5
1058,9	1,486
1059,3	5,429
1059,7	1,857
1060,1	4,714
1060,5	2,486
1061	8,829
1061,4	7,829
1061,8	3,743
1062,2	4,457
1062,6	7
1063	5,914
1063,4	8,086
1063,8	7,714
1064,3	11,4
1064,7	12,743
1065,1	7,314
1065,5	4,371
1065,9	3,343
1066,3	0,314
1066,7	-1,114
1067,1	-3,857
1067,6	-0,914
1068	-2,771
1068,4	0,143
1068,8	2,886
1069,2	2,2
1069,6	1,371
1070	8,057
1070,4	4,4
1070,9	3,857
1071,3	5,971
1071,7	1
1072,1	3,8
1072,5	1,286
1072,9	-5,229
1073,3	-5,514
1073,7	-4,6
1074,2	-6,857
1074,6	-4,143
1075	-6,629
1075,4	-5,257
1075,8	-0,4
1076,2	0,171
1076,6	2,229
1077	2,029
1077,5	5,057
1077,9	6,914
1078,3	5
1078,7	5,086
1079,1	4,257
1079,5	4,257
1079,9	3,457
1080,3	0,457
1080,7	-0,143
1081,2	10
1081,6	5,086
1082	3,143
1082,4	7,314
1082,8	7,543
1083,2	6,457
1083,6	7
1084	0,229
1084,5	3,543
1084,9	3,914
1085,3	-1,857
1085,7	-3,029
1086,1	-3,029
1086,5	-0,4
1086,9	-0,657
1087,3	-2,143
1087,7	-3,429
1088,2	0,086
1088,6	5,457
1089	9,857
1089,4	8,486
1089,8	9,371
1090,2	8,543
1090,6	10,086
1091	10
1091,4	7,743
1091,9	3,686
1092,3	7,486
1092,7	7,371
1093,1	11,057
1093,5	9,429
1093,9	9,371
1094,3	10,714
1094,7	10,114
1095,1	8
1095,5	6,543
1096	1,514
1096,4	3,2
1096,8	2,314
1097,2	-0,257
1097,6	4,943
1098	2,486
1098,4	5,486
1098,8	8,714
1099,2	14,314
1099,6	13,914
1100,1	10
1100,5	3,2
1100,9	4,571
1101,3	3,143
1101,7	2,886
1102,1	-3,286
1102,5	0,829
1102,9	3,429
1103,3	9,629
1103,7	9,771
1104,2	7,457
1104,6	7,257
1105	6,057
1105,4	1,4
1105,8	1,571
1106,2	-3,086
1106,6	-4,057
1107	-2,486
1107,4	-3,6
1107,8	-1,12
1108,3	0,3
