Data from Subt2_292.txt Node
Date: Sat Aug 26 19:10:48 MSK 2023
User: vat
Spectrometer: MAYP114033
Trigger mode: 0
Integration Time (sec): 1,000000E0
Scans to average: 5
Electric dark correction enabled: true
Nonlinearity correction enabled: false
Boxcar width: 3
XAxis mode: Wavelengths
Number of Pixels in Spectrum: 2068
>>>>>Begin Spectral Data<<<<<
199,4	-0,15
199,9	4,1
200,4	3,3
200,8	4,9
201,3	3,529
201,8	6,929
202,2	3,5
202,7	8,1
203,2	5,129
203,6	5,443
204,1	4,043
204,6	3,1
205	0,586
205,5	2,443
206	-1,329
206,4	-3,357
206,9	-1,843
207,4	-0,157
207,8	4,186
208,3	4,786
208,8	7,3
209,2	9,929
209,7	12,529
210,2	12,157
210,6	12,843
211,1	15,586
211,5	13,671
212	13,386
212,5	8,729
212,9	7,129
213,4	6,986
213,9	2,186
214,3	-1,757
214,8	-0,129
215,3	-4,386
215,7	2,014
216,2	7,014
216,7	7,929
217,1	8,529
217,6	7,129
218,1	9,386
218,5	10,186
219	4,671
219,5	1,643
219,9	-2,443
220,4	6,871
220,9	10,843
221,3	5,157
221,8	8,643
222,3	10,414
222,7	12,871
223,2	13,043
223,6	3,814
224,1	3,986
224,6	6,843
225	6,843
225,5	5,843
226	3,957
226,4	7,871
226,9	11,414
227,4	11,443
227,8	5,386
228,3	4,443
228,8	5,214
229,2	6,557
229,7	2,214
230,2	1,157
230,6	0,643
231,1	13,871
231,5	15,614
232	10,386
232,5	7,329
232,9	10,614
233,4	13,671
233,9	10,386
234,3	3,814
234,8	1,9
235,3	8,929
235,7	12,614
236,2	12,3
236,7	7,757
237,1	12,7
237,6	9,9
238,1	10,957
238,5	2,186
239	0,757
239,4	2,014
239,9	4,586
240,4	4,529
240,8	8,671
241,3	5,529
241,8	11,843
242,2	10,7
242,7	7,329
243,2	3,529
243,6	-1,529
244,1	2,471
244,6	5,357
245	4,529
245,5	5,157
245,9	5,071
246,4	7,214
246,9	10,157
247,3	2,929
247,8	4,9
248,3	7,243
248,7	7,586
249,2	12,271
249,7	13,843
250,1	16,814
250,6	17,386
251	17,529
251,5	17,557
252	18,586
252,4	21,729
252,9	16,957
253,4	6,757
253,8	11,071
254,3	10,7
254,8	11,729
255,2	7,271
255,7	2,586
256,1	5,357
256,6	11,957
257,1	15,157
257,5	10,414
258	4,929
258,5	8,1
258,9	7,729
259,4	8,157
259,9	12,043
260,3	7,014
260,8	8,357
261,2	9,643
261,7	12,7
262,2	11,214
262,6	11,014
263,1	9,014
263,6	7,443
264	12,729
264,5	19,957
264,9	15,7
265,4	20,471
265,9	20,3
266,3	17,3
266,8	20,757
267,3	19,586
267,7	12,471
268,2	16,271
268,7	11,357
269,1	10,186
269,6	8,843
270	6,929
270,5	2,614
271	4,586
271,4	1,271
271,9	-1,443
272,4	3,871
272,8	3,671
273,3	1,929
273,7	5,957
274,2	7,643
274,7	8,357
275,1	10,243
275,6	8,7
276,1	7,243
276,5	14,129
277	13,957
277,4	11,586
277,9	15,7
278,4	17,929
278,8	19,671
279,3	23,357
279,8	18,529
280,2	20,471
280,7	21,414
281,1	16,786
281,6	16,786
282,1	11,443
282,5	12,386
283	13,357
283,4	8,9
283,9	11,243
284,4	17,271
284,8	17,757
285,3	18,9
285,8	19,586
286,2	15,243
286,7	16,386
287,1	14,757
287,6	8,014
288,1	5,614
288,5	6,214
289	1,1
289,5	5,586
289,9	5,757
290,4	4,614
290,8	4,157
291,3	6,443
291,8	7,729
292,2	10,414
292,7	9,986
293,1	7,386
293,6	9,357
294,1	10,529
294,5	9,3
295	9,9
295,5	8,014
295,9	6,814
296,4	8,557
296,8	5,471
297,3	5,071
297,8	0,5
298,2	-1,329
298,7	4,871
299,1	5,5
299,6	1,357
300,1	6,3
300,5	10,271
301	19,557
301,5	23,3
301,9	19,471
302,4	16,071
302,8	16,929
303,3	13,614
303,8	7,9
304,2	2,529
304,7	0,614
305,1	-5,529
305,6	0,529
306,1	7,586
306,5	8,9
307	11,071
307,4	17,357
307,9	17,043
308,4	24,414
308,8	17,757
309,3	14,957
309,8	11,786
310,2	12,614
310,7	6,243
311,1	3,071
311,6	1,386
312,1	5,671
312,5	6,557
313	10,957
313,4	9,529
313,9	9,3
314,4	10,5
314,8	9,043
315,3	9,357
315,7	6,3
316,2	0,9
316,7	-1,014
317,1	7,786
317,6	8,386
318	12,3
318,5	8,986
319	9,386
319,4	13,786
319,9	21,871
320,3	12,957
320,8	14,7
321,3	14,329
321,7	15,557
322,2	14,843
322,6	15,643
323,1	10,786
323,6	9,443
324	5,186
324,5	0,443
324,9	1,786
325,4	5,929
325,9	8,757
326,3	6,957
326,8	12,843
327,2	9,929
327,7	14,586
328,2	12,386
328,6	12,586
329,1	5,1
329,5	9,5
330	4,843
330,5	11,5
330,9	13,529
331,4	13,157
331,8	7,786
332,3	15,186
332,8	12,043
333,2	11,071
333,7	11,214
334,1	8,986
334,6	7,243
335,1	7,329
335,5	5,671
336	6,043
336,4	11,671
336,9	17,186
337,4	19,757
337,8	23,986
338,3	27,614
338,7	28,843
339,2	23,871
339,7	26,329
340,1	20,043
340,6	18,7
341	13,7
341,5	10,271
342	3,3
342,4	5,186
342,9	-0,529
343,3	3,071
343,8	0,757
344,2	7,1
344,7	14,786
345,2	14,843
345,6	19,3
346,1	22,386
346,5	15,471
347	10,729
347,5	8,643
347,9	7,214
348,4	7,729
348,8	8,643
349,3	8,9
349,8	15,786
350,2	23,729
350,7	24,1
351,1	20,814
351,6	28,357
352	31,729
352,5	33,986
353	38,9
353,4	45,557
353,9	59,014
354,3	72,786
354,8	79,814
355,3	96,871
355,7	114,529
356,2	134,414
356,6	154,814
357,1	175,929
357,5	202,243
358	239,386
358,5	272,386
358,9	317,757
359,4	361,3
359,8	417,043
360,3	483,1
360,8	554,243
361,2	635,071
361,7	725,214
362,1	820,843
362,6	930,557
363	1042,414
363,5	1155,071
364	1286,957
364,4	1411,471
364,9	1532,757
365,3	1657,529
365,8	1774,357
366,3	1885,757
366,7	1990,929
367,2	2067,757
367,6	2133,157
368,1	2193,729
368,5	2220,271
369	2235,3
369,5	2237,3
369,9	2217,157
370,4	2183,071
370,8	2134,329
371,3	2067,671
371,7	2003,129
372,2	1918,557
372,7	1823,443
373,1	1727,643
373,6	1628,671
374	1534,5
374,5	1434,157
374,9	1331,957
375,4	1239,586
375,9	1147,071
376,3	1064,014
376,8	979,643
377,2	898,1
377,7	821,757
378,2	752,786
378,6	689,071
379,1	633,757
379,5	580,843
380	534,614
380,4	492,814
380,9	453,586
381,4	418,129
381,8	390,843
382,3	368,357
382,7	344,071
383,2	322,329
383,6	302,9
384,1	290,071
384,6	276,3
385	254,614
385,5	234,729
385,9	216,014
386,4	203,129
386,8	187,1
387,3	170,243
387,7	156,043
388,2	147,9
388,7	138,957
389,1	130,043
389,6	120,529
390	117,414
390,5	114,129
390,9	110,271
391,4	104,814
391,9	98,3
392,3	93,9
392,8	88,243
393,2	74,386
393,7	70,871
394,1	59,871
394,6	52,3
395,1	46,471
395,5	45,329
396	48,957
396,4	53,471
396,9	51,814
397,3	61,729
397,8	66,9
398,2	67,814
398,7	63,3
399,2	62,529
399,6	60,386
400,1	57,243
400,5	50,814
401	48,1
401,4	46,357
401,9	46,614
402,4	41,614
402,8	39,843
403,3	43,786
403,7	42,757
404,2	44,071
404,6	46,843
405,1	47,414
405,5	45,043
406	45,014
406,5	39,186
406,9	42,157
407,4	37,014
407,8	36,843
408,3	36,5
408,7	38,014
409,2	43,643
409,6	49,3
410,1	51,843
410,6	59,7
411	62,386
411,5	64,843
411,9	69,5
412,4	70,443
412,8	72,957
413,3	69,729
413,7	70,357
414,2	69,014
414,7	73,157
415,1	79,586
415,6	80,929
416	83,529
416,5	88,957
416,9	87,786
417,4	92,7
417,8	94,014
418,3	91,586
418,8	94,129
419,2	95,386
419,7	95,529
420,1	98,786
420,6	101,786
421	99,843
421,5	97,271
421,9	99,243
422,4	97,843
422,8	101,129
423,3	100,986
423,8	94,271
424,2	93,3
424,7	95,986
425,1	95,957
425,6	95,843
426	94,9
426,5	96,843
426,9	103,586
427,4	106,643
427,9	106,786
428,3	109,214
428,8	106,186
429,2	103,843
429,7	101,271
430,1	97,586
430,6	97,471
431	97,186
431,5	96,243
431,9	98,414
432,4	102,929
432,8	108,7
433,3	111,1
433,8	111,814
434,2	120,614
434,7	122,386
435,1	125,929
435,6	125,586
436	125,614
436,5	133,557
436,9	135,329
437,4	132,871
437,8	134,729
438,3	142,186
438,8	150,043
439,2	152,243
439,7	155,043
440,1	163,214
440,6	175,1
441	177,986
441,5	183,014
441,9	191,643
442,4	199,214
442,8	204,357
443,3	212,271
443,7	217,586
444,2	231,9
444,7	237,929
445,1	245,843
445,6	259,329
446	269,1
446,5	276,929
446,9	280,557
447,4	289,214
447,8	300,443
448,3	314,814
448,7	325,186
449,2	338,357
449,6	349,843
450,1	365,5
450,6	381,5
451	397,757
451,5	409,586
451,9	428,443
452,4	448,386
452,8	466,471
453,3	487,386
453,7	502,271
454,2	523,843
454,6	541,5
455,1	555,471
455,5	568,614
456	590,071
456,4	603,071
456,9	625,729
457,3	637,214
457,8	649,786
458,3	675,014
458,7	696,871
459,2	716,443
459,6	739,9
460,1	757,643
460,5	784,071
461	818,814
461,4	837,757
461,9	858,586
462,3	882,529
462,8	910,7
463,2	936,643
463,7	962,614
464,1	982,843
464,6	1013,843
465	1044,757
465,5	1077,271
466	1103,671
466,4	1130,357
466,9	1160,043
467,3	1189,471
467,8	1216,271
468,2	1246,243
468,7	1271,014
469,1	1303,1
469,6	1339,586
470	1372,5
470,5	1402,843
470,9	1428,443
471,4	1456,414
471,8	1485,757
472,3	1512,929
472,7	1540,414
473,2	1563,014
473,6	1590,929
474,1	1623,043
474,5	1653,043
475	1678,243
475,4	1709,729
475,9	1740,529
476,4	1768,3
476,8	1795,786
477,3	1823,043
477,7	1854,271
478,2	1889,643
478,6	1912,957
479,1	1939,186
479,5	1970,357
480	1999,843
480,4	2028,786
480,9	2050,5
481,3	2073,614
481,8	2106,357
482,2	2120,129
482,7	2144,814
483,1	2165,071
483,6	2183,986
484	2207,843
484,5	2230,386
484,9	2239,071
485,4	2264,986
485,8	2285,986
486,3	2308,271
486,7	2330,3
487,2	2344,957
487,6	2360,786
488,1	2383,929
488,5	2400,329
489	2414,243
489,4	2434,614
489,9	2445,043
490,4	2460,529
490,8	2476,471
491,3	2491,014
491,7	2502,414
492,2	2517,1
492,6	2525,129
493,1	2538,757
493,5	2547,129
494	2551,7
494,4	2556,386
494,9	2565,7
495,3	2573,614
495,8	2577,071
496,2	2585,471
496,7	2585,671
497,1	2599,5
497,6	2603,9
498	2609,643
498,5	2616,471
498,9	2617,557
499,4	2618,3
499,8	2632,443
500,3	2635,671
500,7	2641,471
501,2	2642,157
501,6	2635,414
502,1	2641,7
502,5	2652,157
503	2655,643
503,4	2655,157
503,9	2654,071
504,3	2657,729
504,8	2663,386
505,2	2664,729
505,7	2660,471
506,1	2667,557
506,6	2662,814
507	2667,614
507,5	2666,586
507,9	2658,757
508,4	2656,129
508,8	2654,214
509,3	2642,786
509,7	2647,814
510,2	2647,557
510,6	2646,043
511,1	2651,157
511,5	2653,729
512	2648,071
512,4	2647,214
512,9	2648,271
513,3	2644,329
513,8	2648,7
514,2	2649,671
514,7	2643,557
515,1	2643,386
515,6	2642,471
516	2631,7
516,5	2634,014
516,9	2627,929
517,4	2627,871
517,8	2630,986
518,3	2635,757
518,7	2634,214
519,2	2638,7
519,6	2633,329
520,1	2635,643
520,5	2627,643
521	2621,3
521,4	2619,014
521,9	2619,329
522,3	2612,443
522,8	2608,957
523,2	2605,957
523,7	2610,557
524,1	2614,957
524,6	2607,786
525	2606,786
525,5	2609,186
525,9	2618,043
526,4	2610,7
526,8	2606,043
527,3	2607,957
527,7	2616,7
528,2	2617,614
528,6	2613,843
529,1	2610,529
529,5	2623,329
530	2628,1
530,4	2626,157
530,9	2621,757
531,3	2620,957
531,8	2625,5
532,2	2627,843
532,6	2620,471
533,1	2621,329
533,5	2622,3
534	2619,529
534,4	2622,043
534,9	2622,3
535,3	2618,414
535,8	2622,5
536,2	2627,929
536,7	2631,243
537,1	2637,129
537,6	2641,986
538	2646,271
538,5	2654,529
538,9	2659,386
539,4	2655,643
539,8	2656,357
540,3	2661,386
540,7	2661,071
541,2	2662,614
541,6	2664,243
542,1	2662,386
542,5	2669,986
543	2669,414
543,4	2662,986
543,9	2664,7
544,3	2671,9
544,8	2665,271
545,2	2667,729
545,7	2669,129
546,1	2677,043
546,5	2686,271
547	2690,729
547,4	2688,271
547,9	2697,414
548,3	2702,357
548,8	2702,7
549,2	2702,129
549,7	2704,414
550,1	2711,557
550,6	2719,5
551	2727,7
551,5	2732,929
551,9	2737,071
552,4	2742,129
552,8	2749,043
553,3	2748,7
553,7	2744,957
554,2	2745,471
554,6	2748,386
555,1	2753,357
555,5	2754,071
555,9	2756,386
556,4	2754,271
556,8	2752,643
557,3	2749,529
557,7	2749,986
558,2	2745,3
558,6	2751,786
559,1	2750,043
559,5	2754,014
560	2760,786
560,4	2771,1
560,9	2769,5
561,3	2774,3
561,8	2768,243
562,2	2776,957
562,7	2781,957
563,1	2796,443
563,6	2790,957
564	2798,986
564,4	2806,614
564,9	2817,014
565,3	2815,7
565,8	2812,386
566,2	2809,186
566,7	2819,957
567,1	2819,757
567,6	2816,471
568	2812,414
568,5	2812,786
568,9	2813,786
569,4	2806,586
569,8	2801,786
570,3	2801,557
570,7	2797,443
571,1	2801,271
571,6	2802,871
572	2813,9
572,5	2815,929
572,9	2815,757
573,4	2814,9
573,8	2822,357
574,3	2817,786
574,7	2813,957
575,2	2803,129
575,6	2803,586
576,1	2803,929
576,5	2809,1
576,9	2800,071
577,4	2796,443
577,8	2789,3
578,3	2790,986
578,7	2786,814
579,2	2783,329
579,6	2774,671
580,1	2772,557
580,5	2775,814
581	2781,243
581,4	2775,7
581,9	2775,5
582,3	2771,729
582,7	2769,557
583,2	2767,043
583,6	2762,814
584,1	2756,7
584,5	2751,814
585	2749,614
585,4	2739,471
585,9	2728,957
586,3	2725,729
586,8	2719,671
587,2	2715,014
587,6	2712,414
588,1	2705,386
588,5	2705,443
589	2706,443
589,4	2700,186
589,9	2692,1
590,3	2688,129
590,8	2684,443
591,2	2679,043
591,7	2682,3
592,1	2676,586
592,5	2676,329
593	2673,729
593,4	2671,729
593,9	2664,557
594,3	2661,3
594,8	2647,614
595,2	2642,414
595,7	2638,329
596,1	2636,871
596,6	2628,1
597	2623,557
597,4	2618,786
597,9	2621,843
598,3	2624,871
598,8	2625,357
599,2	2616,957
599,7	2612,929
600,1	2604,614
600,6	2593,471
601	2582,614
601,4	2575,786
601,9	2566,9
602,3	2564,5
602,8	2560,329
603,2	2557,986
603,7	2555,357
604,1	2551,357
604,6	2539,329
605	2528,129
605,4	2521,329
605,9	2513,1
606,3	2505,014
606,8	2498,786
607,2	2486,014
607,7	2480,414
608,1	2480,271
608,6	2474,957
609	2472,643
609,4	2471,671
609,9	2463,386
610,3	2461,071
610,8	2450,614
611,2	2437,5
611,7	2428,871
612,1	2415,757
612,6	2408,329
613	2407,129
613,4	2402,586
613,9	2396,643
614,3	2385,871
614,8	2376,643
615,2	2368,557
615,7	2360,043
616,1	2355,786
616,6	2341,471
617	2339,529
617,4	2332,5
617,9	2326,9
618,3	2323,157
618,8	2314,643
619,2	2300,614
619,7	2297,957
620,1	2285,014
620,5	2281,414
621	2275,186
621,4	2265,357
621,9	2253,871
622,3	2246,871
622,8	2234,643
623,2	2220,329
623,6	2212,871
624,1	2201,529
624,5	2190,5
625	2189,757
625,4	2178,071
625,9	2175,129
626,3	2169,5
626,8	2155,386
627,2	2145,129
627,6	2131,9
628,1	2111,7
628,5	2102,757
629	2086,186
629,4	2080,814
629,9	2071,014
630,3	2059,586
630,7	2052,329
631,2	2044,1
631,6	2030,357
632,1	2018,671
632,5	2004,557
633	2000,986
633,4	1992,643
633,8	1986,586
634,3	1978,557
634,7	1968,271
635,2	1959,786
635,6	1953,443
636,1	1938,957
636,5	1928,5
636,9	1912,643
637,4	1901,443
637,8	1895,443
638,3	1888,386
638,7	1875,7
639,2	1868,1
639,6	1860,071
640	1855,214
640,5	1849,129
640,9	1835,814
641,4	1824,271
641,8	1823,614
642,2	1811,929
642,7	1805,186
643,1	1802,414
643,6	1790,957
644	1788,614
644,5	1780,957
644,9	1768,414
645,3	1762,071
645,8	1751,386
646,2	1740,1
646,7	1734,129
647,1	1719,386
647,6	1713,414
648	1708,214
648,4	1697,986
648,9	1693,643
649,3	1678,786
649,8	1673,357
650,2	1668,529
650,6	1658,014
651,1	1642,443
651,5	1636,443
652	1622,329
652,4	1619,014
652,9	1607,871
653,3	1599,814
653,7	1592,357
654,2	1584,671
654,6	1572,671
655,1	1570,329
655,5	1564,443
655,9	1558,986
656,4	1552,843
656,8	1543,614
657,3	1538,3
657,7	1536,443
658,2	1523,957
658,6	1509,9
659	1501,3
659,5	1495,929
659,9	1489,471
660,4	1481,557
660,8	1469,1
661,2	1461,1
661,7	1456,871
662,1	1443,214
662,6	1428,843
663	1421,757
663,4	1409,871
663,9	1398,786
664,3	1392,214
664,8	1380,071
665,2	1369,843
665,6	1362,471
666,1	1351,786
666,5	1345,9
667	1340,243
667,4	1327,186
667,9	1320,9
668,3	1314,957
668,7	1302,043
669,2	1297,871
669,6	1290,186
670,1	1283,843
670,5	1279,9
670,9	1273,871
671,4	1266,871
671,8	1265,729
672,3	1259,7
672,7	1252,157
673,1	1240,9
673,6	1233,243
674	1231,129
674,5	1220,786
674,9	1212,186
675,3	1201,271
675,8	1196,043
676,2	1191,443
676,7	1183,9
677,1	1168,929
677,5	1163,757
678	1158,471
678,4	1152,471
678,9	1143,3
679,3	1138,471
679,7	1130,871
680,2	1121,557
680,6	1108,957
681,1	1098,843
681,5	1090,786
681,9	1088,214
682,4	1080,329
682,8	1073,5
683,3	1074,529
683,7	1079,157
684,1	1077,186
684,6	1070,414
685	1053,929
685,5	1046,357
685,9	1041,329
686,3	1031,214
686,8	1019,071
687,2	1013,671
687,7	1008,729
688,1	1004,129
688,5	995,529
689	989,186
689,4	984,586
689,9	979,843
690,3	969,1
690,7	961,471
691,2	966,043
691,6	964,471
692	957,443
692,5	949,757
692,9	944,357
693,4	938,9
693,8	929,529
694,2	915,443
694,7	907,386
695,1	904,014
695,6	898,129
696	896,071
696,4	891,043
696,9	888,443
697,3	883,214
697,8	879,214
698,2	872,071
698,6	866,729
699,1	862,814
699,5	859,357
699,9	857,014
700,4	851,443
700,8	845,843
701,3	838,214
701,7	833,1
702,1	824,843
702,6	815,271
703	807,243
703,5	802,7
703,9	797,186
704,3	794,043
704,8	787,471
705,2	781,271
705,6	781,471
706,1	777,043
706,5	771,7
707	768,071
707,4	765,757
707,8	757,957
708,3	756,443
708,7	753,557
709,2	750,014
709,6	743,129
710	740,186
710,5	730,157
710,9	730,9
711,3	723,043
711,8	719,329
712,2	715,843
712,7	714,786
713,1	713,986
713,5	714,757
714	710,7
714,4	699,671
714,8	690,329
715,3	682,729
715,7	679,614
716,2	669,9
716,6	668,214
717	661,5
717,5	661,643
717,9	660,729
718,3	658,529
718,8	653,5
719,2	646,957
719,7	635,671
720,1	633,5
720,5	633,557
721	623,214
721,4	616,186
721,8	617,3
722,3	611,614
722,7	615,186
723,2	605,071
723,6	593,757
724	589,129
724,5	583,471
724,9	573,757
725,3	574,3
725,8	562,443
726,2	563,329
726,7	563,043
727,1	561,043
727,5	560,671
728	552,243
728,4	544,386
728,8	544,9
729,3	541,443
729,7	531,129
730,1	531,471
730,6	526,214
731	526,529
731,5	526,671
731,9	516,271
732,3	510,5
732,8	515,443
733,2	512,1
733,6	509,214
734,1	506,671
734,5	505,814
734,9	510,243
735,4	511,757
735,8	506,671
736,3	504,157
736,7	501,614
737,1	498,157
737,6	490,671
738	485,957
738,4	481,414
738,9	479,814
739,3	472,729
739,7	470,329
740,2	466,614
740,6	468,986
741,1	466,357
741,5	461,871
741,9	461,1
742,4	463,957
742,8	463,071
743,2	461,7
743,7	450,814
744,1	445,243
744,5	442,843
745	432,443
745,4	426,414
745,8	423,757
746,3	421,443
746,7	423,014
747,2	423,9
747,6	428,5
748	436,243
748,5	434,814
748,9	428,614
749,3	423,929
749,8	419,3
750,2	416,557
750,6	407,986
751,1	402,129
751,5	397,757
751,9	403,386
752,4	404,386
752,8	405,129
753,3	401,014
753,7	399,9
754,1	395,329
754,6	393,786
755	382,957
755,4	376,357
755,9	376,414
756,3	374,871
756,7	371,814
757,2	372,129
757,6	371,014
758	372,157
758,5	369,443
758,9	363,529
759,3	361,671
759,8	360,729
760,2	358,414
760,6	352,5
761,1	348,529
761,5	350,443
761,9	345,3
762,4	340,729
762,8	338,471
763,3	330,586
763,7	329,557
764,1	326,929
764,6	323,414
765	329,186
765,4	328,786
765,9	330,357
766,3	334,186
766,7	329,671
767,2	326,1
767,6	325,7
768	318,786
768,5	315,814
768,9	309,557
769,3	305,071
769,8	304,443
770,2	307,614
770,6	300,671
771,1	301,557
771,5	303,471
771,9	299,786
772,4	303,757
772,8	301,157
773,2	299,414
773,7	300,271
774,1	296,157
774,5	285,786
775	285,014
775,4	277,929
775,8	278,786
776,3	273,7
776,7	272,3
777,1	271,586
777,6	275,443
778	277,186
778,4	276,1
778,9	274,9
779,3	273,443
779,7	275,129
780,2	271,957
780,6	269,357
781	262,557
781,5	259,5
781,9	259,186
782,3	253,3
782,8	250,786
783,2	249,5
783,6	249,614
784,1	248,043
784,5	243,271
784,9	237,843
785,4	240,129
785,8	239,271
786,2	238,871
786,7	235,386
787,1	234,814
787,5	237,643
788	236,957
788,4	237,757
788,8	231,471
789,3	226,614
789,7	227,186
790,1	224,814
790,6	223,586
791	220,271
791,4	221,414
791,9	224,1
792,3	221,243
792,7	222,986
793,2	219,329
793,6	216,643
794	219,071
794,5	209,871
794,9	206,071
795,3	210,129
795,8	201,129
796,2	202,214
796,6	203,986
797,1	199,557
797,5	197,214
797,9	191,986
798,4	187,871
798,8	188,871
799,2	186,014
799,7	183,214
800,1	183,529
800,5	188,957
801	194,3
801,4	188,786
801,8	187,729
802,2	188,014
802,7	184,3
803,1	185,986
803,5	183,329
804	181,643
804,4	181,814
804,8	182,786
805,3	180,214
805,7	179,7
806,1	176,071
806,6	177,843
807	176,129
807,4	174,157
807,9	166,186
808,3	168,9
808,7	170,729
809,2	171,957
809,6	168,386
810	162,129
810,4	165,386
810,9	167,414
811,3	164,671
811,7	158,871
812,2	163,157
812,6	159,443
813	163,3
813,5	160,529
813,9	160,329
814,3	156,986
814,8	157,557
815,2	148,414
815,6	146,529
816,1	148,7
816,5	146,786
816,9	148,757
817,3	148,614
817,8	149,5
818,2	152,786
818,6	152,871
819,1	148,471
819,5	147,929
819,9	144,471
820,4	144,071
820,8	140,5
821,2	129,986
821,7	128,786
822,1	129,157
822,5	131,557
822,9	133,443
823,4	132,643
823,8	136,1
824,2	142,443
824,7	138,186
825,1	130,757
825,5	123,186
826	115,443
826,4	113,386
826,8	105,786
827,3	104,214
827,7	105,7
828,1	110,443
828,5	115,729
829	113,871
829,4	113,386
829,8	113,329
830,3	112,243
830,7	112,243
831,1	112,671
831,6	109,5
832	112,329
832,4	110,557
832,8	113,271
833,3	112,443
833,7	108,871
834,1	102,586
834,6	100,671
835	99,271
835,4	101,786
835,8	95,414
836,3	90,9
836,7	94,5
837,1	98,586
837,6	103,814
838	103,214
838,4	99,271
838,9	101,071
839,3	100,843
839,7	97,043
840,1	89,643
840,6	83,843
841	83,957
841,4	84,357
841,9	85,529
842,3	85,443
842,7	85,443
843,1	86,643
843,6	86,557
844	86,729
844,4	90,529
844,9	93,071
845,3	94,443
845,7	91,957
846,2	92,5
846,6	92,214
847	94,3
847,4	93,5
847,9	91,814
848,3	90,071
848,7	92,243
849,2	92,129
849,6	85,871
850	85,214
850,4	83,7
850,9	81,614
851,3	81,929
851,7	81,786
852,2	79,443
852,6	87,9
853	89,129
853,4	86,9
853,9	83,271
854,3	81,186
854,7	82,357
855,2	80,9
855,6	77,386
856	70,671
856,4	66,614
856,9	69,357
857,3	71,814
857,7	71,243
858,2	76,043
858,6	73,643
859	78,814
859,4	79,5
859,9	75,957
860,3	69,529
860,7	68,1
861,1	65,357
861,6	66,129
862	60,986
862,4	59,586
862,9	59,357
863,3	63,129
863,7	64,014
864,1	62,5
864,6	66,443
865	67,129
865,4	68,329
865,9	71,557
866,3	66,186
866,7	63,871
867,1	65,671
867,6	63,386
868	61,7
868,4	63,129
868,8	63,271
869,3	65,729
869,7	68,671
870,1	66,7
870,6	59,871
871	6,1
871,4	9,157
871,8	7,243
872,3	11,557
872,7	3,7
873,1	4,357
873,5	5,529
874	57,5
874,4	48,186
874,8	45,9
875,3	42,729
875,7	41,214
876,1	40,7
876,5	41,329
877	43,186
877,4	43,986
877,8	45,386
878,2	46,957
878,7	54,7
879,1	53,586
879,5	55,129
879,9	54,814
880,4	55,586
880,8	53,643
881,2	49,986
881,7	45,557
882,1	42,929
882,5	39,7
882,9	38,614
883,4	36,929
883,8	39,014
884,2	38,529
884,6	39,243
885,1	42,529
885,5	45,243
885,9	42,757
886,3	45,529
886,8	41,671
887,2	41,014
887,6	43,243
888	40,929
888,5	36,671
888,9	37,757
889,3	32,271
889,8	31,357
890,2	33,043
890,6	29,643
891	29,757
891,5	31,471
891,9	30,043
892,3	31,843
892,7	30,643
893,2	32,614
893,6	32,814
894	34,043
894,4	31,014
894,9	32,814
895,3	35,814
895,7	42,814
896,1	36,5
896,6	34,814
897	36,014
897,4	44,214
897,8	42,014
898,3	40,529
898,7	31,957
899,1	34,271
899,5	34,929
900	29,443
900,4	21,529
900,8	23,386
901,2	21,814
901,7	23,9
902,1	24,7
902,5	27,786
902,9	28,843
903,4	33,729
903,8	32,557
904,2	31,357
904,6	33,129
905,1	35,329
905,5	30,043
905,9	34,9
906,3	35,329
906,8	38,414
907,2	41,5
907,6	44,271
908	43,671
908,5	40,071
908,9	35,814
909,3	32,729
909,7	29,186
910,2	24,9
910,6	24,471
911	16,929
911,4	22,929
911,9	21,529
912,3	21,7
912,7	26,757
913,1	28,786
913,6	22,5
914	27,071
914,4	23,843
914,8	24,386
915,3	17,5
915,7	14,729
916,1	14,214
916,5	15,986
916,9	14,643
917,4	17,386
917,8	18,729
918,2	21,671
918,6	14,814
919,1	17,014
919,5	22,329
919,9	23,871
920,3	22,957
920,8	22,814
921,2	25,5
921,6	30,271
922	30,186
922,5	23,671
922,9	19,7
923,3	14,957
923,7	12,243
924,2	12,871
924,6	14,871
925	14,557
925,4	13,557
925,8	16,529
926,3	17,157
926,7	16,529
927,1	15,071
927,5	14,129
928	9,186
928,4	10,386
928,8	12,186
929,2	13,9
929,7	16,986
930,1	17,9
930,5	16,186
930,9	21,3
931,3	21,243
931,8	18,129
932,2	19,014
932,6	16,271
933	10,243
933,5	12,271
933,9	12,986
934,3	16,014
934,7	14,443
935,2	16,557
935,6	17,471
936	22,014
936,4	22,671
936,8	21,929
937,3	19,671
937,7	25,1
938,1	24,243
938,5	22,557
939	25,1
939,4	22,157
939,8	22,814
940,2	23,271
940,6	25,157
941,1	22,957
941,5	27,757
941,9	25,471
942,3	24,557
942,8	24,3
943,2	22,271
943,6	14,157
944	15,7
944,4	14,1
944,9	11,929
945,3	13,414
945,7	6,757
946,1	4,843
946,6	4,014
947	2,929
947,4	5,386
947,8	7,386
948,2	4,043
948,7	9,586
949,1	11,186
949,5	20,786
949,9	20,129
950,3	17,757
950,8	16,129
951,2	15,7
951,6	12,986
952	18,157
952,5	8,757
952,9	11,186
953,3	11,157
953,7	10,557
954,1	16,3
954,6	17,243
955	18,014
955,4	21,443
955,8	20,9
956,2	17,271
956,7	19,386
957,1	15,243
957,5	17,043
957,9	12,843
958,3	13,3
958,8	11,471
959,2	15,957
959,6	18,414
960	14,471
960,5	15,757
960,9	19,071
961,3	17,271
961,7	19,129
962,1	19,186
962,6	17,443
963	21,129
963,4	14,929
963,8	16,986
964,2	17,014
964,7	16,957
965,1	17,357
965,5	16,471
965,9	17,157
966,3	23,071
966,8	17,471
967,2	20,529
967,6	16,843
968	12,7
968,4	12,871
968,9	15,243
969,3	18,014
969,7	13,9
970,1	14,529
970,5	15,443
971	19,386
971,4	16,214
971,8	17,186
972,2	11,043
972,6	13,871
973,1	11,557
973,5	13,986
973,9	11,986
974,3	14,386
974,7	16,614
975,2	19,214
975,6	17,129
976	16,929
976,4	12,5
976,8	13,643
977,3	13,386
977,7	10,9
978,1	9,871
978,5	9,5
978,9	7,243
979,4	11,071
979,8	11,214
980,2	10,529
980,6	5,529
981	10,043
981,5	14,414
981,9	14,414
982,3	14,1
982,7	15,9
983,1	14,557
983,6	21,814
984	19,7
984,4	23,3
984,8	23,7
985,2	24,186
985,6	17,043
986,1	21,214
986,5	15,557
986,9	10,871
987,3	10,3
987,7	14,414
988,2	10,1
988,6	16,557
989	13,986
989,4	14,757
989,8	16,643
990,3	12,471
990,7	8,214
991,1	12,186
991,5	9,9
991,9	14,071
992,3	15,443
992,8	16,071
993,2	13,671
993,6	16,757
994	16,729
994,4	20,729
994,9	17,957
995,3	16,271
995,7	16,071
996,1	13,243
996,5	13,9
996,9	8,671
997,4	3,929
997,8	-1,9
998,2	-3,414
998,6	-4,671
999	2,386
999,5	2,729
999,9	7,671
1000,3	8,5
1000,7	14,729
1001,1	16,214
1001,5	17,357
1002	18,871
1002,4	15,071
1002,8	15,357
1003,2	17,843
1003,6	22,586
1004	25,271
1004,5	21,643
1004,9	22,957
1005,3	21,243
1005,7	22,557
1006,1	16,814
1006,6	13,729
1007	15,014
1007,4	14,729
1007,8	11,5
1008,2	8,871
1008,6	12,5
1009,1	14,3
1009,5	10,786
1009,9	8,957
1010,3	10,814
1010,7	5,871
1011,1	10,529
1011,6	6,157
1012	8,329
1012,4	9,729
1012,8	7,529
1013,2	13,871
1013,6	17,443
1014,1	16,5
1014,5	17,3
1014,9	16,471
1015,3	15,786
1015,7	15,186
1016,1	9,614
1016,6	12,1
1017	14,157
1017,4	9,729
1017,8	8,186
1018,2	12,529
1018,6	9,414
1019,1	9,586
1019,5	8,5
1019,9	5,471
1020,3	8,414
1020,7	9,586
1021,1	5,957
1021,6	10,671
1022	13,214
1022,4	14,243
1022,8	17,3
1023,2	18,157
1023,6	20,7
1024,1	25,129
1024,5	26,243
1024,9	21,043
1025,3	18,586
1025,7	18,843
1026,1	18,329
1026,6	18,7
1027	10,614
1027,4	9,557
1027,8	14,614
1028,2	14,214
1028,6	16,129
1029	16,3
1029,5	13,157
1029,9	13,243
1030,3	11,071
1030,7	13,129
1031,1	13,986
1031,5	9,9
1032	8,357
1032,4	8,814
1032,8	16,5
1033,2	20,757
1033,6	14,386
1034	18,386
1034,4	18,386
1034,9	21,871
1035,3	18,643
1035,7	15,757
1036,1	13,243
1036,5	14,5
1036,9	12,586
1037,4	16,757
1037,8	11,386
1038,2	8,529
1038,6	11,986
1039	19,3
1039,4	26,929
1039,8	25,414
1040,3	21,386
1040,7	25,9
1041,1	32,7
1041,5	30,614
1041,9	25,186
1042,3	17,729
1042,7	18,729
1043,2	18,443
1043,6	13,757
1044	13,757
1044,4	11,071
1044,8	12,014
1045,2	14,557
1045,6	14,843
1046,1	14,729
1046,5	16,271
1046,9	11,271
1047,3	14,786
1047,7	11,957
1048,1	6,5
1048,5	3,329
1049	7,871
1049,4	13,014
1049,8	17,129
1050,2	14,614
1050,6	17,729
1051	25,843
1051,4	24,843
1051,9	21,786
1052,3	25,357
1052,7	25,529
1053,1	22,014
1053,5	21,529
1053,9	16,3
1054,3	19,529
1054,8	28,386
1055,2	26,329
1055,6	24,586
1056	23,5
1056,4	21,357
1056,8	22,929
1057,2	23,529
1057,6	13,729
1058,1	11,043
1058,5	9,071
1058,9	15,843
1059,3	16,214
1059,7	17,329
1060,1	16,757
1060,5	16,186
1061	15,414
1061,4	19,357
1061,8	20,471
1062,2	20,329
1062,6	20,071
1063	20,043
1063,4	24,243
1063,8	19,129
1064,3	16,586
1064,7	12,729
1065,1	9,529
1065,5	5,071
1065,9	4,043
1066,3	1,5
1066,7	1,757
1067,1	-0,757
1067,6	-1,871
1068	-3,243
1068,4	3,386
1068,8	7,786
1069,2	8,271
1069,6	10,557
1070	14,329
1070,4	16,186
1070,9	16,414
1071,3	12,3
1071,7	2,986
1072,1	1,443
1072,5	2,443
1072,9	0,186
1073,3	-1,386
1073,7	-0,643
1074,2	1,186
1074,6	4,671
1075	8,1
1075,4	10,186
1075,8	14,586
1076,2	13,586
1076,6	15,271
1077	13,329
1077,5	17,386
1077,9	10,271
1078,3	7,243
1078,7	3,414
1079,1	5,414
1079,5	9,814
1079,9	9,786
1080,3	7,214
1080,7	9,329
1081,2	11,814
1081,6	10,557
1082	10,243
1082,4	10,557
1082,8	13,586
1083,2	13,329
1083,6	14,071
1084	13,271
1084,5	20,9
1084,9	19,186
1085,3	13,929
1085,7	9,186
1086,1	7,586
1086,5	13,386
1086,9	13,929
1087,3	9,471
1087,7	7,957
1088,2	9,014
1088,6	11,414
1089	14,671
1089,4	9,5
1089,8	10,586
1090,2	9,529
1090,6	11,871
1091	14,186
1091,4	14,043
1091,9	13,157
1092,3	15,986
1092,7	11,129
1093,1	13,271
1093,5	12,529
1093,9	9,186
1094,3	9,957
1094,7	6,986
1095,1	10,5
1095,5	12,929
1096	10,957
1096,4	11,671
1096,8	13,529
1097,2	13,043
1097,6	14,586
1098	11,986
1098,4	14,871
1098,8	14,929
1099,2	20,043
1099,6	20,729
1100,1	19,671
1100,5	19,957
1100,9	17,9
1101,3	16,614
1101,7	14,129
1102,1	9,071
1102,5	6,386
1102,9	9,157
1103,3	11,671
1103,7	11,586
1104,2	9,529
1104,6	11,214
1105	9,414
1105,4	11,157
1105,8	7,157
1106,2	3,729
1106,6	2,357
1107	1,471
1107,4	1,333
1107,8	2,62
1108,3	-0,2
