Data from Subt2_163.txt Node
Date: Sat Aug 26 18:34:23 MSK 2023
User: vat
Spectrometer: MAYP114033
Trigger mode: 0
Integration Time (sec): 1,000000E0
Scans to average: 5
Electric dark correction enabled: true
Nonlinearity correction enabled: false
Boxcar width: 3
XAxis mode: Wavelengths
Number of Pixels in Spectrum: 2068
>>>>>Begin Spectral Data<<<<<
199,4	0,717
199,9	1,807
200,4	-2
200,8	0,024
201,3	-3,433
201,8	-2,348
202,2	-5,862
202,7	-2,605
203,2	-4,005
203,6	-4,462
204,1	-9,262
204,6	-5,948
205	-4,662
205,5	0,31
206	-1,319
206,4	0,852
206,9	1,395
207,4	6,767
207,8	6,91
208,3	2,081
208,8	0,395
209,2	-0,919
209,7	-1,49
210,2	1,367
210,6	-0,176
211,1	0,652
211,5	-1,29
212	-1,033
212,5	-1,433
212,9	-1,262
213,4	-0,09
213,9	-2,062
214,3	-4,49
214,8	2,281
215,3	-0,633
215,7	2,481
216,2	4,024
216,7	5,31
217,1	7,052
217,6	13,081
218,1	9,652
218,5	9,738
219	0,195
219,5	-3,205
219,9	-8,948
220,4	-1,719
220,9	-6,348
221,3	-9,49
221,8	-7,148
222,3	-2,29
222,7	-0,776
223,2	3,052
223,6	-8,948
224,1	-14,519
224,6	-11,262
225	-12,348
225,5	-9,776
226	-8,719
226,4	-7,319
226,9	-5,862
227,4	-0,148
227,8	-6,49
228,3	-6,605
228,8	-6,519
229,2	-6,633
229,7	-7,776
230,2	-4,605
230,6	-3,062
231,1	7,167
231,5	5,995
232	6,51
232,5	2,538
232,9	4,11
233,4	5,481
233,9	2,338
234,3	-1,433
234,8	0,91
235,3	-1,433
235,7	4,824
236,2	6,252
236,7	3,367
237,1	7,424
237,6	7,681
238,1	3,567
238,5	3,31
239	-2,919
239,4	-6,89
239,9	-6,605
240,4	-9,319
240,8	-5,376
241,3	-5,148
241,8	-5,233
242,2	-1,405
242,7	-1,805
243,2	-1,548
243,6	-3,29
244,1	-3,348
244,6	2,91
245	5,538
245,5	-0,49
245,9	-1,376
246,4	-1,176
246,9	-0,376
247,3	-2,776
247,8	-4,862
248,3	-5,49
248,7	-0,319
249,2	1,052
249,7	1,338
250,1	5,224
250,6	7,195
251	7,681
251,5	6,624
252	4,138
252,4	4,481
252,9	4,824
253,4	-1,033
253,8	-2,29
254,3	-0,719
254,8	-1,89
255,2	-1,49
255,7	-1,776
256,1	-2,833
256,6	-0,776
257,1	-1,919
257,5	-3,948
258	-3,576
258,5	-4,405
258,9	-6,233
259,4	-5,919
259,9	-3,748
260,3	-5,548
260,8	-9,519
261,2	-6,833
261,7	-4,09
262,2	-6,033
262,6	-3,376
263,1	-1,89
263,6	-0,919
264	5,938
264,5	6,338
264,9	5,795
265,4	12,395
265,9	8,567
266,3	5,938
266,8	8,967
267,3	5,852
267,7	3,367
268,2	0,224
268,7	-2,605
269,1	-2,29
269,6	-4,49
270	-1,062
270,5	-2,033
271	-1,433
271,4	-0,89
271,9	-6,062
272,4	0,367
272,8	3,538
273,3	-3,89
273,7	-6,49
274,2	-5,462
274,7	-8,09
275,1	0,51
275,6	-7,748
276,1	-9,948
276,5	-6,148
277	-2,748
277,4	-4,69
277,9	-0,062
278,4	-2,233
278,8	-0,376
279,3	1,31
279,8	0,538
280,2	1,138
280,7	3,024
281,1	-0,548
281,6	-3,233
282,1	-2,833
282,5	-2,89
283	-2,033
283,4	-3,319
283,9	-0,348
284,4	6,538
284,8	7,281
285,3	8,024
285,8	7,395
286,2	4,71
286,7	5,538
287,1	-0,005
287,6	-3,519
288,1	-4,89
288,5	-0,205
289	-0,205
289,5	-1,262
289,9	-0,776
290,4	0,881
290,8	2,967
291,3	4,481
291,8	3,11
292,2	3,052
292,7	5,881
293,1	2,795
293,6	1,881
294,1	-1,576
294,5	0,595
295	0,138
295,5	-2,033
295,9	0,681
296,4	0,567
296,8	1,967
297,3	-0,09
297,8	-5,976
298,2	-8,576
298,7	-4,405
299,1	-7,09
299,6	-2,719
300,1	0,881
300,5	8,595
301	16,138
301,5	17,167
301,9	16,795
302,4	13,681
302,8	11,281
303,3	2,767
303,8	-4,605
304,2	-7,433
304,7	-9,29
305,1	-15,748
305,6	-11,462
306,1	-1,205
306,5	2,91
307	10,681
307,4	12,252
307,9	13,652
308,4	17,024
308,8	9,824
309,3	1,881
309,8	4,31
310,2	0,652
310,7	-7,205
311,1	-6,49
311,6	-4,833
312,1	0,51
312,5	2,424
313	0,71
313,4	-1,29
313,9	1,338
314,4	0,338
314,8	-3,29
315,3	-6,89
315,7	-13,09
316,2	-14,433
316,7	-14,205
317,1	-9,605
317,6	-8,205
318	-2,062
318,5	0,024
319	-3,948
319,4	-2,719
319,9	6,138
320,3	8,91
320,8	7,252
321,3	6,71
321,7	8,367
322,2	15,252
322,6	16,31
323,1	7,995
323,6	4,024
324	4,224
324,5	-0,033
324,9	0,995
325,4	0,395
325,9	-0,89
326,3	0,024
326,8	-0,833
327,2	-3,233
327,7	-1,805
328,2	-4,776
328,6	-2,176
329,1	-5,376
329,5	-4,719
330	-3,976
330,5	1,538
330,9	4,424
331,4	8,195
331,8	5,195
332,3	10,881
332,8	15,052
333,2	13,852
333,7	10,71
334,1	11,452
334,6	7,338
335,1	7,31
335,5	8,824
336	4,167
336,4	6,167
336,9	11,424
337,4	9,881
337,8	10,938
338,3	13,681
338,7	11,395
339,2	8,481
339,7	8,452
340,1	-1,633
340,6	-4,49
341	-6,119
341,5	-10,005
342	-13,633
342,4	-15,205
342,9	-16,519
343,3	-12,548
343,8	-12,719
344,2	-7,919
344,7	-2,69
345,2	-0,662
345,6	2,024
346,1	2,624
346,5	0,995
347	0,51
347,5	-2,833
347,9	-0,69
348,4	1,167
348,8	4,224
349,3	6,91
349,8	7,195
350,2	13,681
350,7	12,338
351,1	10,481
351,6	14,51
352	12,71
352,5	11,052
353	19,052
353,4	19,738
353,9	29,624
354,3	33,481
354,8	34,51
355,3	48,195
355,7	62,081
356,2	73,224
356,6	89,11
357,1	107,967
357,5	128,052
358	152,595
358,5	170,767
358,9	199,881
359,4	235,195
359,8	271,738
360,3	309,11
360,8	350,452
361,2	399,195
361,7	460,91
362,1	522,652
362,6	587,167
363	655,424
363,5	729,195
364	816,481
364,4	899,738
364,9	981,538
365,3	1062,738
365,8	1136,338
366,3	1209,767
366,7	1271,081
367,2	1327,367
367,6	1373,195
368,1	1408,967
368,5	1428,252
369	1439,595
369,5	1441,938
369,9	1433,367
370,4	1412,824
370,8	1380,167
371,3	1338,395
371,7	1292,367
372,2	1235,424
372,7	1174,367
373,1	1113,338
373,6	1042,595
374	980,31
374,5	914,71
374,9	851,567
375,4	792,481
375,9	733,481
376,3	676,338
376,8	621,938
377,2	569,138
377,7	519,624
378,2	473,024
378,6	432,395
379,1	397,481
379,5	367,195
380	341,081
380,4	310,367
380,9	282,395
381,4	259,338
381,8	240,338
382,3	219,338
382,7	203,367
383,2	185,71
383,6	172,195
384,1	164,452
384,6	153,367
385	141,738
385,5	127,852
385,9	113,652
386,4	102,395
386,8	98,652
387,3	91,424
387,7	86,224
388,2	81,881
388,7	81,767
389,1	75,738
389,6	70,652
390	67,624
390,5	65,567
390,9	62,195
391,4	56,367
391,9	49,652
392,3	51,252
392,8	48,481
393,2	39,281
393,7	35,824
394,1	30,538
394,6	29,681
395,1	29,367
395,5	23,881
396	24,967
396,4	28,081
396,9	24,31
397,3	32,281
397,8	34,481
398,2	32,938
398,7	35,881
399,2	34,824
399,6	29,738
400,1	32,995
400,5	21,91
401	18,824
401,4	14,595
401,9	13,652
402,4	14,252
402,8	15,652
403,3	14,795
403,7	19,652
404,2	22,252
404,6	26,967
405,1	22,51
405,5	22,71
406	21,852
406,5	17,51
406,9	18,338
407,4	13,71
407,8	16,767
408,3	23,71
408,7	23,024
409,2	30,795
409,6	36,624
410,1	40,881
410,6	47,71
411	49,024
411,5	46,481
411,9	51,224
412,4	49,967
412,8	52,367
413,3	53,538
413,7	55,538
414,2	55,052
414,7	63,852
415,1	68,938
415,6	72,795
416	75,824
416,5	77,595
416,9	77,967
417,4	85,338
417,8	89,738
418,3	92,624
418,8	96,452
419,2	98,11
419,7	100,195
420,1	108,852
420,6	112,795
421	111,852
421,5	117,652
421,9	119,195
422,4	126,024
422,8	130,481
423,3	131,538
423,8	131,938
424,2	131,967
424,7	130,652
425,1	137,567
425,6	140,224
426	145,395
426,5	147,167
426,9	154,738
427,4	159,195
427,9	158,081
428,3	164,024
428,8	166,31
429,2	167,224
429,7	168,595
430,1	167,195
430,6	172,824
431	182,052
431,5	181,11
431,9	182,31
432,4	189,224
432,8	201,795
433,3	212,081
433,8	219,395
434,2	228,195
434,7	243,081
435,1	258,767
435,6	267,024
436	275,224
436,5	291,052
436,9	301,624
437,4	316,052
437,8	327,652
438,3	340,338
438,8	358,167
439,2	377,138
439,7	389,967
440,1	409,224
440,6	429,852
441	443,338
441,5	460,852
441,9	481,31
442,4	492,367
442,8	513,367
443,3	536,452
443,7	551,567
444,2	578,452
444,7	605,138
445,1	626,281
445,6	658,652
446	685,567
446,5	703,681
446,9	724,652
447,4	749,281
447,8	773,71
448,3	807,395
448,7	833,538
449,2	866,052
449,6	902,91
450,1	937,767
450,6	973,91
451	1006,252
451,5	1034,052
451,9	1072,252
452,4	1105,138
452,8	1140,71
453,3	1184,595
453,7	1213,481
454,2	1257,624
454,6	1299,195
455,1	1336,538
455,5	1369,11
456	1413,338
456,4	1445,595
456,9	1495,881
457,3	1534,852
457,8	1571,624
458,3	1614,281
458,7	1657,138
459,2	1699,824
459,6	1746,795
460,1	1784,395
460,5	1821,252
461	1872,281
461,4	1913,481
461,9	1962,51
462,3	2004,938
462,8	2048,767
463,2	2099,681
463,7	2156,995
464,1	2204,967
464,6	2257,967
465	2303,938
465,5	2350,852
466	2405,252
466,4	2446,624
466,9	2490,167
467,3	2532,081
467,8	2577,538
468,2	2626,024
468,7	2672,567
469,1	2719,681
469,6	2765,71
470	2811,71
470,5	2852,767
470,9	2896,281
471,4	2939,71
471,8	2984,538
472,3	3025,71
472,7	3071,367
473,2	3108,595
473,6	3155,624
474,1	3200,281
474,5	3236,338
475	3271,31
475,4	3309,567
475,9	3348,852
476,4	3388,881
476,8	3428,481
477,3	3461,424
477,7	3497,481
478,2	3532,681
478,6	3560,252
479,1	3593,338
479,5	3627,424
480	3649,567
480,4	3679,424
480,9	3708,481
481,3	3732,424
481,8	3759,71
482,2	3771,967
482,7	3789,852
483,1	3814,367
483,6	3828,795
484	3842,567
484,5	3864,995
484,9	3876,91
485,4	3896,167
485,8	3908,71
486,3	3919,91
486,7	3933,595
487,2	3945,967
487,6	3950,538
488,1	3958,052
488,5	3956,195
489	3963,395
489,4	3966,824
489,9	3966,881
490,4	3967,767
490,8	3969,51
491,3	3965,081
491,7	3970,71
492,2	3964,424
492,6	3959,91
493,1	3948,681
493,5	3933,195
494	3917,452
494,4	3913,967
494,9	3903,738
495,3	3892,024
495,8	3876,338
496,2	3867,681
496,7	3860,624
497,1	3859,31
497,6	3838,252
498	3824,624
498,5	3814,624
498,9	3798,252
499,4	3776,31
499,8	3757,052
500,3	3737,681
500,7	3720,367
501,2	3701,138
501,6	3671,252
502,1	3651,138
502,5	3636,652
503	3617,795
503,4	3589,052
503,9	3568,567
504,3	3542,652
504,8	3524,024
505,2	3501,567
505,7	3470,652
506,1	3452,452
506,6	3420,224
507	3396,852
507,5	3375,481
507,9	3343,995
508,4	3317,052
508,8	3286,652
509,3	3248,795
509,7	3229,167
510,2	3198,652
510,6	3157,024
511,1	3131,881
511,5	3100,71
512	3075,995
512,4	3054,11
512,9	3017,11
513,3	2984,167
513,8	2962,624
514,2	2935,367
514,7	2902,71
515,1	2872,767
515,6	2839,452
516	2812,967
516,5	2787,91
516,9	2760,224
517,4	2731,052
517,8	2707,452
518,3	2685,338
518,7	2653,252
519,2	2625,081
519,6	2593,481
520,1	2566,252
520,5	2534,395
521	2501,738
521,4	2465,624
521,9	2438,71
522,3	2410,995
522,8	2382,452
523,2	2351,71
523,7	2323,71
524,1	2292,881
524,6	2267,481
525	2242,367
525,5	2216,281
525,9	2189,224
526,4	2160,71
526,8	2131,338
527,3	2112,395
527,7	2090,195
528,2	2058,595
528,6	2032,538
529,1	2010,224
529,5	1992,424
530	1973,224
530,4	1950,881
530,9	1925,995
531,3	1908,31
531,8	1887,052
532,2	1867,738
532,6	1844,138
533,1	1817,167
533,5	1795,367
534	1773,081
534,4	1755,852
534,9	1737,195
535,3	1711,024
535,8	1685,452
536,2	1668,452
536,7	1651,338
537,1	1632,995
537,6	1611,452
538	1592,481
538,5	1579,795
538,9	1561,995
539,4	1545,224
539,8	1520,795
540,3	1505,367
540,7	1488,595
541,2	1466,024
541,6	1450,31
542,1	1436,824
542,5	1421,138
543	1402,881
543,4	1384,681
543,9	1370,51
544,3	1359,51
544,8	1339,967
545,2	1324,224
545,7	1314,51
546,1	1307,881
546,5	1294,081
547	1276,51
547,4	1265,71
547,9	1248,624
548,3	1235,824
548,8	1219,281
549,2	1202,31
549,7	1190,881
550,1	1185,252
550,6	1169,652
551	1165,738
551,5	1155,652
551,9	1143,338
552,4	1136,11
552,8	1121,681
553,3	1103,881
553,7	1093,852
554,2	1080,538
554,6	1069,024
555,1	1061,795
555,5	1045,51
555,9	1039,51
556,4	1030,224
556,8	1021,881
557,3	1011,367
557,7	1003,024
558,2	992,224
558,6	987,652
559,1	975,481
559,5	970,852
560	956,138
560,4	948,681
560,9	941,424
561,3	928,395
561,8	916,167
562,2	909,91
562,7	894,167
563,1	896,367
563,6	884,167
564	873,481
564,4	864,91
564,9	860,452
565,3	851,167
565,8	847,852
566,2	838,481
566,7	835,424
567,1	834,081
567,6	832,424
568	823,767
568,5	819,138
568,9	809,31
569,4	800,11
569,8	798,167
570,3	785,481
570,7	771,595
571,1	768,024
571,6	760,138
572	758,31
572,5	753,767
572,9	741,91
573,4	737,281
573,8	738,767
574,3	727,652
574,7	725,281
575,2	716,11
575,6	707,138
576,1	701,71
576,5	699,252
576,9	689,824
577,4	689,824
577,8	676,452
578,3	673,081
578,7	667,538
579,2	668,881
579,6	657,31
580,1	653,224
580,5	648,424
581	649,052
581,4	646,252
581,9	639,91
582,3	628,281
582,7	625,91
583,2	623,395
583,6	614,081
584,1	611,91
584,5	604,167
585	599,081
585,4	592,624
585,9	588,538
586,3	585,224
586,8	586,167
587,2	578,652
587,6	576,681
588,1	578,852
588,5	582,081
589	577,138
589,4	571,367
589,9	563,824
590,3	558,024
590,8	556,481
591,2	554,138
591,7	548,995
592,1	546,967
592,5	548,224
593	548,538
593,4	545,252
593,9	538,738
594,3	528,881
594,8	519,824
595,2	514,481
595,7	505,338
596,1	499,852
596,6	498,395
597	496,738
597,4	498,395
597,9	499,195
598,3	499,338
598,8	497,795
599,2	495,681
599,7	494,538
600,1	491,281
600,6	483,71
601	476,652
601,4	478,395
601,9	477,595
602,3	472,795
602,8	471,252
603,2	468,652
603,7	467,852
604,1	466,424
604,6	456,338
605	447,11
605,4	446,681
605,9	437,681
606,3	427,767
606,8	423,224
607,2	419,481
607,7	415,681
608,1	417,795
608,6	412,767
609	418,338
609,4	423,338
609,9	422,281
610,3	422,681
610,8	423,452
611,2	419,51
611,7	421,081
612,1	413,652
612,6	409,738
613	408,824
613,4	408,681
613,9	403,91
614,3	398,852
614,8	399,167
615,2	395,31
615,7	394,738
616,1	391,052
616,6	385,852
617	386,51
617,4	391,452
617,9	384,881
618,3	387,881
618,8	390,338
619,2	388,967
619,7	387,567
620,1	383,967
620,5	381,995
621	378,138
621,4	373,167
621,9	363,91
622,3	357,424
622,8	355,424
623,2	352,481
623,6	348,967
624,1	347,51
624,5	342,852
625	343,681
625,4	345,195
625,9	346,738
626,3	344,538
626,8	337,052
627,2	336,967
627,6	331,052
628,1	324,052
628,5	321,938
629	310,338
629,4	309,681
629,9	312,938
630,3	312,252
630,7	316,967
631,2	316,595
631,6	318,052
632,1	322,367
632,5	318,452
633	315,395
633,4	308,252
633,8	302,71
634,3	305,738
634,7	302,51
635,2	293,824
635,6	292,967
636,1	291,395
636,5	286,71
636,9	289,081
637,4	282,51
637,8	276,367
638,3	279,51
638,7	281,71
639,2	276,195
639,6	282,138
640	273,881
640,5	271,424
640,9	269,967
641,4	270,081
641,8	264,938
642,2	264,624
642,7	262,595
643,1	269,795
643,6	268,595
644	270,71
644,5	269,138
644,9	269,652
645,3	272,31
645,8	264,31
646,2	257,738
646,7	261,595
647,1	258,424
647,6	256,852
648	252,824
648,4	246,31
648,9	248,081
649,3	246,881
649,8	242,138
650,2	243,71
650,6	242,024
651,1	240,138
651,5	241,338
652	237,11
652,4	233,481
652,9	233,224
653,3	230,367
653,7	228,31
654,2	228,738
654,6	225,538
655,1	231,938
655,5	237,71
655,9	235,995
656,4	238,71
656,8	237,367
657,3	238,195
657,7	238,995
658,2	232,767
658,6	229,824
659	225,738
659,5	216,252
659,9	216,081
660,4	212,395
660,8	209,367
661,2	206,995
661,7	203,738
662,1	206,852
662,6	205,538
663	205,681
663,4	202,167
663,9	203,167
664,3	202,624
664,8	198,538
665,2	194,71
665,6	196,167
666,1	193,567
666,5	192,967
667	189,424
667,4	186,938
667,9	189,224
668,3	187,367
668,7	186,481
669,2	186,624
669,6	188,224
670,1	188,51
670,5	188,738
670,9	190,881
671,4	191,538
671,8	190,681
672,3	192,767
672,7	190,338
673,1	182,967
673,6	182,195
674	182,024
674,5	177,624
674,9	170,052
675,3	160,852
675,8	160,938
676,2	160,795
676,7	160,052
677,1	152,138
677,5	154,567
678	158,195
678,4	160,081
678,9	156,824
679,3	158,91
679,7	154,595
680,2	152,11
680,6	147,567
681,1	147,595
681,5	149,481
681,9	150,767
682,4	151,367
682,8	152,31
683,3	156,024
683,7	159,081
684,1	159,681
684,6	153,424
685	147,595
685,5	142,91
685,9	140,538
686,3	134,652
686,8	128,71
687,2	127,995
687,7	126,738
688,1	127,71
688,5	128,395
689	130,681
689,4	129,51
689,9	130,51
690,3	125,538
690,7	125,71
691,2	127,024
691,6	129,967
692	127,31
692,5	131,681
692,9	131,024
693,4	133,081
693,8	134,338
694,2	132,995
694,7	126,824
695,1	127,395
695,6	126,252
696	124,367
696,4	121,395
696,9	117,395
697,3	114,252
697,8	117,338
698,2	113,481
698,6	115,024
699,1	113,338
699,5	115,452
699,9	111,538
700,4	109,881
700,8	105,481
701,3	107,567
701,7	101,367
702,1	98,51
702,6	94,824
703	105,252
703,5	103,824
703,9	101,852
704,3	102,195
704,8	101,167
705,2	103,567
705,6	103,195
706,1	95,11
706,5	94,024
707	96,795
707,4	100,481
707,8	97,338
708,3	102,852
708,7	102,938
709,2	103,338
709,6	104,767
710	108,195
710,5	99,024
710,9	101,452
711,3	95,024
711,8	95,91
712,2	99,424
712,7	95,91
713,1	93,938
713,5	94,567
714	94,138
714,4	92,31
714,8	94,167
715,3	90,367
715,7	95,624
716,2	90,652
716,6	94,11
717	90,71
717,5	90,424
717,9	89,367
718,3	86,595
718,8	81,881
719,2	82,881
719,7	80,281
720,1	84,367
720,5	89,938
721	82,081
721,4	84,338
721,8	90,852
722,3	87,938
722,7	92,31
723,2	87,738
723,6	79,91
724	83,767
724,5	80,452
724,9	71,91
725,3	71,081
725,8	67,31
726,2	70,138
726,7	70,71
727,1	68,681
727,5	70,31
728	71,795
728,4	74,595
728,8	71,795
729,3	70,538
729,7	71,652
730,1	70,052
730,6	70,452
731	66,395
731,5	62,538
731,9	61,081
732,3	61,11
732,8	60,281
733,2	66,71
733,6	64,881
734,1	72,138
734,5	73,367
734,9	75,167
735,4	76,167
735,8	73,938
736,3	71,224
736,7	70,338
737,1	68,51
737,6	69,767
738	71,195
738,4	68,281
738,9	67,881
739,3	64,881
739,7	64,395
740,2	57,995
740,6	60,824
741,1	59,452
741,5	57,767
741,9	62,31
742,4	61,538
742,8	57,795
743,2	62,138
743,7	54,538
744,1	47,595
744,5	44,995
745	39,024
745,4	38,624
745,8	41,995
746,3	39,624
746,7	36,767
747,2	41,167
747,6	45,995
748	48,624
748,5	50,452
748,9	47,281
749,3	49,51
749,8	51,852
750,2	48,91
750,6	44,938
751,1	46,052
751,5	43,852
751,9	46,452
752,4	48,881
752,8	52,567
753,3	54,738
753,7	61,11
754,1	54,91
754,6	53,281
755	49,595
755,4	43,167
755,9	43,71
756,3	43,367
756,7	38,738
757,2	45,652
757,6	45,852
758	47,624
758,5	49,71
758,9	49,51
759,3	52,538
759,8	54,195
760,2	49,681
760,6	50,424
761,1	46,91
761,5	44,938
761,9	42,367
762,4	37,881
762,8	37,052
763,3	35,024
763,7	38,51
764,1	43,767
764,6	47,281
765	49,51
765,4	52,852
765,9	52,281
766,3	56,11
766,7	50,91
767,2	47,767
767,6	51,652
768	47,51
768,5	45,395
768,9	48,567
769,3	47,424
769,8	47,51
770,2	52,138
770,6	45,767
771,1	48,51
771,5	45,367
771,9	43,767
772,4	40,995
772,8	38,481
773,2	37,738
773,7	37,281
774,1	33,538
774,5	32,567
775	28,367
775,4	32,081
775,8	36,452
776,3	35,081
776,7	31,51
777,1	33,538
777,6	34,595
778	37,91
778,4	36,91
778,9	37,052
779,3	33,738
779,7	36,167
780,2	36,91
780,6	39,538
781	35,91
781,5	27,595
781,9	23,595
782,3	23,395
782,8	28,11
783,2	26,795
783,6	28,252
784,1	26,652
784,5	27,967
784,9	28,852
785,4	33,995
785,8	32,595
786,2	34,852
786,7	33,281
787,1	32,11
787,5	38,338
788	39,024
788,4	38,081
788,8	34,367
789,3	30,281
789,7	32,424
790,1	36,51
790,6	32,967
791	31,481
791,4	32,624
791,9	31,967
792,3	33,252
792,7	34,652
793,2	29,624
793,6	32,681
794	35,138
794,5	26,767
794,9	27,967
795,3	28,081
795,8	26,91
796,2	28,338
796,6	27,424
797,1	23,652
797,5	23,538
797,9	18,995
798,4	16,624
798,8	12,652
799,2	9,881
799,7	11,195
800,1	12,567
800,5	17,967
801	24,767
801,4	20,767
801,8	17,51
802,2	21,281
802,7	14,767
803,1	15,538
803,5	12,195
804	9,852
804,4	19,224
804,8	21,195
805,3	22,767
805,7	30,652
806,1	29,767
806,6	35,081
807	36,024
807,4	33,052
807,9	28,681
808,3	30,652
808,7	28,424
809,2	31,081
809,6	25,481
810	25,995
810,4	24,852
810,9	26,281
811,3	25,024
811,7	23,195
812,2	25,852
812,6	28,167
813	30,995
813,5	30,567
813,9	32,881
814,3	28,538
814,8	31,71
815,2	26,51
815,6	23,51
816,1	19,91
816,5	20,967
816,9	23,424
817,3	26,11
817,8	26,024
818,2	25,795
818,6	27,938
819,1	25,91
819,5	22,31
819,9	22,281
820,4	19,224
820,8	16,224
821,2	13,538
821,7	12,652
822,1	16,367
822,5	21,367
822,9	18,967
823,4	20,767
823,8	23,195
824,2	27,167
824,7	25,367
825,1	21,052
825,5	16,595
826	11,967
826,4	10,71
826,8	9,652
827,3	12,995
827,7	13,995
828,1	15,452
828,5	17,31
829	18,338
829,4	17,995
829,8	11,51
830,3	7,31
830,7	5,51
831,1	6,11
831,6	6,081
832	4,795
832,4	5,767
832,8	10,995
833,3	8,452
833,7	7,052
834,1	6,595
834,6	4,51
835	9,167
835,4	11,795
835,8	6,681
836,3	9,738
836,7	12,367
837,1	12,795
837,6	16,824
838	13,767
838,4	13,567
838,9	16,995
839,3	13,595
839,7	17,881
840,1	11,881
840,6	7,395
841	9,652
841,4	7,567
841,9	7,824
842,3	8,538
842,7	4,681
843,1	6,195
843,6	8,795
844	9,138
844,4	15,652
844,9	16,71
845,3	14,538
845,7	15,452
846,2	17,71
846,6	13,395
847	17,681
847,4	13,824
847,9	15,91
848,3	17,738
848,7	17,567
849,2	18,224
849,6	16,71
850	15,767
850,4	13,51
850,9	11,252
851,3	10,51
851,7	13,71
852,2	11,252
852,6	19,91
853	17,195
853,4	15,967
853,9	14,938
854,3	17,138
854,7	10,11
855,2	9,738
855,6	8,024
856	2,624
856,4	1,224
856,9	-3,09
857,3	-2,205
857,7	2,081
858,2	7,91
858,6	7,367
859	14,224
859,4	15,538
859,9	18,167
860,3	16,538
860,7	17,767
861,1	15,91
861,6	13,938
862	12,967
862,4	11,852
862,9	14,995
863,3	14,852
863,7	14,91
864,1	16,738
864,6	17,224
865	11,452
865,4	11,567
865,9	11,595
866,3	9,338
866,7	5,567
867,1	0,624
867,6	-0,576
868	4,881
868,4	5,567
868,8	2,824
869,3	3,795
869,7	10,738
870,1	8,31
870,6	7,138
871	-13,062
871,4	-8,833
871,8	-8,033
872,3	-6,633
872,7	-11,948
873,1	-12,233
873,5	-10,176
874	7,567
874,4	8,052
874,8	6,195
875,3	6,795
875,7	7,595
876,1	9,595
876,5	9,11
877	9,681
877,4	1,567
877,8	3,995
878,2	5,71
878,7	9,11
879,1	11,738
879,5	13,91
879,9	16,167
880,4	21,167
880,8	19,424
881,2	13,824
881,7	6,481
882,1	6,767
882,5	3,224
882,9	-0,833
883,4	-0,376
883,8	2,852
884,2	6,938
884,6	8,938
885,1	7,224
885,5	3,938
885,9	5,424
886,3	5,281
886,8	0,338
887,2	-1,205
887,6	0,452
888	-1,748
888,5	4,567
888,9	1,452
889,3	-1,348
889,8	0,881
890,2	-0,09
890,6	-5,776
891	1,795
891,5	-1,862
891,9	-0,662
892,3	1,852
892,7	1,452
893,2	7,481
893,6	12,567
894	9,852
894,4	8,967
894,9	12,51
895,3	8,424
895,7	8,395
896,1	0,652
896,6	2,424
897	1,11
897,4	9,081
897,8	6,767
898,3	10,795
898,7	8,481
899,1	11,824
899,5	6,252
900	0,424
900,4	-6,748
900,8	-10,376
901,2	-13,948
901,7	-12,062
902,1	-12,119
902,5	-9,919
902,9	-7,576
903,4	-3,005
903,8	0,995
904,2	0,795
904,6	0,995
905,1	3,052
905,5	3,595
905,9	6,51
906,3	6,51
906,8	5,91
907,2	7,91
907,6	11,395
908	11,167
908,5	8,195
908,9	0,938
909,3	-1,205
909,7	-0,548
910,2	-2,176
910,6	0,138
911	-2,948
911,4	-1,49
911,9	7,452
912,3	5,51
912,7	10,767
913,1	14,395
913,6	6,767
914	8,567
914,4	6,71
914,8	3,738
915,3	3,624
915,7	-1,633
916,1	-3,948
916,5	0,224
916,9	-0,148
917,4	2,967
917,8	3,367
918,2	-2,69
918,6	-6,119
919,1	-5,205
919,5	-5,948
919,9	-6,548
920,3	-8,005
920,8	-10,205
921,2	-4,833
921,6	-4,833
922	-1,919
922,5	-4,576
922,9	-4,633
923,3	-5,462
923,7	-4,09
924,2	-3,433
924,6	1,595
925	-1,948
925,4	-0,062
925,8	-2,919
926,3	-4,605
926,7	-3,319
927,1	-0,348
927,5	-1,89
928	-4,005
928,4	-7,805
928,8	-1,89
929,2	0,595
929,7	-0,205
930,1	-1,262
930,5	-4,348
930,9	-0,405
931,3	4,195
931,8	-0,633
932,2	4,338
932,6	2,11
933	-3,49
933,5	2,452
933,9	1,738
934,3	0,91
934,7	0,567
935,2	-0,719
935,6	-0,948
936	7,481
936,4	5,452
936,8	4,252
937,3	1,252
937,7	7,024
938,1	8,224
938,5	7,11
939	3,224
939,4	3,224
939,8	2,681
940,2	3,881
940,6	3,652
941,1	-1,662
941,5	6,31
941,9	2,71
942,3	-1,519
942,8	-0,119
943,2	2,652
943,6	-0,548
944	0,738
944,4	-5,319
944,9	-3,976
945,3	-0,262
945,7	-4,148
946,1	-8,262
946,6	-9,776
947	-8,805
947,4	-2,605
947,8	-0,862
948,2	-0,805
948,7	2,338
949,1	5,167
949,5	8,995
949,9	11,395
950,3	6,195
950,8	5,91
951,2	3,452
951,6	-0,376
952	3,824
952,5	-2,719
952,9	-6,919
953,3	-7,09
953,7	-5,433
954,1	0,652
954,6	3,967
955	1,567
955,4	0,31
955,8	3,481
956,2	4,681
956,7	5,195
957,1	-2,662
957,5	0,395
957,9	1,91
958,3	7,281
958,8	6,71
959,2	8,452
959,6	11,167
960	13,024
960,5	15,167
960,9	10,481
961,3	10,652
961,7	10,995
962,1	9,252
962,6	8,281
963	9,595
963,4	1,367
963,8	1,767
964,2	-0,605
964,7	-4,348
965,1	-4,233
965,5	-11,662
965,9	-12,89
966,3	-8,29
966,8	-11,348
967,2	-9,176
967,6	-5,49
968	-4,719
968,4	2,91
968,9	3,795
969,3	5,367
969,7	7,824
970,1	6,452
970,5	2,967
971	3,938
971,4	3,195
971,8	7,31
972,2	7,138
972,6	8,081
973,1	10,681
973,5	13,595
973,9	12,824
974,3	9,881
974,7	7,567
975,2	5,624
975,6	5,595
976	5,081
976,4	3,51
976,8	0,424
977,3	-0,29
977,7	-2,176
978,1	-3,376
978,5	-4,805
978,9	-9,462
979,4	-12,919
979,8	-10,262
980,2	-9,805
980,6	-9,662
981	-6,662
981,5	-1,748
981,9	0,681
982,3	-0,805
982,7	1,852
983,1	-1,205
983,6	-1,548
984	-1,462
984,4	-4,576
984,8	-3,462
985,2	2,595
985,6	-4,119
986,1	0,138
986,5	3,967
986,9	-0,69
987,3	2,795
987,7	0,967
988,2	-2,548
988,6	-0,062
989	-0,062
989,4	-3,262
989,8	-0,605
990,3	-4,833
990,7	-7,205
991,1	-3,49
991,5	-3,348
991,9	-3,205
992,3	-0,89
992,8	-2,462
993,2	-2,605
993,6	1,424
994	2,595
994,4	5,852
994,9	5,595
995,3	1,681
995,7	-1,262
996,1	-1,233
996,5	-2,748
996,9	-9,262
997,4	-9,433
997,8	-10,748
998,2	-13,205
998,6	-14,262
999	-18,433
999,5	-18,319
999,9	-15,548
1000,3	-16,69
1000,7	-14,29
1001,1	-12,09
1001,5	-6,948
1002	1,481
1002,4	4,224
1002,8	4,538
1003,2	4,395
1003,6	5,624
1004	6,995
1004,5	5,367
1004,9	2,881
1005,3	-2,719
1005,7	-1,605
1006,1	-3,69
1006,6	-6,433
1007	-6,548
1007,4	-6,776
1007,8	-6,719
1008,2	-3,776
1008,6	-0,462
1009,1	0,481
1009,5	0,51
1009,9	3,595
1010,3	8,852
1010,7	7,738
1011,1	7,738
1011,6	6,424
1012	7,024
1012,4	1,595
1012,8	0,51
1013,2	-0,205
1013,6	0,338
1014,1	3,738
1014,5	1,138
1014,9	-1,462
1015,3	4,481
1015,7	6,224
1016,1	1,767
1016,6	2,252
1017	2,852
1017,4	4,224
1017,8	2,738
1018,2	3,167
1018,6	-3,176
1019,1	-0,633
1019,5	-1,548
1019,9	-8,319
1020,3	-7,776
1020,7	-4,233
1021,1	-6,49
1021,6	-7,119
1022	-6,405
1022,4	-6,548
1022,8	0,738
1023,2	-0,605
1023,6	1,081
1024,1	2,795
1024,5	6,795
1024,9	3,938
1025,3	2,881
1025,7	1,51
1026,1	2,395
1026,6	2,538
1027	0,224
1027,4	3,167
1027,8	4,795
1028,2	4,624
1028,6	7,681
1029	4,367
1029,5	3,224
1029,9	3,281
1030,3	-0,862
1030,7	-2,662
1031,1	-0,748
1031,5	-7,662
1032	-7,519
1032,4	-7,833
1032,8	-6,176
1033,2	-2,548
1033,6	-1,033
1034	2,967
1034,4	1,31
1034,9	7,052
1035,3	2,624
1035,7	1,795
1036,1	-1,233
1036,5	-5,405
1036,9	-7,262
1037,4	-0,833
1037,8	-10,69
1038,2	-10,719
1038,6	-10,262
1039	-5,89
1039,4	1,938
1039,8	-3,862
1040,3	-4,662
1040,7	2,052
1041,1	7,281
1041,5	9,481
1041,9	3,51
1042,3	1,167
1042,7	1,995
1043,2	-0,29
1043,6	-5,005
1044	-7,576
1044,4	-10,405
1044,8	-4,376
1045,2	-2,005
1045,6	-1,405
1046,1	-3,49
1046,5	-2,862
1046,9	-4,49
1047,3	-5,119
1047,7	-11,49
1048,1	-14,89
1048,5	-15,29
1049	-9,176
1049,4	-6,348
1049,8	-1,319
1050,2	-0,49
1050,6	7,081
1051	5,281
1051,4	10,367
1051,9	2,738
1052,3	11,595
1052,7	11,052
1053,1	11,567
1053,5	7,052
1053,9	8,995
1054,3	4,167
1054,8	12,281
1055,2	2,481
1055,6	2,481
1056	-0,548
1056,4	-2,833
1056,8	-2,605
1057,2	-1,348
1057,6	-6,576
1058,1	-4,09
1058,5	-13,833
1058,9	-3,748
1059,3	0,938
1059,7	-0,176
1060,1	3,224
1060,5	8,938
1061	9,938
1061,4	19,824
1061,8	17,595
1062,2	13,595
1062,6	14,424
1063	15,852
1063,4	9,338
1063,8	4,538
1064,3	1,938
1064,7	-0,262
1065,1	-0,033
1065,5	-1,69
1065,9	-7,719
1066,3	-7,605
1066,7	-2,376
1067,1	-2,433
1067,6	-4,433
1068	-5,662
1068,4	-5,49
1068,8	-3,69
1069,2	-3,576
1069,6	-9,833
1070	-7,748
1070,4	-8,376
1070,9	-9,805
1071,3	-9,776
1071,7	-13,69
1072,1	-11,176
1072,5	-10,748
1072,9	-10,776
1073,3	-9,662
1073,7	-7,348
1074,2	-6,29
1074,6	-2,233
1075	-3,405
1075,4	0,167
1075,8	-5,09
1076,2	-5,233
1076,6	-4,833
1077	-6,49
1077,5	-5,605
1077,9	-8,833
1078,3	-9,748
1078,7	-6,805
1079,1	-7,662
1079,5	-6,89
1079,9	-4,148
1080,3	-4,976
1080,7	-2,748
1081,2	-0,262
1081,6	-0,29
1082	-2,976
1082,4	1,71
1082,8	2,395
1083,2	1,252
1083,6	4,195
1084	1,538
1084,5	3,224
1084,9	1,481
1085,3	-7,405
1085,7	-6,319
1086,1	-6,633
1086,5	-4,148
1086,9	-1,062
1087,3	-1,748
1087,7	2,852
1088,2	3,738
1088,6	-0,662
1089	2,995
1089,4	-1,062
1089,8	-2,862
1090,2	-3,49
1090,6	-3,205
1091	1,738
1091,4	5,738
1091,9	4,91
1092,3	5,481
1092,7	0,538
1093,1	4,195
1093,5	4,252
1093,9	3,938
1094,3	7,024
1094,7	5,567
1095,1	1,967
1095,5	4,938
1096	-1,09
1096,4	-2,405
1096,8	-3,49
1097,2	-9,462
1097,6	-5,205
1098	-2,348
1098,4	4,995
1098,8	5,91
1099,2	13,452
1099,6	13,824
1100,1	14,281
1100,5	9,938
1100,9	11,624
1101,3	7,452
1101,7	8,424
1102,1	3,795
1102,5	5,681
1102,9	5,538
1103,3	9,195
1103,7	7,738
1104,2	4,252
1104,6	6,252
1105	2,252
1105,4	2,31
1105,8	1,881
1106,2	-1,49
1106,6	-1,69
1107	0,767
1107,4	-0,067
1107,8	3,367
1108,3	-0,633
