Data from Subt2_083.txt Node
Date: Sat Aug 26 16:40:19 MSK 2023
User: vat
Spectrometer: MAYP114033
Trigger mode: 0
Integration Time (sec): 1,000000E0
Scans to average: 5
Electric dark correction enabled: true
Nonlinearity correction enabled: false
Boxcar width: 3
XAxis mode: Wavelengths
Number of Pixels in Spectrum: 2068
>>>>>Begin Spectral Data<<<<<
199,4	-0,667
199,9	-0,687
200,4	-1,633
200,8	0,576
201,3	5,462
201,8	7,948
202,2	11,376
202,7	12,376
203,2	13,976
203,6	15,662
204,1	14,605
204,6	11,976
205	10,776
205,5	7,805
206	8,29
206,4	10,348
206,9	9,205
207,4	14,805
207,8	10,89
208,3	10,919
208,8	12,49
209,2	14,719
209,7	12,119
210,2	14,976
210,6	9,833
211,1	11,748
211,5	11,033
212	5,462
212,5	0,633
212,9	3,49
213,4	1,662
213,9	-0,452
214,3	2,605
214,8	3,833
215,3	8,662
215,7	10,119
216,2	8,519
216,7	6,376
217,1	5,119
217,6	2,062
218,1	2,748
218,5	4,805
219	12,776
219,5	13,09
219,9	18,033
220,4	21,319
220,9	22,176
221,3	20,833
221,8	15,376
222,3	11,433
222,7	11,062
223,2	9,662
223,6	9,548
224,1	10,662
224,6	11,805
225	13,033
225,5	14,119
226	12,433
226,4	14,805
226,9	11,519
227,4	9,548
227,8	9,833
228,3	16,033
228,8	13,005
229,2	14,405
229,7	10,805
230,2	15,748
230,6	15,49
231,1	16,605
231,5	16,662
232	20,033
232,5	20,062
232,9	18,633
233,4	18,005
233,9	22,176
234,3	21,548
234,8	15,319
235,3	11,49
235,7	17,405
236,2	21,319
236,7	22,09
237,1	16,948
237,6	22,833
238,1	23,919
238,5	26,119
239	22,033
239,4	23,148
239,9	20,919
240,4	22,805
240,8	15,433
241,3	16,09
241,8	14,262
242,2	7,776
242,7	7,49
243,2	9,462
243,6	11,948
244,1	13,09
244,6	10,49
245	11,005
245,5	14,633
245,9	13,29
246,4	11,748
246,9	9,09
247,3	9,09
247,8	10,262
248,3	10,719
248,7	15,576
249,2	11,776
249,7	11,548
250,1	12,605
250,6	7,633
251	7,548
251,5	2,405
252	-4,31
252,4	-1,252
252,9	1,119
253,4	2,233
253,8	2,119
254,3	7,433
254,8	9,348
255,2	12,833
255,7	12,69
256,1	9,719
256,6	9,633
257,1	14,748
257,5	12,176
258	15,319
258,5	19,119
258,9	19,29
259,4	21,405
259,9	22,548
260,3	17,805
260,8	19,433
261,2	17,919
261,7	12,262
262,2	8,976
262,6	5,205
263,1	1,633
263,6	3,776
264	-3,31
264,5	-0,538
264,9	0,576
265,4	5,719
265,9	9,89
266,3	13,376
266,8	14,605
267,3	21,005
267,7	17,89
268,2	17,033
268,7	13,062
269,1	11,119
269,6	12,262
270	14,262
270,5	11,719
271	11,605
271,4	11,405
271,9	13,033
272,4	12,976
272,8	8,148
273,3	3,69
273,7	0,09
274,2	3,605
274,7	4,776
275,1	1,319
275,6	0,948
276,1	3,405
276,5	5,548
277	10,148
277,4	7,805
277,9	2,548
278,4	5,976
278,8	15,262
279,3	9,576
279,8	12,319
280,2	10,719
280,7	9,805
281,1	16,405
281,6	19,176
282,1	12,805
282,5	17,062
283	14,119
283,4	12,776
283,9	12,062
284,4	10,69
284,8	9,69
285,3	8,519
285,8	6,29
286,2	8,833
286,7	11,348
287,1	9,69
287,6	12,319
288,1	11,462
288,5	12,862
289	14,319
289,5	12,776
289,9	11,748
290,4	9,633
290,8	10,576
291,3	9,376
291,8	9,319
292,2	12,148
292,7	12,519
293,1	12,433
293,6	17,776
294,1	12,462
294,5	15,405
295	13,69
295,5	16,805
295,9	20,233
296,4	22,976
296,8	18,119
297,3	20,319
297,8	17,576
298,2	16,405
298,7	9,748
299,1	6,948
299,6	5,89
300,1	10,976
300,5	12,033
301	13,033
301,5	17,233
301,9	19,519
302,4	19,833
302,8	20,862
303,3	16,719
303,8	13,605
304,2	12,033
304,7	6,433
305,1	4,605
305,6	0,205
306,1	-1,738
306,5	1,805
307	1,719
307,4	0,205
307,9	0,948
308,4	4,633
308,8	12,662
309,3	13,205
309,8	18,119
310,2	17,062
310,7	26,462
311,1	21,776
311,6	19,805
312,1	15,462
312,5	12,662
313	4,405
313,4	7,005
313,9	5,719
314,4	9,805
314,8	10,49
315,3	12,976
315,7	16,805
316,2	16,319
316,7	18,205
317,1	13,748
317,6	14,776
318	15,69
318,5	14,719
319	14,348
319,4	17,662
319,9	13,805
320,3	17,09
320,8	15,576
321,3	13,719
321,7	9,89
322,2	11,005
322,6	9,89
323,1	10,348
323,6	4,519
324	7,576
324,5	4,033
324,9	9,233
325,4	10,49
325,9	15,233
326,3	18,719
326,8	19,376
327,2	15,576
327,7	19,633
328,2	17,29
328,6	19,148
329,1	14,176
329,5	14,862
330	15,748
330,5	16,262
330,9	17,633
331,4	15,862
331,8	12,833
332,3	19,49
332,8	15,662
333,2	15,005
333,7	17,405
334,1	15,09
334,6	15,862
335,1	15,948
335,5	13,548
336	12,519
336,4	10,805
336,9	15,262
337,4	14,205
337,8	16,119
338,3	14,776
338,7	12,833
339,2	17,69
339,7	19,633
340,1	16,433
340,6	19,748
341	20,919
341,5	23,462
342	24,862
342,4	20,633
342,9	17,776
343,3	19,376
343,8	22,919
344,2	22,605
344,7	20,319
345,2	15,09
345,6	20,405
346,1	23,033
346,5	23,948
347	19,776
347,5	17,49
347,9	16,548
348,4	24,919
348,8	22,719
349,3	26,89
349,8	26,49
350,2	28,062
350,7	32,519
351,1	36,805
351,6	41,776
352	54,976
352,5	63,262
353	77,062
353,4	93,348
353,9	114,262
354,3	140,548
354,8	161,948
355,3	191,748
355,7	230,405
356,2	271,176
356,6	326,833
357,1	385,776
357,5	454,262
358	538,176
358,5	631,748
358,9	734,005
359,4	859,805
359,8	990,376
360,3	1138,948
360,8	1305,919
361,2	1497,29
361,7	1701,29
362,1	1937,976
362,6	2191,548
363	2462,29
363,5	2755,262
364	3054,262
364,4	3359,748
364,9	3671,433
365,3	3975,662
365,8	4266,748
366,3	4550,033
366,7	4801,548
367,2	5033,89
367,6	5225,548
368,1	5370,776
368,5	5478,89
369	5537,033
369,5	5539,319
369,9	5501,862
370,4	5412,29
370,8	5286,976
371,3	5138,89
371,7	4946,548
372,2	4735,748
372,7	4502,519
373,1	4261,29
373,6	4014,719
374	3761,319
374,5	3508,376
374,9	3260,405
375,4	3017,633
375,9	2797,462
376,3	2577,005
376,8	2374,662
377,2	2186,376
377,7	1997,033
378,2	1829,919
378,6	1676,833
379,1	1527,662
379,5	1401,319
380	1285,033
380,4	1176,548
380,9	1086,862
381,4	1001,033
381,8	920,09
382,3	850,176
382,7	780,976
383,2	720,062
383,6	661,948
384,1	611,348
384,6	563,119
385	521,576
385,5	484,662
385,9	455,662
386,4	422,033
386,8	399,09
387,3	372,09
387,7	349,719
388,2	327,862
388,7	307,233
389,1	279,433
389,6	259,748
390	237,319
390,5	215,233
390,9	199,433
391,4	194,633
391,9	178,176
392,3	169,576
392,8	158,262
393,2	146,919
393,7	146,862
394,1	141,09
394,6	122,776
395,1	119,319
395,5	114,462
396	107,976
396,4	106,948
396,9	101,69
397,3	94,662
397,8	90,919
398,2	86,862
398,7	81,062
399,2	76,89
399,6	74,576
400,1	61,719
400,5	61,205
401	62,176
401,4	61,948
401,9	62,862
402,4	65,29
402,8	60,462
403,3	61,576
403,7	61,262
404,2	59,576
404,6	56,433
405,1	50,976
405,5	47,49
406	50,462
406,5	50,405
406,9	43,548
407,4	41,376
407,8	42,033
408,3	45,862
408,7	48,89
409,2	45,462
409,6	48,319
410,1	54,548
410,6	59,748
411	61,748
411,5	63,948
411,9	61,805
412,4	68,633
412,8	70,805
413,3	69,233
413,7	69,348
414,2	72,576
414,7	75,09
415,1	73,576
415,6	70,662
416	73,805
416,5	79,862
416,9	82,262
417,4	83,89
417,8	87,319
418,3	97,376
418,8	98,09
419,2	99,433
419,7	102,09
420,1	98,148
420,6	99,462
421	96,976
421,5	98,119
421,9	103,548
422,4	104,976
422,8	107,262
423,3	112,948
423,8	112,89
424,2	113,89
424,7	115,833
425,1	112,862
425,6	116,148
426	114,148
426,5	111,862
426,9	115,319
427,4	115,748
427,9	111,29
428,3	113,69
428,8	116,519
429,2	115,633
429,7	114,833
430,1	112,49
430,6	114,976
431	116,662
431,5	119,605
431,9	117,862
432,4	122,89
432,8	129,833
433,3	131,805
433,8	132,919
434,2	134,748
434,7	132,69
435,1	138,205
435,6	144,233
436	150,233
436,5	160,862
436,9	168,69
437,4	179,776
437,8	190,662
438,3	195,776
438,8	196,605
439,2	201,919
439,7	206,862
440,1	214,833
440,6	222,205
441	230,376
441,5	242,89
441,9	257,433
442,4	275,262
442,8	288,319
443,3	299,576
443,7	307,376
444,2	322,09
444,7	333,519
445,1	343,033
445,6	349,376
446	364,605
446,5	376,69
446,9	397,633
447,4	410,176
447,8	423,462
448,3	443,89
448,7	459,548
449,2	474,862
449,6	492,205
450,1	509,262
450,6	532,948
451	555,89
451,5	575,119
451,9	598,29
452,4	621,662
452,8	647,919
453,3	669,662
453,7	688,033
454,2	709,376
454,6	729,405
455,1	751,119
455,5	774,719
456	797,748
456,4	823,176
456,9	849,348
457,3	880,462
457,8	909,548
458,3	942,862
458,7	977,29
459,2	1012,948
459,6	1045,405
460,1	1079,348
460,5	1108,862
461	1141,29
461,4	1178,919
461,9	1206,833
462,3	1241,319
462,8	1275,148
463,2	1310,062
463,7	1342,805
464,1	1383,89
464,6	1413,633
465	1454,262
465,5	1490,633
466	1527,633
466,4	1570,09
466,9	1612,29
467,3	1651,205
467,8	1694,805
468,2	1722,405
468,7	1761,605
469,1	1799,833
469,6	1836,805
470	1875,862
470,5	1912,633
470,9	1947,748
471,4	1995,919
471,8	2032,033
472,3	2070,205
472,7	2111,062
473,2	2143,519
473,6	2184,176
474,1	2220,519
474,5	2258,033
475	2301,49
475,4	2340,29
475,9	2381,69
476,4	2422,376
476,8	2462,376
477,3	2506,405
477,7	2545,833
478,2	2582,233
478,6	2625,233
479,1	2655,119
479,5	2696,862
480	2725,605
480,4	2764,205
480,9	2800,262
481,3	2830,033
481,8	2862,89
482,2	2903,033
482,7	2937,776
483,1	2982,348
483,6	3006,719
484	3036,89
484,5	3071,633
484,9	3101,633
485,4	3128,576
485,8	3150,433
486,3	3172,919
486,7	3202,033
487,2	3233,519
487,6	3257,69
488,1	3280,119
488,5	3302,09
489	3327,776
489,4	3350,29
489,9	3379,005
490,4	3397,233
490,8	3420,719
491,3	3445,862
491,7	3465,49
492,2	3491,89
492,6	3514,262
493,1	3527,519
493,5	3544,576
494	3560,319
494,4	3571,119
494,9	3587,09
495,3	3599,776
495,8	3606,49
496,2	3621,262
496,7	3632,69
497,1	3645,69
497,6	3661,748
498	3676,033
498,5	3692,405
498,9	3707,805
499,4	3722,319
499,8	3735,005
500,3	3752,148
500,7	3762,062
501,2	3770,948
501,6	3778,748
502,1	3795,633
502,5	3803,09
503	3819,062
503,4	3822,319
503,9	3833,576
504,3	3853,148
504,8	3858,719
505,2	3861,576
505,7	3867,748
506,1	3871,69
506,6	3878,462
507	3885,262
507,5	3886,062
507,9	3897,262
508,4	3905,348
508,8	3913,005
509,3	3921,119
509,7	3929,405
510,2	3933,776
510,6	3942,348
511,1	3953,519
511,5	3957,033
512	3968,205
512,4	3973,176
512,9	3981,433
513,3	3999,976
513,8	4003,348
514,2	4003,176
514,7	4012,119
515,1	4015,833
515,6	4014,348
516	4015,662
516,5	4010,348
516,9	4013,348
517,4	4016,548
517,8	4016,576
518,3	4019,29
518,7	4029,119
519,2	4033,405
519,6	4038,605
520,1	4037,89
520,5	4046,148
521	4052,233
521,4	4059,662
521,9	4069,033
522,3	4077,576
522,8	4084,948
523,2	4095,49
523,7	4100,719
524,1	4107,548
524,6	4107,262
525	4109,376
525,5	4115,919
525,9	4117,09
526,4	4121,662
526,8	4120,233
527,3	4128,433
527,7	4140,148
528,2	4144,462
528,6	4150,605
529,1	4161,833
529,5	4167,205
530	4179,376
530,4	4181,776
530,9	4187,662
531,3	4195,433
531,8	4202,776
532,2	4207,576
532,6	4221,119
533,1	4223,833
533,5	4236,005
534	4244,433
534,4	4252,548
534,9	4257,89
535,3	4268,433
535,8	4271,062
536,2	4285,233
536,7	4287,205
537,1	4291,119
537,6	4298,633
538	4309,433
538,5	4315,09
538,9	4322,833
539,4	4331,233
539,8	4343,662
540,3	4352,605
540,7	4363,376
541,2	4374,319
541,6	4387,719
542,1	4392,805
542,5	4398,748
543	4411,976
543,4	4427,376
543,9	4433,005
544,3	4433,776
544,8	4437,348
545,2	4444,548
545,7	4449,262
546,1	4454,09
546,5	4455,433
547	4463,176
547,4	4474,262
547,9	4490,805
548,3	4504,176
548,8	4513,89
549,2	4514,176
549,7	4519,748
550,1	4532,719
550,6	4540,833
551	4542,262
551,5	4551,805
551,9	4565,062
552,4	4581,776
552,8	4594,919
553,3	4597,748
553,7	4601,862
554,2	4610,233
554,6	4619,719
555,1	4628,233
555,5	4634,605
555,9	4637,805
556,4	4643,376
556,8	4654,176
557,3	4657,519
557,7	4659,805
558,2	4655,462
558,6	4658,919
559,1	4664,176
559,5	4675,833
560	4680,519
560,4	4688,862
560,9	4699,748
561,3	4712,005
561,8	4727,519
562,2	4736,205
562,7	4738,89
563,1	4748,662
563,6	4754,862
564	4760,776
564,4	4765,89
564,9	4766,433
565,3	4773,49
565,8	4781,89
566,2	4782,748
566,7	4781,462
567,1	4784,519
567,6	4788,205
568	4789,405
568,5	4788,205
568,9	4788,348
569,4	4792,662
569,8	4795,348
570,3	4796,033
570,7	4794,119
571,1	4796,776
571,6	4796,805
572	4795,233
572,5	4791,462
572,9	4791,148
573,4	4787,09
573,8	4794,062
574,3	4787,233
574,7	4790,462
575,2	4784,805
575,6	4791,176
576,1	4791,548
576,5	4792,29
576,9	4788,176
577,4	4793,09
577,8	4790,805
578,3	4789,005
578,7	4778,005
579,2	4780,633
579,6	4784,433
580,1	4780,748
580,5	4773,376
581	4765,919
581,4	4770,862
581,9	4771,633
582,3	4761,862
582,7	4749,205
583,2	4735,862
583,6	4729,09
584,1	4721,69
584,5	4707,576
585	4695,433
585,4	4684,29
585,9	4675,262
586,3	4670,262
586,8	4660,148
587,2	4654,49
587,6	4647,976
588,1	4643,176
588,5	4636,776
589	4629,89
589,4	4616,519
589,9	4611,576
590,3	4600,462
590,8	4590,462
591,2	4587,576
591,7	4586,062
592,1	4578,319
592,5	4575,748
593	4567,119
593,4	4562,805
593,9	4554,69
594,3	4531,948
594,8	4516,89
595,2	4508,405
595,7	4497,805
596,1	4485,662
596,6	4480,176
597	4483,119
597,4	4487,176
597,9	4480,862
598,3	4476,262
598,8	4474,062
599,2	4467,976
599,7	4454,433
600,1	4441,09
600,6	4431,548
601	4420,348
601,4	4409,776
601,9	4391,576
602,3	4385,49
602,8	4380,29
603,2	4366,69
603,7	4358,833
604,1	4351,89
604,6	4332,662
605	4327,433
605,4	4317,29
605,9	4300,719
606,3	4291,548
606,8	4269,176
607,2	4258,948
607,7	4255,748
608,1	4243,633
608,6	4230,348
609	4222,919
609,4	4202,719
609,9	4191,948
610,3	4175,205
610,8	4160,005
611,2	4144,862
611,7	4130,462
612,1	4111,49
612,6	4105,205
613	4094,49
613,4	4077,919
613,9	4058,748
614,3	4043,09
614,8	4020,176
615,2	4009,205
615,7	3987,719
616,1	3967,376
616,6	3956,89
617	3944,205
617,4	3930,805
617,9	3915,662
618,3	3902,319
618,8	3886,062
619,2	3873,633
619,7	3861,09
620,1	3844,833
620,5	3828,033
621	3815,862
621,4	3793,176
621,9	3776,576
622,3	3757,69
622,8	3733,405
623,2	3719,033
623,6	3698,233
624,1	3682,519
624,5	3674,662
625	3658,49
625,4	3645,548
625,9	3628,462
626,3	3610,605
626,8	3601,776
627,2	3584,49
627,6	3559,09
628,1	3541,176
628,5	3523,919
629	3513,005
629,4	3495,062
629,9	3472,805
630,3	3458,319
630,7	3442,148
631,2	3425,433
631,6	3405,319
632,1	3386,262
632,5	3369,462
633	3352,69
633,4	3329,576
633,8	3313,319
634,3	3300,462
634,7	3283,748
635,2	3260,405
635,6	3242,776
636,1	3234,29
636,5	3220,719
636,9	3200,576
637,4	3181,662
637,8	3162,662
638,3	3148,719
638,7	3136,805
639,2	3117,605
639,6	3100,119
640	3084,348
640,5	3071,176
640,9	3062,776
641,4	3044,148
641,8	3028,319
642,2	3014,119
642,7	2997,348
643,1	2988,976
643,6	2971,719
644	2959,662
644,5	2949,062
644,9	2928,948
645,3	2909,433
645,8	2901,319
646,2	2880,862
646,7	2862,49
647,1	2840,176
647,6	2824,233
648	2809,805
648,4	2796,233
648,9	2775,033
649,3	2763,005
649,8	2757,09
650,2	2745,176
650,6	2733,805
651,1	2725,605
651,5	2714,29
652	2705,205
652,4	2690,319
652,9	2673,776
653,3	2659,805
653,7	2642,433
654,2	2622,948
654,6	2605,233
655,1	2580,433
655,5	2567,805
655,9	2553,119
656,4	2538,833
656,8	2522,119
657,3	2502,205
657,7	2485,348
658,2	2480,776
658,6	2463,919
659	2448,462
659,5	2427,176
659,9	2417,062
660,4	2406,69
660,8	2393,976
661,2	2377,633
661,7	2361,062
662,1	2347,576
662,6	2338,719
663	2324,605
663,4	2312,49
663,9	2297,09
664,3	2280,576
664,8	2266,433
665,2	2247,748
665,6	2229,233
666,1	2208,948
666,5	2192,519
667	2176,633
667,4	2164,805
667,9	2147,69
668,3	2136,462
668,7	2131,062
669,2	2119,776
669,6	2106,09
670,1	2092,748
670,5	2078,176
670,9	2072,748
671,4	2059,519
671,8	2038,405
672,3	2026,519
672,7	2011,205
673,1	2000,605
673,6	1989,433
674	1973,262
674,5	1961,262
674,9	1953,148
675,3	1939,348
675,8	1931,462
676,2	1917,033
676,7	1903,89
677,1	1890,519
677,5	1880,319
678	1872,548
678,4	1861,548
678,9	1845,09
679,3	1833,176
679,7	1823,805
680,2	1818,148
680,6	1804,462
681,1	1784,976
681,5	1775,29
681,9	1764,033
682,4	1753,205
682,8	1734,633
683,3	1716,119
683,7	1706,376
684,1	1695,805
684,6	1683,548
685	1672,348
685,5	1659,576
685,9	1650,119
686,3	1644,748
686,8	1632,233
687,2	1622,805
687,7	1611,49
688,1	1606,233
688,5	1597,433
689	1586,633
689,4	1573,805
689,9	1563,748
690,3	1554,462
690,7	1542,348
691,2	1529,89
691,6	1519,719
692	1510,033
692,5	1499,919
692,9	1484,976
693,4	1478,519
693,8	1471,948
694,2	1458,576
694,7	1448,89
695,1	1440,062
695,6	1426,948
696	1426,69
696,4	1408,433
696,9	1396,69
697,3	1392,433
697,8	1380,548
698,2	1369,09
698,6	1365,433
699,1	1348,376
699,5	1343,119
699,9	1334,233
700,4	1320,662
700,8	1314,29
701,3	1305,605
701,7	1289,462
702,1	1278,719
702,6	1270,805
703	1262,548
703,5	1256,319
703,9	1247,976
704,3	1245,033
704,8	1242,376
705,2	1240,519
705,6	1224,005
706,1	1219,062
706,5	1216,205
707	1209,576
707,4	1201,29
707,8	1191,148
708,3	1175,29
708,7	1174,205
709,2	1158,576
709,6	1146,176
710	1137,005
710,5	1127,433
710,9	1117,348
711,3	1111,69
711,8	1105,205
712,2	1106,376
712,7	1096,519
713,1	1085,09
713,5	1077,005
714	1069,605
714,4	1065,262
714,8	1058,433
715,3	1048,09
715,7	1039,89
716,2	1038,348
716,6	1033,69
717	1028,09
717,5	1018,976
717,9	1008,319
718,3	999,89
718,8	995,119
719,2	983,976
719,7	973,919
720,1	962,719
720,5	956,719
721	950,148
721,4	946,49
721,8	941,005
722,3	932,748
722,7	925,262
723,2	925,319
723,6	915,862
724	908,433
724,5	894,748
724,9	880,119
725,3	872,205
725,8	866,148
726,2	852,119
726,7	844,233
727,1	837,348
727,5	835,205
728	834,862
728,4	830,033
728,8	824,948
729,3	822,919
729,7	821,233
730,1	816,376
730,6	809,605
731	803,862
731,5	796,976
731,9	789,776
732,3	787,348
732,8	781,233
733,2	775,262
733,6	770,405
734,1	764,776
734,5	756,405
734,9	754,576
735,4	746,519
735,8	744,262
736,3	742,862
736,7	739,09
737,1	737,033
737,6	738,29
738	729,376
738,4	731,062
738,9	728,519
739,3	720,748
739,7	715,89
740,2	709,29
740,6	703,062
741,1	704,262
741,5	694,719
741,9	686,119
742,4	679,862
742,8	675,576
743,2	666,176
743,7	666,205
744,1	653,148
744,5	650,89
745	645,49
745,4	642,405
745,8	636,805
746,3	639,233
746,7	632,405
747,2	637,09
747,6	634,148
748	628,29
748,5	626,89
748,9	622,233
749,3	619,29
749,8	611,948
750,2	601,49
750,6	594,776
751,1	598,605
751,5	590,119
751,9	584,49
752,4	576,433
752,8	576,09
753,3	573,09
753,7	572,462
754,1	562,233
754,6	558,519
755	557,49
755,4	555,49
755,9	549,948
756,3	546,233
756,7	534,833
757,2	531,29
757,6	527,233
758	519,519
758,5	514,319
758,9	513,348
759,3	509,662
759,8	516,262
760,2	513,948
760,6	516,033
761,1	512,69
761,5	512,919
761,9	504,319
762,4	501,462
762,8	490,348
763,3	481,776
763,7	472,605
764,1	467,176
764,6	459,205
765	457,633
765,4	455,948
765,9	450,262
766,3	452,148
766,7	454,176
767,2	455,119
767,6	451,89
768	446,862
768,5	441,948
768,9	439,119
769,3	435,805
769,8	435,262
770,2	439,005
770,6	439,062
771,1	438,69
771,5	436,205
771,9	435,462
772,4	438,062
772,8	430,176
773,2	420,776
773,7	416,89
774,1	418,148
774,5	416,548
775	415,633
775,4	404,119
775,8	402,09
776,3	399,862
776,7	397,09
777,1	397,148
777,6	393,148
778	388,776
778,4	388,233
778,9	384,148
779,3	385,805
779,7	383,776
780,2	377,49
780,6	374,548
781	377,005
781,5	376,69
781,9	374,576
782,3	368,148
782,8	364,29
783,2	353,805
783,6	350,49
784,1	345,976
784,5	342,405
784,9	339,376
785,4	337,748
785,8	332,919
786,2	334,576
786,7	332,89
787,1	329,319
787,5	327,49
788	327,033
788,4	322,319
788,8	320,862
789,3	322,948
789,7	318,548
790,1	314,548
790,6	311,633
791	309,948
791,4	308,89
791,9	305,405
792,3	299,348
792,7	303,49
793,2	300,748
793,6	301,519
794	300,433
794,5	296,919
794,9	297,919
795,3	298,062
795,8	290,462
796,2	288,462
796,6	280,376
797,1	278,462
797,5	276,719
797,9	276,862
798,4	272,462
798,8	269,49
799,2	268,89
799,7	273,062
800,1	267,805
800,5	264,49
801	260,919
801,4	256,462
801,8	257,062
802,2	255,262
802,7	251,776
803,1	251,119
803,5	253,176
804	250,29
804,4	248,69
804,8	251,605
805,3	249,49
805,7	249,519
806,1	247,862
806,6	251,633
807	249,605
807,4	250,205
807,9	245,233
808,3	242,033
808,7	233,719
809,2	231,89
809,6	222,69
810	221,976
810,4	219,519
810,9	215,319
811,3	212,833
811,7	212,69
812,2	214,262
812,6	211,176
813	206,433
813,5	209,033
813,9	209,233
814,3	206,09
814,8	206,69
815,2	199,205
815,6	194,862
816,1	196,776
816,5	189,605
816,9	189,89
817,3	188,976
817,8	189,69
818,2	186,29
818,6	193,433
819,1	192,719
819,5	195,748
819,9	190,405
820,4	192,205
820,8	185,576
821,2	190,805
821,7	186,519
822,1	183,205
822,5	181,005
822,9	182,033
823,4	175,948
823,8	176,319
824,2	171,976
824,7	170,976
825,1	168,519
825,5	169,776
826	165,462
826,4	168,69
826,8	167,348
827,3	166,605
827,7	162,805
828,1	165,062
828,5	161,062
829	160,062
829,4	159,09
829,8	157,262
830,3	157,29
830,7	155,948
831,1	152,348
831,6	148,805
832	144,49
832,4	140,862
832,8	140,948
833,3	137,862
833,7	138,205
834,1	136,976
834,6	136,519
835	141,49
835,4	144,405
835,8	139,319
836,3	136,348
836,7	131,119
837,1	131,519
837,6	131,233
838	125,205
838,4	120,776
838,9	128,119
839,3	132,605
839,7	135,348
840,1	133,09
840,6	133,176
841	132,033
841,4	130,49
841,9	125,348
842,3	123,462
842,7	121,433
843,1	125,376
843,6	124,776
844	129,205
844,4	128,49
844,9	127,919
845,3	123,69
845,7	124,805
846,2	121,548
846,6	119,005
847	113,148
847,4	112,319
847,9	109,519
848,3	109,576
848,7	108,748
849,2	109,176
849,6	110,29
850	108,862
850,4	110,548
850,9	109,576
851,3	103,119
851,7	102,49
852,2	94,405
852,6	93,919
853	100,805
853,4	101,719
853,9	100,09
854,3	104,433
854,7	101,005
855,2	102,405
855,6	96,633
856	88,205
856,4	84,462
856,9	84,69
857,3	81,976
857,7	87,805
858,2	85,29
858,6	89,519
859	90,09
859,4	89,576
859,9	88,633
860,3	90,176
860,7	85,69
861,1	87,805
861,6	88,29
862	90,519
862,4	90,662
862,9	92,948
863,3	91,948
863,7	88,519
864,1	86,49
864,6	83,462
865	79,805
865,4	78,748
865,9	69,776
866,3	73,09
866,7	72,748
867,1	72,205
867,6	72,033
868	69,748
868,4	68,49
868,8	74,233
869,3	74,662
869,7	71,719
870,1	75,262
870,6	72,548
871	70,205
871,4	67,262
871,8	66,49
872,3	60,148
872,7	63,005
873,1	61,033
873,5	63,633
874	73,233
874,4	73,005
874,8	76,919
875,3	79,205
875,7	74,776
876,1	73,519
876,5	76,033
877	70,662
877,4	72,805
877,8	69,948
878,2	66,719
878,7	75,233
879,1	75,319
879,5	71,948
879,9	73,433
880,4	71,976
880,8	69,09
881,2	72,233
881,7	68,519
882,1	66,976
882,5	61,376
882,9	59,405
883,4	58,29
883,8	60,519
884,2	59,176
884,6	58,462
885,1	62,605
885,5	70,89
885,9	72,633
886,3	71,519
886,8	68,148
887,2	67,719
887,6	67,033
888	58,119
888,5	56,605
888,9	54,176
889,3	51,576
889,8	52,805
890,2	48,148
890,6	47,519
891	50,976
891,5	48,805
891,9	47,462
892,3	46,348
892,7	49,49
893,2	52,062
893,6	50,348
894	51,805
894,4	48,119
894,9	49,548
895,3	51,805
895,7	48,09
896,1	52,119
896,6	50,176
897	49,433
897,4	45,433
897,8	44,519
898,3	51,519
898,7	47,519
899,1	43,919
899,5	41,433
900	38,919
900,4	39,062
900,8	41,633
901,2	36,805
901,7	41,862
902,1	40,519
902,5	45,89
902,9	49,976
903,4	57,348
903,8	48,405
904,2	50,005
904,6	42,148
905,1	43,433
905,5	38,776
905,9	37,262
906,3	29,176
906,8	34,262
907,2	30,319
907,6	36,576
908	34,633
908,5	39,348
908,9	38,033
909,3	39,662
909,7	39,719
910,2	38,89
910,6	40,005
911	38,176
911,4	32,948
911,9	31,233
912,3	28,919
912,7	28,148
913,1	23,405
913,6	21,748
914	23,262
914,4	21,376
914,8	22,148
915,3	24,976
915,7	23,748
916,1	25,119
916,5	25,49
916,9	23,319
917,4	27,69
917,8	26,033
918,2	27,633
918,6	29,662
919,1	35,69
919,5	33,89
919,9	37,262
920,3	36,233
920,8	37,919
921,2	39,405
921,6	35,776
922	29,633
922,5	33,176
922,9	28,462
923,3	30,262
923,7	27,833
924,2	20,69
924,6	22,719
925	25,919
925,4	19,405
925,8	21,09
926,3	23,09
926,7	22,776
927,1	28,719
927,5	31,948
928	30,633
928,4	32,205
928,8	38,262
929,2	30,633
929,7	29,89
930,1	30,262
930,5	24,719
930,9	26,748
931,3	30,119
931,8	22,576
932,2	24,548
932,6	29,005
933	20,776
933,5	20,576
933,9	23,176
934,3	16,748
934,7	19,976
935,2	24,233
935,6	19,319
936	21,433
936,4	25,976
936,8	22,948
937,3	27,119
937,7	25,948
938,1	21,519
938,5	23,433
939	28,005
939,4	24,776
939,8	24,376
940,2	23,548
940,6	21,376
941,1	23,062
941,5	23,205
941,9	23,976
942,3	21,033
942,8	19,576
943,2	15,833
943,6	18,69
944	19,205
944,4	14,033
944,9	11,719
945,3	17,862
945,7	18,319
946,1	23,148
946,6	21,805
947	21,662
947,4	25,776
947,8	26,633
948,2	21,862
948,7	21,376
949,1	18,548
949,5	21,262
949,9	23,548
950,3	22,519
950,8	19,548
951,2	23,148
951,6	24,919
952	22,776
952,5	17,862
952,9	13,062
953,3	11,748
953,7	17,005
954,1	14,662
954,6	11,519
955	13,976
955,4	14,148
955,8	16,205
956,2	12,376
956,7	12,433
957,1	13,748
957,5	17,49
957,9	16,919
958,3	18,005
958,8	18,233
959,2	26,062
959,6	23,176
960	24,29
960,5	21,376
960,9	25,805
961,3	28,29
961,7	26,262
962,1	23,919
962,6	23,176
963	22,405
963,4	24,148
963,8	18,376
964,2	15,205
964,7	14,119
965,1	17,233
965,5	16,662
965,9	14,605
966,3	13,948
966,8	18,89
967,2	21,433
967,6	23,09
968	21,176
968,4	21,776
968,9	23,405
969,3	21,033
969,7	12,862
970,1	10,09
970,5	10,176
971	5,319
971,4	7,233
971,8	6,662
972,2	10,576
972,6	14,548
973,1	15,319
973,5	16,719
973,9	17,233
974,3	13,09
974,7	13,233
975,2	10,976
975,6	5,462
976	5,405
976,4	4,548
976,8	6,433
977,3	6,148
977,7	3,405
978,1	3,148
978,5	8,833
978,9	10,119
979,4	9,719
979,8	12,09
980,2	9,548
980,6	10,89
981	13,205
981,5	16,119
981,9	12,062
982,3	11,548
982,7	11,348
983,1	17,833
983,6	19,719
984	19,119
984,4	21,462
984,8	26,776
985,2	25,519
985,6	30,833
986,1	29,919
986,5	24,119
986,9	21,948
987,3	15,976
987,7	12,319
988,2	16,119
988,6	8,49
989	8,548
989,4	11,976
989,8	10,662
990,3	14,405
990,7	13,062
991,1	7,605
991,5	8,233
991,9	13,29
992,3	12,348
992,8	19,919
993,2	20,833
993,6	20,005
994	23,89
994,4	27,033
994,9	20,376
995,3	20,833
995,7	12,29
996,1	7,776
996,5	9,005
996,9	4,148
997,4	3,033
997,8	5,29
998,2	4,919
998,6	4,262
999	7,262
999,5	11,262
999,9	17,948
1000,3	17,005
1000,7	14,119
1001,1	13,319
1001,5	13,748
1002	7,69
1002,4	6,662
1002,8	5,433
1003,2	4,119
1003,6	8,833
1004	11,376
1004,5	10,833
1004,9	11,548
1005,3	6,633
1005,7	4,29
1006,1	4,205
1006,6	0,462
1007	-0,195
1007,4	2,919
1007,8	4,776
1008,2	3,376
1008,6	2,69
1009,1	1,69
1009,5	6,062
1009,9	11,862
1010,3	10,89
1010,7	15,548
1011,1	21,262
1011,6	24,833
1012	26,005
1012,4	25,262
1012,8	13,805
1013,2	17,69
1013,6	14,405
1014,1	14,262
1014,5	12,719
1014,9	17,748
1015,3	16,033
1015,7	19,262
1016,1	15,719
1016,6	20,376
1017	16,605
1017,4	10,519
1017,8	7,233
1018,2	1,119
1018,6	6,319
1019,1	6,49
1019,5	6,348
1019,9	11,348
1020,3	16,805
1020,7	12,033
1021,1	16,948
1021,6	16,062
1022	15,062
1022,4	15,376
1022,8	11,89
1023,2	15,519
1023,6	18,862
1024,1	21,148
1024,5	20,205
1024,9	24,833
1025,3	20,576
1025,7	24,69
1026,1	23,176
1026,6	25,748
1027	19,176
1027,4	19,862
1027,8	14,119
1028,2	15,405
1028,6	14,948
1029	12,29
1029,5	10,748
1029,9	9,062
1030,3	12,29
1030,7	14,29
1031,1	8,748
1031,5	5,176
1032	7,09
1032,4	2,519
1032,8	9,233
1033,2	3,919
1033,6	9,176
1034	13,005
1034,4	16,633
1034,9	10,462
1035,3	18,376
1035,7	14,662
1036,1	16,605
1036,5	6,119
1036,9	10,348
1037,4	9,89
1037,8	15,205
1038,2	5,89
1038,6	5,948
1039	3,548
1039,4	8,662
1039,8	3,776
1040,3	0,262
1040,7	-4,595
1041,1	-0,452
1041,5	-0,481
1041,9	-1,31
1042,3	-2,281
1042,7	-0,424
1043,2	1,948
1043,6	7,948
1044	6,919
1044,4	8,033
1044,8	4,405
1045,2	7,776
1045,6	8,948
1046,1	10,633
1046,5	13,176
1046,9	14,548
1047,3	14,69
1047,7	20,062
1048,1	17,805
1048,5	17,576
1049	15,805
1049,4	9,519
1049,8	8,862
1050,2	12,405
1050,6	14,033
1051	17,519
1051,4	15,405
1051,9	20,119
1052,3	18,519
1052,7	24,233
1053,1	20,176
1053,5	18,976
1053,9	14,833
1054,3	17,319
1054,8	16,69
1055,2	22,376
1055,6	18,776
1056	17,662
1056,4	17,319
1056,8	21,805
1057,2	21,319
1057,6	15,176
1058,1	13,662
1058,5	9,49
1058,9	11,919
1059,3	11,576
1059,7	1,662
1060,1	-0,138
1060,5	-0,31
1061	-1,995
1061,4	5,405
1061,8	4,176
1062,2	6,776
1062,6	13,69
1063	13,89
1063,4	16,862
1063,8	15,29
1064,3	9,376
1064,7	7,433
1065,1	2,948
1065,5	4,262
1065,9	0,833
1066,3	-0,052
1066,7	3,462
1067,1	3,548
1067,6	6,376
1068	8,005
1068,4	12,062
1068,8	14,833
1069,2	16,348
1069,6	16,748
1070	20,205
1070,4	22,376
1070,9	20,033
1071,3	18,319
1071,7	19,405
1072,1	21,119
1072,5	20,433
1072,9	21,433
1073,3	17,719
1073,7	17,519
1074,2	14,919
1074,6	10,69
1075	10,776
1075,4	11,833
1075,8	8,69
1076,2	12,548
1076,6	14,376
1077	10,433
1077,5	17,148
1077,9	14,205
1078,3	10,09
1078,7	12,376
1079,1	14,948
1079,5	13,376
1079,9	21,29
1080,3	17,176
1080,7	19,948
1081,2	22,119
1081,6	25,519
1082	19,519
1082,4	19,605
1082,8	14,005
1083,2	10,748
1083,6	7,833
1084	4,89
1084,5	-0,167
1084,9	-0,71
1085,3	5,433
1085,7	3,319
1086,1	3,49
1086,5	9,633
1086,9	12,576
1087,3	15,29
1087,7	17,976
1088,2	15,948
1088,6	19,376
1089	20,319
1089,4	17,376
1089,8	19,833
1090,2	18,462
1090,6	16,833
1091	15,662
1091,4	17,462
1091,9	21,119
1092,3	13,09
1092,7	11,29
1093,1	9,09
1093,5	9,205
1093,9	8,862
1094,3	7,69
1094,7	8,576
1095,1	9,948
1095,5	11,548
1096	8,69
1096,4	13,148
1096,8	12,462
1097,2	10,519
1097,6	10,148
1098	14,576
1098,4	12,376
1098,8	15,49
1099,2	12,033
1099,6	13,319
1100,1	15,033
1100,5	17,49
1100,9	14,576
1101,3	15,719
1101,7	17,633
1102,1	18,062
1102,5	15,348
1102,9	10,919
1103,3	5,605
1103,7	5,833
1104,2	5,29
1104,6	3,119
1105	3,062
1105,4	3,005
1105,8	5,176
1106,2	5,29
1106,6	4,319
1107	2,005
1107,4	1,333
1107,8	-1,127
1108,3	-0,217
