Data from Subt2_001.txt Node
Date: Sat Aug 26 16:10:09 MSK 2023
User: vat
Spectrometer: MAYP114033
Trigger mode: 0
Integration Time (sec): 1,000000E0
Scans to average: 5
Electric dark correction enabled: true
Nonlinearity correction enabled: false
Boxcar width: 3
XAxis mode: Wavelengths
Number of Pixels in Spectrum: 2068
>>>>>Begin Spectral Data<<<<<
199,4	-0,367
199,9	5,213
200,4	2,2
200,8	1,305
201,3	-0,495
201,8	1,076
202,2	1,99
202,7	3,619
203,2	-2,295
203,6	1,248
204,1	3,705
204,6	7,648
205	8,619
205,5	8,048
206	3,133
206,4	3,248
206,9	1,59
207,4	1,676
207,8	2,048
208,3	-2,438
208,8	-0,752
209,2	2,933
209,7	6,476
210,2	7,762
210,6	3,676
211,1	2,305
211,5	6,505
212	5,076
212,5	6,276
212,9	8,019
213,4	7,219
213,9	8,248
214,3	5,962
214,8	7,819
215,3	10,276
215,7	9,105
216,2	8,562
216,7	7,162
217,1	7,619
217,6	9,333
218,1	3,819
218,5	1,276
219	-4,581
219,5	-4,41
219,9	-6,638
220,4	-4,238
220,9	-8,495
221,3	-6,352
221,8	-8,838
222,3	-3,181
222,7	-5,381
223,2	-1,467
223,6	0,333
224,1	4,99
224,6	3,39
225	8,333
225,5	8,733
226	12,076
226,4	10,905
226,9	10,962
227,4	13,648
227,8	16,933
228,3	14,99
228,8	18,133
229,2	14,962
229,7	13,248
230,2	8,705
230,6	6,733
231,1	6,762
231,5	8,019
232	2,876
232,5	3,705
232,9	5,533
233,4	7,333
233,9	5,705
234,3	0,962
234,8	-1,867
235,3	4,533
235,7	2,705
236,2	4,019
236,7	0,105
237,1	-0,467
237,6	1,305
238,1	4,105
238,5	0,219
239	3,505
239,4	5,733
239,9	5,219
240,4	5,219
240,8	5,076
241,3	4,276
241,8	4,962
242,2	3,819
242,7	5,705
243,2	12,276
243,6	15,676
244,1	15,162
244,6	13,19
245	6,333
245,5	1,448
245,9	1,933
246,4	2,733
246,9	-1,552
247,3	1,276
247,8	2,933
248,3	6,59
248,7	12,076
249,2	6,962
249,7	4,448
250,1	5,733
250,6	4,048
251	3,505
251,5	8,705
252	9,448
252,4	11,648
252,9	7,305
253,4	6,59
253,8	9,99
254,3	11,248
254,8	9,562
255,2	10,419
255,7	5,505
256,1	11,676
256,6	11,648
257,1	7,762
257,5	3,533
258	2,676
258,5	-2,124
258,9	1,076
259,4	-5,181
259,9	-6,695
260,3	-3,381
260,8	-2,181
261,2	-0,438
261,7	-2,152
262,2	-2,267
262,6	-1,381
263,1	-0,41
263,6	0,305
264	2,39
264,5	1,076
264,9	3,762
265,4	0,962
265,9	5,219
266,3	5,619
266,8	3,59
267,3	2,533
267,7	2,076
268,2	0,733
268,7	2,448
269,1	3,276
269,6	3,819
270	0,362
270,5	0,876
271	-0,552
271,4	-0,352
271,9	1,819
272,4	-1,01
272,8	3,79
273,3	9,276
273,7	10,333
274,2	8,305
274,7	13,076
275,1	13,248
275,6	14,848
276,1	11,162
276,5	6,133
277	1,362
277,4	3,733
277,9	-0,838
278,4	2,933
278,8	2,733
279,3	0,19
279,8	3,905
280,2	10,562
280,7	13,248
281,1	10,048
281,6	1,933
282,1	3,248
282,5	2,762
283	2,619
283,4	-2,895
283,9	-7,01
284,4	-7,81
284,8	-3,867
285,3	-7,267
285,8	-1,124
286,2	-7,152
286,7	-5,752
287,1	-5,524
287,6	-1,952
288,1	-3,524
288,5	-3,724
289	-7,467
289,5	-3,152
289,9	-4,352
290,4	-4,067
290,8	1,105
291,3	2,819
291,8	5,448
292,2	9,448
292,7	11,305
293,1	14,133
293,6	17,076
294,1	10,219
294,5	10,79
295	9,476
295,5	6,105
295,9	2,876
296,4	1,733
296,8	4,762
297,3	11,99
297,8	5,733
298,2	4,848
298,7	8,333
299,1	11,105
299,6	11,962
300,1	12,648
300,5	12,933
301	19,133
301,5	20,333
301,9	20,533
302,4	17,505
302,8	20,076
303,3	13,59
303,8	8,705
304,2	7,133
304,7	6,333
305,1	0,362
305,6	4,162
306,1	1,79
306,5	-0,895
307	-4,695
307,4	-7,781
307,9	-6,267
308,4	-4,924
308,8	-3,895
309,3	-1,438
309,8	3,905
310,2	10,99
310,7	11,448
311,1	11,048
311,6	11,505
312,1	9,448
312,5	4,676
313	6,876
313,4	0,448
313,9	0,333
314,4	2,562
314,8	8,276
315,3	6,619
315,7	8,419
316,2	6,505
316,7	9,276
317,1	12,276
317,6	8,476
318	0,933
318,5	1,476
319	4,876
319,4	3,819
319,9	-0,381
320,3	2,99
320,8	6,562
321,3	7,362
321,7	7,305
322,2	0,848
322,6	2,39
323,1	7,619
323,6	4,562
324	3,962
324,5	5,933
324,9	3,619
325,4	9,19
325,9	4,962
326,3	6,133
326,8	4,562
327,2	1,733
327,7	-2,21
328,2	-3,667
328,6	-5,81
329,1	-7,581
329,5	-7,695
330	-9,21
330,5	-5,695
330,9	-3,41
331,4	1,905
331,8	5,676
332,3	12,333
332,8	12,505
333,2	12,219
333,7	11,333
334,1	8,39
334,6	6,39
335,1	2,219
335,5	-3,238
336	-7,238
336,4	-3,924
336,9	-3,581
337,4	5,333
337,8	6,505
338,3	5,905
338,7	11,248
339,2	12,048
339,7	9,448
340,1	8,933
340,6	0,448
341	-1,467
341,5	0,162
342	0,39
342,4	8,962
342,9	16,276
343,3	14,59
343,8	19,505
344,2	20,676
344,7	21,59
345,2	21,876
345,6	15,762
346,1	9,305
346,5	9,933
347	7,076
347,5	8,476
347,9	10,619
348,4	5,133
348,8	4,076
349,3	10,476
349,8	11,933
350,2	17,419
350,7	18,762
351,1	17,505
351,6	24,419
352	28,39
352,5	32,048
353	40,076
353,4	45,276
353,9	51,619
354,3	70,162
354,8	83,819
355,3	103,419
355,7	118,848
356,2	140,876
356,6	167,39
357,1	201,476
357,5	229,019
358	269,676
358,5	316,019
358,9	371,562
359,4	432,905
359,8	500,705
360,3	578,133
360,8	663,876
361,2	756,819
361,7	860,048
362,1	974,676
362,6	1096,276
363	1229,476
363,5	1364,162
364	1512,362
364,4	1658,79
364,9	1803,733
365,3	1954,648
365,8	2097,876
366,3	2226,619
366,7	2352,305
367,2	2448,819
367,6	2536,819
368,1	2608,533
368,5	2651,99
369	2667,419
369,5	2668,133
369,9	2644,619
370,4	2603,733
370,8	2543,876
371,3	2465,762
371,7	2366,419
372,2	2269,705
372,7	2162,219
373,1	2044,905
373,6	1927,848
374	1809,962
374,5	1692,819
374,9	1578,619
375,4	1464,048
375,9	1357,819
376,3	1256,733
376,8	1161,733
377,2	1067,048
377,7	980,133
378,2	903,476
378,6	830,362
379,1	758,248
379,5	692,133
380	635,248
380,4	578,476
380,9	526,219
381,4	476,362
381,8	433,762
382,3	399,676
382,7	368,276
383,2	344,305
383,6	323,79
384,1	304,933
384,6	284,59
385	270,419
385,5	251,705
385,9	233,219
386,4	212,076
386,8	200,676
387,3	185,333
387,7	176,648
388,2	166,362
388,7	151,905
389,1	145,79
389,6	134,962
390	123,019
390,5	111,448
390,9	100,562
391,4	89,39
391,9	87,276
392,3	79,79
392,8	75,305
393,2	67,076
393,7	64,476
394,1	62,105
394,6	58,533
395,1	53,848
395,5	52,162
396	47,99
396,4	50,019
396,9	46,276
397,3	45,79
397,8	45,219
398,2	44,276
398,7	42,276
399,2	44,476
399,6	38,79
400,1	40,848
400,5	38,59
401	36,933
401,4	37,162
401,9	36,133
402,4	37,933
402,8	40,19
403,3	40,962
403,7	45,248
404,2	49,905
404,6	50,676
405,1	50,819
405,5	49,676
406	51,133
406,5	52,762
406,9	53,19
407,4	50,048
407,8	59,705
408,3	64,305
408,7	70,733
409,2	80,505
409,6	86,905
410,1	93,562
410,6	102,162
411	105,59
411,5	112,59
411,9	117,476
412,4	121,848
412,8	131,933
413,3	138,533
413,7	142,448
414,2	145,619
414,7	157,419
415,1	158,905
415,6	169,819
416	174,048
416,5	182,248
416,9	196,962
417,4	204,533
417,8	210,533
418,3	227,619
418,8	238,762
419,2	251,533
419,7	265,562
420,1	277,076
420,6	296,39
421	308,876
421,5	322,619
421,9	331,105
422,4	345,505
422,8	357,076
423,3	373,39
423,8	391,219
424,2	409,219
424,7	428,533
425,1	451,219
425,6	467,419
426	490,962
426,5	511,933
426,9	532,362
427,4	565,562
427,9	598,162
428,3	629,648
428,8	667,762
429,2	700,476
429,7	736,933
430,1	773,79
430,6	807,333
431	843,219
431,5	878,133
431,9	919,905
432,4	964,733
432,8	1006,819
433,3	1051,59
433,8	1100,533
434,2	1150,505
434,7	1206,162
435,1	1266,848
435,6	1322,248
436	1390,448
436,5	1461,076
436,9	1530,276
437,4	1597,733
437,8	1678,133
438,3	1752,448
438,8	1836,733
439,2	1919,305
439,7	2002,219
440,1	2084,819
440,6	2180,505
441	2273,076
441,5	2369,619
441,9	2471,533
442,4	2576,933
442,8	2685,048
443,3	2802,505
443,7	2916,276
444,2	3028,362
444,7	3145,562
445,1	3271,762
445,6	3398,505
446	3534,562
446,5	3667,619
446,9	3807,79
447,4	3960,676
447,8	4111,562
448,3	4265,419
448,7	4424,162
449,2	4578,705
449,6	4739,133
450,1	4901,562
450,6	5067,819
451	5235,562
451,5	5404,876
451,9	5576,733
452,4	5757,505
452,8	5945,419
453,3	6136,962
453,7	6332,162
454,2	6530,733
454,6	6736,419
455,1	6941,305
455,5	7143,905
456	7346,476
456,4	7551,076
456,9	7756,59
457,3	7977,305
457,8	8198,105
458,3	8412,733
458,7	8636,648
459,2	8869,105
459,6	9099,762
460,1	9332,848
460,5	9561,762
461	9791,105
461,4	10026,019
461,9	10263,448
462,3	10491,648
462,8	10727,39
463,2	10964,876
463,7	11200,733
464,1	11429,99
464,6	11667,99
465	11902,962
465,5	12145,79
466	12384,99
466,4	12610,419
466,9	12848,162
467,3	13084,933
467,8	13332,305
468,2	13562,933
468,7	13795,505
469,1	14035,333
469,6	14271,076
470	14487,762
470,5	14712,105
470,9	14930,048
471,4	15154,676
471,8	15377,276
472,3	15583,476
472,7	15787,962
473,2	16007,076
473,6	16209,933
474,1	16398,99
474,5	16605,019
475	16799,076
475,4	16990,962
475,9	17184,39
476,4	17360,733
476,8	17535,762
477,3	17711,705
477,7	17878,79
478,2	18029,133
478,6	18182,705
479,1	18336,019
479,5	18481,39
480	18616,676
480,4	18750,219
480,9	18872,19
481,3	19006,219
481,8	19121,762
482,2	19223,162
482,7	19334,248
483,1	19441,705
483,6	19531,305
484	19627,562
484,5	19705,562
484,9	19784,59
485,4	19859,848
485,8	19907,305
486,3	19964,562
486,7	20018,419
487,2	20047,39
487,6	20070,733
488,1	20103,133
488,5	20127,076
489	20146,533
489,4	20164,476
489,9	20162,333
490,4	20166,848
490,8	20158,048
491,3	20137,162
491,7	20106,619
492,2	20087,476
492,6	20047,819
493,1	20015,562
493,5	19952,048
494	19923,362
494,4	19859,333
494,9	19809,79
495,3	19733,39
495,8	19662,733
496,2	19585,048
496,7	19526,019
497,1	19445,705
497,6	19371,619
498	19296,105
498,5	19220,733
498,9	19133,105
499,4	19053,019
499,8	18961,562
500,3	18862,076
500,7	18787,448
501,2	18689,733
501,6	18593,962
502,1	18501,248
502,5	18404,333
503	18302,133
503,4	18194,819
503,9	18061,333
504,3	17935,105
504,8	17810,048
505,2	17676,048
505,7	17541,533
506,1	17404,305
506,6	17269,162
507	17137,905
507,5	17014,819
507,9	16883,705
508,4	16743,048
508,8	16609,619
509,3	16472,333
509,7	16340,733
510,2	16197,876
510,6	16046,333
511,1	15908,333
511,5	15767,048
512	15614,39
512,4	15474,362
512,9	15316,362
513,3	15182,133
513,8	15041,648
514,2	14890,19
514,7	14752,276
515,1	14607,733
515,6	14458,048
516	14324,648
516,5	14161,876
516,9	14011,876
517,4	13871,162
517,8	13730,219
518,3	13596,133
518,7	13449,019
519,2	13292,905
519,6	13166,305
520,1	13033,276
520,5	12888,762
521	12745,133
521,4	12603,905
521,9	12475,276
522,3	12346,133
522,8	12210,705
523,2	12076,362
523,7	11951,819
524,1	11804,562
524,6	11666,19
525	11530,419
525,5	11399,848
525,9	11263,105
526,4	11128,848
526,8	10997,448
527,3	10893,733
527,7	10779,305
528,2	10664,39
528,6	10541,733
529,1	10431,848
529,5	10319,19
530	10209,362
530,4	10090,933
530,9	9972,333
531,3	9849,99
531,8	9751,19
532,2	9643,505
532,6	9542,79
533,1	9431,762
533,5	9328,39
534	9234,248
534,4	9144,905
534,9	9038,619
535,3	8938,048
535,8	8842,876
536,2	8750,762
536,7	8656,048
537,1	8556,59
537,6	8464,705
538	8370,59
538,5	8285,39
538,9	8183,248
539,4	8092,533
539,8	8007,619
540,3	7930,99
540,7	7840,962
541,2	7761,79
541,6	7678,305
542,1	7597,933
542,5	7519,476
543	7440,819
543,4	7362,933
543,9	7291,076
544,3	7219,305
544,8	7144,419
545,2	7078,562
545,7	7005,648
546,1	6939,733
546,5	6863,705
547	6793,362
547,4	6727,333
547,9	6664,762
548,3	6598,162
548,8	6532,505
549,2	6469,79
549,7	6408,105
550,1	6357,362
550,6	6298,305
551	6230,162
551,5	6177,419
551,9	6120,819
552,4	6064,533
552,8	6010,276
553,3	5944,19
553,7	5895,305
554,2	5849,019
554,6	5795,248
555,1	5751,705
555,5	5704,048
555,9	5659,105
556,4	5616,333
556,8	5558,848
557,3	5508,819
557,7	5469,105
558,2	5417,819
558,6	5373,533
559,1	5324,819
559,5	5284,476
560	5243,39
560,4	5206,19
560,9	5154,848
561,3	5113,905
561,8	5072,533
562,2	5035,076
562,7	4989,105
563,1	4949,048
563,6	4915,505
564	4881,505
564,4	4853,219
564,9	4809,305
565,3	4772,533
565,8	4743,905
566,2	4713,133
566,7	4666,676
567,1	4628,076
567,6	4581,933
568	4545,648
568,5	4510,648
568,9	4475,219
569,4	4437,676
569,8	4405,39
570,3	4377,619
570,7	4355,762
571,1	4330,476
571,6	4299,133
572	4264,219
572,5	4234,848
572,9	4211,562
573,4	4177,876
573,8	4151,162
574,3	4118,705
574,7	4089,705
575,2	4063,419
575,6	4036,99
576,1	4003,962
576,5	3978,848
576,9	3939,676
577,4	3911,648
577,8	3886,048
578,3	3865,733
578,7	3835,733
579,2	3812,305
579,6	3786,762
580,1	3765,39
580,5	3741,133
581	3711,762
581,4	3678,162
581,9	3654,076
582,3	3628,219
582,7	3603,59
583,2	3578,419
583,6	3555,819
584,1	3532,39
584,5	3505,562
585	3487,333
585,4	3462,305
585,9	3432,762
586,3	3410,99
586,8	3385,333
587,2	3368,533
587,6	3355,133
588,1	3329,79
588,5	3311,905
589	3292,59
589,4	3269,648
589,9	3252,019
590,3	3231,876
590,8	3197,048
591,2	3174,076
591,7	3155,59
592,1	3137,533
592,5	3116,248
593	3095,448
593,4	3077,048
593,9	3072,619
594,3	3060,848
594,8	3040,019
595,2	3028,419
595,7	3018,448
596,1	3000,905
596,6	2985,533
597	2962,333
597,4	2948,533
597,9	2935,219
598,3	2916,876
598,8	2901,476
599,2	2895,219
599,7	2880,819
600,1	2867,419
600,6	2848,476
601	2833,59
601,4	2817,819
601,9	2802,019
602,3	2778,19
602,8	2756,562
603,2	2743,562
603,7	2726,248
604,1	2708,333
604,6	2694,505
605	2679,362
605,4	2665,619
605,9	2656,048
606,3	2643,476
606,8	2630,905
607,2	2617,619
607,7	2597,619
608,1	2581,562
608,6	2568,133
609	2548,676
609,4	2531,276
609,9	2516,876
610,3	2503,362
610,8	2490,305
611,2	2477,448
611,7	2461,619
612,1	2450,019
612,6	2437,419
613	2420,99
613,4	2407,019
613,9	2394,362
614,3	2374,19
614,8	2363,019
615,2	2350,19
615,7	2334,219
616,1	2321,676
616,6	2304,819
617	2292,333
617,4	2275,133
617,9	2260,762
618,3	2242,933
618,8	2230,105
619,2	2222,933
619,7	2209,705
620,1	2199,905
620,5	2191,019
621	2181,448
621,4	2173,99
621,9	2157,362
622,3	2134,533
622,8	2120,876
623,2	2102,648
623,6	2096,648
624,1	2076,162
624,5	2059,305
625	2052,419
625,4	2041,276
625,9	2032,19
626,3	2019,876
626,8	2003,39
627,2	1992,762
627,6	1983,819
628,1	1968,505
628,5	1959,762
629	1945,819
629,4	1932,219
629,9	1915,933
630,3	1901,59
630,7	1878,905
631,2	1860,705
631,6	1846,79
632,1	1837,333
632,5	1828,876
633	1819,962
633,4	1811,419
633,8	1804,733
634,3	1796,533
634,7	1782,362
635,2	1763,819
635,6	1748,676
636,1	1737,562
636,5	1723,19
636,9	1710,333
637,4	1701,505
637,8	1691,076
638,3	1675,333
638,7	1663,505
639,2	1654,276
639,6	1645,533
640	1639,248
640,5	1632,562
640,9	1623,762
641,4	1621,79
641,8	1612,819
642,2	1599,876
642,7	1594,333
643,1	1583,619
643,6	1571,048
644	1561,048
644,5	1552,162
644,9	1544,419
645,3	1534,305
645,8	1519,99
646,2	1507,305
646,7	1498,39
647,1	1491,905
647,6	1477,962
648	1467,59
648,4	1460,59
648,9	1453,99
649,3	1448,333
649,8	1439,505
650,2	1428,619
650,6	1420,448
651,1	1415,448
651,5	1401,876
652	1391,876
652,4	1380,99
652,9	1374,162
653,3	1365,59
653,7	1358,248
654,2	1348,105
654,6	1340,79
655,1	1331,419
655,5	1327,333
655,9	1311,962
656,4	1303,905
656,8	1302,133
657,3	1290,619
657,7	1284,105
658,2	1275,362
658,6	1266,99
659	1260,733
659,5	1250,219
659,9	1236,276
660,4	1233,019
660,8	1227,762
661,2	1217,905
661,7	1207,39
662,1	1201,99
662,6	1189,705
663	1178,419
663,4	1166,019
663,9	1154,048
664,3	1153,076
664,8	1143,076
665,2	1135,162
665,6	1135,333
666,1	1132,876
666,5	1126,848
667	1120,219
667,4	1107,79
667,9	1099,248
668,3	1091,819
668,7	1075,819
669,2	1064,99
669,6	1059,59
670,1	1054,705
670,5	1044,933
670,9	1038,419
671,4	1029,105
671,8	1022,676
672,3	1013,219
672,7	1000,448
673,1	992,762
673,6	987,676
674	978,305
674,5	967,79
674,9	962,79
675,3	957,619
675,8	950,962
676,2	943,905
676,7	938,79
677,1	930,162
677,5	925,819
678	920,848
678,4	921,162
678,9	915,733
679,3	907,619
679,7	898,619
680,2	898,905
680,6	895,076
681,1	886,048
681,5	873,448
681,9	868,933
682,4	862,762
682,8	856,333
683,3	845,876
683,7	834,99
684,1	832,276
684,6	826,305
685	816,648
685,5	809,505
685,9	805,362
686,3	800,276
686,8	796,333
687,2	790,933
687,7	784,076
688,1	784,819
688,5	779,19
689	771,848
689,4	766,648
689,9	762,562
690,3	755,076
690,7	751,762
691,2	745,333
691,6	737,219
692	732,448
692,5	731,133
692,9	725,619
693,4	722,476
693,8	716,419
694,2	711,448
694,7	712,133
695,1	704,419
695,6	695,19
696	687,19
696,4	678,79
696,9	674,19
697,3	660,162
697,8	652,648
698,2	645,876
698,6	648,79
699,1	649,448
699,5	647,076
699,9	643,533
700,4	644,162
700,8	643,362
701,3	645,676
701,7	636,362
702,1	629,562
702,6	624,99
703	619,619
703,5	614,162
703,9	609,933
704,3	602,762
704,8	596,448
705,2	592,19
705,6	586,39
706,1	584,448
706,5	579,762
707	568,762
707,4	564,219
707,8	558,848
708,3	555,305
708,7	554,219
709,2	544,162
709,6	543,59
710	544,905
710,5	540,733
710,9	536,962
711,3	531,39
711,8	526,705
712,2	528,848
712,7	526,99
713,1	520,933
713,5	517,019
714	518,933
714,4	515,933
714,8	509,219
715,3	502,333
715,7	490,59
716,2	487,99
716,6	487,448
717	479,733
717,5	477,133
717,9	474,333
718,3	473,59
718,8	471,248
719,2	462,905
719,7	456,248
720,1	454,276
720,5	448,362
721	444,505
721,4	437,762
721,8	438,676
722,3	437,876
722,7	433,733
723,2	425,105
723,6	419,905
724	420,819
724,5	412,819
724,9	404,79
725,3	401,476
725,8	396,99
726,2	398,048
726,7	399,419
727,1	391,705
727,5	392,99
728	386,962
728,4	384,676
728,8	380,076
729,3	375,476
729,7	369,276
730,1	368,848
730,6	366,333
731	368,019
731,5	366,533
731,9	366,733
732,3	363,533
732,8	362,476
733,2	360,219
733,6	363,59
734,1	364,562
734,5	359,533
734,9	355,848
735,4	350,562
735,8	346,59
736,3	342,019
736,7	336,676
737,1	335,819
737,6	333,733
738	336,248
738,4	335,505
738,9	336,619
739,3	331,305
739,7	332,476
740,2	332,676
740,6	331,39
741,1	323,619
741,5	326,133
741,9	318,733
742,4	322,733
742,8	316,533
743,2	310,133
743,7	311,305
744,1	311,933
744,5	306,419
745	309,333
745,4	301,99
745,8	301,362
746,3	296,619
746,7	291,362
747,2	288,019
747,6	290,79
748	284,819
748,5	285,39
748,9	283,362
749,3	283,333
749,8	282,962
750,2	282,248
750,6	282,219
751,1	284,105
751,5	280,476
751,9	278,648
752,4	279,305
752,8	273,99
753,3	274,562
753,7	268,419
754,1	267,219
754,6	268,59
755	264,19
755,4	259,362
755,9	259,133
756,3	259,619
756,7	255,076
757,2	251,905
757,6	248,505
758	245,676
758,5	245,876
758,9	244,676
759,3	243,619
759,8	242,705
760,2	242,362
760,6	242,99
761,1	238,79
761,5	241,39
761,9	241,676
762,4	234,105
762,8	238,419
763,3	234,905
763,7	227,419
764,1	228,362
764,6	220,448
765	220,533
765,4	219,076
765,9	211,105
766,3	211,533
766,7	217,076
767,2	220,676
767,6	220,362
768	217,362
768,5	217,362
768,9	216,562
769,3	215,562
769,8	215,105
770,2	209,448
770,6	204,505
771,1	199,248
771,5	195,59
771,9	193,762
772,4	189,933
772,8	184,39
773,2	188,305
773,7	191,248
774,1	188,99
774,5	191,248
775	192,59
775,4	190,905
775,8	195,448
776,3	193,019
776,7	186,762
777,1	187,448
777,6	182,933
778	181,105
778,4	181,648
778,9	173,99
779,3	168,848
779,7	175,333
780,2	179,19
780,6	182,419
781	176,59
781,5	169,762
781,9	171,962
782,3	172,248
782,8	170,505
783,2	172,562
783,6	171,79
784,1	175,505
784,5	174,619
784,9	170,562
785,4	163,905
785,8	164,99
786,2	159,562
786,7	154,219
787,1	153,248
787,5	157,762
788	159,59
788,4	163,19
788,8	156,762
789,3	152,648
789,7	157,59
790,1	151,676
790,6	150,019
791	146,819
791,4	139,419
791,9	143,648
792,3	146,076
792,7	142,876
793,2	144,676
793,6	145,819
794	144,19
794,5	149,848
794,9	145,362
795,3	140,505
795,8	136,99
796,2	135,59
796,6	130,076
797,1	135,733
797,5	135,076
797,9	132,59
798,4	130,219
798,8	131,476
799,2	134,819
799,7	139,305
800,1	135,048
800,5	131,533
801	129,59
801,4	130,162
801,8	125,933
802,2	124,99
802,7	124,362
803,1	122,876
803,5	124,162
804	128,162
804,4	129,162
804,8	130,39
805,3	131,79
805,7	129,162
806,1	128,533
806,6	130,448
807	126,19
807,4	124,076
807,9	126,276
808,3	120,619
808,7	116,448
809,2	114,448
809,6	110,819
810	110,59
810,4	109,162
810,9	104,133
811,3	103,819
811,7	106,105
812,2	107,762
812,6	105,419
813	103,705
813,5	101,819
813,9	102,562
814,3	100,619
814,8	97,248
815,2	95,248
815,6	96,219
816,1	96,619
816,5	101,562
816,9	97,39
817,3	95,762
817,8	98,476
818,2	97,79
818,6	95,762
819,1	97,648
819,5	94,305
819,9	98,448
820,4	100,562
820,8	100,79
821,2	97,933
821,7	99,448
822,1	96,19
822,5	96,648
822,9	93,133
823,4	89,733
823,8	90,562
824,2	90,362
824,7	90,79
825,1	91,79
825,5	84,676
826	88,505
826,4	90,99
826,8	83,305
827,3	84,419
827,7	81,59
828,1	78,619
828,5	78,419
829	73,133
829,4	69,362
829,8	75,419
830,3	73,133
830,7	72,276
831,1	70,676
831,6	74,962
832	72,048
832,4	70,648
832,8	68,705
833,3	68,933
833,7	67,705
834,1	68,905
834,6	64,276
835	68,705
835,4	78,562
835,8	76,219
836,3	69,99
836,7	67,705
837,1	64,333
837,6	68,019
838	66,705
838,4	55,99
838,9	49,99
839,3	55,905
839,7	58,905
840,1	61,39
840,6	61,676
841	61,305
841,4	60,79
841,9	67,505
842,3	68,59
842,7	68,562
843,1	66,848
843,6	69,162
844	72,076
844,4	72,19
844,9	68,848
845,3	65,733
845,7	66,19
846,2	65,248
846,6	61,419
847	56,333
847,4	53,362
847,9	50,276
848,3	49,533
848,7	47,933
849,2	53,219
849,6	52,305
850	51,705
850,4	52,962
850,9	55,133
851,3	52,19
851,7	53,648
852,2	47,105
852,6	46,19
853	45,619
853,4	47,619
853,9	47,962
854,3	51,333
854,7	44,19
855,2	40,876
855,6	39,99
856	44,562
856,4	46,905
856,9	46,905
857,3	49,39
857,7	52,962
858,2	53,676
858,6	50,962
859	48,019
859,4	43,99
859,9	40,248
860,3	39,562
860,7	39,59
861,1	43,99
861,6	47,076
862	45,59
862,4	46,933
862,9	49,276
863,3	45,048
863,7	43,019
864,1	44,076
864,6	50,533
865	47,448
865,4	45,59
865,9	46,648
866,3	48,448
866,7	49,248
867,1	44,533
867,6	32,648
868	28,876
868,4	30,048
868,8	30,819
869,3	30,362
869,7	30,905
870,1	29,048
870,6	34,39
871	5,19
871,4	3,39
871,8	2,419
872,3	-3,181
872,7	-10,752
873,1	-7,467
873,5	-8,095
874	27,076
874,4	27,962
874,8	23,276
875,3	23,162
875,7	26,048
876,1	22,076
876,5	23,876
877	22,019
877,4	18,962
877,8	18,819
878,2	20,819
878,7	26,905
879,1	29,705
879,5	25,562
879,9	19,933
880,4	23,276
880,8	23,476
881,2	22,79
881,7	21,39
882,1	19,99
882,5	18,962
882,9	24,79
883,4	23,362
883,8	21,59
884,2	24,79
884,6	24,19
885,1	19,876
885,5	21,99
885,9	24,248
886,3	16,048
886,8	21,019
887,2	21,248
887,6	19,048
888	27,476
888,5	22,105
888,9	17,533
889,3	27,419
889,8	24,79
890,2	20,105
890,6	19,362
891	17,848
891,5	18,79
891,9	16,019
892,3	13,505
892,7	12,276
893,2	12,705
893,6	8,248
894	0,476
894,4	4,076
894,9	4,162
895,3	4,019
895,7	6,79
896,1	6,362
896,6	12,905
897	20,905
897,4	19,276
897,8	21,505
898,3	21,562
898,7	15,762
899,1	14,933
899,5	14,848
900	11,648
900,4	13,533
900,8	17,133
901,2	16,705
901,7	21,933
902,1	25,848
902,5	23,476
902,9	21,476
903,4	17,019
903,8	15,533
904,2	12,248
904,6	10,705
905,1	8,476
905,5	11,162
905,9	15,762
906,3	16,705
906,8	12,762
907,2	13,248
907,6	11,762
908	11,848
908,5	13,048
908,9	8,019
909,3	8,619
909,7	10,962
910,2	19,048
910,6	21,048
911	26,248
911,4	20,276
911,9	23,162
912,3	25,705
912,7	25,59
913,1	24,59
913,6	25,962
914	20,79
914,4	22,933
914,8	17,819
915,3	20,962
915,7	19,419
916,1	16,419
916,5	12,79
916,9	19,076
917,4	16,819
917,8	21,933
918,2	17,59
918,6	22,905
919,1	19,133
919,5	20,333
919,9	12,876
920,3	15,705
920,8	13,219
921,2	11,048
921,6	6,79
922	9,905
922,5	10,962
922,9	10,19
923,3	11,648
923,7	9,733
924,2	12,619
924,6	13,705
925	14,162
925,4	12,59
925,8	9,876
926,3	6,905
926,7	10,848
927,1	5,505
927,5	6,362
928	7,333
928,4	7,505
928,8	10,79
929,2	15,619
929,7	13,819
930,1	16,99
930,5	14,79
930,9	13,848
931,3	10,848
931,8	11,505
932,2	10,933
932,6	13,219
933	12,933
933,5	10,19
933,9	8,59
934,3	7,79
934,7	3,705
935,2	-1,438
935,6	-2,381
936	3,419
936,4	6,933
936,8	3,933
937,3	7,99
937,7	5,876
938,1	7,848
938,5	5,59
939	-0,381
939,4	2,905
939,8	8,676
940,2	9,248
940,6	16,848
941,1	15,133
941,5	14,99
941,9	16,762
942,3	11,448
942,8	6,705
943,2	3,676
943,6	3,476
944	0,505
944,4	-2,238
944,9	-3,267
945,3	-4,524
945,7	-0,524
946,1	-2,524
946,6	-2,295
947	3,105
947,4	3,819
947,8	4,019
948,2	8,562
948,7	2,733
949,1	5,076
949,5	0,448
949,9	0,619
950,3	4,105
950,8	0,362
951,2	1,219
951,6	6,933
952	8,876
952,5	12,99
952,9	9,733
953,3	6,876
953,7	9,19
954,1	9,619
954,6	5,619
955	6,562
955,4	7,533
955,8	6,048
956,2	7,562
956,7	12,362
957,1	6,362
957,5	7,476
957,9	3,505
958,3	-1,467
958,8	2,276
959,2	1,79
959,6	-0,524
960	3,733
960,5	0,705
960,9	1,762
961,3	6,162
961,7	2,619
962,1	2,733
962,6	4,048
963	2,99
963,4	8,048
963,8	10,676
964,2	7,562
964,7	6,105
965,1	6,362
965,5	3,705
965,9	3,219
966,3	1,162
966,8	1,219
967,2	4,362
967,6	8,076
968	5,648
968,4	7,59
968,9	9,676
969,3	10,219
969,7	8,305
970,1	6,705
970,5	6,619
971	7,219
971,4	6,733
971,8	6,39
972,2	5,076
972,6	8,876
973,1	8,762
973,5	9,962
973,9	13,562
974,3	14,476
974,7	11,648
975,2	13,505
975,6	10,419
976	10,79
976,4	6,362
976,8	7,133
977,3	7,305
977,7	6,933
978,1	3,305
978,5	2,562
978,9	-0,667
979,4	-0,438
979,8	-4,981
980,2	-7,238
980,6	-7,752
981	-5,152
981,5	-11,495
981,9	-6,095
982,3	0,848
982,7	-1,524
983,1	-2,924
983,6	-3,067
984	-6,838
984,4	0,505
984,8	-4,181
985,2	-7,752
985,6	-6,038
986,1	-6,295
986,5	2,019
986,9	4,819
987,3	3,562
987,7	4,419
988,2	3,962
988,6	8,39
989	10,333
989,4	5,333
989,8	7,676
990,3	12,905
990,7	17,819
991,1	14,79
991,5	19,762
991,9	19,076
992,3	19,848
992,8	18,362
993,2	11,019
993,6	5,276
994	9,905
994,4	2,562
994,9	1,019
995,3	2,362
995,7	4,048
996,1	7,333
996,5	7,505
996,9	1,705
997,4	2,019
997,8	5,619
998,2	0,905
998,6	-4,181
999	-6,467
999,5	-7,667
999,9	-0,981
1000,3	-1,781
1000,7	0,19
1001,1	3,219
1001,5	0,048
1002	0,905
1002,4	1,762
1002,8	-1,352
1003,2	-0,152
1003,6	-3,067
1004	-3,352
1004,5	3,362
1004,9	4,219
1005,3	5,59
1005,7	4,276
1006,1	4,248
1006,6	-0,181
1007	-3,095
1007,4	-2,695
1007,8	-4,524
1008,2	-2,61
1008,6	-3,038
1009,1	-1,981
1009,5	5,248
1009,9	7,276
1010,3	1,676
1010,7	5,648
1011,1	4,476
1011,6	9,133
1012	9,39
1012,4	5,448
1012,8	3,362
1013,2	6,333
1013,6	6,048
1014,1	3,019
1014,5	0,419
1014,9	1,162
1015,3	1,762
1015,7	5,505
1016,1	9,99
1016,6	10,562
1017	14,505
1017,4	13,476
1017,8	13,419
1018,2	9,019
1018,6	6,848
1019,1	5,133
1019,5	3,619
1019,9	0,505
1020,3	0,562
1020,7	-7,981
1021,1	-6,638
1021,6	-4,495
1022	-1,152
1022,4	-4,495
1022,8	-2,41
1023,2	0,933
1023,6	5,305
1024,1	5,59
1024,5	-0,238
1024,9	-4,924
1025,3	-4,067
1025,7	-2,41
1026,1	-6,752
1026,6	-5,61
1027	-3,638
1027,4	-1,21
1027,8	0,648
1028,2	4,848
1028,6	4,048
1029	2,362
1029,5	0,562
1029,9	-6,981
1030,3	-9,181
1030,7	-10,467
1031,1	-11,295
1031,5	-16,695
1032	-14,295
1032,4	-11,01
1032,8	-8,952
1033,2	-4,924
1033,6	-3,124
1034	-4,581
1034,4	-0,181
1034,9	1,219
1035,3	1,933
1035,7	9,562
1036,1	14,248
1036,5	11,962
1036,9	15,59
1037,4	18,448
1037,8	20,076
1038,2	23,876
1038,6	20,79
1039	13,362
1039,4	15,99
1039,8	12,162
1040,3	11,848
1040,7	10,819
1041,1	7,248
1041,5	7,848
1041,9	11,733
1042,3	12,79
1042,7	10,533
1043,2	8,848
1043,6	9,305
1044	6,99
1044,4	13,705
1044,8	12,219
1045,2	5,19
1045,6	9,105
1046,1	8,39
1046,5	7,505
1046,9	9,648
1047,3	2,562
1047,7	3,048
1048,1	3,562
1048,5	1,99
1049	7,019
1049,4	8,733
1049,8	7,79
1050,2	6,876
1050,6	5,219
1051	9,39
1051,4	5,848
1051,9	-6,152
1052,3	-6,41
1052,7	-7,61
1053,1	-8,867
1053,5	-7,438
1053,9	-8,724
1054,3	-3,438
1054,8	8,048
1055,2	6,305
1055,6	7,019
1056	8,733
1056,4	13,733
1056,8	17,276
1057,2	14,505
1057,6	2,733
1058,1	-0,152
1058,5	-3,181
1058,9	-0,61
1059,3	-3,81
1059,7	-4,295
1060,1	0,476
1060,5	6,648
1061	13,362
1061,4	13,362
1061,8	11,905
1062,2	9,819
1062,6	2,99
1063	-0,467
1063,4	-0,067
1063,8	-5,238
1064,3	-0,438
1064,7	0,619
1065,1	-0,981
1065,5	1,876
1065,9	0,39
1066,3	2,39
1066,7	5,99
1067,1	4,248
1067,6	6,676
1068	3,362
1068,4	7,076
1068,8	8,362
1069,2	7,19
1069,6	3,733
1070	3,076
1070,4	1,819
1070,9	2,905
1071,3	2,048
1071,7	4,619
1072,1	6,133
1072,5	9,848
1072,9	15,133
1073,3	11,39
1073,7	10,362
1074,2	10,448
1074,6	2,076
1075	5,476
1075,4	7,59
1075,8	0,905
1076,2	2,448
1076,6	6,876
1077	1,933
1077,5	12,59
1077,9	6,048
1078,3	1,733
1078,7	3,819
1079,1	0,99
1079,5	2,39
1079,9	3,505
1080,3	-3,524
1080,7	-0,295
1081,2	-0,61
1081,6	3,105
1082	2,476
1082,4	2,533
1082,8	6,676
1083,2	6,962
1083,6	1,019
1084	3,048
1084,5	-0,267
1084,9	-0,524
1085,3	-2,781
1085,7	-8,61
1086,1	-5,181
1086,5	0,676
1086,9	0,419
1087,3	3,505
1087,7	5,333
1088,2	10,39
1088,6	14,019
1089	9,305
1089,4	6,933
1089,8	5,562
1090,2	0,105
1090,6	1,362
1091	-0,695
1091,4	-1,867
1091,9	1,362
1092,3	5,419
1092,7	4,19
1093,1	10,248
1093,5	12,333
1093,9	13,876
1094,3	14,99
1094,7	17,105
1095,1	17,362
1095,5	22,276
1096	18,276
1096,4	20,876
1096,8	17,476
1097,2	19,448
1097,6	16,162
1098	12,933
1098,4	7,676
1098,8	6,762
1099,2	2,019
1099,6	3,419
1100,1	0,59
1100,5	2,59
1100,9	1,162
1101,3	3,105
1101,7	2,39
1102,1	5,162
1102,5	4,362
1102,9	8,676
1103,3	4,419
1103,7	8,019
1104,2	9,962
1104,6	12,248
1105	12,905
1105,4	11,933
1105,8	7,819
1106,2	10,876
1106,6	7,39
1107	5,19
1107,4	4,733
1107,8	0,933
1108,3	0,283
