Data from Subt2_078.txt Node
Date: Sat Aug 26 16:38:54 MSK 2023
User: vat
Spectrometer: MAYP114033
Trigger mode: 0
Integration Time (sec): 1,000000E0
Scans to average: 5
Electric dark correction enabled: true
Nonlinearity correction enabled: false
Boxcar width: 3
XAxis mode: Wavelengths
Number of Pixels in Spectrum: 2068
>>>>>Begin Spectral Data<<<<<
199,4	0,733
199,9	4,313
200,4	1,833
200,8	0,576
201,3	3,89
201,8	6,776
202,2	10,405
202,7	11,776
203,2	9,462
203,6	11,319
204,1	12,462
204,6	13,462
205	13,033
205,5	12,033
206	10,605
206,4	11,376
206,9	10,719
207,4	14,862
207,8	11,948
208,3	10,148
208,8	6,262
209,2	8,176
209,7	5,033
210,2	11,89
210,6	8,976
211,1	4,748
211,5	2,919
212	4,09
212,5	1,176
212,9	5,148
213,4	-0,424
213,9	-3,224
214,3	-0,767
214,8	0,376
215,3	0,319
215,7	-0,795
216,2	1,062
216,7	-2,224
217,1	-0,252
217,6	1,119
218,1	2,062
218,5	3,033
219	13,49
219,5	10,205
219,9	12,09
220,4	9,405
220,9	7,776
221,3	6,376
221,8	4,633
222,3	-2,138
222,7	-5,481
223,2	-2,738
223,6	-0,852
224,1	3,805
224,6	3,205
225	4,09
225,5	8,433
226	11,376
226,4	10,148
226,9	9,862
227,4	9,005
227,8	7,69
228,3	11,176
228,8	4,605
229,2	6,348
229,7	3,719
230,2	8,433
230,6	3,548
231,1	5,633
231,5	3,119
232	11,89
232,5	11,519
232,9	17,633
233,4	15,89
233,9	20,576
234,3	21,976
234,8	25,09
235,3	17,89
235,7	21,833
236,2	18,176
236,7	21,662
237,1	18,376
237,6	17,09
238,1	16,662
238,5	17,719
239	10,862
239,4	13,09
239,9	10,262
240,4	12,662
240,8	16,89
241,3	11,062
241,8	7,348
242,2	8,662
242,7	8,748
243,2	5,919
243,6	4,719
244,1	1,005
244,6	3,405
245	7,033
245,5	8,033
245,9	6,09
246,4	2,976
246,9	5,005
247,3	4,976
247,8	5,69
248,3	8,005
248,7	14,69
249,2	10,805
249,7	16,833
250,1	13,262
250,6	15,776
251	18,233
251,5	14,119
252	6,348
252,4	12,319
252,9	9,69
253,4	13,662
253,8	9,862
254,3	7,576
254,8	7,205
255,2	6,548
255,7	5,233
256,1	4,605
256,6	1,662
257,1	6,205
257,5	9,462
258	11,976
258,5	13,976
258,9	16,205
259,4	16,748
259,9	20,062
260,3	15,605
260,8	13,519
261,2	15,09
261,7	14,862
262,2	10,49
262,6	8,69
263,1	4,433
263,6	8,919
264	6,748
264,5	6,862
264,9	6,176
265,4	6,633
265,9	12,09
266,3	15,633
266,8	12,719
267,3	15,719
267,7	12,662
268,2	11,348
268,7	10,462
269,1	6,519
269,6	6,033
270	8,919
270,5	12,748
271	15,005
271,4	12,376
271,9	12,148
272,4	15,433
272,8	12,862
273,3	8,605
273,7	-3,852
274,2	-5,824
274,7	-0,91
275,1	-1,967
275,6	-0,652
276,1	2,605
276,5	5,09
277	13,29
277,4	13,748
277,9	14,262
278,4	16,89
278,8	17,69
279,3	11,805
279,8	14,89
280,2	10,633
280,7	10,148
281,1	11,148
281,6	11,49
282,1	9,405
282,5	15,433
283	15,862
283,4	15,776
283,9	13,148
284,4	13,119
284,8	13,719
285,3	11,405
285,8	6,176
286,2	2,176
286,7	6,119
287,1	8,89
287,6	12,148
288,1	14,376
288,5	15,176
289	18,062
289,5	17,433
289,9	13,548
290,4	14,233
290,8	14,69
291,3	11,519
291,8	10,833
292,2	15,119
292,7	17,262
293,1	17,805
293,6	14,09
294,1	7,433
294,5	9,519
295	9,148
295,5	7,776
295,9	8,748
296,4	10,29
296,8	11,062
297,3	15,519
297,8	12,89
298,2	8,319
298,7	5,29
299,1	3,29
299,6	6,319
300,1	9,519
300,5	8,833
301	14,919
301,5	19,662
301,9	18,09
302,4	17,319
302,8	12,69
303,3	12,005
303,8	7,462
304,2	3,862
304,7	4,633
305,1	5,862
305,6	4,948
306,1	8,976
306,5	11,148
307	13,948
307,4	11,348
307,9	13,29
308,4	15,862
308,8	20,176
309,3	19,89
309,8	20,033
310,2	16,433
310,7	22,548
311,1	16,433
311,6	14,548
312,1	11,719
312,5	10,262
313	9,719
313,4	14,976
313,9	13,633
314,4	15,833
314,8	17,348
315,3	17,519
315,7	17,148
316,2	14,319
316,7	14,462
317,1	12,662
317,6	16,29
318	15,376
318,5	19,548
319	18,576
319,4	20,119
319,9	18,919
320,3	22,633
320,8	20,033
321,3	18,69
321,7	14,548
322,2	15,119
322,6	13,976
323,1	14,919
323,6	9,405
324	13,062
324,5	11,262
324,9	13,462
325,4	13,948
325,9	21,405
326,3	20,262
326,8	19,776
327,2	18,462
327,7	23,033
328,2	20,148
328,6	22,119
329,1	15,605
329,5	17,262
330	22,148
330,5	16,205
330,9	14,662
331,4	12,205
331,8	15,976
332,3	19,519
332,8	14,69
333,2	8,376
333,7	14,005
334,1	15,205
334,6	17,433
335,1	15,776
335,5	15,319
336	14,605
336,4	20,262
336,9	23,033
337,4	20,462
337,8	27,033
338,3	23,29
338,7	19,919
339,2	23,805
339,7	20,005
340,1	15,519
340,6	14,09
341	11,548
341,5	12,348
342	14,719
342,4	15,033
342,9	14,376
343,3	16,719
343,8	21,433
344,2	19,405
344,7	19,576
345,2	19,119
345,6	21,605
346,1	26,548
346,5	30,033
347	28,605
347,5	25,205
347,9	26,148
348,4	25,348
348,8	24,833
349,3	19,576
349,8	14,376
350,2	14,748
350,7	21,405
351,1	24,29
351,6	27,833
352	33,033
352,5	39,405
353	50,205
353,4	61,119
353,9	69,519
354,3	81,776
354,8	93,633
355,3	109,233
355,7	133,262
356,2	158,176
356,6	190,548
357,1	223,405
357,5	261,119
358	312,119
358,5	366,233
358,9	422,062
359,4	486,69
359,8	553,605
360,3	639,233
360,8	729,719
361,2	833,662
361,7	944,919
362,1	1070,119
362,6	1205,405
363	1352,719
363,5	1505,119
364	1666,605
364,4	1823,519
364,9	1983,033
365,3	2146,233
365,8	2300,919
366,3	2444,49
366,7	2574,805
367,2	2689,062
367,6	2785,89
368,1	2860,005
368,5	2901,319
369	2923,119
369,5	2924,605
369,9	2904,09
370,4	2861,948
370,8	2793,548
371,3	2714,09
371,7	2618,862
372,2	2510,348
372,7	2385,633
373,1	2264,119
373,6	2129,119
374	1996,748
374,5	1862,033
374,9	1733,233
375,4	1607,205
375,9	1493,29
376,3	1371,948
376,8	1266,49
377,2	1171,176
377,7	1078,805
378,2	991,833
378,6	909,662
379,1	829,833
379,5	762,148
380	702,776
380,4	640,69
380,9	587,319
381,4	539,433
381,8	499,748
382,3	462,576
382,7	424,033
383,2	389,233
383,6	363,176
384,1	339,405
384,6	315,09
385	289,348
385,5	272,319
385,9	258,948
386,4	243,462
386,8	230,29
387,3	215,376
387,7	203,69
388,2	194,633
388,7	180,576
389,1	165,662
389,6	152,805
390	138,862
390,5	129,033
390,9	124,376
391,4	116,633
391,9	106,09
392,3	96,548
392,8	91,176
393,2	87,405
393,7	85,09
394,1	76,948
394,6	73,376
395,1	75,405
395,5	76,405
396	74,776
396,4	70,919
396,9	66,09
397,3	62,662
397,8	57,576
398,2	51,748
398,7	47,319
399,2	40,89
399,6	42,548
400,1	37,119
400,5	37,405
401	40,405
401,4	42,09
401,9	45,348
402,4	49,348
402,8	48,033
403,3	48,948
403,7	47,462
404,2	42,976
404,6	39,748
405,1	36,062
405,5	28,405
406	23,948
406,5	21,49
406,9	22,062
407,4	21,49
407,8	27,29
408,3	29,633
408,7	41,833
409,2	45,662
409,6	51,176
410,1	59,662
410,6	62,89
411	60,176
411,5	60,948
411,9	55,433
412,4	57,805
412,8	57,605
413,3	56,462
413,7	60,376
414,2	63,09
414,7	71,348
415,1	72,576
415,6	79,319
416	87,09
416,5	89,09
416,9	88,148
417,4	90,948
417,8	90,519
418,3	97,919
418,8	90,376
419,2	91,233
419,7	93,319
420,1	93,376
420,6	95,433
421	95,405
421,5	93,919
421,9	95,176
422,4	96,376
422,8	91,976
423,3	94,29
423,8	100,69
424,2	102,805
424,7	107,148
425,1	112,776
425,6	117,833
426	124,662
426,5	128,862
426,9	126,862
427,4	122,805
427,9	113,433
428,3	114,576
428,8	112,348
429,2	108,09
429,7	104,576
430,1	104,376
430,6	108,09
431	112,29
431,5	113,376
431,9	111,233
432,4	114,319
432,8	123,462
433,3	122,576
433,8	129,633
434,2	137,005
434,7	138,062
435,1	141,89
435,6	151,033
436	152,69
436,5	166,405
436,9	169,205
437,4	179,69
437,8	186,29
438,3	194,662
438,8	194,833
439,2	197,748
439,7	196,176
440,1	204,633
440,6	212,319
441	220,062
441,5	229,29
441,9	245,719
442,4	261,919
442,8	274,976
443,3	282,719
443,7	291,976
444,2	306,976
444,7	321,948
445,1	331,348
445,6	343,262
446	359,005
446,5	372,319
446,9	386,89
447,4	407,662
447,8	418,433
448,3	436,062
448,7	452,433
449,2	471,033
449,6	489,205
450,1	511,548
450,6	525,69
451	548,605
451,5	566,633
451,9	588,576
452,4	607,519
452,8	631,948
453,3	647,548
453,7	667,805
454,2	691,376
454,6	717,605
455,1	735,605
455,5	760,748
456	785,633
456,4	816,519
456,9	842,748
457,3	871,205
457,8	898,919
458,3	934,09
458,7	963,033
459,2	995,433
459,6	1021,033
460,1	1050,119
460,5	1080,033
461	1104,548
461,4	1135,29
461,9	1168,405
462,3	1197,119
462,8	1230,148
463,2	1267,205
463,7	1298,49
464,1	1342,662
464,6	1378,548
465	1416,69
465,5	1456,633
466	1494,519
466,4	1531,69
466,9	1573,319
467,3	1606,662
467,8	1649,805
468,2	1683,348
468,7	1715,633
469,1	1753,148
469,6	1792,748
470	1832,776
470,5	1874,433
470,9	1908,348
471,4	1944,262
471,8	1987,376
472,3	2025,862
472,7	2063,348
473,2	2093,49
473,6	2127,976
474,1	2161,662
474,5	2204,805
475	2245,976
475,4	2286,348
475,9	2330,976
476,4	2370,233
476,8	2417,148
477,3	2460,233
477,7	2502,119
478,2	2533,576
478,6	2567,462
479,1	2599,29
479,5	2638,49
480	2666,205
480,4	2702,062
480,9	2733,262
481,3	2768,776
481,8	2805,205
482,2	2836,862
482,7	2868,948
483,1	2904,833
483,6	2926,148
484	2953,233
484,5	2986,805
484,9	3013,205
485,4	3044,519
485,8	3073,948
486,3	3097,405
486,7	3135,776
487,2	3169,605
487,6	3194,405
488,1	3221,576
488,5	3243,862
489	3265,176
489,4	3286,976
489,9	3306,205
490,4	3320,919
490,8	3337,69
491,3	3360,433
491,7	3377,376
492,2	3403,062
492,6	3424,09
493,1	3437,433
493,5	3454,29
494	3472,919
494,4	3485,176
494,9	3499,776
495,3	3509,09
495,8	3529,805
496,2	3545,233
496,7	3554,148
497,1	3570,433
497,6	3579,805
498	3590,519
498,5	3602,805
498,9	3611,376
499,4	3627,319
499,8	3641,262
500,3	3653,976
500,7	3669,148
501,2	3687,719
501,6	3701,005
502,1	3707,662
502,5	3713,919
503	3732,948
503,4	3740,262
503,9	3753,176
504,3	3760,519
504,8	3769,89
505,2	3776,89
505,7	3787,433
506,1	3794,633
506,6	3803,633
507	3808,319
507,5	3815,376
507,9	3817,405
508,4	3825,176
508,8	3828,433
509,3	3830,576
509,7	3828,976
510,2	3830,062
510,6	3828,69
511,1	3838,062
511,5	3845,605
512	3855,205
512,4	3861,776
512,9	3867,862
513,3	3882,605
513,8	3890,948
514,2	3895,833
514,7	3902,148
515,1	3908,462
515,6	3909,062
516	3914,719
516,5	3919,233
516,9	3924,633
517,4	3927,49
517,8	3933,776
518,3	3931,148
518,7	3937,005
519,2	3946,576
519,6	3945,633
520,1	3950,176
520,5	3955,976
521	3958,062
521,4	3965,948
521,9	3975,833
522,3	3979,49
522,8	3990,69
523,2	3996,662
523,7	4007,576
524,1	4017,805
524,6	4020,576
525	4029,262
525,5	4037,776
525,9	4037,49
526,4	4045,862
526,8	4043,433
527,3	4046,976
527,7	4054,919
528,2	4056,033
528,6	4061,976
529,1	4071,633
529,5	4075,262
530	4084,09
530,4	4088,833
530,9	4098,005
531,3	4102,09
531,8	4108,205
532,2	4115,319
532,6	4126,005
533,1	4132,548
533,5	4138,205
534	4151,576
534,4	4162,89
534,9	4168,776
535,3	4177,348
535,8	4186,662
536,2	4195,433
536,7	4205,776
537,1	4208,062
537,6	4216,49
538	4228,319
538,5	4236,748
538,9	4242,033
539,4	4249,319
539,8	4255,948
540,3	4260,605
540,7	4267,605
541,2	4274,176
541,6	4285,148
542,1	4296,662
542,5	4302,233
543	4314,605
543,4	4331,862
543,9	4340,433
544,3	4347,119
544,8	4351,29
545,2	4359,948
545,7	4379,89
546,1	4384,205
546,5	4390,662
547	4403,062
547,4	4410,119
547,9	4415,633
548,3	4421,919
548,8	4419,433
549,2	4423,862
549,7	4425,49
550,1	4427,062
550,6	4437,748
551	4447,033
551,5	4458,833
551,9	4468,348
552,4	4478,205
552,8	4487,776
553,3	4497,09
553,7	4505,405
554,2	4510,719
554,6	4517,005
555,1	4531,005
555,5	4537,976
555,9	4545,719
556,4	4556,09
556,8	4561,348
557,3	4570,119
557,7	4569,29
558,2	4569,976
558,6	4582,862
559,1	4591,776
559,5	4594,433
560	4599,348
560,4	4608,605
560,9	4619,29
561,3	4628,062
561,8	4634,89
562,2	4640,148
562,7	4646,005
563,1	4657,262
563,6	4656,548
564	4662,29
564,4	4667,119
564,9	4665,319
565,3	4668,633
565,8	4675,805
566,2	4673,062
566,7	4678,776
567,1	4675,948
567,6	4674,919
568	4688,319
568,5	4687,662
568,9	4682,233
569,4	4689,805
569,8	4690,662
570,3	4695,662
570,7	4695,09
571,1	4685,805
571,6	4687,519
572	4693,605
572,5	4689,805
572,9	4699,605
573,4	4700,69
573,8	4703,662
574,3	4705,005
574,7	4705,376
575,2	4702,719
575,6	4704,89
576,1	4696,462
576,5	4691,805
576,9	4693,976
577,4	4683,976
577,8	4677,69
578,3	4669,976
578,7	4662,348
579,2	4656,119
579,6	4659,862
580,1	4652,633
580,5	4651,605
581	4647,005
581,4	4652,319
581,9	4648,148
582,3	4642,148
582,7	4637,233
583,2	4629,376
583,6	4628,376
584,1	4627,062
584,5	4619,633
585	4614,005
585,4	4611,433
585,9	4609,633
586,3	4601,205
586,8	4588,576
587,2	4579,776
587,6	4566,548
588,1	4560,205
588,5	4550,833
589	4530,005
589,4	4528,719
589,9	4531,519
590,3	4525,233
590,8	4518,633
591,2	4507,976
591,7	4505,948
592,1	4501,776
592,5	4491,748
593	4474,919
593,4	4464,662
593,9	4454,89
594,3	4446,233
594,8	4433,205
595,2	4428,005
595,7	4419,462
596,1	4409,633
596,6	4402,976
597	4399,005
597,4	4393,405
597,9	4390,148
598,3	4381,662
598,8	4364,548
599,2	4365,462
599,7	4356,49
600,1	4344,748
600,6	4337,205
601	4329,09
601,4	4324,062
601,9	4318,833
602,3	4304,176
602,8	4292,376
603,2	4289,148
603,7	4280,833
604,1	4267,748
604,6	4243,119
605	4237,262
605,4	4220,319
605,9	4213,605
606,3	4202,548
606,8	4187,262
607,2	4163,976
607,7	4157,405
608,1	4148,719
608,6	4142,262
609	4125,776
609,4	4110,005
609,9	4096,376
610,3	4090,69
610,8	4078,719
611,2	4057,033
611,7	4040,062
612,1	4030,319
612,6	4020,662
613	4013,119
613,4	4001,548
613,9	3983,433
614,3	3974,948
614,8	3960,462
615,2	3947,89
615,7	3934,348
616,1	3909,719
616,6	3893,776
617	3880,89
617,4	3862,89
617,9	3850,776
618,3	3834,462
618,8	3811,833
619,2	3803,519
619,7	3794,033
620,1	3778,948
620,5	3765,605
621	3747,376
621,4	3726,633
621,9	3713,405
622,3	3700,176
622,8	3674,948
623,2	3667,319
623,6	3647,633
624,1	3641,919
624,5	3630,776
625	3610,176
625,4	3591,405
625,9	3581,633
626,3	3555,89
626,8	3544,433
627,2	3521,462
627,6	3506,948
628,1	3492,748
628,5	3470,548
629	3447,89
629,4	3433,376
629,9	3411,662
630,3	3391,433
630,7	3370,69
631,2	3351,262
631,6	3338,119
632,1	3320,062
632,5	3306,605
633	3287,319
633,4	3267,005
633,8	3247,89
634,3	3234,005
634,7	3219,748
635,2	3205,49
635,6	3185,005
636,1	3175,148
636,5	3166,748
636,9	3156,262
637,4	3136,833
637,8	3114,29
638,3	3096,09
638,7	3082,376
639,2	3062,605
639,6	3040,176
640	3019,862
640,5	3004,433
640,9	2992,633
641,4	2979,433
641,8	2956,519
642,2	2947,69
642,7	2934,748
643,1	2925,805
643,6	2910,033
644	2899,69
644,5	2886,062
644,9	2877,919
645,3	2859,548
645,8	2851,548
646,2	2827,233
646,7	2808,405
647,1	2788,233
647,6	2777,348
648	2757,29
648,4	2737,89
648,9	2724,262
649,3	2716,748
649,8	2708,776
650,2	2695,919
650,6	2675,462
651,1	2672,919
651,5	2670,005
652	2650,833
652,4	2630,405
652,9	2620,919
653,3	2606,719
653,7	2597,119
654,2	2581,176
654,6	2554,633
655,1	2539,748
655,5	2527,49
655,9	2511,433
656,4	2497,89
656,8	2478,69
657,3	2453,29
657,7	2442,062
658,2	2432,948
658,6	2420,776
659	2401,376
659,5	2385,548
659,9	2369,748
660,4	2360,948
660,8	2348,376
661,2	2329,576
661,7	2318,633
662,1	2306,462
662,6	2291,176
663	2285,49
663,4	2277,519
663,9	2269,576
664,3	2251,89
664,8	2231,005
665,2	2218,348
665,6	2205,805
666,1	2187,805
666,5	2168,633
667	2148,776
667,4	2141,433
667,9	2131,919
668,3	2114,29
668,7	2099,433
669,2	2087,605
669,6	2075,176
670,1	2061,748
670,5	2039,319
670,9	2025,176
671,4	2013,09
671,8	2000,89
672,3	1987,262
672,7	1972,833
673,1	1960,433
673,6	1950,69
674	1935,033
674,5	1929,719
674,9	1918,319
675,3	1904,948
675,8	1893,005
676,2	1880,205
676,7	1869,805
677,1	1862,862
677,5	1846,148
678	1835,805
678,4	1827,233
678,9	1814,462
679,3	1798,576
679,7	1789,833
680,2	1778,976
680,6	1768,033
681,1	1753,319
681,5	1739,005
681,9	1727,805
682,4	1723,719
682,8	1711,405
683,3	1693,005
683,7	1679,662
684,1	1668,49
684,6	1656,233
685	1648,433
685,5	1634,662
685,9	1621,833
686,3	1614,005
686,8	1607,548
687,2	1599,919
687,7	1587,033
688,1	1577,348
688,5	1568,033
689	1559,319
689,4	1552,176
689,9	1539,976
690,3	1534,29
690,7	1524,29
691,2	1509,348
691,6	1494,519
692	1485,005
692,5	1472,262
692,9	1461,205
693,4	1443,948
693,8	1433,919
694,2	1419,519
694,7	1411,719
695,1	1404,09
695,6	1392,919
696	1383,862
696,4	1371,062
696,9	1363,948
697,3	1360,748
697,8	1351,319
698,2	1335,776
698,6	1328,919
699,1	1317,09
699,5	1313,205
699,9	1301,49
700,4	1291,919
700,8	1289,376
701,3	1280,89
701,7	1269,49
702,1	1262,005
702,6	1249,519
703	1238,862
703,5	1231,576
703,9	1221,89
704,3	1216,976
704,8	1216,148
705,2	1208,948
705,6	1197,919
706,1	1198,89
706,5	1190,462
707	1177,519
707,4	1173,005
707,8	1160,519
708,3	1152,776
708,7	1155,233
709,2	1146,376
709,6	1143,005
710	1139,919
710,5	1129,433
710,9	1122,548
711,3	1113,948
711,8	1099,576
712,2	1088,948
712,7	1079,405
713,1	1068,948
713,5	1058,776
714	1051,176
714,4	1047,319
714,8	1040,805
715,3	1036,719
715,7	1022,719
716,2	1011,119
716,6	1008,348
717	999,976
717,5	990,462
717,9	984,119
718,3	975,062
718,8	971,719
719,2	968,776
719,7	961,519
720,1	953,148
720,5	944,062
721	934,49
721,4	928,005
721,8	920,833
722,3	911,748
722,7	899,205
723,2	891,148
723,6	887,633
724	884,062
724,5	870,919
724,9	860,862
725,3	849,833
725,8	845,033
726,2	836,719
726,7	828,519
727,1	820,69
727,5	822,062
728	820,119
728,4	818,176
728,8	814,862
729,3	813,719
729,7	811,433
730,1	803,776
730,6	795,805
731	795,862
731,5	790,776
731,9	784,005
732,3	779,319
732,8	773,176
733,2	773,948
733,6	770,233
734,1	761,033
734,5	758,576
734,9	754,633
735,4	749,09
735,8	741,405
736,3	735,405
736,7	729,49
737,1	726,205
737,6	717,576
738	716,633
738,4	718,29
738,9	715,29
739,3	708,605
739,7	706,776
740,2	701,033
740,6	701,862
741,1	692,062
741,5	685,919
741,9	680,09
742,4	675,805
742,8	674,805
743,2	670,919
743,7	668,005
744,1	662,576
744,5	654,062
745	648,833
745,4	645,033
745,8	635,776
746,3	636,576
746,7	629,89
747,2	630,29
747,6	625,833
748	621,833
748,5	616,262
748,9	612,633
749,3	601,776
749,8	593,919
750,2	589,69
750,6	586,348
751,1	588,69
751,5	582,576
751,9	579,405
752,4	574,948
752,8	573,833
753,3	565,776
753,7	562,605
754,1	550,005
754,6	547,205
755	539,433
755,4	536,948
755,9	532,719
756,3	527,662
756,7	524,376
757,2	521,862
757,6	521,548
758	517,119
758,5	510,29
758,9	507,405
759,3	504,662
759,8	499,805
760,2	503,833
760,6	497,348
761,1	496,748
761,5	494,09
761,9	490,719
762,4	490,319
762,8	488,405
763,3	477,69
763,7	474,69
764,1	470,376
764,6	468,576
765	463,376
765,4	463,262
765,9	451,376
766,3	448,605
766,7	447,805
767,2	446,976
767,6	437,976
768	437,662
768,5	430,348
768,9	430,748
769,3	432,262
769,8	429,348
770,2	429,205
770,6	428,948
771,1	426,919
771,5	423,919
771,9	424,376
772,4	423,033
772,8	418,405
773,2	413,548
773,7	414,176
774,1	411,005
774,5	411,833
775	406,233
775,4	397,205
775,8	398,205
776,3	391,319
776,7	393,948
777,1	395,062
777,6	386,976
778	387,776
778,4	388,29
778,9	381,919
779,3	381,919
779,7	372,748
780,2	363,776
780,6	364,548
781	361,462
781,5	360,376
781,9	359,919
782,3	354,062
782,8	348,605
783,2	344,29
783,6	338,519
784,1	339,548
784,5	332,519
784,9	329,919
785,4	330,49
785,8	323,948
786,2	324,576
786,7	321,89
787,1	318,976
787,5	318,919
788	317,233
788,4	313,062
788,8	316,09
789,3	318,776
789,7	316,748
790,1	314,262
790,6	313,519
791	310,748
791,4	305,69
791,9	307,748
792,3	298,49
792,7	300,376
793,2	292,519
793,6	291,462
794	286,262
794,5	288,948
794,9	289,519
795,3	291,548
795,8	286,976
796,2	287,89
796,6	281,29
797,1	278,519
797,5	278,462
797,9	273,205
798,4	268,033
798,8	263,89
799,2	262,948
799,7	264,976
800,1	264,405
800,5	256,09
801	254,719
801,4	254,605
801,8	255,348
802,2	251,719
802,7	249,633
803,1	245,119
803,5	246,748
804	243,605
804,4	238,776
804,8	236,633
805,3	235,062
805,7	231,605
806,1	234,319
806,6	234,548
807	235,09
807,4	235,205
807,9	231,862
808,3	228,605
808,7	227,49
809,2	224,862
809,6	224,605
810	222,662
810,4	222,29
810,9	219,605
811,3	220,176
811,7	214,405
812,2	216,633
812,6	213,033
813	210,833
813,5	206,49
813,9	205,176
814,3	199,148
814,8	203,09
815,2	196,948
815,6	187,233
816,1	181,633
816,5	178,148
816,9	179,805
817,3	181,148
817,8	179,919
818,2	175,748
818,6	185,462
819,1	187,033
819,5	189,205
819,9	185,89
820,4	186,89
820,8	180,833
821,2	183,69
821,7	179,062
822,1	175,833
822,5	172,462
822,9	176,862
823,4	170,29
823,8	170,89
824,2	170,033
824,7	171,405
825,1	170,405
825,5	174,262
826	172,748
826,4	178,862
826,8	179,69
827,3	178,89
827,7	176,805
828,1	178,976
828,5	177,09
829	169,833
829,4	166,462
829,8	160,862
830,3	155,119
830,7	147,862
831,1	144,719
831,6	138,862
832	132,805
832,4	130,148
832,8	133,433
833,3	129,348
833,7	133,605
834,1	128,662
834,6	128,005
835	134,976
835,4	135,062
835,8	129,519
836,3	134,119
836,7	125,548
837,1	126,462
837,6	125,89
838	122,062
838,4	117,319
838,9	121,948
839,3	121,976
839,7	126,348
840,1	124,805
840,6	123,576
841	122,89
841,4	123,09
841,9	115,09
842,3	115,462
842,7	112,433
843,1	115,005
843,6	115,205
844	113,233
844,4	115,919
844,9	121,748
845,3	117,09
845,7	119,89
846,2	115,976
846,6	113,662
847	112,033
847,4	108,205
847,9	104,776
848,3	106,719
848,7	106,919
849,2	112,462
849,6	113,148
850	113,605
850,4	116,776
850,9	115,462
851,3	109,233
851,7	107,805
852,2	101,805
852,6	100,633
853	104,662
853,4	102,805
853,9	102,09
854,3	101,176
854,7	96,348
855,2	94,776
855,6	92,633
856	82,376
856,4	79,376
856,9	76,976
857,3	77,005
857,7	78,49
858,2	76,633
858,6	81,405
859	81,433
859,4	78,319
859,9	80,433
860,3	82,719
860,7	83,176
861,1	87,176
861,6	82,033
862	87,519
862,4	89,719
862,9	87,376
863,3	83,776
863,7	78,033
864,1	72,948
864,6	73,805
865	70,776
865,4	67,49
865,9	63,862
866,3	69,09
866,7	71,748
867,1	74,719
867,6	72,148
868	73,233
868,4	74,319
868,8	76,662
869,3	75,033
869,7	72,348
870,1	73,49
870,6	70,205
871	138,176
871,4	131,033
871,8	131,348
872,3	130,69
872,7	131,833
873,1	130,09
873,5	134,862
874	66,062
874,4	70,348
874,8	69,319
875,3	64,405
875,7	63,29
876,1	57,205
876,5	58,348
877	54,29
877,4	56,09
877,8	61,205
878,2	59,062
878,7	64,005
879,1	64,805
879,5	65,348
879,9	63,89
880,4	59,09
880,8	52,148
881,2	59,49
881,7	56,433
882,1	58,148
882,5	50,433
882,9	55,262
883,4	62,862
883,8	60,89
884,2	54,862
884,6	55,462
885,1	57,433
885,5	67,233
885,9	67,662
886,3	64,462
886,8	65,433
887,2	64,576
887,6	58,49
888	57,69
888,5	53,976
888,9	53,548
889,3	49,205
889,8	50,033
890,2	48,148
890,6	50,262
891	47,805
891,5	47,09
891,9	41,005
892,3	44,633
892,7	42,69
893,2	45,576
893,6	45,433
894	45,833
894,4	44,148
894,9	49,69
895,3	45,719
895,7	49,176
896,1	51,233
896,6	50,148
897	49,833
897,4	44,033
897,8	39,776
898,3	46,919
898,7	44,29
899,1	44,29
899,5	46,49
900	43,376
900,4	46,405
900,8	48,833
901,2	44,49
901,7	45,548
902,1	45,462
902,5	44,662
902,9	49,005
903,4	52,948
903,8	47,205
904,2	50,262
904,6	45,348
905,1	44,919
905,5	39,205
905,9	38,433
906,3	31,405
906,8	36,919
907,2	32,319
907,6	38,662
908	31,748
908,5	37,49
908,9	33,748
909,3	33,89
909,7	30,919
910,2	29,319
910,6	25,662
911	31,233
911,4	27,662
911,9	31,29
912,3	31,405
912,7	33,919
913,1	32,09
913,6	33,633
914	31,49
914,4	28,405
914,8	26,833
915,3	30,405
915,7	25,519
916,1	26,348
916,5	24,548
916,9	24,319
917,4	28,033
917,8	22,576
918,2	15,462
918,6	18,205
919,1	19,576
919,5	22,49
919,9	23,576
920,3	27,319
920,8	30,176
921,2	41,919
921,6	42,262
922	40,233
922,5	36,405
922,9	32,519
923,3	33,633
923,7	32,205
924,2	21,348
924,6	16,69
925	17,948
925,4	20,976
925,8	23,833
926,3	25,176
926,7	26,233
927,1	30,519
927,5	34,976
928	34,433
928,4	32,776
928,8	37,319
929,2	30,062
929,7	30,633
930,1	26,89
930,5	24,919
930,9	28,405
931,3	29,29
931,8	21,319
932,2	22,49
932,6	26,776
933	28,148
933,5	26,233
933,9	23,09
934,3	22,69
934,7	29,09
935,2	30,49
935,6	21,919
936	22,119
936,4	23,948
936,8	21,319
937,3	19,033
937,7	16,548
938,1	12,89
938,5	18,09
939	20,148
939,4	20,376
939,8	23,29
940,2	22,176
940,6	19,176
941,1	23,062
941,5	23,948
941,9	23,176
942,3	21,49
942,8	21,09
943,2	19,548
943,6	23,719
944	20,89
944,4	14,29
944,9	13,805
945,3	14,29
945,7	15,062
946,1	20,09
946,6	19,633
947	20,662
947,4	23,233
947,8	22,005
948,2	24,176
948,7	21,776
949,1	14,576
949,5	13,29
949,9	14,948
950,3	18,119
950,8	17,519
951,2	17,233
951,6	21,833
952	23,805
952,5	21,062
952,9	14,033
953,3	9,405
953,7	13,176
954,1	13,948
954,6	11,376
955	14,29
955,4	15,148
955,8	20,805
956,2	19,919
956,7	17,148
957,1	12,862
957,5	11,09
957,9	10,376
958,3	14,233
958,8	14,376
959,2	16,205
959,6	17,348
960	20,205
960,5	19,262
960,9	17,062
961,3	11,919
961,7	7,576
962,1	5,805
962,6	6,776
963	7,262
963,4	7,233
963,8	6,176
964,2	6,433
964,7	6,09
965,1	7,662
965,5	8,062
965,9	8,29
966,3	8,548
966,8	10,148
967,2	13,576
967,6	14,405
968	16,462
968,4	14,033
968,9	15,29
969,3	14,833
969,7	12,662
970,1	10,976
970,5	15,548
971	11,862
971,4	13,348
971,8	9,176
972,2	14,348
972,6	13,976
973,1	14,833
973,5	15,976
973,9	19,69
974,3	16,205
974,7	14,576
975,2	13,205
975,6	10,405
976	12,09
976,4	8,148
976,8	4,719
977,3	8,119
977,7	10,09
978,1	8,89
978,5	14,919
978,9	8,948
979,4	8,148
979,8	12,205
980,2	6,433
980,6	9,576
981	11,062
981,5	12,062
981,9	11,405
982,3	7,605
982,7	4,633
983,1	11,09
983,6	11,262
984	9,205
984,4	10,776
984,8	12,919
985,2	18,748
985,6	22,262
986,1	21,176
986,5	14,233
986,9	15,119
987,3	8,205
987,7	8,433
988,2	6,319
988,6	5,405
989	6,719
989,4	16,148
989,8	12,576
990,3	17,776
990,7	18,176
991,1	15,89
991,5	10,719
991,9	11,376
992,3	8,433
992,8	16,719
993,2	18,719
993,6	19,833
994	21,319
994,4	23,376
994,9	21,033
995,3	19,062
995,7	14,376
996,1	10,376
996,5	7,005
996,9	6,29
997,4	5,462
997,8	3,119
998,2	4,005
998,6	7,576
999	9,033
999,5	10,09
999,9	13,49
1000,3	18,09
1000,7	16,976
1001,1	16,148
1001,5	9,176
1002	7,205
1002,4	8,976
1002,8	9,405
1003,2	7,833
1003,6	11,405
1004	8,519
1004,5	7,919
1004,9	8,548
1005,3	6,748
1005,7	2,433
1006,1	-0,595
1006,6	-0,31
1007	0,919
1007,4	6,405
1007,8	6,462
1008,2	4,462
1008,6	6,976
1009,1	7,719
1009,5	12,748
1009,9	22,205
1010,3	20,09
1010,7	24,748
1011,1	32,148
1011,6	30,233
1012	29,519
1012,4	24,148
1012,8	11,89
1013,2	10,148
1013,6	3,148
1014,1	1,033
1014,5	1,833
1014,9	3,462
1015,3	3,805
1015,7	6,805
1016,1	8,348
1016,6	15,262
1017	13,862
1017,4	13,776
1017,8	12,805
1018,2	7,948
1018,6	10,119
1019,1	6,262
1019,5	6,033
1019,9	6,919
1020,3	8,433
1020,7	10,948
1021,1	15,148
1021,6	11,348
1022	7,519
1022,4	5,662
1022,8	5,805
1023,2	5,805
1023,6	4,69
1024,1	7,033
1024,5	10,976
1024,9	19,89
1025,3	19,148
1025,7	18,205
1026,1	18,748
1026,6	21,119
1027	15,033
1027,4	14,69
1027,8	13,805
1028,2	11,348
1028,6	12,719
1029	8,233
1029,5	7,09
1029,9	9,405
1030,3	13,433
1030,7	9,176
1031,1	5,405
1031,5	2,548
1032	7,062
1032,4	4,205
1032,8	1,862
1033,2	2,176
1033,6	7,862
1034	15,719
1034,4	23,348
1034,9	19,919
1035,3	25,29
1035,7	26,49
1036,1	20,262
1036,5	12,319
1036,9	8,805
1037,4	4,576
1037,8	9,005
1038,2	1,576
1038,6	-0,967
1039	2,319
1039,4	9,205
1039,8	11,719
1040,3	9,376
1040,7	1,376
1041,1	5,062
1041,5	4,376
1041,9	1,605
1042,3	2,462
1042,7	0,576
1043,2	2,919
1043,6	12,89
1044	11,633
1044,4	15,519
1044,8	14,69
1045,2	11,976
1045,6	13,662
1046,1	15,862
1046,5	12,805
1046,9	13,862
1047,3	10,405
1047,7	11,748
1048,1	13,776
1048,5	16,033
1049	12,462
1049,4	13,805
1049,8	14,833
1050,2	18,776
1050,6	20,29
1051	23,033
1051,4	14,576
1051,9	17,919
1052,3	12,148
1052,7	10,748
1053,1	8,49
1053,5	6,262
1053,9	1,062
1054,3	2,948
1054,8	8,433
1055,2	11,033
1055,6	8,833
1056	13,49
1056,4	14,405
1056,8	16,176
1057,2	18,662
1057,6	8,662
1058,1	11,719
1058,5	14,919
1058,9	14,29
1059,3	16,376
1059,7	9,69
1060,1	8,348
1060,5	8,462
1061	3,805
1061,4	11,062
1061,8	7,719
1062,2	5,976
1062,6	15,348
1063	16,919
1063,4	16,405
1063,8	14,605
1064,3	6,748
1064,7	8,405
1065,1	6,319
1065,5	2,005
1065,9	3,462
1066,3	-0,052
1066,7	1,976
1067,1	-0,595
1067,6	0,948
1068	2,09
1068,4	9,948
1068,8	9,09
1069,2	12,862
1069,6	16,405
1070	20,433
1070,4	21,633
1070,9	23,748
1071,3	16,033
1071,7	16,49
1072,1	22,319
1072,5	25,662
1072,9	25,719
1073,3	24,719
1073,7	21,662
1074,2	24,662
1074,6	24,776
1075	21,29
1075,4	19,176
1075,8	18,976
1076,2	18,176
1076,6	19,319
1077	15,633
1077,5	11,719
1077,9	16,119
1078,3	10,833
1078,7	9,976
1079,1	11,062
1079,5	7,519
1079,9	13,548
1080,3	17,233
1080,7	12,49
1081,2	17,09
1081,6	19,89
1082	17,09
1082,4	17,376
1082,8	9,948
1083,2	9,776
1083,6	9,433
1084	6,833
1084,5	0,576
1084,9	1,548
1085,3	5,576
1085,7	9,119
1086,1	9,148
1086,5	15,919
1086,9	18,519
1087,3	23,09
1087,7	26,948
1088,2	22,319
1088,6	19,176
1089	16,862
1089,4	10,033
1089,8	11,119
1090,2	9,605
1090,6	1,462
1091	6,69
1091,4	8,862
1091,9	12,69
1092,3	11,405
1092,7	9,49
1093,1	7,262
1093,5	12,262
1093,9	9,376
1094,3	8,833
1094,7	8,605
1095,1	9,69
1095,5	8,69
1096	4,805
1096,4	8,576
1096,8	3,719
1097,2	3,29
1097,6	4,233
1098	3,776
1098,4	5,262
1098,8	11,148
1099,2	3,348
1099,6	11,033
1100,1	14,976
1100,5	11,833
1100,9	11,805
1101,3	11,262
1101,7	14,119
1102,1	19,919
1102,5	18,776
1102,9	14,405
1103,3	11,633
1103,7	10,176
1104,2	12,29
1104,6	11,633
1105	10,519
1105,4	7,462
1105,8	7,976
1106,2	9,433
1106,6	8,748
1107	3,748
1107,4	0,633
1107,8	-3,087
1108,3	-0,417
