Data from Subt2_259.txt Node
Date: Sat Aug 26 19:00:58 MSK 2023
User: vat
Spectrometer: MAYP114033
Trigger mode: 0
Integration Time (sec): 1,000000E0
Scans to average: 5
Electric dark correction enabled: true
Nonlinearity correction enabled: false
Boxcar width: 3
XAxis mode: Wavelengths
Number of Pixels in Spectrum: 2068
>>>>>Begin Spectral Data<<<<<
199,4	0,017
199,9	1,047
200,4	-0,967
200,8	0,681
201,3	-0,576
201,8	1,824
202,2	-0,633
202,7	3,024
203,2	3,052
203,6	4,167
204,1	1,024
204,6	2,31
205	1,595
205,5	3,91
206	2,395
206,4	2,452
206,9	1,338
207,4	7,11
207,8	8,281
208,3	10,31
208,8	10,081
209,2	11,481
209,7	13,31
210,2	16,71
210,6	11,91
211,1	11,995
211,5	6,967
212	8,538
212,5	5,052
212,9	1,167
213,4	0,738
213,9	1,281
214,3	4,538
214,8	8,167
215,3	5,395
215,7	6,31
216,2	9,967
216,7	10,51
217,1	11,195
217,6	9,967
218,1	9,852
218,5	7,881
219	6,595
219,5	6,852
219,9	5,995
220,4	9,395
220,9	6,995
221,3	4,624
221,8	10,424
222,3	9,424
222,7	6,052
223,2	3,281
223,6	-0,605
224,1	-4,062
224,6	-1,462
225	-9,205
225,5	-7,662
226	-4,119
226,4	-1,719
226,9	-1,69
227,4	2,824
227,8	-2,748
228,3	0,767
228,8	4,395
229,2	2,224
229,7	0,024
230,2	0,367
230,6	1,738
231,1	14,424
231,5	20,224
232	16,595
232,5	13,167
232,9	19,195
233,4	21,395
233,9	16,252
234,3	8,824
234,8	4,481
235,3	6,452
235,7	11,795
236,2	10,852
236,7	10,995
237,1	12,395
237,6	7,938
238,1	8,138
238,5	5,481
239	3,51
239,4	3,995
239,9	0,624
240,4	4,395
240,8	10,567
241,3	10,11
241,8	10,052
242,2	7,652
242,7	4,71
243,2	9,51
243,6	4,91
244,1	5,995
244,6	7,51
245	7,652
245,5	10,081
245,9	5,881
246,4	0,452
246,9	2,367
247,3	2,224
247,8	2,624
248,3	4,052
248,7	7,452
249,2	13,567
249,7	16,738
250,1	17,738
250,6	12,681
251	13,024
251,5	9,71
252	4,252
252,4	3,367
252,9	1,252
253,4	-1,719
253,8	-1,319
254,3	1,252
254,8	4,195
255,2	7,081
255,7	4,195
256,1	3,51
256,6	4,195
257,1	6,738
257,5	-3,805
258	-6,948
258,5	-9,205
258,9	-6,49
259,4	-6,89
259,9	-0,29
260,3	-3,005
260,8	0,31
261,2	3,624
261,7	6,767
262,2	0,481
262,6	-0,176
263,1	-2,148
263,6	-2,348
264	4,052
264,5	4,567
264,9	-0,119
265,4	7,424
265,9	6,652
266,3	5,71
266,8	10,624
267,3	6,767
267,7	4,681
268,2	6,31
268,7	5,052
269,1	10,881
269,6	8,681
270	10,252
270,5	5,567
271	8,024
271,4	11,881
271,9	6,452
272,4	6,252
272,8	3,224
273,3	-4,033
273,7	2,081
274,2	2,31
274,7	-0,09
275,1	6,252
275,6	3,11
276,1	4,967
276,5	8,995
277	8,424
277,4	11,281
277,9	11,052
278,4	11,938
278,8	14,395
279,3	18,481
279,8	18,624
280,2	21,795
280,7	20,252
281,1	14,767
281,6	11,081
282,1	6,681
282,5	6,852
283	5,738
283,4	2,538
283,9	0,738
284,4	7,167
284,8	7,938
285,3	9,024
285,8	4,424
286,2	1,567
286,7	0,167
287,1	-3,262
287,6	-5,29
288,1	-9,49
288,5	-4,89
289	-8,233
289,5	-5,548
289,9	-7,148
290,4	-0,49
290,8	-0,005
291,3	2,424
291,8	1,081
292,2	4,452
292,7	8,681
293,1	12,91
293,6	12,395
294,1	9,824
294,5	11,681
295	12,795
295,5	12,767
295,9	10,852
296,4	9,538
296,8	4,652
297,3	9,11
297,8	1,395
298,2	-4,519
298,7	-3,262
299,1	-6,405
299,6	-6,205
300,1	-1,062
300,5	0,681
301	11,767
301,5	19,395
301,9	19,567
302,4	18,081
302,8	20,195
303,3	16,395
303,8	8,138
304,2	4,367
304,7	1,481
305,1	-6,29
305,6	-3,062
306,1	1,224
306,5	5,338
307	8,624
307,4	7,024
307,9	6,252
308,4	10,624
308,8	6,11
309,3	-3,119
309,8	-5,605
310,2	-1,033
310,7	-0,519
311,1	-1,005
311,6	3,452
312,1	4,624
312,5	9,91
313	9,452
313,4	6,681
313,9	6,167
314,4	5,938
314,8	1,252
315,3	3,31
315,7	-2,805
316,2	-6,748
316,7	-5,576
317,1	1,995
317,6	2,624
318	8,624
318,5	7,195
319	7,938
319,4	12,224
319,9	16,51
320,3	10,938
320,8	9,995
321,3	8,738
321,7	12,052
322,2	12,738
322,6	15,452
323,1	11,252
323,6	8,195
324	4,767
324,5	3,681
324,9	5,767
325,4	6,367
325,9	4,938
326,3	8,138
326,8	10,681
327,2	8,51
327,7	7,795
328,2	1,852
328,6	4,738
329,1	0,852
329,5	-4,033
330	-4,833
330,5	4,024
330,9	6,338
331,4	8,795
331,8	7,967
332,3	10,624
332,8	13,31
333,2	13,11
333,7	12,624
334,1	11,91
334,6	8,11
335,1	1,91
335,5	2,881
336	0,624
336,4	4,252
336,9	9,281
337,4	11,481
337,8	14,081
338,3	20,367
338,7	19,224
339,2	16,624
339,7	12,91
340,1	7,652
340,6	8,195
341	8,367
341,5	6,967
342	6,738
342,4	8,567
342,9	7,738
343,3	6,252
343,8	2,938
344,2	4,052
344,7	10,738
345,2	8,881
345,6	8,938
346,1	12,567
346,5	11,367
347	11,624
347,5	12,995
347,9	10,938
348,4	11,538
348,8	14,338
349,3	14,138
349,8	18,71
350,2	23,224
350,7	17,824
351,1	16,91
351,6	25,367
352	25,024
352,5	28,51
353	34,224
353,4	36,538
353,9	45,995
354,3	53,567
354,8	57,995
355,3	73,624
355,7	88,938
356,2	104,081
356,6	122,824
357,1	145,224
357,5	165,852
358	193,052
358,5	216,538
358,9	248,881
359,4	279,738
359,8	319,995
360,3	370,338
360,8	422,967
361,2	479,395
361,7	543,881
362,1	615,11
362,6	692,31
363	777,852
363,5	859,11
364	951,224
364,4	1043,91
364,9	1140,195
365,3	1232,967
365,8	1316,367
366,3	1394,167
366,7	1465,481
367,2	1530,652
367,6	1585,167
368,1	1633,538
368,5	1655,595
369	1672,395
369,5	1676,995
369,9	1669,51
370,4	1642,424
370,8	1603,71
371,3	1545,424
371,7	1490,281
372,2	1426,138
372,7	1350,624
373,1	1275,424
373,6	1201,367
374	1128,424
374,5	1057,052
374,9	985,31
375,4	914,31
375,9	844,538
376,3	778,91
376,8	714,252
377,2	654,995
377,7	598,395
378,2	541,71
378,6	499,652
379,1	461,624
379,5	424,795
380	391,51
380,4	359,395
380,9	329,081
381,4	304,424
381,8	279,424
382,3	260,967
382,7	241,167
383,2	224,367
383,6	208,738
384,1	195,767
384,6	189,11
385	174,852
385,5	160,395
385,9	148,881
386,4	141,424
386,8	131,995
387,3	120,538
387,7	110,395
388,2	107,967
388,7	98,481
389,1	93,31
389,6	84,624
390	81,595
390,5	80,767
390,9	76,767
391,4	70,624
391,9	67,652
392,3	67,852
392,8	61,852
393,2	53,11
393,7	51,852
394,1	48,167
394,6	43,281
395,1	42,452
395,5	33,995
396	36,395
396,4	36,567
396,9	34,31
397,3	36,681
397,8	36,967
398,2	36,224
398,7	37,052
399,2	34,138
399,6	36,595
400,1	37,681
400,5	30,595
401	29,795
401,4	26,052
401,9	29,967
402,4	32,452
402,8	27,224
403,3	24,71
403,7	25,938
404,2	29,595
404,6	35,167
405,1	31,624
405,5	30,224
406	31,624
406,5	34,938
406,9	40,138
407,4	37,452
407,8	37,024
408,3	38,424
408,7	30,795
409,2	34,452
409,6	32,167
410,1	30,138
410,6	33,481
411	32,11
411,5	34,538
411,9	41,452
412,4	43,595
412,8	47,51
413,3	49,281
413,7	51,652
414,2	52,967
414,7	57,71
415,1	66,767
415,6	66,995
416	67,938
416,5	70,967
416,9	72,567
417,4	79,081
417,8	84,195
418,3	85,595
418,8	90,367
419,2	94,338
419,7	93,395
420,1	94,938
420,6	91,31
421	83,595
421,5	83,852
421,9	82,367
422,4	85,881
422,8	86,138
423,3	81,967
423,8	83,167
424,2	82,567
424,7	82,024
425,1	78,938
425,6	76,138
426	77,224
426,5	84,024
426,9	87,967
427,4	87,738
427,9	85,252
428,3	92,081
428,8	89,167
429,2	85,081
429,7	80,938
430,1	76,881
430,6	78,31
431	80,024
431,5	79,281
431,9	77,967
432,4	83,824
432,8	86,31
433,3	89,71
433,8	90,395
434,2	90,538
434,7	92,652
435,1	96,595
435,6	97,852
436	101,081
436,5	104,024
436,9	110,538
437,4	113,91
437,8	114,767
438,3	119,995
438,8	124,767
439,2	129,51
439,7	133,538
440,1	138,052
440,6	145,595
441	148,51
441,5	155,367
441,9	161,567
442,4	161,11
442,8	167,652
443,3	173,252
443,7	178,024
444,2	186,652
444,7	190,481
445,1	199,195
445,6	210,852
446	219,624
446,5	223,538
446,9	225,652
447,4	232,452
447,8	245,252
448,3	254,138
448,7	261,681
449,2	271,395
449,6	285,081
450,1	299,167
450,6	311,967
451	319,624
451,5	329,281
451,9	345,367
452,4	359,738
452,8	367,624
453,3	382,71
453,7	394,224
454,2	410,767
454,6	429,195
455,1	438,595
455,5	445,995
456	471,91
456,4	484,224
456,9	503,452
457,3	518,11
457,8	526,367
458,3	544,738
458,7	564,024
459,2	580,367
459,6	597,767
460,1	612,824
460,5	629,11
461	651,767
461,4	667,51
461,9	688,281
462,3	702,338
462,8	724,795
463,2	740,967
463,7	761,995
464,1	782,681
464,6	809,11
465	831,31
465,5	853,795
466	877,938
466,4	900,624
466,9	924,224
467,3	945,967
467,8	967,31
468,2	988,595
468,7	1009,167
469,1	1032,852
469,6	1057,652
470	1083,052
470,5	1106,224
470,9	1129,452
471,4	1149,567
471,8	1171,767
472,3	1192,71
472,7	1220,024
473,2	1238,51
473,6	1257,538
474,1	1280,652
474,5	1306,452
475	1335,71
475,4	1360,738
475,9	1383,538
476,4	1407,024
476,8	1434,252
477,3	1462,31
477,7	1486,024
478,2	1504,481
478,6	1521,31
479,1	1538,452
479,5	1559,538
480	1583,995
480,4	1602,567
480,9	1620,367
481,3	1635,367
481,8	1658,738
482,2	1672,395
482,7	1690,995
483,1	1702,738
483,6	1717,995
484	1735,51
484,5	1759,424
484,9	1772,367
485,4	1800,167
485,8	1817,252
486,3	1837,595
486,7	1853,452
487,2	1868,567
487,6	1883,881
488,1	1895,967
488,5	1904,767
489	1921,624
489,4	1934,538
489,9	1943,738
490,4	1958,11
490,8	1968,824
491,3	1992,595
491,7	2003,11
492,2	2014,595
492,6	2023,938
493,1	2035,795
493,5	2045,51
494	2051,338
494,4	2053,538
494,9	2063,938
495,3	2072,31
495,8	2081,967
496,2	2096,024
496,7	2103,852
497,1	2120,424
497,6	2132,967
498	2145,424
498,5	2154,681
498,9	2164,338
499,4	2168,452
499,8	2178,424
500,3	2184,767
500,7	2188,71
501,2	2192,767
501,6	2192,395
502,1	2196,51
502,5	2204,681
503	2212,367
503,4	2216,71
503,9	2221,481
504,3	2229,767
504,8	2238,11
505,2	2247,652
505,7	2249,795
506,1	2261,11
506,6	2257,824
507	2264,824
507,5	2267,11
507,9	2269,681
508,4	2270,795
508,8	2270,567
509,3	2265,738
509,7	2276,224
510,2	2284,538
510,6	2287,681
511,1	2295,567
511,5	2299,938
512	2309,11
512,4	2318,738
512,9	2324,11
513,3	2326,195
513,8	2335,91
514,2	2343,567
514,7	2345,424
515,1	2349,652
515,6	2349,224
516	2352,052
516,5	2357,395
516,9	2359,681
517,4	2364,681
517,8	2375,281
518,3	2378,167
518,7	2385,081
519,2	2390,595
519,6	2391,881
520,1	2397,938
520,5	2401,081
521	2404,367
521,4	2414,938
521,9	2419,938
522,3	2424,995
522,8	2430,881
523,2	2434,252
523,7	2439,567
524,1	2445,481
524,6	2452,081
525	2458,852
525,5	2463,881
525,9	2472,252
526,4	2479,91
526,8	2486,624
527,3	2490,938
527,7	2498,652
528,2	2507,224
528,6	2514,881
529,1	2520,31
529,5	2534,224
530	2535,852
530,4	2549,938
530,9	2552,91
531,3	2560,138
531,8	2570,31
532,2	2582,338
532,6	2580,967
533,1	2594,224
533,5	2598,11
534	2607,652
534,4	2613,595
534,9	2618,452
535,3	2616,852
535,8	2623,481
536,2	2629,138
536,7	2633,367
537,1	2642,081
537,6	2648,024
538	2660,167
538,5	2675,852
538,9	2685,91
539,4	2695,167
539,8	2706,967
540,3	2714,31
540,7	2722,024
541,2	2724,11
541,6	2727,195
542,1	2734,11
542,5	2740,738
543	2742,138
543,4	2741,138
543,9	2747,052
544,3	2759,624
544,8	2764,567
545,2	2774,052
545,7	2785,338
546,1	2797,224
546,5	2812,452
547	2826,538
547,4	2828,71
547,9	2839,252
548,3	2849,995
548,8	2856,11
549,2	2860,938
549,7	2870,11
550,1	2878,338
550,6	2886,624
551	2894,595
551,5	2895,881
551,9	2899,91
552,4	2910,024
552,8	2914,252
553,3	2913,167
553,7	2920,338
554,2	2928,938
554,6	2934,452
555,1	2946,024
555,5	2946,71
555,9	2953,795
556,4	2957,995
556,8	2963,338
557,3	2966,138
557,7	2976,795
558,2	2973,624
558,6	2982,31
559,1	2985,852
559,5	2993,51
560	3001,738
560,4	3008,595
560,9	3010,538
561,3	3014,024
561,8	3018,167
562,2	3019,995
562,7	3026,367
563,1	3024,767
563,6	3025,052
564	3029,995
564,4	3040,195
564,9	3048,424
565,3	3056,024
565,8	3056,51
566,2	3070,338
566,7	3079,11
567,1	3086,767
567,6	3092,738
568	3095,138
568,5	3095,452
568,9	3099,452
569,4	3096,51
569,8	3094,195
570,3	3087,995
570,7	3082,281
571,1	3079,338
571,6	3086,767
572	3093,31
572,5	3101,367
572,9	3103,052
573,4	3104,052
573,8	3105,938
574,3	3103,081
574,7	3099,538
575,2	3094,567
575,6	3084,824
576,1	3089,538
576,5	3092,024
576,9	3088,852
577,4	3090,51
577,8	3084,995
578,3	3089,081
578,7	3086,367
579,2	3080,795
579,6	3072,767
580,1	3074,452
580,5	3073,767
581	3079,652
581,4	3074,024
581,9	3071,71
582,3	3065,452
582,7	3067,252
583,2	3063,138
583,6	3060,338
584,1	3055,567
584,5	3053,681
585	3052,681
585,4	3045,852
585,9	3041,995
586,3	3044,881
586,8	3046,252
587,2	3039,224
587,6	3038,167
588,1	3033,11
588,5	3032,452
589	3031,081
589,4	3016,138
589,9	3004,795
590,3	2998,824
590,8	2984,538
591,2	2977,024
591,7	2981,71
592,1	2977,595
592,5	2978,795
593	2972,71
593,4	2965,052
593,9	2958,538
594,3	2957,11
594,8	2946,338
595,2	2940,881
595,7	2935,767
596,1	2925,252
596,6	2923,167
597	2918,624
597,4	2911,395
597,9	2910,51
598,3	2906,967
598,8	2899,567
599,2	2905,367
599,7	2900,681
600,1	2892,338
600,6	2886,795
601	2878,367
601,4	2870,395
601,9	2869,595
602,3	2856,338
602,8	2850,538
603,2	2850,11
603,7	2847,452
604,1	2837,624
604,6	2830,824
605	2814,138
605,4	2809,624
605,9	2798,024
606,3	2786,967
606,8	2772,31
607,2	2760,167
607,7	2748,624
608,1	2744,452
608,6	2738,224
609	2736,424
609,4	2727,51
609,9	2717,395
610,3	2713,452
610,8	2703,538
611,2	2692,11
611,7	2684,367
612,1	2671,11
612,6	2661,51
613	2662,595
613,4	2653,767
613,9	2643,71
614,3	2636,51
614,8	2626,652
615,2	2617,795
615,7	2617,71
616,1	2607,167
616,6	2593,424
617	2584,052
617,4	2579,452
617,9	2572,281
618,3	2558,795
618,8	2546,91
619,2	2532,852
619,7	2527,538
620,1	2512,967
620,5	2501,652
621	2489,91
621,4	2484,052
621,9	2467,938
622,3	2456,367
622,8	2440,481
623,2	2439,31
623,6	2423,652
624,1	2407,31
624,5	2392,452
625	2385,338
625,4	2375,967
625,9	2370,424
626,3	2357,91
626,8	2353,138
627,2	2344,967
627,6	2333,624
628,1	2319,91
628,5	2310,852
629	2298,852
629,4	2286,595
629,9	2271,938
630,3	2261,738
630,7	2249,938
631,2	2239,567
631,6	2225,11
632,1	2209,852
632,5	2197,738
633	2189,967
633,4	2172,738
633,8	2165,481
634,3	2158,71
634,7	2145,138
635,2	2130,652
635,6	2118,624
636,1	2100,252
636,5	2091,567
636,9	2077,938
637,4	2062,795
637,8	2054,367
638,3	2047,881
638,7	2035,652
639,2	2021,052
639,6	2013,081
640	2003,91
640,5	1994,052
640,9	1984,224
641,4	1970,824
641,8	1966,51
642,2	1960,51
642,7	1952,252
643,1	1947,595
643,6	1937,167
644	1925,481
644,5	1922,252
644,9	1907,081
645,3	1904,081
645,8	1889,71
646,2	1877,081
646,7	1868,595
647,1	1858,624
647,6	1845,91
648	1839,367
648,4	1820,652
648,9	1816,624
649,3	1805,452
649,8	1795,367
650,2	1788,567
650,6	1779,081
651,1	1767,452
651,5	1765,167
652	1753,31
652,4	1737,938
652,9	1729,081
653,3	1720,595
653,7	1711,167
654,2	1702,91
654,6	1691,852
655,1	1684,824
655,5	1684,738
655,9	1673,024
656,4	1663,281
656,8	1651,624
657,3	1642,052
657,7	1634,395
658,2	1619,31
658,6	1604,024
659	1594,052
659,5	1579,881
659,9	1571,738
660,4	1559,795
660,8	1545,538
661,2	1533,481
661,7	1520,71
662,1	1514,252
662,6	1507,51
663	1498,938
663,4	1491,224
663,9	1485,938
664,3	1476,91
664,8	1469,51
665,2	1456,367
665,6	1448,024
666,1	1443,424
666,5	1435,538
667	1424,91
667,4	1415,367
667,9	1408,138
668,3	1396,31
668,7	1383,367
669,2	1371,281
669,6	1363,167
670,1	1353,367
670,5	1347,795
670,9	1339,081
671,4	1331,024
671,8	1325,195
672,3	1315,11
672,7	1308,91
673,1	1297,052
673,6	1290,767
674	1284,195
674,5	1280,024
674,9	1263,852
675,3	1250,881
675,8	1239,51
676,2	1233,938
676,7	1223,995
677,1	1216,367
677,5	1203,852
678	1203,281
678,4	1203,995
678,9	1195,852
679,3	1185,481
679,7	1173,31
680,2	1156,338
680,6	1150,081
681,1	1141,51
681,5	1132,567
681,9	1124,824
682,4	1124,11
682,8	1118,624
683,3	1118,281
683,7	1113,052
684,1	1106,052
684,6	1096,967
685	1089,081
685,5	1078,395
685,9	1069,91
686,3	1060,624
686,8	1052,767
687,2	1047,595
687,7	1038,024
688,1	1028,052
688,5	1017,424
689	1014,224
689,4	1009,024
689,9	1001,538
690,3	990,138
690,7	985,91
691,2	985,11
691,6	979,995
692	968,967
692,5	963,138
692,9	957,338
693,4	949,738
693,8	941,538
694,2	928,567
694,7	920,681
695,1	920,538
695,6	913,881
696	907,852
696,4	903,195
696,9	895,824
697,3	891,195
697,8	886,167
698,2	877,252
698,6	871,138
699,1	866,652
699,5	868,738
699,9	868,852
700,4	862,824
700,8	855,852
701,3	853,138
701,7	845,824
702,1	837,681
702,6	824,424
703	814,281
703,5	811,081
703,9	808,681
704,3	798,967
704,8	794,995
705,2	789,767
705,6	784,424
706,1	776,967
706,5	768,452
707	767,081
707,4	763,624
707,8	756,195
708,3	754,538
708,7	752,738
709,2	748,195
709,6	742,995
710	738,967
710,5	732,71
710,9	729,567
711,3	721,195
711,8	716,738
712,2	713,681
712,7	711,681
713,1	701,567
713,5	698,252
714	695,081
714,4	688,652
714,8	685,281
715,3	676,91
715,7	672,31
716,2	667,11
716,6	661,567
717	652,367
717,5	650,024
717,9	645,795
718,3	642,31
718,8	633,71
719,2	627,281
719,7	622,681
720,1	622,738
720,5	623,052
721	610,881
721,4	607,938
721,8	610,195
722,3	603,824
722,7	602,767
723,2	589,738
723,6	574,081
724	568,995
724,5	565,11
724,9	553,081
725,3	549,567
725,8	539,424
726,2	540,767
726,7	544,481
727,1	544,652
727,5	539,224
728	537,452
728,4	536,852
728,8	534,195
729,3	529,938
729,7	519,367
730,1	514,31
730,6	511,395
731	507,852
731,5	500,967
731,9	499,481
732,3	500,167
732,8	504,824
733,2	504,424
733,6	499,51
734,1	497,567
734,5	497,681
734,9	497,024
735,4	492,567
735,8	482,538
736,3	481,395
736,7	479,252
737,1	477,767
737,6	475,024
738	470,395
738,4	467,31
738,9	468,767
739,3	460,51
739,7	459,367
740,2	451,91
740,6	450,652
741,1	449,252
741,5	441,11
741,9	440,938
742,4	443,767
742,8	442,11
743,2	446,11
743,7	441,224
744,1	433,824
744,5	431,795
745	422,252
745,4	413,767
745,8	410,11
746,3	402,938
746,7	398,481
747,2	396,195
747,6	399,11
748	400,424
748,5	400,481
748,9	395,024
749,3	391,367
749,8	391,167
750,2	390,595
750,6	383,195
751,1	381,538
751,5	376,852
751,9	378,167
752,4	377,595
752,8	374,081
753,3	366,967
753,7	366,51
754,1	361,195
754,6	358,224
755	349,538
755,4	347,71
755,9	343,652
756,3	342,824
756,7	340,252
757,2	338,452
757,6	340,338
758	339,652
758,5	333,881
758,9	332,081
759,3	332,852
759,8	333,367
760,2	332,024
760,6	329,138
761,1	326,824
761,5	328,081
761,9	327,31
762,4	320,652
762,8	317,938
763,3	311,681
763,7	310,652
764,1	311,395
764,6	306,338
765	306,367
765,4	307,824
765,9	303,71
766,3	310,995
766,7	303,681
767,2	297,938
767,6	298,567
768	292,738
768,5	290,595
768,9	289,452
769,3	282,395
769,8	279,481
770,2	279,738
770,6	277,338
771,1	279,138
771,5	279,281
771,9	281,795
772,4	281,395
772,8	282,938
773,2	284,738
773,7	285,11
774,1	282,31
774,5	272,624
775	265,91
775,4	262,252
775,8	260,767
776,3	258,224
776,7	254,71
777,1	251,995
777,6	259,938
778	261,281
778,4	259,538
778,9	259,11
779,3	251,967
779,7	251,567
780,2	253,767
780,6	246,881
781	242,652
781,5	240,281
781,9	236,167
782,3	237,995
782,8	236,081
783,2	226,424
783,6	226,338
784,1	225,11
784,5	221,767
784,9	219,481
785,4	221,11
785,8	222,481
786,2	227,138
786,7	227,252
787,1	223,624
787,5	221,938
788	223,252
788,4	216,652
788,8	210,567
789,3	206,681
789,7	202,938
790,1	201,481
790,6	204,567
791	198,938
791,4	201,052
791,9	197,967
792,3	194,795
792,7	196,567
793,2	194,452
793,6	191,481
794	193,624
794,5	187,938
794,9	187,824
795,3	188,91
795,8	186,252
796,2	186,138
796,6	185,338
797,1	183,052
797,5	180,852
797,9	177,852
798,4	172,367
798,8	168,11
799,2	165,967
799,7	166,281
800,1	162,91
800,5	163,91
801	166,995
801,4	165,51
801,8	164,252
802,2	164,795
802,7	158,138
803,1	158,138
803,5	158,138
804	150,31
804,4	155,567
804,8	157,31
805,3	157,367
805,7	159,767
806,1	157,767
806,6	158,681
807	161,738
807,4	155,452
807,9	150,138
808,3	145,595
808,7	143,452
809,2	146,91
809,6	148,395
810	150,595
810,4	153,31
810,9	153,195
811,3	156,11
811,7	154,31
812,2	155,481
812,6	149,452
813	145,481
813,5	142,452
813,9	142,11
814,3	139,967
814,8	140,224
815,2	132,995
815,6	131,824
816,1	135,11
816,5	137,252
816,9	134,71
817,3	130,881
817,8	133,195
818,2	134,338
818,6	136,595
819,1	132,395
819,5	126,424
819,9	129,681
820,4	131,91
820,8	126,224
821,2	121,338
821,7	117,738
822,1	117,652
822,5	123,71
822,9	120,795
823,4	118,824
823,8	121,995
824,2	123,538
824,7	116,024
825,1	110,852
825,5	100,167
826	97,995
826,4	95,424
826,8	91,481
827,3	93,452
827,7	94,824
828,1	97,481
828,5	99,138
829	97,481
829,4	97,652
829,8	95,138
830,3	95,138
830,7	96,995
831,1	100,71
831,6	98,252
832	98,595
832,4	96,167
832,8	98,538
833,3	96,452
833,7	97,51
834,1	89,967
834,6	89,624
835	91,11
835,4	91,224
835,8	88,995
836,3	87,481
836,7	85,138
837,1	84,31
837,6	88,795
838	85,967
838,4	85,024
838,9	85,252
839,3	82,738
839,7	83,852
840,1	83,595
840,6	80,481
841	82,567
841,4	81,51
841,9	82,167
842,3	81,824
842,7	84,51
843,1	82,624
843,6	84,195
844	82,452
844,4	85,71
844,9	83,881
845,3	84,31
845,7	80,481
846,2	81,281
846,6	80,681
847	78,024
847,4	78,052
847,9	75,595
848,3	71,424
848,7	70,995
849,2	70,567
849,6	63,738
850	70,852
850,4	68,167
850,9	68,995
851,3	69,252
851,7	66,881
852,2	63,624
852,6	69,852
853	63,167
853,4	58,195
853,9	52,938
854,3	55,624
854,7	58,681
855,2	60,281
855,6	59,738
856	57,567
856,4	57,738
856,9	58,738
857,3	61,938
857,7	56,367
858,2	59,167
858,6	56,424
859	61,395
859,4	64,567
859,9	68,195
860,3	60,767
860,7	63,367
861,1	60,995
861,6	57,938
862	54,595
862,4	50,395
862,9	47,824
863,3	51,367
863,7	46,967
864,1	48,31
864,6	48,281
865	47,967
865,4	49,452
865,9	53,31
866,3	44,995
866,7	46,652
867,1	43,024
867,6	44,024
868	40,481
868,4	40,652
868,8	35,252
869,3	40,081
869,7	46,395
870,1	44,938
870,6	42,738
871	-8,205
871,4	-1,776
871,8	-1,548
872,3	0,71
872,7	-5,662
873,1	-2,833
873,5	3,31
874	56,281
874,4	53,31
874,8	54,024
875,3	53,71
875,7	53,51
876,1	53,081
876,5	47,91
877	43,081
877,4	37,138
877,8	39,024
878,2	36,881
878,7	36,367
879,1	34,31
879,5	36,024
879,9	40,624
880,4	42,824
880,8	41,424
881,2	44,024
881,7	44,624
882,1	46,024
882,5	42,11
882,9	38,224
883,4	36,824
883,8	36,624
884,2	33,738
884,6	31,395
885,1	31,481
885,5	34,967
885,9	36,995
886,3	39,052
886,8	36,824
887,2	33,681
887,6	34,224
888	33,995
888,5	34,167
888,9	33,167
889,3	29,081
889,8	28,795
890,2	29,967
890,6	27,652
891	25,424
891,5	23,995
891,9	26,624
892,3	32,081
892,7	31,681
893,2	33,567
893,6	37,967
894	40,367
894,4	36,795
894,9	34,938
895,3	32,538
895,7	32,824
896,1	29,281
896,6	29,024
897	28,338
897,4	35,081
897,8	36,595
898,3	36,195
898,7	34,91
899,1	37,91
899,5	36,11
900	27,595
900,4	25,738
900,8	17,081
901,2	14,138
901,7	15,938
902,1	15,31
902,5	14,224
902,9	15,767
903,4	14,024
903,8	21,852
904,2	21,11
904,6	20,795
905,1	25,281
905,5	27,738
905,9	34,481
906,3	32,967
906,8	34,681
907,2	36,424
907,6	37,367
908	32,11
908,5	31,195
908,9	27,224
909,3	27,281
909,7	24,995
910,2	23,938
910,6	26,395
911	20,481
911,4	24,595
911,9	25,481
912,3	26,31
912,7	28,11
913,1	28,91
913,6	20,624
914	26,395
914,4	19,995
914,8	20,852
915,3	21,938
915,7	19,738
916,1	17,595
916,5	23,481
916,9	20,224
917,4	23,395
917,8	22,881
918,2	18,167
918,6	12,938
919,1	18,11
919,5	16,424
919,9	17,338
920,3	11,967
920,8	11,538
921,2	12,31
921,6	16,595
922	12,424
922,5	14,538
922,9	13,795
923,3	15,881
923,7	14,71
924,2	13,795
924,6	14,538
925	14,481
925,4	9,71
925,8	12,852
926,3	10,195
926,7	9,024
927,1	11,395
927,5	8,224
928	9,367
928,4	4,967
928,8	7,567
929,2	8,738
929,7	10,338
930,1	9,481
930,5	10,424
930,9	10,224
931,3	15,138
931,8	14,195
932,2	16,595
932,6	18,31
933	15,167
933,5	15,452
933,9	17,281
934,3	18,281
934,7	14,824
935,2	16,995
935,6	14,795
936	16,367
936,4	17,995
936,8	16,481
937,3	13,91
937,7	12,681
938,1	12,967
938,5	7,767
939	9,538
939,4	11,595
939,8	11,452
940,2	13,081
940,6	14,824
941,1	9,281
941,5	18,31
941,9	19,738
942,3	15,652
942,8	17,052
943,2	19,938
943,6	16,395
944	23,681
944,4	20,167
944,9	15,481
945,3	18,967
945,7	10,852
946,1	6,795
946,6	11,624
947	6,395
947,4	8,224
947,8	11,51
948,2	6,967
948,7	10,224
949,1	11,938
949,5	15,167
949,9	12,367
950,3	12,224
950,8	11,538
951,2	11,024
951,6	13,224
952	13,738
952,5	8,281
952,9	9,71
953,3	7,852
953,7	7,852
954,1	10,224
954,6	11,11
955	14,424
955,4	13,11
955,8	18,938
956,2	18,195
956,7	20,681
957,1	17,624
957,5	17,624
957,9	15,824
958,3	19,31
958,8	15,167
959,2	18,195
959,6	16,595
960	16,252
960,5	20,395
960,9	22,11
961,3	18,167
961,7	14,367
962,1	10,767
962,6	12,795
963	14,11
963,4	5,195
963,8	2,881
964,2	4,91
964,7	10,852
965,1	12,91
965,5	10,281
965,9	8,281
966,3	9,224
966,8	9,052
967,2	10,681
967,6	6,195
968	3,995
968,4	4,024
968,9	7,167
969,3	14,252
969,7	13,938
970,1	13,995
970,5	13,11
971	16,338
971,4	14,281
971,8	15,91
972,2	12,652
972,6	13,967
973,1	10,652
973,5	10,452
973,9	13,71
974,3	15,538
974,7	20,052
975,2	23,195
975,6	17,795
976	20,538
976,4	20,195
976,8	17,367
977,3	13,567
977,7	5,824
978,1	4,881
978,5	4,224
978,9	-0,233
979,4	0,167
979,8	-2,09
980,2	1,681
980,6	1,51
981	-0,89
981,5	1,967
981,9	5,081
982,3	9,195
982,7	8,51
983,1	7,652
983,6	6,11
984	8,11
984,4	7,338
984,8	9,052
985,2	6,395
985,6	6,967
986,1	8,11
986,5	13,224
986,9	6,881
987,3	11,338
987,7	11,052
988,2	11,252
988,6	14,31
989	13,281
989,4	8,795
989,8	10,424
990,3	9,138
990,7	7,224
991,1	9,081
991,5	6,938
991,9	8,881
992,3	11,91
992,8	11,395
993,2	8,967
993,6	8,11
994	5,91
994,4	7,224
994,9	4,767
995,3	3,138
995,7	4,138
996,1	3,424
996,5	4,767
996,9	2,767
997,4	1,652
997,8	0,91
998,2	-2,576
998,6	-5,29
999	-5,748
999,5	-4,09
999,9	-3,605
1000,3	-6,605
1000,7	-3,976
1001,1	0,224
1001,5	6,595
1002	12,052
1002,4	12,852
1002,8	16,138
1003,2	19,424
1003,6	19,024
1004	23,71
1004,5	17,995
1004,9	12,081
1005,3	4,881
1005,7	3,938
1006,1	-1,605
1006,6	-2,462
1007	-9,376
1007,4	-8,119
1007,8	-3,205
1008,2	-0,776
1008,6	-2,005
1009,1	-3,29
1009,5	-2,89
1009,9	-0,633
1010,3	3,452
1010,7	2,681
1011,1	2,195
1011,6	4,052
1012	14,595
1012,4	12,395
1012,8	7,995
1013,2	9,338
1013,6	5,938
1014,1	6,252
1014,5	8,081
1014,9	3,852
1015,3	5,852
1015,7	10,51
1016,1	2,767
1016,6	6,738
1017	8,967
1017,4	6,938
1017,8	6,995
1018,2	8,281
1018,6	3,11
1019,1	5,338
1019,5	2,424
1019,9	-3,176
1020,3	-3,319
1020,7	-5,776
1021,1	-8,205
1021,6	-2,605
1022	1,738
1022,4	2,538
1022,8	11,624
1023,2	11,481
1023,6	11,71
1024,1	18,195
1024,5	18,738
1024,9	13,738
1025,3	16,681
1025,7	11,91
1026,1	15,024
1026,6	17,024
1027	9,424
1027,4	6,138
1027,8	8,824
1028,2	3,51
1028,6	10,395
1029	5,938
1029,5	9,967
1029,9	13,71
1030,3	12,938
1030,7	12,224
1031,1	13,167
1031,5	5,995
1032	7,138
1032,4	7,967
1032,8	7,995
1033,2	12,595
1033,6	11,795
1034	14,452
1034,4	14,624
1034,9	16,31
1035,3	7,71
1035,7	7,595
1036,1	4,652
1036,5	1,395
1036,9	1,852
1037,4	7,51
1037,8	3,567
1038,2	3,852
1038,6	1,481
1039	4,424
1039,4	10,11
1039,8	5,281
1040,3	3,681
1040,7	6,595
1041,1	12,481
1041,5	16,167
1041,9	11,881
1042,3	11,652
1042,7	13,281
1043,2	11,652
1043,6	9,224
1044	5,652
1044,4	0,624
1044,8	3,31
1045,2	1,167
1045,6	1,367
1046,1	2,395
1046,5	1,424
1046,9	-1,119
1047,3	0,767
1047,7	-1,319
1048,1	-3,09
1048,5	-2,69
1049	-2,862
1049,4	3,681
1049,8	5,11
1050,2	7,11
1050,6	12,338
1051	14,195
1051,4	16,995
1051,9	16,624
1052,3	20,767
1052,7	24,31
1053,1	21,824
1053,5	18,852
1053,9	17,538
1054,3	14,167
1054,8	19,195
1055,2	15,024
1055,6	15,824
1056	14,624
1056,4	14,338
1056,8	17,481
1057,2	17,11
1057,6	8,681
1058,1	1,567
1058,5	-0,89
1058,9	3,995
1059,3	4,481
1059,7	4,31
1060,1	7,91
1060,5	12,881
1061	18,595
1061,4	15,824
1061,8	17,71
1062,2	18,481
1062,6	17,31
1063	21,367
1063,4	20,224
1063,8	18,138
1064,3	18,681
1064,7	18,452
1065,1	14,824
1065,5	14,681
1065,9	7,567
1066,3	3,595
1066,7	-2,662
1067,1	-5,005
1067,6	-6,176
1068	-7,662
1068,4	-6,205
1068,8	-2,89
1069,2	-1,005
1069,6	1,024
1070	6,767
1070,4	7,452
1070,9	9,738
1071,3	9,367
1071,7	6,995
1072,1	6,452
1072,5	10,995
1072,9	11,367
1073,3	6,024
1073,7	4,538
1074,2	1,795
1074,6	0,081
1075	0,367
1075,4	-3,376
1075,8	-2,976
1076,2	-0,376
1076,6	5,31
1077	10,91
1077,5	12,024
1077,9	9,367
1078,3	11,852
1078,7	10,024
1079,1	13,452
1079,5	9,51
1079,9	8,081
1080,3	7,11
1080,7	11,51
1081,2	17,081
1081,6	17,395
1082	12,795
1082,4	19,452
1082,8	17,938
1083,2	23,51
1083,6	21,138
1084	17,567
1084,5	17,71
1084,9	12,338
1085,3	1,395
1085,7	3,881
1086,1	0,395
1086,5	2,281
1086,9	4,681
1087,3	1,51
1087,7	6,367
1088,2	10,967
1088,6	6,681
1089	7,967
1089,4	3,395
1089,8	3,995
1090,2	5,624
1090,6	4,995
1091	9,11
1091,4	13,538
1091,9	13,195
1092,3	17,395
1092,7	13,567
1093,1	17,852
1093,5	18,138
1093,9	14,71
1094,3	14,881
1094,7	11,31
1095,1	12,824
1095,5	11,052
1096	5,767
1096,4	9,424
1096,8	7,738
1097,2	2,881
1097,6	7,624
1098	6,024
1098,4	9,767
1098,8	11,167
1099,2	14,052
1099,6	14,624
1100,1	16,652
1100,5	13,738
1100,9	12,567
1101,3	9,224
1101,7	7,338
1102,1	2,538
1102,5	3,567
1102,9	3,538
1103,3	5,795
1103,7	7,881
1104,2	12,195
1104,6	15,681
1105	11,138
1105,4	10,652
1105,8	9,31
1106,2	6,367
1106,6	4,11
1107	-0,176
1107,4	-3,067
1107,8	0,447
1108,3	-0,183
