Data from Subt2_211.txt Node
Date: Sat Aug 26 18:48:08 MSK 2023
User: vat
Spectrometer: MAYP114033
Trigger mode: 0
Integration Time (sec): 1,000000E0
Scans to average: 5
Electric dark correction enabled: true
Nonlinearity correction enabled: false
Boxcar width: 3
XAxis mode: Wavelengths
Number of Pixels in Spectrum: 2068
>>>>>Begin Spectral Data<<<<<
199,4	-0,817
199,9	2,633
200,4	-1
200,8	0,005
201,3	-2,595
201,8	1,062
202,2	-0,052
202,7	3,262
203,2	3,576
203,6	4,148
204,1	1,433
204,6	1,205
205	-0,538
205,5	2,148
206	-1,081
206,4	-2,795
206,9	-0,424
207,4	3,605
207,8	5,49
208,3	4,69
208,8	5,433
209,2	6,605
209,7	4,862
210,2	6,348
210,6	3,176
211,1	7,976
211,5	4,919
212	2,576
212,5	4,49
212,9	4,233
213,4	4,633
213,9	7,433
214,3	6,605
214,8	14,69
215,3	11,519
215,7	12,062
216,2	17,976
216,7	17,376
217,1	15,09
217,6	17,548
218,1	15,062
218,5	14,69
219	6,005
219,5	-0,167
219,9	-3,51
220,4	6,919
220,9	0,29
221,3	0,262
221,8	7,233
222,3	14,033
222,7	17,576
223,2	18,89
223,6	9,405
224,1	11,748
224,6	10,833
225	4,833
225,5	4,233
226	4,119
226,4	4,348
226,9	6,976
227,4	6,633
227,8	-1,624
228,3	-0,367
228,8	-3,081
229,2	-4,624
229,7	-2,995
230,2	-0,538
230,6	-0,024
231,1	12,69
231,5	15,89
232	19,119
232,5	20,233
232,9	18,89
233,4	15,205
233,9	12,348
234,3	5,69
234,8	3,519
235,3	2,062
235,7	2,862
236,2	4,805
236,7	1,862
237,1	8,005
237,6	7,29
238,1	4,062
238,5	2,119
239	-0,481
239,4	1,89
239,9	2,919
240,4	-1,91
240,8	2,662
241,3	4,233
241,8	1,948
242,2	5,405
242,7	-0,195
243,2	4,005
243,6	7,262
244,1	7,576
244,6	11,405
245	14,262
245,5	13,119
245,9	11,376
246,4	9,662
246,9	8,976
247,3	5,205
247,8	2,319
248,3	3,548
248,7	4,833
249,2	9,719
249,7	7,062
250,1	9,119
250,6	10,433
251	15,29
251,5	17,176
252	12,148
252,4	9,719
252,9	8,919
253,4	4,005
253,8	2,005
254,3	-0,738
254,8	0,176
255,2	0,376
255,7	1,005
256,1	4,69
256,6	4,89
257,1	10,519
257,5	3,433
258	1,148
258,5	6,205
258,9	5,262
259,4	1,033
259,9	0,605
260,3	-2,595
260,8	5,519
261,2	5,119
261,7	3,748
262,2	4,519
262,6	7,89
263,1	9,062
263,6	6,605
264	8,862
264,5	8,29
264,9	6,89
265,4	9,262
265,9	4,348
266,3	8,09
266,8	10,462
267,3	6,548
267,7	9,033
268,2	9,862
268,7	9,348
269,1	14,662
269,6	9,49
270	10,49
270,5	7,519
271	5,262
271,4	5,748
271,9	1,319
272,4	6,205
272,8	9,948
273,3	4,633
273,7	7,176
274,2	8,033
274,7	7,833
275,1	13,49
275,6	7,862
276,1	4,919
276,5	11,062
277	10,69
277,4	10,119
277,9	10,433
278,4	10,233
278,8	11,919
279,3	15,262
279,8	11,376
280,2	13,776
280,7	17,776
281,1	15,033
281,6	13,605
282,1	11,748
282,5	8,433
283	13,433
283,4	11,09
283,9	10,919
284,4	17,233
284,8	13,948
285,3	12,29
285,8	13,719
286,2	5,548
286,7	4,233
287,1	-1,452
287,6	-5,167
288,1	-4,195
288,5	0,833
289	-2,567
289,5	0,49
289,9	-1,052
290,4	1,805
290,8	1,348
291,3	2,576
291,8	1,748
292,2	4,119
292,7	10,348
293,1	13,862
293,6	18,548
294,1	17,948
294,5	19,176
295	17,919
295,5	17,29
295,9	14,205
296,4	12,005
296,8	4,833
297,3	2,805
297,8	-2,481
298,2	-8,424
298,7	-3,11
299,1	-0,367
299,6	-1,938
300,1	2,033
300,5	6,919
301	12,805
301,5	22,376
301,9	19,919
302,4	14,09
302,8	17,69
303,3	12,519
303,8	4,605
304,2	-0,452
304,7	-5,881
305,1	-11,767
305,6	-11,395
306,1	-4,624
306,5	-1,71
307	6,376
307,4	13,005
307,9	12,148
308,4	14,49
308,8	9,719
309,3	2,719
309,8	2,69
310,2	1,205
310,7	-3,452
311,1	-2,167
311,6	1,948
312,1	10,062
312,5	9,376
313	11,976
313,4	9,49
313,9	10,748
314,4	11,49
314,8	3,576
315,3	0,348
315,7	-1,795
316,2	-4,338
316,7	-3,567
317,1	1,433
317,6	0,833
318	7,348
318,5	6,09
319	10,176
319,4	14,09
319,9	19,09
320,3	12,548
320,8	12,005
321,3	11,862
321,7	15,605
322,2	17,033
322,6	17,005
323,1	12,405
323,6	12,69
324	9,862
324,5	8,433
324,9	9,205
325,4	5,719
325,9	4,005
326,3	7,348
326,8	11,348
327,2	9,205
327,7	10,319
328,2	7,119
328,6	10,262
329,1	2,976
329,5	-4,052
330	-6,91
330,5	-0,11
330,9	2,148
331,4	1,405
331,8	-4,452
332,3	2,576
332,8	9,062
333,2	8,633
333,7	9,833
334,1	8,205
334,6	8,205
335,1	8,09
335,5	9,862
336	6,519
336,4	9,062
336,9	12,519
337,4	14,805
337,8	15,976
338,3	21,548
338,7	20,919
339,2	16,719
339,7	19,948
340,1	13,605
340,6	13,005
341	11,09
341,5	12,033
342	8,005
342,4	9,405
342,9	4,948
343,3	3,69
343,8	3,148
344,2	4,262
344,7	3,548
345,2	6,148
345,6	10,719
346,1	13,805
346,5	12,719
347	9,633
347,5	7,319
347,9	9,348
348,4	9,09
348,8	9,062
349,3	9,776
349,8	17,433
350,2	20,748
350,7	24,862
351,1	24,948
351,6	29,633
352	33,862
352,5	37,548
353	43,49
353,4	54,233
353,9	66,348
354,3	77,862
354,8	89,29
355,3	111,262
355,7	135,748
356,2	160,662
356,6	187,89
357,1	220,376
357,5	261,148
358	308,89
358,5	355,633
358,9	413,148
359,4	477,09
359,8	547,662
360,3	631,719
360,8	725,405
361,2	831,776
361,7	945,062
362,1	1068,005
362,6	1206,405
363	1356,148
363,5	1508,776
364	1673,319
364,4	1842,519
364,9	2018,662
365,3	2188,69
365,8	2342,005
366,3	2487,176
366,7	2626,462
367,2	2743,833
367,6	2832,776
368,1	2902,548
368,5	2946,005
369	2973,833
369,5	2981,662
369,9	2958,319
370,4	2910,719
370,8	2847,948
371,3	2761,919
371,7	2667,319
372,2	2554,69
372,7	2431,376
373,1	2299,005
373,6	2169,548
374	2037,833
374,5	1903,976
374,9	1776,148
375,4	1653,976
375,9	1529,176
376,3	1417,176
376,8	1303,776
377,2	1201,89
377,7	1103,576
378,2	1009,148
378,6	924,862
379,1	850,633
379,5	781,633
380	720,69
380,4	655,69
380,9	603,519
381,4	552,09
381,8	507,148
382,3	473,576
382,7	435,833
383,2	401,005
383,6	376,862
384,1	353,662
384,6	336,176
385	313,348
385,5	289,29
385,9	271,205
386,4	252,033
386,8	237,976
387,3	219,29
387,7	204,062
388,2	192,89
388,7	175,919
389,1	164,548
389,6	156,319
390	141,148
390,5	135,605
390,9	122,748
391,4	112,862
391,9	108,005
392,3	101,033
392,8	88,919
393,2	80,805
393,7	72,005
394,1	68,462
394,6	64,776
395,1	58,119
395,5	56,976
396	58,576
396,4	62,233
396,9	59,462
397,3	63,376
397,8	62,862
398,2	66,148
398,7	63,776
399,2	57,405
399,6	55,005
400,1	53,433
400,5	42,89
401	43,548
401,4	36,433
401,9	38,662
402,4	45,662
402,8	41,376
403,3	45,062
403,7	47,405
404,2	46,033
404,6	51,09
405,1	49,805
405,5	46,49
406	48,548
406,5	47,005
406,9	50,09
407,4	49,062
407,8	49,262
408,3	51,519
408,7	55,348
409,2	56,205
409,6	61,605
410,1	65,205
410,6	70,548
411	73,605
411,5	72,319
411,9	70,176
412,4	71,319
412,8	72,148
413,3	73,776
413,7	75,633
414,2	77,862
414,7	85,862
415,1	99,662
415,6	108,09
416	115,605
416,5	121,148
416,9	125,462
417,4	134,976
417,8	142,119
418,3	143,833
418,8	152,948
419,2	158,119
419,7	166,033
420,1	175,462
420,6	178,519
421	179,548
421,5	188,205
421,9	189,919
422,4	196,29
422,8	202,69
423,3	207,948
423,8	213,862
424,2	221,576
424,7	227,519
425,1	239,205
425,6	244,519
426	251,833
426,5	260,948
426,9	272,176
427,4	283,148
427,9	290,09
428,3	298,433
428,8	312,433
429,2	322,719
429,7	332,748
430,1	346,176
430,6	358,033
431	374,919
431,5	391,662
431,9	400,633
432,4	422,805
432,8	444,519
433,3	461,205
433,8	478,976
434,2	501,376
434,7	524,462
435,1	550,205
435,6	569,005
436	590,633
436,5	617,176
436,9	641,89
437,4	664,919
437,8	691,062
438,3	721,062
438,8	750,662
439,2	782,462
439,7	812,348
440,1	847,119
440,6	889,433
441	924,119
441,5	966,776
441,9	1004,005
442,4	1035,233
442,8	1075,976
443,3	1121,033
443,7	1157,119
444,2	1206,919
444,7	1245,776
445,1	1294,176
445,6	1350,062
446	1399,09
446,5	1446,548
446,9	1497,662
447,4	1544,348
447,8	1598,976
448,3	1658,49
448,7	1715,233
449,2	1775,262
449,6	1841,062
450,1	1891,405
450,6	1957,262
451	2025,433
451,5	2083,462
451,9	2153,062
452,4	2221,805
452,8	2282,576
453,3	2363,719
453,7	2432,348
454,2	2499,433
454,6	2573,833
455,1	2640,176
455,5	2709,833
456	2793,576
456,4	2864,233
456,9	2937,49
457,3	3012,862
457,8	3082,033
458,3	3160,748
458,7	3240,062
459,2	3318,319
459,6	3400,548
460,1	3484,433
460,5	3563,805
461	3656,205
461,4	3735,576
461,9	3820,69
462,3	3898,948
462,8	3984,49
463,2	4066,348
463,7	4157,148
464,1	4243,119
464,6	4333,633
465	4413,176
465,5	4498,633
466	4582,29
466,4	4666,89
466,9	4749,462
467,3	4831,948
467,8	4916,89
468,2	5010,405
468,7	5097,033
469,1	5186,205
469,6	5271,662
470	5354,262
470,5	5430,119
470,9	5504,919
471,4	5572,805
471,8	5648,233
472,3	5715,805
472,7	5792,805
473,2	5864,433
473,6	5935,033
474,1	6003,29
474,5	6084,948
475	6147,662
475,4	6217,719
475,9	6281,119
476,4	6346,919
476,8	6416,205
477,3	6481,148
477,7	6536,605
478,2	6605,09
478,6	6657,662
479,1	6702,89
479,5	6750,948
480	6797,633
480,4	6840,976
480,9	6885,519
481,3	6914,433
481,8	6954,576
482,2	6993,719
482,7	7027,519
483,1	7061,062
483,6	7092,205
484	7117,348
484,5	7154,719
484,9	7176,519
485,4	7205,29
485,8	7230,376
486,3	7242,919
486,7	7269,548
487,2	7282,748
487,6	7298,233
488,1	7303,976
488,5	7302,862
489	7307,49
489,4	7317,89
489,9	7312,119
490,4	7309,976
490,8	7300,405
491,3	7298,548
491,7	7286,119
492,2	7275,748
492,6	7256,348
493,1	7231,776
493,5	7209,519
494	7180,405
494,4	7157,69
494,9	7141,148
495,3	7112,548
495,8	7085,633
496,2	7068,805
496,7	7038,09
497,1	7018,719
497,6	6994,262
498	6965,719
498,5	6934,69
498,9	6899,948
499,4	6855,919
499,8	6832,69
500,3	6786,633
500,7	6739,49
501,2	6696,633
501,6	6652,49
502,1	6616,433
502,5	6583,919
503	6536,148
503,4	6494,662
503,9	6452,005
504,3	6402,262
504,8	6356,548
505,2	6304,748
505,7	6251,662
506,1	6199,719
506,6	6147,748
507	6096,233
507,5	6053,376
507,9	5997,319
508,4	5943,633
508,8	5891,005
509,3	5835,719
509,7	5782,833
510,2	5731,69
510,6	5671,033
511,1	5622,462
511,5	5571,633
512	5517,49
512,4	5467,519
512,9	5412,233
513,3	5359,462
513,8	5306,748
514,2	5249,576
514,7	5192,662
515,1	5132,148
515,6	5074,176
516	5017,633
516,5	4967,348
516,9	4908,205
517,4	4860,49
517,8	4810,176
518,3	4768,49
518,7	4716,662
519,2	4668,433
519,6	4607,662
520,1	4559,319
520,5	4497,948
521	4442,005
521,4	4387,29
521,9	4333,176
522,3	4282,748
522,8	4238,405
523,2	4192,719
523,7	4149,805
524,1	4101,833
524,6	4046,405
525	3998,748
525,5	3949,176
525,9	3897,205
526,4	3843,633
526,8	3797,376
527,3	3756,548
527,7	3724,319
528,2	3685,262
528,6	3637,805
529,1	3603,919
529,5	3569,433
530	3530,919
530,4	3486,805
530,9	3441,233
531,3	3403,405
531,8	3367,576
532,2	3324,233
532,6	3282,29
533,1	3240,119
533,5	3205,776
534	3166,833
534,4	3126,433
534,9	3089,462
535,3	3048,405
535,8	3018,348
536,2	2987,005
536,7	2950,062
537,1	2917,233
537,6	2884,89
538	2854,662
538,5	2828,576
538,9	2787,633
539,4	2755,062
539,8	2721,948
540,3	2691,119
540,7	2661,319
541,2	2627,49
541,6	2595,976
542,1	2571,29
542,5	2543,319
543	2516,576
543,4	2486,29
543,9	2460,319
544,3	2439,89
544,8	2417,748
545,2	2394,005
545,7	2369,262
546,1	2351,662
546,5	2332,89
547	2309,262
547,4	2288,376
547,9	2260,948
548,3	2237,405
548,8	2215,176
549,2	2185,49
549,7	2160,148
550,1	2137,662
550,6	2109,405
551	2092,433
551,5	2069,862
551,9	2051,748
552,4	2036,319
552,8	2017,262
553,3	1997,748
553,7	1979,348
554,2	1960,919
554,6	1948,605
555,1	1930,833
555,5	1913,776
555,9	1896,262
556,4	1880,548
556,8	1865,433
557,3	1847,862
557,7	1832,719
558,2	1813,205
558,6	1796,119
559,1	1779,433
559,5	1761,233
560	1750,262
560,4	1735,833
560,9	1716,748
561,3	1705,233
561,8	1689,69
562,2	1677,633
562,7	1666,605
563,1	1653,233
563,6	1636,89
564	1624,976
564,4	1611,262
564,9	1600,719
565,3	1589,433
565,8	1576,49
566,2	1561,605
566,7	1553,633
567,1	1543,005
567,6	1529,433
568	1516,89
568,5	1503,376
568,9	1488,09
569,4	1479,919
569,8	1470,319
570,3	1457,919
570,7	1444,205
571,1	1432,633
571,6	1425,633
572	1421,29
572,5	1411,433
572,9	1396,833
573,4	1387,176
573,8	1381,605
574,3	1370,519
574,7	1358,662
575,2	1346,262
575,6	1336,09
576,1	1330,69
576,5	1325,776
576,9	1312,519
577,4	1303,976
577,8	1296,348
578,3	1286,005
578,7	1273,576
579,2	1266,033
579,6	1247,205
580,1	1235,119
580,5	1230,033
581	1217,348
581,4	1210,205
581,9	1205,205
582,3	1190,662
582,7	1188,805
583,2	1179,433
583,6	1167,919
584,1	1161,462
584,5	1155,033
585	1145,605
585,4	1136,005
585,9	1125,09
586,3	1124,319
586,8	1116,976
587,2	1109,69
587,6	1104,319
588,1	1103,205
588,5	1099,462
589	1097,776
589,4	1090,348
589,9	1087,49
590,3	1081,49
590,8	1077,376
591,2	1067,976
591,7	1064,69
592,1	1056,548
592,5	1054,948
593	1043,548
593,4	1043,89
593,9	1032,005
594,3	1017,662
594,8	1008,49
595,2	1003,319
595,7	996,576
596,1	991,633
596,6	981,633
597	977,262
597,4	978,862
597,9	971,805
598,3	968,519
598,8	960,976
599,2	957,948
599,7	954,348
600,1	947,576
600,6	941,319
601	939,433
601,4	933,919
601,9	933,09
602,3	922,948
602,8	913,319
603,2	911,976
603,7	907,49
604,1	899,833
604,6	889,376
605	880,319
605,4	881,69
605,9	877,462
606,3	866,233
606,8	858,462
607,2	853,976
607,7	846,519
608,1	839,662
608,6	835,09
609	840,69
609,4	843,233
609,9	839,919
610,3	838,805
610,8	836,605
611,2	830,462
611,7	824,033
612,1	806,462
612,6	798,49
613	797,176
613,4	790,033
613,9	784,062
614,3	780,376
614,8	778,633
615,2	775,033
615,7	772,548
616,1	766,748
616,6	763,176
617	761,919
617,4	757,919
617,9	754,576
618,3	751,89
618,8	749,319
619,2	743,49
619,7	742,605
620,1	736,376
620,5	734,262
621	723,433
621,4	722,948
621,9	715,09
622,3	713,548
622,8	701,405
623,2	696,89
623,6	691,462
624,1	691,49
624,5	683,605
625	686,319
625,4	681,319
625,9	683,919
626,3	678,719
626,8	677,176
627,2	673,09
627,6	663,376
628,1	652,319
628,5	652,976
629	646,976
629,4	642,148
629,9	638,948
630,3	630,633
630,7	628,548
631,2	625,719
631,6	616,29
632,1	614,062
632,5	619,233
633	614,49
633,4	613,176
633,8	610,662
634,3	606,205
634,7	602,033
635,2	589,376
635,6	583,833
636,1	578,405
636,5	569,119
636,9	565,662
637,4	558,919
637,8	551,833
638,3	553,205
638,7	545,205
639,2	540,09
639,6	543,776
640	542,548
640,5	543,09
640,9	543,205
641,4	542,519
641,8	540,776
642,2	537,662
642,7	535,319
643,1	532,976
643,6	529,862
644	528,633
644,5	523,319
644,9	519,462
645,3	519,462
645,8	511,462
646,2	507,576
646,7	501,862
647,1	492,319
647,6	491,033
648	491,433
648,4	481,148
648,9	482,633
649,3	476,062
649,8	475,29
650,2	477,49
650,6	473,09
651,1	465,49
651,5	470,233
652	464,348
652,4	466,89
652,9	464,09
653,3	459,09
653,7	457,09
654,2	451,719
654,6	445,633
655,1	446,405
655,5	445,862
655,9	444,89
656,4	442,433
656,8	440,49
657,3	442,633
657,7	445,748
658,2	440,633
658,6	430,548
659	428,205
659,5	423,119
659,9	419,89
660,4	417,433
660,8	408,033
661,2	402,69
661,7	405,776
662,1	400,576
662,6	401,605
663	396,605
663,4	393,319
663,9	394,548
664,3	391,348
664,8	385,519
665,2	380,948
665,6	375,433
666,1	376,919
666,5	375,09
667	372,89
667,4	370,376
667,9	371,176
668,3	367,519
668,7	368,062
669,2	364,69
669,6	360,633
670,1	359,433
670,5	357,89
670,9	350,433
671,4	350,976
671,8	350,348
672,3	351,605
672,7	351,69
673,1	344,376
673,6	346,005
674	349,348
674,5	348,548
674,9	341,176
675,3	335,462
675,8	333,576
676,2	334,205
676,7	329,433
677,1	326,319
677,5	321,976
678	323,233
678,4	322,119
678,9	318,033
679,3	312,719
679,7	311,348
680,2	304,605
680,6	302,405
681,1	300,548
681,5	297,262
681,9	296,49
682,4	296,09
682,8	297,319
683,3	297,576
683,7	297,776
684,1	294,405
684,6	293,776
685	294,49
685,5	292,433
685,9	283,462
686,3	278,205
686,8	276,519
687,2	269,605
687,7	262,833
688,1	255,005
688,5	252,776
689	254,862
689,4	255,062
689,9	251,262
690,3	251,605
690,7	253,462
691,2	256,662
691,6	257,862
692	253,748
692,5	253,262
692,9	253,062
693,4	255,948
693,8	254,262
694,2	247,719
694,7	243,205
695,1	244,462
695,6	244,576
696	242,948
696,4	238,062
696,9	234,462
697,3	234,405
697,8	231,49
698,2	226,119
698,6	222,948
699,1	222,405
699,5	223,633
699,9	223,319
700,4	220,69
700,8	225,833
701,3	225,776
701,7	225,49
702,1	221,948
702,6	217,462
703	217,748
703,5	216,119
703,9	212,262
704,3	211,062
704,8	210,748
705,2	209,405
705,6	211,919
706,1	208,148
706,5	206,862
707	203,776
707,4	205,519
707,8	199,176
708,3	202,29
708,7	197,176
709,2	195,262
709,6	194,119
710	196,948
710,5	188,033
710,9	190,805
711,3	183,748
711,8	184,09
712,2	185,09
712,7	181,005
713,1	176,005
713,5	178,805
714	178,576
714,4	177,976
714,8	177,976
715,3	175,862
715,7	180,833
716,2	175,662
716,6	181,033
717	171,748
717,5	172,833
717,9	173,033
718,3	170,233
718,8	164,49
719,2	168,919
719,7	161,433
720,1	168,176
720,5	168,348
721	163,005
721,4	163,09
721,8	169,662
722,3	161,462
722,7	166,948
723,2	158,862
723,6	151,348
724	151,519
724,5	149,548
724,9	143,776
725,3	146,205
725,8	138,719
726,2	140,576
726,7	143,69
727,1	144,29
727,5	142,719
728	134,69
728,4	136,433
728,8	135,662
729,3	131,633
729,7	129,576
730,1	127,205
730,6	127,348
731	132,49
731,5	131,376
731,9	130,062
732,3	134,262
732,8	132,633
733,2	131,319
733,6	130,262
734,1	128,29
734,5	127,205
734,9	131,69
735,4	133,576
735,8	129,633
736,3	132,205
736,7	132,519
737,1	129,605
737,6	125,148
738	117,605
738,4	113,548
738,9	118,062
739,3	112,948
739,7	108,005
740,2	110,519
740,6	117,205
741,1	121,976
741,5	116,376
741,9	114,576
742,4	117,89
742,8	119,976
743,2	118,976
743,7	109,976
744,1	104,976
744,5	109,49
745	103,605
745,4	101,519
745,8	102,348
746,3	104,348
746,7	107,319
747,2	110,205
747,6	110,49
748	117,633
748,5	119,405
748,9	114,033
749,3	109,776
749,8	111,176
750,2	110,233
750,6	106,462
751,1	105,805
751,5	101,462
751,9	103,233
752,4	106,69
752,8	101,376
753,3	98,262
753,7	102,033
754,1	97,348
754,6	95,89
755	98,605
755,4	94,148
755,9	94,605
756,3	93,776
756,7	90,69
757,2	90,776
757,6	91,433
758	88,376
758,5	85,89
758,9	86,548
759,3	89,033
759,8	91,805
760,2	91,29
760,6	87,233
761,1	86,348
761,5	90,376
761,9	89,062
762,4	86,205
762,8	82,09
763,3	79,719
763,7	83,148
764,1	83,776
764,6	79,348
765	78,433
765,4	78,462
765,9	80,348
766,3	82,49
766,7	78,576
767,2	77,462
767,6	81,519
768	83,633
768,5	84,49
768,9	83,09
769,3	80,29
769,8	81,176
770,2	80,233
770,6	77,462
771,1	76,605
771,5	75,948
771,9	76,062
772,4	81,862
772,8	82,233
773,2	81,376
773,7	83,833
774,1	83,69
774,5	78,662
775	76,29
775,4	76,462
775,8	71,976
776,3	74,862
776,7	73,205
777,1	72,062
777,6	76,376
778	81,948
778,4	76,119
778,9	81,49
779,3	76,69
779,7	75,548
780,2	74,576
780,6	71,576
781	65,919
781,5	64,119
781,9	63,633
782,3	61,976
782,8	59,976
783,2	61,29
783,6	66,09
784,1	65,462
784,5	62,405
784,9	64,576
785,4	70,69
785,8	70,976
786,2	69,033
786,7	67,605
787,1	67,262
787,5	69,09
788	65,49
788,4	64,89
788,8	64,776
789,3	62,605
789,7	59,005
790,1	58,519
790,6	64,005
791	59,919
791,4	59,176
791,9	55,062
792,3	54,748
792,7	60,519
793,2	54,919
793,6	52,405
794	56,948
794,5	48,519
794,9	57,233
795,3	62,005
795,8	59,89
796,2	69,176
796,6	69,176
797,1	66,719
797,5	71,29
797,9	65,433
798,4	59,633
798,8	56,005
799,2	47,89
799,7	48,005
800,1	45,862
800,5	48,833
801	52,09
801,4	55,119
801,8	49,976
802,2	52,148
802,7	46,776
803,1	48,033
803,5	45,119
804	45,69
804,4	46,862
804,8	54,119
805,3	56,519
805,7	63,89
806,1	64,662
806,6	64,948
807	57,605
807,4	50,49
807,9	44,633
808,3	45,319
808,7	41,462
809,2	43,519
809,6	40,662
810	43,319
810,4	48,433
810,9	52,033
811,3	50,062
811,7	47,148
812,2	53,376
812,6	55,319
813	58,748
813,5	58,119
813,9	55,805
814,3	57,005
814,8	58,09
815,2	46,919
815,6	47,119
816,1	44,862
816,5	41,262
816,9	41,976
817,3	40,776
817,8	44,976
818,2	45,576
818,6	43,433
819,1	38,919
819,5	41,49
819,9	38,805
820,4	37,605
820,8	33,205
821,2	28,976
821,7	33,805
822,1	35,89
822,5	40,376
822,9	42,119
823,4	42,433
823,8	44,205
824,2	51,376
824,7	44,233
825,1	40,919
825,5	34,405
826	30,719
826,4	28,176
826,8	25,033
827,3	23,776
827,7	23,662
828,1	31,262
828,5	30,576
829	30,062
829,4	27,719
829,8	28,719
830,3	26,119
830,7	29,005
831,1	25,233
831,6	26,633
832	28,776
832,4	29,433
832,8	32,776
833,3	32,605
833,7	26,719
834,1	26,176
834,6	21,005
835	20,662
835,4	24,633
835,8	15,976
836,3	15,433
836,7	19,748
837,1	18,548
837,6	20,576
838	20,576
838,4	20,062
838,9	23,833
839,3	22,576
839,7	23,548
840,1	18,29
840,6	23,805
841	26,519
841,4	27,69
841,9	27,662
842,3	26,776
842,7	25,09
843,1	28,433
843,6	25,49
844	24,548
844,4	26,805
844,9	30,576
845,3	33,462
845,7	30,005
846,2	30,062
846,6	25,662
847	26,205
847,4	25,519
847,9	23,376
848,3	23,262
848,7	27,605
849,2	26,233
849,6	29,29
850	30,49
850,4	26,319
850,9	26,976
851,3	29,433
851,7	31,805
852,2	31,805
852,6	36,948
853	33,376
853,4	31,405
853,9	25,348
854,3	23,319
854,7	21,605
855,2	19,948
855,6	17,805
856	15,69
856,4	16,49
856,9	17,176
857,3	19,605
857,7	21,719
858,2	28,09
858,6	26,205
859	30,09
859,4	30,776
859,9	31,548
860,3	26,633
860,7	25,405
861,1	24,148
861,6	23,319
862	22,433
862,4	21,548
862,9	23,405
863,3	25,319
863,7	24,148
864,1	22,833
864,6	21,405
865	20,919
865,4	17,919
865,9	23,976
866,3	20,576
866,7	19,29
867,1	14,09
867,6	15,348
868	15,919
868,4	19,548
868,8	19,833
869,3	20,005
869,7	25,919
870,1	27,205
870,6	24,033
871	-55,31
871,4	-49,481
871,8	-58,767
872,3	-56,452
872,7	-60,538
873,1	-59,71
873,5	-54,081
874	20,233
874,4	12,948
874,8	15,662
875,3	16,148
875,7	13,662
876,1	17,148
876,5	14,062
877	14,319
877,4	12,805
877,8	16,519
878,2	20,405
878,7	20,09
879,1	19,719
879,5	18,748
879,9	22,433
880,4	24,805
880,8	22,519
881,2	18,719
881,7	17,776
882,1	15,119
882,5	12,862
882,9	10,233
883,4	6,776
883,8	5,776
884,2	4,49
884,6	5,519
885,1	8,776
885,5	13,233
885,9	17,233
886,3	20,719
886,8	21,576
887,2	15,662
887,6	12,862
888	12,319
888,5	12,948
888,9	9,748
889,3	8,09
889,8	3,262
890,2	8,719
890,6	8,605
891	10,462
891,5	7,919
891,9	6,719
892,3	7,519
892,7	11,576
893,2	14,205
893,6	17,376
894	14,862
894,4	9,119
894,9	12,29
895,3	12,433
895,7	12,69
896,1	10,405
896,6	11,062
897	12,548
897,4	21,233
897,8	20,548
898,3	18,748
898,7	14,633
899,1	15,719
899,5	14,29
900	11,49
900,4	11,119
900,8	8,148
901,2	7,376
901,7	7,862
902,1	8,69
902,5	12,233
902,9	13,348
903,4	11,748
903,8	14,548
904,2	12,976
904,6	16,805
905,1	15,176
905,5	12,49
905,9	13,09
906,3	13,233
906,8	14,233
907,2	16,062
907,6	16,948
908	17,205
908,5	17,176
908,9	15,348
909,3	9,348
909,7	10,233
910,2	11,633
910,6	12,776
911	10,662
911,4	11,462
911,9	11,919
912,3	15,805
912,7	18,319
913,1	19,376
913,6	13,005
914	13,119
914,4	7,833
914,8	8,233
915,3	7,805
915,7	0,033
916,1	-0,538
916,5	2,405
916,9	4,119
917,4	8,148
917,8	9,405
918,2	8,09
918,6	5,976
919,1	6,233
919,5	6,262
919,9	4,49
920,3	3,919
920,8	1,29
921,2	-0,052
921,6	3,948
922	4,805
922,5	6,433
922,9	7,519
923,3	5,548
923,7	7,405
924,2	7,319
924,6	6,776
925	8,319
925,4	3,719
925,8	2,948
926,3	5,748
926,7	2,348
927,1	4,719
927,5	8,09
928	5,719
928,4	4,462
928,8	8,719
929,2	6,919
929,7	10,348
930,1	13,376
930,5	10,948
930,9	11,062
931,3	10,148
931,8	7,69
932,2	8,405
932,6	4,633
933	-1,767
933,5	-4,795
933,9	-1,538
934,3	2,462
934,7	0,233
935,2	-0,91
935,6	1,548
936	6,69
936,4	9,748
936,8	9,633
937,3	6,833
937,7	11,805
938,1	18,519
938,5	14,519
939	15,119
939,4	16,176
939,8	10,776
940,2	14,29
940,6	12,805
941,1	8,262
941,5	16,548
941,9	15,348
942,3	14,919
942,8	18,49
943,2	25,176
943,6	18,748
944	22,433
944,4	15,49
944,9	11,948
945,3	7,805
945,7	-0,224
946,1	-10,51
946,6	-10,424
947	-14,767
947,4	-6,681
947,8	-2,224
948,2	2,062
948,7	6,09
949,1	7,262
949,5	16,948
949,9	16,348
950,3	13,49
950,8	10,69
951,2	7,548
951,6	7,89
952	11,662
952,5	3,719
952,9	6,805
953,3	2,805
953,7	4,462
954,1	8,119
954,6	9,348
955	7,319
955,4	5,833
955,8	10,548
956,2	8,89
956,7	8,033
957,1	4,376
957,5	4,69
957,9	5,348
958,3	9,405
958,8	6,719
959,2	9,69
959,6	12,919
960	12,976
960,5	16,833
960,9	19,205
961,3	15,605
961,7	11,062
962,1	10,605
962,6	9,833
963	11,633
963,4	4,519
963,8	1,633
964,2	8,09
964,7	7,748
965,1	9,662
965,5	5,519
965,9	7,062
966,3	11,405
966,8	10,319
967,2	8,633
967,6	10,233
968	8,319
968,4	11,662
968,9	10,833
969,3	14,176
969,7	11,033
970,1	10,433
970,5	10,376
971	16,376
971,4	15,062
971,8	18,719
972,2	13,633
972,6	16,433
973,1	13,748
973,5	12,462
973,9	7,748
974,3	9,833
974,7	9,319
975,2	8,205
975,6	8,948
976	10,062
976,4	2,89
976,8	-1,795
977,3	-6,767
977,7	-9,967
978,1	-7,052
978,5	-8,71
978,9	-9,367
979,4	-5,938
979,8	-2,938
980,2	-0,852
980,6	-3,224
981	-3,081
981,5	-4,31
981,9	-3,167
982,3	2,976
982,7	7,49
983,1	9,29
983,6	11,062
984	9,176
984,4	13,062
984,8	11,005
985,2	6,805
985,6	2,719
986,1	-0,938
986,5	1,433
986,9	-2,081
987,3	-1,824
987,7	-1,081
988,2	-3,252
988,6	-0,91
989	3,005
989,4	-1,224
989,8	3,405
990,3	0,005
990,7	-4,31
991,1	-4,252
991,5	-2,252
991,9	-2,51
992,3	2,519
992,8	6,119
993,2	7,405
993,6	14,262
994	16,519
994,4	12,748
994,9	11,433
995,3	10,062
995,7	6,033
996,1	4,833
996,5	7,319
996,9	6,148
997,4	7,262
997,8	5,319
998,2	3,748
998,6	-1,424
999	0,062
999,5	-3,252
999,9	-4,367
1000,3	-6,338
1000,7	-3,338
1001,1	-4,252
1001,5	2,09
1002	3,719
1002,4	2,148
1002,8	4,062
1003,2	8,205
1003,6	7,033
1004	12,433
1004,5	8,176
1004,9	9,176
1005,3	5,519
1005,7	7,09
1006,1	3,69
1006,6	4,062
1007	3,262
1007,4	5,433
1007,8	5,319
1008,2	7,405
1008,6	9,262
1009,1	7,376
1009,5	9,119
1009,9	8,662
1010,3	7,519
1010,7	5,833
1011,1	9,433
1011,6	4,633
1012	10,776
1012,4	9,005
1012,8	4,719
1013,2	11,662
1013,6	13,319
1014,1	12,919
1014,5	14,033
1014,9	11,033
1015,3	10,376
1015,7	11,862
1016,1	5,89
1016,6	5,576
1017	6,148
1017,4	5,833
1017,8	3,919
1018,2	8,605
1018,6	6,233
1019,1	3,148
1019,5	2,719
1019,9	-2,767
1020,3	0,348
1020,7	3,49
1021,1	-1,252
1021,6	0,976
1022	8,919
1022,4	6,319
1022,8	10,433
1023,2	11,148
1023,6	8,119
1024,1	14,862
1024,5	15,633
1024,9	11,719
1025,3	15,062
1025,7	14,719
1026,1	14,29
1026,6	16,205
1027	10,29
1027,4	14,49
1027,8	10,519
1028,2	9,233
1028,6	12,89
1029	12,948
1029,5	13,09
1029,9	16,776
1030,3	11,262
1030,7	12,462
1031,1	16,548
1031,5	8,205
1032	8,062
1032,4	10,519
1032,8	8,176
1033,2	9,233
1033,6	10,033
1034	7,433
1034,4	9,09
1034,9	12,49
1035,3	6,748
1035,7	9,033
1036,1	8,748
1036,5	7,176
1036,9	7,748
1037,4	12,405
1037,8	6,348
1038,2	5,519
1038,6	4,662
1039	3,948
1039,4	10,862
1039,8	2,948
1040,3	2,862
1040,7	4,376
1041,1	9,662
1041,5	11,205
1041,9	11,348
1042,3	8,776
1042,7	14,433
1043,2	14,548
1043,6	11,719
1044	7,433
1044,4	6,519
1044,8	6,862
1045,2	8,348
1045,6	11,262
1046,1	12,89
1046,5	9,633
1046,9	9,233
1047,3	5,062
1047,7	4,862
1048,1	-2,538
1048,5	-4,824
1049	-6,281
1049,4	4,405
1049,8	5,805
1050,2	8,29
1050,6	12,262
1051	15,919
1051,4	16,176
1051,9	16,319
1052,3	18,862
1052,7	19,205
1053,1	16,262
1053,5	14,49
1053,9	14,89
1054,3	14,348
1054,8	16,976
1055,2	12,633
1055,6	15,719
1056	18,833
1056,4	16,833
1056,8	13,119
1057,2	10,033
1057,6	4,148
1058,1	4,29
1058,5	-1,881
1058,9	-1,967
1059,3	-0,795
1059,7	5,519
1060,1	10,605
1060,5	17,576
1061	18,176
1061,4	22,919
1061,8	24,633
1062,2	22,776
1062,6	20,319
1063	21,205
1063,4	13,69
1063,8	8,319
1064,3	3,119
1064,7	-0,852
1065,1	-2,652
1065,5	-2,938
1065,9	-6,938
1066,3	-9,71
1066,7	-9,452
1067,1	-9,595
1067,6	-6,281
1068	-5,795
1068,4	-2,481
1068,8	1,033
1069,2	7,948
1069,6	10,119
1070	16,805
1070,4	13,005
1070,9	12,862
1071,3	12,119
1071,7	6,576
1072,1	3,948
1072,5	0,69
1072,9	-3,195
1073,3	-0,452
1073,7	1,119
1074,2	-1,138
1074,6	2,519
1075	1,862
1075,4	6,233
1075,8	8,719
1076,2	4,49
1076,6	4,176
1077	4,348
1077,5	8,233
1077,9	8,776
1078,3	6,033
1078,7	4,319
1079,1	8,233
1079,5	7,605
1079,9	10,233
1080,3	10,405
1080,7	7,948
1081,2	13,09
1081,6	11,205
1082	12,005
1082,4	17,205
1082,8	14,89
1083,2	13,633
1083,6	18,148
1084	15,69
1084,5	20,919
1084,9	17,348
1085,3	10,005
1085,7	10,005
1086,1	8,548
1086,5	9,862
1086,9	11,233
1087,3	6,69
1087,7	5,376
1088,2	8,405
1088,6	6,119
1089	6,262
1089,4	3,633
1089,8	1,062
1090,2	3,033
1090,6	2,833
1091	4,605
1091,4	7,862
1091,9	8,662
1092,3	9,548
1092,7	4,776
1093,1	7,69
1093,5	7,633
1093,9	5,69
1094,3	9,348
1094,7	8,548
1095,1	9,033
1095,5	14,776
1096	13,576
1096,4	17,633
1096,8	18,89
1097,2	14,062
1097,6	16,976
1098	12,033
1098,4	12,719
1098,8	10,576
1099,2	12,919
1099,6	8,719
1100,1	8,862
1100,5	4,748
1100,9	6,233
1101,3	5,433
1101,7	4,948
1102,1	2,205
1102,5	7,233
1102,9	8,09
1103,3	7,29
1103,7	10,833
1104,2	9,29
1104,6	8,319
1105	8,319
1105,4	4,976
1105,8	3,005
1106,2	1,948
1106,6	-0,395
1107	-0,395
1107,4	0,267
1107,8	-1,127
1108,3	-0,217
