Data from Subt2_238.txt Node
Date: Sat Aug 26 18:55:33 MSK 2023
User: vat
Spectrometer: MAYP114033
Trigger mode: 0
Integration Time (sec): 1,000000E0
Scans to average: 5
Electric dark correction enabled: true
Nonlinearity correction enabled: false
Boxcar width: 3
XAxis mode: Wavelengths
Number of Pixels in Spectrum: 2068
>>>>>Begin Spectral Data<<<<<
199,4	-0,467
199,9	-0,067
200,4	0,133
200,8	2,819
201,3	4,276
201,8	5,048
202,2	4,448
202,7	8,648
203,2	9,333
203,6	9,505
204,1	3,648
204,6	1,305
205	0,848
205,5	2,99
206	0,962
206,4	1,619
206,9	1,733
207,4	4,419
207,8	6,105
208,3	7,276
208,8	5,105
209,2	6,133
209,7	6,19
210,2	3,533
210,6	5,476
211,1	7,876
211,5	4,419
212	6,162
212,5	3,876
212,9	2,99
213,4	5,219
213,9	-0,495
214,3	-1,638
214,8	3,819
215,3	0,819
215,7	3,105
216,2	9,276
216,7	10,619
217,1	13,705
217,6	15,562
218,1	10,733
218,5	11,933
219	7,933
219,5	2,933
219,9	2,848
220,4	12,533
220,9	9,819
221,3	11,305
221,8	14,733
222,3	16,19
222,7	17,248
223,2	16,505
223,6	6,648
224,1	6,305
224,6	5,448
225	2,448
225,5	1,619
226	2,219
226,4	2,705
226,9	7,105
227,4	10,505
227,8	6,305
228,3	8,333
228,8	8,39
229,2	7,133
229,7	5,533
230,2	0,79
230,6	1,562
231,1	10,733
231,5	10,19
232	14,105
232,5	13,819
232,9	17,305
233,4	24,305
233,9	18,762
234,3	18,076
234,8	13,99
235,3	6,362
235,7	6,705
236,2	3,419
236,7	-0,495
237,1	3,99
237,6	-1,238
238,1	-1,61
238,5	-1,238
239	-0,924
239,4	4,048
239,9	2,419
240,4	-0,324
240,8	7,562
241,3	7,19
241,8	12,333
242,2	10,19
242,7	2,39
243,2	2,562
243,6	0,676
244,1	-4,067
244,6	2,705
245	0,59
245,5	2,105
245,9	1,876
246,4	3,99
246,9	7,505
247,3	8,79
247,8	7,905
248,3	9,076
248,7	8,419
249,2	15,876
249,7	11,448
250,1	10,248
250,6	8,905
251	5,905
251,5	5,419
252	6,162
252,4	5,905
252,9	8,248
253,4	2,876
253,8	-0,41
254,3	1,333
254,8	4,419
255,2	1,705
255,7	-2,381
256,1	0,219
256,6	4,648
257,1	7,133
257,5	4,876
258	-0,038
258,5	-0,552
258,9	0,076
259,4	-2,695
259,9	3,305
260,3	3,762
260,8	-0,038
261,2	2,162
261,7	5,533
262,2	3,419
262,6	6,19
263,1	3,19
263,6	1,162
264	9,305
264,5	12,305
264,9	9,019
265,4	11,619
265,9	11,333
266,3	11,933
266,8	14,448
267,3	11,448
267,7	7,248
268,2	11,276
268,7	11,505
269,1	13,048
269,6	9,505
270	10,248
270,5	12,905
271	14,676
271,4	11,448
271,9	8,705
272,4	9,476
272,8	12,419
273,3	9,19
273,7	8,219
274,2	7,59
274,7	5,676
275,1	9,876
275,6	7,048
276,1	3,362
276,5	10,048
277	10,048
277,4	11,762
277,9	16,59
278,4	16,733
278,8	19,533
279,3	23,219
279,8	20,848
280,2	19,648
280,7	20,79
281,1	18,133
281,6	19,705
282,1	17,876
282,5	16,448
283	15,762
283,4	12,762
283,9	12,733
284,4	17,876
284,8	16,076
285,3	12,933
285,8	11,305
286,2	10,019
286,7	11,305
287,1	8,59
287,6	6,105
288,1	3,362
288,5	7,419
289	6,362
289,5	7,876
289,9	7,99
290,4	6,79
290,8	8,305
291,3	11,39
291,8	8,419
292,2	8,733
292,7	11,648
293,1	12,99
293,6	15,733
294,1	14,105
294,5	12,362
295	13,505
295,5	12,048
295,9	8,505
296,4	7,99
296,8	4,276
297,3	5,305
297,8	3,248
298,2	0,79
298,7	6,133
299,1	7,876
299,6	6,676
300,1	10,248
300,5	10,505
301	13,733
301,5	19,962
301,9	17,19
302,4	12,419
302,8	13,705
303,3	10,79
303,8	3,362
304,2	2,39
304,7	0,619
305,1	-3,324
305,6	-0,552
306,1	5,933
306,5	10,39
307	16,676
307,4	18,133
307,9	15,305
308,4	17,933
308,8	16,19
309,3	14,133
309,8	15,448
310,2	16,933
310,7	10,848
311,1	11,705
311,6	13,705
312,1	14,19
312,5	15,705
313	13,419
313,4	12,019
313,9	16,505
314,4	13,648
314,8	9,99
315,3	12,762
315,7	7,048
316,2	4,876
316,7	1,79
317,1	7,019
317,6	10,733
318	18,705
318,5	14,705
319	15,219
319,4	16,419
319,9	23,762
320,3	19,048
320,8	15,39
321,3	13,276
321,7	16,39
322,2	15,762
322,6	18,99
323,1	12,848
323,6	11,219
324	14,248
324,5	10,79
324,9	11,048
325,4	13,362
325,9	12,076
326,3	15,076
326,8	19,276
327,2	18,505
327,7	14,876
328,2	13,905
328,6	13,533
329,1	9,819
329,5	8,362
330	6,733
330,5	7,105
330,9	14,705
331,4	16,105
331,8	11,105
332,3	11,19
332,8	14,133
333,2	11,39
333,7	12,962
334,1	12,248
334,6	7,476
335,1	5,733
335,5	6,305
336	3,648
336,4	6,562
336,9	14,162
337,4	16,105
337,8	17,133
338,3	24,162
338,7	26,762
339,2	23,962
339,7	23,419
340,1	13,99
340,6	7,105
341	5,162
341,5	1,619
342	-0,467
342,4	0,562
342,9	-2,038
343,3	-4,381
343,8	-0,152
344,2	0,933
344,7	6,876
345,2	5,59
345,6	5,048
346,1	7,619
346,5	7,819
347	4,305
347,5	3,105
347,9	2,79
348,4	5,105
348,8	9,362
349,3	10,99
349,8	14,333
350,2	21,533
350,7	19,962
351,1	17,19
351,6	16,905
352	16,305
352,5	18,419
353	25,905
353,4	32,619
353,9	47,019
354,3	58,076
354,8	71,39
355,3	91,676
355,7	105,476
356,2	122,133
356,6	135,79
357,1	160,019
357,5	186,333
358	219,876
358,5	248,733
358,9	290,133
359,4	332,848
359,8	382,79
360,3	440,048
360,8	500,048
361,2	567,905
361,7	648,305
362,1	735,962
362,6	831,276
363	931,848
363,5	1040,276
364	1159,305
364,4	1274,333
364,9	1389,105
365,3	1502,79
365,8	1607,362
366,3	1708,99
366,7	1799,79
367,2	1875,876
367,6	1941,448
368,1	1991,448
368,5	2027,362
369	2045,505
369,5	2049,076
369,9	2033,99
370,4	2007,79
370,8	1965,676
371,3	1905,819
371,7	1836,933
372,2	1760,762
372,7	1677,733
373,1	1584,448
373,6	1488,848
374	1394,448
374,5	1303,99
374,9	1211,333
375,4	1125,019
375,9	1041,419
376,3	964,133
376,8	886,905
377,2	816,076
377,7	747,733
378,2	681,533
378,6	623,876
379,1	569,705
379,5	524,419
380	485,676
380,4	441,99
380,9	404,162
381,4	373,362
381,8	344,848
382,3	323,19
382,7	296,733
383,2	273,962
383,6	256,562
384,1	241,076
384,6	229,276
385	215,819
385,5	203,448
385,9	187,619
386,4	173,219
386,8	166,162
387,3	153,533
387,7	141,762
388,2	133,533
388,7	120,219
389,1	117,562
389,6	111,133
390	102,019
390,5	99,648
390,9	94,19
391,4	87,648
391,9	80,533
392,3	74,848
392,8	68,305
393,2	59,962
393,7	54,762
394,1	48,619
394,6	40,819
395,1	41,562
395,5	38,876
396	39,419
396,4	41,905
396,9	40,419
397,3	44,705
397,8	49,762
398,2	48,448
398,7	46,048
399,2	44,562
399,6	42,819
400,1	41,676
400,5	35,562
401	29,533
401,4	21,105
401,9	23,848
402,4	26,276
402,8	24,133
403,3	29,048
403,7	30,562
404,2	37,19
404,6	43,248
405,1	41,619
405,5	36,39
406	39,99
406,5	32,419
406,9	33,133
407,4	30,962
407,8	29,619
408,3	34,276
408,7	36,305
409,2	38,79
409,6	44,676
410,1	43,819
410,6	46,876
411	51,933
411,5	51,19
411,9	54,276
412,4	52,705
412,8	54,876
413,3	56,79
413,7	53,619
414,2	54,562
414,7	59,048
415,1	63,105
415,6	68,79
416	72,562
416,5	75,105
416,9	84,962
417,4	85,819
417,8	91,905
418,3	93,448
418,8	98,248
419,2	100,448
419,7	101,962
420,1	102,933
420,6	105,19
421	97,933
421,5	99,619
421,9	94,448
422,4	95,076
422,8	100,619
423,3	94,448
423,8	96,705
424,2	95,448
424,7	92,219
425,1	95,705
425,6	91,248
426	89,019
426,5	90,505
426,9	94,305
427,4	94,648
427,9	94,248
428,3	92,333
428,8	96,676
429,2	94,962
429,7	96,048
430,1	90,448
430,6	93,248
431	97,362
431,5	100,762
431,9	99,705
432,4	103,19
432,8	111,219
433,3	117,676
433,8	121,019
434,2	123,619
434,7	128,619
435,1	132,676
435,6	135,505
436	134,305
436,5	136,648
436,9	137,59
437,4	143,933
437,8	147,448
438,3	156,676
438,8	164,305
439,2	168,762
439,7	180,819
440,1	192,333
440,6	198,419
441	201,305
441,5	208,019
441,9	217,162
442,4	230,248
442,8	235,99
443,3	245,59
443,7	256,99
444,2	272,762
444,7	283,505
445,1	295,733
445,6	304,99
446	318,105
446,5	325,905
446,9	331,59
447,4	343,219
447,8	357,162
448,3	370,962
448,7	386,048
449,2	403,076
449,6	424,876
450,1	444,076
450,6	466,076
451	483,276
451,5	500,848
451,9	522,905
452,4	539,619
452,8	556,305
453,3	583,59
453,7	595,676
454,2	617,619
454,6	634,133
455,1	647,19
455,5	666,276
456	689,19
456,4	705,448
456,9	731,39
457,3	750,848
457,8	773,619
458,3	805,505
458,7	828,619
459,2	852,762
459,6	878,905
460,1	903,505
460,5	922,162
461	955,619
461,4	976,419
461,9	1007,648
462,3	1039,533
462,8	1067,019
463,2	1097,19
463,7	1134,648
464,1	1161,933
464,6	1198,39
465	1230,619
465,5	1258,933
466	1292,248
466,4	1322,076
466,9	1356,762
467,3	1390,019
467,8	1420,648
468,2	1453,619
468,7	1487,048
469,1	1522,648
469,6	1560,476
470	1593,505
470,5	1631,533
470,9	1667,276
471,4	1691,39
471,8	1726,105
472,3	1760,419
472,7	1791,076
473,2	1826,533
473,6	1849,19
474,1	1882,19
474,5	1921,676
475	1956,905
475,4	1991,048
475,9	2031,733
476,4	2065,076
476,8	2106,819
477,3	2133,676
477,7	2170,933
478,2	2199,562
478,6	2221,505
479,1	2242,648
479,5	2271,105
480	2298,619
480,4	2336,333
480,9	2364,019
481,3	2388,133
481,8	2420,848
482,2	2447,476
482,7	2471,133
483,1	2498,505
483,6	2521,933
484	2543,162
484,5	2577,076
484,9	2600,905
485,4	2629,248
485,8	2657,848
486,3	2677,19
486,7	2697,79
487,2	2722,876
487,6	2740,505
488,1	2762,762
488,5	2783,219
489	2805,419
489,4	2829,99
489,9	2844,219
490,4	2863,362
490,8	2885,476
491,3	2910,39
491,7	2926,076
492,2	2943,648
492,6	2964,705
493,1	2990,076
493,5	2998,848
494	3004,733
494,4	3012,219
494,9	3026,505
495,3	3039,848
495,8	3042,333
496,2	3056,705
496,7	3071,79
497,1	3094,705
497,6	3114,219
498	3130,848
498,5	3144,905
498,9	3161,676
499,4	3170,762
499,8	3189,762
500,3	3197,476
500,7	3199,619
501,2	3204,076
501,6	3208,362
502,1	3216,448
502,5	3229,419
503	3233,848
503,4	3239,562
503,9	3249,59
504,3	3260,39
504,8	3268,79
505,2	3271,362
505,7	3272,19
506,1	3281,048
506,6	3286,276
507	3286,39
507,5	3286,619
507,9	3292,733
508,4	3305,019
508,8	3314,076
509,3	3313,705
509,7	3321,79
510,2	3333,619
510,6	3340,819
511,1	3338,933
511,5	3343,419
512	3342,19
512,4	3348,619
512,9	3352,276
513,3	3361,676
513,8	3366,905
514,2	3377,905
514,7	3384,219
515,1	3392,676
515,6	3400,019
516	3401,333
516,5	3408,105
516,9	3413,733
517,4	3419,076
517,8	3427,533
518,3	3427,819
518,7	3431,248
519,2	3442,99
519,6	3442,505
520,1	3447,448
520,5	3452,933
521	3450,162
521,4	3458,476
521,9	3465,305
522,3	3465,105
522,8	3465,248
523,2	3478,419
523,7	3486,733
524,1	3490,705
524,6	3494,105
525	3500,219
525,5	3506,476
525,9	3519,819
526,4	3523,99
526,8	3525,505
527,3	3535,905
527,7	3544,79
528,2	3554,705
528,6	3557,876
529,1	3564,819
529,5	3566,048
530	3569,076
530,4	3579,733
530,9	3587,39
531,3	3593,333
531,8	3604,619
532,2	3616,19
532,6	3623,676
533,1	3628,933
533,5	3637,048
534	3648,733
534,4	3654,076
534,9	3666,19
535,3	3663,048
535,8	3674,162
536,2	3691,676
536,7	3698,019
537,1	3703,333
537,6	3705,933
538	3715,019
538,5	3732,362
538,9	3733,419
539,4	3739,333
539,8	3746,076
540,3	3753,19
540,7	3768,19
541,2	3772,076
541,6	3779,362
542,1	3793,619
542,5	3804,705
543	3813,362
543,4	3817,333
543,9	3823,105
544,3	3835,305
544,8	3844,99
545,2	3848,533
545,7	3855,676
546,1	3869,905
546,5	3882,562
547	3890,905
547,4	3897,533
547,9	3901,819
548,3	3914,133
548,8	3921,59
549,2	3922,733
549,7	3931,648
550,1	3952,133
550,6	3958,762
551	3963,333
551,5	3971,876
551,9	3975,476
552,4	3983,219
552,8	3988,648
553,3	3986,876
553,7	3995,933
554,2	4006,105
554,6	4017,133
555,1	4025,648
555,5	4032,219
555,9	4047,705
556,4	4043,448
556,8	4045,79
557,3	4052,533
557,7	4052,162
558,2	4060,476
558,6	4068,362
559,1	4066,619
559,5	4084,705
560	4096,905
560,4	4101,962
560,9	4110,533
561,3	4115,476
561,8	4122,876
562,2	4128,505
562,7	4127,933
563,1	4136,305
563,6	4138,019
564	4146,362
564,4	4150,819
564,9	4149,676
565,3	4155,019
565,8	4161,705
566,2	4164,562
566,7	4173,448
567,1	4176,162
567,6	4176,333
568	4179,933
568,5	4182,648
568,9	4188,505
569,4	4185,676
569,8	4190,819
570,3	4189,619
570,7	4190,219
571,1	4195,305
571,6	4199,076
572	4199,79
572,5	4195,19
572,9	4192,419
573,4	4195,79
573,8	4205,276
574,3	4203,39
574,7	4196,79
575,2	4191,048
575,6	4189,533
576,1	4186,705
576,5	4187,476
576,9	4188,448
577,4	4184,962
577,8	4187,362
578,3	4184,562
578,7	4190,476
579,2	4188,305
579,6	4173,648
580,1	4157,505
580,5	4160,448
581	4153,933
581,4	4147,59
581,9	4137,39
582,3	4134,19
582,7	4140,476
583,2	4142,162
583,6	4135,162
584,1	4129,676
584,5	4127,333
585	4128,705
585,4	4112,59
585,9	4102,648
586,3	4098,362
586,8	4087,505
587,2	4079,276
587,6	4079,79
588,1	4069,505
588,5	4071,59
589	4064,362
589,4	4057,619
589,9	4051,876
590,3	4046,648
590,8	4033,448
591,2	4027,79
591,7	4021,276
592,1	4022,305
592,5	4013,533
593	4006,19
593,4	3998,19
593,9	3988,076
594,3	3974,133
594,8	3967,162
595,2	3953,762
595,7	3948,19
596,1	3943,962
596,6	3946,419
597	3942,59
597,4	3944,19
597,9	3942,219
598,3	3939,99
598,8	3929,933
599,2	3925,619
599,7	3912,419
600,1	3907,39
600,6	3892,962
601	3882,619
601,4	3879,533
601,9	3876,19
602,3	3868,219
602,8	3857,39
603,2	3844,19
603,7	3841,19
604,1	3828,705
604,6	3805,79
605	3790,333
605,4	3778,819
605,9	3766,219
606,3	3757,619
606,8	3744,99
607,2	3733,362
607,7	3725,276
608,1	3714,733
608,6	3704,133
609	3702,39
609,4	3693,105
609,9	3681,39
610,3	3673,905
610,8	3663,933
611,2	3651,505
611,7	3642,962
612,1	3624,99
612,6	3613,59
613	3596,99
613,4	3580,048
613,9	3566,19
614,3	3553,048
614,8	3541,076
615,2	3525,248
615,7	3509,219
616,1	3501,905
616,6	3486,819
617	3468,505
617,4	3455,476
617,9	3434,819
618,3	3424,362
618,8	3417,905
619,2	3402,733
619,7	3396,619
620,1	3383,305
620,5	3375,305
621	3359,362
621,4	3347,562
621,9	3334,105
622,3	3318,362
622,8	3301,105
623,2	3290,476
623,6	3267,905
624,1	3252,733
624,5	3232,99
625	3221,733
625,4	3213,676
625,9	3197,219
626,3	3179,962
626,8	3168,476
627,2	3157,905
627,6	3143,876
628,1	3114,619
628,5	3092,562
629	3073,876
629,4	3063,39
629,9	3044,933
630,3	3019,733
630,7	2998,076
631,2	2992,162
631,6	2979,848
632,1	2966,476
632,5	2950,305
633	2941,333
633,4	2933,819
633,8	2928,733
634,3	2908,248
634,7	2894,59
635,2	2874,676
635,6	2857,248
636,1	2835,362
636,5	2816,362
636,9	2795,362
637,4	2780,476
637,8	2762,819
638,3	2750,705
638,7	2736,962
639,2	2722,276
639,6	2714,705
640	2703,733
640,5	2690,105
640,9	2669,762
641,4	2657,762
641,8	2643,619
642,2	2638,619
642,7	2625,219
643,1	2616,276
643,6	2602,962
644	2595,819
644,5	2586,39
644,9	2580,219
645,3	2563,79
645,8	2548,676
646,2	2530,962
646,7	2519,505
647,1	2507,076
647,6	2492,99
648	2474,276
648,4	2462,133
648,9	2447,533
649,3	2436,933
649,8	2423,476
650,2	2413,59
650,6	2405,562
651,1	2395,105
651,5	2384,19
652	2376,876
652,4	2361,933
652,9	2349,619
653,3	2334,419
653,7	2316,305
654,2	2306,933
654,6	2291,533
655,1	2278,619
655,5	2273,533
655,9	2259,476
656,4	2242,619
656,8	2228,162
657,3	2213,648
657,7	2203,648
658,2	2187,105
658,6	2166,905
659	2158,876
659,5	2147,476
659,9	2139,305
660,4	2125,19
660,8	2105,905
661,2	2097,162
661,7	2089,79
662,1	2071,59
662,6	2061,276
663	2048,076
663,4	2031,476
663,9	2024,99
664,3	2007,362
664,8	1983,733
665,2	1970,79
665,6	1955,905
666,1	1948,419
666,5	1935,848
667	1923,962
667,4	1907,819
667,9	1902,533
668,3	1891,676
668,7	1878,219
669,2	1857,105
669,6	1845,619
670,1	1829,333
670,5	1821,619
670,9	1805,562
671,4	1790,562
671,8	1781,848
672,3	1772,79
672,7	1765,133
673,1	1747,076
673,6	1735,048
674	1731,762
674,5	1723,076
674,9	1708,248
675,3	1694,276
675,8	1681,505
676,2	1678,219
676,7	1669,448
677,1	1657,705
677,5	1645,79
678	1642,276
678,4	1631,39
678,9	1618,276
679,3	1608,705
679,7	1594,905
680,2	1576,248
680,6	1563,276
681,1	1549,99
681,5	1545,762
681,9	1535,99
682,4	1520,162
682,8	1514,048
683,3	1511,762
683,7	1505,362
684,1	1494,762
684,6	1481,762
685	1471,39
685,5	1466,305
685,9	1452,19
686,3	1434,676
686,8	1426,048
687,2	1419,905
687,7	1407,019
688,1	1398,362
688,5	1384,619
689	1374,59
689,4	1371,562
689,9	1362,076
690,3	1344,733
690,7	1338,819
691,2	1333,533
691,6	1331,305
692	1325,905
692,5	1313,305
692,9	1302,362
693,4	1297,305
693,8	1288,248
694,2	1274,79
694,7	1263,019
695,1	1253,048
695,6	1248,248
696	1241,419
696,4	1233,305
696,9	1223,619
697,3	1217,733
697,8	1208,876
698,2	1200,248
698,6	1194,419
699,1	1186,362
699,5	1179,248
699,9	1172,333
700,4	1163,276
700,8	1156,79
701,3	1150,79
701,7	1140,733
702,1	1132,133
702,6	1116,905
703	1107,79
703,5	1097,762
703,9	1085,733
704,3	1082,533
704,8	1071,248
705,2	1061,419
705,6	1061,419
706,1	1054,105
706,5	1045,619
707	1041,848
707,4	1032,962
707,8	1024,133
708,3	1014,733
708,7	1012,476
709,2	1003,676
709,6	1000,39
710	996,962
710,5	983,419
710,9	980,533
711,3	981,305
711,8	971,876
712,2	969,419
712,7	960,276
713,1	949,79
713,5	945,448
714	939,99
714,4	927,19
714,8	917,59
715,3	908,733
715,7	904,419
716,2	893,933
716,6	888,362
717	877,876
717,5	877,19
717,9	875,762
718,3	865,705
718,8	857,019
719,2	854,762
719,7	848,076
720,1	843,905
720,5	839,19
721	825,133
721,4	823,905
721,8	823,248
722,3	813,905
722,7	810,333
723,2	802,276
723,6	788,448
724	782,733
724,5	773,762
724,9	763,362
725,3	759,419
725,8	751,362
726,2	745,362
726,7	742,99
727,1	746,333
727,5	744,133
728	738,505
728,4	733,105
728,8	725,905
729,3	725,448
729,7	718,79
730,1	706,333
730,6	701,248
731	696,905
731,5	690,305
731,9	686,019
732,3	679,648
732,8	674,276
733,2	676,39
733,6	671,19
734,1	670,076
734,5	672,476
734,9	669,39
735,4	664,676
735,8	658,705
736,3	655,076
736,7	651,305
737,1	646,019
737,6	634,876
738	633,505
738,4	631,019
738,9	631,333
739,3	621,362
739,7	618,076
740,2	610,819
740,6	615,305
741,1	611,762
741,5	599,248
741,9	595,619
742,4	597,276
742,8	594,733
743,2	593,99
743,7	578,562
744,1	568,79
744,5	570,905
745	566,076
745,4	555,219
745,8	549,048
746,3	543,905
746,7	544,448
747,2	542,762
747,6	543,305
748	542,076
748,5	546,476
748,9	540,705
749,3	534,819
749,8	533,133
750,2	529,562
750,6	523,019
751,1	520,99
751,5	512,39
751,9	509,819
752,4	512,505
752,8	509,019
753,3	503,99
753,7	504,59
754,1	499,733
754,6	494,562
755	491,133
755,4	487,076
755,9	484,705
756,3	483,419
756,7	478,848
757,2	474,362
757,6	473,219
758	469,733
758,5	463,476
758,9	459,505
759,3	460,705
759,8	453,79
760,2	452,79
760,6	448,048
761,1	444,248
761,5	437,676
761,9	436,933
762,4	428,848
762,8	424,876
763,3	419,933
763,7	418,762
764,1	419,305
764,6	421,848
765	416,705
765,4	415,476
765,9	415,048
766,3	413,676
766,7	405,248
767,2	400,276
767,6	396,562
768	391,419
768,5	385,162
768,9	379,476
769,3	372,962
769,8	374,362
770,2	374,362
770,6	370,39
771,1	374,362
771,5	375,419
771,9	375,248
772,4	374,99
772,8	370,648
773,2	370,019
773,7	367,819
774,1	363,448
774,5	357,133
775	352,562
775,4	348,962
775,8	347,905
776,3	342,619
776,7	341,133
777,1	333,819
777,6	337,962
778	340,019
778,4	338,99
778,9	338,448
779,3	332,562
779,7	330,448
780,2	328,59
780,6	327,79
781	323,019
781,5	318,39
781,9	315,933
782,3	313,219
782,8	312,133
783,2	313,133
783,6	307,305
784,1	304,79
784,5	301,533
784,9	296,648
785,4	295,933
785,8	292,705
786,2	287,99
786,7	284,648
787,1	280,876
787,5	281,79
788	278,248
788,4	277,019
788,8	277,676
789,3	275,105
789,7	274,99
790,1	275,048
790,6	277,876
791	277,448
791,4	280,733
791,9	272,676
792,3	270,276
792,7	271,105
793,2	268,705
793,6	260,762
794	261,962
794,5	253,876
794,9	256,848
795,3	256,333
795,8	248,79
796,2	250,705
796,6	252,305
797,1	247,505
797,5	247,276
797,9	241,59
798,4	240,962
798,8	239,476
799,2	233,762
799,7	229,762
800,1	226,219
800,5	226,076
801	230,162
801,4	228,905
801,8	226,762
802,2	223,905
802,7	219,99
803,1	220,876
803,5	220,333
804	214,562
804,4	210,962
804,8	209,819
805,3	210,505
805,7	211,562
806,1	210,362
806,6	211,848
807	210,705
807,4	208,79
807,9	203,99
808,3	200,533
808,7	199,162
809,2	199,905
809,6	193,962
810	192,305
810,4	193,619
810,9	194,219
811,3	195,505
811,7	192,962
812,2	196,876
812,6	192,219
813	194,762
813,5	194,562
813,9	193,076
814,3	188,39
814,8	190,762
815,2	182,876
815,6	183,162
816,1	179,248
816,5	172,105
816,9	173,905
817,3	173,162
817,8	175,019
818,2	171,333
818,6	167,705
819,1	162,276
819,5	163,705
819,9	163,905
820,4	162,362
820,8	154,133
821,2	153,99
821,7	158,962
822,1	162,505
822,5	163,476
822,9	155,248
823,4	155,533
823,8	155,076
824,2	157,333
824,7	151,962
825,1	146,733
825,5	141,99
826	140,448
826,4	137,733
826,8	136,533
827,3	136,133
827,7	134,419
828,1	134,733
828,5	138,79
829	138,99
829,4	139,19
829,8	133,562
830,3	128,762
830,7	128,848
831,1	132,248
831,6	124,705
832	126,905
832,4	122,448
832,8	127,276
833,3	125,39
833,7	121,19
834,1	115,419
834,6	117,133
835	116,933
835,4	122,562
835,8	117,505
836,3	117,962
836,7	122,276
837,1	123,905
837,6	124,733
838	120,448
838,4	116,619
838,9	116,076
839,3	115,305
839,7	110,619
840,1	102,59
840,6	99,733
841	103,219
841,4	101,705
841,9	106,39
842,3	105,276
842,7	106,79
843,1	113,105
843,6	116,19
844	113,39
844,4	113,733
844,9	110,133
845,3	110,562
845,7	109,676
846,2	105,105
846,6	100,305
847	101,019
847,4	101,619
847,9	101,648
848,3	99,79
848,7	100,333
849,2	99,819
849,6	100,676
850	101,533
850,4	100,248
850,9	102,79
851,3	105,79
851,7	104,848
852,2	106,933
852,6	108,362
853	110,39
853,4	110,248
853,9	103,219
854,3	97,705
854,7	95,705
855,2	92,733
855,6	91,162
856	81,419
856,4	76,619
856,9	73,076
857,3	72,562
857,7	74,048
858,2	73,676
858,6	69,076
859	70,362
859,4	72,105
859,9	75,79
860,3	74,305
860,7	70,333
861,1	71,762
861,6	74,705
862	79,219
862,4	76,962
862,9	76,533
863,3	78,562
863,7	79,19
864,1	76,562
864,6	70,848
865	66,276
865,4	66,448
865,9	68,305
866,3	64,276
866,7	64,619
867,1	63,419
867,6	66,362
868	69,305
868,4	70,248
868,8	67,933
869,3	69,419
869,7	72,076
870,1	68,362
870,6	65,476
871	66,476
871,4	68,79
871,8	70,19
872,3	73,076
872,7	68,962
873,1	69,362
873,5	71,848
874	66,076
874,4	62,99
874,8	59,133
875,3	60,533
875,7	55,933
876,1	59,39
876,5	57,79
877	56,619
877,4	53,448
877,8	52,333
878,2	49,705
878,7	58,419
879,1	57,848
879,5	58,162
879,9	58,99
880,4	62,59
880,8	65,39
881,2	58,419
881,7	52,305
882,1	50,933
882,5	49,933
882,9	50,019
883,4	45,362
883,8	42,248
884,2	43,333
884,6	41,933
885,1	42,276
885,5	44,819
885,9	39,133
886,3	39,705
886,8	41,733
887,2	42,933
887,6	44,819
888	46,59
888,5	44,105
888,9	49,219
889,3	45,333
889,8	42,876
890,2	44,362
890,6	39,99
891	38,819
891,5	34,962
891,9	31,476
892,3	36,733
892,7	37,305
893,2	38,048
893,6	37,648
894	38,162
894,4	40,933
894,9	45,848
895,3	45,59
895,7	45,848
896,1	46,676
896,6	50,505
897	50,39
897,4	52,248
897,8	51,476
898,3	49,419
898,7	45,333
899,1	39,076
899,5	37,648
900	31,276
900,4	28,962
900,8	24,933
901,2	24,39
901,7	27,476
902,1	33,676
902,5	34,733
902,9	38,276
903,4	39,848
903,8	40,533
904,2	38,79
904,6	38,876
905,1	35,419
905,5	31,505
905,9	30,076
906,3	28,762
906,8	33,962
907,2	39,476
907,6	37,819
908	36,419
908,5	39,048
908,9	37,733
909,3	36,619
909,7	35,762
910,2	33,048
910,6	36,105
911	33,019
911,4	34,733
911,9	33,648
912,3	34,733
912,7	33,79
913,1	33,533
913,6	31,162
914	32,676
914,4	28,105
914,8	32,219
915,3	32,305
915,7	28,876
916,1	28,476
916,5	29,762
916,9	31,476
917,4	30,362
917,8	31,133
918,2	25,419
918,6	21,419
919,1	21,533
919,5	21,105
919,9	21,733
920,3	24,562
920,8	19,39
921,2	23,933
921,6	25,99
922	25,59
922,5	24,305
922,9	25,219
923,3	22,648
923,7	22,962
924,2	19,99
924,6	22,533
925	27,048
925,4	25,533
925,8	23,333
926,3	26,762
926,7	26,476
927,1	27,705
927,5	26,762
928	18,962
928,4	15,533
928,8	17,105
929,2	12,019
929,7	15,533
930,1	16,533
930,5	19,648
930,9	24,562
931,3	30,762
931,8	27,99
932,2	30,39
932,6	28,905
933	24,076
933,5	22,276
933,9	17,676
934,3	15,648
934,7	17,419
935,2	16,162
935,6	16,762
936	19,733
936,4	19,076
936,8	22,248
937,3	19,19
937,7	19,19
938,1	24,362
938,5	20,876
939	20,59
939,4	20,39
939,8	19,619
940,2	20,133
940,6	23,19
941,1	22,133
941,5	29,162
941,9	29,362
942,3	29,733
942,8	30,39
943,2	33,476
943,6	28,762
944	26,619
944,4	23,362
944,9	18,99
945,3	17,705
945,7	8,419
946,1	5,676
946,6	3,076
947	4,39
947,4	5,305
947,8	11,79
948,2	7,248
948,7	11,962
949,1	11,619
949,5	14,505
949,9	12,876
950,3	10,619
950,8	7,448
951,2	9,848
951,6	9,962
952	11,133
952,5	8,276
952,9	7,362
953,3	6,362
953,7	6,648
954,1	12,048
954,6	16,048
955	17,505
955,4	19,448
955,8	23,419
956,2	23,133
956,7	26,905
957,1	21,333
957,5	22,676
957,9	21,048
958,3	21,99
958,8	23,648
959,2	26,105
959,6	24,362
960	23,39
960,5	23,248
960,9	25,848
961,3	19,162
961,7	12,99
962,1	9,162
962,6	9,048
963	12,876
963,4	4,705
963,8	1,133
964,2	8,99
964,7	8,905
965,1	12,676
965,5	11,419
965,9	7,305
966,3	15,59
966,8	15,219
967,2	13,733
967,6	12,39
968	7,848
968,4	10,305
968,9	13,105
969,3	13,905
969,7	14,019
970,1	13,248
970,5	14,933
971	21,362
971,4	18,219
971,8	21,276
972,2	17,39
972,6	21,076
973,1	23,419
973,5	24,276
973,9	22,219
974,3	23,905
974,7	22,533
975,2	24,105
975,6	20,99
976	21,648
976,4	20,105
976,8	18,59
977,3	20,105
977,7	16,019
978,1	13,048
978,5	11,162
978,9	7,39
979,4	8,876
979,8	7,419
980,2	5,905
980,6	1,819
981	9,362
981,5	12,305
981,9	14,333
982,3	13,533
982,7	16,19
983,1	10,533
983,6	16,476
984	10,619
984,4	6,39
984,8	3,248
985,2	2,248
985,6	-0,267
986,1	4,848
986,5	6,59
986,9	4,848
987,3	10,705
987,7	11,905
988,2	13,705
988,6	12,962
989	10,676
989,4	10,905
989,8	9,248
990,3	7,533
990,7	5,333
991,1	6,99
991,5	8,819
991,9	10,076
992,3	9,162
992,8	15,333
993,2	11,705
993,6	14,733
994	17,162
994,4	17,733
994,9	17,505
995,3	15,476
995,7	10,819
996,1	13,905
996,5	12,362
996,9	4,048
997,4	6,676
997,8	0,676
998,2	0,933
998,6	-1,981
999	-2,581
999,5	-0,81
999,9	-0,581
1000,3	-5,952
1000,7	-2,152
1001,1	-3,981
1001,5	0,933
1002	6,076
1002,4	6,419
1002,8	10,419
1003,2	17,905
1003,6	23,133
1004	27,248
1004,5	25,905
1004,9	22,248
1005,3	15,048
1005,7	13,848
1006,1	7,876
1006,6	2,333
1007	-0,267
1007,4	-1,038
1007,8	-3,781
1008,2	-1,41
1008,6	1,076
1009,1	2,219
1009,5	7,619
1009,9	6,248
1010,3	6,733
1010,7	8,105
1011,1	11,219
1011,6	7,848
1012	11,59
1012,4	6,448
1012,8	5,162
1013,2	9,505
1013,6	10,362
1014,1	9,962
1014,5	9,876
1014,9	5,905
1015,3	5,962
1015,7	9,762
1016,1	8,505
1016,6	8,59
1017	7,848
1017,4	10,905
1017,8	10,848
1018,2	16,419
1018,6	11,59
1019,1	9,533
1019,5	10,076
1019,9	7,305
1020,3	7,362
1020,7	8,048
1021,1	3,133
1021,6	6,305
1022	11,39
1022,4	10,705
1022,8	16,648
1023,2	13,962
1023,6	11,733
1024,1	17,962
1024,5	22,133
1024,9	15,848
1025,3	16,505
1025,7	18,448
1026,1	21,505
1026,6	22,476
1027	19,962
1027,4	18,819
1027,8	21,39
1028,2	17,562
1028,6	18,305
1029	17,419
1029,5	20,019
1029,9	20,505
1030,3	16,676
1030,7	17,476
1031,1	24,019
1031,5	16,848
1032	15,105
1032,4	13,705
1032,8	16,362
1033,2	18,562
1033,6	17,248
1034	11,905
1034,4	14,819
1034,9	17,248
1035,3	17,305
1035,7	11,79
1036,1	12,648
1036,5	10,19
1036,9	12,448
1037,4	16,962
1037,8	13,133
1038,2	10,933
1038,6	8,448
1039	15,219
1039,4	21,933
1039,8	19,248
1040,3	16,962
1040,7	22,276
1041,1	26,79
1041,5	29,448
1041,9	23,705
1042,3	21,362
1042,7	25,276
1043,2	24,276
1043,6	19,219
1044	16,562
1044,4	19,99
1044,8	19,819
1045,2	16,39
1045,6	13,476
1046,1	10,048
1046,5	14,905
1046,9	14,819
1047,3	13,362
1047,7	10,99
1048,1	12,133
1048,5	13,362
1049	16,276
1049,4	17,733
1049,8	14,848
1050,2	17,276
1050,6	19,619
1051	19,676
1051,4	14,619
1051,9	15,076
1052,3	16,133
1052,7	16,219
1053,1	10,962
1053,5	11,419
1053,9	13,362
1054,3	15,905
1054,8	20,133
1055,2	14,162
1055,6	22,562
1056	22,362
1056,4	22,733
1056,8	16,705
1057,2	17,533
1057,6	5,162
1058,1	3,905
1058,5	-4,581
1058,9	2,362
1059,3	3,19
1059,7	6,476
1060,1	9,619
1060,5	15,876
1061	20,133
1061,4	24,39
1061,8	24,476
1062,2	21,819
1062,6	24,705
1063	22,533
1063,4	26,305
1063,8	24,19
1064,3	19,333
1064,7	16,562
1065,1	13,59
1065,5	8,476
1065,9	8,419
1066,3	4,762
1066,7	-1,581
1067,1	0,905
1067,6	0,39
1068	0,819
1068,4	1,59
1068,8	4,333
1069,2	5,019
1069,6	11,476
1070	14,105
1070,4	12,876
1070,9	10,99
1071,3	12,819
1071,7	9,333
1072,1	8,79
1072,5	3,619
1072,9	-1,924
1073,3	-0,924
1073,7	0,619
1074,2	1,819
1074,6	5,076
1075	4,276
1075,4	6,362
1075,8	8,362
1076,2	8,162
1076,6	10,476
1077	9,019
1077,5	11,562
1077,9	13,505
1078,3	15,962
1078,7	16,648
1079,1	12,962
1079,5	14,448
1079,9	15,59
1080,3	9,648
1080,7	8,876
1081,2	11,762
1081,6	14,133
1082	14,19
1082,4	12,305
1082,8	14,448
1083,2	16,162
1083,6	18,619
1084	16,905
1084,5	17,248
1084,9	18,676
1085,3	18,562
1085,7	16,619
1086,1	18,076
1086,5	18,333
1086,9	20,419
1087,3	15,705
1087,7	15,562
1088,2	16,648
1088,6	14,505
1089	12,648
1089,4	10,59
1089,8	6,019
1090,2	7,076
1090,6	8,648
1091	11,99
1091,4	14,876
1091,9	14,99
1092,3	15,962
1092,7	17,79
1093,1	17,848
1093,5	15,105
1093,9	11,133
1094,3	11,733
1094,7	11,248
1095,1	12,162
1095,5	14,076
1096	16,019
1096,4	15,048
1096,8	12,048
1097,2	9,276
1097,6	14,19
1098	11,39
1098,4	9,476
1098,8	11,133
1099,2	15,448
1099,6	14,962
1100,1	9,533
1100,5	5,248
1100,9	4,905
1101,3	5,219
1101,7	1,59
1102,1	1,19
1102,5	7,276
1102,9	15,133
1103,3	16,419
1103,7	18,705
1104,2	17,848
1104,6	19,019
1105	14,648
1105,4	11,533
1105,8	7,505
1106,2	4,39
1106,6	1,705
1107	0,648
1107,4	-0,7
1107,8	1,813
1108,3	-0,067
