Data from Subt2_209.txt Node
Date: Sat Aug 26 18:46:58 MSK 2023
User: vat
Spectrometer: MAYP114033
Trigger mode: 0
Integration Time (sec): 1,000000E0
Scans to average: 5
Electric dark correction enabled: true
Nonlinearity correction enabled: false
Boxcar width: 3
XAxis mode: Wavelengths
Number of Pixels in Spectrum: 2068
>>>>>Begin Spectral Data<<<<<
199,4	-0,683
199,9	3,307
200,4	1
200,8	0,524
201,3	-0,362
201,8	2,724
202,2	-0,133
202,7	4,552
203,2	0,981
203,6	-0,333
204,1	0,124
204,6	2,267
205	0,781
205,5	2,352
206	-1,133
206,4	-1,076
206,9	2,095
207,4	4,352
207,8	7,152
208,3	4,667
208,8	6,695
209,2	8,238
209,7	10,438
210,2	9,724
210,6	5,638
211,1	4,781
211,5	3,981
212	4,724
212,5	5,752
212,9	3,352
213,4	5,524
213,9	6,381
214,3	5,21
214,8	7,467
215,3	3,295
215,7	1,524
216,2	4,667
216,7	6,495
217,1	5,924
217,6	5,781
218,1	4,352
218,5	4,524
219	-1,733
219,5	-3,99
219,9	-10,39
220,4	-4,362
220,9	-3,305
221,3	-2,362
221,8	4,21
222,3	11,752
222,7	12,895
223,2	15,895
223,6	14,438
224,1	14,267
224,6	14,724
225	8,067
225,5	3,667
226	1,181
226,4	5,581
226,9	2,981
227,4	2,867
227,8	-3,905
228,3	-2,39
228,8	-4,505
229,2	-1,333
229,7	-8,39
230,2	-7,305
230,6	-6,819
231,1	3,181
231,5	4,752
232	5,581
232,5	2,581
232,9	6,352
233,4	5,667
233,9	2,581
234,3	0,41
234,8	-2,419
235,3	-0,819
235,7	5,095
236,2	3,752
236,7	0,895
237,1	1,838
237,6	-2,79
238,1	0,552
238,5	0,638
239	1,781
239,4	5,695
239,9	5,81
240,4	6,41
240,8	14,238
241,3	10,552
241,8	7,01
242,2	-1,333
242,7	-7,333
243,2	-4,59
243,6	-5,362
244,1	-5,99
244,6	-0,133
245	3,724
245,5	10,438
245,9	11,924
246,4	8,981
246,9	6,781
247,3	3,295
247,8	1,752
248,3	4,095
248,7	1,924
249,2	6,41
249,7	10,01
250,1	13,867
250,6	14,067
251	11,981
251,5	8,838
252	8,438
252,4	8,067
252,9	4,952
253,4	-2,39
253,8	-1,362
254,3	-0,305
254,8	4,181
255,2	1,81
255,7	-2,476
256,1	0,067
256,6	6,724
257,1	6,924
257,5	2,552
258	4,067
258,5	4,867
258,9	1,01
259,4	2,41
259,9	3,895
260,3	1,524
260,8	3,467
261,2	-3,562
261,7	-2,819
262,2	0,638
262,6	-1,676
263,1	-1,848
263,6	1,581
264	6,667
264,5	10,867
264,9	10,352
265,4	13,895
265,9	12,295
266,3	12,638
266,8	9,695
267,3	6,695
267,7	6,752
268,2	7,238
268,7	9,952
269,1	12,61
269,6	9,981
270	12,324
270,5	11,524
271	13,61
271,4	13,667
271,9	2,895
272,4	3,124
272,8	2,638
273,3	-1,476
273,7	1,124
274,2	-2,619
274,7	-5,362
275,1	0,552
275,6	1,581
276,1	-2,19
276,5	2,752
277	0,781
277,4	-1,19
277,9	2,667
278,4	4,467
278,8	3,152
279,3	11,524
279,8	11,438
280,2	12,295
280,7	18,867
281,1	16,381
281,6	15,981
282,1	17,438
282,5	13,895
283	10,352
283,4	9,267
283,9	10,524
284,4	17,181
284,8	18,438
285,3	17,838
285,8	18,067
286,2	16,895
286,7	16,067
287,1	7,124
287,6	1,438
288,1	-5,39
288,5	-5,362
289	-6,219
289,5	-1,533
289,9	-2,333
290,4	2,124
290,8	3,181
291,3	8,895
291,8	10,695
292,2	10,01
292,7	9,238
293,1	12,467
293,6	10,438
294,1	9,838
294,5	7,81
295	2,867
295,5	4,238
295,9	2,01
296,4	-1,505
296,8	-0,276
297,3	2,095
297,8	-1,79
298,2	-3,105
298,7	0,21
299,1	0,181
299,6	-1,162
300,1	-1,276
300,5	-2,819
301	1,495
301,5	7,981
301,9	2,438
302,4	-0,819
302,8	0,267
303,3	-3,905
303,8	-7,59
304,2	-12,39
304,7	-17,362
305,1	-20,248
305,6	-19,162
306,1	-10,905
306,5	-4,39
307	2,924
307,4	8,552
307,9	10,381
308,4	12,438
308,8	11,238
309,3	6,41
309,8	2,495
310,2	0,41
310,7	-2,419
311,1	-2,733
311,6	3,667
312,1	10,981
312,5	13,124
313	16,124
313,4	13,181
313,9	14,638
314,4	15,495
314,8	9,295
315,3	5,01
315,7	0,438
316,2	-0,105
316,7	-0,39
317,1	1,981
317,6	5,41
318	11,41
318,5	11,952
319	13,01
319,4	12,552
319,9	20,095
320,3	21,695
320,8	14,495
321,3	16,41
321,7	17,067
322,2	15,781
322,6	14,781
323,1	7,667
323,6	1,467
324	4,952
324,5	0,152
324,9	0,324
325,4	-2,648
325,9	2,181
326,3	5,324
326,8	11,867
327,2	8,467
327,7	9,295
328,2	4,838
328,6	12,067
329,1	5,81
329,5	-0,162
330	-6,133
330,5	-2,19
330,9	-2,333
331,4	1,295
331,8	-2,505
332,3	2,752
332,8	7,61
333,2	10,524
333,7	10,638
334,1	10,41
334,6	9,41
335,1	7,038
335,5	5,81
336	1,152
336,4	1,095
336,9	5,381
337,4	7,152
337,8	6,095
338,3	7,81
338,7	5,095
339,2	6,81
339,7	8,838
340,1	1,095
340,6	-0,962
341	2,381
341,5	3,952
342	4,581
342,4	3,524
342,9	-1,619
343,3	1,352
343,8	-2,276
344,2	-3,019
344,7	1,524
345,2	1,467
345,6	1,41
346,1	4,752
346,5	3,295
347	4,724
347,5	2,095
347,9	1,895
348,4	2,895
348,8	7,524
349,3	10,61
349,8	15,267
350,2	23,067
350,7	23,352
351,1	21,495
351,6	27,638
352	30,81
352,5	31,838
353	39,124
353,4	39,724
353,9	51,695
354,3	65,924
354,8	75,838
355,3	94,038
355,7	115,152
356,2	136,695
356,6	164,524
357,1	194,981
357,5	225,667
358	260,41
358,5	295,181
358,9	342,267
359,4	393,838
359,8	449,924
360,3	518,61
360,8	588,581
361,2	669,352
361,7	765,524
362,1	864,181
362,6	968,638
363	1090,552
363,5	1211,352
364	1347,981
364,4	1489,724
364,9	1622,61
365,3	1755,524
365,8	1881,724
366,3	2002,038
366,7	2111,295
367,2	2204,981
367,6	2277,924
368,1	2337,295
368,5	2382,924
369	2409,61
369,5	2407,124
369,9	2383,638
370,4	2345,41
370,8	2294,781
371,3	2233,524
371,7	2153,038
372,2	2056,181
372,7	1958,438
373,1	1857,781
373,6	1744,781
374	1634,438
374,5	1524,667
374,9	1415,695
375,4	1315,267
375,9	1216,324
376,3	1121,552
376,8	1036,695
377,2	952,981
377,7	869,524
378,2	798,152
378,6	734,181
379,1	672,381
379,5	623,667
380	578,01
380,4	531,81
380,9	488,067
381,4	445,352
381,8	410,067
382,3	382,924
382,7	352,667
383,2	322,41
383,6	299,724
384,1	281,981
384,6	261,495
385	240,038
385,5	220,038
385,9	198,295
386,4	184,581
386,8	170,067
387,3	157,695
387,7	150,495
388,2	142,695
388,7	131,667
389,1	125,781
389,6	117,752
390	112,838
390,5	106,724
390,9	103,038
391,4	97,295
391,9	90,352
392,3	85,867
392,8	80,067
393,2	71,838
393,7	67,524
394,1	55,81
394,6	51,038
395,1	51,867
395,5	48,067
396	42,781
396,4	39,724
396,9	34,838
397,3	41,61
397,8	42,438
398,2	40,467
398,7	40,581
399,2	42,724
399,6	44,438
400,1	45,381
400,5	38,524
401	40,21
401,4	36,038
401,9	39,724
402,4	41,495
402,8	35,952
403,3	40,724
403,7	38,095
404,2	36,267
404,6	39,524
405,1	34,695
405,5	33,21
406	35,838
406,5	32,41
406,9	38,124
407,4	38,752
407,8	42,124
408,3	47,61
408,7	46,41
409,2	53,352
409,6	58,181
410,1	65,324
410,6	70,667
411	73,124
411,5	74,495
411,9	79,41
412,4	82,724
412,8	89,01
413,3	89,752
413,7	92,267
414,2	96,924
414,7	103,895
415,1	115,667
415,6	123,41
416	126,781
416,5	129,038
416,9	134,038
417,4	140,41
417,8	152,352
418,3	156,238
418,8	162,781
419,2	169,41
419,7	179,638
420,1	188,895
420,6	195,467
421	196,581
421,5	208,038
421,9	215,924
422,4	224,352
422,8	233,067
423,3	239,438
423,8	244,124
424,2	252,638
424,7	255,895
425,1	266,781
425,6	279,152
426	290,038
426,5	306,781
426,9	325,667
427,4	336,552
427,9	349,01
428,3	359,467
428,8	373,095
429,2	382,067
429,7	391,438
430,1	405,552
430,6	420,067
431	438,752
431,5	458,067
431,9	470,638
432,4	494,095
432,8	517,724
433,3	540,381
433,8	565,838
434,2	590,695
434,7	622,067
435,1	652,067
435,6	684,095
436	712,095
436,5	741,667
436,9	771,124
437,4	802,352
437,8	831,781
438,3	866,324
438,8	897,352
439,2	935,467
439,7	978,895
440,1	1017,324
440,6	1068,752
441	1108,152
441,5	1158,295
441,9	1211,01
442,4	1255,61
442,8	1299,352
443,3	1359,695
443,7	1409,695
444,2	1468,495
444,7	1526,295
445,1	1579,924
445,6	1644,838
446	1708,095
446,5	1763,952
446,9	1818,81
447,4	1880,81
447,8	1943,21
448,3	2014,238
448,7	2081,61
449,2	2155,267
449,6	2232,438
450,1	2308,752
450,6	2387,067
451	2461,324
451,5	2539,867
451,9	2622,781
452,4	2707,41
452,8	2781,667
453,3	2868,981
453,7	2952,952
454,2	3044,667
454,6	3125,895
455,1	3211,924
455,5	3293,724
456	3391,524
456,4	3472,124
456,9	3565,095
457,3	3657,21
457,8	3748,838
458,3	3851,095
458,7	3949,181
459,2	4042,638
459,6	4147,181
460,1	4252,21
460,5	4346,552
461	4453,838
461,4	4542,552
461,9	4638,467
462,3	4745,467
462,8	4848,952
463,2	4939,724
463,7	5043,895
464,1	5150,552
464,6	5262,952
465	5367,238
465,5	5468,495
466	5577,295
466,4	5680,838
466,9	5786,638
467,3	5882,61
467,8	5977,61
468,2	6079,21
468,7	6181,467
469,1	6271,952
469,6	6367,238
470	6462,752
470,5	6557,638
470,9	6652,381
471,4	6745,41
471,8	6835,781
472,3	6929,438
472,7	7027,695
473,2	7103,667
473,6	7193,552
474,1	7283,267
474,5	7369,61
475	7448,181
475,4	7527,61
475,9	7598,981
476,4	7679,038
476,8	7751,552
477,3	7822,181
477,7	7892,01
478,2	7962,495
478,6	8030,895
479,1	8095,695
479,5	8167,695
480	8220,952
480,4	8276,067
480,9	8323,924
481,3	8367,01
481,8	8407,181
482,2	8447,21
482,7	8489,181
483,1	8531,695
483,6	8566,21
484	8601,581
484,5	8631,095
484,9	8666,781
485,4	8695,581
485,8	8709,152
486,3	8733,667
486,7	8747,924
487,2	8764,581
487,6	8779,01
488,1	8781,238
488,5	8786,181
489	8790,667
489,4	8785,467
489,9	8783,495
490,4	8775,524
490,8	8766,581
491,3	8763,324
491,7	8754,581
492,2	8742,295
492,6	8727,01
493,1	8704,81
493,5	8676,552
494	8655,124
494,4	8630,152
494,9	8597,295
495,3	8568,124
495,8	8534,324
496,2	8509,867
496,7	8479,295
497,1	8442,895
497,6	8405,981
498	8366,21
498,5	8331,295
498,9	8284,752
499,4	8235,838
499,8	8191,924
500,3	8149,752
500,7	8097,324
501,2	8051,81
501,6	7994,038
502,1	7949,238
502,5	7900,924
503	7855,81
503,4	7798,152
503,9	7742,524
504,3	7691,752
504,8	7633,924
505,2	7578,752
505,7	7518,81
506,1	7462,21
506,6	7402,495
507	7338,924
507,5	7272,81
507,9	7218,752
508,4	7154,61
508,8	7088,381
509,3	7020,381
509,7	6967,524
510,2	6907,581
510,6	6842,01
511,1	6772,267
511,5	6714,81
512	6650,267
512,4	6589,467
512,9	6523,524
513,3	6463,867
513,8	6400,438
514,2	6335,01
514,7	6263,295
515,1	6198,81
515,6	6134,981
516	6059,581
516,5	5993,781
516,9	5928,067
517,4	5864,324
517,8	5807,581
518,3	5747,495
518,7	5676,324
519,2	5615,095
519,6	5548,838
520,1	5491,352
520,5	5432,638
521	5356,781
521,4	5294,638
521,9	5242,381
522,3	5179,552
522,8	5119,838
523,2	5061,295
523,7	4997,495
524,1	4948,01
524,6	4894,467
525	4825,895
525,5	4774,724
525,9	4722,495
526,4	4658,952
526,8	4605,867
527,3	4559,438
527,7	4506,181
528,2	4460,01
528,6	4401,324
529,1	4347,01
529,5	4307,895
530	4259,352
530,4	4202,924
530,9	4154,867
531,3	4107,667
531,8	4066,067
532,2	4019,524
532,6	3966,667
533,1	3920,067
533,5	3869,667
534	3817,381
534,4	3770,267
534,9	3728,067
535,3	3683,038
535,8	3640,238
536,2	3602,438
536,7	3566,581
537,1	3533,295
537,6	3489,238
538	3448,695
538,5	3417,495
538,9	3375,038
539,4	3335,695
539,8	3302,524
540,3	3262,952
540,7	3231,41
541,2	3200,124
541,6	3155,41
542,1	3126,01
542,5	3087,038
543	3045,924
543,4	3011,295
543,9	2976,324
544,3	2945,752
544,8	2911,495
545,2	2884,038
545,7	2860,495
546,1	2834,467
546,5	2809,01
547	2778,724
547,4	2745,038
547,9	2722,438
548,3	2689,61
548,8	2663,724
549,2	2633,324
549,7	2602,095
550,1	2584,781
550,6	2562,467
551	2544,095
551,5	2517,667
551,9	2490,838
552,4	2472,981
552,8	2450,467
553,3	2425,638
553,7	2394,438
554,2	2366,724
554,6	2352,152
555,1	2329,81
555,5	2301,667
555,9	2284,124
556,4	2262,695
556,8	2243,524
557,3	2226,581
557,7	2205,695
558,2	2188,552
558,6	2177,952
559,1	2160,238
559,5	2137,495
560	2120,61
560,4	2105,124
560,9	2082,295
561,3	2061,352
561,8	2037,381
562,2	2017,038
562,7	2006,238
563,1	1994,552
563,6	1973,638
564	1963,61
564,4	1946,181
564,9	1932,638
565,3	1921,181
565,8	1899,01
566,2	1882,267
566,7	1864,952
567,1	1853,381
567,6	1840,638
568	1826,038
568,5	1807,638
568,9	1797,838
569,4	1786,667
569,8	1775,21
570,3	1755,381
570,7	1736,21
571,1	1723,81
571,6	1710,01
572	1695,81
572,5	1681,524
572,9	1670,61
573,4	1660,781
573,8	1653,695
574,3	1640,667
574,7	1627,495
575,2	1612,352
575,6	1597,41
576,1	1587,495
576,5	1580,038
576,9	1564,838
577,4	1553,952
577,8	1545,124
578,3	1534,981
578,7	1527,095
579,2	1513,124
579,6	1493,438
580,1	1486,267
580,5	1474,667
581	1468,181
581,4	1460,667
581,9	1446,381
582,3	1434,61
582,7	1430,667
583,2	1421,41
583,6	1413,695
584,1	1402,524
584,5	1395,152
585	1392,695
585,4	1382,867
585,9	1372,867
586,3	1368,552
586,8	1360,724
587,2	1346,267
587,6	1342,067
588,1	1332,924
588,5	1325,295
589	1319,41
589,4	1302,781
589,9	1292,181
590,3	1287,524
590,8	1273,21
591,2	1261,781
591,7	1258,467
592,1	1247,124
592,5	1243,867
593	1234,895
593,4	1227,095
593,9	1218,238
594,3	1211,924
594,8	1199,152
595,2	1187,695
595,7	1182,81
596,1	1176,038
596,6	1168,467
597	1164,952
597,4	1161,324
597,9	1157,581
598,3	1159,295
598,8	1149,21
599,2	1147,552
599,7	1142,952
600,1	1136,781
600,6	1124,924
601	1115,352
601,4	1109,41
601,9	1107,724
602,3	1098,067
602,8	1092,981
603,2	1084,267
603,7	1080,495
604,1	1078,295
604,6	1068,524
605	1055,724
605,4	1056,781
605,9	1047,524
606,3	1040,695
606,8	1031,038
607,2	1023,924
607,7	1014,124
608,1	1010,467
608,6	998,381
609	1001,067
609,4	999,752
609,9	995,581
610,3	988,581
610,8	984,952
611,2	978,41
611,7	975,238
612,1	961,038
612,6	953,638
613	949,381
613,4	945,238
613,9	941,552
614,3	933,267
614,8	925,41
615,2	916,467
615,7	912,752
616,1	909,41
616,6	901,381
617	895,81
617,4	894,638
617,9	895,41
618,3	895,581
618,8	888,381
619,2	882,81
619,7	880,781
620,1	877,152
620,5	876,152
621	862,067
621,4	860,21
621,9	857,867
622,3	852,324
622,8	844,895
623,2	835,695
623,6	830,238
624,1	828,038
624,5	819,467
625	819,01
625,4	812,381
625,9	806,952
626,3	803,638
626,8	794,324
627,2	792,638
627,6	785,067
628,1	766,61
628,5	763,667
629	759,095
629,4	757,752
629,9	757,752
630,3	747,667
630,7	743,038
631,2	746,981
631,6	739,381
632,1	736,238
632,5	727,61
633	725,067
633,4	725,038
633,8	720,41
634,3	712,181
634,7	710,267
635,2	704,067
635,6	702,238
636,1	694,238
636,5	683,924
636,9	678,552
637,4	678,267
637,8	667,724
638,3	666,524
638,7	659,667
639,2	652,352
639,6	652,495
640	653,552
640,5	647,124
640,9	649,952
641,4	645,41
641,8	642,21
642,2	638,095
642,7	637,295
643,1	633,038
643,6	627,981
644	621,495
644,5	619,781
644,9	617,552
645,3	615,352
645,8	605,924
646,2	603,295
646,7	600,724
647,1	597,381
647,6	593,152
648	588,41
648,4	581,867
648,9	583,152
649,3	577,152
649,8	575,895
650,2	570,181
650,6	564,752
651,1	559,267
651,5	559,724
652	554,552
652,4	549,695
652,9	544,638
653,3	544,095
653,7	538,01
654,2	532,867
654,6	528,781
655,1	524,752
655,5	527,495
655,9	521,724
656,4	517,981
656,8	514,21
657,3	514,438
657,7	512,41
658,2	506,124
658,6	499,581
659	497,238
659,5	493,124
659,9	495,495
660,4	493,381
660,8	488,81
661,2	485,81
661,7	479,524
662,1	477,667
662,6	476,81
663	470,238
663,4	465,324
663,9	462,695
664,3	459,467
664,8	456,724
665,2	449,41
665,6	439,724
666,1	439,438
666,5	436,495
667	431,01
667,4	429,552
667,9	428,381
668,3	425,152
668,7	425,924
669,2	423,752
669,6	418,495
670,1	417,581
670,5	414,01
670,9	410,981
671,4	414,61
671,8	414,095
672,3	410,467
672,7	411,41
673,1	401,895
673,6	398,695
674	395,524
674,5	390,267
674,9	384,095
675,3	378,695
675,8	377,124
676,2	379,267
676,7	373,895
677,1	370,895
677,5	365,495
678	366,61
678,4	367,724
678,9	364,667
679,3	361,181
679,7	364,495
680,2	356,924
680,6	353,895
681,1	349,067
681,5	349,295
681,9	345,467
682,4	347,867
682,8	345,61
683,3	350,152
683,7	353,352
684,1	353,752
684,6	348,181
685	348,152
685,5	344,81
685,9	334,467
686,3	330,467
686,8	324,324
687,2	322,524
687,7	319,61
688,1	312,81
688,5	310,324
689	317,81
689,4	315,638
689,9	314,752
690,3	306,952
690,7	305,067
691,2	308,152
691,6	304,924
692	298,61
692,5	299,067
692,9	297,667
693,4	299,01
693,8	297,81
694,2	293,81
694,7	292,324
695,1	292,695
695,6	289,895
696	288,21
696,4	282,667
696,9	274,924
697,3	269,152
697,8	264,81
698,2	260,095
698,6	258,952
699,1	257,238
699,5	261,552
699,9	258,41
700,4	256,181
700,8	258,324
701,3	258,181
701,7	254,095
702,1	251,124
702,6	245,238
703	247,038
703,5	244,81
703,9	239,124
704,3	237,752
704,8	236,352
705,2	232,467
705,6	231,781
706,1	232,495
706,5	232,324
707	232,581
707,4	230,924
707,8	226,181
708,3	226,667
708,7	228,124
709,2	225,638
709,6	225,952
710	229,267
710,5	223,81
710,9	224,667
711,3	226,01
711,8	223,152
712,2	221,21
712,7	217,295
713,1	214,152
713,5	215,867
714	215,781
714,4	208,124
714,8	206,152
715,3	201,81
715,7	204,638
716,2	199,438
716,6	199,781
717	195,467
717,5	198,01
717,9	201,724
718,3	199,695
718,8	197,81
719,2	194,695
719,7	189,867
720,1	189,21
720,5	191,895
721	184,81
721,4	185,724
721,8	187,581
722,3	184,352
722,7	186,324
723,2	181,895
723,6	172,667
724	170,438
724,5	168,524
724,9	162,524
725,3	164,067
725,8	160,61
726,2	160,552
726,7	160,924
727,1	158,638
727,5	157,038
728	154,124
728,4	153,695
728,8	150,895
729,3	154,267
729,7	151,352
730,1	153,924
730,6	155,238
731	157,01
731,5	157,238
731,9	153,724
732,3	151,895
732,8	154,438
733,2	154,324
733,6	151,524
734,1	148,495
734,5	146,81
734,9	149,238
735,4	148,267
735,8	142,924
736,3	147,124
736,7	144,867
737,1	145,238
737,6	144,495
738	145,324
738,4	140,752
738,9	141,267
739,3	138,038
739,7	141,095
740,2	139,467
740,6	139,924
741,1	142,124
741,5	141,467
741,9	140,324
742,4	138,895
742,8	137,181
743,2	138,952
743,7	132,495
744,1	125,724
744,5	125,524
745	122,524
745,4	115,067
745,8	114,895
746,3	114,124
746,7	116,552
747,2	116,867
747,6	119,667
748	126,695
748,5	130,867
748,9	126,381
749,3	122,781
749,8	119,838
750,2	121,038
750,6	117,295
751,1	117,81
751,5	116,41
751,9	121,124
752,4	124,724
752,8	126,324
753,3	123,41
753,7	124,124
754,1	117,267
754,6	114,095
755	111,867
755,4	104,724
755,9	106,638
756,3	107,295
756,7	108,381
757,2	111,352
757,6	112,581
758	111,581
758,5	111,724
758,9	111,181
759,3	113,295
759,8	108,124
760,2	108,438
760,6	104,552
761,1	98,838
761,5	101,981
761,9	97,095
762,4	94,01
762,8	94,552
763,3	91,781
763,7	95,924
764,1	102,638
764,6	102,324
765	105,867
765,4	108,438
765,9	109,924
766,3	112,438
766,7	106,752
767,2	100,438
767,6	102,067
768	97,924
768,5	94,467
768,9	93,61
769,3	90,638
769,8	93,924
770,2	97,667
770,6	93,524
771,1	97,238
771,5	95,21
771,9	95,895
772,4	94,181
772,8	92,581
773,2	88,352
773,7	85,924
774,1	85,238
774,5	86,41
775	85,867
775,4	85,838
775,8	82,152
776,3	88,067
776,7	88,695
777,1	84,695
777,6	85,895
778	86,724
778,4	89,21
778,9	92,067
779,3	86,41
779,7	90,524
780,2	95,238
780,6	96,21
781	92,067
781,5	83,838
781,9	83,952
782,3	84,667
782,8	82,352
783,2	78,924
783,6	78,295
784,1	75,667
784,5	75,867
784,9	73,495
785,4	77,752
785,8	78,295
786,2	78,552
786,7	76,781
787,1	78,467
787,5	79,724
788	77,81
788,4	70,067
788,8	66,981
789,3	63,724
789,7	61,81
790,1	64,924
790,6	68,981
791	70,381
791,4	75,638
791,9	70,895
792,3	67,41
792,7	72,581
793,2	65,381
793,6	61,238
794	62,152
794,5	60,152
794,9	67,895
795,3	72,895
795,8	68,381
796,2	72,01
796,6	75,952
797,1	76,867
797,5	72,067
797,9	65,867
798,4	66,295
798,8	65,095
799,2	63,752
799,7	65,352
800,1	62,267
800,5	65,095
801	69,781
801,4	62,238
801,8	56,267
802,2	55,81
802,7	49,924
803,1	48,781
803,5	46,495
804	43,267
804,4	50,61
804,8	54,124
805,3	55,495
805,7	57,267
806,1	57,095
806,6	61,067
807	59,524
807,4	54,467
807,9	53,21
808,3	52,181
808,7	52,038
809,2	55,724
809,6	54,695
810	54,324
810,4	54,695
810,9	56,41
811,3	61,867
811,7	58,838
812,2	58,924
812,6	56,267
813	60,038
813,5	61,324
813,9	58,781
814,3	54,438
814,8	55,067
815,2	51,095
815,6	52,438
816,1	49,181
816,5	50,438
816,9	54,352
817,3	52,381
817,8	55,952
818,2	57,752
818,6	56,924
819,1	57,124
819,5	54,724
819,9	50,61
820,4	51,638
820,8	45,981
821,2	41,695
821,7	39,61
822,1	43,752
822,5	51,981
822,9	51,638
823,4	47,438
823,8	51,038
824,2	57,667
824,7	54,352
825,1	47,067
825,5	40,41
826	37,752
826,4	36,781
826,8	33,124
827,3	29,467
827,7	29,724
828,1	33,181
828,5	32,952
829	35,438
829,4	38,638
829,8	34,924
830,3	31,924
830,7	36,21
831,1	36,695
831,6	34,724
832	31,267
832,4	29,638
832,8	35,124
833,3	32,667
833,7	32,467
834,1	28,467
834,6	28,752
835	34,695
835,4	36,352
835,8	33,781
836,3	36,61
836,7	35,61
837,1	34,581
837,6	35,295
838	30,152
838,4	28,524
838,9	30,552
839,3	28,895
839,7	29,467
840,1	25,952
840,6	21,952
841	26,352
841,4	27,124
841,9	26,524
842,3	27,695
842,7	26,581
843,1	29,124
843,6	30,267
844	29,095
844,4	31,152
844,9	33,952
845,3	31,181
845,7	30,21
846,2	33,695
846,6	33,067
847	33,724
847,4	36,895
847,9	32,524
848,3	34,21
848,7	33,61
849,2	31,21
849,6	27,752
850	29,095
850,4	24,21
850,9	25,267
851,3	27,895
851,7	26,552
852,2	26,581
852,6	32,752
853	30,495
853,4	30,695
853,9	29,038
854,3	26,638
854,7	28,124
855,2	27,381
855,6	22,581
856	20,41
856,4	17,324
856,9	13,552
857,3	12,752
857,7	16,638
858,2	20,781
858,6	24,895
859	26,295
859,4	27,41
859,9	29,695
860,3	29,581
860,7	27,01
861,1	25,152
861,6	25,238
862	22,724
862,4	19,524
862,9	20,038
863,3	18,438
863,7	14,838
864,1	18,952
864,6	15,152
865	15,81
865,4	19,267
865,9	22,038
866,3	22,267
866,7	21,21
867,1	12,752
867,6	13,981
868	11,124
868,4	10,781
868,8	8,352
869,3	10,038
869,7	17,867
870,1	15,067
870,6	16,095
871	-1,533
871,4	3,467
871,8	2,381
872,3	2,152
872,7	-5,076
873,1	1,01
873,5	0,81
874	19,524
874,4	13,667
874,8	15,095
875,3	19,038
875,7	17,467
876,1	16,695
876,5	15,781
877	13,381
877,4	10,381
877,8	9,381
878,2	7,724
878,7	12,181
879,1	11,181
879,5	11,838
879,9	17,181
880,4	20,095
880,8	18,067
881,2	16,181
881,7	12,867
882,1	14,552
882,5	15,667
882,9	14,41
883,4	11,267
883,8	11,752
884,2	14,238
884,6	12,81
885,1	14,61
885,5	11,61
885,9	10,295
886,3	15,838
886,8	15,152
887,2	11,01
887,6	13,295
888	12,095
888,5	15,81
888,9	14,61
889,3	11,41
889,8	11,981
890,2	8,638
890,6	6,638
891	8,267
891,5	4,81
891,9	4,695
892,3	4,267
892,7	5,638
893,2	7,781
893,6	10,952
894	9,61
894,4	10,01
894,9	12,924
895,3	16,181
895,7	20,41
896,1	20,095
896,6	16,952
897	16,152
897,4	17,067
897,8	17,095
898,3	15,724
898,7	8,095
899,1	11,067
899,5	12,152
900	5,552
900,4	5,467
900,8	4,124
901,2	2,038
901,7	3,267
902,1	3,924
902,5	4,267
902,9	7,067
903,4	7,381
903,8	9,495
904,2	6,867
904,6	7,124
905,1	6,552
905,5	5,295
905,9	9,667
906,3	12,381
906,8	13,524
907,2	20,724
907,6	20,61
908	22,124
908,5	22,067
908,9	16,41
909,3	12,267
909,7	13,524
910,2	8,695
910,6	13,438
911	9,41
911,4	13,695
911,9	14,124
912,3	14,581
912,7	11,895
913,1	14,952
913,6	10,01
914	12,238
914,4	10,667
914,8	14,952
915,3	13,81
915,7	15,238
916,1	11,41
916,5	14,552
916,9	15,895
917,4	14,381
917,8	12,638
918,2	10,524
918,6	6,467
919,1	9,81
919,5	9,838
919,9	9,21
920,3	8,552
920,8	6,324
921,2	6,438
921,6	6,638
922	6,295
922,5	5,781
922,9	3,41
923,3	9,21
923,7	14,124
924,2	14,067
924,6	12,81
925	13,552
925,4	11,81
925,8	15,781
926,3	12,01
926,7	8,924
927,1	9,552
927,5	9,638
928	3,381
928,4	4,867
928,8	3,381
929,2	3,867
929,7	5,438
930,1	7,81
930,5	7,81
930,9	11,495
931,3	10,152
931,8	10,667
932,2	9,752
932,6	3,724
933	-2,105
933,5	1,324
933,9	4,324
934,3	8,581
934,7	5,924
935,2	3,81
935,6	8,752
936	13,581
936,4	14,752
936,8	18,467
937,3	12,924
937,7	12,01
938,1	15,981
938,5	12,924
939	14,324
939,4	13,752
939,8	7,667
940,2	6,724
940,6	8,238
941,1	5,867
941,5	12,038
941,9	7,495
942,3	6,61
942,8	6,152
943,2	12,752
943,6	9,924
944	11,01
944,4	7,895
944,9	5,781
945,3	2,867
945,7	0,238
946,1	-4,448
946,6	-6,99
947	-9,648
947,4	-7,533
947,8	-6,076
948,2	-5,162
948,7	-0,39
949,1	0,781
949,5	11,181
949,9	10,61
950,3	6,895
950,8	9,61
951,2	11,41
951,6	8,381
952	9,781
952,5	3,095
952,9	2,838
953,3	2,095
953,7	4,181
954,1	4,867
954,6	4,724
955	7,21
955,4	4,638
955,8	8,238
956,2	9,41
956,7	10,724
957,1	6,781
957,5	7,838
957,9	4,581
958,3	8,181
958,8	8,495
959,2	8,21
959,6	8,495
960	7,067
960,5	8,695
960,9	13,324
961,3	10,152
961,7	7,324
962,1	8,638
962,6	7,752
963	11,295
963,4	5,752
963,8	4,438
964,2	10,924
964,7	14,924
965,1	17,895
965,5	16,352
965,9	13,495
966,3	21,038
966,8	18,752
967,2	12,21
967,6	10,352
968	5,752
968,4	3,667
968,9	6,495
969,3	10,895
969,7	6,781
970,1	17,41
970,5	15,238
971	19,524
971,4	22,495
971,8	20,981
972,2	13,867
972,6	15,667
973,1	7,238
973,5	9,724
973,9	10,41
974,3	11,238
974,7	13,41
975,2	13,238
975,6	14,067
976	15,924
976,4	13,638
976,8	8,581
977,3	4,01
977,7	0,467
978,1	3,552
978,5	1,895
978,9	-0,59
979,4	-1,905
979,8	-2,933
980,2	-2,533
980,6	-1,476
981	-2,048
981,5	-3,219
981,9	-1,733
982,3	0,352
982,7	3,295
983,1	-0,99
983,6	-0,048
984	-2,933
984,4	-2,248
984,8	-0,876
985,2	-0,733
985,6	-3,99
986,1	4,752
986,5	9,067
986,9	6,552
987,3	11,01
987,7	10,61
988,2	7,01
988,6	10,724
989	11,667
989,4	9,124
989,8	10,638
990,3	5,924
990,7	3,867
991,1	9,781
991,5	11,438
991,9	9,981
992,3	8,324
992,8	11,324
993,2	10,752
993,6	10,41
994	9,695
994,4	10,124
994,9	8,01
995,3	5,41
995,7	0,324
996,1	0,181
996,5	0,81
996,9	-5,105
997,4	-4,476
997,8	-7,59
998,2	-8,133
998,6	-12,419
999	-7,105
999,5	-6,905
999,9	-4,59
1000,3	-14,333
1000,7	-11,676
1001,1	-9,505
1001,5	-2,933
1002	-2,019
1002,4	-2,905
1002,8	-0,305
1003,2	7,295
1003,6	9,381
1004	13,81
1004,5	12,638
1004,9	11,524
1005,3	9,467
1005,7	7,81
1006,1	6,81
1006,6	3,267
1007	0,295
1007,4	1,952
1007,8	1,324
1008,2	0,752
1008,6	6,21
1009,1	1,924
1009,5	6,41
1009,9	9,01
1010,3	9,667
1010,7	9,41
1011,1	16,41
1011,6	12,524
1012	20,695
1012,4	16,838
1012,8	13,467
1013,2	17,638
1013,6	17,152
1014,1	14,667
1014,5	16,067
1014,9	10,381
1015,3	7,724
1015,7	9,638
1016,1	2,981
1016,6	2,581
1017	0,038
1017,4	-3,162
1017,8	-7,019
1018,2	-0,048
1018,6	-8,305
1019,1	-5,533
1019,5	-6,162
1019,9	-9,762
1020,3	-6,562
1020,7	-1,933
1021,1	-8,533
1021,6	-4,933
1022	-1,905
1022,4	-2,219
1022,8	5,981
1023,2	2,61
1023,6	2,067
1024,1	11,41
1024,5	15,952
1024,9	8,895
1025,3	10,124
1025,7	8,295
1026,1	13,21
1026,6	14,21
1027	9,838
1027,4	7,724
1027,8	10,638
1028,2	7,438
1028,6	8,81
1029	7,638
1029,5	9,21
1029,9	7,61
1030,3	6,981
1030,7	6,038
1031,1	10,324
1031,5	6,952
1032	5,81
1032,4	3,838
1032,8	2,495
1033,2	2,352
1033,6	2,667
1034	-0,019
1034,4	0,981
1034,9	3,381
1035,3	0,895
1035,7	5,724
1036,1	9,038
1036,5	7,981
1036,9	9,724
1037,4	10,295
1037,8	1,952
1038,2	3,352
1038,6	-0,162
1039	0,495
1039,4	7,038
1039,8	3,952
1040,3	4,21
1040,7	6,924
1041,1	7,495
1041,5	9,524
1041,9	3,695
1042,3	-2,048
1042,7	3,467
1043,2	2,124
1043,6	1,438
1044	3,152
1044,4	0,152
1044,8	4,838
1045,2	7,438
1045,6	2,495
1046,1	0,952
1046,5	4,867
1046,9	1,867
1047,3	1,095
1047,7	-0,162
1048,1	-4,562
1048,5	-2,676
1049	0,124
1049,4	3,924
1049,8	6,152
1050,2	9,552
1050,6	14,781
1051	16,181
1051,4	15,324
1051,9	14,124
1052,3	16,038
1052,7	17,581
1053,1	14,467
1053,5	12,352
1053,9	11,924
1054,3	14,352
1054,8	19,895
1055,2	16,352
1055,6	17,438
1056	21,381
1056,4	19,638
1056,8	20,181
1057,2	18,152
1057,6	8,267
1058,1	6,524
1058,5	4,324
1058,9	3,295
1059,3	3,924
1059,7	4,895
1060,1	4,838
1060,5	9,067
1061	9,581
1061,4	10,41
1061,8	11,41
1062,2	6,352
1062,6	8,41
1063	9,952
1063,4	8,01
1063,8	7,267
1064,3	4,724
1064,7	5,61
1065,1	8,724
1065,5	4,352
1065,9	1,867
1066,3	2,81
1066,7	1,21
1067,1	-1,505
1067,6	-0,19
1068	-5,419
1068,4	-4,333
1068,8	0,01
1069,2	2,124
1069,6	1,495
1070	4,524
1070,4	-0,248
1070,9	2,981
1071,3	5,61
1071,7	0,838
1072,1	0,924
1072,5	2,238
1072,9	1,295
1073,3	1,524
1073,7	2,867
1074,2	0,638
1074,6	5,152
1075	2,638
1075,4	-0,562
1075,8	0,724
1076,2	-0,962
1076,6	-0,105
1077	-2,105
1077,5	-2,533
1077,9	0,867
1078,3	2,21
1078,7	5,124
1079,1	9,524
1079,5	6,267
1079,9	7,838
1080,3	5,41
1080,7	5,01
1081,2	8,581
1081,6	6,838
1082	2,952
1082,4	6,81
1082,8	9,381
1083,2	10,095
1083,6	11,095
1084	7,324
1084,5	10,552
1084,9	10,667
1085,3	6,552
1085,7	9,181
1086,1	5,095
1086,5	8,467
1086,9	12,495
1087,3	9,01
1087,7	9,981
1088,2	13,352
1088,6	8,581
1089	14,495
1089,4	11,095
1089,8	7,924
1090,2	4,324
1090,6	3,867
1091	6,01
1091,4	10,324
1091,9	7,267
1092,3	5,867
1092,7	5,524
1093,1	8,61
1093,5	8,467
1093,9	6,181
1094,3	6,238
1094,7	1,295
1095,1	2,124
1095,5	5,724
1096	4,381
1096,4	5,467
1096,8	6,352
1097,2	1,524
1097,6	9,667
1098	7,638
1098,4	4,895
1098,8	5,495
1099,2	9,238
1099,6	4,924
1100,1	7,981
1100,5	1,581
1100,9	2,838
1101,3	3,01
1101,7	1,41
1102,1	-1,705
1102,5	4,838
1102,9	6,152
1103,3	12,21
1103,7	13,41
1104,2	13,438
1104,6	14,552
1105	12,067
1105,4	8,552
1105,8	4,81
1106,2	1,181
1106,6	-0,876
1107	-1,419
1107,4	-1,5
1107,8	-0,013
1108,3	-0,383
