Data from Subt2_147.txt Node
Date: Sat Aug 26 18:30:38 MSK 2023
User: vat
Spectrometer: MAYP114033
Trigger mode: 0
Integration Time (sec): 1,000000E0
Scans to average: 5
Electric dark correction enabled: true
Nonlinearity correction enabled: false
Boxcar width: 3
XAxis mode: Wavelengths
Number of Pixels in Spectrum: 2068
>>>>>Begin Spectral Data<<<<<
199,4	-1,2
199,9	-0,9
200,4	-0,967
200,8	0,1
201,3	-1,5
201,8	-1,243
202,2	-3,329
202,7	-2,471
203,2	-3,671
203,6	-4,214
204,1	-8,214
204,6	-7,186
205	-7,014
205,5	-3,786
206	-2,786
206,4	-2,014
206,9	-0,757
207,4	4,157
207,8	2,929
208,3	2,129
208,8	0,357
209,2	-1,471
209,7	0,186
210,2	3,5
210,6	3,243
211,1	5,814
211,5	2,957
212	2,014
212,5	3,471
212,9	2,1
213,4	-0,986
213,9	-4,129
214,3	-3,929
214,8	1,071
215,3	0,014
215,7	-0,471
216,2	1,586
216,7	2,643
217,1	4,014
217,6	4,357
218,1	0,729
218,5	0,129
219	-7,7
219,5	-10,386
219,9	-14,129
220,4	-8,214
220,9	-8,014
221,3	-5,957
221,8	-3,643
222,3	3,014
222,7	6,1
223,2	3,386
223,6	-4,843
224,1	-5,357
224,6	-5,471
225	-4,986
225,5	-5,471
226	-7,729
226,4	-1,414
226,9	0,586
227,4	2,529
227,8	-4,271
228,3	-7,529
228,8	-9,157
229,2	-4,329
229,7	-8,157
230,2	-6,729
230,6	-9,386
231,1	1,643
231,5	3,7
232	4,9
232,5	0,329
232,9	2,214
233,4	2,786
233,9	1,043
234,3	-2,986
234,8	-0,586
235,3	-2,757
235,7	-1,614
236,2	-5,1
236,7	-6,614
237,1	-3,5
237,6	-3,986
238,1	-8,929
238,5	-7,7
239	-8,643
239,4	2,357
239,9	3,7
240,4	2,1
240,8	4,443
241,3	5,814
241,8	5,014
242,2	3,186
242,7	-7,729
243,2	-11,671
243,6	-12,814
244,1	-14,529
244,6	-10,186
245	-7,843
245,5	-5,729
245,9	-3,557
246,4	2,214
246,9	4,414
247,3	4,529
247,8	3,014
248,3	6,271
248,7	5,129
249,2	5,443
249,7	2,271
250,1	1,071
250,6	0,529
251	1,186
251,5	-2,3
252	0,986
252,4	3,557
252,9	0,671
253,4	-0,986
253,8	0,357
254,3	1,786
254,8	3,7
255,2	-0,671
255,7	-4,614
256,1	-1,243
256,6	0,871
257,1	2,243
257,5	-2,014
258	-3,614
258,5	-2,786
258,9	-1,443
259,4	-3,643
259,9	-3,529
260,3	-9,129
260,8	-11,786
261,2	-12,786
261,7	-6,014
262,2	-5,957
262,6	-6,271
263,1	-0,929
263,6	4,357
264	11,729
264,5	14,129
264,9	6,557
265,4	9,471
265,9	9,929
266,3	7,129
266,8	6,586
267,3	3,814
267,7	2,329
268,2	3,043
268,7	3,814
269,1	3,329
269,6	-1,5
270	-1,014
270,5	-1,7
271	-1,929
271,4	-2,386
271,9	-9,957
272,4	-5,757
272,8	-3,986
273,3	-10,443
273,7	-8,786
274,2	-8,529
274,7	-6,243
275,1	-7,814
275,6	-8,7
276,1	-12,957
276,5	-4,557
277	-4,757
277,4	-2,957
277,9	0,7
278,4	10,014
278,8	12,471
279,3	16,243
279,8	15,243
280,2	16,443
280,7	17,186
281,1	11,186
281,6	5,643
282,1	1,843
282,5	3,671
283	0,586
283,4	0,1
283,9	-0,7
284,4	1,757
284,8	5,586
285,3	4,871
285,8	6,329
286,2	8,9
286,7	6,7
287,1	5,529
287,6	7,271
288,1	3,557
288,5	7,814
289	3,586
289,5	3,443
289,9	0,871
290,4	2,357
290,8	-2,014
291,3	0,586
291,8	1,986
292,2	4,1
292,7	6,529
293,1	10,471
293,6	11,986
294,1	15,1
294,5	18,186
295	13,7
295,5	13,186
295,9	10,7
296,4	9,357
296,8	5,129
297,3	1,271
297,8	-6,271
298,2	-7,986
298,7	-4,814
299,1	-2,386
299,6	-6,871
300,1	-2,986
300,5	-0,529
301	4,643
301,5	6,443
301,9	4,443
302,4	0,557
302,8	3,586
303,3	-3,7
303,8	-10,043
304,2	-12,386
304,7	-12,614
305,1	-13,986
305,6	-15,214
306,1	-11,614
306,5	-3,357
307	6,414
307,4	12,786
307,9	12,586
308,4	9,071
308,8	6,243
309,3	5,186
309,8	0,614
310,2	-0,214
310,7	-8,871
311,1	-9,214
311,6	-5,557
312,1	-2,014
312,5	-3,157
313	0,329
313,4	-2,414
313,9	0,5
314,4	-1,814
314,8	-3,129
315,3	-5,614
315,7	-6,071
316,2	-9,271
316,7	-9,843
317,1	-5,843
317,6	-0,871
318	3,729
318,5	2,471
319	2,3
319,4	4,929
319,9	10,357
320,3	9,157
320,8	3,414
321,3	1,5
321,7	4,014
322,2	4,386
322,6	2,9
323,1	-3,757
323,6	-7,643
324	-3,071
324,5	-5,443
324,9	1,671
325,4	1,529
325,9	4,414
326,3	5,729
326,8	10,529
327,2	8,043
327,7	8,929
328,2	4,7
328,6	7,671
329,1	1,986
329,5	4,9
330	-0,014
330,5	2,671
330,9	2,243
331,4	0,929
331,8	-5,529
332,3	-1,929
332,8	-1,071
333,2	0,357
333,7	0,957
334,1	3,329
334,6	0,043
335,1	1,214
335,5	-0,7
336	-6,357
336,4	-4,643
336,9	-1,814
337,4	-1,557
337,8	-1,329
338,3	1,271
338,7	4,071
339,2	1,671
339,7	-0,414
340,1	-2,529
340,6	-6,414
341	-6,586
341,5	-6,671
342	-10,671
342,4	-7,9
342,9	-9,929
343,3	-12,814
343,8	-12,9
344,2	-9,957
344,7	-5,329
345,2	-6,357
345,6	-5,843
346,1	-1,271
346,5	-3,871
347	-5,614
347,5	-5,843
347,9	-4,471
348,4	-4,043
348,8	-1,814
349,3	0,271
349,8	6,386
350,2	14,043
350,7	12,329
351,1	11,929
351,6	17,7
352	18,129
352,5	20,014
353	23,071
353,4	25,243
353,9	33,557
354,3	37,557
354,8	43,7
355,3	59,929
355,7	71,214
356,2	84,357
356,6	100,271
357,1	121,643
357,5	142,671
358	167,3
358,5	192,843
358,9	223,843
359,4	259,414
359,8	299,214
360,3	341,471
360,8	390,843
361,2	443,071
361,7	502,529
362,1	570,414
362,6	640,643
363	715,614
363,5	799,814
364	890,957
364,4	983,071
364,9	1073,186
365,3	1157,043
365,8	1242,129
366,3	1319,986
366,7	1389,614
367,2	1449,986
367,6	1499,329
368,1	1537,243
368,5	1567,443
369	1580,186
369,5	1586,814
369,9	1574,243
370,4	1549,929
370,8	1514,243
371,3	1468,014
371,7	1414,786
372,2	1349,129
372,7	1281,3
373,1	1213,586
373,6	1138,671
374	1069,357
374,5	999,271
374,9	929,3
375,4	869,186
375,9	803,614
376,3	740,357
376,8	681,186
377,2	626,386
377,7	571,871
378,2	521,271
378,6	472,957
379,1	427,357
379,5	391,529
380	362,157
380,4	329,586
380,9	300,986
381,4	274,843
381,8	258,671
382,3	243,643
382,7	228,386
383,2	211,929
383,6	197,7
384,1	190,471
384,6	179,7
385	163,414
385,5	152,157
385,9	137,071
386,4	121,843
386,8	114,186
387,3	98,357
387,7	92,214
388,2	87,9
388,7	82,3
389,1	78,157
389,6	76,3
390	71,243
390,5	71,1
390,9	66,671
391,4	62,986
391,9	57,729
392,3	56,186
392,8	52,471
393,2	46,814
393,7	42,7
394,1	36,414
394,6	32,071
395,1	33,586
395,5	27,243
396	28,1
396,4	31,586
396,9	34,471
397,3	39,414
397,8	42,586
398,2	39,871
398,7	41,329
399,2	40,414
399,6	38,614
400,1	35,871
400,5	28,814
401	25,014
401,4	18,614
401,9	21,271
402,4	22,871
402,8	17,157
403,3	24,986
403,7	27,271
404,2	31,014
404,6	41,329
405,1	39,757
405,5	38,929
406	43,214
406,5	38,586
406,9	44,157
407,4	41,871
407,8	41,357
408,3	42,986
408,7	42,729
409,2	51,3
409,6	52,271
410,1	53,586
410,6	61,9
411	65,843
411,5	71,271
411,9	77,1
412,4	78,643
412,8	87,757
413,3	90,3
413,7	91,071
414,2	93,7
414,7	101,643
415,1	112,386
415,6	120,129
416	122,1
416,5	130,5
416,9	138,643
417,4	147,643
417,8	157,729
418,3	161,014
418,8	168,814
419,2	176,643
419,7	187,214
420,1	196,414
420,6	202,757
421	207,814
421,5	218,529
421,9	225,214
422,4	240,986
422,8	247,5
423,3	255,729
423,8	266,157
424,2	275,7
424,7	286,7
425,1	302,157
425,6	312,443
426	328,614
426,5	346,586
426,9	364,643
427,4	378,929
427,9	388,871
428,3	406,443
428,8	427,7
429,2	447,529
429,7	465,757
430,1	486,3
430,6	510,214
431	533,9
431,5	561,871
431,9	582,443
432,4	608,529
432,8	641,786
433,3	677,643
433,8	709,614
434,2	746,157
434,7	779,043
435,1	817,9
435,6	859,157
436	893,157
436,5	934,357
436,9	974,9
437,4	1025,871
437,8	1072,071
438,3	1118,871
438,8	1172,786
439,2	1228,843
439,7	1284,7
440,1	1348,3
440,6	1406,814
441	1468,986
441,5	1533,357
441,9	1600,643
442,4	1660,929
442,8	1728,043
443,3	1800,129
443,7	1876,386
444,2	1951,871
444,7	2034,443
445,1	2111,957
445,6	2203,957
446	2290,214
446,5	2372,1
446,9	2451,729
447,4	2545,614
447,8	2634,329
448,3	2734,757
448,7	2830,3
449,2	2931,3
449,6	3039,671
450,1	3149,5
450,6	3256,843
451	3366,5
451,5	3472,557
451,9	3586,271
452,4	3703,671
452,8	3819,271
453,3	3942,757
453,7	4064,614
454,2	4196,729
454,6	4324,186
455,1	4451,043
455,5	4574,786
456	4712,843
456,4	4838,186
456,9	4974,929
457,3	5106,214
457,8	5232,871
458,3	5376,614
458,7	5516,329
459,2	5651,643
459,6	5798,414
460,1	5944,186
460,5	6077,3
461	6226,671
461,4	6367,614
461,9	6511,586
462,3	6656,157
462,8	6805,586
463,2	6942,014
463,7	7098,071
464,1	7245,929
464,6	7394,757
465	7544,243
465,5	7693,071
466	7848,586
466,4	7994,386
466,9	8141,357
467,3	8292,814
467,8	8439,243
468,2	8586,157
468,7	8722,814
469,1	8857,986
469,6	9004,9
470	9144,043
470,5	9279,929
470,9	9408,3
471,4	9538,471
471,8	9675,157
472,3	9807,357
472,7	9928,843
473,2	10047,071
473,6	10159,7
474,1	10289,071
474,5	10407,757
475	10519,357
475,4	10628,014
475,9	10737,129
476,4	10855,586
476,8	10973,014
477,3	11070,1
477,7	11169,357
478,2	11268,929
478,6	11355,357
479,1	11449,071
479,5	11536,329
480	11602,014
480,4	11681,357
480,9	11757,243
481,3	11823,929
481,8	11897,843
482,2	11956,157
482,7	12008,729
483,1	12083,814
483,6	12134,414
484	12188,5
484,5	12242,186
484,9	12276,529
485,4	12313,386
485,8	12349,843
486,3	12373,386
486,7	12402,071
487,2	12419,414
487,6	12437,414
488,1	12458,614
488,5	12473,271
489	12482,957
489,4	12493,3
489,9	12490,7
490,4	12488,614
490,8	12483,614
491,3	12481,871
491,7	12476,043
492,2	12456,643
492,6	12429,157
493,1	12410,443
493,5	12384,786
494	12352,9
494,4	12314,957
494,9	12271,214
495,3	12240,757
495,8	12210,043
496,2	12170,014
496,7	12116,614
497,1	12082,443
497,6	12035,3
498	11993,1
498,5	11942,529
498,9	11876,414
499,4	11824,786
499,8	11781,043
500,3	11715,243
500,7	11657,329
501,2	11596,1
501,6	11524,757
502,1	11471,386
502,5	11410,129
503	11342,214
503,4	11274,986
503,9	11201,614
504,3	11135,986
504,8	11063,757
505,2	10988,9
505,7	10902,443
506,1	10822,414
506,6	10736,986
507	10660,814
507,5	10574,471
507,9	10492,843
508,4	10405,529
508,8	10323,214
509,3	10242,186
509,7	10160,9
510,2	10063,414
510,6	9974,729
511,1	9888,586
511,5	9806,443
512	9718,671
512,4	9637,7
512,9	9545,929
513,3	9466,529
513,8	9379,729
514,2	9292,7
514,7	9200,929
515,1	9114,043
515,6	9015,357
516	8921,186
516,5	8833,386
516,9	8739,5
517,4	8648,443
517,8	8561,986
518,3	8469,357
518,7	8378,557
519,2	8293,986
519,6	8202,443
520,1	8111,414
520,5	8027,243
521	7924,843
521,4	7834,5
521,9	7750,7
522,3	7664,3
522,8	7576,443
523,2	7499,557
523,7	7410,614
524,1	7327,443
524,6	7257,7
525	7175,243
525,5	7097,1
525,9	7020,214
526,4	6934,214
526,8	6858,043
527,3	6792,871
527,7	6711,329
528,2	6635,129
528,6	6556,614
529,1	6485,214
529,5	6415,9
530	6342,5
530,4	6270,557
530,9	6197,329
531,3	6128,557
531,8	6056,814
532,2	5985,786
532,6	5916,986
533,1	5843,814
533,5	5768,071
534	5700,586
534,4	5629,671
534,9	5570,271
535,3	5496,271
535,8	5427,957
536,2	5367,414
536,7	5310,243
537,1	5250,814
537,6	5187,043
538	5124,986
538,5	5083,9
538,9	5021,843
539,4	4967,471
539,8	4912,5
540,3	4854,214
540,7	4806,386
541,2	4748,271
541,6	4684,071
542,1	4638,929
542,5	4586,671
543	4532,586
543,4	4479,529
543,9	4428,5
544,3	4390,329
544,8	4332,214
545,2	4280,214
545,7	4240,614
546,1	4201,614
546,5	4159,129
547	4113,271
547,4	4067,129
547,9	4033,243
548,3	3991,1
548,8	3945,271
549,2	3898,557
549,7	3852,414
550,1	3810,986
550,6	3766,614
551	3723,614
551,5	3688,329
551,9	3642,214
552,4	3606,9
552,8	3576,443
553,3	3543,757
553,7	3511,157
554,2	3482,557
554,6	3452,957
555,1	3423,786
555,5	3388,443
555,9	3349,443
556,4	3310,386
556,8	3270,729
557,3	3236,757
557,7	3204,043
558,2	3164,529
558,6	3138,386
559,1	3111,129
559,5	3087,671
560	3064,786
560,4	3033,986
560,9	3002,357
561,3	2982,929
561,8	2950,557
562,2	2928,043
562,7	2900,871
563,1	2875,043
563,6	2847,843
564	2824,586
564,4	2793,986
564,9	2771,014
565,3	2746,157
565,8	2721,414
566,2	2689,129
566,7	2667,129
567,1	2640,671
567,6	2619,957
568	2592,3
568,5	2564,386
568,9	2539,614
569,4	2520,986
569,8	2498,586
570,3	2476,643
570,7	2450,7
571,1	2427,729
571,6	2409,786
572	2393,671
572,5	2375,186
572,9	2355,043
573,4	2335,929
573,8	2322,414
574,3	2310,614
574,7	2291,329
575,2	2265,5
575,6	2244,9
576,1	2228,671
576,5	2211,586
576,9	2189,957
577,4	2166,529
577,8	2144,043
578,3	2129,386
578,7	2112,1
579,2	2094,529
579,6	2072,929
580,1	2052,671
580,5	2039,1
581	2026,443
581,4	2007,871
581,9	1988,929
582,3	1972,529
582,7	1957,786
583,2	1945,814
583,6	1932,757
584,1	1916,014
584,5	1900,986
585	1888,471
585,4	1867,1
585,9	1852,871
586,3	1842,3
586,8	1823,814
587,2	1805,329
587,6	1796,643
588,1	1786,529
588,5	1778,729
589	1770,557
589,4	1751,729
589,9	1741,386
590,3	1734,871
590,8	1721,186
591,2	1705,843
591,7	1697,814
592,1	1683,357
592,5	1676,671
593	1662,586
593,4	1649,157
593,9	1632,9
594,3	1621,729
594,8	1601,529
595,2	1590,186
595,7	1574,471
596,1	1561,929
596,6	1551,129
597	1539,814
597,4	1531,529
597,9	1525,3
598,3	1516,643
598,8	1513,071
599,2	1505,357
599,7	1496,843
600,1	1489,614
600,6	1478,986
601	1469,3
601,4	1463,043
601,9	1456,671
602,3	1444,757
602,8	1432,586
603,2	1417,329
603,7	1404,3
604,1	1392,586
604,6	1377,357
605	1358,957
605,4	1355,929
605,9	1346,386
606,3	1339,386
606,8	1328,529
607,2	1320,671
607,7	1310,157
608,1	1303,757
608,6	1292,071
609	1292,529
609,4	1288,586
609,9	1282,271
610,3	1274,843
610,8	1266,557
611,2	1257,3
611,7	1246,329
612,1	1232,157
612,6	1223,843
613	1218,957
613,4	1208,129
613,9	1202,7
614,3	1191,271
614,8	1187,929
615,2	1175,729
615,7	1168,014
616,1	1159,1
616,6	1152,814
617	1143,386
617,4	1136,671
617,9	1126,614
618,3	1123,957
618,8	1119,071
619,2	1113,614
619,7	1112,071
620,1	1106,386
620,5	1107,443
621	1099,929
621,4	1092,843
621,9	1078,871
622,3	1070,414
622,8	1057,414
623,2	1050,643
623,6	1041,186
624,1	1030,729
624,5	1024,529
625	1025,129
625,4	1018,929
625,9	1013,014
626,3	1004,443
626,8	992,5
627,2	992,643
627,6	979,129
628,1	965,443
628,5	958,443
629	945,271
629,4	937,271
629,9	933,214
630,3	919,071
630,7	916,9
631,2	911,757
631,6	905,014
632,1	904,786
632,5	902,5
633	897,1
633,4	893,871
633,8	887,186
634,3	883,986
634,7	878,386
635,2	870,643
635,6	862,729
636,1	856,929
636,5	844,414
636,9	837,014
637,4	831,671
637,8	821,329
638,3	815,186
638,7	810,329
639,2	800,443
639,6	804,357
640	796,643
640,5	790,557
640,9	788,786
641,4	780,614
641,8	773,157
642,2	770,014
642,7	769,9
643,1	768,386
643,6	765,5
644	760,843
644,5	762,329
644,9	759,414
645,3	757,471
645,8	743,186
646,2	743,586
646,7	735,214
647,1	729,271
647,6	725,814
648	720,157
648,4	711,414
648,9	708,586
649,3	699,414
649,8	698,243
650,2	695,471
650,6	690,243
651,1	683,129
651,5	685,014
652	680,214
652,4	674,9
652,9	669,443
653,3	661,586
653,7	655,529
654,2	651,643
654,6	641,329
655,1	640,443
655,5	641,271
655,9	638,614
656,4	633,5
656,8	625,929
657,3	627,043
657,7	629,557
658,2	620,957
658,6	609,757
659	605,014
659,5	602,357
659,9	601,386
660,4	592,414
660,8	579,843
661,2	578,186
661,7	578,814
662,1	569,671
662,6	568,329
663	564,757
663,4	561,529
663,9	562,043
664,3	557,814
664,8	547,414
665,2	544,529
665,6	537,843
666,1	534,843
666,5	531,957
667	528,3
667,4	525,814
667,9	526,271
668,3	522,243
668,7	517,7
669,2	514,357
669,6	508,329
670,1	505,957
670,5	500,214
670,9	495,529
671,4	493,186
671,8	494,3
672,3	491,414
672,7	491,843
673,1	484,5
673,6	474,586
674	474,271
674,5	472,214
674,9	460,757
675,3	454,9
675,8	451,871
676,2	447,9
676,7	450,557
677,1	444,443
677,5	438,814
678	441,814
678,4	439,214
678,9	434,043
679,3	433,729
679,7	431,5
680,2	426,7
680,6	426,757
681,1	420,929
681,5	418,957
681,9	418,871
682,4	416,871
682,8	413,214
683,3	414,843
683,7	411,214
684,1	411,357
684,6	408,671
685	403,386
685,5	399,3
685,9	393,414
686,3	387,386
686,8	384,7
687,2	380,1
687,7	374,071
688,1	369,786
688,5	365,957
689	367,157
689,4	365,329
689,9	360,586
690,3	357,329
690,7	360,986
691,2	362,471
691,6	361,1
692	362,9
692,5	364,529
692,9	364,043
693,4	362,7
693,8	356,471
694,2	350,214
694,7	345,043
695,1	336,471
695,6	334,929
696	331,671
696,4	327,557
696,9	324,757
697,3	323,814
697,8	323,386
698,2	317,786
698,6	308,186
699,1	303,471
699,5	308,586
699,9	308,186
700,4	302,386
700,8	300,1
701,3	303,471
701,7	304,1
702,1	304,986
702,6	298,414
703	296,471
703,5	296,729
703,9	291,214
704,3	290,243
704,8	284,729
705,2	281,557
705,6	276,471
706,1	273,729
706,5	269,843
707	274,643
707,4	272,157
707,8	269,014
708,3	268,557
708,7	274,271
709,2	272,043
709,6	271,129
710	270,757
710,5	267,243
710,9	269,586
711,3	266,929
711,8	262,386
712,2	260,929
712,7	259,7
713,1	255,186
713,5	254,443
714	252,5
714,4	247,214
714,8	242,643
715,3	238,757
715,7	238,586
716,2	233,043
716,6	234,271
717	228,729
717,5	227,814
717,9	228,414
718,3	224,414
718,8	219,843
719,2	219,529
719,7	213,729
720,1	218,214
720,5	221,814
721	215,9
721,4	217,986
721,8	220,043
722,3	217,414
722,7	223,471
723,2	218,586
723,6	208,3
724	208,071
724,5	201,386
724,9	198,3
725,3	201,3
725,8	194,586
726,2	193,243
726,7	196,9
727,1	195,7
727,5	201,986
728	197,957
728,4	195,529
728,8	188,786
729,3	183,843
729,7	180,929
730,1	178,129
730,6	174,214
731	172,3
731,5	166,414
731,9	167,129
732,3	169,557
732,8	172,614
733,2	173,443
733,6	170,043
734,1	172,271
734,5	172,157
734,9	178,757
735,4	178,814
735,8	170,957
736,3	175,1
736,7	174,043
737,1	173,786
737,6	174,614
738	166,9
738,4	164,043
738,9	164,7
739,3	158,386
739,7	159,357
740,2	153,5
740,6	156,814
741,1	158,814
741,5	152,5
741,9	152,271
742,4	156,271
742,8	151,586
743,2	156,5
743,7	148,871
744,1	143,014
744,5	147,386
745	144,929
745,4	140,414
745,8	143,786
746,3	138,557
746,7	138,1
747,2	142,9
747,6	145,757
748	149,1
748,5	149,557
748,9	143,529
749,3	142,643
749,8	145,071
750,2	140,986
750,6	134,3
751,1	134,7
751,5	131,357
751,9	136,614
752,4	140,614
752,8	140,843
753,3	138,357
753,7	143,871
754,1	139,443
754,6	136,814
755	131,7
755,4	125,071
755,9	124,557
756,3	120,329
756,7	115,614
757,2	118,643
757,6	118,529
758	120,5
758,5	120,329
758,9	115,471
759,3	122,243
759,8	122,386
760,2	120,529
760,6	122,843
761,1	119,986
761,5	120,7
761,9	121,586
762,4	114,186
762,8	114,043
763,3	110,414
763,7	110,271
764,1	111,7
764,6	112,043
765	110,614
765,4	115,157
765,9	115,529
766,3	121,214
766,7	118,3
767,2	113,957
767,6	114,5
768	112,529
768,5	111,757
768,9	112,957
769,3	106,014
769,8	101,243
770,2	103,214
770,6	99,043
771,1	100,786
771,5	97,586
771,9	93,586
772,4	95,929
772,8	98,014
773,2	98,129
773,7	99,071
774,1	98,586
774,5	95,5
775	96,043
775,4	97,557
775,8	95,186
776,3	96,986
776,7	95,843
777,1	93,3
777,6	95,586
778	94,157
778,4	88,757
778,9	93,271
779,3	88,386
779,7	87,929
780,2	89,471
780,6	88,071
781	89,1
781,5	89,986
781,9	85,957
782,3	82,129
782,8	81,9
783,2	76,5
783,6	80,043
784,1	78,014
784,5	72,671
784,9	74,129
785,4	82,643
785,8	83,814
786,2	91,443
786,7	89,5
787,1	87,186
787,5	90,729
788	88,3
788,4	85,214
788,8	82,5
789,3	75,157
789,7	76,386
790,1	77,757
790,6	78,729
791	74,729
791,4	74,786
791,9	71,814
792,3	73,557
792,7	73,614
793,2	68,557
793,6	67,529
794	73,643
794,5	65,414
794,9	69,443
795,3	68,929
795,8	65,271
796,2	67,557
796,6	66,214
797,1	59,471
797,5	63,614
797,9	62,786
798,4	60,586
798,8	63,014
799,2	63,871
799,7	66,929
800,1	70,071
800,5	69,014
801	69,386
801,4	66,643
801,8	63,271
802,2	61,729
802,7	54,986
803,1	59,329
803,5	62,414
804	59,186
804,4	61,614
804,8	62,9
805,3	64,671
805,7	70,529
806,1	62,443
806,6	59,643
807	60,614
807,4	62,129
807,9	53,843
808,3	54,814
808,7	51,586
809,2	57,443
809,6	62,043
810	62,986
810,4	63,271
810,9	68,443
811,3	63,7
811,7	64,471
812,2	67,014
812,6	59,929
813	58,157
813,5	56,614
813,9	57,986
814,3	60,929
814,8	56,9
815,2	49,7
815,6	51,557
816,1	56,814
816,5	54,443
816,9	52,586
817,3	52,471
817,8	57,586
818,2	61,014
818,6	56,929
819,1	47,414
819,5	47,1
819,9	44,9
820,4	42,586
820,8	35,271
821,2	28,386
821,7	33,443
822,1	40,129
822,5	47,529
822,9	49,071
823,4	45,471
823,8	53,671
824,2	55,329
824,7	49,871
825,1	40,186
825,5	29,929
826	26,271
826,4	28,671
826,8	23,729
827,3	28,443
827,7	30,043
828,1	35,071
828,5	39,729
829	37,129
829,4	39,614
829,8	35,186
830,3	32,929
830,7	30,729
831,1	32,186
831,6	29,357
832	30,014
832,4	26,929
832,8	32,071
833,3	28,3
833,7	27,814
834,1	27,186
834,6	28,5
835	32,929
835,4	31,386
835,8	27,929
836,3	29,157
836,7	34,414
837,1	34,786
837,6	36,443
838	36,1
838,4	31,9
838,9	34,814
839,3	33,386
839,7	32,671
840,1	27,786
840,6	22,586
841	22,3
841,4	29,586
841,9	29,586
842,3	29,871
842,7	23,129
843,1	26,7
843,6	32,9
844	32,014
844,4	33,271
844,9	31,014
845,3	32,557
845,7	37,729
846,2	33,729
846,6	29,214
847	29,814
847,4	28,786
847,9	30,071
848,3	28,671
848,7	29,329
849,2	33,214
849,6	31,757
850	34,671
850,4	29,843
850,9	29,471
851,3	31,243
851,7	30,786
852,2	24,071
852,6	26,843
853	24,643
853,4	26,986
853,9	25,786
854,3	24,986
854,7	25,814
855,2	27,443
855,6	26,443
856	25,557
856,4	21,643
856,9	16,814
857,3	15,957
857,7	16,957
858,2	21,1
858,6	18,757
859	15,986
859,4	15,443
859,9	20,1
860,3	19,843
860,7	16,9
861,1	16,529
861,6	14,757
862	16,786
862,4	18,3
862,9	20,3
863,3	17,271
863,7	15,957
864,1	15,1
864,6	16,243
865	18,014
865,4	15,929
865,9	16,129
866,3	16,529
866,7	12,671
867,1	10,1
867,6	11,671
868	9,329
868,4	10,529
868,8	6,386
869,3	8,157
869,7	16,5
870,1	12,243
870,6	13,414
871	14,214
871,4	19,043
871,8	18,929
872,3	21,186
872,7	16,7
873,1	21,643
873,5	19,643
874	13,814
874,4	12,814
874,8	12,129
875,3	12,014
875,7	8,929
876,1	10,014
876,5	9,471
877	7,214
877,4	2,729
877,8	3,443
878,2	1,586
878,7	5,529
879,1	5,986
879,5	8,586
879,9	15,614
880,4	17,871
880,8	22,7
881,2	21,214
881,7	17,871
882,1	17,786
882,5	16,986
882,9	15,871
883,4	12,814
883,8	8,843
884,2	7,729
884,6	9,586
885,1	10,643
885,5	11,071
885,9	6,757
886,3	12,214
886,8	10,557
887,2	9,729
887,6	7,1
888	2,814
888,5	3,014
888,9	7,7
889,3	2,129
889,8	3,957
890,2	5,957
890,6	4,3
891	6,957
891,5	5,357
891,9	5,986
892,3	7,9
892,7	6,1
893,2	7,071
893,6	9,643
894	8,814
894,4	5,214
894,9	2,414
895,3	-0,986
895,7	1,329
896,1	-2,329
896,6	-0,643
897	3,271
897,4	12,357
897,8	18,529
898,3	26,9
898,7	24,843
899,1	26,014
899,5	23,129
900	17,414
900,4	6,986
900,8	0,014
901,2	-3,329
901,7	-4,443
902,1	-1,757
902,5	2,357
902,9	4,929
903,4	10,071
903,8	15,643
904,2	10,957
904,6	13,043
905,1	12,414
905,5	10,243
905,9	10,3
906,3	10,529
906,8	11,129
907,2	14,643
907,6	14,786
908	13,7
908,5	13,014
908,9	12,271
909,3	9,757
909,7	4,529
910,2	4,929
910,6	8,271
911	6,586
911,4	5,357
911,9	1,357
912,3	2,243
912,7	5,271
913,1	4,043
913,6	-1,557
914	1,614
914,4	0,557
914,8	3,957
915,3	-0,757
915,7	0,757
916,1	0,386
916,5	5,129
916,9	2,3
917,4	4,786
917,8	7,014
918,2	9,986
918,6	5,357
919,1	7,843
919,5	8,929
919,9	12,157
920,3	10,3
920,8	3,929
921,2	5,214
921,6	7,271
922	5,071
922,5	-0,3
922,9	-1,1
923,3	0,186
923,7	4,557
924,2	1,757
924,6	1,214
925	1,929
925,4	-0,614
925,8	-1,471
926,3	-1,929
926,7	-3,529
927,1	-1,357
927,5	-0,129
928	-4,614
928,4	-5,557
928,8	-1,7
929,2	-3,671
929,7	-2,643
930,1	0,957
930,5	-2,671
930,9	3,186
931,3	6,357
931,8	-1,986
932,2	-0,671
932,6	-1,643
933	-7,414
933,5	-2,786
933,9	-2,729
934,3	-2,357
934,7	-0,157
935,2	1,3
935,6	-1,186
936	-1,3
936,4	-4,014
936,8	-5,043
937,3	-8,557
937,7	-6,414
938,1	-6,786
938,5	-8,329
939	-4,871
939,4	-3,1
939,8	-3,014
940,2	-1,471
940,6	0,757
941,1	2,643
941,5	10,186
941,9	6,129
942,3	4,043
942,8	5,614
943,2	10,5
943,6	4,986
944	1,471
944,4	-0,443
944,9	4,986
945,3	2,357
945,7	-5,814
946,1	-6,986
946,6	-7,529
947	-4,043
947,4	-0,557
947,8	-5,329
948,2	-2,757
948,7	1,843
949,1	-0,071
949,5	4,386
949,9	0,214
950,3	-4,243
950,8	-4,5
951,2	-8,357
951,6	-9,529
952	-5,414
952,5	-7,443
952,9	-1,557
953,3	0,614
953,7	3,071
954,1	8,986
954,6	13,014
955	10,443
955,4	10,214
955,8	7,614
956,2	4,014
956,7	4,671
957,1	-2,043
957,5	-2,814
957,9	-2,243
958,3	0,5
958,8	0,643
959,2	3,9
959,6	5,757
960	8,786
960,5	9,357
960,9	7,3
961,3	0,957
961,7	-4,214
962,1	-6,529
962,6	-7,271
963	-7,414
963,4	-14,443
963,8	-16,129
964,2	-10,671
964,7	-7,386
965,1	-5,271
965,5	-7,671
965,9	-6,843
966,3	-3,414
966,8	-1,7
967,2	-1,7
967,6	-3,214
968	-7,271
968,4	-5,814
968,9	-3,214
969,3	0,186
969,7	-5,357
970,1	-3,271
970,5	-5,871
971	2,929
971,4	3,443
971,8	4,671
972,2	7,014
972,6	12,157
973,1	9,071
973,5	16,643
973,9	12,843
974,3	11,357
974,7	13,1
975,2	8,671
975,6	9,5
976	12,9
976,4	8,986
976,8	8,014
977,3	5,186
977,7	1,986
978,1	-1,957
978,5	-5,871
978,9	-9,957
979,4	-11,471
979,8	-13,014
980,2	-8,643
980,6	-15,643
981	-8,5
981,5	-2,757
981,9	-5,271
982,3	-1,186
982,7	-1,414
983,1	-4,1
983,6	1,643
984	-2,157
984,4	-6,043
984,8	-3,9
985,2	-1,814
985,6	-2,843
986,1	-0,786
986,5	1,614
986,9	-0,986
987,3	1,986
987,7	6,214
988,2	-2,557
988,6	2,129
989	-2,5
989,4	-7,929
989,8	-4,814
990,3	-7,071
990,7	-7,871
991,1	-4,329
991,5	-3,129
991,9	1,186
992,3	3,671
992,8	3,786
993,2	2,957
993,6	0,814
994	5,871
994,4	2,643
994,9	3,871
995,3	-0,071
995,7	-1,214
996,1	2,271
996,5	0,443
996,9	-9,129
997,4	-7,329
997,8	-11,214
998,2	-10,214
998,6	-14,9
999	-18,843
999,5	-18,214
999,9	-13,214
1000,3	-20,614
1000,7	-18,129
1001,1	-17,414
1001,5	-10,986
1002	-6,529
1002,4	-3,3
1002,8	-4,157
1003,2	0,529
1003,6	0,329
1004	2,757
1004,5	-0,386
1004,9	-2,071
1005,3	-7,786
1005,7	-5,729
1006,1	-7,614
1006,6	-10,471
1007	-8,786
1007,4	-6,7
1007,8	-8,929
1008,2	-6,757
1008,6	-8,157
1009,1	-6,129
1009,5	-5,071
1009,9	-5,357
1010,3	-4,271
1010,7	-3,614
1011,1	-2,757
1011,6	-0,386
1012	3,014
1012,4	2,757
1012,8	-1,5
1013,2	1,871
1013,6	5,129
1014,1	4,929
1014,5	4,443
1014,9	2,786
1015,3	3,471
1015,7	5,186
1016,1	-1,529
1016,6	-5,529
1017	-4,129
1017,4	-1,357
1017,8	-1,5
1018,2	-0,157
1018,6	-0,929
1019,1	2,157
1019,5	3,9
1019,9	0,529
1020,3	-1,243
1020,7	-1,9
1021,1	-2,386
1021,6	-3,929
1022	-2,814
1022,4	-6,443
1022,8	-3,586
1023,2	-4,643
1023,6	-2,329
1024,1	7,386
1024,5	12,614
1024,9	7,986
1025,3	13,186
1025,7	10,329
1026,1	12,043
1026,6	8,871
1027	2,3
1027,4	-0,5
1027,8	1,529
1028,2	-4,357
1028,6	2,271
1029	1,014
1029,5	3,729
1029,9	-0,414
1030,3	-0,014
1030,7	0,757
1031,1	4,414
1031,5	-1,814
1032	-0,9
1032,4	-1,729
1032,8	2,243
1033,2	1,671
1033,6	0,5
1034	3,614
1034,4	5,329
1034,9	1,329
1035,3	-0,9
1035,7	1,043
1036,1	-0,071
1036,5	-3,614
1036,9	-7,729
1037,4	-5,871
1037,8	-6,786
1038,2	-7,929
1038,6	-11,729
1039	-4,014
1039,4	4,986
1039,8	6,043
1040,3	4,157
1040,7	8,243
1041,1	10,329
1041,5	12,443
1041,9	6,5
1042,3	2,643
1042,7	4,643
1043,2	3,786
1043,6	-3,9
1044	-5,271
1044,4	-9,586
1044,8	-9,643
1045,2	-10,243
1045,6	-9,157
1046,1	-12,243
1046,5	-6,5
1046,9	-8,271
1047,3	-4,7
1047,7	-9,786
1048,1	-10,129
1048,5	-13,671
1049	-4,271
1049,4	-0,843
1049,8	-2,586
1050,2	-2,3
1050,6	4,186
1051	7,557
1051,4	5,871
1051,9	0,557
1052,3	3,471
1052,7	10,386
1053,1	8,329
1053,5	10,557
1053,9	8,243
1054,3	11,986
1054,8	14,9
1055,2	11,471
1055,6	6,671
1056	7,5
1056,4	2,329
1056,8	-0,186
1057,2	-5,586
1057,6	-10,1
1058,1	-14,3
1058,5	-14,786
1058,9	-14,329
1059,3	-12,271
1059,7	-11,9
1060,1	-5,843
1060,5	-1,757
1061	2,243
1061,4	0,557
1061,8	1,129
1062,2	0,7
1062,6	1,643
1063	2,129
1063,4	1,529
1063,8	-1,043
1064,3	0,957
1064,7	-0,786
1065,1	0,471
1065,5	-2,129
1065,9	-6,043
1066,3	-10,7
1066,7	-13,014
1067,1	-12,243
1067,6	-11,043
1068	-18,471
1068,4	-12,471
1068,8	-9,643
1069,2	-3,043
1069,6	-2,757
1070	0,929
1070,4	0,3
1070,9	2,843
1071,3	0,957
1071,7	-1,871
1072,1	-4,271
1072,5	-4,786
1072,9	-10,671
1073,3	-8,014
1073,7	-3,414
1074,2	-4,843
1074,6	-4,214
1075	-4,414
1075,4	-5,1
1075,8	0,043
1076,2	-1,357
1076,6	-1,671
1077	-1,5
1077,5	2,471
1077,9	-0,957
1078,3	-0,414
1078,7	-3,443
1079,1	-6,614
1079,5	-7,929
1079,9	-8,014
1080,3	-10,386
1080,7	-10,157
1081,2	-4,129
1081,6	-3,443
1082	-1,957
1082,4	0,443
1082,8	4,329
1083,2	4,1
1083,6	8,157
1084	6,3
1084,5	7,3
1084,9	6,786
1085,3	2,643
1085,7	-2,7
1086,1	-1,929
1086,5	-0,7
1086,9	0,671
1087,3	-1,729
1087,7	-1,014
1088,2	-0,614
1088,6	-1,043
1089	0,471
1089,4	-3,014
1089,8	-1,614
1090,2	0,357
1090,6	-0,957
1091	4,671
1091,4	9,557
1091,9	7,786
1092,3	7,671
1092,7	1,871
1093,1	5,871
1093,5	6,414
1093,9	0,729
1094,3	0,843
1094,7	-4,586
1095,1	-3,1
1095,5	2,071
1096	-6,843
1096,4	-8,957
1096,8	-6,9
1097,2	-9,157
1097,6	-0,3
1098	-1,014
1098,4	-2,757
1098,8	2,243
1099,2	10,929
1099,6	11,757
1100,1	8,871
1100,5	5,1
1100,9	4,1
1101,3	2,786
1101,7	2,729
1102,1	-3,957
1102,5	-1,871
1102,9	5,214
1103,3	7,643
1103,7	10,929
1104,2	11,157
1104,6	9,843
1105	6,786
1105,4	2,386
1105,8	-2,186
1106,2	-4,671
1106,6	-6,814
1107	-6,7
1107,4	-6,8
1107,8	-2,78
1108,3	-0,3
