Data from Subt2_320.txt Node
Date: Sat Aug 26 19:17:03 MSK 2023
User: vat
Spectrometer: MAYP114033
Trigger mode: 0
Integration Time (sec): 1,000000E0
Scans to average: 5
Electric dark correction enabled: true
Nonlinearity correction enabled: false
Boxcar width: 3
XAxis mode: Wavelengths
Number of Pixels in Spectrum: 2068
>>>>>Begin Spectral Data<<<<<
199,4	-0,9
199,9	-0,76
200,4	-2,733
200,8	-0,229
201,3	0,229
201,8	2,229
202,2	3,086
202,7	7,429
203,2	7,143
203,6	10,714
204,1	7,486
204,6	8,486
205	7,657
205,5	6,486
206	4,829
206,4	7,943
206,9	6,457
207,4	10,314
207,8	10,943
208,3	8,886
208,8	9,286
209,2	12,2
209,7	12,771
210,2	14,2
210,6	16,543
211,1	17
211,5	19,286
212	22,429
212,5	18,629
212,9	16,4
213,4	19,086
213,9	13,6
214,3	10,943
214,8	12,114
215,3	7,429
215,7	8,629
216,2	10,486
216,7	10,314
217,1	6,257
217,6	9,657
218,1	8,314
218,5	11,629
219	5,971
219,5	6,457
219,9	-1,486
220,4	10,971
220,9	10,943
221,3	11,686
221,8	12,743
222,3	17,314
222,7	16,771
223,2	23,143
223,6	15,829
224,1	12,457
224,6	14,086
225	12,371
225,5	10,486
226	9,029
226,4	12,343
226,9	15,2
227,4	15,2
227,8	9,057
228,3	7,829
228,8	9,629
229,2	7,4
229,7	2,457
230,2	0,571
230,6	4,886
231,1	11,857
231,5	13,914
232	16,257
232,5	16,571
232,9	19,114
233,4	19,743
233,9	16,257
234,3	14,171
234,8	13,971
235,3	9,429
235,7	14
236,2	10,257
236,7	10,486
237,1	11,429
237,6	7,171
238,1	4,657
238,5	0,6
239	0,057
239,4	6,2
239,9	2,8
240,4	6,086
240,8	12,057
241,3	7,143
241,8	9,857
242,2	9,229
242,7	0,943
243,2	2,971
243,6	-3,286
244,1	-3,314
244,6	5,086
245	6,857
245,5	7,486
245,9	10,257
246,4	10,886
246,9	12,8
247,3	12,429
247,8	9,6
248,3	9,6
248,7	6,829
249,2	9,6
249,7	9,857
250,1	10,829
250,6	7,743
251	13,314
251,5	14,143
252	15,029
252,4	15,514
252,9	14,086
253,4	10,2
253,8	8,543
254,3	5,229
254,8	7,686
255,2	4,4
255,7	-0,943
256,1	0,571
256,6	6,343
257,1	10,6
257,5	4,886
258	1,857
258,5	2,486
258,9	4,771
259,4	2,429
259,9	-1,4
260,3	-5,8
260,8	0,343
261,2	0,057
261,7	4,286
262,2	2,457
262,6	3,143
263,1	7,657
263,6	15,571
264	15,714
264,5	19,657
264,9	17,171
265,4	21,2
265,9	20,314
266,3	21,2
266,8	15,714
267,3	16,057
267,7	14,229
268,2	15
268,7	14,943
269,1	16,571
269,6	9,4
270	14,829
270,5	11,971
271	10,543
271,4	10,971
271,9	2,857
272,4	3,2
272,8	5,571
273,3	-0,6
273,7	0,886
274,2	1,343
274,7	0,257
275,1	7,086
275,6	6,686
276,1	9,429
276,5	13,114
277	11,8
277,4	12,943
277,9	14,429
278,4	14,143
278,8	17,029
279,3	16,229
279,8	16,371
280,2	19,714
280,7	21,514
281,1	17,114
281,6	15,286
282,1	15,286
282,5	15,429
283	12,429
283,4	9,257
283,9	9,143
284,4	17,971
284,8	20,086
285,3	18,629
285,8	19,514
286,2	22,343
286,7	22,086
287,1	19,171
287,6	11,886
288,1	8,829
288,5	8,571
289	4,629
289,5	4,029
289,9	3,229
290,4	6,171
290,8	12,571
291,3	18,4
291,8	20,829
292,2	21,029
292,7	23,943
293,1	22,943
293,6	19,629
294,1	18,8
294,5	14,886
295	9,8
295,5	12,743
295,9	9,371
296,4	8,2
296,8	7,714
297,3	5,771
297,8	6,2
298,2	5,486
298,7	5,714
299,1	3,886
299,6	3,286
300,1	3,257
300,5	-0,429
301	-0,657
301,5	4,743
301,9	3,286
302,4	4,2
302,8	8,629
303,3	11,8
303,8	12,257
304,2	12,943
304,7	9,657
305,1	8,143
305,6	10,4
306,1	15,657
306,5	14,714
307	16,543
307,4	19,286
307,9	19,171
308,4	17,8
308,8	10,371
309,3	5,743
309,8	5,971
310,2	8,171
310,7	2,486
311,1	5,314
311,6	8,143
312,1	12,571
312,5	13,571
313	14,857
313,4	10,771
313,9	13,257
314,4	8,629
314,8	7,486
315,3	8,8
315,7	4,257
316,2	-1,086
316,7	-3,229
317,1	-2,629
317,6	2,6
318	5,086
318,5	4,514
319	6,571
319,4	10,857
319,9	20,543
320,3	21,314
320,8	15,429
321,3	16,743
321,7	20,143
322,2	18,943
322,6	20,057
323,1	14,486
323,6	14,686
324	15,057
324,5	13,114
324,9	8,4
325,4	10,971
325,9	13,829
326,3	13,971
326,8	13,657
327,2	18,171
327,7	16,8
328,2	20,057
328,6	19,4
329,1	13,771
329,5	13,629
330	10,743
330,5	11,171
330,9	9,857
331,4	11,429
331,8	10,6
332,3	13,171
332,8	11,4
333,2	14,457
333,7	10,829
334,1	15,486
334,6	9,914
335,1	5,943
335,5	5,943
336	7,486
336,4	7
336,9	16,571
337,4	19,343
337,8	20,6
338,3	27,6
338,7	28,914
339,2	26,943
339,7	31,171
340,1	22,714
340,6	20,457
341	20,143
341,5	21,029
342	18,686
342,4	19,086
342,9	11,657
343,3	12,229
343,8	9,886
344,2	8,4
344,7	7,629
345,2	6,343
345,6	10,029
346,1	14,914
346,5	13,314
347	10,657
347,5	11,057
347,9	14,714
348,4	15,143
348,8	11,514
349,3	9,886
349,8	14,771
350,2	22,8
350,7	24,057
351,1	17,686
351,6	20,114
352	26,514
352,5	34,857
353	41,743
353,4	43,286
353,9	53,829
354,3	65,486
354,8	75,057
355,3	94,4
355,7	108,514
356,2	129,171
356,6	154,486
357,1	185,943
357,5	221,086
358	261,429
358,5	293,943
358,9	336,857
359,4	384,8
359,8	438,914
360,3	501,086
360,8	567,6
361,2	648,343
361,7	741,457
362,1	844,886
362,6	953,743
363	1068,114
363,5	1190,6
364	1327,686
364,4	1455,629
364,9	1587,343
365,3	1715,2
365,8	1839,057
366,3	1958,743
366,7	2060,2
367,2	2150,543
367,6	2227,829
368,1	2290,714
368,5	2331,657
369	2349,086
369,5	2350,886
369,9	2339,029
370,4	2301,6
370,8	2249,971
371,3	2181,829
371,7	2106,029
372,2	2015,8
372,7	1919,257
373,1	1815,971
373,6	1712,429
374	1610,486
374,5	1507,457
374,9	1400,457
375,4	1305,543
375,9	1210,229
376,3	1118,6
376,8	1026,857
377,2	945
377,7	862,543
378,2	792,2
378,6	725,543
379,1	668,8
379,5	615,971
380	571,086
380,4	521,2
380,9	479,514
381,4	442,114
381,8	411,771
382,3	383,486
382,7	357,686
383,2	332,029
383,6	313
384,1	298,914
384,6	283,914
385	265
385,5	241
385,9	224
386,4	209,514
386,8	199,771
387,3	182,486
387,7	173,486
388,2	163,771
388,7	157,714
389,1	145,886
389,6	137,229
390	124,686
390,5	125,943
390,9	114,743
391,4	104,771
391,9	98,4
392,3	96,943
392,8	89,057
393,2	88,4
393,7	77,257
394,1	70,971
394,6	70,629
395,1	69
395,5	63,829
396	67,743
396,4	60,057
396,9	58,886
397,3	63,143
397,8	63,571
398,2	63,229
398,7	61,629
399,2	58,4
399,6	60,429
400,1	56,286
400,5	49,257
401	44,143
401,4	37,429
401,9	39,314
402,4	37,629
402,8	36
403,3	42,229
403,7	41,343
404,2	40,8
404,6	46,6
405,1	44,371
405,5	42,086
406	44,257
406,5	37,543
406,9	42,286
407,4	43,629
407,8	45,543
408,3	44,029
408,7	44,714
409,2	46,057
409,6	49,314
410,1	46,771
410,6	52,143
411	52,686
411,5	57,286
411,9	60,943
412,4	62,429
412,8	66,8
413,3	73,629
413,7	72,8
414,2	70,543
414,7	75,229
415,1	82,571
415,6	87,114
416	85,4
416,5	79,714
416,9	78,257
417,4	83,486
417,8	86,857
418,3	86,229
418,8	86,257
419,2	89,743
419,7	96,714
420,1	97,8
420,6	99,114
421	93,2
421,5	95,257
421,9	93,657
422,4	92,371
422,8	90,6
423,3	95,371
423,8	87,714
424,2	87,029
424,7	86,286
425,1	88,686
425,6	92,857
426	91,971
426,5	89,314
426,9	97,714
427,4	99,571
427,9	90,457
428,3	89,143
428,8	88,286
429,2	89,771
429,7	91,2
430,1	87,114
430,6	86,629
431	90,714
431,5	92,2
431,9	86,229
432,4	85,771
432,8	87,886
433,3	87,8
433,8	84,314
434,2	87,629
434,7	86,686
435,1	89,657
435,6	91,743
436	92,4
436,5	96,314
436,9	100,429
437,4	97,829
437,8	98,571
438,3	102,4
438,8	103,457
439,2	103,829
439,7	106,314
440,1	113,829
440,6	121,343
441	125,086
441,5	131,229
441,9	138,343
442,4	140,457
442,8	143,829
443,3	146,657
443,7	153,229
444,2	160,229
444,7	166,286
445,1	170,057
445,6	177,714
446	186,829
446,5	188,371
446,9	190,286
447,4	195,257
447,8	199,971
448,3	208,571
448,7	219,114
449,2	228,114
449,6	241,857
450,1	247,857
450,6	262,4
451	269,971
451,5	280,086
451,9	294,229
452,4	305,2
452,8	312,4
453,3	330,057
453,7	331,429
454,2	342,057
454,6	349,143
455,1	352,514
455,5	361,086
456	379,743
456,4	382
456,9	399,4
457,3	411,4
457,8	421,457
458,3	434,286
458,7	444,743
459,2	454,314
459,6	472,314
460,1	486,486
460,5	499,029
461	518,371
461,4	532,029
461,9	546,686
462,3	564,029
462,8	581,743
463,2	594,429
463,7	615,714
464,1	632,171
464,6	654,171
465	675,743
465,5	692,457
466	710,771
466,4	725,971
466,9	746,657
467,3	763,2
467,8	779
468,2	794,8
468,7	813,943
469,1	834,057
469,6	858,714
470	875,6
470,5	895,829
470,9	914
471,4	933,714
471,8	950,457
472,3	970,371
472,7	987,8
473,2	1003,114
473,6	1019,257
474,1	1040,257
474,5	1057,2
475	1074,343
475,4	1086,686
475,9	1105,257
476,4	1123,571
476,8	1148,229
477,3	1162,457
477,7	1183,686
478,2	1205,429
478,6	1223,457
479,1	1239,371
479,5	1259,771
480	1274,886
480,4	1291,714
480,9	1305,171
481,3	1313
481,8	1331,171
482,2	1341,571
482,7	1351,571
483,1	1367,857
483,6	1383,543
484	1398,429
484,5	1415,114
484,9	1426,6
485,4	1445,114
485,8	1462,229
486,3	1473,2
486,7	1484,971
487,2	1491,229
487,6	1501,829
488,1	1511,486
488,5	1521,743
489	1526,6
489,4	1535,429
489,9	1544,857
490,4	1559,514
490,8	1568
491,3	1577,829
491,7	1581,086
492,2	1588,4
492,6	1593,8
493,1	1601,171
493,5	1598,629
494	1601,886
494,4	1604,314
494,9	1606,657
495,3	1620,143
495,8	1623,4
496,2	1625,029
496,7	1629,171
497,1	1634,771
497,6	1642,657
498	1655,543
498,5	1652,8
498,9	1651,743
499,4	1653,771
499,8	1668,343
500,3	1671,029
500,7	1669,8
501,2	1664,543
501,6	1660,657
502,1	1664,029
502,5	1670,714
503	1667,914
503,4	1669,657
503,9	1668,8
504,3	1673,629
504,8	1680,257
505,2	1681,629
505,7	1674,971
506,1	1675,2
506,6	1672,029
507	1675,343
507,5	1674,371
507,9	1668,371
508,4	1666,057
508,8	1669,914
509,3	1667,314
509,7	1670,086
510,2	1670,743
510,6	1666,114
511,1	1670,514
511,5	1674,114
512	1667,314
512,4	1667,229
512,9	1663,686
513,3	1661,6
513,8	1658,686
514,2	1652,714
514,7	1649,2
515,1	1652,914
515,6	1649,629
516	1645,4
516,5	1645,571
516,9	1648,886
517,4	1651,371
517,8	1651,429
518,3	1649,743
518,7	1646,057
519,2	1648,4
519,6	1647,8
520,1	1647,314
520,5	1646,971
521	1645,4
521,4	1644,486
521,9	1651,771
522,3	1656,571
522,8	1654,771
523,2	1662,629
523,7	1661,943
524,1	1662,771
524,6	1661,8
525	1658,143
525,5	1655,086
525,9	1658,4
526,4	1654,914
526,8	1661,371
527,3	1664,543
527,7	1665,857
528,2	1669,486
528,6	1667,029
529,1	1669,371
529,5	1670,629
530	1666,2
530,4	1661,457
530,9	1666,8
531,3	1665,171
531,8	1673,171
532,2	1673,657
532,6	1671,686
533,1	1674,457
533,5	1684,371
534	1686,486
534,4	1692,171
534,9	1692,257
535,3	1692,8
535,8	1695,771
536,2	1701,857
536,7	1701,886
537,1	1701,286
537,6	1700,6
538	1701,943
538,5	1706,286
538,9	1704,057
539,4	1706,943
539,8	1711,686
540,3	1716,629
540,7	1719,429
541,2	1721,886
541,6	1722,457
542,1	1727,371
542,5	1728,314
543	1723
543,4	1724,457
543,9	1729,914
544,3	1733,629
544,8	1733,6
545,2	1746,257
545,7	1753,629
546,1	1766,914
546,5	1771
547	1773,114
547,4	1772,514
547,9	1777,886
548,3	1775,714
548,8	1774,686
549,2	1767,4
549,7	1773,314
550,1	1779,629
550,6	1786,429
551	1790,4
551,5	1789,886
551,9	1787,143
552,4	1795,943
552,8	1796,029
553,3	1789,657
553,7	1789,486
554,2	1793,8
554,6	1797,857
555,1	1805,543
555,5	1808,657
555,9	1811,143
556,4	1819,057
556,8	1822,6
557,3	1822,114
557,7	1825,629
558,2	1825,429
558,6	1827,229
559,1	1826,886
559,5	1824,914
560	1828,171
560,4	1829,457
560,9	1828,457
561,3	1831,314
561,8	1831,429
562,2	1839,086
562,7	1842,857
563,1	1852,743
563,6	1853,743
564	1860,286
564,4	1862,914
564,9	1866,686
565,3	1865,257
565,8	1871,486
566,2	1868,571
566,7	1875,029
567,1	1874,029
567,6	1872,286
568	1873,6
568,5	1874,286
568,9	1873,686
569,4	1872,971
569,8	1874,057
570,3	1874,314
570,7	1878,857
571,1	1879,629
571,6	1879,6
572	1883,257
572,5	1888,286
572,9	1885,743
573,4	1886,971
573,8	1887,257
574,3	1882
574,7	1879,886
575,2	1875,314
575,6	1870,743
576,1	1870,886
576,5	1869,486
576,9	1862,057
577,4	1863,114
577,8	1855,943
578,3	1852,429
578,7	1847,8
579,2	1850,257
579,6	1846,286
580,1	1846,657
580,5	1848,114
581	1854,143
581,4	1852,257
581,9	1847,429
582,3	1840,543
582,7	1841,886
583,2	1844,429
583,6	1839,886
584,1	1837,857
584,5	1837,314
585	1842,8
585,4	1836,114
585,9	1831,8
586,3	1829,171
586,8	1826,543
587,2	1821,429
587,6	1824,629
588,1	1822,914
588,5	1824,629
589	1827,4
589,4	1823,657
589,9	1815,971
590,3	1816,371
590,8	1808,714
591,2	1803,714
591,7	1802,857
592,1	1799,4
592,5	1798,057
593	1800,057
593,4	1793,771
593,9	1785,286
594,3	1779,6
594,8	1771,257
595,2	1767,8
595,7	1763,857
596,1	1759,771
596,6	1760,857
597	1762,029
597,4	1760,571
597,9	1762,629
598,3	1761,771
598,8	1758,8
599,2	1759
599,7	1753,171
600,1	1746,771
600,6	1741,657
601	1737,943
601,4	1734,943
601,9	1729,2
602,3	1722
602,8	1720,057
603,2	1723,971
603,7	1721,143
604,1	1715,686
604,6	1708,886
605	1703,914
605,4	1702,686
605,9	1697,571
606,3	1684,914
606,8	1678,057
607,2	1672,829
607,7	1661,486
608,1	1657,229
608,6	1653,171
609	1649,8
609,4	1652,343
609,9	1653,343
610,3	1649,714
610,8	1646,714
611,2	1645,114
611,7	1635,029
612,1	1631,914
612,6	1624,829
613	1619,6
613,4	1612,886
613,9	1609,857
614,3	1599,429
614,8	1603,971
615,2	1590,057
615,7	1585,029
616,1	1582,114
616,6	1575,857
617	1569,486
617,4	1568,229
617,9	1558,571
618,3	1560,6
618,8	1554,943
619,2	1542,971
619,7	1541,743
620,1	1532,343
620,5	1531,486
621	1519,886
621,4	1510,886
621,9	1505,171
622,3	1501,886
622,8	1491,971
623,2	1490,8
623,6	1475,2
624,1	1469,429
624,5	1464,6
625	1463,4
625,4	1456,257
625,9	1452,114
626,3	1448,143
626,8	1444,114
627,2	1445,8
627,6	1433,543
628,1	1421,971
628,5	1419,629
629	1406,686
629,4	1395,171
629,9	1390,971
630,3	1376,629
630,7	1375,457
631,2	1371,657
631,6	1363,857
632,1	1363,857
632,5	1362,686
633	1356,086
633,4	1349,314
633,8	1341,914
634,3	1329,657
634,7	1319,429
635,2	1309,457
635,6	1302,257
636,1	1296
636,5	1287,686
636,9	1282
637,4	1275,429
637,8	1267,629
638,3	1263,114
638,7	1254,457
639,2	1242,343
639,6	1245,143
640	1234,486
640,5	1231,257
640,9	1227,943
641,4	1217,286
641,8	1214,714
642,2	1206,971
642,7	1204,8
643,1	1210,4
643,6	1205,257
644	1197,229
644,5	1196,771
644,9	1187,743
645,3	1191,743
645,8	1177,171
646,2	1164,114
646,7	1155,771
647,1	1145,429
647,6	1144,514
648	1141,286
648,4	1128,114
648,9	1124,657
649,3	1116,6
649,8	1111,029
650,2	1113,6
650,6	1104,943
651,1	1096,714
651,5	1098,486
652	1092,371
652,4	1087,829
652,9	1085,6
653,3	1076,829
653,7	1066,914
654,2	1059,543
654,6	1048,4
655,1	1044,886
655,5	1046,714
655,9	1035,4
656,4	1032,714
656,8	1027,143
657,3	1023,229
657,7	1019,943
658,2	1009,114
658,6	999,314
659	997,629
659,5	986,829
659,9	983,657
660,4	983,743
660,8	975,8
661,2	975,6
661,7	971,029
662,1	966,057
662,6	962,743
663	957,543
663,4	945,314
663,9	944,171
664,3	939,714
664,8	931,629
665,2	921,343
665,6	914,2
666,1	907,371
666,5	904,457
667	895,743
667,4	885,486
667,9	879,657
668,3	879,029
668,7	871,057
669,2	867,886
669,6	859,8
670,1	856,857
670,5	848,657
670,9	846
671,4	837,8
671,8	840,771
672,3	834,371
672,7	832,6
673,1	819,743
673,6	816,4
674	809,657
674,5	808,714
674,9	796,657
675,3	792
675,8	785,8
676,2	785,057
676,7	778,971
677,1	777,171
677,5	766,743
678	766,571
678,4	764,657
678,9	759,857
679,3	756,857
679,7	753,8
680,2	738,286
680,6	735,057
681,1	730,943
681,5	727,029
681,9	722
682,4	719,429
682,8	718,029
683,3	724,057
683,7	721
684,1	714,8
684,6	708,486
685	704,629
685,5	697,829
685,9	690,314
686,3	682,314
686,8	679,029
687,2	677,886
687,7	670,686
688,1	661,886
688,5	653,771
689	651,686
689,4	647,4
689,9	643,086
690,3	634,371
690,7	632,057
691,2	633,914
691,6	636,343
692	633,457
692,5	632,143
692,9	631,029
693,4	626,371
693,8	623,457
694,2	617,286
694,7	609,686
695,1	602,714
695,6	597,6
696	592,743
696,4	592,029
696,9	587,514
697,3	583,686
697,8	581,457
698,2	575,457
698,6	575,657
699,1	569,943
699,5	564,886
699,9	557,771
700,4	552,171
700,8	550,6
701,3	552,971
701,7	542,943
702,1	541,6
702,6	540,143
703	543,686
703,5	540,143
703,9	533,486
704,3	529,914
704,8	527,343
705,2	523,543
705,6	518,086
706,1	511,114
706,5	506,6
707	505,4
707,4	505,171
707,8	501,4
708,3	497,486
708,7	495,771
709,2	490,914
709,6	487,771
710	486,2
710,5	473,886
710,9	473,686
711,3	471,2
711,8	467,8
712,2	465,514
712,7	466,543
713,1	464
713,5	467,2
714	465,657
714,4	460,343
714,8	459,571
715,3	457,086
715,7	448,943
716,2	443,371
716,6	437,543
717	430,086
717,5	428,114
717,9	424,629
718,3	419,086
718,8	421,4
719,2	421,171
719,7	417
720,1	419
720,5	417,8
721	416,886
721,4	418,486
721,8	415,171
722,3	408,771
722,7	410,914
723,2	401,943
723,6	393,543
724	384,743
724,5	378,457
724,9	372,857
725,3	369,086
725,8	363,229
726,2	364,629
726,7	364
727,1	363
727,5	360,714
728	361,086
728,4	362,171
728,8	358,057
729,3	351,771
729,7	349,971
730,1	347,229
730,6	346,029
731	341,829
731,5	338,714
731,9	338,4
732,3	344,571
732,8	348,029
733,2	343,457
733,6	340,943
734,1	339,743
734,5	339,657
734,9	340,029
735,4	333,971
735,8	320,686
736,3	327,257
736,7	325,314
737,1	323,171
737,6	320,229
738	315,543
738,4	313,343
738,9	321,543
739,3	320,114
739,7	320,486
740,2	322,714
740,6	326,571
741,1	331,657
741,5	324,714
741,9	321,257
742,4	317,143
742,8	313,771
743,2	309,571
743,7	299,743
744,1	292,686
744,5	291,429
745	285,943
745,4	277,543
745,8	277,286
746,3	277,343
746,7	276,571
747,2	278,229
747,6	284,371
748	287,943
748,5	289,771
748,9	285,743
749,3	283,829
749,8	285,343
750,2	278,943
750,6	271,8
751,1	268,343
751,5	268,457
751,9	269,943
752,4	267,6
752,8	262,886
753,3	262,371
753,7	265,4
754,1	262,914
754,6	255,314
755	250,029
755,4	249,714
755,9	248,6
756,3	244,943
756,7	235,2
757,2	235,8
757,6	241,229
758	241,257
758,5	237,2
758,9	238,4
759,3	243,114
759,8	246,4
760,2	243,743
760,6	239,571
761,1	238,8
761,5	236,829
761,9	235,8
762,4	227,257
762,8	224,2
763,3	218,086
763,7	221,8
764,1	220,029
764,6	220,2
765	220,6
765,4	221,486
765,9	224,943
766,3	227,829
766,7	220,8
767,2	219,114
767,6	219,914
768	213,857
768,5	211,771
768,9	209,886
769,3	206,514
769,8	205,4
770,2	211,8
770,6	211,286
771,1	216,514
771,5	217,114
771,9	217,229
772,4	220,114
772,8	217,657
773,2	209,429
773,7	205,429
774,1	199,8
774,5	193,657
775	189,086
775,4	186,171
775,8	186,514
776,3	192,171
776,7	192,857
777,1	188
777,6	191,029
778	191,857
778,4	192,457
778,9	189,029
779,3	179,943
779,7	177,371
780,2	181,086
780,6	182,057
781	180,343
781,5	174,714
781,9	178,086
782,3	174,829
782,8	169,543
783,2	167,743
783,6	168,343
784,1	167,143
784,5	164,629
784,9	161,457
785,4	166,543
785,8	172,171
786,2	172,143
786,7	169,914
787,1	165,2
787,5	164,857
788	165,2
788,4	158,943
788,8	154,343
789,3	149,4
789,7	149,829
790,1	150,743
790,6	154,943
791	151,514
791,4	152,029
791,9	148,743
792,3	145,429
792,7	141,486
793,2	138,8
793,6	134,8
794	135,057
794,5	133,6
794,9	139,543
795,3	143,857
795,8	141,029
796,2	146,571
796,6	145,486
797,1	146,029
797,5	144,429
797,9	135,971
798,4	131,514
798,8	134,057
799,2	125,743
799,7	130,486
800,1	124,943
800,5	129,143
801	135,343
801,4	132,457
801,8	131,057
802,2	136,971
802,7	129,829
803,1	132,571
803,5	128,886
804	119,486
804,4	121,657
804,8	120,286
805,3	117,486
805,7	120,457
806,1	121,829
806,6	122,143
807	123,514
807,4	120,914
807,9	115,514
808,3	114,686
808,7	113,171
809,2	113,457
809,6	113,943
810	117,857
810,4	118,057
810,9	118,171
811,3	118,543
811,7	117,457
812,2	115,657
812,6	110,771
813	109,629
813,5	111,171
813,9	112,286
814,3	108,657
814,8	106,657
815,2	102,886
815,6	100,429
816,1	100,743
816,5	99,143
816,9	98,114
817,3	96,743
817,8	101,229
818,2	99,971
818,6	103,971
819,1	98,629
819,5	99,143
819,9	100,571
820,4	101,371
820,8	96,086
821,2	96,571
821,7	95,286
822,1	100,229
822,5	103,8
822,9	100,457
823,4	99,086
823,8	98,143
824,2	99,114
824,7	94,686
825,1	86,714
825,5	76,657
826	77,4
826,4	76,514
826,8	76,514
827,3	74,229
827,7	75,714
828,1	82,829
828,5	85,171
829	81,114
829,4	81,2
829,8	75,686
830,3	72,686
830,7	73,171
831,1	69,543
831,6	66,971
832	70,571
832,4	67,486
832,8	73,457
833,3	75,914
833,7	74,114
834,1	73,8
834,6	76,143
835	79,057
835,4	79,629
835,8	74,257
836,3	71,543
836,7	74,486
837,1	71,943
837,6	73,514
838	65,257
838,4	68,4
838,9	68,8
839,3	70,143
839,7	71,029
840,1	69,829
840,6	63,914
841	66,229
841,4	65,343
841,9	67,229
842,3	67,743
842,7	65,371
843,1	63,714
843,6	67,371
844	71,171
844,4	71,657
844,9	70,943
845,3	70,943
845,7	67,4
846,2	66,114
846,6	64
847	62,343
847,4	65,543
847,9	66,257
848,3	66,086
848,7	68,114
849,2	72,629
849,6	68,943
850	69,143
850,4	63,971
850,9	63,829
851,3	64,6
851,7	65,571
852,2	61,857
852,6	66,371
853	66,8
853,4	64,543
853,9	62,743
854,3	59,057
854,7	57,429
855,2	61,943
855,6	63,771
856	61,514
856,4	58,4
856,9	55,6
857,3	56,829
857,7	59,886
858,2	61
858,6	58,086
859	57,8
859,4	59,771
859,9	60,543
860,3	57,429
860,7	53,114
861,1	48,857
861,6	45,171
862	43,086
862,4	41,943
862,9	44,686
863,3	47,486
863,7	47,086
864,1	46,314
864,6	49,457
865	48,429
865,4	48,171
865,9	48,314
866,3	45,143
866,7	45,057
867,1	45,143
867,6	44,029
868	44,514
868,4	45,8
868,8	44,543
869,3	43,571
869,7	49,143
870,1	46,114
870,6	45,057
871	42,314
871,4	47,657
871,8	47,2
872,3	48,4
872,7	43,943
873,1	45,971
873,5	51,714
874	53,514
874,4	46,229
874,8	42,343
875,3	45,743
875,7	45,314
876,1	46,743
876,5	43,229
877	43,543
877,4	42,486
877,8	44,143
878,2	46,8
878,7	46,771
879,1	44,714
879,5	43,686
879,9	45,229
880,4	50,229
880,8	52,171
881,2	45,171
881,7	41,857
882,1	44,971
882,5	39,971
882,9	38,829
883,4	32,629
883,8	31,629
884,2	34,286
884,6	34,6
885,1	31,743
885,5	34,343
885,9	34,971
886,3	38,257
886,8	35,114
887,2	33,543
887,6	31,543
888	31,057
888,5	33,543
888,9	34,543
889,3	29,171
889,8	29,6
890,2	29,286
890,6	28,829
891	32,6
891,5	30,229
891,9	26,457
892,3	30,971
892,7	32,257
893,2	33,543
893,6	34,171
894	32,829
894,4	30,943
894,9	30,686
895,3	30,314
895,7	31,4
896,1	29,029
896,6	32,143
897	29,371
897,4	35,714
897,8	38,543
898,3	39,2
898,7	35,343
899,1	35,4
899,5	34,143
900	27,829
900,4	22,057
900,8	16,6
901,2	13,914
901,7	12,657
902,1	12,629
902,5	14,714
902,9	19,2
903,4	19,057
903,8	23,057
904,2	21,771
904,6	25,343
905,1	27,743
905,5	24,571
905,9	27,086
906,3	31,714
906,8	37,286
907,2	37,486
907,6	35,971
908	33,6
908,5	32,057
908,9	27
909,3	23
909,7	17,286
910,2	21
910,6	27,4
911	22,2
911,4	24,943
911,9	24,829
912,3	24,629
912,7	28,486
913,1	27,657
913,6	18
914	24,743
914,4	20,543
914,8	22,371
915,3	24,086
915,7	22,314
916,1	19,829
916,5	25,8
916,9	24,457
917,4	29,657
917,8	29,686
918,2	22,657
918,6	14,886
919,1	18,6
919,5	18,343
919,9	18,114
920,3	13,257
920,8	11,314
921,2	15,857
921,6	18,429
922	13,829
922,5	13,514
922,9	11,429
923,3	14,286
923,7	18,971
924,2	17,314
924,6	19,686
925	22,229
925,4	18,857
925,8	20,457
926,3	21,771
926,7	14,771
927,1	17,343
927,5	18,429
928	21,171
928,4	21,829
928,8	22,057
929,2	20,457
929,7	25,886
930,1	27,171
930,5	25,286
930,9	26,457
931,3	26,029
931,8	28,486
932,2	26,114
932,6	23,314
933	16,286
933,5	14,886
933,9	12,457
934,3	14,543
934,7	10,286
935,2	13,257
935,6	15,829
936	22,229
936,4	25,6
936,8	26,229
937,3	23,171
937,7	26,114
938,1	25,771
938,5	22,171
939	21,314
939,4	20,4
939,8	18,171
940,2	17,743
940,6	15,114
941,1	14,857
941,5	20,714
941,9	17,2
942,3	16
942,8	18,429
943,2	25,886
943,6	25,486
944	23,8
944,4	20,629
944,9	20,086
945,3	22,257
945,7	14,8
946,1	9,743
946,6	10,971
947	11,886
947,4	15,2
947,8	17,086
948,2	10,143
948,7	17,629
949,1	14,286
949,5	16,543
949,9	23,343
950,3	20,257
950,8	22,886
951,2	24,4
951,6	17,886
952	22,229
952,5	16,4
952,9	11,229
953,3	11,714
953,7	9,686
954,1	14,686
954,6	18,943
955	19,086
955,4	17,914
955,8	19,086
956,2	19,171
956,7	20,743
957,1	13,857
957,5	12,6
957,9	7,114
958,3	9,571
958,8	7,343
959,2	9,286
959,6	6,486
960	8,371
960,5	9,286
960,9	13,571
961,3	11,886
961,7	10,171
962,1	6,143
962,6	8,629
963	10,886
963,4	9,486
963,8	10,971
964,2	16,771
964,7	19,371
965,1	20,657
965,5	20,057
965,9	20,286
966,3	22,2
966,8	19,029
967,2	18,743
967,6	19,4
968	16,229
968,4	14,114
968,9	14,657
969,3	17,286
969,7	13,771
970,1	11,114
970,5	6,8
971	13,2
971,4	14,714
971,8	13,514
972,2	9,314
972,6	13,029
973,1	13,143
973,5	12,743
973,9	11,743
974,3	14,829
974,7	16,971
975,2	19,6
975,6	14,857
976	16,629
976,4	15,2
976,8	16,429
977,3	10,943
977,7	10,143
978,1	7,257
978,5	10,629
978,9	6,914
979,4	10,629
979,8	8,829
980,2	12,371
980,6	5,514
981	6,686
981,5	6,743
981,9	8,171
982,3	5,771
982,7	5,8
983,1	2,514
983,6	6,771
984	6,829
984,4	10,829
984,8	10,886
985,2	10,057
985,6	6,457
986,1	6,857
986,5	9,571
986,9	5,286
987,3	5,4
987,7	7,171
988,2	6,086
988,6	8,743
989	10,514
989,4	8,771
989,8	11,229
990,3	8,943
990,7	5,886
991,1	10,857
991,5	13,771
991,9	15,2
992,3	15,714
992,8	21,2
993,2	18,943
993,6	19,743
994	21,457
994,4	19,886
994,9	17,857
995,3	15,8
995,7	8,514
996,1	12,171
996,5	13,686
996,9	5,829
997,4	0,743
997,8	-3,657
998,2	-4,886
998,6	-6,143
999	-7,286
999,5	-8,629
999,9	-1,143
1000,3	1
1000,7	5,286
1001,1	10,257
1001,5	11,057
1002	13,943
1002,4	18,457
1002,8	16,657
1003,2	21,371
1003,6	22,114
1004	22,314
1004,5	23,029
1004,9	22,286
1005,3	12,314
1005,7	10,571
1006,1	5,886
1006,6	3,743
1007	1,371
1007,4	3,457
1007,8	1,029
1008,2	5,429
1008,6	2,486
1009,1	5,114
1009,5	8,286
1009,9	9,514
1010,3	8,229
1010,7	7,314
1011,1	7,971
1011,6	14,171
1012	16,829
1012,4	11,943
1012,8	9,8
1013,2	15,171
1013,6	14,314
1014,1	17,829
1014,5	15,771
1014,9	12,143
1015,3	12,629
1015,7	14,286
1016,1	9,314
1016,6	10,6
1017	10,971
1017,4	13,457
1017,8	15
1018,2	19,857
1018,6	19,257
1019,1	19,857
1019,5	19,686
1019,9	16
1020,3	13,629
1020,7	12,8
1021,1	7,114
1021,6	4,514
1022	8,914
1022,4	9,743
1022,8	9
1023,2	7,771
1023,6	7
1024,1	16,914
1024,5	20,143
1024,9	13,914
1025,3	16,829
1025,7	19,171
1026,1	21,543
1026,6	22,029
1027	16,629
1027,4	16,314
1027,8	20,743
1028,2	17,829
1028,6	23,4
1029	23,143
1029,5	25,657
1029,9	20,8
1030,3	18,486
1030,7	17,257
1031,1	18,943
1031,5	9,171
1032	6,6
1032,4	3,029
1032,8	10,514
1033,2	13,914
1033,6	11,486
1034	7,971
1034,4	10,486
1034,9	16,943
1035,3	17,629
1035,7	18,8
1036,1	18,571
1036,5	17,6
1036,9	21,343
1037,4	22,8
1037,8	13,629
1038,2	8,829
1038,6	3,657
1039	2,943
1039,4	11,6
1039,8	6,2
1040,3	10,057
1040,7	15,371
1041,1	25,2
1041,5	27,029
1041,9	25,6
1042,3	19,6
1042,7	21,086
1043,2	14,114
1043,6	12,371
1044	5,6
1044,4	5,714
1044,8	6,029
1045,2	10,029
1045,6	16,143
1046,1	16,314
1046,5	13,143
1046,9	10,743
1047,3	12,343
1047,7	12,743
1048,1	8,086
1048,5	3,029
1049	5,829
1049,4	12,171
1049,8	16,943
1050,2	13,6
1050,6	15,943
1051	17,6
1051,4	21,514
1051,9	19,914
1052,3	25,314
1052,7	27
1053,1	24,914
1053,5	27,114
1053,9	28,086
1054,3	27,771
1054,8	33,343
1055,2	25,771
1055,6	24,314
1056	27,029
1056,4	24,114
1056,8	22,971
1057,2	18,6
1057,6	13,657
1058,1	11,457
1058,5	9,514
1058,9	11,943
1059,3	12,629
1059,7	12,143
1060,1	14,743
1060,5	13,171
1061	16,714
1061,4	14,286
1061,8	12,571
1062,2	12
1062,6	16,171
1063	13,514
1063,4	21,171
1063,8	17,286
1064,3	18,457
1064,7	18,571
1065,1	16,029
1065,5	13,143
1065,9	12,829
1066,3	4,657
1066,7	3,943
1067,1	9
1067,6	11,286
1068	10,114
1068,4	7,8
1068,8	13,229
1069,2	14,829
1069,6	18,6
1070	15,886
1070,4	12,229
1070,9	10,057
1071,3	10,857
1071,7	6,029
1072,1	8,4
1072,5	3,686
1072,9	-0,514
1073,3	3,886
1073,7	12
1074,2	12,457
1074,6	14,8
1075	11,857
1075,4	12,8
1075,8	16,143
1076,2	12,629
1076,6	8,257
1077	6,771
1077,5	9,086
1077,9	11,629
1078,3	13,057
1078,7	12,4
1079,1	14,2
1079,5	11,286
1079,9	13,314
1080,3	12,857
1080,7	12,8
1081,2	18,486
1081,6	20,057
1082	17,857
1082,4	23,257
1082,8	23,229
1083,2	21,257
1083,6	20,8
1084	14,429
1084,5	14,143
1084,9	13,686
1085,3	7,543
1085,7	7,886
1086,1	6,829
1086,5	4,857
1086,9	6,686
1087,3	6,486
1087,7	5,114
1088,2	9,029
1088,6	4,343
1089	4,143
1089,4	4,857
1089,8	6
1090,2	6,257
1090,6	6,143
1091	3,8
1091,4	7,143
1091,9	10,8
1092,3	13,971
1092,7	12,229
1093,1	15,914
1093,5	18,143
1093,9	19,486
1094,3	23,714
1094,7	19,371
1095,1	21,343
1095,5	21,371
1096	18,286
1096,4	19,086
1096,8	23,257
1097,2	18,771
1097,6	25,829
1098	22,086
1098,4	26,743
1098,8	24,886
1099,2	30,114
1099,6	28,571
1100,1	27,286
1100,5	22,6
1100,9	20,657
1101,3	16,429
1101,7	17,429
1102,1	11,029
1102,5	9,543
1102,9	14,086
1103,3	16,4
1103,7	17,086
1104,2	15,057
1104,6	15,543
1105	13,514
1105,4	15,114
1105,8	10,143
1106,2	5,086
1106,6	4,2
1107	4,771
1107,4	2,3
1107,8	4,2
1108,3	0,05
