Data from Subt2_159.txt Node
Date: Sat Aug 26 18:33:18 MSK 2023
User: vat
Spectrometer: MAYP114033
Trigger mode: 0
Integration Time (sec): 1,000000E0
Scans to average: 5
Electric dark correction enabled: true
Nonlinearity correction enabled: false
Boxcar width: 3
XAxis mode: Wavelengths
Number of Pixels in Spectrum: 2068
>>>>>Begin Spectral Data<<<<<
199,4	-0,283
199,9	-0,013
200,4	-1
200,8	0,867
201,3	-0,905
201,8	-2,59
202,2	-5,19
202,7	-1,39
203,2	-1,219
203,6	-0,019
204,1	-2,105
204,6	0,867
205	5,495
205,5	10,181
206	5,324
206,4	4,981
206,9	7,924
207,4	8,781
207,8	7,638
208,3	6,41
208,8	3,21
209,2	7,581
209,7	10,095
210,2	7,381
210,6	5,61
211,1	7,638
211,5	3,724
212	2,095
212,5	0,61
212,9	-2,162
213,4	-3,762
213,9	-4,476
214,3	-8,876
214,8	-4,19
215,3	-2,505
215,7	-2,819
216,2	-1,362
216,7	4,238
217,1	6,895
217,6	12,667
218,1	10,552
218,5	9,381
219	6,01
219,5	8,352
219,9	-0,99
220,4	4,41
220,9	1,381
221,3	1,438
221,8	5,381
222,3	8,981
222,7	7,181
223,2	11,295
223,6	4,724
224,1	3,495
224,6	0,781
225	-3,562
225,5	-5,848
226	-6,819
226,4	-6,533
226,9	-4,276
227,4	-4,162
227,8	-5,762
228,3	-2,762
228,8	-0,962
229,2	-0,762
229,7	-2,133
230,2	-7,162
230,6	-6,248
231,1	-0,905
231,5	-1,076
232	-0,79
232,5	-2,79
232,9	-0,619
233,4	6,41
233,9	2,838
234,3	2,581
234,8	1,238
235,3	-1,79
235,7	-1,305
236,2	-0,848
236,7	-3,448
237,1	0,638
237,6	-2,562
238,1	-3,562
238,5	-5,99
239	-3,076
239,4	-2,362
239,9	-2,905
240,4	-2,933
240,8	3,238
241,3	3,01
241,8	4,924
242,2	0,295
242,7	-2,048
243,2	-1,476
243,6	-4,162
244,1	-7,305
244,6	-5,362
245	-2,79
245,5	-2,419
245,9	-5,762
246,4	-10,505
246,9	-6,533
247,3	-9,419
247,8	-6,219
248,3	-5,819
248,7	-1,676
249,2	4,467
249,7	7,724
250,1	6,181
250,6	9,01
251	5,695
251,5	7,01
252	2,638
252,4	3,267
252,9	2,267
253,4	-1,105
253,8	-5,048
254,3	-1,619
254,8	-5,248
255,2	-7,048
255,7	-11,819
256,1	-9,476
256,6	-4,419
257,1	1,324
257,5	-6,476
258	-5,733
258,5	-2,705
258,9	-1,562
259,4	-6,848
259,9	-10,133
260,3	-16,733
260,8	-13,333
261,2	-14,333
261,7	-14,162
262,2	-14,276
262,6	-12,762
263,1	-8,99
263,6	-2,819
264	2,095
264,5	3,81
264,9	5,867
265,4	6,667
265,9	5,467
266,3	5,638
266,8	4,924
267,3	1,238
267,7	2,095
268,2	-1,276
268,7	1,81
269,1	2,867
269,6	0,524
270	0,267
270,5	-5,019
271	-6,248
271,4	-3,562
271,9	-9,076
272,4	-0,962
272,8	-2,105
273,3	-3,162
273,7	-1,876
274,2	1,01
274,7	-0,105
275,1	3,21
275,6	2,581
276,1	-0,19
276,5	3,352
277	7,581
277,4	2,352
277,9	3,81
278,4	2,61
278,8	0,095
279,3	5,838
279,8	1,495
280,2	4,61
280,7	6,838
281,1	6,238
281,6	5,267
282,1	3,124
282,5	0,667
283	0,438
283,4	-6,819
283,9	-4,533
284,4	-3,848
284,8	-1,076
285,3	-0,905
285,8	-0,448
286,2	0,752
286,7	3,381
287,1	-0,133
287,6	-2,59
288,1	-7,133
288,5	-5,162
289	-5,305
289,5	-3,276
289,9	-3,533
290,4	-4,476
290,8	-3,448
291,3	-0,905
291,8	-0,819
292,2	-1,619
292,7	-1,448
293,1	-2,648
293,6	1,381
294,1	0,152
294,5	0,181
295	-0,39
295,5	-2,848
295,9	-4,505
296,4	-5,39
296,8	-10,848
297,3	-9,733
297,8	-13,248
298,2	-17,533
298,7	-12,876
299,1	-13,133
299,6	-11,248
300,1	-6,848
300,5	-6,848
301	0,181
301,5	5,781
301,9	4,438
302,4	1,381
302,8	1,21
303,3	2,095
303,8	0,667
304,2	-3,99
304,7	-6,705
305,1	-10,848
305,6	-6,048
306,1	3,124
306,5	3,467
307	10,381
307,4	14,238
307,9	13,095
308,4	18,295
308,8	10,524
309,3	-0,19
309,8	-2,59
310,2	-6,905
310,7	-12,533
311,1	-12,19
311,6	-14,19
312,1	-9,676
312,5	-4,762
313	-4,333
313,4	-2,79
313,9	-1,248
314,4	-1,848
314,8	-6,333
315,3	-5,133
315,7	-10,79
316,2	-10,219
316,7	-12,39
317,1	-5,648
317,6	-5,39
318	4,01
318,5	2,781
319	5,981
319,4	9,438
319,9	13,752
320,3	8,267
320,8	5,067
321,3	4,038
321,7	8,324
322,2	7,324
322,6	9,038
323,1	2,124
323,6	3,381
324	4,438
324,5	2,352
324,9	-0,105
325,4	0,01
325,9	0,352
326,3	4,781
326,8	8,295
327,2	9,638
327,7	10,81
328,2	10,01
328,6	13,181
329,1	1,695
329,5	-0,048
330	-5,276
330,5	-3,162
330,9	-4,105
331,4	-6,505
331,8	-9,162
332,3	-0,676
332,8	0,038
333,2	0,81
333,7	1,724
334,1	4,124
334,6	4,238
335,1	1,981
335,5	-0,476
336	-2,962
336,4	-0,933
336,9	2,752
337,4	2,895
337,8	4,152
338,3	9,067
338,7	11,295
339,2	10,552
339,7	13,724
340,1	9,41
340,6	6,667
341	3,067
341,5	2,152
342	-4,533
342,4	-3,676
342,9	-8,362
343,3	-8,848
343,8	-13,533
344,2	-8,019
344,7	-1,762
345,2	-0,448
345,6	2,781
346,1	5,238
346,5	3,352
347	7,552
347,5	7,981
347,9	7,01
348,4	12,638
348,8	10,038
349,3	10,952
349,8	13,552
350,2	22,524
350,7	21,895
351,1	16,095
351,6	20,01
352	23,895
352,5	24,552
353	33,495
353,4	30,238
353,9	38,21
354,3	48,381
354,8	51,152
355,3	66,838
355,7	84,41
356,2	96,952
356,6	119,267
357,1	143,895
357,5	168,667
358	198,867
358,5	224,838
358,9	262,695
359,4	305,095
359,8	347,438
360,3	397,752
360,8	455,01
361,2	519,752
361,7	598,181
362,1	677,438
362,6	768,267
363	863,867
363,5	961,352
364	1067,867
364,4	1178,667
364,9	1286,21
365,3	1388,124
365,8	1486,581
366,3	1580,038
366,7	1667,552
367,2	1745,495
367,6	1803,381
368,1	1847,181
368,5	1879,324
369	1890,352
369,5	1896,381
369,9	1881,61
370,4	1848,724
370,8	1810,267
371,3	1758,352
371,7	1695,352
372,2	1625,295
372,7	1543,752
373,1	1464,01
373,6	1377,095
374	1294,581
374,5	1208,381
374,9	1126,095
375,4	1043,895
375,9	964,095
376,3	887,495
376,8	817,924
377,2	749,895
377,7	686,267
378,2	625,467
378,6	575,152
379,1	528,181
379,5	483,924
380	447,524
380,4	407,067
380,9	376,324
381,4	345,152
381,8	319,181
382,3	294,124
382,7	272,724
383,2	252,067
383,6	233,924
384,1	212,467
384,6	201,724
385	184,267
385,5	173,438
385,9	158,895
386,4	147,552
386,8	136,352
387,3	126,638
387,7	113,124
388,2	106,495
388,7	93,752
389,1	86,21
389,6	78,667
390	74,41
390,5	71,124
390,9	74,924
391,4	68,867
391,9	68,352
392,3	68,067
392,8	57,467
393,2	50,038
393,7	46,267
394,1	35,695
394,6	31,924
395,1	31,181
395,5	24,667
396	29,267
396,4	29,838
396,9	28,581
397,3	32,524
397,8	35,095
398,2	32,238
398,7	33,781
399,2	33,381
399,6	36,438
400,1	39,581
400,5	31,581
401	29,667
401,4	23,324
401,9	24,41
402,4	24,867
402,8	19,21
403,3	18,638
403,7	18,867
404,2	21,21
404,6	25,324
405,1	25,152
405,5	21,581
406	24,838
406,5	25,981
406,9	30,038
407,4	32,038
407,8	33,038
408,3	33,838
408,7	37,495
409,2	43,552
409,6	45,41
410,1	47,324
410,6	47,581
411	51,067
411,5	54,352
411,9	55,438
412,4	54,438
412,8	53,324
413,3	57,381
413,7	60,724
414,2	63,81
414,7	71,895
415,1	81,781
415,6	85,581
416	89,381
416,5	92,61
416,9	93,324
417,4	96,838
417,8	98,695
418,3	104,295
418,8	113,724
419,2	118,838
419,7	123,524
420,1	132,095
420,6	139,638
421	142,01
421,5	144,61
421,9	143,952
422,4	152,295
422,8	156,152
423,3	159,752
423,8	159,438
424,2	161,295
424,7	165,21
425,1	170,581
425,6	176,41
426	179,552
426,5	189,295
426,9	201,667
427,4	207,267
427,9	206,867
428,3	216,981
428,8	225,438
429,2	232,41
429,7	239,067
430,1	245,695
430,6	259,267
431	272,324
431,5	283,495
431,9	284,524
432,4	302,01
432,8	311,895
433,3	326,438
433,8	338,038
434,2	352,41
434,7	366,124
435,1	389,552
435,6	409,838
436	424,41
436,5	444,581
436,9	466,238
437,4	489,81
437,8	509,41
438,3	533,895
438,8	552,067
439,2	580,352
439,7	605,067
440,1	634,552
440,6	666,752
441	692,01
441,5	724,124
441,9	756,695
442,4	784,267
442,8	812,724
443,3	845,295
443,7	876,552
444,2	918,324
444,7	947,552
445,1	987,381
445,6	1026,981
446	1068,124
446,5	1098,181
446,9	1131,295
447,4	1170,295
447,8	1220,524
448,3	1263,867
448,7	1310,381
449,2	1358,752
449,6	1414,124
450,1	1462,952
450,6	1516,524
451	1564,781
451,5	1614,867
451,9	1670,324
452,4	1729,038
452,8	1785,838
453,3	1851,381
453,7	1906,552
454,2	1961,724
454,6	2018,924
455,1	2076,495
455,5	2127,867
456	2190,781
456,4	2247,238
456,9	2311,667
457,3	2379,181
457,8	2440,01
458,3	2511,21
458,7	2577,038
459,2	2641,81
459,6	2709,495
460,1	2780,267
460,5	2845,581
461	2926,781
461,4	2984,467
461,9	3055,867
462,3	3129,781
462,8	3200,667
463,2	3266,752
463,7	3337,924
464,1	3406,324
464,6	3484,667
465	3558,524
465,5	3624,41
466	3700,467
466,4	3773,152
466,9	3850,952
467,3	3919,895
467,8	3991,695
468,2	4061,352
468,7	4130,61
469,1	4204,438
469,6	4274,638
470	4340,724
470,5	4405,752
470,9	4476,695
471,4	4543,095
471,8	4610,41
472,3	4673,467
472,7	4736,638
473,2	4790,924
473,6	4854,324
474,1	4914,981
474,5	4972,495
475	5029,552
475,4	5083,352
475,9	5137,981
476,4	5193,324
476,8	5246,524
477,3	5296,552
477,7	5357,324
478,2	5409,495
478,6	5455,895
479,1	5500,924
479,5	5550,352
480	5584,152
480,4	5625,181
480,9	5657,724
481,3	5691,695
481,8	5731,581
482,2	5755,61
482,7	5787,695
483,1	5824,324
483,6	5853,352
484	5877,41
484,5	5901,81
484,9	5912,152
485,4	5944,381
485,8	5961,581
486,3	5983,924
486,7	5997,467
487,2	6007,124
487,6	6020,467
488,1	6033,038
488,5	6033,638
489	6040,152
489,4	6039,524
489,9	6041,095
490,4	6044,981
490,8	6047,438
491,3	6047,295
491,7	6055,152
492,2	6053,267
492,6	6046,095
493,1	6031,21
493,5	6015,638
494	5995,095
494,4	5990,952
494,9	5957,381
495,3	5931,781
495,8	5917,81
496,2	5906,038
496,7	5885,152
497,1	5865,724
497,6	5838,01
498	5821,324
498,5	5803,838
498,9	5768,524
499,4	5737,095
499,8	5716,438
500,3	5692,895
500,7	5656,295
501,2	5626,638
501,6	5593,095
502,1	5568,324
502,5	5539,867
503	5503,41
503,4	5463,724
503,9	5425,381
504,3	5396,381
504,8	5359,667
505,2	5323,581
505,7	5285,81
506,1	5247,01
506,6	5205,181
507	5169,124
507,5	5129,21
507,9	5082,981
508,4	5038,695
508,8	4992,238
509,3	4954,981
509,7	4921,524
510,2	4884,552
510,6	4827,752
511,1	4791,21
511,5	4745,838
512	4706,524
512,4	4664,752
512,9	4613,781
513,3	4566,495
513,8	4527,267
514,2	4483,352
514,7	4439,667
515,1	4390,324
515,6	4343,495
516	4296,552
516,5	4255,067
516,9	4215,238
517,4	4171,467
517,8	4130,81
518,3	4082,924
518,7	4036,924
519,2	3995,981
519,6	3951,981
520,1	3913,124
520,5	3865,924
521	3813,095
521,4	3775,952
521,9	3732,781
522,3	3693,724
522,8	3645,352
523,2	3597,295
523,7	3555,724
524,1	3520,81
524,6	3479,952
525	3436,067
525,5	3392,01
525,9	3361,467
526,4	3323,638
526,8	3288,152
527,3	3247,181
527,7	3211,838
528,2	3180,181
528,6	3145,467
529,1	3102,41
529,5	3073,21
530	3035,01
530,4	3004,267
530,9	2968,152
531,3	2934,095
531,8	2901,124
532,2	2877,238
532,6	2834,638
533,1	2799,238
533,5	2765,838
534	2730,867
534,4	2696,01
534,9	2668,238
535,3	2623,695
535,8	2593,81
536,2	2566,638
536,7	2532,324
537,1	2503,21
537,6	2475,667
538	2440,095
538,5	2417,895
538,9	2389,467
539,4	2368,781
539,8	2346,981
540,3	2325,495
540,7	2296,867
541,2	2272,152
541,6	2246,867
542,1	2226,952
542,5	2195,952
543	2170,438
543,4	2141,124
543,9	2115,81
544,3	2097,838
544,8	2069,038
545,2	2039,181
545,7	2020,924
546,1	2002,524
546,5	1988,838
547	1971,781
547,4	1948,324
547,9	1930,695
548,3	1914,038
548,8	1894,267
549,2	1870,867
549,7	1845,981
550,1	1829,152
550,6	1805,981
551	1798,152
551,5	1778,752
551,9	1754,21
552,4	1736,067
552,8	1719,095
553,3	1696,981
553,7	1678,981
554,2	1657,724
554,6	1643,438
555,1	1633,867
555,5	1620,124
555,9	1604,781
556,4	1591,238
556,8	1579,952
557,3	1562,095
557,7	1547,752
558,2	1526,61
558,6	1515,524
559,1	1497,781
559,5	1481,181
560	1467,781
560,4	1453,181
560,9	1438,952
561,3	1425,295
561,8	1405,038
562,2	1400,752
562,7	1389,838
563,1	1375,038
563,6	1358,838
564	1344,181
564,4	1338,295
564,9	1329,838
565,3	1313,181
565,8	1303,581
566,2	1301,295
566,7	1295,467
567,1	1290,81
567,6	1278,152
568	1271,838
568,5	1261,81
568,9	1250,838
569,4	1232,238
569,8	1220,838
570,3	1204,524
570,7	1189,124
571,1	1175,095
571,6	1165,41
572	1154,552
572,5	1147,838
572,9	1135,438
573,4	1130,324
573,8	1127,724
574,3	1115,552
574,7	1104,838
575,2	1094,41
575,6	1089,01
576,1	1084,21
576,5	1081,01
576,9	1062,981
577,4	1053,181
577,8	1041,01
578,3	1034,895
578,7	1018,524
579,2	1011,152
579,6	993,438
580,1	990,924
580,5	985,895
581	985,095
581,4	973,81
581,9	967,467
582,3	958,781
582,7	958,038
583,2	953,895
583,6	949,381
584,1	941,41
584,5	937,581
585	929,895
585,4	918,124
585,9	905,581
586,3	899,895
586,8	894,295
587,2	884,41
587,6	884,467
588,1	883,381
588,5	878,438
589	873,267
589,4	866,838
589,9	857,01
590,3	850,324
590,8	841,581
591,2	835,267
591,7	833,324
592,1	828,524
592,5	822,41
593	815,01
593,4	812,381
593,9	801,41
594,3	792,067
594,8	781,752
595,2	774,838
595,7	766,61
596,1	764,124
596,6	759,181
597	759,095
597,4	754,581
597,9	756,495
598,3	758,724
598,8	758,038
599,2	755,867
599,7	750,295
600,1	738,324
600,6	731,867
601	723,61
601,4	723,381
601,9	721,667
602,3	711,438
602,8	709,667
603,2	708,838
603,7	709,952
604,1	706,124
604,6	690,381
605	677,124
605,4	678,295
605,9	668,695
606,3	663,524
606,8	657,381
607,2	651,267
607,7	646,924
608,1	646,21
608,6	643,152
609	646,267
609,4	647,295
609,9	640,324
610,3	640,724
610,8	640,238
611,2	638,181
611,7	630,781
612,1	623,324
612,6	621,895
613	623,724
613,4	621,124
613,9	613,781
614,3	609,124
614,8	608,21
615,2	599,552
615,7	594,952
616,1	587,467
616,6	576,381
617	573,524
617,4	569,638
617,9	568,667
618,3	574,438
618,8	569,124
619,2	565,495
619,7	572,724
620,1	568,952
620,5	569,152
621	561,181
621,4	554,695
621,9	550,124
622,3	545,867
622,8	539,038
623,2	534,552
623,6	529,238
624,1	528,495
624,5	523,981
625	526,438
625,4	527,838
625,9	523,752
626,3	525,038
626,8	517,867
627,2	515,924
627,6	506,867
628,1	492,695
628,5	488,724
629	483,467
629,4	478,952
629,9	478,381
630,3	466,724
630,7	468,124
631,2	471,981
631,6	469,495
632,1	464,01
632,5	462,695
633	460,181
633,4	464,895
633,8	464,21
634,3	459,352
634,7	453,667
635,2	447,81
635,6	443,724
636,1	439,352
636,5	432,152
636,9	420,181
637,4	412,924
637,8	407,21
638,3	406,495
638,7	402,152
639,2	399,781
639,6	400,924
640	403,467
640,5	407,238
640,9	408,295
641,4	406,324
641,8	407,067
642,2	403,41
642,7	401,81
643,1	402,095
643,6	394,61
644	392,781
644,5	393,695
644,9	387,095
645,3	382,81
645,8	374,895
646,2	372,267
646,7	373,181
647,1	371,381
647,6	367,695
648	369,524
648,4	365,381
648,9	364,495
649,3	358,181
649,8	356,067
650,2	352,667
650,6	350,324
651,1	346,067
651,5	351,324
652	349,41
652,4	349,181
652,9	346,838
653,3	343,438
653,7	342,095
654,2	342,895
654,6	331,867
655,1	332,61
655,5	337,952
655,9	334,781
656,4	335,124
656,8	329,295
657,3	324,952
657,7	328,924
658,2	322,981
658,6	316,81
659	317,581
659,5	316,01
659,9	317,924
660,4	316,667
660,8	313,181
661,2	309,581
661,7	306,781
662,1	304,038
662,6	301,21
663	300,981
663,4	299,695
663,9	299,495
664,3	300,981
664,8	297,238
665,2	289,41
665,6	281,981
666,1	280,067
666,5	278,667
667	276,724
667,4	273,41
667,9	273,381
668,3	274,952
668,7	274,924
669,2	272,067
669,6	270,01
670,1	267,238
670,5	265,524
670,9	258,352
671,4	255,638
671,8	259,381
672,3	257,61
672,7	254,438
673,1	248,981
673,6	248,552
674	254,038
674,5	254,267
674,9	241,495
675,3	237,581
675,8	234,467
676,2	243,152
676,7	234,924
677,1	232,638
677,5	227,152
678	233,324
678,4	236,324
678,9	236,981
679,3	229,324
679,7	232,838
680,2	227,152
680,6	225,467
681,1	224,124
681,5	221,467
681,9	222,324
682,4	221,21
682,8	222,267
683,3	226,695
683,7	226,724
684,1	223,324
684,6	217,41
685	212,781
685,5	212,324
685,9	207,781
686,3	200,981
686,8	197,095
687,2	196,352
687,7	197,838
688,1	190,381
688,5	187,81
689	187,581
689,4	184,724
689,9	187,067
690,3	183,867
690,7	183,638
691,2	192,981
691,6	195,41
692	196,781
692,5	197,552
692,9	194,724
693,4	194,81
693,8	190,524
694,2	182,124
694,7	174,381
695,1	170,352
695,6	175,552
696	176,467
696,4	175,638
696,9	172,952
697,3	170,752
697,8	173,181
698,2	170,895
698,6	163,352
699,1	158,81
699,5	160,695
699,9	161,724
700,4	161,181
700,8	161,267
701,3	163,695
701,7	161,724
702,1	163,295
702,6	159,752
703	162,152
703,5	166,295
703,9	164,695
704,3	162,724
704,8	160,095
705,2	160,638
705,6	164,352
706,1	159,695
706,5	157,952
707	155,81
707,4	155,152
707,8	154,267
708,3	153,524
708,7	149,124
709,2	148,838
709,6	144,238
710	146,438
710,5	140,867
710,9	145,867
711,3	141,267
711,8	142,495
712,2	141,924
712,7	140,867
713,1	139,524
713,5	144,867
714	142,667
714,4	142,752
714,8	138,438
715,3	134,867
715,7	136,695
716,2	132,724
716,6	132,752
717	128,038
717,5	128,324
717,9	128,81
718,3	128,267
718,8	124,238
719,2	121,581
719,7	117,867
720,1	120,781
720,5	123,038
721	120,61
721,4	122,838
721,8	127,724
722,3	126,867
722,7	127,61
723,2	121,524
723,6	111,638
724	109,01
724,5	103,352
724,9	100,952
725,3	101,295
725,8	98,41
726,2	98,238
726,7	103,152
727,1	102,838
727,5	106,638
728	103,581
728,4	102,552
728,8	100,067
729,3	99,238
729,7	98,638
730,1	100,067
730,6	98,924
731	99,095
731,5	102,952
731,9	102,61
732,3	106,724
732,8	109,81
733,2	108,924
733,6	108,952
734,1	104,41
734,5	99,324
734,9	101,524
735,4	99,524
735,8	89,352
736,3	91,552
736,7	88,124
737,1	88,667
737,6	88,352
738	85,924
738,4	82,838
738,9	87,61
739,3	83,467
739,7	82,581
740,2	81,667
740,6	83,095
741,1	85,238
741,5	84,067
741,9	87,781
742,4	92,152
742,8	89,238
743,2	91,638
743,7	84,438
744,1	80,124
744,5	79,41
745	72,124
745,4	66,867
745,8	70,895
746,3	70,895
746,7	73,581
747,2	73,981
747,6	78,067
748	84,038
748,5	87,438
748,9	81,924
749,3	82,124
749,8	80,524
750,2	84,295
750,6	78,067
751,1	79,267
751,5	77,295
751,9	83,352
752,4	83,238
752,8	86,267
753,3	80,867
753,7	86,038
754,1	78,924
754,6	78,552
755	73,638
755,4	66,838
755,9	66,095
756,3	63,124
756,7	62,495
757,2	66,695
757,6	64,552
758	66,781
758,5	71,438
758,9	70,01
759,3	73,781
759,8	75,381
760,2	68,838
760,6	69,324
761,1	66,238
761,5	63,924
761,9	62,724
762,4	57,924
762,8	53,524
763,3	57,352
763,7	59,552
764,1	60,752
764,6	63,41
765	64,238
765,4	66,81
765,9	66,724
766,3	70,552
766,7	65,352
767,2	66,181
767,6	68,01
768	69,324
768,5	66,41
768,9	67,895
769,3	61,61
769,8	61,238
770,2	60,381
770,6	55,667
771,1	55,752
771,5	60,838
771,9	58,181
772,4	61,867
772,8	65,552
773,2	67,61
773,7	64,838
774,1	64,581
774,5	60,438
775	64,638
775,4	61,952
775,8	58,295
776,3	56,981
776,7	59,267
777,1	56,81
777,6	57,924
778	58,238
778,4	58,295
778,9	59,867
779,3	58,667
779,7	62,181
780,2	58,924
780,6	59,524
781	50,952
781,5	45,01
781,9	45,638
782,3	42,838
782,8	39,667
783,2	42,581
783,6	41,667
784,1	44,438
784,5	47,724
784,9	42,752
785,4	45,01
785,8	47,61
786,2	48,724
786,7	50,181
787,1	49,152
787,5	50,324
788	51,895
788,4	52,467
788,8	44,867
789,3	41,638
789,7	39,581
790,1	37,838
790,6	38,095
791	33,238
791,4	33,895
791,9	32,638
792,3	32,695
792,7	37,095
793,2	34,41
793,6	34,038
794	37,838
794,5	33,267
794,9	37,467
795,3	41,381
795,8	34,267
796,2	37,01
796,6	36,181
797,1	37,924
797,5	36,581
797,9	33,81
798,4	26,381
798,8	27,781
799,2	26,381
799,7	27,181
800,1	25,295
800,5	29,067
801	33,524
801,4	36,552
801,8	34,352
802,2	37,695
802,7	33,695
803,1	37,095
803,5	37,21
804	29,352
804,4	34,552
804,8	36,01
805,3	38,495
805,7	39,095
806,1	35,552
806,6	31,838
807	36,838
807,4	34,467
807,9	33,467
808,3	31,438
808,7	33,638
809,2	36,181
809,6	41,867
810	39,438
810,4	36,838
810,9	41,324
811,3	44,238
811,7	44,41
812,2	45,552
812,6	41,695
813	47,867
813,5	48,552
813,9	43,581
814,3	38,124
814,8	37,067
815,2	33,552
815,6	32,695
816,1	31,41
816,5	29,552
816,9	32,838
817,3	35,324
817,8	39,038
818,2	40,01
818,6	37,752
819,1	35,695
819,5	34,238
819,9	31,81
820,4	28,552
820,8	22,81
821,2	17,01
821,7	22,724
822,1	22,495
822,5	29,61
822,9	26,267
823,4	29,581
823,8	34,752
824,2	41,41
824,7	37,352
825,1	32,724
825,5	28,495
826	27,838
826,4	23,495
826,8	16,324
827,3	14,524
827,7	13,61
828,1	18,781
828,5	15,181
829	14,181
829,4	16,01
829,8	17,095
830,3	13,41
830,7	16,838
831,1	12,581
831,6	18,067
832	22,981
832,4	24,124
832,8	27,152
833,3	30,295
833,7	26,781
834,1	26,952
834,6	20,267
835	18,638
835,4	20,438
835,8	17,924
836,3	13,552
836,7	13,924
837,1	14,867
837,6	19,581
838	19,867
838,4	17,324
838,9	16,01
839,3	16,467
839,7	17,067
840,1	11,981
840,6	11,038
841	17,695
841,4	17,295
841,9	22,724
842,3	23,81
842,7	24,638
843,1	32,152
843,6	32,895
844	29,181
844,4	30,21
844,9	27,124
845,3	27,724
845,7	25,581
846,2	19,924
846,6	12,552
847	10,295
847,4	6,752
847,9	4,238
848,3	6,238
848,7	6,724
849,2	12,524
849,6	15,438
850	19,067
850,4	21,495
850,9	23,638
851,3	20,752
851,7	23,01
852,2	17,152
852,6	23,152
853	18,838
853,4	13,867
853,9	13,038
854,3	13,781
854,7	15,838
855,2	16,495
855,6	12,295
856	9,752
856,4	8,695
856,9	6,695
857,3	7,695
857,7	4,952
858,2	11,924
858,6	11,981
859	14,181
859,4	19,152
859,9	16,41
860,3	12,152
860,7	11,295
861,1	9,81
861,6	7,095
862	11,495
862,4	10,21
862,9	15,324
863,3	18,352
863,7	14,924
864,1	14,067
864,6	13,581
865	7,295
865,4	7,467
865,9	8,752
866,3	4,381
866,7	4,952
867,1	1,495
867,6	3,438
868	5,495
868,4	4,41
868,8	3,61
869,3	7,381
869,7	12,752
870,1	9,467
870,6	7,667
871	-50,448
871,4	-44,79
871,8	-46,99
872,3	-47,476
872,7	-47,562
873,1	-46,648
873,5	-44,59
874	11,838
874,4	7,867
874,8	6,324
875,3	7,238
875,7	4,21
876,1	7,895
876,5	8,924
877	9,238
877,4	8,21
877,8	8,752
878,2	12,781
878,7	13,41
879,1	15,638
879,5	15,581
879,9	17,81
880,4	14,067
880,8	15,067
881,2	11,467
881,7	12,124
882,1	11,21
882,5	10,81
882,9	8,01
883,4	9,152
883,8	9,181
884,2	8,667
884,6	8,067
885,1	7,895
885,5	5,352
885,9	5,895
886,3	11,238
886,8	10,152
887,2	8,095
887,6	3,895
888	-0,39
888,5	2,381
888,9	-0,59
889,3	-0,733
889,8	1,838
890,2	2,438
890,6	-1,619
891	1,752
891,5	-1,533
891,9	5,095
892,3	2,667
892,7	1,152
893,2	3,267
893,6	9,295
894	8,695
894,4	8,81
894,9	7,124
895,3	8,61
895,7	9,067
896,1	10,067
896,6	11,067
897	8,924
897,4	13,695
897,8	13,952
898,3	13,295
898,7	12,895
899,1	9,095
899,5	7,352
900	5,981
900,4	1,467
900,8	-4,705
901,2	-9,276
901,7	-7,962
902,1	-2,619
902,5	-0,99
902,9	2,01
903,4	5,238
903,8	7,41
904,2	8,152
904,6	5,952
905,1	4,752
905,5	7,638
905,9	9,581
906,3	7,952
906,8	10,667
907,2	13,724
907,6	19,41
908	17,752
908,5	10,552
908,9	7,638
909,3	4,695
909,7	3,21
910,2	-0,448
910,6	-1,048
911	-3,962
911,4	-1,876
911,9	-3,305
912,3	-0,876
912,7	4,838
913,1	6,067
913,6	3,124
914	2,038
914,4	3,981
914,8	4,238
915,3	4,524
915,7	-1,133
916,1	3,267
916,5	1,181
916,9	3,952
917,4	2,781
917,8	2,524
918,2	-0,876
918,6	-3,162
919,1	-5,419
919,5	-3,276
919,9	-3,562
920,3	-4,419
920,8	-4,905
921,2	-2,848
921,6	-4,305
922	-4,19
922,5	-6,476
922,9	-5,048
923,3	-2,79
923,7	-0,333
924,2	-0,705
924,6	0,61
925	-1,105
925,4	-2,276
925,8	-1,133
926,3	-0,762
926,7	-4,19
927,1	0,467
927,5	2,267
928	0,552
928,4	-1,448
928,8	-1,133
929,2	-4,133
929,7	-2,105
930,1	-4,133
930,5	-3,076
930,9	1,838
931,3	6,752
931,8	5,838
932,2	5,295
932,6	5,667
933	-0,619
933,5	-0,19
933,9	0,238
934,3	0,495
934,7	-3,076
935,2	0,695
935,6	-1,733
936	3,524
936,4	5,781
936,8	3,838
937,3	3,381
937,7	4,524
938,1	6,981
938,5	6,01
939	5,61
939,4	0,838
939,8	-0,619
940,2	-4,19
940,6	1,095
941,1	-5,219
941,5	-0,276
941,9	-5,619
942,3	-7,505
942,8	-1,276
943,2	2,81
943,6	-5,248
944	-1,733
944,4	-2,59
944,9	0,81
945,3	4,724
945,7	-5,99
946,1	-9,99
946,6	-8,533
947	-10,962
947,4	-10,876
947,8	-8,162
948,2	-9,048
948,7	-5,19
949,1	-4,533
949,5	0,867
949,9	5,724
950,3	6,524
950,8	5,667
951,2	3,21
951,6	0,124
952	4,038
952,5	0,467
952,9	-3,419
953,3	-2,933
953,7	1,21
954,1	2,41
954,6	9,667
955	9,038
955,4	5,895
955,8	8,095
956,2	6,038
956,7	2,181
957,1	-0,933
957,5	-0,99
957,9	-3,419
958,3	-1,048
958,8	0,524
959,2	2,867
959,6	5,867
960	7,638
960,5	7,724
960,9	8,952
961,3	7,895
961,7	7,01
962,1	3,267
962,6	0,867
963	6,01
963,4	1,324
963,8	0,952
964,2	2,981
964,7	1,124
965,1	5,067
965,5	4,524
965,9	-0,162
966,3	2,095
966,8	1,41
967,2	3,152
967,6	1,381
968	-1,876
968,4	-3,79
968,9	0,095
969,3	0,695
969,7	-1,162
970,1	-1,305
970,5	-1,533
971	3,952
971,4	2,781
971,8	2,41
972,2	3,695
972,6	4,695
973,1	1,781
973,5	2,295
973,9	-0,962
974,3	-0,219
974,7	-0,019
975,2	-0,39
975,6	-2,533
976	0,495
976,4	0,638
976,8	-1,619
977,3	-2,419
977,7	-2,133
978,1	-4,333
978,5	-2,076
978,9	-8,219
979,4	-9,048
979,8	-8,505
980,2	-5,305
980,6	-10,905
981	-8,619
981,5	-10,705
981,9	-8,162
982,3	-8,19
982,7	-3,99
983,1	-7,19
983,6	-5,076
984	-2,305
984,4	0,21
984,8	4,067
985,2	3,067
985,6	-2,819
986,1	0,895
986,5	7,038
986,9	-0,248
987,3	3,695
987,7	2,467
988,2	2,467
988,6	3,867
989	0,724
989,4	-5,876
989,8	-0,962
990,3	-7,762
990,7	-11,19
991,1	-8,019
991,5	-6,705
991,9	-1,705
992,3	2,81
992,8	4,067
993,2	8,895
993,6	11,752
994	11,952
994,4	11,095
994,9	8,238
995,3	1,581
995,7	-1,848
996,1	-6,219
996,5	-4,505
996,9	-7,448
997,4	-5,648
997,8	-9,533
998,2	-8,962
998,6	-13,705
999	-10,59
999,5	-11,962
999,9	-11,762
1000,3	-15,248
1000,7	-12,219
1001,1	-10,562
1001,5	-6,362
1002	-4,048
1002,4	-4,505
1002,8	-4,39
1003,2	-1,733
1003,6	-1,819
1004	1,324
1004,5	-1,562
1004,9	-5,362
1005,3	-6,333
1005,7	-3,248
1006,1	-5,619
1006,6	-8,419
1007	-11,676
1007,4	-9,305
1007,8	-6,619
1008,2	-5,39
1008,6	-9,048
1009,1	-7,419
1009,5	-0,248
1009,9	2,667
1010,3	5,238
1010,7	7,152
1011,1	2,61
1011,6	5,552
1012	6,724
1012,4	0,467
1012,8	-1,905
1013,2	-1,848
1013,6	-3,019
1014,1	2,352
1014,5	1,695
1014,9	0,61
1015,3	6,21
1015,7	8,667
1016,1	7,981
1016,6	5,867
1017	5,981
1017,4	5,952
1017,8	5,667
1018,2	5,038
1018,6	4,01
1019,1	1,581
1019,5	2,152
1019,9	-0,619
1020,3	-3,676
1020,7	-5,162
1021,1	-10,648
1021,6	-11,133
1022	-4,419
1022,4	-4,533
1022,8	-3,505
1023,2	-1,619
1023,6	1,61
1024,1	6,038
1024,5	7,924
1024,9	-1,248
1025,3	2,524
1025,7	1,467
1026,1	5,752
1026,6	6,867
1027	9,067
1027,4	11,181
1027,8	16,581
1028,2	12,61
1028,6	16,124
1029	16,895
1029,5	17,581
1029,9	13,552
1030,3	5,524
1030,7	5,724
1031,1	6,638
1031,5	0,724
1032	-2,419
1032,4	-4,505
1032,8	-1,333
1033,2	5,552
1033,6	3,095
1034	1,895
1034,4	7,61
1034,9	5,867
1035,3	1,838
1035,7	1,981
1036,1	-1,619
1036,5	2,095
1036,9	2,21
1037,4	4,381
1037,8	4,238
1038,2	6,152
1038,6	1,267
1039	3,781
1039,4	5,21
1039,8	-0,99
1040,3	-4,562
1040,7	-7,048
1041,1	-4,99
1041,5	-0,076
1041,9	-4,362
1042,3	-9,533
1042,7	-1,705
1043,2	-2,162
1043,6	-1,876
1044	-2,105
1044,4	-3,362
1044,8	-0,505
1045,2	1,81
1045,6	2,381
1046,1	2,924
1046,5	8,61
1046,9	6,41
1047,3	2,867
1047,7	5,01
1048,1	-0,048
1048,5	-3,59
1049	-1,105
1049,4	-2,533
1049,8	-1,305
1050,2	2,61
1050,6	6,095
1051	12,467
1051,4	13,895
1051,9	7,267
1052,3	15,61
1052,7	14,524
1053,1	11,867
1053,5	6,724
1053,9	6,724
1054,3	6,01
1054,8	12,495
1055,2	3,295
1055,6	8,581
1056	8,095
1056,4	6,752
1056,8	1,695
1057,2	-0,848
1057,6	-5,99
1058,1	-9,505
1058,5	-18,59
1058,9	-15,505
1059,3	-13,619
1059,7	-10,162
1060,1	-7,162
1060,5	-2,448
1061	1,724
1061,4	5,038
1061,8	5,267
1062,2	4,267
1062,6	6,838
1063	10,552
1063,4	8,781
1063,8	6,324
1064,3	4,867
1064,7	5,238
1065,1	5,352
1065,5	-0,248
1065,9	-5,848
1066,3	-7,676
1066,7	-10,076
1067,1	-11,133
1067,6	-13,048
1068	-19,648
1068,4	-17,619
1068,8	-11,819
1069,2	-13,448
1069,6	-13,648
1070	-7,076
1070,4	-8,305
1070,9	-3,848
1071,3	-2,505
1071,7	-6,876
1072,1	-3,476
1072,5	1,124
1072,9	-5,276
1073,3	-4,39
1073,7	0,838
1074,2	1,152
1074,6	0,724
1075	-2,219
1075,4	-4,59
1075,8	3,181
1076,2	3,924
1076,6	1,467
1077	1,01
1077,5	7,581
1077,9	9,695
1078,3	4,638
1078,7	1,552
1079,1	-0,705
1079,5	-3,933
1079,9	-4,219
1080,3	-9,505
1080,7	-7,248
1081,2	2,867
1081,6	0,21
1082	1,038
1082,4	8,067
1082,8	7,467
1083,2	8,01
1083,6	7,61
1084	4,267
1084,5	2,838
1084,9	3,238
1085,3	-6,162
1085,7	-7,019
1086,1	-8,162
1086,5	-10,848
1086,9	-9,648
1087,3	-2,905
1087,7	-3,105
1088,2	1,124
1088,6	2,324
1089	3,124
1089,4	4,295
1089,8	0,695
1090,2	-3,476
1090,6	-6,448
1091	-4,676
1091,4	-4,248
1091,9	-4,248
1092,3	1,41
1092,7	2,924
1093,1	6,295
1093,5	9,21
1093,9	4,867
1094,3	8,381
1094,7	5,695
1095,1	2,238
1095,5	4,895
1096	-0,39
1096,4	1,152
1096,8	5,295
1097,2	0,638
1097,6	9,238
1098	6,895
1098,4	9,81
1098,8	15,838
1099,2	19,952
1099,6	16,895
1100,1	13,01
1100,5	3,924
1100,9	3,324
1101,3	0,352
1101,7	-7,133
1102,1	-11,019
1102,5	-5,99
1102,9	0,267
1103,3	3,181
1103,7	4,867
1104,2	1,067
1104,6	7,095
1105	6,438
1105,4	4,467
1105,8	1,381
1106,2	1,238
1106,6	0,21
1107	2,61
1107,4	0,367
1107,8	0,267
1108,3	-0,733
