Data from Subt2_156.txt Node
Date: Sat Aug 26 18:33:03 MSK 2023
User: vat
Spectrometer: MAYP114033
Trigger mode: 0
Integration Time (sec): 1,000000E0
Scans to average: 5
Electric dark correction enabled: true
Nonlinearity correction enabled: false
Boxcar width: 3
XAxis mode: Wavelengths
Number of Pixels in Spectrum: 2068
>>>>>Begin Spectral Data<<<<<
199,4	0,367
199,9	-0,253
200,4	-2
200,8	-1,048
201,3	-4,019
201,8	-1,619
202,2	-5,733
202,7	-1,619
203,2	-2,676
203,6	-1,962
204,1	-2,476
204,6	-0,076
205	0,724
205,5	4,952
206	-0,276
206,4	1,524
206,9	4,524
207,4	5,752
207,8	3,752
208,3	-1,619
208,8	-1,276
209,2	0,495
209,7	1,124
210,2	-0,79
210,6	-1,133
211,1	-0,99
211,5	0,695
212	2,21
212,5	1,381
212,9	-0,133
213,4	-2,59
213,9	-3,676
214,3	0,295
214,8	6,21
215,3	2,438
215,7	4,524
216,2	5,695
216,7	8,324
217,1	8,381
217,6	8,067
218,1	2,867
218,5	1,952
219	-4,905
219,5	-3,99
219,9	-8,79
220,4	-5,733
220,9	-8,448
221,3	-6,048
221,8	-3,39
222,3	1,581
222,7	0,867
223,2	4,781
223,6	-0,219
224,1	0,552
224,6	2,524
225	-1,448
225,5	-2,99
226	-4,076
226,4	-4,162
226,9	-0,876
227,4	0,838
227,8	-10,248
228,3	-6,019
228,8	-2,076
229,2	-0,819
229,7	-2,905
230,2	-0,419
230,6	3,41
231,1	13,095
231,5	10,267
232	7,095
232,5	8,01
232,9	8,895
233,4	7,61
233,9	2,724
234,3	2,495
234,8	3,667
235,3	4,324
235,7	5,524
236,2	12,01
236,7	7,21
237,1	7,295
237,6	0,781
238,1	0,524
238,5	-2,848
239	-5,19
239,4	-4,448
239,9	-2,848
240,4	-1,819
240,8	4,095
241,3	3,238
241,8	5,524
242,2	3,552
242,7	-5,419
243,2	-3,705
243,6	-5,819
244,1	-4,79
244,6	-4,933
245	-4,419
245,5	-1,505
245,9	2,638
246,4	7,038
246,9	8,524
247,3	6,61
247,8	10,21
248,3	11,152
248,7	6,695
249,2	7,21
249,7	-0,419
250,1	4,752
250,6	1,752
251	0,21
251,5	-1,676
252	1,324
252,4	4,038
252,9	6,895
253,4	-1,333
253,8	2,124
254,3	4,21
254,8	4,524
255,2	7,267
255,7	1,552
256,1	2,152
256,6	2,924
257,1	0,752
257,5	-3,219
258	-0,762
258,5	-3,505
258,9	-4,79
259,4	-7,79
259,9	-3,819
260,3	-3,105
260,8	-3,076
261,2	-6,933
261,7	-10,448
262,2	-11,048
262,6	-13,162
263,1	-13,648
263,6	-10,219
264	-7,905
264,5	-0,162
264,9	-1,733
265,4	1,552
265,9	1,667
266,3	5,181
266,8	1,638
267,3	0,867
267,7	-3,248
268,2	-0,448
268,7	-0,048
269,1	4,524
269,6	-0,562
270	1,981
270,5	1,924
271	1,467
271,4	6,038
271,9	0,038
272,4	-2,048
272,8	-1,076
273,3	-2,876
273,7	0,838
274,2	-0,476
274,7	-0,333
275,1	4,752
275,6	7,295
276,1	1,238
276,5	4,867
277	2,067
277,4	6,124
277,9	5,981
278,4	8,438
278,8	8,667
279,3	14,581
279,8	11,095
280,2	12,867
280,7	10,867
281,1	6,724
281,6	1,438
282,1	0,81
282,5	-0,105
283	-0,676
283,4	-1,676
283,9	-1,533
284,4	3,038
284,8	10,095
285,3	7,01
285,8	8,181
286,2	8,495
286,7	4,552
287,1	3,438
287,6	-0,905
288,1	-6,733
288,5	-2,076
289	-6,248
289,5	-5,619
289,9	-7,933
290,4	-6,876
290,8	-5,876
291,3	-4,39
291,8	-3,619
292,2	0,838
292,7	3,695
293,1	8,467
293,6	11,981
294,1	12,695
294,5	13,81
295	12,124
295,5	10,152
295,9	8,238
296,4	8,724
296,8	5,781
297,3	2,667
297,8	-2,819
298,2	-7,019
298,7	0,152
299,1	-0,705
299,6	-2,762
300,1	-1,619
300,5	2,667
301	6,124
301,5	13,41
301,9	7,838
302,4	4,724
302,8	3,667
303,3	3,781
303,8	-1,076
304,2	-2,705
304,7	-9,162
305,1	-11,448
305,6	-11,79
306,1	-7,162
306,5	-9,333
307	-1,476
307,4	2,981
307,9	4,924
308,4	5,695
308,8	2,552
309,3	-0,933
309,8	-2,248
310,2	-5,362
310,7	-9,819
311,1	-8,333
311,6	-7,419
312,1	1,781
312,5	6,095
313	10,552
313,4	9,124
313,9	11,01
314,4	8,638
314,8	7,324
315,3	3,81
315,7	-1,562
316,2	-4,448
316,7	-2,133
317,1	3,324
317,6	4,667
318	9,238
318,5	7,21
319	8,067
319,4	6,581
319,9	9,781
320,3	7,952
320,8	6,638
321,3	6,552
321,7	9,381
322,2	6,21
322,6	9,724
323,1	5,895
323,6	2,895
324	2,324
324,5	-2,133
324,9	-0,819
325,4	-0,076
325,9	0,21
326,3	4,124
326,8	6,067
327,2	0,895
327,7	1,638
328,2	1,952
328,6	8,552
329,1	2,352
329,5	-5,362
330	-8,448
330,5	-0,505
330,9	2,952
331,4	2,667
331,8	-1,162
332,3	3,895
332,8	8,267
333,2	7,924
333,7	8,924
334,1	3,41
334,6	-1,99
335,1	-3,705
335,5	-5,933
336	-8,819
336,4	-4,533
336,9	-1,79
337,4	3,438
337,8	6,152
338,3	10,267
338,7	14,467
339,2	15,21
339,7	18,581
340,1	10,924
340,6	6,638
341	5,41
341,5	1,238
342	-4,333
342,4	-6,105
342,9	-12,876
343,3	-10,905
343,8	-8,962
344,2	-7,762
344,7	3,352
345,2	4,495
345,6	7,381
346,1	12,067
346,5	6,381
347	5,552
347,5	4,381
347,9	2,495
348,4	0,324
348,8	1,467
349,3	0,41
349,8	7,438
350,2	14,124
350,7	13,438
351,1	11,352
351,6	16,867
352	17,952
352,5	18,524
353	27,467
353,4	24,295
353,9	35,352
354,3	41,781
354,8	48,695
355,3	63,381
355,7	78,638
356,2	89,867
356,6	109,324
357,1	125,438
357,5	146,752
358	173,295
358,5	194,924
358,9	223,381
359,4	255,981
359,8	294,724
360,3	343,095
360,8	387,438
361,2	440,152
361,7	501,238
362,1	570,724
362,6	647,267
363	723,438
363,5	806,981
364	906,524
364,4	996,324
364,9	1092,467
365,3	1180,81
365,8	1263,495
366,3	1346,524
366,7	1413,81
367,2	1467,952
367,6	1521,381
368,1	1566,381
368,5	1594,924
369	1607,552
369,5	1612,724
369,9	1606,61
370,4	1585,038
370,8	1551,067
371,3	1499,924
371,7	1446,981
372,2	1387,41
372,7	1320,724
373,1	1251,352
373,6	1177,695
374	1106,181
374,5	1028,895
374,9	956,238
375,4	888,867
375,9	821,038
376,3	751,095
376,8	689,781
377,2	632,724
377,7	578,952
378,2	527,638
378,6	482,438
379,1	441,581
379,5	408,324
380	380,752
380,4	348,667
380,9	325,867
381,4	301,438
381,8	280,124
382,3	258,324
382,7	237,381
383,2	215,438
383,6	201,324
384,1	183,838
384,6	173,638
385	158,924
385,5	144,81
385,9	133,667
386,4	122,038
386,8	114,552
387,3	107,695
387,7	99,01
388,2	93,781
388,7	88,581
389,1	82,867
389,6	82,81
390	73,524
390,5	68,524
390,9	67,295
391,4	61,61
391,9	57,067
392,3	54,495
392,8	47,181
393,2	42,095
393,7	37,581
394,1	26,381
394,6	25,352
395,1	27,438
395,5	25,838
396	28,21
396,4	31,352
396,9	31,267
397,3	37,352
397,8	37,295
398,2	36,81
398,7	35,952
399,2	31,21
399,6	30,238
400,1	31,752
400,5	26,724
401	25,981
401,4	18,61
401,9	24,324
402,4	27,267
402,8	23,381
403,3	25,095
403,7	24,238
404,2	25,552
404,6	28,038
405,1	22,867
405,5	17,781
406	17,81
406,5	13,324
406,9	17,438
407,4	17,695
407,8	23,524
408,3	26,295
408,7	27,295
409,2	34,067
409,6	40,124
410,1	43,781
410,6	46,638
411	48,01
411,5	51,152
411,9	56,695
412,4	58,724
412,8	62,181
413,3	65,181
413,7	64,324
414,2	65,067
414,7	69,724
415,1	78,667
415,6	86,21
416	86,838
416,5	93,438
416,9	94,752
417,4	103,067
417,8	111,781
418,3	116,61
418,8	120,552
419,2	123,667
419,7	127,21
420,1	137,295
420,6	136,581
421	134,81
421,5	138,438
421,9	142,781
422,4	149,095
422,8	148,981
423,3	154,124
423,8	158,181
424,2	161,838
424,7	164,21
425,1	165,61
425,6	172,152
426	177,467
426,5	188,21
426,9	202,867
427,4	208,638
427,9	212,867
428,3	223,695
428,8	233,01
429,2	243,038
429,7	245,667
430,1	248,467
430,6	261,581
431	273,981
431,5	282,552
431,9	284,61
432,4	295,438
432,8	310,867
433,3	325,21
433,8	336,152
434,2	350,752
434,7	367,895
435,1	391,067
435,6	412,981
436	428,124
436,5	448,581
436,9	465,067
437,4	485,61
437,8	505,267
438,3	530,01
438,8	551,124
439,2	578,295
439,7	602,238
440,1	631,295
440,6	659,067
441	680,981
441,5	709,038
441,9	740,838
442,4	763,267
442,8	792,552
443,3	829,467
443,7	861,952
444,2	904,695
444,7	935,867
445,1	973,61
445,6	1018,267
446	1066,467
446,5	1098,581
446,9	1137,038
447,4	1175,695
447,8	1224,467
448,3	1269,81
448,7	1312,067
449,2	1352,524
449,6	1405,438
450,1	1460,981
450,6	1518,238
451	1570,238
451,5	1618,524
451,9	1676,752
452,4	1736,01
452,8	1794,724
453,3	1851,581
453,7	1903,01
454,2	1960,067
454,6	2018,838
455,1	2077,581
455,5	2130,467
456	2197,724
456,4	2248,181
456,9	2314,267
457,3	2375,638
457,8	2439,638
458,3	2505,752
458,7	2577,981
459,2	2639,095
459,6	2714,381
460,1	2781,981
460,5	2847,638
461	2923,21
461,4	2988,638
461,9	3054,724
462,3	3119,381
462,8	3190,295
463,2	3258,952
463,7	3337,838
464,1	3402,867
464,6	3485,695
465	3560,724
465,5	3639,981
466	3713,01
466,4	3783,724
466,9	3857,41
467,3	3930,752
467,8	3995,838
468,2	4055,267
468,7	4129,752
469,1	4200,981
469,6	4269,038
470	4333,41
470,5	4404,381
470,9	4463,01
471,4	4539,781
471,8	4592,01
472,3	4648,895
472,7	4720,952
473,2	4785,41
473,6	4837,638
474,1	4908,067
474,5	4968,01
475	5038,524
475,4	5102,495
475,9	5155,467
476,4	5206,581
476,8	5260,152
477,3	5304,181
477,7	5350,61
478,2	5395,895
478,6	5444,295
479,1	5485,152
479,5	5528,552
480	5578,181
480,4	5623,067
480,9	5662,638
481,3	5693,352
481,8	5725,381
482,2	5753,095
482,7	5787,552
483,1	5814,438
483,6	5837,124
484	5861,467
484,5	5892,467
484,9	5910,524
485,4	5940,867
485,8	5956,495
486,3	5981,667
486,7	6000,581
487,2	6014,724
487,6	6025,552
488,1	6037,724
488,5	6040,01
489	6051,61
489,4	6051,495
489,9	6051,552
490,4	6049,552
490,8	6048,152
491,3	6052,981
491,7	6048,952
492,2	6041,295
492,6	6031,781
493,1	6028,724
493,5	6017,324
494	6000,981
494,4	5974,267
494,9	5956,324
495,3	5942,581
495,8	5920,781
496,2	5896,952
496,7	5869,952
497,1	5849,695
497,6	5831,467
498	5815,438
498,5	5787,61
498,9	5758,952
499,4	5730,981
499,8	5715,067
500,3	5687,838
500,7	5656,267
501,2	5623,295
501,6	5591,095
502,1	5564,01
502,5	5531,981
503	5495,667
503,4	5459,581
503,9	5426,181
504,3	5393,724
504,8	5355,152
505,2	5317,81
505,7	5277,952
506,1	5245,467
506,6	5199,038
507	5169,181
507,5	5127,438
507,9	5084,952
508,4	5045,667
508,8	5012,352
509,3	4971,981
509,7	4938,067
510,2	4888,752
510,6	4845,067
511,1	4806,695
511,5	4769,095
512	4719,352
512,4	4670,81
512,9	4625,724
513,3	4587,752
513,8	4544,267
514,2	4502,181
514,7	4452,581
515,1	4413,981
515,6	4369,695
516	4322,952
516,5	4275,838
516,9	4226,438
517,4	4179,952
517,8	4134,267
518,3	4088,781
518,7	4042,495
519,2	3999,152
519,6	3952,81
520,1	3910,552
520,5	3867,095
521	3820,01
521,4	3775,867
521,9	3736,438
522,3	3699,752
522,8	3657,638
523,2	3623,61
523,7	3578,267
524,1	3537,238
524,6	3496,181
525	3456,438
525,5	3413,838
525,9	3378,181
526,4	3328,552
526,8	3292,867
527,3	3257,495
527,7	3222,381
528,2	3189,267
528,6	3148,41
529,1	3107,924
529,5	3079,267
530	3044,61
530,4	3009,152
530,9	2973,095
531,3	2931,267
531,8	2896,781
532,2	2865,695
532,6	2833,867
533,1	2792,067
533,5	2763,981
534	2732,238
534,4	2702,067
534,9	2672,181
535,3	2638,067
535,8	2604,41
536,2	2580,581
536,7	2547,152
537,1	2514,981
537,6	2486,181
538	2457,352
538,5	2433,352
538,9	2400,267
539,4	2375,324
539,8	2349,952
540,3	2326,238
540,7	2302,781
541,2	2274,867
541,6	2246,295
542,1	2225,324
542,5	2199,552
543	2175,124
543,4	2148,952
543,9	2119,81
544,3	2100,352
544,8	2075,895
545,2	2053,895
545,7	2035,467
546,1	2014,552
546,5	1995,667
547	1972,81
547,4	1953,695
547,9	1934,667
548,3	1912,552
548,8	1892,067
549,2	1864,695
549,7	1848,181
550,1	1837,152
550,6	1814,552
551	1796,695
551,5	1782,924
551,9	1758,467
552,4	1745,181
552,8	1718,324
553,3	1695,324
553,7	1677,581
554,2	1658,981
554,6	1640,724
555,1	1631,61
555,5	1612,495
555,9	1600,924
556,4	1581,438
556,8	1564,381
557,3	1549,81
557,7	1535,01
558,2	1516,21
558,6	1507,467
559,1	1494,695
559,5	1483,981
560	1477,467
560,4	1465,981
560,9	1450,581
561,3	1436,952
561,8	1421,752
562,2	1409,124
562,7	1398,752
563,1	1383,095
563,6	1368,581
564	1356,667
564,4	1346,095
564,9	1329,124
565,3	1314,981
565,8	1302,067
566,2	1293,124
566,7	1280,381
567,1	1271,381
567,6	1261,295
568	1257,981
568,5	1247,01
568,9	1236,61
569,4	1225,524
569,8	1215,352
570,3	1203,438
570,7	1190,067
571,1	1177,524
571,6	1172,952
572	1165,124
572,5	1155,695
572,9	1149,467
573,4	1143,495
573,8	1137,895
574,3	1126,667
574,7	1110,695
575,2	1101,267
575,6	1088,41
576,1	1082,695
576,5	1073,238
576,9	1055,638
577,4	1048,152
577,8	1041,581
578,3	1033,067
578,7	1026,638
579,2	1021,524
579,6	1007,895
580,1	1006,038
580,5	999,895
581	994,181
581,4	984,895
581,9	976,495
582,3	964,695
582,7	963,352
583,2	959,41
583,6	952,295
584,1	948,01
584,5	939,638
585	937,095
585,4	923,21
585,9	915,495
586,3	904,838
586,8	897,181
587,2	884,467
587,6	885,638
588,1	880,467
588,5	880,124
589	876,01
589,4	873,067
589,9	868,495
590,3	863,124
590,8	855,867
591,2	847,638
591,7	845,895
592,1	834,238
592,5	829,952
593	820,552
593,4	810,667
593,9	794,095
594,3	786,838
594,8	773,41
595,2	771,581
595,7	766,324
596,1	763,581
596,6	765,638
597	771,838
597,4	769,124
597,9	765,438
598,3	758,295
598,8	750,724
599,2	744,867
599,7	740,152
600,1	729,495
600,6	723,124
601	721,524
601,4	727,381
601,9	731,724
602,3	723,952
602,8	719,924
603,2	716,01
603,7	711,124
604,1	705,238
604,6	693,781
605	678,752
605,4	679,81
605,9	671,724
606,3	663,295
606,8	656,924
607,2	653,324
607,7	646,124
608,1	644,352
608,6	645,181
609	647,724
609,4	652,095
609,9	647,324
610,3	645,181
610,8	644,924
611,2	638,695
611,7	629,524
612,1	622,41
612,6	618,21
613	623,238
613,4	615,267
613,9	610,838
614,3	608,41
614,8	610,838
615,2	605,752
615,7	604,152
616,1	600,067
616,6	598,267
617	593,781
617,4	591,467
617,9	582,752
618,3	583,638
618,8	580,152
619,2	571,81
619,7	571,324
620,1	566,01
620,5	568,581
621	566,267
621,4	561,867
621,9	552,267
622,3	549,124
622,8	541,352
623,2	537,267
623,6	526,524
624,1	525,581
624,5	517,067
625	521,61
625,4	520,781
625,9	521,952
626,3	518,924
626,8	514,781
627,2	509,952
627,6	503,952
628,1	496,695
628,5	493,295
629	484,21
629,4	485,895
629,9	486,352
630,3	480,41
630,7	482,324
631,2	478,352
631,6	473,952
632,1	472,41
632,5	468,667
633	466,152
633,4	458,695
633,8	458,038
634,3	454,152
634,7	451,067
635,2	446,867
635,6	443,267
636,1	439,01
636,5	438,638
636,9	428,867
637,4	426,781
637,8	419,01
638,3	415,495
638,7	412,295
639,2	409,867
639,6	412,438
640	410,981
640,5	411,952
640,9	410,581
641,4	410,867
641,8	409,61
642,2	404,581
642,7	403,324
643,1	404,124
643,6	398,181
644	399,667
644,5	403,867
644,9	402,21
645,3	404,067
645,8	397,038
646,2	398,495
646,7	396,295
647,1	393,438
647,6	385,324
648	384,695
648,4	376,924
648,9	376,952
649,3	369,81
649,8	371,695
650,2	374,295
650,6	373,438
651,1	363,21
651,5	364,181
652	358,952
652,4	352,924
652,9	346,01
653,3	339,495
653,7	335,924
654,2	336,124
654,6	332,152
655,1	333,295
655,5	337,524
655,9	337,61
656,4	333,952
656,8	332,952
657,3	333,581
657,7	335,095
658,2	332,038
658,6	327,752
659	326,581
659,5	320,867
659,9	316,095
660,4	310,895
660,8	305,61
661,2	303,581
661,7	303,952
662,1	300,41
662,6	300,695
663	301,21
663,4	299,581
663,9	298,267
664,3	297,781
664,8	291,41
665,2	289,41
665,6	285,324
666,1	285,038
666,5	282,695
667	279,867
667,4	273,581
667,9	273,581
668,3	268,01
668,7	267,324
669,2	264,895
669,6	261,552
670,1	263,781
670,5	263,638
670,9	263,324
671,4	267,638
671,8	269,581
672,3	271,124
672,7	273,038
673,1	266,838
673,6	263,381
674	260,895
674,5	255,781
674,9	249,524
675,3	243,952
675,8	242,095
676,2	238,981
676,7	238,495
677,1	237,81
677,5	236,095
678	239,095
678,4	237,181
678,9	236,324
679,3	236,01
679,7	234,61
680,2	225,352
680,6	222,752
681,1	219,581
681,5	220,152
681,9	220,667
682,4	223,267
682,8	225,21
683,3	229,438
683,7	229,752
684,1	225,61
684,6	220,495
685	217,324
685,5	212,61
685,9	206,467
686,3	201,838
686,8	200,667
687,2	201,724
687,7	198,781
688,1	191,752
688,5	191,952
689	193,152
689,4	195,238
689,9	192,324
690,3	188,324
690,7	190,295
691,2	196,724
691,6	193,152
692	191,552
692,5	191,181
692,9	189,61
693,4	187,324
693,8	187,038
694,2	182,552
694,7	181,467
695,1	175,324
695,6	177,01
696	181,552
696,4	183,438
696,9	176,981
697,3	175,61
697,8	173,895
698,2	176,524
698,6	172,495
699,1	166,467
699,5	167,067
699,9	166,695
700,4	162,495
700,8	164,21
701,3	161,41
701,7	159,695
702,1	160,352
702,6	157,581
703	161,467
703,5	162,124
703,9	160,581
704,3	162,752
704,8	162,267
705,2	160,867
705,6	159,01
706,1	154,924
706,5	154,124
707	152,038
707,4	152,924
707,8	147,838
708,3	147,552
708,7	148,495
709,2	150,41
709,6	146,724
710	152,867
710,5	144,495
710,9	147,638
711,3	143,067
711,8	141,895
712,2	139,752
712,7	139,61
713,1	133,352
713,5	138,352
714	138,21
714,4	136,152
714,8	137,067
715,3	134,295
715,7	134,61
716,2	131,695
716,6	132,781
717	127,267
717,5	124,552
717,9	125,381
718,3	122,495
718,8	123,924
719,2	122,552
719,7	118,352
720,1	121,867
720,5	128,438
721	123,21
721,4	125,41
721,8	123,695
722,3	120,895
722,7	123,152
723,2	115,238
723,6	106,924
724	104,81
724,5	103,181
724,9	100,695
725,3	100,752
725,8	94,267
726,2	97,41
726,7	101,867
727,1	103,467
727,5	101,981
728	99,667
728,4	100,695
728,8	97,41
729,3	96,267
729,7	93,495
730,1	94,581
730,6	97,238
731	100,152
731,5	99,181
731,9	105,324
732,3	108,295
732,8	110,124
733,2	106,895
733,6	103,067
734,1	101,981
734,5	100,524
734,9	100,438
735,4	100,267
735,8	94,21
736,3	96,724
736,7	94,21
737,1	94,981
737,6	93,81
738	90,667
738,4	88,095
738,9	92,524
739,3	90,181
739,7	93,61
740,2	88,01
740,6	89,038
741,1	91,21
741,5	86,21
741,9	86,21
742,4	86,238
742,8	84,552
743,2	87,895
743,7	82,495
744,1	79,724
744,5	82,267
745	76,667
745,4	73,381
745,8	75,581
746,3	77,467
746,7	77,61
747,2	76,952
747,6	79,124
748	81,981
748,5	86,952
748,9	82,552
749,3	77,495
749,8	81,638
750,2	83,867
750,6	78,781
751,1	80,838
751,5	77,267
751,9	75,667
752,4	79,038
752,8	77,324
753,3	70,438
753,7	77,152
754,1	74,381
754,6	70,181
755	72,667
755,4	64,438
755,9	62,524
756,3	65,867
756,7	62,895
757,2	59,124
757,6	62,867
758	62,067
758,5	68,41
758,9	69,038
759,3	68,295
759,8	68,324
760,2	69,552
760,6	66,495
761,1	62,924
761,5	57,924
761,9	57,752
762,4	56,724
762,8	52,838
763,3	54,181
763,7	55,238
764,1	57,038
764,6	59,895
765	61,895
765,4	62,267
765,9	64,01
766,3	67,724
766,7	67,41
767,2	65,61
767,6	65,981
768	63,867
768,5	65,01
768,9	66,324
769,3	60,667
769,8	57,524
770,2	60,752
770,6	62,324
771,1	65,781
771,5	62,781
771,9	62,61
772,4	63,438
772,8	61,781
773,2	59,467
773,7	57,495
774,1	53,952
774,5	50,838
775	48,41
775,4	53,838
775,8	54,667
776,3	55,838
776,7	53,267
777,1	54,095
777,6	59,21
778	59,324
778,4	53,152
778,9	57,81
779,3	51,324
779,7	51,524
780,2	48,867
780,6	44,952
781	44,181
781,5	38,581
781,9	37,524
782,3	36,895
782,8	38,41
783,2	38,924
783,6	45,638
784,1	48,581
784,5	49,638
784,9	44,324
785,4	52,267
785,8	52,295
786,2	53,181
786,7	50,152
787,1	48,552
787,5	52,181
788	55,981
788,4	53,038
788,8	50,295
789,3	49,038
789,7	45,41
790,1	40,867
790,6	43,61
791	40,695
791,4	41,238
791,9	41,724
792,3	36,495
792,7	41,838
793,2	37,238
793,6	31,667
794	33,952
794,5	31,01
794,9	34,695
795,3	39,438
795,8	37,324
796,2	45,81
796,6	49,01
797,1	45,21
797,5	43,981
797,9	37,124
798,4	33,095
798,8	29,667
799,2	26,61
799,7	28,152
800,1	26,838
800,5	30,267
801	32,638
801,4	31,152
801,8	28,124
802,2	29,924
802,7	23,067
803,1	25,267
803,5	24,695
804	23,724
804,4	26,752
804,8	28,495
805,3	27,01
805,7	31,067
806,1	30,095
806,6	29,695
807	31,381
807,4	32,324
807,9	28,181
808,3	31,695
808,7	28,724
809,2	34,867
809,6	39,038
810	33,867
810,4	35,41
810,9	40,981
811,3	35,838
811,7	36,467
812,2	37,895
812,6	32,038
813	41,581
813,5	37,952
813,9	35,495
814,3	34,267
814,8	33,524
815,2	27,467
815,6	24,467
816,1	20,267
816,5	22,952
816,9	24,381
817,3	27,467
817,8	35,838
818,2	34,667
818,6	36,21
819,1	31,838
819,5	29,838
819,9	27,724
820,4	24,838
820,8	17,21
821,2	14,667
821,7	19,924
822,1	26,067
822,5	29,495
822,9	28,695
823,4	28,352
823,8	31,81
824,2	38,181
824,7	29,267
825,1	25,667
825,5	25,21
826	22,695
826,4	24,752
826,8	21,61
827,3	20,152
827,7	24,381
828,1	23,924
828,5	21,61
829	23,181
829,4	19,838
829,8	17,124
830,3	17,438
830,7	15,781
831,1	15,152
831,6	13,467
832	18,095
832,4	21,181
832,8	25,295
833,3	19,181
833,7	16,781
834,1	14,038
834,6	13,924
835	14,895
835,4	11,81
835,8	5,895
836,3	8,324
836,7	12,01
837,1	16,695
837,6	21,352
838	17,867
838,4	20,267
838,9	21,952
839,3	19,152
839,7	18,295
840,1	16,381
840,6	11,867
841	11,438
841,4	8,552
841,9	11,667
842,3	11,438
842,7	13,724
843,1	12,01
843,6	15,352
844	14,81
844,4	22,124
844,9	25,752
845,3	25,552
845,7	23,067
846,2	21,81
846,6	18,295
847	21,495
847,4	22,724
847,9	18,952
848,3	23,21
848,7	24,352
849,2	25,867
849,6	25,638
850	28,095
850,4	24,667
850,9	29,152
851,3	30,324
851,7	31,381
852,2	32,095
852,6	38,152
853	35,438
853,4	34,667
853,9	27,181
854,3	23,838
854,7	22,21
855,2	20,267
855,6	17,667
856	14,924
856,4	7,467
856,9	7,124
857,3	9,781
857,7	10,981
858,2	17,467
858,6	10,838
859	10,638
859,4	13,067
859,9	14,524
860,3	10,467
860,7	11,552
861,1	8,61
861,6	11,552
862	10,667
862,4	12,552
862,9	13,01
863,3	15,552
863,7	12,267
864,1	9,695
864,6	4,667
865	5,924
865,4	6,381
865,9	8,952
866,3	2,438
866,7	3,152
867,1	1,038
867,6	5,01
868	4,438
868,4	2,324
868,8	-2,762
869,3	-0,162
869,7	5,41
870,1	1,895
870,6	3,352
871	-72,933
871,4	-64,762
871,8	-64,333
872,3	-56,248
872,7	-63,99
873,1	-59,99
873,5	-58,448
874	17,752
874,4	11,838
874,8	11,581
875,3	6,638
875,7	5,524
876,1	9,381
876,5	8,467
877	9,124
877,4	6,581
877,8	12,524
878,2	15,124
878,7	22,41
879,1	20,352
879,5	20,038
879,9	19,81
880,4	22,324
880,8	16,438
881,2	15,124
881,7	11,752
882,1	14,467
882,5	9,238
882,9	9,838
883,4	7,238
883,8	9,352
884,2	9,895
884,6	10,181
885,1	9,81
885,5	13,01
885,9	13,352
886,3	17,324
886,8	15,667
887,2	10,352
887,6	6,581
888	2,552
888,5	3,867
888,9	4,381
889,3	-1,133
889,8	-0,219
890,2	3,238
890,6	4,01
891	6,524
891,5	6,867
891,9	6,152
892,3	9,695
892,7	8,952
893,2	11,638
893,6	13,61
894	15,552
894,4	13,61
894,9	14,61
895,3	11,181
895,7	13,01
896,1	7,238
896,6	5,895
897	4,667
897,4	9,895
897,8	8,867
898,3	12,41
898,7	7,295
899,1	8,638
899,5	6,095
900	1,324
900,4	-4,619
900,8	-8,305
901,2	-10,648
901,7	-12,505
902,1	-10,19
902,5	-5,705
902,9	-2,705
903,4	-1,076
903,8	0,752
904,2	-0,99
904,6	6,324
905,1	4,238
905,5	3,867
905,9	2,352
906,3	2,867
906,8	7,867
907,2	14,067
907,6	14,01
908	17,238
908,5	15,152
908,9	12,295
909,3	13,067
909,7	9,324
910,2	6,095
910,6	5,238
911	-0,648
911,4	-2,133
911,9	-0,19
912,3	-2,248
912,7	-0,905
913,1	0,324
913,6	-0,79
914	4,152
914,4	2,581
914,8	6,467
915,3	5,495
915,7	4,038
916,1	1,724
916,5	1,495
916,9	2,81
917,4	3,695
917,8	2,067
918,2	-3,105
918,6	-6,676
919,1	-2,276
919,5	1,095
919,9	-1,476
920,3	-0,648
920,8	0,21
921,2	5,981
921,6	5,981
922	6,724
922,5	3,267
922,9	4,581
923,3	3,324
923,7	0,467
924,2	-1,219
924,6	2,381
925	-1,305
925,4	-2,733
925,8	-3,533
926,3	-0,39
926,7	-0,562
927,1	3,21
927,5	4,924
928	5,638
928,4	2,924
928,8	6,638
929,2	5,41
929,7	8,352
930,1	9,638
930,5	4,781
930,9	6,352
931,3	9,152
931,8	4,895
932,2	5,867
932,6	1,124
933	-8,676
933,5	-4,733
933,9	-5,362
934,3	-0,933
934,7	0,181
935,2	2,295
935,6	4,238
936	10,781
936,4	10,81
936,8	9,524
937,3	5,638
937,7	8,695
938,1	8,038
938,5	6,438
939	5,581
939,4	7,124
939,8	7,352
940,2	6,038
940,6	4,924
941,1	6,067
941,5	12,324
941,9	12,181
942,3	9,324
942,8	9,181
943,2	10,952
943,6	3,724
944	2,352
944,4	-0,105
944,9	1,295
945,3	0,895
945,7	-3,933
946,1	-7,848
946,6	-5,305
947	-8,705
947,4	-8,733
947,8	-10,019
948,2	-11,476
948,7	-8,733
949,1	-4,248
949,5	-0,848
949,9	4,41
950,3	3,895
950,8	2,238
951,2	3,781
951,6	4,467
952	8,41
952,5	4,724
952,9	0,438
953,3	1,21
953,7	1,581
954,1	2,81
954,6	1,552
955	1,21
955,4	2,238
955,8	5,724
956,2	2,638
956,7	5,781
957,1	4,352
957,5	9,095
957,9	8,838
958,3	9,01
958,8	4,667
959,2	9,581
959,6	12,752
960	9,324
960,5	9,095
960,9	6,838
961,3	3,61
961,7	7,752
962,1	4,981
962,6	2,381
963	7,895
963,4	2,438
963,8	-0,962
964,2	3,552
964,7	2,41
965,1	3,01
965,5	2,838
965,9	-0,248
966,3	7,038
966,8	10,124
967,2	10,61
967,6	9,867
968	7,238
968,4	6,324
968,9	6,781
969,3	6,552
969,7	3,781
970,1	3,267
970,5	0,01
971	-0,105
971,4	0,01
971,8	2,01
972,2	-1,876
972,6	0,552
973,1	-0,962
973,5	2,581
973,9	6,952
974,3	8,438
974,7	9,695
975,2	8,295
975,6	6,638
976	9,095
976,4	7,924
976,8	6,152
977,3	0,638
977,7	-5,476
978,1	-3,905
978,5	-7,362
978,9	-9,848
979,4	-8,905
979,8	-10,133
980,2	-6,39
980,6	-8,248
981	-5,019
981,5	0,267
981,9	-2,276
982,3	-4,762
982,7	-3,019
983,1	-3,048
983,6	2,438
984	-4,39
984,4	-4,133
984,8	-0,162
985,2	0,724
985,6	-1,59
986,1	-0,133
986,5	0,21
986,9	0,781
987,3	2,952
987,7	4,438
988,2	5,41
988,6	6,152
989	4,467
989,4	4,181
989,8	5,295
990,3	1,752
990,7	-1,819
991,1	-0,733
991,5	2,181
991,9	2,181
992,3	3,01
992,8	5,295
993,2	8,381
993,6	7,181
994	10,581
994,4	7,067
994,9	7,695
995,3	4,781
995,7	1,61
996,1	-1,248
996,5	0,381
996,9	-7,419
997,4	-0,219
997,8	-3,79
998,2	-5,333
998,6	-8,076
999	-6,619
999,5	-7,305
999,9	-3,733
1000,3	-9,533
1000,7	-6,733
1001,1	-4,848
1001,5	2,181
1002	5,952
1002,4	7,524
1002,8	6,867
1003,2	7,838
1003,6	5,867
1004	10,21
1004,5	5,152
1004,9	3,352
1005,3	-0,733
1005,7	1,067
1006,1	-0,676
1006,6	1,838
1007	0,667
1007,4	0,467
1007,8	-4,562
1008,2	-4,305
1008,6	-3,876
1009,1	-3,848
1009,5	-3,305
1009,9	-4,19
1010,3	-2,619
1010,7	-2,562
1011,1	0,095
1011,6	-0,048
1012	2,552
1012,4	-3,362
1012,8	-7,648
1013,2	-0,962
1013,6	2,295
1014,1	6,467
1014,5	6,01
1014,9	4,61
1015,3	9,467
1015,7	14,724
1016,1	11,581
1016,6	6,81
1017	5,238
1017,4	2,495
1017,8	2,267
1018,2	3,324
1018,6	-2,19
1019,1	-3,19
1019,5	-4,333
1019,9	-8,105
1020,3	-4,562
1020,7	-1,962
1021,1	-4,076
1021,6	-2,562
1022	1,067
1022,4	5,524
1022,8	8,038
1023,2	6,352
1023,6	1,838
1024,1	12,095
1024,5	12,895
1024,9	6,467
1025,3	6,124
1025,7	5,867
1026,1	8,867
1026,6	9,638
1027	-1,533
1027,4	3,438
1027,8	2,41
1028,2	3,038
1028,6	6,581
1029	5,495
1029,5	10,381
1029,9	9,552
1030,3	1,981
1030,7	8,867
1031,1	8,581
1031,5	-0,505
1032	-2,619
1032,4	-5,762
1032,8	-1,733
1033,2	2,61
1033,6	-3,362
1034	-4,762
1034,4	1,981
1034,9	5,438
1035,3	0,581
1035,7	2,838
1036,1	0,238
1036,5	-0,876
1036,9	2,267
1037,4	3,21
1037,8	-5,562
1038,2	-5,162
1038,6	-7,733
1039	-2,305
1039,4	2,01
1039,8	-3,562
1040,3	-3,105
1040,7	-0,076
1041,1	4,324
1041,5	6,695
1041,9	0,724
1042,3	0,981
1042,7	6,381
1043,2	2,467
1043,6	4,61
1044	4,781
1044,4	0,724
1044,8	2,495
1045,2	2,552
1045,6	3,638
1046,1	3,781
1046,5	5,895
1046,9	2,838
1047,3	5,638
1047,7	8,781
1048,1	5,724
1048,5	1,924
1049	1,267
1049,4	-0,19
1049,8	-1,162
1050,2	0,152
1050,6	1,495
1051	5,438
1051,4	4,61
1051,9	6,038
1052,3	11,781
1052,7	14,438
1053,1	10,867
1053,5	5,838
1053,9	5,352
1054,3	4,81
1054,8	8,81
1055,2	7,038
1055,6	9,324
1056	9,295
1056,4	10,61
1056,8	7,895
1057,2	5,352
1057,6	-2,476
1058,1	-9,133
1058,5	-12,876
1058,9	-12,533
1059,3	-9,705
1059,7	-8,848
1060,1	-1,076
1060,5	7,467
1061	10,981
1061,4	11,01
1061,8	11,81
1062,2	8,552
1062,6	7,838
1063	6,267
1063,4	-1,476
1063,8	-4,219
1064,3	-5,848
1064,7	-5,448
1065,1	-4,819
1065,5	-5,819
1065,9	-9,99
1066,3	-9,133
1066,7	-9,076
1067,1	-7,562
1067,6	-2,79
1068	-7,162
1068,4	-6,019
1068,8	-1,362
1069,2	0,981
1069,6	5,724
1070	9,495
1070,4	6,152
1070,9	10,895
1071,3	10,267
1071,7	8,067
1072,1	10,095
1072,5	3,981
1072,9	1,238
1073,3	-1,933
1073,7	-5,305
1074,2	-5,219
1074,6	-5,333
1075	-9,933
1075,4	-7,305
1075,8	-5,705
1076,2	-3,419
1076,6	-0,19
1077	-2,248
1077,5	1,438
1077,9	0,867
1078,3	1,495
1078,7	-1,733
1079,1	-3,59
1079,5	-4,733
1079,9	0,152
1080,3	-3,648
1080,7	2,352
1081,2	6,438
1081,6	7,924
1082	7,838
1082,4	10,581
1082,8	7,124
1083,2	8,41
1083,6	6,038
1084	0,352
1084,5	1,752
1084,9	0,238
1085,3	-3,076
1085,7	-2,39
1086,1	-1,219
1086,5	-4,733
1086,9	-0,019
1087,3	-1,19
1087,7	-1,248
1088,2	1,667
1088,6	-1,276
1089	-1,505
1089,4	-0,276
1089,8	-1,905
1090,2	-4,076
1090,6	-3,533
1091	-3,133
1091,4	1,781
1091,9	-0,99
1092,3	1,267
1092,7	0,524
1093,1	5,324
1093,5	6,41
1093,9	3,838
1094,3	5,952
1094,7	4,295
1095,1	3,838
1095,5	5,781
1096	-0,819
1096,4	-0,133
1096,8	0,752
1097,2	-3,79
1097,6	2,152
1098	2,095
1098,4	3,067
1098,8	6,152
1099,2	12,81
1099,6	9,238
1100,1	10,667
1100,5	7,752
1100,9	9,21
1101,3	5,124
1101,7	4,21
1102,1	-5,162
1102,5	-0,99
1102,9	0,61
1103,3	4,467
1103,7	2,41
1104,2	0,695
1104,6	2,61
1105	4,981
1105,4	5,581
1105,8	3,495
1106,2	-1,019
1106,6	-0,676
1107	0,981
1107,4	1,1
1107,8	1,427
1108,3	-1,033
