Data from Subt2_023.txt Node
Date: Sat Aug 26 16:17:09 MSK 2023
User: vat
Spectrometer: MAYP114033
Trigger mode: 0
Integration Time (sec): 1,000000E0
Scans to average: 5
Electric dark correction enabled: true
Nonlinearity correction enabled: false
Boxcar width: 3
XAxis mode: Wavelengths
Number of Pixels in Spectrum: 2068
>>>>>Begin Spectral Data<<<<<
199,4	-0,083
199,9	3,307
200,4	2,733
200,8	0,724
201,3	0,067
201,8	1,495
202,2	1,324
202,7	0,152
203,2	-4,333
203,6	-1,676
204,1	1,324
204,6	1,381
205	3,095
205,5	4,524
206	3,524
206,4	6,695
206,9	4,038
207,4	1,238
207,8	3,838
208,3	1,667
208,8	3,41
209,2	4,41
209,7	3,838
210,2	5,61
210,6	4,981
211,1	3,01
211,5	2,524
212	-0,048
212,5	2,181
212,9	4,724
213,4	2,61
213,9	1,41
214,3	-1,19
214,8	4,61
215,3	8,838
215,7	10,038
216,2	7,695
216,7	8,295
217,1	8,61
217,6	11,638
218,1	5,038
218,5	-3,762
219	-8,276
219,5	-6,476
219,9	-6,076
220,4	0,152
220,9	-2,562
221,3	2,667
221,8	3,181
222,3	7,238
222,7	3,838
223,2	2,752
223,6	5,924
224,1	7,038
224,6	2,038
225	5,152
225,5	3,981
226	5,41
226,4	8,352
226,9	5,124
227,4	10,552
227,8	12,495
228,3	12,638
228,8	14,61
229,2	13,981
229,7	10,952
230,2	11,581
230,6	5,352
231,1	7,21
231,5	11,381
232	11,695
232,5	8,152
232,9	10,01
233,4	6,324
233,9	5,124
234,3	-3,562
234,8	-6,419
235,3	-6,305
235,7	-4,848
236,2	-4,505
236,7	-4,505
237,1	1,324
237,6	6,152
238,1	8,667
238,5	6,581
239	11,695
239,4	12,581
239,9	7,352
240,4	4,324
240,8	6,524
241,3	6,038
241,8	6,01
242,2	4,524
242,7	5,095
243,2	12,495
243,6	16,752
244,1	17,352
244,6	14,81
245	15,638
245,5	15,381
245,9	14,381
246,4	13,695
246,9	11,238
247,3	9,667
247,8	11,724
248,3	9,238
248,7	9,438
249,2	8,124
249,7	7,181
250,1	8,467
250,6	6,095
251	4,61
251,5	8,724
252	10,752
252,4	14,095
252,9	10,638
253,4	6,095
253,8	7,095
254,3	7,238
254,8	5,238
255,2	4,495
255,7	-1,476
256,1	1,295
256,6	4,495
257,1	7,781
257,5	7,238
258	6,495
258,5	3,867
258,9	8,324
259,4	6,924
259,9	2,838
260,3	-1,105
260,8	1,352
261,2	-1,933
261,7	0,181
262,2	-2,905
262,6	-1,819
263,1	0,467
263,6	3,41
264	3,038
264,5	5,981
264,9	3,552
265,4	2,81
265,9	4,838
266,3	4,067
266,8	1,152
267,3	-3,133
267,7	-2,133
268,2	-0,276
268,7	2,352
269,1	1,752
269,6	0,781
270	1,581
270,5	1,752
271	0,524
271,4	-0,105
271,9	0,381
272,4	1,124
272,8	7,41
273,3	10,181
273,7	14,267
274,2	13,295
274,7	14,095
275,1	14,124
275,6	11,21
276,1	10,238
276,5	10,467
277	0,524
277,4	-0,248
277,9	-2,876
278,4	-3,676
278,8	-3,448
279,3	-6,133
279,8	-4,59
280,2	3,895
280,7	5,952
281,1	8,01
281,6	4,61
282,1	8,61
282,5	5,724
283	6,724
283,4	3,867
283,9	3,81
284,4	1,838
284,8	8,895
285,3	4,61
285,8	9,038
286,2	3,867
286,7	3,181
287,1	6,095
287,6	8,01
288,1	2,381
288,5	2,895
289	4,152
289,5	8,21
289,9	12,838
290,4	9,152
290,8	10,581
291,3	13,124
291,8	13,152
292,2	12,952
292,7	8,524
293,1	8,124
293,6	9,952
294,1	8,352
294,5	6,638
295	7,038
295,5	3,381
295,9	1,467
296,4	-2,99
296,8	1,952
297,3	0,838
297,8	-3,933
298,2	-5,19
298,7	-3,648
299,1	-0,79
299,6	4,438
300,1	3,295
300,5	4,324
301	12,438
301,5	16,61
301,9	21,324
302,4	15,381
302,8	13,667
303,3	6,381
303,8	6,038
304,2	2,895
304,7	2,81
305,1	-4,933
305,6	1,352
306,1	2,267
306,5	3,495
307	0,324
307,4	2,981
307,9	1,981
308,4	4,181
308,8	9,124
309,3	5,067
309,8	10,781
310,2	15,524
310,7	12,724
311,1	13,695
311,6	12,438
312,1	4,781
312,5	9,638
313	9,238
313,4	6,952
313,9	3,61
314,4	3,81
314,8	3,952
315,3	3,495
315,7	-0,105
316,2	-1,79
316,7	-0,505
317,1	2,238
317,6	0,81
318	3,124
318,5	8,638
319	12,495
319,4	6,41
319,9	2,267
320,3	4,181
320,8	5,61
321,3	4,267
321,7	0,295
322,2	-5,362
322,6	-2,676
323,1	-1,819
323,6	-1,076
324	-0,362
324,5	0,867
324,9	0,667
325,4	4,238
325,9	1,752
326,3	5,61
326,8	2,01
327,2	-1,133
327,7	-2,905
328,2	-4,448
328,6	-5,019
329,1	-1,305
329,5	-4,99
330	-4,59
330,5	-4,362
330,9	-5,448
331,4	-5,562
331,8	-3,819
332,3	-5,019
332,8	2,152
333,2	1,867
333,7	4,552
334,1	4,095
334,6	8,724
335,1	6,038
335,5	5,352
336	1,438
336,4	4,867
336,9	1,952
337,4	3,952
337,8	0,867
338,3	1,724
338,7	4,724
339,2	3,524
339,7	0,724
340,1	3,295
340,6	-0,59
341	1,267
341,5	4,267
342	9,524
342,4	14,838
342,9	21,695
343,3	20,324
343,8	26,467
344,2	25,924
344,7	22,61
345,2	16,667
345,6	11,524
346,1	4,867
346,5	9,467
347	9,895
347,5	12,438
347,9	15,867
348,4	17,467
348,8	18,981
349,3	21,581
349,8	15,838
350,2	14,981
350,7	19,581
351,1	22,01
351,6	26,152
352	34,238
352,5	44,41
353	59,724
353,4	69,41
353,9	80,952
354,3	102,095
354,8	127,724
355,3	158,552
355,7	185,781
356,2	217,952
356,6	261,267
357,1	310,295
357,5	363,181
358	423,895
358,5	493,552
358,9	579,838
359,4	678,552
359,8	788,352
360,3	910,438
360,8	1049,695
361,2	1205,352
361,7	1373,124
362,1	1557,952
362,6	1754,181
363	1976,838
363,5	2205,638
364	2443,038
364,4	2680,438
364,9	2924,81
365,3	3174,124
365,8	3410,152
366,3	3621,695
366,7	3827,467
367,2	3999,295
367,6	4149,495
368,1	4265,638
368,5	4333,267
369	4374,467
369,5	4377,41
369,9	4343,81
370,4	4274,238
370,8	4172,495
371,3	4041,41
371,7	3896,924
372,2	3724,152
372,7	3549,638
373,1	3357,438
373,6	3166,124
374	2976,038
374,5	2785,924
374,9	2598,067
375,4	2422,61
375,9	2246,01
376,3	2073,667
376,8	1913,381
377,2	1759,581
377,7	1617,581
378,2	1484,552
378,6	1363,838
379,1	1246,724
379,5	1141,981
380	1044,924
380,4	958,095
380,9	880,21
381,4	799,495
381,8	729,781
382,3	675,61
382,7	629,038
383,2	587,124
383,6	546,238
384,1	509,324
384,6	479,152
385	446,01
385,5	416,038
385,9	381,895
386,4	356,095
386,8	331,524
387,3	303,667
387,7	284,181
388,2	265,752
388,7	245,41
389,1	228,695
389,6	210,124
390	193,981
390,5	183,267
390,9	169,581
391,4	160,924
391,9	148,581
392,3	142,124
392,8	133,438
393,2	125,438
393,7	114,41
394,1	107,981
394,6	99,152
395,1	93,552
395,5	88,324
396	83,181
396,4	79,095
396,9	77,152
397,3	73,438
397,8	69,981
398,2	67,41
398,7	60,295
399,2	60,324
399,6	56,924
400,1	51,867
400,5	49,667
401	43,752
401,4	40,867
401,9	43,381
402,4	40,838
402,8	42,067
403,3	45,952
403,7	48,381
404,2	55,181
404,6	56,124
405,1	52,981
405,5	54,867
406	49,524
406,5	50,952
406,9	47,467
407,4	40,152
407,8	42,952
408,3	46,124
408,7	47,352
409,2	54,438
409,6	55,581
410,1	62,067
410,6	71,695
411	74,181
411,5	80,01
411,9	82,324
412,4	89,01
412,8	94,352
413,3	94,61
413,7	94,61
414,2	97,067
414,7	99,752
415,1	99,124
415,6	99,238
416	101,695
416,5	111,181
416,9	115,838
417,4	121,895
417,8	124,952
418,3	138,524
418,8	148,152
419,2	156,724
419,7	160,238
420,1	166,667
420,6	175,81
421	179,181
421,5	180,01
421,9	182,324
422,4	186,238
422,8	198,667
423,3	205,238
423,8	207,21
424,2	215,638
424,7	225,324
425,1	233,61
425,6	235,895
426	238,181
426,5	250,781
426,9	255,152
427,4	271,238
427,9	278,61
428,3	291,124
428,8	311,267
429,2	323,981
429,7	333,41
430,1	356,152
430,6	366,438
431	382,952
431,5	394,152
431,9	405,01
432,4	421,467
432,8	437,095
433,3	446,352
433,8	464,438
434,2	481,81
434,7	502,038
435,1	527,838
435,6	544,81
436	574,181
436,5	604,724
436,9	629,095
437,4	654,695
437,8	680,695
438,3	708,61
438,8	740,438
439,2	770,952
439,7	802,467
440,1	836,867
440,6	873,238
441	910,638
441,5	943,581
441,9	983,181
442,4	1018,781
442,8	1061,21
443,3	1103,724
443,7	1149,267
444,2	1193,524
444,7	1243,324
445,1	1286,381
445,6	1340,952
446	1386,038
446,5	1431,41
446,9	1481,467
447,4	1538,124
447,8	1593,095
448,3	1648,81
448,7	1699,61
449,2	1757,438
449,6	1813,61
450,1	1868,695
450,6	1927,867
451	1979,895
451,5	2049,181
451,9	2118,381
452,4	2184,724
452,8	2263,067
453,3	2333,867
453,7	2403,067
454,2	2484,124
454,6	2552,61
455,1	2621,552
455,5	2691,667
456	2758,524
456,4	2835,438
456,9	2917,038
457,3	2993,324
457,8	3079,067
458,3	3152,267
458,7	3244,581
459,2	3320,038
459,6	3394,867
460,1	3477,952
460,5	3557,781
461	3635,124
461,4	3727,61
461,9	3809,838
462,3	3896,924
462,8	3989,638
463,2	4071,867
463,7	4159,752
464,1	4245,467
464,6	4325,524
465	4403,524
465,5	4496,067
466	4578,695
466,4	4658,724
466,9	4746,238
467,3	4828,438
467,8	4913,552
468,2	4997,638
468,7	5085,267
469,1	5167,61
469,6	5250,895
470	5328,41
470,5	5412,838
470,9	5495,895
471,4	5572,438
471,8	5647,01
472,3	5728,324
472,7	5809,095
473,2	5883,61
473,6	5950,867
474,1	6016,895
474,5	6096,895
475	6164,21
475,4	6234,924
475,9	6294,724
476,4	6361,81
476,8	6431,61
477,3	6499,41
477,7	6553,524
478,2	6605,524
478,6	6660,781
479,1	6713,21
479,5	6756,067
480	6801,438
480,4	6848,695
480,9	6894,181
481,3	6942,41
481,8	6978,352
482,2	7018,41
482,7	7050,781
483,1	7088,867
483,6	7111,238
484	7136,438
484,5	7160,41
484,9	7188,01
485,4	7208,438
485,8	7237,41
486,3	7249,467
486,7	7271,981
487,2	7287,867
487,6	7298,124
488,1	7306,724
488,5	7315,952
489	7314,381
489,4	7320,924
489,9	7321,295
490,4	7320,381
490,8	7308,867
491,3	7299,267
491,7	7287,695
492,2	7286,267
492,6	7277,552
493,1	7259,81
493,5	7238,238
494	7224,61
494,4	7194,981
494,9	7167,895
495,3	7135,381
495,8	7100,124
496,2	7074,467
496,7	7044,467
497,1	7015,01
497,6	6989,952
498	6964,924
498,5	6930,752
498,9	6892,41
499,4	6862,21
499,8	6831,752
500,3	6794,067
500,7	6762,21
501,2	6723,781
501,6	6689,495
502,1	6652,181
502,5	6599,952
503	6553,067
503,4	6516,181
503,9	6463,695
504,3	6416,324
504,8	6369,238
505,2	6333,295
505,7	6287,867
506,1	6240,61
506,6	6186,267
507	6142,01
507,5	6091,381
507,9	6043,781
508,4	5980,952
508,8	5926,21
509,3	5871,324
509,7	5821,467
510,2	5763,781
510,6	5715,495
511,1	5650,981
511,5	5600,781
512	5547,638
512,4	5491,667
512,9	5435,41
513,3	5381,895
513,8	5318,81
514,2	5265,838
514,7	5215,038
515,1	5163,152
515,6	5112,381
516	5060,552
516,5	5002,41
516,9	4946,581
517,4	4892,867
517,8	4834,21
518,3	4777,01
518,7	4719,21
519,2	4661,467
519,6	4615,667
520,1	4574,352
520,5	4523,181
521	4466,124
521,4	4417,838
521,9	4368,352
522,3	4319,038
522,8	4266,552
523,2	4208,981
523,7	4164,41
524,1	4115,21
524,6	4062,467
525	4008,752
525,5	3962,381
525,9	3913,238
526,4	3860,981
526,8	3809,152
527,3	3766,01
527,7	3725,524
528,2	3691,381
528,6	3648,21
529,1	3602,838
529,5	3566,524
530	3529,667
530,4	3490,581
530,9	3443,667
531,3	3399,724
531,8	3352,01
532,2	3316,638
532,6	3276,352
533,1	3234,352
533,5	3197,381
534	3164,952
534,4	3128,695
534,9	3097,81
535,3	3056,324
535,8	3025,81
536,2	2996,038
536,7	2959,924
537,1	2925,952
537,6	2891,895
538	2861,552
538,5	2836,352
538,9	2800,981
539,4	2764,438
539,8	2731,295
540,3	2705,695
540,7	2673,41
541,2	2645,352
541,6	2611,724
542,1	2584,41
542,5	2558,752
543	2531,952
543,4	2500,838
543,9	2480,381
544,3	2449,324
544,8	2426,61
545,2	2401,124
545,7	2373,267
546,1	2351,21
546,5	2322,81
547	2296,21
547,4	2274,781
547,9	2245,952
548,3	2224,21
548,8	2203,467
549,2	2182,867
549,7	2161,695
550,1	2145,152
550,6	2130,638
551	2115,238
551,5	2087,324
551,9	2067,467
552,4	2046,41
552,8	2035,81
553,3	2010,467
553,7	1985,867
554,2	1966,324
554,6	1954,295
555,1	1933,352
555,5	1915,838
555,9	1894,524
556,4	1881,952
556,8	1864,295
557,3	1849,41
557,7	1831,095
558,2	1816,01
558,6	1796,752
559,1	1773,01
559,5	1759,21
560	1741,295
560,4	1725,724
560,9	1715,867
561,3	1701,952
561,8	1693,524
562,2	1685,552
562,7	1668,752
563,1	1658,324
563,6	1646,981
564	1638,01
564,4	1628,324
564,9	1612,381
565,3	1600,495
565,8	1592,467
566,2	1579,495
566,7	1561,352
567,1	1544,01
567,6	1533,41
568	1517,838
568,5	1506,01
568,9	1488,895
569,4	1479,038
569,8	1472,81
570,3	1461,01
570,7	1453,867
571,1	1449,324
571,6	1439,638
572	1430,638
572,5	1419,238
572,9	1407,895
573,4	1392,238
573,8	1375,381
574,3	1364,267
574,7	1354,124
575,2	1346,01
575,6	1337,238
576,1	1324,838
576,5	1318,552
576,9	1305,724
577,4	1295,124
577,8	1281,838
578,3	1273,524
578,7	1260,124
579,2	1251,267
579,6	1246,724
580,1	1242,41
580,5	1236,181
581	1231,295
581,4	1223,038
581,9	1216,952
582,3	1212,381
582,7	1201,41
583,2	1190,952
583,6	1177,781
584,1	1168,524
584,5	1158,581
585	1150,781
585,4	1140,095
585,9	1130,238
586,3	1124,581
586,8	1119,781
587,2	1113,41
587,6	1103,667
588,1	1098,81
588,5	1093,867
589	1085,467
589,4	1079,981
589,9	1076,238
590,3	1070,41
590,8	1058,495
591,2	1054,524
591,7	1044,895
592,1	1045,067
592,5	1036,295
593	1025,295
593,4	1019,752
593,9	1020,267
594,3	1011,924
594,8	1007,895
595,2	1002,524
595,7	996,067
596,1	989,895
596,6	984,467
597	980,61
597,4	974,724
597,9	972,667
598,3	967,667
598,8	961,01
599,2	961,038
599,7	954,438
600,1	947,095
600,6	941,152
601	933,867
601,4	925,781
601,9	927,238
602,3	918,81
602,8	914,438
603,2	908,867
603,7	906,295
604,1	899,01
604,6	892,438
605	883,124
605,4	874,581
605,9	869,238
606,3	867,181
606,8	860,238
607,2	855,61
607,7	855,667
608,1	852,238
608,6	854,552
609	851,952
609,4	839,695
609,9	837,41
610,3	839,838
610,8	833,01
611,2	830,067
611,7	818,781
612,1	812,895
612,6	817,038
613	810,438
613,4	798,124
613,9	790,952
614,3	783,124
614,8	784,381
615,2	778,895
615,7	769,952
616,1	770,324
616,6	769,067
617	763,638
617,4	758,152
617,9	751,467
618,3	743,438
618,8	737,352
619,2	730,124
619,7	720,838
620,1	720,038
620,5	717,267
621	710,41
621,4	710,352
621,9	710,324
622,3	705,238
622,8	705,095
623,2	700,181
623,6	698,038
624,1	690,752
624,5	686,61
625	683,61
625,4	676,41
625,9	671,552
626,3	665,81
626,8	663,352
627,2	665,752
627,6	661,267
628,1	655,467
628,5	657,238
629	657,467
629,4	650,638
629,9	643,695
630,3	637,181
630,7	628,924
631,2	618,924
631,6	609,752
632,1	601,124
632,5	601,267
633	596,895
633,4	598,295
633,8	599,381
634,3	601,295
634,7	600,438
635,2	599,552
635,6	596,095
636,1	594,952
636,5	586,781
636,9	580,495
637,4	574,924
637,8	565,038
638,3	560,467
638,7	554,352
639,2	548,638
639,6	547,295
640	547,352
640,5	545,124
640,9	549,01
641,4	546,324
641,8	544,724
642,2	539,41
642,7	536,41
643,1	532,095
643,6	527,295
644	523,324
644,5	520,381
644,9	519,981
645,3	517,438
645,8	512,552
646,2	510,895
646,7	512,752
647,1	510,124
647,6	502,467
648	491,352
648,4	491,581
648,9	493,552
649,3	494,21
649,8	488,381
650,2	487,01
650,6	488,352
651,1	496,267
651,5	487,838
652	483,467
652,4	473,21
652,9	471,038
653,3	467,581
653,7	461,352
654,2	452,924
654,6	453,552
655,1	446,238
655,5	441,152
655,9	434,924
656,4	432,752
656,8	433,924
657,3	431,295
657,7	424,838
658,2	426,81
658,6	429,124
659	430,895
659,5	417,667
659,9	418,152
660,4	414,41
660,8	418,124
661,2	411,124
661,7	406,01
662,1	404,667
662,6	408,067
663	397,924
663,4	395,267
663,9	391,038
664,3	392,41
664,8	392,638
665,2	388,238
665,6	387,21
666,1	391,21
666,5	387,495
667	384,752
667,4	380,21
667,9	373,581
668,3	372,438
668,7	369,924
669,2	361,324
669,6	363,438
670,1	357,924
670,5	352,438
670,9	353,038
671,4	347,181
671,8	339,581
672,3	338,295
672,7	331,581
673,1	332,524
673,6	329,238
674	325,524
674,5	320,724
674,9	324,381
675,3	323,324
675,8	322,181
676,2	319,352
676,7	323,981
677,1	320,752
677,5	317,41
678	312,924
678,4	312,238
678,9	311,295
679,3	307,21
679,7	302,724
680,2	307,41
680,6	311,352
681,1	310,638
681,5	307,295
681,9	305,667
682,4	302,41
682,8	302,667
683,3	297,781
683,7	295,467
684,1	293,495
684,6	290,895
685	287,552
685,5	288,81
685,9	284,267
686,3	282,952
686,8	277,81
687,2	274,867
687,7	269,381
688,1	267,61
688,5	262,895
689	264,838
689,4	259,638
689,9	258,381
690,3	253,352
690,7	257,695
691,2	258,81
691,6	256,495
692	251,01
692,5	250,981
692,9	253,238
693,4	254,781
693,8	248,181
694,2	245,838
694,7	249,438
695,1	242,81
695,6	242,438
696	237,81
696,4	233,267
696,9	236,124
697,3	226,638
697,8	224,867
698,2	224,752
698,6	224,01
699,1	225,152
699,5	226,41
699,9	224,381
700,4	230,381
700,8	228,867
701,3	231,038
701,7	228,41
702,1	222,695
702,6	218,152
703	214,581
703,5	208,095
703,9	205,438
704,3	202,895
704,8	194,61
705,2	193,61
705,6	194,095
706,1	192,695
706,5	196,41
707	195,21
707,4	191,638
707,8	196,552
708,3	194,467
708,7	194,152
709,2	193,438
709,6	187,552
710	186,295
710,5	183,724
710,9	181,095
711,3	180,267
711,8	182,552
712,2	183,552
712,7	186,695
713,1	184,181
713,5	182,067
714	180,867
714,4	183,038
714,8	178,067
715,3	176,238
715,7	170,41
716,2	171,524
716,6	179,067
717	176,81
717,5	174,895
717,9	176,324
718,3	174,21
718,8	178,581
719,2	169,381
719,7	165,867
720,1	162,438
720,5	159,895
721	157,752
721,4	157,695
721,8	152,181
722,3	153,695
722,7	153,095
723,2	153,838
723,6	152,638
724	148,41
724,5	141,61
724,9	142,038
725,3	142,61
725,8	138,752
726,2	138,295
726,7	138,495
727,1	136,981
727,5	138,21
728	135,61
728,4	137,781
728,8	134,952
729,3	135,695
729,7	130,838
730,1	133,467
730,6	132,581
731	133,81
731,5	132,095
731,9	132,552
732,3	131,01
732,8	131,295
733,2	128,924
733,6	136,467
734,1	136,552
734,5	132,181
734,9	130,981
735,4	126,01
735,8	128,324
736,3	123,495
736,7	117,524
737,1	117,924
737,6	119,752
738	121,81
738,4	125,81
738,9	126,667
739,3	126,695
739,7	126,724
740,2	125,01
740,6	123,552
741,1	121,61
741,5	116,752
741,9	113,01
742,4	114,152
742,8	112,067
743,2	106,01
743,7	108,524
744,1	110,467
744,5	112,895
745	115,581
745,4	115,952
745,8	117,724
746,3	119,381
746,7	119,981
747,2	113,324
747,6	114,067
748	107,038
748,5	105,952
748,9	101,524
749,3	105,438
749,8	101,267
750,2	98,067
750,6	98,267
751,1	100,981
751,5	101,781
751,9	104,81
752,4	100,124
752,8	96,924
753,3	101,41
753,7	100,095
754,1	99,267
754,6	99,124
755	95,867
755,4	98,124
755,9	101,352
756,3	100,495
756,7	99,067
757,2	98,095
757,6	98,267
758	97,581
758,5	96,581
758,9	95,21
759,3	96,038
759,8	92,867
760,2	93,381
760,6	91,152
761,1	90,067
761,5	92,495
761,9	90,524
762,4	86,067
762,8	87,695
763,3	85,467
763,7	77,267
764,1	77,381
764,6	69,724
765	74,01
765,4	73,352
765,9	70,324
766,3	72,067
766,7	82,552
767,2	83,324
767,6	90,781
768	89,067
768,5	92,21
768,9	90,352
769,3	90,895
769,8	88,181
770,2	82,895
770,6	75,438
771,1	71,781
771,5	68,524
771,9	70,667
772,4	68,324
772,8	65,981
773,2	67,495
773,7	70,667
774,1	67,752
774,5	69,924
775	69,61
775,4	68,61
775,8	70,752
776,3	74,495
776,7	67,895
777,1	68,81
777,6	68,495
778	69,581
778,4	64,724
778,9	64,01
779,3	59,581
779,7	60,752
780,2	63,781
780,6	64,152
781	62,952
781,5	66,524
781,9	66,067
782,3	68,524
782,8	72,895
783,2	74,695
783,6	74,324
784,1	73,038
784,5	71,238
784,9	66,724
785,4	62,381
785,8	65,81
786,2	63,581
786,7	60,838
787,1	58,124
787,5	57,981
788	64,552
788,4	65,438
788,8	60,267
789,3	58,81
789,7	64,752
790,1	67,895
790,6	67,867
791	64,238
791,4	62,41
791,9	61,581
792,3	60,467
792,7	54,495
793,2	57,752
793,6	58,895
794	58,067
794,5	62,924
794,9	64,81
795,3	62,238
795,8	61,981
796,2	58,352
796,6	53,638
797,1	57,61
797,5	55,981
797,9	50,124
798,4	47,524
798,8	50,467
799,2	49,152
799,7	52,781
800,1	52,267
800,5	51,181
801	53,667
801,4	57,352
801,8	56,267
802,2	61,01
802,7	61,381
803,1	56,381
803,5	53,41
804	56,695
804,4	55,895
804,8	51,952
805,3	48,095
805,7	45,495
806,1	44,81
806,6	47,581
807	42,81
807,4	44,152
807,9	48,01
808,3	43,038
808,7	41,181
809,2	44,724
809,6	43,01
810	47,095
810,4	42,752
810,9	40,781
811,3	43,21
811,7	47,638
812,2	46,238
812,6	45,695
813	41,638
813,5	43,952
813,9	45,752
814,3	48,695
814,8	47,495
815,2	42,81
815,6	44,152
816,1	43,61
816,5	46,152
816,9	39,381
817,3	36,724
817,8	36,695
818,2	36,152
818,6	36,381
819,1	42,238
819,5	39,61
819,9	43,724
820,4	45,41
820,8	45,952
821,2	43,838
821,7	44,838
822,1	39,381
822,5	39,21
822,9	40,924
823,4	39,238
823,8	40,781
824,2	41,752
824,7	40,867
825,1	41,667
825,5	39,781
826	37,21
826,4	38,495
826,8	29,01
827,3	32,524
827,7	29,095
828,1	30,21
828,5	30,524
829	25,867
829,4	23,267
829,8	31,295
830,3	29,124
830,7	29,838
831,1	28,895
831,6	31,581
832	33,838
832,4	32,01
832,8	33,467
833,3	34,381
833,7	33,61
834,1	31,81
834,6	29,981
835	32,124
835,4	38,981
835,8	31,495
836,3	31,867
836,7	29,781
837,1	27,667
837,6	25,895
838	26,267
838,4	18,581
838,9	22,724
839,3	22,152
839,7	24,495
840,1	30,438
840,6	30,152
841	29,095
841,4	29,638
841,9	27,81
842,3	30,781
842,7	31,467
843,1	29,067
843,6	34,238
844	36,267
844,4	34,524
844,9	33,952
845,3	28,667
845,7	26,61
846,2	24,124
846,6	18,552
847	12,638
847,4	11,01
847,9	12,295
848,3	12,895
848,7	12,467
849,2	14,21
849,6	15,724
850	17,095
850,4	21,352
850,9	20,667
851,3	21,695
851,7	24,181
852,2	19,752
852,6	18,181
853	18,381
853,4	16,267
853,9	16,752
854,3	18,438
854,7	14,81
855,2	21,01
855,6	20,867
856	19,495
856,4	22,781
856,9	22,295
857,3	20,924
857,7	23,21
858,2	17,667
858,6	17,438
859	21,381
859,4	21,152
859,9	21,124
860,3	24,781
860,7	26,581
861,1	29,324
861,6	26,524
862	25,61
862,4	23,752
862,9	20,581
863,3	18,438
863,7	16,981
864,1	17,295
864,6	24,895
865	24,067
865,4	24,21
865,9	31,324
866,3	28,152
866,7	27,295
867,1	26,038
867,6	18,981
868	16,524
868,4	15,524
868,8	8,638
869,3	13,267
869,7	13,895
870,1	11,095
870,6	13,781
871	7,324
871,4	8,952
871,8	9,752
872,3	0,181
872,7	-4,59
873,1	-2,305
873,5	-4,419
874	6,581
874,4	6,238
874,8	3,438
875,3	11,152
875,7	12,724
876,1	13,695
876,5	14,895
877	11,267
877,4	11,495
877,8	16,638
878,2	14,038
878,7	14,781
879,1	11,781
879,5	8,838
879,9	6,724
880,4	6,181
880,8	2,067
881,2	-0,19
881,7	1,752
882,1	7,067
882,5	11,21
882,9	14,038
883,4	17,524
883,8	18,781
884,2	24,124
884,6	20,381
885,1	12,124
885,5	11,981
885,9	12,867
886,3	4,467
886,8	7,895
887,2	3,41
887,6	2,667
888	9,467
888,5	9,495
888,9	6,981
889,3	15,152
889,8	15,21
890,2	16,581
890,6	17,667
891	16,981
891,5	12,867
891,9	13,438
892,3	7,495
892,7	5,724
893,2	9,267
893,6	9,21
894	5,552
894,4	10,295
894,9	4,038
895,3	5,838
895,7	4,067
896,1	-1,819
896,6	3,152
897	2,581
897,4	2,724
897,8	11,981
898,3	14,895
898,7	12,81
899,1	14,21
899,5	11,295
900	14,381
900,4	12,781
900,8	12,924
901,2	8,895
901,7	13,095
902,1	18,381
902,5	19,324
902,9	19,324
903,4	16,41
903,8	11,295
904,2	9,267
904,6	6,581
905,1	1,21
905,5	-0,933
905,9	-2,648
906,3	-0,162
906,8	-3,79
907,2	-1,562
907,6	-1,333
908	1,495
908,5	0,695
908,9	0,238
909,3	0,238
909,7	3,238
910,2	8,01
910,6	8,924
911	8,01
911,4	5,495
911,9	5,895
912,3	3,781
912,7	8,01
913,1	5,667
913,6	7,638
914	4,924
914,4	6,324
914,8	5,381
915,3	11,124
915,7	12,495
916,1	13,61
916,5	10,124
916,9	15,781
917,4	15,495
917,8	13,838
918,2	11,152
918,6	7,181
919,1	4,238
919,5	6,981
919,9	1,181
920,3	4,867
920,8	11,238
921,2	7,41
921,6	8,952
922	7,381
922,5	5,152
922,9	9,124
923,3	9,095
923,7	3,124
924,2	7,581
924,6	3,152
925	8,952
925,4	9,638
925,8	4,838
926,3	4,038
926,7	11,038
927,1	9,695
927,5	14,524
928	10,81
928,4	13,01
928,8	15,038
929,2	18,724
929,7	12,752
930,1	7,895
930,5	10,667
930,9	12,952
931,3	11,21
931,8	9,667
932,2	4,267
932,6	5,924
933	7,21
933,5	2,552
933,9	-0,933
934,3	-4,019
934,7	-3,419
935,2	-2,676
935,6	-1,819
936	2,152
936,4	0,295
936,8	3,01
937,3	9,067
937,7	7,952
938,1	6,695
938,5	4,152
939	5,438
939,4	9,124
939,8	7,295
940,2	5,695
940,6	6,552
941,1	6,752
941,5	9,524
941,9	6,952
942,3	6,267
942,8	7,638
943,2	4,552
943,6	7,038
944	2,381
944,4	-1,619
944,9	-3,076
945,3	-3,248
945,7	-2,076
946,1	-5,019
946,6	-5,219
947	-2,076
947,4	-0,648
947,8	-0,962
948,2	-0,905
948,7	-3,59
949,1	4,381
949,5	3,181
949,9	8,238
950,3	9,067
950,8	6,524
951,2	4,638
951,6	7,21
952	5,324
952,5	5,21
952,9	3,438
953,3	0,267
953,7	4,467
954,1	9,01
954,6	2,038
955	0,524
955,4	2,81
955,8	2,667
956,2	4,21
956,7	5,552
957,1	2,695
957,5	5,724
957,9	3,667
958,3	1,124
958,8	-1,019
959,2	-2,019
959,6	0,61
960	2,41
960,5	2,324
960,9	8,238
961,3	8,667
961,7	8,838
962,1	6,867
962,6	2,638
963	4,638
963,4	7,581
963,8	2,267
964,2	-0,533
964,7	-0,933
965,1	3,495
965,5	0,952
965,9	-2,505
966,3	-5,162
966,8	-4,133
967,2	-2,076
967,6	1,495
968	-2,448
968,4	1,467
968,9	5,038
969,3	7,438
969,7	13,667
970,1	16,81
970,5	14,581
971	17,181
971,4	13,61
971,8	8,352
972,2	6,324
972,6	0,667
973,1	-1,905
973,5	-3,79
973,9	-1,619
974,3	0,467
974,7	2,267
975,2	2,181
975,6	-0,219
976	-3,076
976,4	-3,19
976,8	-3,905
977,3	-1,962
977,7	-4,562
978,1	-4,19
978,5	-3,762
978,9	-1,962
979,4	0,581
979,8	-2,448
980,2	-2,362
980,6	-0,648
981	1,524
981,5	-3,676
981,9	-2,048
982,3	2,61
982,7	3,038
983,1	0,581
983,6	-2,076
984	-9,648
984,4	-2,219
984,8	-4,248
985,2	-10,219
985,6	-10,705
986,1	-10,505
986,5	-8,019
986,9	-2,933
987,3	0,61
987,7	1,381
988,2	2,467
988,6	8,752
989	13,495
989,4	13,752
989,8	12,638
990,3	8,352
990,7	9,638
991,1	8,552
991,5	7,638
991,9	3,267
992,3	5,124
992,8	1,81
993,2	0,352
993,6	-0,762
994	2,238
994,4	3,152
994,9	2,438
995,3	1,695
995,7	6,41
996,1	6,467
996,5	4,438
996,9	2,095
997,4	1,524
997,8	4,124
998,2	0,21
998,6	-1,505
999	-0,333
999,5	4,438
999,9	6,21
1000,3	-1,39
1000,7	-1,905
1001,1	-2,276
1001,5	-1,076
1002	-0,505
1002,4	-5,848
1002,8	-8,533
1003,2	-3,419
1003,6	-4,59
1004	-0,505
1004,5	2,41
1004,9	-0,105
1005,3	1,067
1005,7	4,295
1006,1	4,21
1006,6	3,295
1007	-0,19
1007,4	0,838
1007,8	0,352
1008,2	5,524
1008,6	1,038
1009,1	3,381
1009,5	4,952
1009,9	10,895
1010,3	5,067
1010,7	10,438
1011,1	7,781
1011,6	13,867
1012	14,267
1012,4	12,352
1012,8	7,81
1013,2	8,838
1013,6	4,781
1014,1	1,552
1014,5	0,438
1014,9	-1,305
1015,3	-2,619
1015,7	1,152
1016,1	2,467
1016,6	7,352
1017	8,81
1017,4	8,895
1017,8	10,352
1018,2	7,152
1018,6	3,924
1019,1	4,324
1019,5	3,752
1019,9	3,581
1020,3	-2,733
1020,7	-9,876
1021,1	-8,362
1021,6	-2,733
1022	-4,076
1022,4	-8,39
1022,8	-10,99
1023,2	-2,333
1023,6	0,638
1024,1	4,781
1024,5	-3,505
1024,9	-2,276
1025,3	-1,076
1025,7	-2,333
1026,1	-8,39
1026,6	-7,219
1027	-8,276
1027,4	-9,39
1027,8	-6,848
1028,2	-2,848
1028,6	2,152
1029	2,638
1029,5	-1,419
1029,9	-1,533
1030,3	3,238
1030,7	-1,19
1031,1	-3,133
1031,5	-4,105
1032	-3,762
1032,4	2,181
1032,8	2,324
1033,2	1,838
1033,6	7,095
1034	5,638
1034,4	3,895
1034,9	8,267
1035,3	7,524
1035,7	10,638
1036,1	15,495
1036,5	10,695
1036,9	12,495
1037,4	14,152
1037,8	11,181
1038,2	16,095
1038,6	14,952
1039	8,438
1039,4	11,838
1039,8	13,038
1040,3	18,238
1040,7	16,038
1041,1	6,467
1041,5	5,581
1041,9	11,41
1042,3	9,438
1042,7	6,781
1043,2	6,981
1043,6	8,124
1044	14,495
1044,4	16,238
1044,8	11,095
1045,2	9,638
1045,6	11,152
1046,1	4,381
1046,5	6,981
1046,9	1,552
1047,3	-1,048
1047,7	0,924
1048,1	-1,162
1048,5	-6,39
1049	-0,476
1049,4	-1,105
1049,8	-2,876
1050,2	-2,676
1050,6	-3,305
1051	4,895
1051,4	8,295
1051,9	1,81
1052,3	2,295
1052,7	8,01
1053,1	11,581
1053,5	13,867
1053,9	6,495
1054,3	5,267
1054,8	11,667
1055,2	11,638
1055,6	10,267
1056	10,038
1056,4	12,21
1056,8	14,952
1057,2	13,552
1057,6	2,067
1058,1	2,438
1058,5	2,21
1058,9	0,61
1059,3	-2,99
1059,7	-2,705
1060,1	0,324
1060,5	6,981
1061	5,381
1061,4	2,41
1061,8	4,495
1062,2	4,21
1062,6	0,181
1063	1,81
1063,4	2,438
1063,8	1,295
1064,3	6,724
1064,7	4,581
1065,1	1,21
1065,5	1,61
1065,9	0,152
1066,3	3,581
1066,7	1,238
1067,1	-5,362
1067,6	-5,162
1068	-2,162
1068,4	4,552
1068,8	0,752
1069,2	-1,848
1069,6	0,952
1070	5,981
1070,4	6,352
1070,9	2,952
1071,3	-1,676
1071,7	6,667
1072,1	5,552
1072,5	5,152
1072,9	8,124
1073,3	3,238
1073,7	3,952
1074,2	3,067
1074,6	-5,076
1075	-3,248
1075,4	2,124
1075,8	-3,362
1076,2	2,267
1076,6	4,124
1077	6,238
1077,5	11,495
1077,9	9,981
1078,3	5,295
1078,7	5,324
1079,1	3,867
1079,5	5,038
1079,9	2,867
1080,3	-1,79
1080,7	-0,19
1081,2	-0,59
1081,6	-0,362
1082	-1,876
1082,4	-3,676
1082,8	-0,59
1083,2	3,152
1083,6	0,581
1084	-0,962
1084,5	-1,133
1084,9	-2,476
1085,3	-6,79
1085,7	-5,59
1086,1	-4,219
1086,5	-4,848
1086,9	-4,876
1087,3	-0,362
1087,7	-1,133
1088,2	5,21
1088,6	2,981
1089	1,895
1089,4	3,152
1089,8	5,067
1090,2	2,695
1090,6	8,924
1091	9,895
1091,4	8,352
1091,9	5,952
1092,3	10,01
1092,7	5,581
1093,1	11,81
1093,5	9,752
1093,9	7,695
1094,3	12,724
1094,7	14,381
1095,1	15,41
1095,5	20,352
1096	15,981
1096,4	18,324
1096,8	16,981
1097,2	13,438
1097,6	16,181
1098	12,695
1098,4	11,238
1098,8	5,581
1099,2	0,467
1099,6	1,095
1100,1	-0,676
1100,5	-6,733
1100,9	-9,048
1101,3	-13,476
1101,7	-7,619
1102,1	-1,533
1102,5	-1,019
1102,9	2,01
1103,3	0,41
1103,7	3,781
1104,2	9,838
1104,6	7,667
1105	5,352
1105,4	6,095
1105,8	3,981
1106,2	7,181
1106,6	5,181
1107	4,352
1107,4	4,633
1107,8	1,547
1108,3	-0,133
