Data from Subt2_044.txt Node
Date: Sat Aug 26 16:25:24 MSK 2023
User: vat
Spectrometer: MAYP114033
Trigger mode: 0
Integration Time (sec): 1,000000E0
Scans to average: 5
Electric dark correction enabled: true
Nonlinearity correction enabled: false
Boxcar width: 3
XAxis mode: Wavelengths
Number of Pixels in Spectrum: 2068
>>>>>Begin Spectral Data<<<<<
199,4	0,233
199,9	-2,127
200,4	-0,6
200,8	-0,967
201,3	-2,424
201,8	-1,367
202,2	2,176
202,7	4,005
203,2	5,862
203,6	5,548
204,1	6,89
204,6	11,519
205	12,033
205,5	6,519
206	8,433
206,4	9,576
206,9	9,633
207,4	14,948
207,8	8,862
208,3	7,462
208,8	10,319
209,2	8,376
209,7	5,519
210,2	6,89
210,6	-1,281
211,1	0,633
211,5	-0,595
212	-3,424
212,5	-10,052
212,9	-6,881
213,4	-6,024
213,9	-2,881
214,3	2,462
214,8	5,69
215,3	3,776
215,7	6,462
216,2	6,719
216,7	1,348
217,1	-0,252
217,6	-4,252
218,1	-3,538
218,5	5,948
219	9,69
219,5	7,319
219,9	12,662
220,4	13,119
220,9	10,748
221,3	8,49
221,8	-2,652
222,3	-3,195
222,7	-7,767
223,2	-6,767
223,6	-6,338
224,1	-4,852
224,6	-5,167
225	-2,167
225,5	1,119
226	5,976
226,4	7,205
226,9	6,49
227,4	8,005
227,8	7,233
228,3	12,462
228,8	9,033
229,2	11,805
229,7	2,09
230,2	3,548
230,6	2,119
231,1	3,262
231,5	0,062
232	7,262
232,5	3,89
232,9	5,405
233,4	5,062
233,9	7,919
234,3	8,748
234,8	10,405
235,3	6,833
235,7	14,29
236,2	19,719
236,7	21,862
237,1	17,833
237,6	18,319
238,1	21,519
238,5	17,119
239	12,776
239,4	14,09
239,9	10,176
240,4	7,233
240,8	3,948
241,3	-1,395
241,8	-1,91
242,2	-2,51
242,7	-5,567
243,2	-5,995
243,6	-2,395
244,1	-1,252
244,6	-3,624
245	-2,081
245,5	-1,824
245,9	-1,652
246,4	-1,624
246,9	0,262
247,3	-1,481
247,8	4,062
248,3	7,205
248,7	10,348
249,2	8,062
249,7	9,29
250,1	8,69
250,6	9,69
251	5,862
251,5	-3,195
252	-3,881
252,4	-4,624
252,9	-2,995
253,4	0,976
253,8	-0,338
254,3	2,919
254,8	10,633
255,2	7,805
255,7	13,49
256,1	14,405
256,6	8,433
257,1	15,348
257,5	15,205
258	12,833
258,5	10,862
258,9	9,233
259,4	10,976
259,9	12,833
260,3	7,719
260,8	7,405
261,2	9,948
261,7	13,548
262,2	10,633
262,6	5,262
263,1	3,09
263,6	6,49
264	3,976
264,5	4,348
264,9	0,862
265,4	3,519
265,9	7,319
266,3	9,005
266,8	7,176
267,3	8,148
267,7	5,862
268,2	3,662
268,7	4,49
269,1	2,348
269,6	5,405
270	7,176
270,5	12,576
271	13,719
271,4	12,09
271,9	9,548
272,4	9,405
272,8	4,005
273,3	1,576
273,7	-3,881
274,2	-2,567
274,7	0,919
275,1	-2,195
275,6	2,376
276,1	6,605
276,5	7,233
277	8,433
277,4	10,405
277,9	6,09
278,4	11,09
278,8	12,605
279,3	10,405
279,8	13,29
280,2	11,69
280,7	6,862
281,1	11,776
281,6	9,948
282,1	5,148
282,5	6,948
283	4,662
283,4	4,405
283,9	6,776
284,4	8,548
284,8	10,462
285,3	6,976
285,8	3,233
286,2	0,09
286,7	1,205
287,1	-5,281
287,6	-6,281
288,1	-3,224
288,5	4,405
289	7,462
289,5	9,462
289,9	6,005
290,4	10,005
290,8	14,69
291,3	8,176
291,8	3,576
292,2	5,748
292,7	5,548
293,1	8,976
293,6	10,976
294,1	6,462
294,5	11,919
295	9,776
295,5	10,548
295,9	14,548
296,4	12,09
296,8	8,319
297,3	9,805
297,8	10,262
298,2	11,862
298,7	8,29
299,1	3,062
299,6	8,005
300,1	12,405
300,5	12,176
301	9,89
301,5	10,633
301,9	8,862
302,4	12,49
302,8	13,948
303,3	11,89
303,8	9,719
304,2	6,662
304,7	5,49
305,1	8,29
305,6	5,119
306,1	4,033
306,5	3,605
307	3,633
307,4	3,833
307,9	-0,167
308,4	-1,338
308,8	4,748
309,3	2,033
309,8	5,805
310,2	2,776
310,7	10,948
311,1	13,976
311,6	12,776
312,1	13,576
312,5	9,748
313	4,548
313,4	9,005
313,9	8,433
314,4	8,662
314,8	10,833
315,3	6,805
315,7	11,462
316,2	13,376
316,7	12,576
317,1	10,948
317,6	9,748
318	11,148
318,5	14,376
319	12,119
319,4	11,862
319,9	11,062
320,3	8,833
320,8	10,948
321,3	5,576
321,7	-1,138
322,2	1,576
322,6	-1,31
323,1	-3,395
323,6	-6,31
324	-4,595
324,5	-2,281
324,9	0,233
325,4	1,09
325,9	7,205
326,3	9,605
326,8	10,119
327,2	8,805
327,7	10,033
328,2	11,69
328,6	12,805
329,1	11,719
329,5	16,29
330	20,005
330,5	19,376
330,9	21,49
331,4	16,29
331,8	16,176
332,3	17,262
332,8	10,49
333,2	5,89
333,7	8,49
334,1	6,262
334,6	9,005
335,1	8,176
335,5	6,576
336	9,776
336,4	11,748
336,9	14,205
337,4	16,776
337,8	18,976
338,3	15,833
338,7	15,776
339,2	18,719
339,7	18,176
340,1	12,462
340,6	7,862
341	10,09
341,5	15,005
342	13,662
342,4	9,433
342,9	8,748
343,3	9,405
343,8	13,576
344,2	12,033
344,7	7,633
345,2	3,519
345,6	9,548
346,1	11,919
346,5	12,633
347	15,062
347,5	11,29
347,9	12,005
348,4	17,805
348,8	12,833
349,3	14,062
349,8	14,319
350,2	12,233
350,7	14,348
351,1	15,662
351,6	19,69
352	31,348
352,5	33,462
353	46,833
353,4	52,033
353,9	62,09
354,3	78,119
354,8	87,69
355,3	100,662
355,7	120,49
356,2	134,919
356,6	165,062
357,1	191,948
357,5	218,862
358	258,833
358,5	301,462
358,9	349,948
359,4	411,69
359,8	466,862
360,3	543,262
360,8	625,405
361,2	712,062
361,7	806,319
362,1	914,748
362,6	1030,548
363	1158,976
363,5	1293,719
364	1428,205
364,4	1570,519
364,9	1708,576
365,3	1845,976
365,8	1976,148
366,3	2105,462
366,7	2214,319
367,2	2317,576
367,6	2398,233
368,1	2465,976
368,5	2509,548
369	2530,348
369,5	2531,376
369,9	2509,919
370,4	2469,69
370,8	2416,948
371,3	2343,376
371,7	2260,033
372,2	2167,348
372,7	2053,719
373,1	1948,176
373,6	1835,29
374	1715,462
374,5	1598,233
374,9	1479,976
375,4	1369,348
375,9	1272,205
376,3	1169,805
376,8	1078,205
377,2	995,29
377,7	916,233
378,2	846,719
378,6	775,576
379,1	711,09
379,5	656,033
380	603,205
380,4	553,833
380,9	510,719
381,4	471,233
381,8	436,319
382,3	402,49
382,7	366,176
383,2	337,205
383,6	311,605
384,1	289,89
384,6	263,376
385	243,69
385,5	225,205
385,9	214,176
386,4	198,262
386,8	189,69
387,3	177,519
387,7	173,89
388,2	162,89
388,7	154,976
389,1	145,062
389,6	137,033
390	123,262
390,5	116,119
390,9	109,119
391,4	105,119
391,9	97,062
392,3	87,348
392,8	80,519
393,2	72,148
393,7	70,805
394,1	64,776
394,6	57,776
395,1	56,948
395,5	58,348
396	57,976
396,4	59,833
396,9	53,462
397,3	48,319
397,8	47,262
398,2	42,548
398,7	33,662
399,2	32,376
399,6	34,433
400,1	30,09
400,5	32,205
401	32,062
401,4	36,976
401,9	44,262
402,4	44,376
402,8	40,776
403,3	43,69
403,7	41,633
404,2	44,205
404,6	38,376
405,1	32,462
405,5	29,233
406	30,605
406,5	29,776
406,9	30,062
407,4	30,348
407,8	31,862
408,3	38,005
408,7	44,176
409,2	45,576
409,6	47,862
410,1	57,376
410,6	61,805
411	68,233
411,5	71,148
411,9	74,233
412,4	82,633
412,8	90,205
413,3	90,233
413,7	93,948
414,2	102,29
414,7	113,09
415,1	117,719
415,6	123,29
416	129,519
416,5	134,776
416,9	142,776
417,4	147,176
417,8	153,376
418,3	166,576
418,8	168,662
419,2	177,919
419,7	191,662
420,1	198,633
420,6	210,633
421	218,833
421,5	226,833
421,9	243,976
422,4	254,376
422,8	263,662
423,3	275,233
423,8	287,662
424,2	303,376
424,7	316,462
425,1	325,633
425,6	347,462
426	363,919
426,5	379,662
426,9	392,89
427,4	405,862
427,9	420,49
428,3	439,576
428,8	454,719
429,2	471,576
429,7	491,262
430,1	514,948
430,6	537,69
431	561,948
431,5	587,433
431,9	611,919
432,4	640,89
432,8	669,662
433,3	695,062
433,8	726,519
434,2	762,605
434,7	796,148
435,1	833,319
435,6	880,319
436	919,748
436,5	969,005
436,9	1018,948
437,4	1064,976
437,8	1112,605
438,3	1162,262
438,8	1206,433
439,2	1265,862
439,7	1321,262
440,1	1378,548
440,6	1443,69
441	1508,005
441,5	1567,862
441,9	1637,662
442,4	1710,462
442,8	1781,89
443,3	1854,233
443,7	1921,119
444,2	2000,633
444,7	2089,89
445,1	2170,319
445,6	2250,833
446	2338,348
446,5	2426,862
446,9	2523,948
447,4	2625,69
447,8	2720,919
448,3	2822,919
448,7	2925,548
449,2	3030,748
449,6	3132,976
450,1	3242,29
450,6	3349,89
451	3456,862
451,5	3569,462
451,9	3687,776
452,4	3808,748
452,8	3935,49
453,3	4056,005
453,7	4174,29
454,2	4300,433
454,6	4430,205
455,1	4559,29
455,5	4691,233
456	4824,662
456,4	4960,49
456,9	5094,376
457,3	5235,119
457,8	5373,576
458,3	5524,69
458,7	5668,948
459,2	5814,548
459,6	5968,662
460,1	6123,605
460,5	6278,033
461	6424,748
461,4	6570,033
461,9	6715,119
462,3	6864,005
462,8	7015,262
463,2	7162,69
463,7	7306,205
464,1	7463,348
464,6	7613,119
465	7765,719
465,5	7924,748
466	8067,148
466,4	8224,319
466,9	8379,119
467,3	8523,633
467,8	8672,605
468,2	8819,548
468,7	8953,748
469,1	9096,319
469,6	9246,69
470	9390,005
470,5	9531,948
470,9	9673,748
471,4	9810,719
471,8	9951,69
472,3	10082,919
472,7	10212,433
473,2	10329,462
473,6	10458,805
474,1	10567,89
474,5	10687,119
475	10808,148
475,4	10930,09
475,9	11046,148
476,4	11168,433
476,8	11283,748
477,3	11399,748
477,7	11510,948
478,2	11601,69
478,6	11702,233
479,1	11785,205
479,5	11876,748
480	11961,233
480,4	12044,062
480,9	12120,576
481,3	12201,233
481,8	12272,119
482,2	12345,89
482,7	12403,633
483,1	12454,662
483,6	12508,548
484	12557,405
484,5	12600,405
484,9	12643,519
485,4	12674,519
485,8	12708,176
486,3	12737,662
486,7	12775,205
487,2	12798,605
487,6	12813,433
488,1	12828,176
488,5	12840,805
489	12854,233
489,4	12860,948
489,9	12857,462
490,4	12858,748
490,8	12856,433
491,3	12848,833
491,7	12844,919
492,2	12835,805
492,6	12817,205
493,1	12787,519
493,5	12752,519
494	12722,776
494,4	12683,919
494,9	12646,519
495,3	12605,29
495,8	12568,033
496,2	12530,176
496,7	12490,576
497,1	12448,062
497,6	12401,205
498	12341,148
498,5	12289,09
498,9	12227,433
499,4	12172,119
499,8	12106,376
500,3	12047,49
500,7	11984,519
501,2	11928,862
501,6	11861,49
502,1	11801,49
502,5	11725,49
503	11668,319
503,4	11598,233
503,9	11544,405
504,3	11461,719
504,8	11379,319
505,2	11293,576
505,7	11218,348
506,1	11138,29
506,6	11050,119
507	10951,062
507,5	10873,948
507,9	10797,09
508,4	10726,233
508,8	10641,862
509,3	10548,09
509,7	10453,005
510,2	10360,462
510,6	10272,205
511,1	10189,776
511,5	10086,69
512	9992,748
512,4	9904,633
512,9	9825,376
513,3	9737,262
513,8	9642,176
514,2	9542,433
514,7	9449,605
515,1	9357,062
515,6	9262,205
516	9170,576
516,5	9081,233
516,9	8986,376
517,4	8893,69
517,8	8804,29
518,3	8712,119
518,7	8616,262
519,2	8530,833
519,6	8438,062
520,1	8352,119
520,5	8258,748
521	8166,919
521,4	8074,919
521,9	7992,49
522,3	7903,033
522,8	7817,719
523,2	7721,376
523,7	7633,776
524,1	7549,976
524,6	7461,862
525	7376,519
525,5	7290,405
525,9	7199,405
526,4	7122,119
526,8	7038,005
527,3	6959,062
527,7	6886,348
528,2	6803,405
528,6	6727,69
529,1	6648,805
529,5	6566,205
530	6498,005
530,4	6430,062
530,9	6356,462
531,3	6285,433
531,8	6213,205
532,2	6140,176
532,6	6071,376
533,1	5993,976
533,5	5916,433
534	5847,148
534,4	5778,833
534,9	5712,033
535,3	5656,062
535,8	5591,948
536,2	5531,233
536,7	5470,033
537,1	5404,49
537,6	5345,176
538	5281,033
538,5	5213,776
538,9	5155,005
539,4	5096,919
539,8	5036,062
540,3	4975,262
540,7	4921,805
541,2	4860,462
541,6	4805,005
542,1	4753,233
542,5	4691,833
543	4636,833
543,4	4591,062
543,9	4529,462
544,3	4485,005
544,8	4441,262
545,2	4396,69
545,7	4359,005
546,1	4318,433
546,5	4270,833
547	4227,462
547,4	4183,49
547,9	4143,548
548,3	4093,405
548,8	4046,862
549,2	4000,319
549,7	3959,233
550,1	3929,176
550,6	3885,776
551	3843,405
551,5	3802,719
551,9	3770,233
552,4	3729,976
552,8	3693,262
553,3	3647,005
553,7	3608,719
554,2	3570,862
554,6	3539,005
555,1	3496,633
555,5	3468,462
555,9	3431,662
556,4	3399,862
556,8	3365,205
557,3	3329,862
557,7	3302,233
558,2	3269,805
558,6	3239,719
559,1	3215,033
559,5	3186,49
560	3163,176
560,4	3139,348
560,9	3106,748
561,3	3078,605
561,8	3051,033
562,2	3017,919
562,7	2987,976
563,1	2959,748
563,6	2933,005
564	2905,29
564,4	2882,033
564,9	2846,148
565,3	2824,148
565,8	2802,062
566,2	2779,748
566,7	2748,748
567,1	2725,119
567,6	2709,09
568	2693,605
568,5	2669,348
568,9	2644,948
569,4	2620,89
569,8	2603,033
570,3	2581,548
570,7	2552,005
571,1	2523,262
571,6	2501,633
572	2480,376
572,5	2455,748
572,9	2440,119
573,4	2420,119
573,8	2399,148
574,3	2386,09
574,7	2364,49
575,2	2339,376
575,6	2323,205
576,1	2300,605
576,5	2282,033
576,9	2264,176
577,4	2242,748
577,8	2223,062
578,3	2204,005
578,7	2186,976
579,2	2168,376
579,6	2150,49
580,1	2132,776
580,5	2115,319
581	2099,805
581,4	2086,833
581,9	2068,433
582,3	2047,948
582,7	2035,576
583,2	2017,262
583,6	1998,919
584,1	1984,176
584,5	1971,776
585	1955,148
585,4	1938,376
585,9	1923,062
586,3	1910,033
586,8	1895,09
587,2	1879,548
587,6	1860,89
588,1	1846,262
588,5	1836,519
589	1819,49
589,4	1808,776
589,9	1802,29
590,3	1785,519
590,8	1779,948
591,2	1767,09
591,7	1753,176
592,1	1739,119
592,5	1727,919
593	1707,605
593,4	1700,748
593,9	1680,548
594,3	1658,462
594,8	1647,376
595,2	1645,548
595,7	1629,433
596,1	1621,89
596,6	1610,976
597	1605,262
597,4	1605,69
597,9	1597,748
598,3	1578,176
598,8	1567,605
599,2	1567,462
599,7	1555,433
600,1	1543,49
600,6	1532,262
601	1517,09
601,4	1509,49
601,9	1498,262
602,3	1477,49
602,8	1470,49
603,2	1463,633
603,7	1460,833
604,1	1457,033
604,6	1443,062
605	1435,033
605,4	1427,805
605,9	1414,262
606,3	1404,69
606,8	1387,062
607,2	1375,09
607,7	1368,633
608,1	1364,462
608,6	1357,005
609	1350,833
609,4	1345,805
609,9	1341,005
610,3	1328,319
610,8	1323,433
611,2	1310,405
611,7	1299,748
612,1	1288,919
612,6	1277,49
613	1266,719
613,4	1264,176
613,9	1253,205
614,3	1249,205
614,8	1239,89
615,2	1232,862
615,7	1224,176
616,1	1217,462
616,6	1205,09
617	1195,119
617,4	1182,29
617,9	1175,576
618,3	1169,09
618,8	1159,09
619,2	1151,062
619,7	1142,748
620,1	1138,405
620,5	1136,033
621	1127,776
621,4	1118,462
621,9	1114,719
622,3	1107,976
622,8	1097,062
623,2	1089,662
623,6	1076,262
624,1	1072,062
624,5	1068,662
625	1052,376
625,4	1045,405
625,9	1043,405
626,3	1034,748
626,8	1030,205
627,2	1021,948
627,6	1013,805
628,1	1016,005
628,5	1006,605
629	1003,633
629,4	991,69
629,9	982,005
630,3	974,09
630,7	967,805
631,2	959,748
631,6	955,833
632,1	944,862
632,5	944,119
633	936,433
633,4	930,49
633,8	916,633
634,3	904,776
634,7	903,69
635,2	897,576
635,6	887,69
636,1	893,005
636,5	888,405
636,9	891,433
637,4	889,948
637,8	876,69
638,3	869,062
638,7	869,376
639,2	859,376
639,6	849,405
640	837,662
640,5	837,005
640,9	832,69
641,4	828,519
641,8	820,033
642,2	814,862
642,7	810,548
643,1	812,633
643,6	803,462
644	803,548
644,5	800,776
644,9	793,062
645,3	783,433
645,8	781,605
646,2	773,633
646,7	766,005
647,1	755,033
647,6	749,376
648	747,433
648,4	742,919
648,9	737,119
649,3	728,033
649,8	725,119
650,2	719,605
650,6	715,233
651,1	716,319
651,5	715,805
652	710,662
652,4	708,662
652,9	710,119
653,3	709,719
653,7	704,376
654,2	696,748
654,6	690,29
655,1	681,719
655,5	678,376
655,9	665,948
656,4	659,29
656,8	654,205
657,3	644,633
657,7	634,49
658,2	639,948
658,6	633,69
659	632,29
659,5	626,233
659,9	624,29
660,4	623,633
660,8	626,776
661,2	621,862
661,7	618,605
662,1	611,748
662,6	611,005
663	607,119
663,4	602,205
663,9	597,433
664,3	590,119
664,8	588,919
665,2	583,748
665,6	576,662
666,1	570,405
666,5	562,205
667	551,262
667,4	550,833
667,9	542,176
668,3	542,776
668,7	537,348
669,2	534,776
669,6	534,462
670,1	537,89
670,5	525,748
670,9	528,976
671,4	526,033
671,8	525,548
672,3	520,776
672,7	518,805
673,1	512,719
673,6	515,29
674	507,005
674,5	506,576
674,9	501,29
675,3	496,519
675,8	492,062
676,2	495,719
676,7	489,148
677,1	483,833
677,5	473,89
678	476,233
678,4	475,319
678,9	470,462
679,3	460,376
679,7	459,948
680,2	461,833
680,6	457,862
681,1	449,433
681,5	445,29
681,9	441,405
682,4	439,09
682,8	433,519
683,3	425,405
683,7	425,89
684,1	421,233
684,6	419,919
685	418,119
685,5	413,119
685,9	411,519
686,3	411,233
686,8	403,433
687,2	407,976
687,7	405,519
688,1	404,633
688,5	403,29
689	402,405
689,4	400,148
689,9	404,833
690,3	401,576
690,7	393,862
691,2	390,719
691,6	387,205
692	380,776
692,5	378,005
692,9	372,805
693,4	366,805
693,8	367,69
694,2	363,605
694,7	358,148
695,1	354,948
695,6	349,605
696	341,033
696,4	336,205
696,9	334,176
697,3	330,862
697,8	328,976
698,2	326,976
698,6	328,605
699,1	328,976
699,5	327,662
699,9	326,633
700,4	326,833
700,8	331,005
701,3	333,233
701,7	328,748
702,1	327,605
702,6	326,576
703	323,776
703,5	322,433
703,9	314,262
704,3	308,119
704,8	306,319
705,2	306,319
705,6	300,376
706,1	297,805
706,5	296,405
707	295,662
707,4	294,348
707,8	292,462
708,3	284,433
708,7	290,09
709,2	289,262
709,6	285,976
710	284,433
710,5	283,433
710,9	281,29
711,3	282,09
711,8	274,89
712,2	273,205
712,7	272,862
713,1	270,233
713,5	264,976
714	264,605
714,4	263,519
714,8	262,062
715,3	260,748
715,7	252,748
716,2	250,433
716,6	254,262
717	248,748
717,5	248,433
717,9	245,805
718,3	241,719
718,8	242,49
719,2	242,062
719,7	238,119
720,1	232,233
720,5	232,89
721	232,633
721,4	234,348
721,8	236,29
722,3	234,462
722,7	228,576
723,2	234,833
723,6	228,462
724	225,29
724,5	217,233
724,9	212,262
725,3	208,919
725,8	208,605
726,2	202,833
726,7	201,89
727,1	199,548
727,5	202,833
728	202,776
728,4	202,09
728,8	201,548
729,3	197,319
729,7	195,919
730,1	192,29
730,6	189,976
731	191,49
731,5	188,462
731,9	189,519
732,3	191,29
732,8	194,919
733,2	197,005
733,6	197,205
734,1	195,805
734,5	194,919
734,9	192,976
735,4	196,405
735,8	194,29
736,3	191,976
736,7	189,433
737,1	187,748
737,6	188,176
738	187,605
738,4	186,433
738,9	182,948
739,3	181,205
739,7	180,205
740,2	178,976
740,6	179,719
741,1	174,69
741,5	172,176
741,9	166,119
742,4	168,576
742,8	168,633
743,2	166,119
743,7	164,405
744,1	163,29
744,5	163,776
745	163,005
745,4	161,319
745,8	161,005
746,3	158,148
746,7	156,948
747,2	164,376
747,6	162,662
748	162,005
748,5	155,605
748,9	150,719
749,3	158,462
749,8	154,948
750,2	149,633
750,6	145,919
751,1	152,548
751,5	154,548
751,9	153,062
752,4	147,633
752,8	147,833
753,3	143,748
753,7	143,576
754,1	135,005
754,6	132,148
755	132,433
755,4	126,976
755,9	127,919
756,3	128,69
756,7	127,89
757,2	130,348
757,6	135,262
758	132,119
758,5	131,805
758,9	130,29
759,3	127,833
759,8	134,233
760,2	136,919
760,6	134,062
761,1	135,09
761,5	136,776
761,9	134,519
762,4	136,119
762,8	127,833
763,3	122,548
763,7	117,805
764,1	115,948
764,6	110,862
765	109,49
765,4	111,748
765,9	110,548
766,3	109,348
766,7	112,119
767,2	112,405
767,6	114,262
768	115,605
768,5	110,462
768,9	111,148
769,3	110,205
769,8	110,719
770,2	114,719
770,6	114,119
771,1	116,748
771,5	118,119
771,9	117,462
772,4	121,148
772,8	120,719
773,2	114,976
773,7	117,919
774,1	117,662
774,5	118,948
775	116,805
775,4	113,748
775,8	112,176
776,3	110,319
776,7	107,719
777,1	106,948
777,6	101,29
778	102,805
778,4	99,09
778,9	96,548
779,3	100,005
779,7	96,376
780,2	89,919
780,6	91,09
781	86,376
781,5	88,633
781,9	90,49
782,3	91,462
782,8	87,176
783,2	85,319
783,6	83,49
784,1	84,576
784,5	80,348
784,9	82,833
785,4	78,576
785,8	78,119
786,2	80,233
786,7	79,805
787,1	79,976
787,5	83,462
788	79,976
788,4	77,033
788,8	81,776
789,3	81,062
789,7	78,919
790,1	81,233
790,6	84,262
791	83,005
791,4	83,205
791,9	82,976
792,3	83,919
792,7	90,49
793,2	83,69
793,6	81,033
794	77,49
794,5	81,233
794,9	80,605
795,3	77,976
795,8	68,805
796,2	74,119
796,6	68,233
797,1	70,09
797,5	67,176
797,9	65,662
798,4	66,176
798,8	65,633
799,2	64,462
799,7	69,462
800,1	71,09
800,5	69,148
801	69,548
801,4	69,633
801,8	73,776
802,2	71,376
802,7	67,748
803,1	61,805
803,5	63,548
804	63,776
804,4	64,062
804,8	66,005
805,3	65,148
805,7	67,005
806,1	73,376
806,6	74,719
807	70,576
807,4	68,319
807,9	63,29
808,3	61,462
808,7	58,005
809,2	53,605
809,6	52,462
810	52,148
810,4	51,633
810,9	50,548
811,3	51,405
811,7	49,748
812,2	53,462
812,6	54,376
813	58,09
813,5	62,348
813,9	62,205
814,3	63,262
814,8	67,062
815,2	61,662
815,6	55,919
816,1	51,719
816,5	47,005
816,9	48,233
817,3	47,119
817,8	48,605
818,2	46,519
818,6	50,605
819,1	49,405
819,5	50,49
819,9	47,662
820,4	44,69
820,8	38,833
821,2	44,49
821,7	43,776
822,1	48,205
822,5	46,319
822,9	53,633
823,4	56,89
823,8	60,519
824,2	57,148
824,7	56,462
825,1	55,033
825,5	60,776
826	58,205
826,4	58,262
826,8	57,605
827,3	59,033
827,7	58,662
828,1	59,148
828,5	55,033
829	50,119
829,4	51,719
829,8	49,29
830,3	47,519
830,7	45,262
831,1	41,49
831,6	36,548
832	37,719
832,4	35,348
832,8	37,433
833,3	31,89
833,7	35,176
834,1	33,062
834,6	33,376
835	30,976
835,4	31,976
835,8	27,519
836,3	32,348
836,7	25,919
837,1	26,89
837,6	27,776
838	29,233
838,4	27,833
838,9	33,919
839,3	37,662
839,7	38,748
840,1	37,319
840,6	37,062
841	38,719
841,4	34,633
841,9	30,976
842,3	27,862
842,7	28,662
843,1	34,662
843,6	37,348
844	37,548
844,4	38,319
844,9	40,005
845,3	40,119
845,7	42,805
846,2	39,148
846,6	34,148
847	29,776
847,4	30,405
847,9	30,948
848,3	26,805
848,7	25,205
849,2	27,519
849,6	31,776
850	33,69
850,4	36,462
850,9	35,948
851,3	37,49
851,7	36,862
852,2	26,69
852,6	28,119
853	33,69
853,4	34,519
853,9	28,319
854,3	27,633
854,7	26,633
855,2	32,348
855,6	27,348
856	19,148
856,4	18,119
856,9	20,748
857,3	20,319
857,7	23,462
858,2	22,69
858,6	24,633
859	25,576
859,4	23,862
859,9	24,69
860,3	24,862
860,7	17,833
861,1	20,69
861,6	20,005
862	19,776
862,4	18,49
862,9	19,376
863,3	22,833
863,7	27,49
864,1	24,633
864,6	24,233
865	25,548
865,4	24,233
865,9	22,805
866,3	24,605
866,7	23,29
867,1	28,233
867,6	28,405
868	30,919
868,4	32,119
868,8	31,548
869,3	26,205
869,7	25,633
870,1	24,062
870,6	26,09
871	15,348
871,4	14,033
871,8	14,833
872,3	14,005
872,7	14,148
873,1	14,376
873,5	15,948
874	25,719
874,4	25,09
874,8	25,605
875,3	26,005
875,7	25,033
876,1	22,062
876,5	16,833
877	14,776
877,4	14,948
877,8	12,805
878,2	12,719
878,7	17,319
879,1	20,205
879,5	20,776
879,9	21,005
880,4	20,919
880,8	22,833
881,2	22,833
881,7	21,262
882,1	19,262
882,5	19,519
882,9	19,862
883,4	25,748
883,8	25,548
884,2	28,49
884,6	25,805
885,1	29,719
885,5	34,433
885,9	34,776
886,3	30,719
886,8	25,776
887,2	23,005
887,6	20,09
888	14,176
888,5	12,833
888,9	11,005
889,3	7,919
889,8	12,519
890,2	8,148
890,6	12,205
891	12,89
891,5	10,319
891,9	11,49
892,3	15,719
892,7	19,348
893,2	23,233
893,6	21,948
894	24,376
894,4	25,319
894,9	24,233
895,3	18,833
895,7	12,49
896,1	10,348
896,6	9,833
897	7,976
897,4	1,719
897,8	2,319
898,3	10,29
898,7	13,976
899,1	17,976
899,5	16,262
900	17,376
900,4	20,776
900,8	21,69
901,2	17,09
901,7	12,348
902,1	11,576
902,5	12,462
902,9	13,919
903,4	15,062
903,8	9,862
904,2	11,719
904,6	11,919
905,1	11,262
905,5	10,862
905,9	9,576
906,3	7,662
906,8	12,29
907,2	7,805
907,6	9,605
908	9,405
908,5	10,348
908,9	5,805
909,3	5,605
909,7	2,319
910,2	3,09
910,6	3,605
911	3,948
911,4	3,319
911,9	4,348
912,3	4,662
912,7	8,519
913,1	7,719
913,6	8,319
914	8,605
914,4	7,262
914,8	8,548
915,3	6,69
915,7	4,49
916,1	3,605
916,5	2,062
916,9	-0,224
917,4	0,919
917,8	-1,681
918,2	-3,424
918,6	-3,224
919,1	-3,195
919,5	-1,024
919,9	3,376
920,3	6,148
920,8	9,776
921,2	17,29
921,6	16,348
922	17,348
922,5	16,862
922,9	13,519
923,3	12,89
923,7	11,09
924,2	7,033
924,6	7,662
925	7,462
925,4	8,805
925,8	11,633
926,3	12,948
926,7	11,576
927,1	12,29
927,5	12,862
928	11,662
928,4	8,89
928,8	8,976
929,2	5,262
929,7	4,09
930,1	4,119
930,5	0,262
930,9	4,29
931,3	3,233
931,8	-0,995
932,2	-0,252
932,6	3,605
933	-2,024
933,5	0,69
933,9	-3,11
934,3	-2,624
934,7	-0,052
935,2	2,119
935,6	1,405
936	4,805
936,4	3,776
936,8	5,862
937,3	6,948
937,7	5,719
938,1	-0,138
938,5	-1,824
939	-0,595
939,4	4,119
939,8	4,548
940,2	5,805
940,6	1,948
941,1	9,062
941,5	12,033
941,9	10,49
942,3	4,662
942,8	4,633
943,2	0,89
943,6	5,176
944	0,919
944,4	-3,367
944,9	-0,652
945,3	2,662
945,7	-0,167
946,1	3,633
946,6	2,69
947	4,119
947,4	10,519
947,8	10,805
948,2	6,69
948,7	11,548
949,1	7,719
949,5	9,462
949,9	12,548
950,3	10,633
950,8	11,576
951,2	15,462
951,6	14,805
952	14,062
952,5	9,576
952,9	5,948
953,3	1,176
953,7	-1,338
954,1	-3,024
954,6	-4,195
955	-4,881
955,4	-2,481
955,8	-0,281
956,2	1,033
956,7	2,805
957,1	2,748
957,5	3,976
957,9	3,376
958,3	3,89
958,8	1,176
959,2	6,776
959,6	6,89
960	7,09
960,5	6,062
960,9	10,405
961,3	9,09
961,7	7,862
962,1	4,262
962,6	1,233
963	1,519
963,4	1,005
963,8	0,862
964,2	-1,224
964,7	1,976
965,1	4,262
965,5	2,205
965,9	2,005
966,3	0,119
966,8	-1,624
967,2	2,148
967,6	0,662
968	1,462
968,4	5,948
968,9	8,548
969,3	8,433
969,7	8,519
970,1	10,833
970,5	12,948
971	6,405
971,4	10,89
971,8	12,633
972,2	14,919
972,6	17,033
973,1	17,062
973,5	15,49
973,9	15,148
974,3	8,948
974,7	3,319
975,2	2,948
975,6	-1,938
976	0,519
976,4	1,633
976,8	1,719
977,3	1,976
977,7	1,033
978,1	-2,881
978,5	-0,624
978,9	-6,967
979,4	-11,567
979,8	-7,652
980,2	-10,11
980,6	-6,081
981	0,862
981,5	0,862
981,9	1,633
982,3	1,462
982,7	2,605
983,1	5,49
983,6	4,376
984	1,519
984,4	4,433
984,8	5,033
985,2	7,119
985,6	3,833
986,1	5,376
986,5	3,062
986,9	3,805
987,3	0,148
987,7	2,862
988,2	4,262
988,6	1,948
989	-1,852
989,4	4,005
989,8	-2,395
990,3	0,09
990,7	-5,738
991,1	-9,967
991,5	-7,31
991,9	-3,167
992,3	-6,91
992,8	2,662
993,2	2,748
993,6	3,948
994	5,319
994,4	7,833
994,9	5,205
995,3	5,605
995,7	-2,681
996,1	-4,652
996,5	-2,081
996,9	-2,652
997,4	-2,938
997,8	0,948
998,2	2,976
998,6	7,319
999	9,176
999,5	10,319
999,9	12,748
1000,3	15,233
1000,7	10,49
1001,1	5,976
1001,5	5,233
1002	0,519
1002,4	-0,252
1002,8	3,119
1003,2	-0,852
1003,6	3,262
1004	8,748
1004,5	8,776
1004,9	13,148
1005,3	10,519
1005,7	7,833
1006,1	5,205
1006,6	2,462
1007	-2,252
1007,4	-3,938
1007,8	-5,681
1008,2	-6,024
1008,6	-8,738
1009,1	-10,481
1009,5	0,662
1009,9	5,233
1010,3	11,233
1010,7	14,233
1011,1	18,376
1011,6	17,633
1012	22,033
1012,4	13,29
1012,8	6,262
1013,2	5,119
1013,6	3,833
1014,1	-0,167
1014,5	3,948
1014,9	4,148
1015,3	4,376
1015,7	6,633
1016,1	3,005
1016,6	5,205
1017	1,69
1017,4	-1,967
1017,8	-3,081
1018,2	-5,052
1018,6	-1,338
1019,1	-4,395
1019,5	-4,71
1019,9	2,148
1020,3	3,776
1020,7	4,433
1021,1	7,748
1021,6	6,462
1022	7,348
1022,4	7,433
1022,8	7,719
1023,2	9,205
1023,6	4,548
1024,1	3,548
1024,5	2,89
1024,9	6,176
1025,3	3,376
1025,7	5,948
1026,1	4,033
1026,6	11,119
1027	9,748
1027,4	6,119
1027,8	5,205
1028,2	6,748
1028,6	6,405
1029	6,862
1029,5	9,576
1029,9	7,805
1030,3	14,29
1030,7	13,033
1031,1	8,09
1031,5	2,033
1032	3,405
1032,4	-5,538
1032,8	-5,624
1033,2	-4,824
1033,6	-1,224
1034	2,262
1034,4	6,49
1034,9	2,662
1035,3	9,462
1035,7	9,719
1036,1	5,976
1036,5	0,633
1036,9	-1,052
1037,4	-0,367
1037,8	2,69
1038,2	-9,252
1038,6	-8,738
1039	-10,624
1039,4	-6,138
1039,8	-11,081
1040,3	-13,91
1040,7	-13,395
1041,1	-2,367
1041,5	-3,967
1041,9	-3,395
1042,3	-7,738
1042,7	0,548
1043,2	2,348
1043,6	4,69
1044	3,548
1044,4	5,433
1044,8	5,748
1045,2	12,748
1045,6	12,633
1046,1	12,176
1046,5	13,233
1046,9	12,119
1047,3	9,548
1047,7	9,69
1048,1	7,462
1048,5	5,033
1049	6,919
1049,4	3,89
1049,8	3,376
1050,2	7,29
1050,6	8,662
1051	7,176
1051,4	7,462
1051,9	6,976
1052,3	4,09
1052,7	1,719
1053,1	-2,767
1053,5	-1,91
1053,9	-1,738
1054,3	-2,595
1054,8	-1,367
1055,2	6,005
1055,6	7,376
1056	12,176
1056,4	11,519
1056,8	11,833
1057,2	14,633
1057,6	6,89
1058,1	3,319
1058,5	4,09
1058,9	5,919
1059,3	9,776
1059,7	6,719
1060,1	6,662
1060,5	8,033
1061	4,548
1061,4	10,233
1061,8	3,005
1062,2	0,148
1062,6	3,576
1063	-0,395
1063,4	0,976
1063,8	0,719
1064,3	-4,567
1064,7	-2,91
1065,1	-6,052
1065,5	-8,252
1065,9	-4,338
1066,3	-8,424
1066,7	-4,024
1067,1	-5,281
1067,6	0,033
1068	1,262
1068,4	4,233
1068,8	3,205
1069,2	6,148
1069,6	2,948
1070	6,205
1070,4	2,005
1070,9	1,033
1071,3	1,862
1071,7	2,633
1072,1	9,948
1072,5	15,319
1072,9	16,29
1073,3	18,633
1073,7	19,69
1074,2	16,833
1074,6	14,605
1075	8,948
1075,4	8,519
1075,8	9,233
1076,2	6,862
1076,6	3,976
1077	5,662
1077,5	8,833
1077,9	10,376
1078,3	5,462
1078,7	0,233
1079,1	5,205
1079,5	4,89
1079,9	7,033
1080,3	5,976
1080,7	5,348
1081,2	6,805
1081,6	12,605
1082	8,805
1082,4	10,576
1082,8	3,033
1083,2	2,49
1083,6	3,205
1084	2,205
1084,5	-2,795
1084,9	-5,424
1085,3	-4,481
1085,7	-2,452
1086,1	-3,195
1086,5	-3,195
1086,9	-1,138
1087,3	3,348
1087,7	7,49
1088,2	6,033
1088,6	6,576
1089	4,633
1089,4	3,748
1089,8	4,033
1090,2	4,119
1090,6	1,862
1091	3,919
1091,4	5,376
1091,9	11,176
1092,3	10,348
1092,7	6,633
1093,1	1,919
1093,5	3,319
1093,9	6,033
1094,3	7,433
1094,7	6,548
1095,1	5,605
1095,5	8,862
1096	9,948
1096,4	10,033
1096,8	6,205
1097,2	4,462
1097,6	0,176
1098	1,49
1098,4	2,005
1098,8	2,833
1099,2	0,233
1099,6	2,719
1100,1	4,69
1100,5	6,748
1100,9	5,348
1101,3	4,719
1101,7	7,919
1102,1	10,776
1102,5	8,776
1102,9	5,605
1103,3	4,719
1103,7	4,205
1104,2	6,605
1104,6	6,69
1105	5,462
1105,4	3,776
1105,8	5,519
1106,2	5,576
1106,6	6,519
1107	2,576
1107,4	-1,333
1107,8	-2,367
1108,3	0,133
