Data from Subt2_086.txt Node
Date: Sat Aug 26 16:41:34 MSK 2023
User: vat
Spectrometer: MAYP114033
Trigger mode: 0
Integration Time (sec): 1,000000E0
Scans to average: 5
Electric dark correction enabled: true
Nonlinearity correction enabled: false
Boxcar width: 3
XAxis mode: Wavelengths
Number of Pixels in Spectrum: 2068
>>>>>Begin Spectral Data<<<<<
199,4	-0,917
199,9	-2,447
200,4	-0,333
200,8	-0,367
201,3	-0,281
201,8	-0,795
202,2	2,319
202,7	6,919
203,2	7,348
203,6	8,205
204,1	8,348
204,6	12,262
205	15,49
205,5	10,833
206	7,662
206,4	10,633
206,9	10,29
207,4	12,662
207,8	7,433
208,3	7,319
208,8	10,919
209,2	13,919
209,7	13,062
210,2	14,605
210,6	15,09
211,1	17,176
211,5	15,776
212	13,633
212,5	5,319
212,9	3,833
213,4	0,005
213,9	-2,367
214,3	-1,881
214,8	-4,51
215,3	-4,881
215,7	-5,767
216,2	-2,452
216,7	-3,481
217,1	-1,624
217,6	-1,252
218,1	0,89
218,5	5,833
219	18,033
219,5	18,405
219,9	22,319
220,4	19,719
220,9	20,462
221,3	18,805
221,8	13,805
222,3	6,233
222,7	1,09
223,2	2,976
223,6	1,89
224,1	3,69
224,6	8,062
225	6,205
225,5	12,405
226	12,005
226,4	14,805
226,9	13,233
227,4	11,348
227,8	9,205
228,3	14,005
228,8	9,262
229,2	14,862
229,7	6,548
230,2	16,633
230,6	14,29
231,1	17,805
231,5	22,29
232	33,319
232,5	32,433
232,9	38,176
233,4	34,148
233,9	36,976
234,3	35,633
234,8	29,49
235,3	20,233
235,7	22,462
236,2	18,633
236,7	19,748
237,1	18,662
237,6	14,719
238,1	13,119
238,5	12,49
239	11,405
239,4	16,605
239,9	14,262
240,4	14,205
240,8	14,119
241,3	17,29
241,8	14,433
242,2	8,833
242,7	5,29
243,2	6,148
243,6	12,062
244,1	12,776
244,6	10,633
245	14,776
245,5	16,262
245,9	14,605
246,4	13,233
246,9	5,633
247,3	6,033
247,8	7,576
248,3	6,205
248,7	13,776
249,2	11,09
249,7	8,005
250,1	6,69
250,6	8,49
251	8,89
251,5	6,462
252	1,005
252,4	8,633
252,9	13,062
253,4	16,319
253,8	11,919
254,3	11,576
254,8	15,605
255,2	14,89
255,7	15,033
256,1	8,576
256,6	11,776
257,1	21,719
257,5	20,605
258	15,748
258,5	18,69
258,9	12,862
259,4	16,033
259,9	13,862
260,3	8,462
260,8	10,948
261,2	19,748
261,7	18,633
262,2	16,633
262,6	17,976
263,1	14,348
263,6	18,376
264	17,119
264,5	13,376
264,9	12,633
265,4	17,433
265,9	16,576
266,3	21,662
266,8	15,49
267,3	14,976
267,7	15,033
268,2	13,833
268,7	11,548
269,1	8,49
269,6	7,833
270	14,49
270,5	14,633
271	12,233
271,4	11,262
271,9	12,633
272,4	18,776
272,8	15,805
273,3	8,862
273,7	10,805
274,2	9,576
274,7	10,776
275,1	6,376
275,6	9,776
276,1	12,69
276,5	14,605
277	15,148
277,4	19,376
277,9	19,89
278,4	25,405
278,8	23,09
279,3	17,976
279,8	16,833
280,2	13,262
280,7	8,633
281,1	13,805
281,6	15,69
282,1	18,919
282,5	24,148
283	24,519
283,4	23,148
283,9	25,09
284,4	19,033
284,8	16,662
285,3	7,348
285,8	2,548
286,2	1,633
286,7	2,948
287,1	2,319
287,6	3,376
288,1	5,633
288,5	10,919
289	12,148
289,5	13,69
289,9	15,148
290,4	12,09
290,8	17,205
291,3	11,433
291,8	11,176
292,2	14,262
292,7	16,005
293,1	16,633
293,6	23,205
294,1	12,919
294,5	16,062
295	13,976
295,5	13,148
295,9	13,405
296,4	12,462
296,8	8,805
297,3	17,605
297,8	18,833
298,2	20,09
298,7	16,462
299,1	14,376
299,6	12,89
300,1	18,005
300,5	18,09
301	17,548
301,5	17,09
301,9	16,005
302,4	11,348
302,8	12,033
303,3	11,005
303,8	3,376
304,2	0,862
304,7	3,233
305,1	6,748
305,6	8,833
306,1	6,89
306,5	4,548
307	5,319
307,4	4,319
307,9	1,519
308,4	3,833
308,8	8,948
309,3	10,833
309,8	14,605
310,2	14,005
310,7	23,633
311,1	21,576
311,6	23,033
312,1	20,176
312,5	20,348
313	16,376
313,4	21,062
313,9	20,633
314,4	17,976
314,8	17,29
315,3	17,233
315,7	18,062
316,2	14,433
316,7	13,119
317,1	7,205
317,6	11,49
318	9,919
318,5	11,033
319	10,69
319,4	15,576
319,9	12,776
320,3	14,662
320,8	12,09
321,3	11,433
321,7	13,29
322,2	14,119
322,6	9,776
323,1	11,062
323,6	8,319
324	12,662
324,5	10,062
324,9	8,69
325,4	9,748
325,9	14,29
326,3	20,062
326,8	21,462
327,2	18,205
327,7	19,233
328,2	20,348
328,6	19,119
329,1	14,319
329,5	12,29
330	13,662
330,5	12,033
330,9	16,29
331,4	10,89
331,8	10,576
332,3	16,233
332,8	13,176
333,2	10,319
333,7	15,233
334,1	16,862
334,6	22,176
335,1	26,719
335,5	23,89
336	20,033
336,4	19,262
336,9	19,605
337,4	17,148
337,8	15,376
338,3	11,833
338,7	14,519
339,2	21,462
339,7	25,519
340,1	22,862
340,6	19,919
341	21,462
341,5	24,233
342	24,033
342,4	18,948
342,9	13,262
343,3	15,319
343,8	19,662
344,2	20,833
344,7	19,519
345,2	12,776
345,6	17,205
346,1	20,633
346,5	20,748
347	21,148
347,5	15,948
347,9	13,348
348,4	19,976
348,8	18,405
349,3	19,805
349,8	23,148
350,2	19,976
350,7	25,033
351,1	28,09
351,6	26,833
352	35,49
352,5	40,319
353	40,948
353,4	49,376
353,9	59,348
354,3	70,805
354,8	80,833
355,3	92,948
355,7	105,062
356,2	127,576
356,6	151,176
357,1	171,348
357,5	193,519
358	229,748
358,5	261,376
358,9	305,776
359,4	352,805
359,8	400,548
360,3	458,148
360,8	526,062
361,2	600,548
361,7	682,348
362,1	775,49
362,6	875,262
363	981,462
363,5	1101,09
364	1220,233
364,4	1340,576
364,9	1460,119
365,3	1572,49
365,8	1680,319
366,3	1788,633
366,7	1885,519
367,2	1965,09
367,6	2034,405
368,1	2093,033
368,5	2128,205
369	2143,49
369,5	2145,09
369,9	2119,748
370,4	2090,805
370,8	2039,49
371,3	1978,005
371,7	1904,49
372,2	1827,919
372,7	1731,776
373,1	1646,976
373,6	1550,176
374	1452,319
374,5	1353,319
374,9	1256,319
375,4	1167,49
375,9	1085,519
376,3	1003,519
376,8	928,205
377,2	858,69
377,7	790,433
378,2	729,376
378,6	668,605
379,1	612,49
379,5	560,376
380	516,49
380,4	475,176
380,9	440,319
381,4	409,033
381,8	375,976
382,3	346,376
382,7	315,548
383,2	285,376
383,6	257,89
384,1	236,205
384,6	214,462
385	198,776
385,5	184,29
385,9	178,148
386,4	171,033
386,8	167,805
387,3	158,948
387,7	154,148
388,2	148,548
388,7	145,233
389,1	134,805
389,6	122,662
390	112,976
390,5	103,205
390,9	101,948
391,4	95,09
391,9	87,919
392,3	77,719
392,8	75,833
393,2	69,176
393,7	70,833
394,1	65,748
394,6	61,062
395,1	58,833
395,5	61,548
396	63,033
396,4	63,776
396,9	60,662
397,3	54,833
397,8	54,005
398,2	50,948
398,7	42,69
399,2	37,548
399,6	40,89
400,1	35,719
400,5	36,233
401	39,633
401,4	39,29
401,9	43,719
402,4	43,548
402,8	39,862
403,3	37,89
403,7	40,776
404,2	35,319
404,6	36,548
405,1	30,89
405,5	31,09
406	28,433
406,5	31,148
406,9	29,919
407,4	27,433
407,8	28,319
408,3	36,233
408,7	40,776
409,2	42,49
409,6	40,233
410,1	42,119
410,6	50,433
411	51,433
411,5	49,662
411,9	46,919
412,4	50,033
412,8	57,69
413,3	59,805
413,7	61,633
414,2	67,176
414,7	71,976
415,1	76,148
415,6	81,205
416	86,319
416,5	84,948
416,9	85,09
417,4	85,805
417,8	87,69
418,3	93,062
418,8	89,033
419,2	90,948
419,7	99,719
420,1	98,148
420,6	103,205
421	102,662
421,5	102,148
421,9	110,205
422,4	110,633
422,8	108,005
423,3	113,405
423,8	113,605
424,2	115,376
424,7	116,805
425,1	112,205
425,6	113,633
426	113,776
426,5	114,976
426,9	113,233
427,4	114,405
427,9	109,748
428,3	113,976
428,8	114,433
429,2	109,062
429,7	106,319
430,1	108,748
430,6	111,205
431	117,176
431,5	117,233
431,9	117,633
432,4	127,148
432,8	136,319
433,3	134,462
433,8	138,748
434,2	139,69
434,7	142,519
435,1	148,376
435,6	156,433
436	158,576
436,5	170,148
436,9	174,948
437,4	186,462
437,8	190,262
438,3	197,49
438,8	198,376
439,2	204,605
439,7	208,519
440,1	212,662
440,6	218,148
441	232,233
441,5	240,433
441,9	253,576
442,4	271,462
442,8	282,348
443,3	296,976
443,7	306,69
444,2	316,49
444,7	328,776
445,1	338,862
445,6	342,919
446	355,176
446,5	369,662
446,9	385,233
447,4	399,89
447,8	415,862
448,3	434,976
448,7	454,233
449,2	473,776
449,6	489,948
450,1	511,462
450,6	533,348
451	545,262
451,5	562,69
451,9	578,376
452,4	600,776
452,8	626,205
453,3	644,519
453,7	662,119
454,2	688,805
454,6	715,776
455,1	741,29
455,5	766,205
456	795,205
456,4	819,69
456,9	847,69
457,3	880,062
457,8	907,433
458,3	942,119
458,7	970,376
459,2	994,033
459,6	1030,205
460,1	1064,176
460,5	1093,89
461	1124,69
461,4	1156,376
461,9	1187,919
462,3	1225,633
462,8	1257,119
463,2	1294,719
463,7	1331,605
464,1	1370,833
464,6	1400,89
465	1440,576
465,5	1477,976
466	1517,89
466,4	1554,69
466,9	1590,462
467,3	1623,348
467,8	1670,519
468,2	1706,176
468,7	1742,748
469,1	1777,29
469,6	1813,833
470	1855,09
470,5	1899,233
470,9	1931,576
471,4	1972,833
471,8	2008,262
472,3	2044,89
472,7	2087,319
473,2	2120,348
473,6	2159,005
474,1	2200,262
474,5	2239,49
475	2281,233
475,4	2326,833
475,9	2367,09
476,4	2414,033
476,8	2450,433
477,3	2489,576
477,7	2532,89
478,2	2570,319
478,6	2606,348
479,1	2643,376
479,5	2676,719
480	2714,776
480,4	2751,748
480,9	2781,519
481,3	2813,519
481,8	2849,776
482,2	2881,69
482,7	2910,348
483,1	2945,062
483,6	2975,948
484	3006,576
484,5	3043,376
484,9	3071,033
485,4	3101,09
485,8	3134,033
486,3	3156,805
486,7	3191,233
487,2	3215,89
487,6	3236,062
488,1	3262,719
488,5	3281,233
489	3304,605
489,4	3334,69
489,9	3352,119
490,4	3380,519
490,8	3406,805
491,3	3427,462
491,7	3447,862
492,2	3475,376
492,6	3495,233
493,1	3511,548
493,5	3525,433
494	3541,405
494,4	3559,662
494,9	3576,976
495,3	3588,976
495,8	3597,948
496,2	3616,548
496,7	3630,519
497,1	3643,348
497,6	3653,919
498	3669,176
498,5	3678,348
498,9	3693,119
499,4	3702,719
499,8	3705,605
500,3	3718,148
500,7	3724,205
501,2	3737,119
501,6	3746,062
502,1	3754,862
502,5	3763,605
503	3786,319
503,4	3793,433
503,9	3815,748
504,3	3822,748
504,8	3832,176
505,2	3839,776
505,7	3851,29
506,1	3851,919
506,6	3863,319
507	3865,348
507,5	3872,233
507,9	3883,319
508,4	3890,005
508,8	3894,776
509,3	3905,033
509,7	3902,776
510,2	3905,376
510,6	3906,205
511,1	3918,233
511,5	3929,148
512	3936,948
512,4	3940,09
512,9	3954,033
513,3	3964,976
513,8	3975,376
514,2	3976,262
514,7	3976,89
515,1	3980,919
515,6	3986,119
516	3988,205
516,5	3996,89
516,9	4000,205
517,4	4004,605
517,8	4005,948
518,3	4005,205
518,7	4007,09
519,2	4017,262
519,6	4011,376
520,1	4016,776
520,5	4019,233
521	4025,205
521,4	4036,205
521,9	4051,49
522,3	4049,462
522,8	4063,062
523,2	4071,89
523,7	4079,605
524,1	4087,805
524,6	4086,405
525	4092,548
525,5	4103,033
525,9	4101,319
526,4	4112,262
526,8	4113,69
527,3	4125,605
527,7	4141,948
528,2	4142,805
528,6	4155,376
529,1	4165,919
529,5	4159,462
530	4166,548
530,4	4168,233
530,9	4166,748
531,3	4174,89
531,8	4177,376
532,2	4186,09
532,6	4205,805
533,1	4208,605
533,5	4216,262
534	4226,862
534,4	4233,319
534,9	4241,805
535,3	4248,405
535,8	4250,662
536,2	4264,976
536,7	4275,462
537,1	4282,433
537,6	4291,805
538	4299,662
538,5	4304,919
538,9	4314,433
539,4	4329,119
539,8	4328,605
540,3	4340,148
540,7	4345,605
541,2	4351,348
541,6	4361,176
542,1	4360,29
542,5	4364,319
543	4376,605
543,4	4385,662
543,9	4397,69
544,3	4403,576
544,8	4413,062
545,2	4426,776
545,7	4435,033
546,1	4439,176
546,5	4446,148
547	4454,719
547,4	4460,576
547,9	4468,233
548,3	4474,662
548,8	4480,062
549,2	4494,49
549,7	4501,005
550,1	4508,89
550,6	4516,519
551	4523,205
551,5	4536,319
551,9	4552,433
552,4	4565,262
552,8	4573,005
553,3	4584,576
553,7	4593,633
554,2	4604,633
554,6	4615,862
555,1	4611,462
555,5	4620,833
555,9	4628,205
556,4	4632,29
556,8	4643,433
557,3	4646,548
557,7	4650,976
558,2	4658,119
558,6	4659,748
559,1	4671,776
559,5	4674,976
560	4679,176
560,4	4689,205
560,9	4691,148
561,3	4702,148
561,8	4705,805
562,2	4706,119
562,7	4712,776
563,1	4720,576
563,6	4720,919
564	4724,662
564,4	4731,976
564,9	4735,176
565,3	4745,519
565,8	4751,033
566,2	4751,519
566,7	4757,49
567,1	4765,605
567,6	4771,49
568	4782,833
568,5	4779,376
568,9	4777,262
569,4	4787,119
569,8	4789,376
570,3	4789,805
570,7	4782,519
571,1	4775,919
571,6	4777,805
572	4780,89
572,5	4772,719
572,9	4777,29
573,4	4771,805
573,8	4773,833
574,3	4770,433
574,7	4771,69
575,2	4769,29
575,6	4770,348
576,1	4761,776
576,5	4765,09
576,9	4756,005
577,4	4755,262
577,8	4748,433
578,3	4746,548
578,7	4747,833
579,2	4749,348
579,6	4746,462
580,1	4750,233
580,5	4742,576
581	4740,948
581,4	4736,062
581,9	4725,205
582,3	4713,233
582,7	4705,119
583,2	4693,976
583,6	4695,405
584,1	4685,319
584,5	4682,119
585	4683,833
585,4	4676,548
585,9	4670,862
586,3	4664,262
586,8	4654,89
587,2	4647,805
587,6	4634,748
588,1	4627,89
588,5	4626,205
589	4617,519
589,4	4610,89
589,9	4603,405
590,3	4596,833
590,8	4589,348
591,2	4579,748
591,7	4574,433
592,1	4563,062
592,5	4555,033
593	4538,376
593,4	4530,548
593,9	4523,205
594,3	4503,205
594,8	4488,862
595,2	4489,862
595,7	4485,519
596,1	4484,662
596,6	4479,29
597	4480,69
597,4	4479,576
597,9	4476,233
598,3	4462,605
598,8	4455,919
599,2	4446,662
599,7	4435,662
600,1	4417,348
600,6	4400,29
601	4388,576
601,4	4386,89
601,9	4373,205
602,3	4364,148
602,8	4352,662
603,2	4345,605
603,7	4341,69
604,1	4332,776
604,6	4309,033
605	4300,576
605,4	4287,948
605,9	4279,033
606,3	4264,776
606,8	4249,033
607,2	4230,176
607,7	4224,548
608,1	4209,948
608,6	4206,262
609	4197,862
609,4	4186,376
609,9	4179,119
610,3	4172,633
610,8	4165,376
611,2	4154,49
611,7	4132,576
612,1	4112,576
612,6	4099,49
613	4086,976
613,4	4072,805
613,9	4053,433
614,3	4036,519
614,8	4017,319
615,2	4005,805
615,7	3991,548
616,1	3969,233
616,6	3947,948
617	3933,576
617,4	3918,119
617,9	3906,205
618,3	3889,033
618,8	3873,176
619,2	3864,919
619,7	3855,919
620,1	3840,319
620,5	3822,09
621	3806,633
621,4	3792,633
621,9	3777,176
622,3	3769,662
622,8	3742,176
623,2	3722,348
623,6	3709,262
624,1	3699,49
624,5	3686,233
625	3671,805
625,4	3645,519
625,9	3640,919
626,3	3624,662
626,8	3608,69
627,2	3586,148
627,6	3560,89
628,1	3540,433
628,5	3522,319
629	3497,09
629,4	3481,633
629,9	3467,776
630,3	3449,748
630,7	3443,976
631,2	3422,776
631,6	3403,433
632,1	3390,948
632,5	3369,348
633	3341,462
633,4	3321,833
633,8	3294,033
634,3	3279,948
634,7	3264,233
635,2	3245,805
635,6	3234,69
636,1	3224,119
636,5	3214,29
636,9	3199,776
637,4	3188,919
637,8	3170,833
638,3	3147,862
638,7	3129,433
639,2	3113,119
639,6	3093,319
640	3074,376
640,5	3048,89
640,9	3034,719
641,4	3027,662
641,8	3009,29
642,2	2994,148
642,7	2975,548
643,1	2965,062
643,6	2957,49
644	2948,262
644,5	2932,262
644,9	2917,776
645,3	2897,062
645,8	2884,69
646,2	2868,262
646,7	2850,205
647,1	2831,805
647,6	2817,69
648	2799,262
648,4	2790,833
648,9	2779,833
649,3	2768,376
649,8	2756,462
650,2	2731,062
650,6	2717,205
651,1	2713,376
651,5	2699,548
652	2691,205
652,4	2668,033
652,9	2655,233
653,3	2652,433
653,7	2635,948
654,2	2619,348
654,6	2604,119
655,1	2578,433
655,5	2566,89
655,9	2547,548
656,4	2536,605
656,8	2522,262
657,3	2501,119
657,7	2486,148
658,2	2476,262
658,6	2462,519
659	2449,833
659,5	2426,748
659,9	2417,633
660,4	2408,719
660,8	2400,433
661,2	2385,205
661,7	2367,062
662,1	2351,49
662,6	2334,262
663	2317,69
663,4	2299,805
663,9	2279,319
664,3	2263,09
664,8	2259,49
665,2	2240,833
665,6	2229,09
666,1	2211,633
666,5	2196,519
667	2178,576
667,4	2167,633
667,9	2143,548
668,3	2136,462
668,7	2124,49
669,2	2109,262
669,6	2095,519
670,1	2088,205
670,5	2071,89
670,9	2069,433
671,4	2051,605
671,8	2036,262
672,3	2028,862
672,7	2017,948
673,1	2003,633
673,6	1990,776
674	1971,776
674,5	1961,719
674,9	1949,205
675,3	1932,005
675,8	1919,348
676,2	1907,005
676,7	1895,148
677,1	1879,119
677,5	1866,862
678	1860,519
678,4	1851,262
678,9	1839,948
679,3	1823,519
679,7	1810,148
680,2	1805,119
680,6	1790,033
681,1	1772,662
681,5	1759,119
681,9	1744,49
682,4	1735,462
682,8	1724,49
683,3	1704,462
683,7	1694,176
684,1	1687,29
684,6	1676,49
685	1666,862
685,5	1654,519
685,9	1646,005
686,3	1638,062
686,8	1629,233
687,2	1623,605
687,7	1610,662
688,1	1600,462
688,5	1590,062
689	1580,405
689,4	1574,348
689,9	1565,748
690,3	1550,062
690,7	1539,462
691,2	1530,49
691,6	1521,176
692	1507,605
692,5	1495,776
692,9	1481,262
693,4	1470,29
693,8	1466,062
694,2	1451,348
694,7	1442,176
695,1	1434,148
695,6	1423,433
696	1414,09
696,4	1405,919
696,9	1393,919
697,3	1386,605
697,8	1378,09
698,2	1366,348
698,6	1360,89
699,1	1350,205
699,5	1337,576
699,9	1326,833
700,4	1319,605
700,8	1310,662
701,3	1300,948
701,7	1286,719
702,1	1278,148
702,6	1273,005
703	1260,633
703,5	1252,033
703,9	1241,576
704,3	1240,433
704,8	1234,433
705,2	1231,548
705,6	1217,69
706,1	1217,719
706,5	1211,49
707	1203,976
707,4	1195,776
707,8	1187,062
708,3	1175,376
708,7	1174,719
709,2	1163,69
709,6	1155,205
710	1142,69
710,5	1129,719
710,9	1122,033
711,3	1112,605
711,8	1100,862
712,2	1097,376
712,7	1088,805
713,1	1090,69
713,5	1083,776
714	1077,633
714,4	1068,576
714,8	1062,49
715,3	1048,548
715,7	1035,09
716,2	1022,29
716,6	1017,69
717	1010,976
717,5	1010,833
717,9	997,519
718,3	990,262
718,8	989,29
719,2	983,605
719,7	977,776
720,1	965,948
720,5	958,119
721	952,862
721,4	946,862
721,8	942,548
722,3	928,233
722,7	917,69
723,2	914,519
723,6	905,262
724	902,748
724,5	894,233
724,9	882,805
725,3	880,062
725,8	871,033
726,2	859,776
726,7	852,548
727,1	842,633
727,5	839,662
728	837,719
728,4	832,005
728,8	829,662
729,3	825,862
729,7	821,376
730,1	816,062
730,6	811,862
731	807,262
731,5	802,233
731,9	797,205
732,3	794,89
732,8	792,319
733,2	786,805
733,6	780,005
734,1	773,262
734,5	766,776
734,9	761,548
735,4	757,262
735,8	747,319
736,3	743,405
736,7	738,348
737,1	734,719
737,6	728,148
738	724,805
738,4	718,89
738,9	721,719
739,3	714,462
739,7	710,576
740,2	705,49
740,6	707,405
741,1	702,719
741,5	698,576
741,9	686,69
742,4	685,433
742,8	684,919
743,2	681,862
743,7	678,862
744,1	669,319
744,5	668,862
745	665,462
745,4	659,776
745,8	652,405
746,3	648,919
746,7	643,405
747,2	645,49
747,6	637,548
748	637,462
748,5	631,519
748,9	626,605
749,3	623,719
749,8	613,548
750,2	606,976
750,6	601,719
751,1	596,919
751,5	596,948
751,9	591,919
752,4	583,319
752,8	583,519
753,3	579,148
753,7	578,548
754,1	571,89
754,6	570,576
755	567,719
755,4	565,519
755,9	562,005
756,3	555,776
756,7	543,948
757,2	540,89
757,6	533,49
758	527,69
758,5	521,176
758,9	520,49
759,3	515,919
759,8	520,805
760,2	519,09
760,6	518,205
761,1	512,69
761,5	512,005
761,9	507,862
762,4	503,862
762,8	497,148
763,3	488,49
763,7	480,862
764,1	478,176
764,6	474,662
765	467,662
765,4	466,633
765,9	461,605
766,3	462,976
766,7	461,205
767,2	459,833
767,6	454,119
768	453,262
768,5	451,405
768,9	447,119
769,3	442,29
769,8	442,548
770,2	443,262
770,6	438,776
771,1	439,433
771,5	435,319
771,9	435,748
772,4	436,805
772,8	432,148
773,2	426,233
773,7	427,405
774,1	421,29
774,5	423,262
775	415,09
775,4	410,233
775,8	405,062
776,3	401,862
776,7	399,833
777,1	398,519
777,6	389,976
778	392,519
778,4	388,519
778,9	386,462
779,3	384,576
779,7	381,176
780,2	374,919
780,6	375,062
781	373,633
781,5	374,833
781,9	376,033
782,3	374,176
782,8	370,662
783,2	369,176
783,6	362,005
784,1	358,719
784,5	356,348
784,9	351,833
785,4	346,148
785,8	336,948
786,2	333,519
786,7	333,005
787,1	327,976
787,5	320,576
788	315,748
788,4	314,433
788,8	313,548
789,3	309,948
789,7	307,776
790,1	309,033
790,6	307,462
791	303,262
791,4	298,433
791,9	300,319
792,3	297,633
792,7	299,69
793,2	293,176
793,6	292,976
794	292,833
794,5	293,548
794,9	294,062
795,3	295,376
795,8	288,005
796,2	288,233
796,6	280,433
797,1	278,748
797,5	273,176
797,9	270,148
798,4	263,69
798,8	261,29
799,2	261,433
799,7	265,805
800,1	264,119
800,5	265,005
801	263,833
801,4	261,148
801,8	260,719
802,2	253,062
802,7	252,433
803,1	249,719
803,5	250,148
804	247,576
804,4	246,176
804,8	247,605
805,3	248,119
805,7	243,462
806,1	244,833
806,6	242,433
807	238,462
807,4	240,605
807,9	236,948
808,3	234,976
808,7	231,405
809,2	225,89
809,6	223,862
810	222,519
810,4	218,09
810,9	212,176
811,3	211,233
811,7	208,462
812,2	210,976
812,6	208,033
813	208,176
813,5	210,862
813,9	211,548
814,3	207,205
814,8	208,348
815,2	203,348
815,6	201,633
816,1	201,776
816,5	196,948
816,9	199,233
817,3	199,205
817,8	204,805
818,2	201,576
818,6	200,833
819,1	197,062
819,5	196,462
819,9	192,719
820,4	191,89
820,8	180,462
821,2	185,062
821,7	183,862
822,1	179,976
822,5	179,09
822,9	183,805
823,4	182,09
823,8	180,29
824,2	176,49
824,7	176,833
825,1	178,776
825,5	182,519
826	177,548
826,4	180,805
826,8	181,805
827,3	183,233
827,7	184,605
828,1	183,319
828,5	177,033
829	169,462
829,4	168,919
829,8	163,176
830,3	158,433
830,7	149,519
831,1	144,319
831,6	139,662
832	139,319
832,4	133,405
832,8	142,148
833,3	135,833
833,7	140,89
834,1	138,633
834,6	139,948
835	145,205
835,4	147,319
835,8	137,519
836,3	138,205
836,7	134,005
837,1	134,148
837,6	129,405
838	123,205
838,4	119,119
838,9	126,348
839,3	128,862
839,7	126,89
840,1	125,29
840,6	128,69
841	127,262
841,4	124,205
841,9	121,976
842,3	121,605
842,7	121,348
843,1	125,948
843,6	125,29
844	127,548
844,4	133,29
844,9	130,176
845,3	128,433
845,7	128,176
846,2	125,176
846,6	119,462
847	115,833
847,4	109,633
847,9	105,09
848,3	106,69
848,7	108,633
849,2	107,319
849,6	111,262
850	109,519
850,4	111,576
850,9	118,976
851,3	115,719
851,7	113,262
852,2	107,29
852,6	105,433
853	109,376
853,4	107,376
853,9	98,49
854,3	97,548
854,7	92,948
855,2	90,405
855,6	88,062
856	81,548
856,4	82,176
856,9	83,09
857,3	82,862
857,7	88,119
858,2	93,805
858,6	97,576
859	96,176
859,4	91,833
859,9	89,148
860,3	89,805
860,7	85,833
861,1	87,405
861,6	85,662
862	89,176
862,4	93,662
862,9	97,29
863,3	92,776
863,7	91,633
864,1	85,919
864,6	86,233
865	82,519
865,4	76,919
865,9	74,319
866,3	76,405
866,7	78,148
867,1	83,948
867,6	80,176
868	85,233
868,4	83,519
868,8	84,033
869,3	83,576
869,7	76,348
870,1	74,376
870,6	74,49
871	77,862
871,4	79,776
871,8	75,862
872,3	75,89
872,7	76,605
873,1	75,119
873,5	72,862
874	68,176
874,4	63,519
874,8	67,062
875,3	66,319
875,7	67,09
876,1	63,862
876,5	68,033
877	66,319
877,4	68,49
877,8	69,233
878,2	65,405
878,7	72,062
879,1	73,862
879,5	70,662
879,9	70,89
880,4	68,662
880,8	66,576
881,2	71,862
881,7	70,005
882,1	68,405
882,5	68,205
882,9	63,148
883,4	68,205
883,8	68,205
884,2	63,662
884,6	59,662
885,1	61,719
885,5	64,319
885,9	68,005
886,3	65,919
886,8	60,948
887,2	61,662
887,6	58,319
888	53,433
888,5	50,062
888,9	50,319
889,3	41,748
889,8	43,662
890,2	42,062
890,6	44,976
891	47,262
891,5	48,405
891,9	48,176
892,3	53,205
892,7	52,033
893,2	53,176
893,6	51,719
894	50,433
894,4	48,405
894,9	48,233
895,3	48,433
895,7	47,519
896,1	47,662
896,6	49,262
897	50,662
897,4	46,062
897,8	44,148
898,3	51,319
898,7	54,09
899,1	55,49
899,5	51,805
900	48,205
900,4	50,376
900,8	50,233
901,2	42,005
901,7	38,719
902,1	35,719
902,5	33,776
902,9	36,462
903,4	38,862
903,8	33,776
904,2	38,29
904,6	38,148
905,1	38,633
905,5	42,519
905,9	37,576
906,3	34,176
906,8	38,805
907,2	32,833
907,6	33,148
908	30,176
908,5	29,49
908,9	32,805
909,3	32,719
909,7	30,319
910,2	31,776
910,6	35,548
911	37,605
911,4	36,776
911,9	36,49
912,3	35,462
912,7	37,29
913,1	32,89
913,6	29,748
914	33,062
914,4	30,976
914,8	29,805
915,3	30,805
915,7	24,862
916,1	26,833
916,5	28,776
916,9	21,348
917,4	22,09
917,8	19,776
918,2	18,376
918,6	23,719
919,1	26,262
919,5	26,033
919,9	26,633
920,3	27,662
920,8	30,748
921,2	34,69
921,6	32,09
922	26,462
922,5	22,119
922,9	20,376
923,3	23,348
923,7	18,548
924,2	12,776
924,6	13,805
925	19,462
925,4	21,833
925,8	27,405
926,3	28,262
926,7	33,605
927,1	41,09
927,5	41,262
928	42,862
928,4	42,09
928,8	42,005
929,2	39,805
929,7	35,976
930,1	30,919
930,5	29,548
930,9	28,69
931,3	32,748
931,8	26,462
932,2	23,919
932,6	26,548
933	24,062
933,5	25,833
933,9	24,89
934,3	17,576
934,7	26,748
935,2	27,176
935,6	25,005
936	25,319
936,4	20,776
936,8	18,69
937,3	23,833
937,7	15,69
938,1	14,433
938,5	15,49
939	20,548
939,4	26,033
939,8	24,576
940,2	23,176
940,6	22,862
941,1	27,033
941,5	28,376
941,9	29,119
942,3	25,633
942,8	29,89
943,2	25,262
943,6	27,49
944	25,119
944,4	20,805
944,9	14,633
945,3	17,433
945,7	17,176
946,1	17,69
946,6	17,919
947	20,205
947,4	19,09
947,8	23,748
948,2	22,862
948,7	19,662
949,1	19,433
949,5	22,176
949,9	18,633
950,3	24,29
950,8	24,005
951,2	23,49
951,6	31,119
952	33,776
952,5	31,176
952,9	28,805
953,3	27,005
953,7	27,176
954,1	24,405
954,6	18,376
955	20,605
955,4	20,348
955,8	25,719
956,2	21,776
956,7	17,605
957,1	19,176
957,5	17,376
957,9	13,833
958,3	17,033
958,8	14,119
959,2	18,719
959,6	21,176
960	22,062
960,5	23,605
960,9	26,148
961,3	20,862
961,7	15,69
962,1	13,033
962,6	13,348
963	12,548
963,4	12,119
963,8	8,805
964,2	7,833
964,7	10,548
965,1	13,262
965,5	10,89
965,9	14,805
966,3	14,262
966,8	18,49
967,2	23,519
967,6	28,662
968	28,548
968,4	32,605
968,9	32,176
969,3	32,576
969,7	27,948
970,1	27,862
970,5	29,519
971	26,376
971,4	24,976
971,8	26,376
972,2	23,89
972,6	24,805
973,1	25,262
973,5	23,462
973,9	23,519
974,3	16,89
974,7	8,348
975,2	8,862
975,6	2,548
976	3,69
976,4	-0,938
976,8	-0,281
977,3	5,662
977,7	7,976
978,1	7,233
978,5	12,148
978,9	5,319
979,4	7,462
979,8	8,69
980,2	1,376
980,6	3,862
981	8,519
981,5	8,433
981,9	10,29
982,3	8,89
982,7	7,319
983,1	16,633
983,6	16,976
984	14,548
984,4	19,319
984,8	22,433
985,2	22,433
985,6	23,69
986,1	20,119
986,5	13,262
986,9	14,319
987,3	10,576
987,7	11,348
988,2	13,09
988,6	13,633
989	13,976
989,4	17,462
989,8	14,862
990,3	16,605
990,7	13,862
991,1	10,976
991,5	10,748
991,9	13,948
992,3	13,748
992,8	18,49
993,2	18,605
993,6	17,948
994	16,805
994,4	16,29
994,9	15,376
995,3	15,976
995,7	17,262
996,1	16,233
996,5	13,148
996,9	16,09
997,4	17,433
997,8	17,719
998,2	21,49
998,6	13,919
999	11,319
999,5	13,462
999,9	12,776
1000,3	10,719
1000,7	5,405
1001,1	1,033
1001,5	2,519
1002	5,09
1002,4	5,49
1002,8	6,69
1003,2	7,49
1003,6	13,262
1004	13,205
1004,5	15,462
1004,9	12,805
1005,3	12,062
1005,7	10,519
1006,1	10,348
1006,6	8,833
1007	10,576
1007,4	6,919
1007,8	7,233
1008,2	7,633
1008,6	6,548
1009,1	5,605
1009,5	8,433
1009,9	12,29
1010,3	15,49
1010,7	20,805
1011,1	26,262
1011,6	27,462
1012	26,662
1012,4	25,662
1012,8	15,09
1013,2	14,433
1013,6	12,833
1014,1	6,49
1014,5	4,605
1014,9	8,005
1015,3	5,405
1015,7	10,719
1016,1	16,405
1016,6	17,862
1017	17,319
1017,4	19,862
1017,8	16,148
1018,2	17,69
1018,6	19,262
1019,1	12,576
1019,5	9,69
1019,9	14,662
1020,3	18,233
1020,7	19,29
1021,1	19,176
1021,6	17,062
1022	18,976
1022,4	22,69
1022,8	20,233
1023,2	17,205
1023,6	17,405
1024,1	19,005
1024,5	22,262
1024,9	22,776
1025,3	18,119
1025,7	18,233
1026,1	16,519
1026,6	18,776
1027	11,348
1027,4	10,119
1027,8	6,319
1028,2	7,519
1028,6	9,033
1029	6,862
1029,5	13,262
1029,9	13,662
1030,3	17,633
1030,7	19,976
1031,1	16,662
1031,5	13,462
1032	16,176
1032,4	5,576
1032,8	6,748
1033,2	3,262
1033,6	2,233
1034	4,919
1034,4	10,605
1034,9	8,062
1035,3	12,176
1035,7	11,29
1036,1	11,862
1036,5	8,576
1036,9	8,576
1037,4	7,833
1037,8	9,748
1038,2	5,662
1038,6	7,319
1039	3,776
1039,4	7,948
1039,8	5,205
1040,3	5,862
1040,7	7,119
1041,1	12,405
1041,5	10,148
1041,9	9,833
1042,3	13,29
1042,7	17,29
1043,2	15,69
1043,6	18,862
1044	15,805
1044,4	14,662
1044,8	12,49
1045,2	13,319
1045,6	11,805
1046,1	11,405
1046,5	12,09
1046,9	13,376
1047,3	16,633
1047,7	20,776
1048,1	14,233
1048,5	14,862
1049	16,605
1049,4	12,119
1049,8	7,462
1050,2	5,662
1050,6	8,862
1051	17,748
1051,4	16,69
1051,9	17,319
1052,3	12,89
1052,7	16,548
1053,1	18,605
1053,5	19,605
1053,9	13,176
1054,3	15,976
1054,8	19,405
1055,2	23,376
1055,6	23,033
1056	20,748
1056,4	19,89
1056,8	19,948
1057,2	21,548
1057,6	13,033
1058,1	14,919
1058,5	12,662
1058,9	15,862
1059,3	16,405
1059,7	13,719
1060,1	9,576
1060,5	9,005
1061	6,319
1061,4	10,576
1061,8	12,319
1062,2	9,49
1062,6	11,348
1063	12,462
1063,4	13,462
1063,8	13,462
1064,3	13,748
1064,7	10,69
1065,1	10,033
1065,5	13,005
1065,9	7,662
1066,3	4,29
1066,7	6,833
1067,1	2,89
1067,6	7,376
1068	6,319
1068,4	6,062
1068,8	16,548
1069,2	18,405
1069,6	17,748
1070	21,49
1070,4	16,348
1070,9	16,776
1071,3	18,89
1071,7	16,005
1072,1	19,919
1072,5	23,09
1072,9	22,49
1073,3	25,919
1073,7	22,948
1074,2	22,519
1074,6	16,748
1075	16,376
1075,4	12,548
1075,8	10,09
1076,2	8,433
1076,6	10,319
1077	3,919
1077,5	6,033
1077,9	5,176
1078,3	5,062
1078,7	5,262
1079,1	4,548
1079,5	3,433
1079,9	8,319
1080,3	8,033
1080,7	10,49
1081,2	11,062
1081,6	15,233
1082	16,833
1082,4	16,49
1082,8	14,462
1083,2	11,519
1083,6	12,319
1084	14,062
1084,5	11,89
1084,9	11,09
1085,3	17,176
1085,7	15,89
1086,1	16,462
1086,5	15,862
1086,9	14,433
1087,3	18,433
1087,7	21,919
1088,2	16,805
1088,6	15,405
1089	16,605
1089,4	17,633
1089,8	22,633
1090,2	19,576
1090,6	16,919
1091	19,548
1091,4	24,062
1091,9	29,233
1092,3	23,119
1092,7	17,29
1093,1	14,948
1093,5	10,69
1093,9	11,376
1094,3	11,662
1094,7	7,662
1095,1	6,033
1095,5	5,348
1096	3,776
1096,4	8,833
1096,8	7,348
1097,2	5,519
1097,6	5,119
1098	8,605
1098,4	9,719
1098,8	10,062
1099,2	7,633
1099,6	9,205
1100,1	6,919
1100,5	11,405
1100,9	11,662
1101,3	10,719
1101,7	17,548
1102,1	18,205
1102,5	17,005
1102,9	16,462
1103,3	11,348
1103,7	8,319
1104,2	10,29
1104,6	7,405
1105	7,462
1105,4	4,405
1105,8	6,433
1106,2	6,976
1106,6	6,89
1107	3,662
1107,4	-0,267
1107,8	-1,847
1108,3	0,533
