Data from Subt2_093.txt Node
Date: Sat Aug 26 16:43:14 MSK 2023
User: vat
Spectrometer: MAYP114033
Trigger mode: 0
Integration Time (sec): 1,000000E0
Scans to average: 5
Electric dark correction enabled: true
Nonlinearity correction enabled: false
Boxcar width: 3
XAxis mode: Wavelengths
Number of Pixels in Spectrum: 2068
>>>>>Begin Spectral Data<<<<<
199,4	-1,383
199,9	-0,313
200,4	-4,633
200,8	-5,233
201,3	-3,605
201,8	0,024
202,2	1,452
202,7	5,338
203,2	5,167
203,6	8,824
204,1	10,224
204,6	12,138
205	11,91
205,5	9,71
206	9,938
206,4	13,938
206,9	17,567
207,4	23,681
207,8	20,167
208,3	16,767
208,8	21,252
209,2	19,767
209,7	17,852
210,2	17,424
210,6	13,367
211,1	13,481
211,5	13,452
212	7,881
212,5	3,138
212,9	-1,176
213,4	-1,49
213,9	-5,233
214,3	-0,89
214,8	2,595
215,3	4,538
215,7	1,452
216,2	7,91
216,7	5,767
217,1	9,624
217,6	5,281
218,1	4,767
218,5	5,481
219	20,738
219,5	18,252
219,9	18,538
220,4	17,081
220,9	17,91
221,3	16,595
221,8	16,052
222,3	5,31
222,7	3,967
223,2	2,824
223,6	1,224
224,1	0,681
224,6	0,538
225	0,31
225,5	5,195
226	5,881
226,4	6,167
226,9	6,91
227,4	9,338
227,8	12,281
228,3	16,624
228,8	10,795
229,2	11,767
229,7	10,11
230,2	13,652
230,6	10,51
231,1	13,395
231,5	15,281
232	24,395
232,5	22,481
232,9	29,767
233,4	29,252
233,9	29,767
234,3	24,452
234,8	19,91
235,3	15,624
235,7	19,824
236,2	17,052
236,7	15,881
237,1	15,995
237,6	13,852
238,1	13,881
238,5	11,538
239	7,024
239,4	10,624
239,9	12,652
240,4	14,91
240,8	17,595
241,3	11,167
241,8	11,652
242,2	10,052
242,7	8,652
243,2	6,624
243,6	6,052
244,1	0,881
244,6	6,995
245	6,852
245,5	11,71
245,9	8,652
246,4	7,967
246,9	5,71
247,3	10,281
247,8	8,024
248,3	13,967
248,7	15,995
249,2	12,024
249,7	12,481
250,1	12,595
250,6	13,338
251	17,11
251,5	11,624
252	8,395
252,4	12,738
252,9	12,452
253,4	17,281
253,8	13,252
254,3	12,681
254,8	13,995
255,2	12,367
255,7	13,024
256,1	14,224
256,6	15,51
257,1	21,338
257,5	24,052
258	22,967
258,5	25,024
258,9	27,31
259,4	26,167
259,9	26,338
260,3	22,481
260,8	21,738
261,2	26,281
261,7	27,538
262,2	22,481
262,6	22,252
263,1	16,11
263,6	19,881
264	14,681
264,5	14,024
264,9	15,138
265,4	18,51
265,9	20,738
266,3	23,338
266,8	21,795
267,3	27,624
267,7	25,624
268,2	21,081
268,7	21,567
269,1	16,652
269,6	18,424
270	21,081
270,5	21,51
271	20,138
271,4	18,795
271,9	23,138
272,4	25,824
272,8	17,995
273,3	14,052
273,7	8,624
274,2	8,338
274,7	12,024
275,1	3,881
275,6	8,281
276,1	12,91
276,5	12,595
277	16,51
277,4	16,51
277,9	17,795
278,4	24,024
278,8	24,024
279,3	21,281
279,8	23,11
280,2	17,424
280,7	14,652
281,1	12,195
281,6	8,31
282,1	5,71
282,5	9,652
283	7,795
283,4	12,538
283,9	14,081
284,4	13,938
284,8	11,31
285,3	7,51
285,8	5,167
286,2	2,367
286,7	2,624
287,1	0,338
287,6	2,91
288,1	5,138
288,5	10,11
289	12,71
289,5	15,31
289,9	12,624
290,4	14,71
290,8	15,31
291,3	11,538
291,8	6,595
292,2	7,824
292,7	9,967
293,1	11,538
293,6	10,624
294,1	7,424
294,5	11,795
295	15,281
295,5	17,652
295,9	20,595
296,4	19,767
296,8	22,881
297,3	24,652
297,8	25,995
298,2	23,71
298,7	17,481
299,1	16,938
299,6	17,652
300,1	17,91
300,5	20,138
301	21,51
301,5	20,71
301,9	24,995
302,4	20,395
302,8	16,31
303,3	15,852
303,8	9,281
304,2	3,31
304,7	6,652
305,1	4,995
305,6	2,995
306,1	8,367
306,5	9,367
307	10,081
307,4	6,995
307,9	6,624
308,4	6,795
308,8	11,567
309,3	11,538
309,8	15,167
310,2	14,91
310,7	27,681
311,1	25,738
311,6	26,681
312,1	28,595
312,5	27,91
313	20,595
313,4	22,938
313,9	17,11
314,4	15,71
314,8	13,852
315,3	10,938
315,7	13,31
316,2	14,595
316,7	15,767
317,1	19,195
317,6	22,167
318	26,681
318,5	29,452
319	29,51
319,4	30,452
319,9	28,052
320,3	24,681
320,8	21,167
321,3	14,052
321,7	11,881
322,2	10,51
322,6	7,652
323,1	5,367
323,6	5,252
324	6,081
324,5	6,938
324,9	7,195
325,4	8,367
325,9	17,338
326,3	22,024
326,8	21,224
327,2	24,567
327,7	27,481
328,2	25,652
328,6	22,31
329,1	13,167
329,5	12,281
330	14,11
330,5	10,738
330,9	11,567
331,4	5,31
331,8	9,71
332,3	15,852
332,8	13,795
333,2	11,024
333,7	13,71
334,1	13,367
334,6	19,252
335,1	14,367
335,5	12,395
336	12,738
336,4	13,91
336,9	16,281
337,4	16,281
337,8	16,395
338,3	17,195
338,7	18,224
339,2	21,452
339,7	22,424
340,1	20,71
340,6	18,195
341	23,367
341,5	29,281
342	29,681
342,4	27,281
342,9	23,938
343,3	27,224
343,8	30,11
344,2	28,824
344,7	26,081
345,2	23,252
345,6	28,081
346,1	30,081
346,5	27,281
347	27,481
347,5	22,567
347,9	18,195
348,4	20,195
348,8	19,138
349,3	20,795
349,8	25,738
350,2	26,281
350,7	35,024
351,1	39,167
351,6	45,938
352	52,881
352,5	58,938
353	65,138
353,4	75,424
353,9	85,024
354,3	104,452
354,8	115,081
355,3	134,995
355,7	161,852
356,2	190,252
356,6	223,51
357,1	262,681
357,5	302,167
358	361,652
358,5	421,252
358,9	488,538
359,4	566,767
359,8	653,11
360,3	749,652
360,8	859,052
361,2	974,71
361,7	1105,624
362,1	1252,938
362,6	1412,967
363	1588,195
363,5	1775,852
364	1967,995
364,4	2169,224
364,9	2365,252
365,3	2565,338
365,8	2748,881
366,3	2916,938
366,7	3078,452
367,2	3220,767
367,6	3336,652
368,1	3430,395
368,5	3489,91
369	3524,395
369,5	3537,652
369,9	3505,224
370,4	3448,595
370,8	3369,252
371,3	3272,881
371,7	3146,767
372,2	3015,424
372,7	2864,452
373,1	2719,31
373,6	2564,595
374	2407,224
374,5	2247,852
374,9	2093,824
375,4	1944,081
375,9	1804,395
376,3	1666,652
376,8	1535,31
377,2	1415,224
377,7	1297,595
378,2	1192,481
378,6	1091,252
379,1	996,195
379,5	910,824
380	838,967
380,4	764,138
380,9	704,938
381,4	647,367
381,8	597,824
382,3	552,31
382,7	503,767
383,2	462,052
383,6	431,052
384,1	400,567
384,6	374,652
385	347,795
385,5	323,538
385,9	305,424
386,4	287,91
386,8	272,71
387,3	252,281
387,7	232,738
388,2	214,681
388,7	200,167
389,1	184,91
389,6	170,767
390	154,481
390,5	141,624
390,9	137,967
391,4	134,824
391,9	124,938
392,3	111,024
392,8	109,367
393,2	100,395
393,7	100,081
394,1	88,395
394,6	81,138
395,1	82,367
395,5	87,024
396	78,938
396,4	77,881
396,9	72,024
397,3	73,881
397,8	68,338
398,2	61,195
398,7	55,167
399,2	54,71
399,6	55,71
400,1	49,081
400,5	45,681
401	50,595
401,4	50,367
401,9	53,681
402,4	51,452
402,8	49,224
403,3	51,624
403,7	50,51
404,2	44,281
404,6	44,367
405,1	39,824
405,5	34,367
406	33,338
406,5	34,338
406,9	32,081
407,4	34,281
407,8	38,624
408,3	39,31
408,7	47,281
409,2	47,852
409,6	49,71
410,1	56,624
410,6	57,224
411	55,852
411,5	58,281
411,9	56,338
412,4	58,938
412,8	60,852
413,3	57,652
413,7	58,795
414,2	64,367
414,7	72,081
415,1	74,567
415,6	78,081
416	78,138
416,5	82,824
416,9	87,024
417,4	83,681
417,8	80,738
418,3	84,281
418,8	80,824
419,2	86,681
419,7	90,624
420,1	87,624
420,6	89,967
421	93,252
421,5	95,738
421,9	101,424
422,4	101,338
422,8	99,395
423,3	106,31
423,8	112,595
424,2	111,738
424,7	110,71
425,1	108,567
425,6	112,652
426	113,195
426,5	114,195
426,9	111,681
427,4	111,567
427,9	108,767
428,3	108,652
428,8	107,967
429,2	107,624
429,7	103,767
430,1	102,538
430,6	105,424
431	108,11
431,5	109,91
431,9	110,024
432,4	115,967
432,8	120,281
433,3	125,281
433,8	130,881
434,2	132,681
434,7	133,995
435,1	138,11
435,6	142,652
436	145,681
436,5	147,738
436,9	150,252
437,4	160,395
437,8	169,938
438,3	175,395
438,8	174,31
439,2	181,195
439,7	186,31
440,1	190,052
440,6	195,138
441	201,824
441,5	207,281
441,9	222,567
442,4	236,224
442,8	248,024
443,3	258,567
443,7	263,424
444,2	272,852
444,7	285,738
445,1	292,995
445,6	299,395
446	315,195
446,5	328,31
446,9	347,767
447,4	361,252
447,8	374,452
448,3	392,652
448,7	404,081
449,2	415,31
449,6	429,767
450,1	446,881
450,6	465,767
451	480,51
451,5	498,395
451,9	517,567
452,4	537,681
452,8	557,481
453,3	570,452
453,7	584,51
454,2	609,138
454,6	629,595
455,1	649,538
455,5	670,795
456	694,452
456,4	722,167
456,9	747,881
457,3	769,767
457,8	794,281
458,3	820,624
458,7	844,338
459,2	868,024
459,6	894,024
460,1	917,252
460,5	943,252
461	966,567
461,4	999,624
461,9	1025,71
462,3	1057,452
462,8	1086,595
463,2	1120,252
463,7	1149,624
464,1	1185,938
464,6	1214,338
465	1253,795
465,5	1284,91
466	1319,424
466,4	1355,167
466,9	1393,967
467,3	1427,595
467,8	1464,452
468,2	1491,252
468,7	1524,681
469,1	1554,852
469,6	1587,252
470	1622,338
470,5	1655,167
470,9	1686,481
471,4	1726,11
471,8	1761,852
472,3	1791,852
472,7	1828,767
473,2	1853,452
473,6	1886,881
474,1	1918,052
474,5	1951,481
475	1986,424
475,4	2023,595
475,9	2063,795
476,4	2100,424
476,8	2133,795
477,3	2172,224
477,7	2202,71
478,2	2229,795
478,6	2262,395
479,1	2288,938
479,5	2321,224
480	2353,624
480,4	2382,538
480,9	2415,452
481,3	2447,881
481,8	2476,624
482,2	2506,252
482,7	2536,081
483,1	2566,31
483,6	2592,567
484	2611,538
484,5	2641,224
484,9	2670,967
485,4	2693,967
485,8	2716,024
486,3	2737,052
486,7	2760,824
487,2	2796,138
487,6	2816,995
488,1	2843,395
488,5	2868,31
489	2884,081
489,4	2905,967
489,9	2925,595
490,4	2939,938
490,8	2959,481
491,3	2977,195
491,7	2991,852
492,2	3018,652
492,6	3032,224
493,1	3047,367
493,5	3056,624
494	3068,367
494,4	3081,938
494,9	3092,91
495,3	3103,71
495,8	3120,338
496,2	3134,624
496,7	3148,795
497,1	3164,081
497,6	3166,338
498	3178,481
498,5	3191,024
498,9	3200,167
499,4	3214,195
499,8	3224,138
500,3	3234,481
500,7	3245,452
501,2	3253,081
501,6	3260,281
502,1	3268,024
502,5	3276,738
503	3292,91
503,4	3300,881
503,9	3317,738
504,3	3324,395
504,8	3334,567
505,2	3339,91
505,7	3344,31
506,1	3346,738
506,6	3349,281
507	3353,538
507,5	3372,081
507,9	3378,31
508,4	3390,681
508,8	3398,024
509,3	3406,395
509,7	3412,51
510,2	3414,081
510,6	3408,938
511,1	3419,31
511,5	3424,252
512	3433,567
512,4	3434,024
512,9	3436,167
513,3	3449,595
513,8	3459,881
514,2	3461,024
514,7	3467,538
515,1	3470,395
515,6	3474,452
516	3486,538
516,5	3492,481
516,9	3493,167
517,4	3498,481
517,8	3498,024
518,3	3500,367
518,7	3507,052
519,2	3512,138
519,6	3510,595
520,1	3516,024
520,5	3517,51
521	3526,652
521,4	3529,424
521,9	3539,795
522,3	3541,795
522,8	3552,052
523,2	3559,881
523,7	3570,31
524,1	3572,567
524,6	3579,052
525	3584,91
525,5	3592,738
525,9	3596,167
526,4	3601,681
526,8	3607,738
527,3	3613,395
527,7	3620,652
528,2	3623,995
528,6	3636,938
529,1	3641,538
529,5	3647,11
530	3653,767
530,4	3663,767
530,9	3671,081
531,3	3674,567
531,8	3678,852
532,2	3688,71
532,6	3698,167
533,1	3702,767
533,5	3713,195
534	3719,052
534,4	3732,024
534,9	3739,224
535,3	3748,452
535,8	3753,224
536,2	3757,281
536,7	3762,91
537,1	3773,138
537,6	3780,738
538	3789,395
538,5	3795,452
538,9	3803,71
539,4	3816,138
539,8	3819,452
540,3	3828,367
540,7	3836,881
541,2	3841,595
541,6	3844,195
542,1	3856,024
542,5	3861,967
543	3874,51
543,4	3883,281
543,9	3882,167
544,3	3892,767
544,8	3908,052
545,2	3912,738
545,7	3924,424
546,1	3928,995
546,5	3938,595
547	3957,281
547,4	3964,167
547,9	3970,138
548,3	3983,852
548,8	3997,052
549,2	4006,852
549,7	4019,995
550,1	4028,138
550,6	4037,824
551	4046,71
551,5	4047,824
551,9	4049,91
552,4	4054,024
552,8	4056,052
553,3	4067,052
553,7	4075,738
554,2	4080,795
554,6	4091,538
555,1	4098,738
555,5	4110,31
555,9	4116,052
556,4	4119,567
556,8	4123,31
557,3	4130,024
557,7	4138,995
558,2	4145,938
558,6	4154,595
559,1	4162,31
559,5	4168,967
560	4176,052
560,4	4185,138
560,9	4189,424
561,3	4192,91
561,8	4198,024
562,2	4199,824
562,7	4198,938
563,1	4199,138
563,6	4204,052
564	4212,51
564,4	4218,481
564,9	4217,624
565,3	4226,852
565,8	4235,767
566,2	4248,452
566,7	4247,881
567,1	4249,395
567,6	4253,424
568	4262,338
568,5	4260,51
568,9	4262,481
569,4	4263,395
569,8	4264,338
570,3	4264,738
570,7	4262,452
571,1	4256,738
571,6	4257,395
572	4257,624
572,5	4251,424
572,9	4259,024
573,4	4256,795
573,8	4260,652
574,3	4263,281
574,7	4267,738
575,2	4266,51
575,6	4268,881
576,1	4264,795
576,5	4261,71
576,9	4260,624
577,4	4262,281
577,8	4259,224
578,3	4251,452
578,7	4246,395
579,2	4245,567
579,6	4243,71
580,1	4241,71
580,5	4238,081
581	4229,252
581,4	4232,195
581,9	4229,795
582,3	4220,052
582,7	4221,31
583,2	4212,252
583,6	4204,995
584,1	4202,481
584,5	4197,11
585	4192,538
585,4	4185,681
585,9	4178,195
586,3	4172,252
586,8	4162,681
587,2	4153,967
587,6	4143,795
588,1	4136,995
588,5	4132,767
589	4120,824
589,4	4110,338
589,9	4107,738
590,3	4102,081
590,8	4094,224
591,2	4089,91
591,7	4087,281
592,1	4084,824
592,5	4082,681
593	4071,31
593,4	4065,595
593,9	4058,481
594,3	4043,738
594,8	4031,252
595,2	4028,595
595,7	4013,738
596,1	4013,224
596,6	4013,424
597	4010,852
597,4	4009,595
597,9	4007,052
598,3	3996,967
598,8	3995,624
599,2	3983,852
599,7	3970,024
600,1	3961,11
600,6	3954,652
601	3942,71
601,4	3933,195
601,9	3924,681
602,3	3919,195
602,8	3907,681
603,2	3903,052
603,7	3890,852
604,1	3879,567
604,6	3870,281
605	3861,71
605,4	3849,852
605,9	3839,767
606,3	3824,91
606,8	3814,51
607,2	3796,338
607,7	3782,91
608,1	3774,195
608,6	3760,367
609	3751,852
609,4	3740,51
609,9	3729,024
610,3	3724,595
610,8	3713,338
611,2	3694,395
611,7	3680,967
612,1	3667,824
612,6	3653,538
613	3647,424
613,4	3633,71
613,9	3619,281
614,3	3611,224
614,8	3598,138
615,2	3584,852
615,7	3574,367
616,1	3553,995
616,6	3540,767
617	3526,11
617,4	3509,167
617,9	3497,395
618,3	3482,252
618,8	3464,938
619,2	3447,824
619,7	3437,452
620,1	3423,424
620,5	3412,281
621	3394,767
621,4	3382,681
621,9	3368,338
622,3	3360,71
622,8	3343,852
623,2	3337,367
623,6	3323,852
624,1	3315,024
624,5	3302,738
625	3282,51
625,4	3262,281
625,9	3251,91
626,3	3229,881
626,8	3213,31
627,2	3199,681
627,6	3182,881
628,1	3177,795
628,5	3165,367
629	3148,795
629,4	3131,681
629,9	3117,795
630,3	3100,481
630,7	3089,081
631,2	3071,71
631,6	3053,852
632,1	3034,481
632,5	3021,538
633	3001,138
633,4	2984,367
633,8	2956,767
634,3	2936,595
634,7	2925,024
635,2	2911,995
635,6	2893,824
636,1	2881,51
636,5	2867,224
636,9	2857,738
637,4	2846,767
637,8	2830,395
638,3	2810,138
638,7	2801,252
639,2	2788,967
639,6	2771,767
640	2749,738
640,5	2732,881
640,9	2719,024
641,4	2704,424
641,8	2685,31
642,2	2670,938
642,7	2658,167
643,1	2654,11
643,6	2643,795
644	2634,595
644,5	2628,91
644,9	2620,367
645,3	2606,91
645,8	2593,31
646,2	2582,31
646,7	2565,452
647,1	2550,567
647,6	2531,252
648	2512,481
648,4	2494,252
648,9	2481,367
649,3	2464,367
649,8	2452,824
650,2	2435,681
650,6	2426,052
651,1	2415,681
651,5	2406,052
652	2393,167
652,4	2372,824
652,9	2363,71
653,3	2352,767
653,7	2340,652
654,2	2328,652
654,6	2314,224
655,1	2300,538
655,5	2293,052
655,9	2279,195
656,4	2262,71
656,8	2247,252
657,3	2228,481
657,7	2213,681
658,2	2206,11
658,6	2192,881
659	2176,081
659,5	2165,71
659,9	2155,252
660,4	2146,481
660,8	2136,567
661,2	2114,624
661,7	2105,995
662,1	2094,967
662,6	2077,51
663	2067,338
663,4	2052,481
663,9	2039,995
664,3	2037,538
664,8	2026,852
665,2	2014,252
665,6	2005,767
666,1	1988,795
666,5	1977,595
667	1958,081
667,4	1942,167
667,9	1922,252
668,3	1910,795
668,7	1895,052
669,2	1883,567
669,6	1872,024
670,1	1871,881
670,5	1854,452
670,9	1848,51
671,4	1834,281
671,8	1824,281
672,3	1817,281
672,7	1806,224
673,1	1787,452
673,6	1778,624
674	1765,538
674,5	1754,167
674,9	1743,995
675,3	1729,024
675,8	1714,91
676,2	1711,767
676,7	1697,824
677,1	1687,338
677,5	1677,938
678	1667,71
678,4	1656,738
678,9	1646,167
679,3	1627,881
679,7	1612,795
680,2	1601,738
680,6	1592,852
681,1	1576,881
681,5	1562,252
681,9	1555,595
682,4	1545,252
682,8	1543,024
683,3	1531,195
683,7	1521,538
684,1	1512,224
684,6	1504,595
685	1492,852
685,5	1480,824
685,9	1468,71
686,3	1458,595
686,8	1446,995
687,2	1440,995
687,7	1432,167
688,1	1429,567
688,5	1422,167
689	1413,967
689,4	1406,452
689,9	1398,452
690,3	1391,681
690,7	1379,052
691,2	1362,51
691,6	1357,567
692	1344,738
692,5	1332,224
692,9	1318,195
693,4	1306,824
693,8	1302,31
694,2	1288,081
694,7	1280,795
695,1	1274,738
695,6	1262,995
696	1253,995
696,4	1242,624
696,9	1231,938
697,3	1229,224
697,8	1214,281
698,2	1204,71
698,6	1199,824
699,1	1191,824
699,5	1183,195
699,9	1177,224
700,4	1168,51
700,8	1166,624
701,3	1160,767
701,7	1152,881
702,1	1146,538
702,6	1140,738
703	1126,795
703,5	1120,338
703,9	1108,024
704,3	1102,767
704,8	1098,967
705,2	1095,452
705,6	1080,824
706,1	1081,338
706,5	1073,824
707	1065,91
707,4	1055,71
707,8	1045,652
708,3	1033,938
708,7	1032,824
709,2	1020,795
709,6	1014,167
710	1011,795
710,5	1006,595
710,9	996,51
711,3	990,681
711,8	983,624
712,2	983,452
712,7	978,338
713,1	971,824
713,5	959,91
714	957,395
714,4	949,367
714,8	947,71
715,3	937,852
715,7	924,852
716,2	909,167
716,6	910,852
717	902,938
717,5	900,11
717,9	888,167
718,3	879,624
718,8	877,738
719,2	878,538
719,7	870,081
720,1	859,624
720,5	850,967
721	841,652
721,4	836,881
721,8	832,424
722,3	817,881
722,7	807,052
723,2	805,281
723,6	801,624
724	799,195
724,5	789,024
724,9	773,452
725,3	770,881
725,8	768,224
726,2	763,452
726,7	753,31
727,1	748,252
727,5	746,91
728	748,852
728,4	747,538
728,8	741,424
729,3	733,881
729,7	734,967
730,1	731,31
730,6	723,081
731	718,224
731,5	714,024
731,9	715,11
732,3	711,195
732,8	703,824
733,2	697,91
733,6	692,51
734,1	686,024
734,5	673,91
734,9	663,395
735,4	658,681
735,8	651,595
736,3	647,281
736,7	649,338
737,1	648,567
737,6	646,738
738	642,538
738,4	639,51
738,9	642,081
739,3	641,71
739,7	631,081
740,2	621,967
740,6	620,138
741,1	616,881
741,5	611,71
741,9	598,167
742,4	592,024
742,8	596,195
743,2	596,824
743,7	593,71
744,1	586,424
744,5	583,081
745	581,795
745,4	576,31
745,8	565,452
746,3	563,567
746,7	562,024
747,2	566,71
747,6	565,081
748	560,424
748,5	556,567
748,9	554,881
749,3	556,167
749,8	544,167
750,2	538,167
750,6	535,481
751,1	535,652
751,5	531,624
751,9	528,052
752,4	516,567
752,8	518,795
753,3	515,595
753,7	511,91
754,1	505,31
754,6	503,338
755	501,71
755,4	498,624
755,9	495,881
756,3	486,51
756,7	477,595
757,2	474,367
757,6	473,367
758	463,052
758,5	457,595
758,9	451,195
759,3	447,252
759,8	448,252
760,2	448,252
760,6	443,795
761,1	445,51
761,5	445,91
761,9	446,052
762,4	446,652
762,8	444,538
763,3	434,767
763,7	429,995
764,1	424,452
764,6	416,167
765	410,91
765,4	406,624
765,9	402,624
766,3	400,852
766,7	399,967
767,2	400,424
767,6	399,338
768	400,195
768,5	399,338
768,9	390,51
769,3	393,881
769,8	392,71
770,2	392,395
770,6	390,224
771,1	387,938
771,5	388,395
771,9	391,795
772,4	389,852
772,8	385,052
773,2	379,595
773,7	380,252
774,1	380,881
774,5	374,624
775	369,624
775,4	367,167
775,8	366,795
776,3	360,681
776,7	359,995
777,1	356,252
777,6	351,31
778	348,167
778,4	342,452
778,9	338,652
779,3	343,338
779,7	342,538
780,2	337,252
780,6	338,367
781	337,738
781,5	340,367
781,9	335,052
782,3	331,795
782,8	323,624
783,2	317,567
783,6	311,91
784,1	312,367
784,5	307,224
784,9	306,852
785,4	301,024
785,8	298,624
786,2	297,624
786,7	299,624
787,1	294,767
787,5	290,824
788	290,081
788,4	292,167
788,8	290,11
789,3	292,738
789,7	290,052
790,1	291,595
790,6	292,281
791	288,252
791,4	280,795
791,9	279,538
792,3	272,481
792,7	271,681
793,2	263,824
793,6	261,11
794	259,938
794,5	260,91
794,9	262,852
795,3	261,652
795,8	257,138
796,2	258,795
796,6	254,795
797,1	249,824
797,5	247,11
797,9	241,424
798,4	244,167
798,8	242,024
799,2	239,367
799,7	238,938
800,1	239,738
800,5	240,452
801	236,795
801,4	230,91
801,8	229,652
802,2	228,281
802,7	224,967
803,1	223,338
803,5	223,138
804	222,224
804,4	215,167
804,8	212,624
805,3	208,252
805,7	206,31
806,1	209,767
806,6	207,51
807	207,367
807,4	210,652
807,9	211,424
808,3	208,738
808,7	211,138
809,2	203,167
809,6	202,252
810	201,967
810,4	203,452
810,9	198,967
811,3	201,481
811,7	197,71
812,2	200,281
812,6	197,138
813	191,71
813,5	190,652
813,9	188,024
814,3	187,995
814,8	186,71
815,2	175,167
815,6	170,71
816,1	175,51
816,5	171,452
816,9	175,138
817,3	170,138
817,8	171,31
818,2	172,11
818,6	173,424
819,1	170,595
819,5	170,481
819,9	163,081
820,4	163,367
820,8	158,167
821,2	162,967
821,7	163,452
822,1	158,681
822,5	158,538
822,9	166,052
823,4	165,31
823,8	165,367
824,2	164,652
824,7	162,081
825,1	161,995
825,5	161,081
826	157,652
826,4	154,367
826,8	154,452
827,3	156,71
827,7	158,738
828,1	159,595
828,5	158,938
829	152,424
829,4	154,538
829,8	149,624
830,3	145,367
830,7	138,51
831,1	135,51
831,6	132,71
832	129,567
832,4	130,138
832,8	131,71
833,3	126,138
833,7	126,167
834,1	125,338
834,6	117,395
835	124,71
835,4	121,995
835,8	118,938
836,3	118,338
836,7	116,881
837,1	116,395
837,6	118,995
838	113,595
838,4	110,967
838,9	116,567
839,3	124,11
839,7	124,281
840,1	121,224
840,6	123,452
841	125,252
841,4	121,995
841,9	115,367
842,3	108,31
842,7	106,595
843,1	109,51
843,6	110,595
844	105,738
844,4	111,167
844,9	109,995
845,3	110,424
845,7	113,024
846,2	114,281
846,6	113,138
847	113,71
847,4	107,852
847,9	105,51
848,3	104,738
848,7	104,624
849,2	101,681
849,6	99,967
850	98,967
850,4	97,738
850,9	99,481
851,3	98,567
851,7	93,91
852,2	88,795
852,6	89,481
853	89,081
853,4	91,567
853,9	90,11
854,3	86,081
854,7	84,595
855,2	84,538
855,6	77,538
856	76,767
856,4	75,395
856,9	70,195
857,3	70,395
857,7	72,195
858,2	72,595
858,6	78,338
859	73,767
859,4	74,967
859,9	81,081
860,3	85,51
860,7	86,452
861,1	84,424
861,6	80,824
862	86,795
862,4	83,281
862,9	82,738
863,3	73,995
863,7	68,195
864,1	67,567
864,6	66,195
865	63,395
865,4	62,224
865,9	60,024
866,3	66,195
866,7	70,852
867,1	77,624
867,6	78,367
868	78,452
868,4	79,91
868,8	78,195
869,3	76,824
869,7	72,052
870,1	69,624
870,6	70,795
871	124,652
871,4	122,395
871,8	123,652
872,3	125,024
872,7	126,367
873,1	128,052
873,5	130,195
874	79,738
874,4	79,567
874,8	75,881
875,3	68,252
875,7	68,681
876,1	60,51
876,5	56,338
877	51,11
877,4	51,767
877,8	54,11
878,2	54,395
878,7	53,995
879,1	54,824
879,5	56,167
879,9	54,195
880,4	52,395
880,8	51,881
881,2	55,91
881,7	58,424
882,1	60,252
882,5	59,31
882,9	59,481
883,4	63,395
883,8	61,738
884,2	61,967
884,6	56,281
885,1	57,195
885,5	60,338
885,9	64,567
886,3	61,538
886,8	62,138
887,2	59,052
887,6	61,11
888	58,595
888,5	55,852
888,9	53,738
889,3	48,424
889,8	50,424
890,2	47,881
890,6	47,281
891	45,081
891,5	44,624
891,9	45,938
892,3	51,052
892,7	49,938
893,2	49,71
893,6	45,31
894	45,967
894,4	41,31
894,9	38,138
895,3	36,31
895,7	37,367
896,1	42,424
896,6	45,052
897	44,681
897,4	42,681
897,8	42,424
898,3	48,595
898,7	46,938
899,1	42,024
899,5	39,31
900	39,51
900,4	40,795
900,8	42,195
901,2	36,824
901,7	35,224
902,1	38,452
902,5	40,195
902,9	41,881
903,4	44,424
903,8	39,11
904,2	41,652
904,6	42,31
905,1	38,395
905,5	39,681
905,9	37,51
906,3	35,338
906,8	38,938
907,2	34,538
907,6	32,995
908	33,624
908,5	32,11
908,9	31,338
909,3	29,31
909,7	29,567
910,2	29,167
910,6	31,11
911	34,824
911,4	32,681
911,9	32,024
912,3	34,652
912,7	33,252
913,1	27,224
913,6	27,967
914	25,31
914,4	24,567
914,8	27,767
915,3	25,681
915,7	24,567
916,1	28,11
916,5	26,452
916,9	24,852
917,4	26,738
917,8	23,138
918,2	24,224
918,6	23,995
919,1	24,852
919,5	27,167
919,9	30,738
920,3	31,081
920,8	31,91
921,2	34,281
921,6	35,052
922	33,91
922,5	30,652
922,9	23,31
923,3	26,881
923,7	27,11
924,2	23,424
924,6	21,652
925	22,538
925,4	23,71
925,8	29,624
926,3	29,481
926,7	27,11
927,1	28,767
927,5	27,824
928	25,652
928,4	22,881
928,8	27,824
929,2	23,938
929,7	21,624
930,1	19,71
930,5	20,338
930,9	23,738
931,3	26,167
931,8	19,31
932,2	17,595
932,6	23,024
933	18,195
933,5	15,024
933,9	15,652
934,3	15,31
934,7	18,738
935,2	25,71
935,6	25,652
936	28,167
936,4	34,081
936,8	31,795
937,3	28,195
937,7	27,652
938,1	17,024
938,5	16,252
939	17,395
939,4	14,281
939,8	16,252
940,2	19,224
940,6	16,252
941,1	24,652
941,5	23,138
941,9	22,852
942,3	21,881
942,8	20,195
943,2	14,281
943,6	14,881
944	9,881
944,4	7,052
944,9	8,31
945,3	10,538
945,7	9,71
946,1	17,538
946,6	18,138
947	22,881
947,4	23,824
947,8	26,824
948,2	25,367
948,7	26,795
949,1	22,424
949,5	22,338
949,9	20,452
950,3	21,338
950,8	16,852
951,2	17,338
951,6	18,167
952	17,367
952,5	12,11
952,9	9,452
953,3	8,395
953,7	11,138
954,1	12,681
954,6	11,395
955	10,681
955,4	13,31
955,8	18,024
956,2	16,938
956,7	17,11
957,1	17,081
957,5	17,31
957,9	19,595
958,3	21,252
958,8	16,938
959,2	19,538
959,6	17,938
960	13,881
960,5	10,138
960,9	12,967
961,3	9,11
961,7	8,51
962,1	7,995
962,6	4,024
963	4,481
963,4	9,767
963,8	5,71
964,2	9,338
964,7	8,595
965,1	8,195
965,5	12,081
965,9	18,195
966,3	14,395
966,8	14,71
967,2	17,338
967,6	17,024
968	19,995
968,4	23,567
968,9	21,224
969,3	21,51
969,7	20,738
970,1	18,138
970,5	22,538
971	22,052
971,4	19,824
971,8	19,995
972,2	22,938
972,6	24,995
973,1	24,167
973,5	21,51
973,9	18,138
974,3	16,738
974,7	13,681
975,2	13,967
975,6	11,881
976	16,338
976,4	14,652
976,8	17,281
977,3	16,395
977,7	14,024
978,1	9,081
978,5	10,995
978,9	6,738
979,4	5,424
979,8	4,252
980,2	2,681
980,6	6,395
981	13,51
981,5	13,024
981,9	12,224
982,3	12,052
982,7	14,51
983,1	19,052
983,6	20,795
984	14,081
984,4	16,624
984,8	19,395
985,2	21,31
985,6	19,995
986,1	19,024
986,5	13,852
986,9	18,338
987,3	14,252
987,7	14,71
988,2	18,852
988,6	16,624
989	14,052
989,4	18,881
989,8	14,91
990,3	14,11
990,7	8,938
991,1	0,824
991,5	-0,605
991,9	3,224
992,3	3,052
992,8	9,338
993,2	13,738
993,6	14,395
994	17,995
994,4	22,081
994,9	19,595
995,3	19,681
995,7	13,338
996,1	12,252
996,5	11,281
996,9	10,738
997,4	8,224
997,8	6,738
998,2	6,71
998,6	7,852
999	5,281
999,5	9,51
999,9	14,31
1000,3	19,538
1000,7	18,824
1001,1	16,624
1001,5	13,681
1002	13,567
1002,4	16,31
1002,8	17,91
1003,2	12,567
1003,6	16,881
1004	17,338
1004,5	20,024
1004,9	20,195
1005,3	13,167
1005,7	8,452
1006,1	5,538
1006,6	5,11
1007	3,767
1007,4	5,395
1007,8	5,024
1008,2	5,995
1008,6	3,052
1009,1	4,595
1009,5	9,481
1009,9	15,338
1010,3	18,624
1010,7	20,595
1011,1	23,967
1011,6	28,481
1012	32,681
1012,4	33,652
1012,8	26,538
1013,2	21,967
1013,6	21,824
1014,1	20,052
1014,5	18,738
1014,9	18,852
1015,3	11,024
1015,7	11,452
1016,1	13,824
1016,6	16,167
1017	15,452
1017,4	13,024
1017,8	8,652
1018,2	9,538
1018,6	11,652
1019,1	9,795
1019,5	7,367
1019,9	14,481
1020,3	14,11
1020,7	13,681
1021,1	15,995
1021,6	15,024
1022	15,138
1022,4	20,167
1022,8	16,967
1023,2	19,852
1023,6	18,91
1024,1	19,167
1024,5	20,252
1024,9	20,995
1025,3	16,567
1025,7	16,367
1026,1	19,11
1026,6	27,424
1027	24,281
1027,4	24,738
1027,8	21,91
1028,2	22,281
1028,6	19,367
1029	14,367
1029,5	11,11
1029,9	10,367
1030,3	11,91
1030,7	14,281
1031,1	10,71
1031,5	11,595
1032	14,595
1032,4	11,881
1032,8	10,567
1033,2	10,795
1033,6	13,281
1034	14,167
1034,4	19,395
1034,9	14,024
1035,3	17,338
1035,7	21,081
1036,1	19,71
1036,5	11,252
1036,9	13,281
1037,4	8,081
1037,8	14,281
1038,2	11,167
1038,6	8,052
1039	7,51
1039,4	13,624
1039,8	9,824
1040,3	8,824
1040,7	3,224
1041,1	8,624
1041,5	5,91
1041,9	4,538
1042,3	1,852
1042,7	6,481
1043,2	5,395
1043,6	12,081
1044	5,51
1044,4	5,367
1044,8	3,31
1045,2	6,71
1045,6	11,395
1046,1	15,167
1046,5	12,767
1046,9	18,71
1047,3	23,595
1047,7	23,967
1048,1	23,167
1048,5	15,595
1049	13,71
1049,4	10,938
1049,8	4,138
1050,2	4,052
1050,6	8,824
1051	11,252
1051,4	8,995
1051,9	13,395
1052,3	16,824
1052,7	20,71
1053,1	23,395
1053,5	21,081
1053,9	18,538
1054,3	21,738
1054,8	22,338
1055,2	21,481
1055,6	21,024
1056	16,681
1056,4	15,852
1056,8	19,852
1057,2	20,995
1057,6	13,424
1058,1	12,567
1058,5	14,167
1058,9	19,11
1059,3	22,081
1059,7	12,995
1060,1	12,881
1060,5	8,195
1061	10,624
1061,4	14,224
1061,8	11,824
1062,2	13,138
1062,6	21,195
1063	20,738
1063,4	28,31
1063,8	26,995
1064,3	21,91
1064,7	23,167
1065,1	20,31
1065,5	19,795
1065,9	16,367
1066,3	15,195
1066,7	12,624
1067,1	9,795
1067,6	6,595
1068	5,51
1068,4	7,91
1068,8	13,395
1069,2	14,995
1069,6	17,795
1070	20,652
1070,4	24,481
1070,9	23,538
1071,3	18,91
1071,7	17,081
1072,1	20,967
1072,5	21,367
1072,9	21,567
1073,3	18,452
1073,7	18,51
1074,2	22,252
1074,6	22,738
1075	19,481
1075,4	20,081
1075,8	21,71
1076,2	17,538
1076,6	19,967
1077	13,195
1077,5	12,052
1077,9	8,424
1078,3	3,51
1078,7	1,252
1079,1	4,738
1079,5	-0,548
1079,9	3,367
1080,3	0,624
1080,7	5,91
1081,2	9,367
1081,6	11,424
1082	9,652
1082,4	11,881
1082,8	6,11
1083,2	1,024
1083,6	1,624
1084	-1,976
1084,5	-3,605
1084,9	-2,09
1085,3	0,452
1085,7	1,252
1086,1	3,795
1086,5	4,452
1086,9	7,938
1087,3	7,224
1087,7	13,881
1088,2	9,481
1088,6	12,167
1089	14,624
1089,4	9,538
1089,8	12,081
1090,2	12,71
1090,6	7,052
1091	13,967
1091,4	16,452
1091,9	19,195
1092,3	19,824
1092,7	15,481
1093,1	11,624
1093,5	9,795
1093,9	10,452
1094,3	9,852
1094,7	8,452
1095,1	5,367
1095,5	6,681
1096	2,795
1096,4	5,967
1096,8	-2,776
1097,2	-4,176
1097,6	-2,233
1098	-0,005
1098,4	0,795
1098,8	6,11
1099,2	4,738
1099,6	11,11
1100,1	13,224
1100,5	15,567
1100,9	14,081
1101,3	14,281
1101,7	19,367
1102,1	20,881
1102,5	19,481
1102,9	14,51
1103,3	11,052
1103,7	13,424
1104,2	13,024
1104,6	11,424
1105	8,167
1105,4	4,995
1105,8	7,138
1106,2	6,424
1106,6	4,138
1107	1,71
1107,4	-1,433
1107,8	-1,553
1108,3	0,767
