Data from Subt2_102.txt Node
Date: Sat Aug 26 18:18:43 MSK 2023
User: vat
Spectrometer: MAYP114033
Trigger mode: 0
Integration Time (sec): 1,000000E0
Scans to average: 5
Electric dark correction enabled: true
Nonlinearity correction enabled: false
Boxcar width: 3
XAxis mode: Wavelengths
Number of Pixels in Spectrum: 2068
>>>>>Begin Spectral Data<<<<<
199,4	-0,917
199,9	-0,427
200,4	-3,667
200,8	0,048
201,3	0,219
201,8	3,333
202,2	0,476
202,7	3,162
203,2	5,533
203,6	6,933
204,1	1,248
204,6	0,019
205	-0,724
205,5	2,733
206	2,676
206,4	1,79
206,9	3,648
207,4	8,333
207,8	7,876
208,3	6,219
208,8	5,105
209,2	7,248
209,7	6,619
210,2	9,076
210,6	7,99
211,1	12,876
211,5	9,305
212	11,19
212,5	7,105
212,9	6,019
213,4	5,505
213,9	2,819
214,3	1,276
214,8	5,619
215,3	5,848
215,7	5,048
216,2	6,476
216,7	3,19
217,1	4,333
217,6	5,076
218,1	3,762
218,5	-2,095
219	-6,895
219,5	-5,21
219,9	-7,038
220,4	-2,695
220,9	-4,381
221,3	-5,81
221,8	1,676
222,3	7,333
222,7	6,133
223,2	10,048
223,6	6,333
224,1	3,762
224,6	4,876
225	-2,61
225,5	-4,581
226	-4,61
226,4	-6,324
226,9	-3,381
227,4	-2,952
227,8	-4,838
228,3	-3,038
228,8	1,105
229,2	1,076
229,7	-1,81
230,2	-4,238
230,6	-0,238
231,1	5,562
231,5	7,819
232	8,705
232,5	5,905
232,9	9,39
233,4	8,648
233,9	4,648
234,3	1,933
234,8	4,162
235,3	0,048
235,7	3,219
236,2	2,105
236,7	3,505
237,1	8,533
237,6	6,219
238,1	4,848
238,5	4,162
239	4,562
239,4	9,276
239,9	10,076
240,4	8,276
240,8	12,276
241,3	9,848
241,8	10,362
242,2	9,562
242,7	4,79
243,2	2,819
243,6	3,19
244,1	3,105
244,6	0,819
245	2,39
245,5	1,705
245,9	-0,067
246,4	2,333
246,9	1,448
247,3	-0,838
247,8	5,533
248,3	7,505
248,7	5,276
249,2	7,505
249,7	3,848
250,1	4,505
250,6	7,476
251	5,962
251,5	4,162
252	4,562
252,4	9,562
252,9	10,448
253,4	8,619
253,8	2,505
254,3	2,076
254,8	3,248
255,2	-1,381
255,7	-5,01
256,1	-2,781
256,6	0,476
257,1	6,076
257,5	2,562
258	2,99
258,5	6,819
258,9	6,39
259,4	1,59
259,9	-0,867
260,3	-4,524
260,8	-5,724
261,2	-8,352
261,7	-6,467
262,2	-11,238
262,6	-9,21
263,1	-8,695
263,6	-7,152
264	-0,238
264,5	2,248
264,9	3,305
265,4	10,562
265,9	7,733
266,3	11,448
266,8	14,762
267,3	12,105
267,7	6,933
268,2	2,619
268,7	3,19
269,1	2,648
269,6	-2,267
270	-1,01
270,5	-5,381
271	0,048
271,4	5,362
271,9	-1,467
272,4	7,048
272,8	6,162
273,3	-1,524
273,7	2,248
274,2	-2,638
274,7	-5,381
275,1	0,076
275,6	-3,952
276,1	-4,467
276,5	-0,238
277	-1,181
277,4	-0,181
277,9	1,419
278,4	1,705
278,8	3,333
279,3	6,533
279,8	7,162
280,2	10,905
280,7	13,676
281,1	12,648
281,6	8,99
282,1	7,79
282,5	6,276
283	3,619
283,4	1,619
283,9	0,619
284,4	3,362
284,8	7,933
285,3	4,819
285,8	2,676
286,2	1,533
286,7	1,705
287,1	0,505
287,6	-1,152
288,1	-5,181
288,5	-2,552
289	-2,467
289,5	2,219
289,9	2,448
290,4	5,648
290,8	4,333
291,3	6,419
291,8	9,762
292,2	9,762
292,7	12,19
293,1	9,448
293,6	6,019
294,1	5,705
294,5	6,048
295	3,19
295,5	2,819
295,9	-5,981
296,4	-6,267
296,8	-6,238
297,3	-8,524
297,8	-8,61
298,2	-10,181
298,7	-4,781
299,1	-0,324
299,6	-1,152
300,1	3,248
300,5	8,333
301	7,105
301,5	12,876
301,9	9,048
302,4	6,362
302,8	7,019
303,3	3,648
303,8	-2,181
304,2	-3,295
304,7	-5,238
305,1	-7,895
305,6	-6,981
306,1	0,419
306,5	-0,495
307	9,99
307,4	11,933
307,9	9,333
308,4	8,39
308,8	7,505
309,3	-0,152
309,8	1,762
310,2	-1,438
310,7	-2,438
311,1	-0,581
311,6	4,876
312,1	8,59
312,5	13,676
313	15,019
313,4	12,333
313,9	9,419
314,4	5,048
314,8	-1,295
315,3	0,419
315,7	-5,352
316,2	-9,21
316,7	-9,724
317,1	-4,124
317,6	-3,124
318	4,619
318,5	1,333
319	4,905
319,4	5,133
319,9	10,076
320,3	7,648
320,8	9,562
321,3	10,276
321,7	11,676
322,2	10,562
322,6	13,562
323,1	5,076
323,6	5,133
324	2,619
324,5	-1,324
324,9	-5,038
325,4	-7,924
325,9	-7,867
326,3	-3,124
326,8	-0,067
327,2	-3,867
327,7	-2,238
328,2	-1,61
328,6	4,333
329,1	-1,381
329,5	-3,095
330	-6,724
330,5	3,219
330,9	4,933
331,4	7,39
331,8	6,705
332,3	14,448
332,8	13,59
333,2	13,048
333,7	8,676
334,1	3,476
334,6	0,276
335,1	-6,61
335,5	-8,752
336	-6,952
336,4	-1,781
336,9	3,819
337,4	10,39
337,8	11,99
338,3	16,819
338,7	15,533
339,2	15,162
339,7	13,619
340,1	7,076
340,6	3,79
341	2,79
341,5	2,562
342	2,562
342,4	-1,067
342,9	-8,467
343,3	-8,238
343,8	-9,238
344,2	-5,438
344,7	3,79
345,2	3,19
345,6	7,133
346,1	10,505
346,5	10,39
347	7,962
347,5	5,876
347,9	-0,41
348,4	0,933
348,8	1,219
349,3	6,876
349,8	9,848
350,2	13,819
350,7	11,133
351,1	9,476
351,6	12,933
352	14,305
352,5	12,19
353	18,848
353,4	20,076
353,9	26,705
354,3	35,276
354,8	36,419
355,3	48,705
355,7	63,162
356,2	72,333
356,6	91,848
357,1	111,905
357,5	130,39
358	159,733
358,5	181,676
358,9	204,248
359,4	234,876
359,8	268,476
360,3	308,39
360,8	350,476
361,2	389,105
361,7	442,105
362,1	502,848
362,6	562,876
363	624,305
363,5	689,248
364	764,933
364,4	844,533
364,9	916,819
365,3	991,705
365,8	1060,505
366,3	1132,933
366,7	1196,476
367,2	1249,248
367,6	1291,848
368,1	1327,076
368,5	1346,105
369	1361,876
369,5	1364,276
369,9	1355,105
370,4	1333,305
370,8	1307,705
371,3	1271,419
371,7	1231,733
372,2	1179,133
372,7	1120,048
373,1	1063,133
373,6	1000,019
374	937,733
374,5	873,476
374,9	813,19
375,4	756,362
375,9	700,305
376,3	645,533
376,8	595,276
377,2	549,59
377,7	507,305
378,2	463,562
378,6	423,105
379,1	387,276
379,5	354,876
380	331,219
380,4	302,676
380,9	279,876
381,4	255,162
381,8	237,048
382,3	224,133
382,7	209,619
383,2	191,133
383,6	176,648
384,1	160,048
384,6	151,419
385	141,305
385,5	128,248
385,9	114,59
386,4	105,105
386,8	100,219
387,3	96,476
387,7	86,305
388,2	84,248
388,7	79,933
389,1	78,619
389,6	76,448
390	72,276
390,5	68,762
390,9	72,362
391,4	66,19
391,9	58,276
392,3	57,848
392,8	51,819
393,2	44,648
393,7	40,448
394,1	35,505
394,6	35,79
395,1	39,333
395,5	34,505
396	34,848
396,4	37,305
396,9	37,219
397,3	40,848
397,8	41,219
398,2	41,905
398,7	43,876
399,2	46,476
399,6	45,819
400,1	45,848
400,5	37,705
401	35,476
401,4	28,962
401,9	30,219
402,4	31,219
402,8	30,419
403,3	39,905
403,7	44,562
404,2	51,248
404,6	57,848
405,1	56,362
405,5	55,133
406	56,076
406,5	51,333
406,9	58,79
407,4	56,619
407,8	56,333
408,3	59,59
408,7	62,705
409,2	71,705
409,6	77,162
410,1	83,162
410,6	90,99
411	100,419
411,5	108,819
411,9	118,648
412,4	125,019
412,8	136,505
413,3	140,276
413,7	146,648
414,2	153,248
414,7	165,133
415,1	180,848
415,6	190,762
416	199,305
416,5	211,648
416,9	222,505
417,4	240,676
417,8	255,276
418,3	270,133
418,8	290,333
419,2	307,219
419,7	325,933
420,1	349,819
420,6	368,962
421	387,19
421,5	406,962
421,9	430,162
422,4	450,105
422,8	474,933
423,3	494,648
423,8	519,705
424,2	547,419
424,7	576,619
425,1	602,19
425,6	639,276
426	669,19
426,5	712,733
426,9	751,876
427,4	794,619
427,9	831,562
428,3	883,248
428,8	927,933
429,2	976,562
429,7	1022,476
430,1	1072,562
430,6	1126,276
431	1183,79
431,5	1238,79
431,9	1303,048
432,4	1373,048
432,8	1443,79
433,3	1518,248
433,8	1592,619
434,2	1673,19
434,7	1755,705
435,1	1840,333
435,6	1929,19
436	2024,219
436,5	2127,733
436,9	2228,79
437,4	2338,219
437,8	2449,019
438,3	2563,648
438,8	2684,676
439,2	2808,676
439,7	2939,39
440,1	3079,076
440,6	3224,848
441	3367,933
441,5	3520,59
441,9	3675,505
442,4	3832,476
442,8	3995,505
443,3	4166,362
443,7	4334,219
444,2	4518,533
444,7	4701,419
445,1	4895,705
445,6	5089,733
446	5291,648
446,5	5494,219
446,9	5697,505
447,4	5913,419
447,8	6135,362
448,3	6362,648
448,7	6596,648
449,2	6831,79
449,6	7077,076
450,1	7328,562
450,6	7583,876
451	7831,133
451,5	8088,076
451,9	8361,59
452,4	8632,362
452,8	8906,848
453,3	9193,276
453,7	9463,448
454,2	9766,505
454,6	10058,79
455,1	10341,933
455,5	10639,048
456	10948,59
456,4	11250,962
456,9	11578,933
457,3	11890,676
457,8	12198,476
458,3	12533,248
458,7	12851,505
459,2	13175,676
459,6	13498,39
460,1	13822,505
460,5	14148,276
461	14500,219
461,4	14829,162
461,9	15166,648
462,3	15507,362
462,8	15852,762
463,2	16183,476
463,7	16529,705
464,1	16856,905
464,6	17195,533
465	17528,448
465,5	17850,133
466	18174,162
466,4	18498,505
466,9	18821,79
467,3	19141,59
467,8	19459,59
468,2	19785,99
468,7	20115,19
469,1	20441,848
469,6	20768,276
470	21084,048
470,5	21381,333
470,9	21682,733
471,4	21975,076
471,8	22257,505
472,3	22550,448
472,7	22831,733
473,2	23110,333
473,6	23403,19
474,1	23675,276
474,5	23950,219
475	24211,219
475,4	24460,476
475,9	24701,648
476,4	24924,048
476,8	25163,333
477,3	25394,933
477,7	25604,533
478,2	25808,305
478,6	26012,533
479,1	26210,59
479,5	26399,476
480	26563,448
480,4	26732,962
480,9	26895,819
481,3	27053,59
481,8	27185,276
482,2	27315,448
482,7	27458,619
483,1	27591,362
483,6	27704,762
484	27806,276
484,5	27904,905
484,9	28001,619
485,4	28092,99
485,8	28158,876
486,3	28222,648
486,7	28273,476
487,2	28331,219
487,6	28378,305
488,1	28412,39
488,5	28427,705
489	28455,248
489,4	28461,819
489,9	28465,79
490,4	28454,105
490,8	28432,162
491,3	28403,019
491,7	28368,048
492,2	28326,676
492,6	28258,162
493,1	28199,933
493,5	28134,39
494	28066,762
494,4	28005,105
494,9	27926,248
495,3	27824,162
495,8	27752,39
496,2	27646,39
496,7	27540,362
497,1	27437,219
497,6	27327,219
498	27218,905
498,5	27109,933
498,9	26993,448
499,4	26884,876
499,8	26775,362
500,3	26663,048
500,7	26525,59
501,2	26393,362
501,6	26270,305
502,1	26128,448
502,5	25984,048
503	25832,305
503,4	25667,562
503,9	25504,848
504,3	25350,619
504,8	25176,59
505,2	24999,133
505,7	24822,59
506,1	24650,276
506,6	24456,99
507	24285,562
507,5	24107,562
507,9	23923,305
508,4	23748,79
508,8	23572,133
509,3	23362,848
509,7	23182,619
510,2	22989,105
510,6	22777,99
511,1	22594,248
511,5	22393,59
512	22185,676
512,4	22007,19
512,9	21800,219
513,3	21598,933
513,8	21398,676
514,2	21183,419
514,7	20978,99
515,1	20773,133
515,6	20566,019
516	20371,248
516,5	20163,105
516,9	19967,705
517,4	19765,505
517,8	19562,219
518,3	19360,505
518,7	19151,276
519,2	18948,99
519,6	18750,048
520,1	18558,876
520,5	18361,448
521	18161,848
521,4	17972,448
521,9	17781,276
522,3	17591,905
522,8	17396,133
523,2	17201,676
523,7	17012,133
524,1	16822,133
524,6	16620,876
525	16442,933
525,5	16257,562
525,9	16079,99
526,4	15891,248
526,8	15715,105
527,3	15541,362
527,7	15383,733
528,2	15202,505
528,6	15023,19
529,1	14858,99
529,5	14702,676
530	14530,419
530,4	14368,733
530,9	14194,533
531,3	14040,79
531,8	13888,419
532,2	13719,705
532,6	13556,733
533,1	13405,276
533,5	13248,048
534	13100,19
534,4	12941,533
534,9	12791,562
535,3	12648,448
535,8	12505,59
536,2	12357,419
536,7	12221,505
537,1	12083,048
537,6	11955,505
538	11828,933
538,5	11698,619
538,9	11554,105
539,4	11427,905
539,8	11292,905
540,3	11166,562
540,7	11039,676
541,2	10904,676
541,6	10782,248
542,1	10673,105
542,5	10553,076
543	10438,505
543,4	10322,933
543,9	10208,762
544,3	10093,819
544,8	9978,933
545,2	9861,476
545,7	9753,448
546,1	9652,933
546,5	9540,505
547	9427,39
547,4	9327,105
547,9	9226,933
548,3	9131,248
548,8	9033,076
549,2	8927,79
549,7	8835,048
550,1	8752,476
550,6	8663,819
551	8572,276
551,5	8490,276
551,9	8405,819
552,4	8323,133
552,8	8248,848
553,3	8153,848
553,7	8063,562
554,2	7985,19
554,6	7894,305
555,1	7810,19
555,5	7731,448
555,9	7648,819
556,4	7575,99
556,8	7507,219
557,3	7436,305
557,7	7370,733
558,2	7296,533
558,6	7230,962
559,1	7152,848
559,5	7079,905
560	7003,048
560,4	6929,933
560,9	6857,333
561,3	6792,933
561,8	6720,362
562,2	6661,39
562,7	6604,505
563,1	6545,933
563,6	6487,562
564	6431,99
564,4	6373,219
564,9	6316,905
565,3	6255,733
565,8	6197,476
566,2	6145,133
566,7	6092,133
567,1	6031,962
567,6	5974,876
568	5913,99
568,5	5865,505
568,9	5807,59
569,4	5751,59
569,8	5690,076
570,3	5639,305
570,7	5583,19
571,1	5539,333
571,6	5485,19
572	5441,733
572,5	5394,362
572,9	5344,133
573,4	5296,505
573,8	5257,048
574,3	5209,019
574,7	5170,562
575,2	5115,133
575,6	5069,905
576,1	5030,448
576,5	4990,562
576,9	4941,276
577,4	4894,933
577,8	4843,99
578,3	4806,99
578,7	4763,419
579,2	4721,79
579,6	4677,562
580,1	4639,819
580,5	4608,648
581	4572,448
581,4	4534,676
581,9	4494,362
582,3	4458,59
582,7	4421,333
583,2	4382,876
583,6	4342,019
584,1	4308,905
584,5	4274,276
585	4236,676
585,4	4196,533
585,9	4160,448
586,3	4132,133
586,8	4099,076
587,2	4059,133
587,6	4030,162
588,1	4000,848
588,5	3973,333
589	3938,133
589,4	3900,162
589,9	3863,248
590,3	3836,562
590,8	3803,476
591,2	3778,505
591,7	3747,848
592,1	3724,019
592,5	3707,048
593	3684,048
593,4	3654,733
593,9	3630,505
594,3	3597,676
594,8	3571,905
595,2	3545,819
595,7	3517,876
596,1	3492,219
596,6	3469,076
597	3439,219
597,4	3421,448
597,9	3396,248
598,3	3373,876
598,8	3347,819
599,2	3323,933
599,7	3303,676
600,1	3283,59
600,6	3255,876
601	3234,219
601,4	3218,048
601,9	3197,533
602,3	3171,876
602,8	3144,419
603,2	3122,105
603,7	3103,133
604,1	3083,99
604,6	3054,99
605	3023,162
605,4	3007,819
605,9	2985,248
606,3	2962,305
606,8	2939,133
607,2	2911,39
607,7	2890,733
608,1	2879,562
608,6	2863,59
609	2846,476
609,4	2826,705
609,9	2806,476
610,3	2793,648
610,8	2771,076
611,2	2751,076
611,7	2728,19
612,1	2711,419
612,6	2693,019
613	2677,59
613,4	2657,048
613,9	2634,333
614,3	2611,619
614,8	2594,476
615,2	2576,533
615,7	2562,876
616,1	2545,162
616,6	2522,933
617	2510,133
617,4	2497,19
617,9	2479,133
618,3	2459,476
618,8	2443,39
619,2	2421,533
619,7	2416,39
620,1	2402,59
620,5	2386,362
621	2362,162
621,4	2346,648
621,9	2330,962
622,3	2318,705
622,8	2295,276
623,2	2281,105
623,6	2262,819
624,1	2254,99
624,5	2236,79
625	2218,505
625,4	2201,076
625,9	2185,219
626,3	2162,676
626,8	2144,676
627,2	2129,362
627,6	2107,048
628,1	2087,762
628,5	2076,962
629	2057,533
629,4	2047,076
629,9	2037,219
630,3	2018,162
630,7	2009,39
631,2	1994,533
631,6	1977,048
632,1	1966,39
632,5	1950,505
633	1931,933
633,4	1914,305
633,8	1903,762
634,3	1889,076
634,7	1876,99
635,2	1857,362
635,6	1843,333
636,1	1832,79
636,5	1817,505
636,9	1798,248
637,4	1788,276
637,8	1764,619
638,3	1754,219
638,7	1738,076
639,2	1721,848
639,6	1714,99
640	1703,733
640,5	1688,59
640,9	1676,248
641,4	1664,99
641,8	1657,162
642,2	1651,076
642,7	1643,733
643,1	1637,133
643,6	1621,733
644	1617,619
644,5	1613,19
644,9	1600,219
645,3	1578,905
645,8	1561,448
646,2	1549,962
646,7	1545,419
647,1	1538,562
647,6	1524,79
648	1524,133
648,4	1518,59
648,9	1517,076
649,3	1506,019
649,8	1496,733
650,2	1484,676
650,6	1477,305
651,1	1462,448
651,5	1458,476
652	1438,133
652,4	1426,733
652,9	1417,219
653,3	1406,562
653,7	1391,933
654,2	1379,19
654,6	1363,019
655,1	1359,848
655,5	1355,448
655,9	1347,048
656,4	1337,733
656,8	1330,733
657,3	1323,933
657,7	1321,505
658,2	1307,39
658,6	1294,933
659	1284,819
659,5	1273,505
659,9	1262,99
660,4	1253,733
660,8	1239,933
661,2	1235,276
661,7	1230,105
662,1	1216,133
662,6	1211,933
663	1204,962
663,4	1195,19
663,9	1184,619
664,3	1174,19
664,8	1159,419
665,2	1148,048
665,6	1137,048
666,1	1127,076
666,5	1117,419
667	1110,505
667,4	1099,648
667,9	1095,019
668,3	1092,876
668,7	1081,019
669,2	1075,962
669,6	1069,19
670,1	1059,619
670,5	1051,819
670,9	1040,305
671,4	1033,505
671,8	1029,048
672,3	1021,476
672,7	1015,19
673,1	1007,848
673,6	1003,79
674	1003,019
674,5	995,133
674,9	989,876
675,3	977,133
675,8	968,448
676,2	960,876
676,7	950,619
677,1	940,019
677,5	932,019
678	925,248
678,4	925,019
678,9	921,819
679,3	919,162
679,7	917,162
680,2	907,562
680,6	900,505
681,1	888,362
681,5	877,533
681,9	868,276
682,4	859,648
682,8	850,19
683,3	847,848
683,7	845,876
684,1	839,019
684,6	832,248
685	827,848
685,5	822,79
685,9	816,533
686,3	808,533
686,8	795,59
687,2	793,39
687,7	786,819
688,1	772,362
688,5	766,59
689	763,048
689,4	757,133
689,9	755,733
690,3	749,99
690,7	747,505
691,2	750,733
691,6	748,99
692	742,848
692,5	740,048
692,9	735,048
693,4	728,19
693,8	719,99
694,2	710,848
694,7	697,905
695,1	690,448
695,6	681,076
696	678,476
696,4	674,848
696,9	668,248
697,3	661,019
697,8	660,419
698,2	654,705
698,6	654,362
699,1	645,276
699,5	649,162
699,9	647,219
700,4	645,419
700,8	643,333
701,3	643,705
701,7	635,59
702,1	630,676
702,6	618,819
703	612,276
703,5	608,733
703,9	597,676
704,3	597,19
704,8	592,333
705,2	590,19
705,6	586,648
706,1	584,448
706,5	577,133
707	578,505
707,4	566,619
707,8	561,048
708,3	555,876
708,7	551,219
709,2	551,333
709,6	548,533
710	546,305
710,5	542,39
710,9	540,848
711,3	537,505
711,8	534,076
712,2	528,876
712,7	526,419
713,1	522,876
713,5	519,933
714	516,905
714,4	510,39
714,8	508,505
715,3	499,476
715,7	496,219
716,2	483,448
716,6	483,133
717	477,219
717,5	473,533
717,9	473,133
718,3	471,876
718,8	464,19
719,2	467,533
719,7	459,99
720,1	461,533
720,5	462,19
721	450,562
721,4	446,105
721,8	449,848
722,3	444,819
722,7	445,476
723,2	436,076
723,6	426,219
724	424,619
724,5	420,733
724,9	411,333
725,3	401,362
725,8	395,133
726,2	395,162
726,7	395,39
727,1	392,048
727,5	391,162
728	389,448
728,4	392,876
728,8	390,219
729,3	381,048
729,7	376,19
730,1	374,79
730,6	372,676
731	369,133
731,5	365,733
731,9	360,762
732,3	365,933
732,8	366,305
733,2	363,362
733,6	358,962
734,1	356,39
734,5	354,133
734,9	354,39
735,4	348,733
735,8	343,133
736,3	344,362
736,7	344,019
737,1	346,362
737,6	345,648
738	337,39
738,4	338,79
738,9	339,333
739,3	334,305
739,7	334,276
740,2	328,533
740,6	331,133
741,1	338,476
741,5	330,39
741,9	331,019
742,4	330,562
742,8	325,019
743,2	324,476
743,7	315,79
744,1	310,362
744,5	309,99
745	304,39
745,4	296,99
745,8	295,876
746,3	296,99
746,7	294,648
747,2	290,619
747,6	291,362
748	291,79
748,5	292,962
748,9	291,819
749,3	286,533
749,8	289,219
750,2	287,59
750,6	278,305
751,1	275,419
751,5	277,076
751,9	273,19
752,4	275,733
752,8	271,876
753,3	268,362
753,7	273,933
754,1	272,076
754,6	265,905
755	260,419
755,4	253,762
755,9	249,676
756,3	249,733
756,7	247,848
757,2	250,419
757,6	247,876
758	252,048
758,5	251,933
758,9	252,019
759,3	252,819
759,8	252,248
760,2	249,248
760,6	249,248
761,1	245,59
761,5	239,876
761,9	234,905
762,4	234,562
762,8	232,476
763,3	231,39
763,7	233,162
764,1	232,133
764,6	236,419
765	240,133
765,4	237,933
765,9	235,648
766,3	232,648
766,7	227,076
767,2	224,019
767,6	219,876
768	218,505
768,5	216,762
768,9	215,248
769,3	212,248
769,8	211,048
770,2	213,362
770,6	211,076
771,1	208,533
771,5	204,819
771,9	203,79
772,4	207,276
772,8	207,305
773,2	206,305
773,7	204,505
774,1	202,762
774,5	198,905
775	196,59
775,4	191,448
775,8	187,762
776,3	187,562
776,7	187,505
777,1	182,105
777,6	184,505
778	190,59
778,4	187,362
778,9	191,048
779,3	185,276
779,7	186,59
780,2	191,905
780,6	190,733
781	180,219
781,5	174,733
781,9	173,076
782,3	169,676
782,8	167,876
783,2	161,19
783,6	162,762
784,1	165,162
784,5	169,219
784,9	165,733
785,4	168,762
785,8	168,133
786,2	170,848
786,7	171,305
787,1	169,733
787,5	170,476
788	168,133
788,4	168,705
788,8	169,019
789,3	164,362
789,7	161,705
790,1	162,305
790,6	159,962
791	156,733
791,4	158,133
791,9	153,79
792,3	153,876
792,7	153,59
793,2	146,019
793,6	147,962
794	150,562
794,5	145,076
794,9	145,905
795,3	148,59
795,8	143,648
796,2	148,448
796,6	145,162
797,1	143,648
797,5	143,333
797,9	136,905
798,4	133,362
798,8	132,505
799,2	129,276
799,7	130,419
800,1	125,648
800,5	124,419
801	130,248
801,4	124,333
801,8	121,905
802,2	123,533
802,7	121,076
803,1	125,362
803,5	125,162
804	117,648
804,4	123,476
804,8	125,448
805,3	126,933
805,7	125,305
806,1	125,248
806,6	125,219
807	127,676
807,4	122,619
807,9	115,876
808,3	113,162
808,7	113,076
809,2	111,305
809,6	113,905
810	116,39
810,4	118,79
810,9	122,933
811,3	122,448
811,7	119,876
812,2	122,333
812,6	116,076
813	115,248
813,5	114,219
813,9	112,476
814,3	108,676
814,8	110,819
815,2	107,648
815,6	107,762
816,1	106,419
816,5	106,133
816,9	105,105
817,3	104,476
817,8	103,333
818,2	101,248
818,6	98,362
819,1	93,276
819,5	89,962
819,9	90,419
820,4	91,448
820,8	89,305
821,2	88,848
821,7	93,133
822,1	94,562
822,5	100,105
822,9	98,819
823,4	97,476
823,8	98,762
824,2	96,448
824,7	91,59
825,1	87,933
825,5	80,019
826	78,533
826,4	80,59
826,8	75,276
827,3	77,048
827,7	74,276
828,1	78,333
828,5	79,448
829	74,276
829,4	71,419
829,8	71,962
830,3	70,99
830,7	72,362
831,1	69,905
831,6	68,19
832	73,448
832,4	72,333
832,8	72,162
833,3	68,733
833,7	66,133
834,1	65,019
834,6	68,99
835	67,048
835,4	67,533
835,8	66,733
836,3	69,705
836,7	72,048
837,1	73,162
837,6	75,848
838	75,819
838,4	75,848
838,9	76,162
839,3	73,048
839,7	73,019
840,1	68,619
840,6	60,133
841	62,476
841,4	60,933
841,9	59,248
842,3	59,59
842,7	60,048
843,1	58,39
843,6	62,533
844	61,476
844,4	63,362
844,9	69,39
845,3	71,562
845,7	67,533
846,2	68,219
846,6	61,848
847	63,476
847,4	61,19
847,9	55,99
848,3	52,419
848,7	54,733
849,2	58,419
849,6	59,248
850	59,505
850,4	56,419
850,9	54,333
851,3	54,048
851,7	54,762
852,2	50,219
852,6	54,648
853	51,648
853,4	55,162
853,9	52,048
854,3	53,305
854,7	55,676
855,2	56,219
855,6	54,419
856	50,676
856,4	45,705
856,9	45,505
857,3	46,933
857,7	47,162
858,2	52,39
858,6	48,533
859	50,676
859,4	52,762
859,9	55,705
860,3	50,962
860,7	43,848
861,1	41,133
861,6	41,248
862	39,248
862,4	37,448
862,9	37,99
863,3	38,133
863,7	43,819
864,1	41,79
864,6	39,419
865	39,362
865,4	39,876
865,9	44,819
866,3	40,819
866,7	33,505
867,1	30,19
867,6	35,219
868	34,676
868,4	32,59
868,8	27,905
869,3	32,39
869,7	38,419
870,1	36,619
870,6	34,619
871	-12,81
871,4	-8,524
871,8	-13,238
872,3	-13,581
872,7	-17,695
873,1	-12,495
873,5	-12,324
874	34,133
874,4	32,133
874,8	31,19
875,3	32,162
875,7	30,305
876,1	32,648
876,5	29,019
877	27,048
877,4	23,133
877,8	26,505
878,2	28,419
878,7	31,533
879,1	26,419
879,5	30,276
879,9	33,99
880,4	39,219
880,8	38,99
881,2	33,305
881,7	30,162
882,1	32,648
882,5	31,048
882,9	28,39
883,4	22,276
883,8	25,848
884,2	25,876
884,6	27,619
885,1	31,619
885,5	32,048
885,9	31,048
886,3	33,39
886,8	29,876
887,2	29,333
887,6	29,305
888	21,048
888,5	22,19
888,9	24,848
889,3	24,762
889,8	24,99
890,2	24,876
890,6	17,733
891	22,333
891,5	18,905
891,9	18,276
892,3	18,048
892,7	16,448
893,2	17,762
893,6	24,676
894	20,905
894,4	20,305
894,9	20,105
895,3	17,79
895,7	18,619
896,1	14,448
896,6	15,39
897	19,733
897,4	25,076
897,8	27,505
898,3	28,962
898,7	24,276
899,1	29,705
899,5	25,648
900	19,219
900,4	12,676
900,8	6,59
901,2	4,362
901,7	9,076
902,1	7,562
902,5	9,676
902,9	9,819
903,4	12,448
903,8	16,248
904,2	13,133
904,6	10,59
905,1	10,248
905,5	9,162
905,9	11,219
906,3	13,305
906,8	13,848
907,2	18,248
907,6	16,505
908	15,105
908,5	11,733
908,9	8,962
909,3	6,362
909,7	3,305
910,2	3,705
910,6	10,476
911	9,019
911,4	12,133
911,9	11,362
912,3	10,133
912,7	16,762
913,1	16,105
913,6	7,505
914	8,476
914,4	7,476
914,8	11,305
915,3	13,019
915,7	7,076
916,1	9,648
916,5	15,019
916,9	18,476
917,4	21,048
917,8	22,762
918,2	17,333
918,6	12,876
919,1	9,362
919,5	11,419
919,9	10,876
920,3	7,79
920,8	2,305
921,2	8,019
921,6	15,819
922	19,19
922,5	17,419
922,9	14,133
923,3	12,562
923,7	17,876
924,2	14,419
924,6	11,562
925	9,562
925,4	3,762
925,8	6,905
926,3	7,733
926,7	4,933
927,1	4,562
927,5	3,162
928	3,648
928,4	6,79
928,8	6,276
929,2	3,305
929,7	3,333
930,1	5,133
930,5	5,133
930,9	6,962
931,3	8,19
931,8	6,219
932,2	10,476
932,6	8,219
933	5,876
933,5	5,762
933,9	2,248
934,3	4,79
934,7	7,619
935,2	7,733
935,6	9,79
936	14,848
936,4	16,133
936,8	17,933
937,3	13,59
937,7	11,39
938,1	12,905
938,5	6,105
939	2,676
939,4	2,676
939,8	0,848
940,2	-0,61
940,6	1,276
941,1	-1,695
941,5	13,448
941,9	11,476
942,3	11,219
942,8	15,133
943,2	16,59
943,6	10,933
944	11,733
944,4	3,105
944,9	1,476
945,3	0,59
945,7	-3,952
946,1	-5,01
946,6	-2,21
947	-1,438
947,4	1,619
947,8	5,162
948,2	4,648
948,7	10,162
949,1	11,019
949,5	14,276
949,9	13,476
950,3	11,648
950,8	12,905
951,2	11,219
951,6	4,39
952	7,762
952,5	0,59
952,9	2,048
953,3	1,162
953,7	-1,581
954,1	2,505
954,6	6,619
955	4,362
955,4	7,99
955,8	8,39
956,2	10,333
956,7	13,848
957,1	6,933
957,5	6,333
957,9	6,905
958,3	5,476
958,8	6,419
959,2	4,162
959,6	8,762
960	12,476
960,5	14,305
960,9	15,905
961,3	13,962
961,7	10,305
962,1	11,105
962,6	5,476
963	5,648
963,4	-1,781
963,8	-4,867
964,2	0,962
964,7	2,905
965,1	7,133
965,5	4,933
965,9	6,733
966,3	11,048
966,8	11,105
967,2	9,362
967,6	6,219
968	-0,638
968,4	0,419
968,9	1,362
969,3	4,962
969,7	5,276
970,1	3,619
970,5	4,19
971	9,533
971,4	10,362
971,8	9,819
972,2	5,619
972,6	3,133
973,1	3,676
973,5	7,219
973,9	5,705
974,3	7,076
974,7	10,848
975,2	13,476
975,6	12,362
976	13,905
976,4	6,99
976,8	3,876
977,3	-1,181
977,7	-7,124
978,1	-9,21
978,5	-8,724
978,9	-12,867
979,4	-10,038
979,8	-10,695
980,2	-5,61
980,6	-7,724
981	-5,124
981,5	0,876
981,9	4,933
982,3	3,619
982,7	2,962
983,1	-1,467
983,6	2,39
984	2,305
984,4	-2,752
984,8	-4,181
985,2	-3,552
985,6	-0,295
986,1	2,59
986,5	2,819
986,9	-4,981
987,3	-0,552
987,7	-2,952
988,2	-0,267
988,6	-3,095
989	-5,01
989,4	-7,352
989,8	-2,638
990,3	-7,324
990,7	-8,21
991,1	-8,038
991,5	-3,838
991,9	-2,667
992,3	1,048
992,8	1,905
993,2	1,505
993,6	6,819
994	8,505
994,4	7,819
994,9	8,448
995,3	6,819
995,7	5,533
996,1	7,133
996,5	5,19
996,9	0,79
997,4	2,39
997,8	-3,381
998,2	-4,01
998,6	-12,638
999	-11,095
999,5	-14,152
999,9	-10,724
1000,3	-13,667
1000,7	-6,638
1001,1	-6,581
1001,5	3,105
1002	2,819
1002,4	7,276
1002,8	5,962
1003,2	9,476
1003,6	12,019
1004	12,248
1004,5	8,505
1004,9	11,676
1005,3	5,39
1005,7	6,79
1006,1	1,362
1006,6	-6,01
1007	-6,867
1007,4	-3,124
1007,8	-5,181
1008,2	-3,41
1008,6	-3,267
1009,1	-3,067
1009,5	-0,438
1009,9	2,676
1010,3	1,876
1010,7	2,876
1011,1	4,076
1011,6	1,933
1012	7,533
1012,4	4,019
1012,8	-0,41
1013,2	7,362
1013,6	3,762
1014,1	5,019
1014,5	6,819
1014,9	0,848
1015,3	5,676
1015,7	8,59
1016,1	-0,238
1016,6	2,676
1017	2,676
1017,4	3,019
1017,8	6,648
1018,2	7,905
1018,6	5,99
1019,1	9,162
1019,5	8,305
1019,9	7,505
1020,3	7,733
1020,7	8,848
1021,1	4,19
1021,6	6,133
1022	6,59
1022,4	3,076
1022,8	4,819
1023,2	4,419
1023,6	4,676
1024,1	10,762
1024,5	8,933
1024,9	7,19
1025,3	9,276
1025,7	6,648
1026,1	4,876
1026,6	2,476
1027	-3,038
1027,4	0,248
1027,8	-0,61
1028,2	0,019
1028,6	5,619
1029	6,876
1029,5	11,419
1029,9	13,105
1030,3	10,162
1030,7	9,276
1031,1	10,676
1031,5	4,133
1032	3,276
1032,4	2,962
1032,8	5,133
1033,2	5,676
1033,6	5,562
1034	2,362
1034,4	2,362
1034,9	4,248
1035,3	-2,152
1035,7	-1,838
1036,1	-5,381
1036,5	-3,638
1036,9	-2,781
1037,4	4,848
1037,8	-1,752
1038,2	-1,352
1038,6	-4,667
1039	0,248
1039,4	5,076
1039,8	2,79
1040,3	-0,01
1040,7	3,705
1041,1	7,79
1041,5	6,705
1041,9	3,905
1042,3	0,19
1042,7	5,533
1043,2	4,162
1043,6	4,562
1044	-0,952
1044,4	-1,752
1044,8	2,619
1045,2	-0,181
1045,6	-0,352
1046,1	-1,181
1046,5	-1,41
1046,9	0,705
1047,3	4,476
1047,7	0,105
1048,1	-1,124
1048,5	0,619
1049	1,676
1049,4	6,905
1049,8	8,133
1050,2	7,762
1050,6	10,448
1051	14,276
1051,4	11,419
1051,9	6,076
1052,3	9,648
1052,7	7,79
1053,1	3,048
1053,5	-1,41
1053,9	-1,838
1054,3	-2,724
1054,8	5,733
1055,2	0,448
1055,6	2,876
1056	5,105
1056,4	7,962
1056,8	6,705
1057,2	5,99
1057,6	2,59
1058,1	0,133
1058,5	-4,81
1058,9	-4,752
1059,3	-1,695
1059,7	-0,895
1060,1	-1,867
1060,5	-1,324
1061	1,105
1061,4	5,305
1061,8	9,733
1062,2	4,905
1062,6	6,79
1063	9,79
1063,4	7,962
1063,8	4,219
1064,3	1,705
1064,7	-2,324
1065,1	-4,524
1065,5	-13,438
1065,9	-14,524
1066,3	-13,867
1066,7	-16,181
1067,1	-18,381
1067,6	-14,895
1068	-15,181
1068,4	-6,695
1068,8	-8,638
1069,2	-7,295
1069,6	-5,124
1070	1,019
1070,4	1,448
1070,9	4,59
1071,3	0,133
1071,7	-1,752
1072,1	0,476
1072,5	-0,581
1072,9	-2,41
1073,3	-3,438
1073,7	-6,124
1074,2	-3,438
1074,6	0,933
1075	-5,381
1075,4	-3,61
1075,8	-3,467
1076,2	-4,267
1076,6	2,39
1077	2,648
1077,5	5,59
1077,9	8,962
1078,3	7,933
1078,7	9,105
1079,1	10,162
1079,5	7,019
1079,9	9,133
1080,3	6,876
1080,7	6,048
1081,2	13,362
1081,6	11,105
1082	9,562
1082,4	15,333
1082,8	14,305
1083,2	15,79
1083,6	20,962
1084	14,305
1084,5	14,876
1084,9	12,476
1085,3	3,019
1085,7	3,448
1086,1	5,219
1086,5	0,59
1086,9	4,048
1087,3	1,79
1087,7	6,305
1088,2	9,99
1088,6	10,562
1089	8,19
1089,4	7,762
1089,8	6,933
1090,2	8,562
1090,6	9,133
1091	12,419
1091,4	12,276
1091,9	9,105
1092,3	10,99
1092,7	9,848
1093,1	13,19
1093,5	9,533
1093,9	4,219
1094,3	9,59
1094,7	7,076
1095,1	4,505
1095,5	3,248
1096	-0,724
1096,4	1,305
1096,8	3,105
1097,2	-2,838
1097,6	4,819
1098	6,533
1098,4	9,39
1098,8	10,105
1099,2	12,333
1099,6	11,048
1100,1	9,819
1100,5	3,248
1100,9	1,79
1101,3	0,933
1101,7	1,933
1102,1	-1,352
1102,5	2,019
1102,9	3,362
1103,3	9,448
1103,7	12,19
1104,2	11,933
1104,6	10,733
1105	8,733
1105,4	7,476
1105,8	5,533
1106,2	1,762
1106,6	-0,01
1107	-1,238
1107,4	-1,233
1107,8	1,173
1108,3	-0,317
