Data from Subt2_017.txt Node
Date: Sat Aug 26 16:15:34 MSK 2023
User: vat
Spectrometer: MAYP114033
Trigger mode: 0
Integration Time (sec): 1,000000E0
Scans to average: 5
Electric dark correction enabled: true
Nonlinearity correction enabled: false
Boxcar width: 3
XAxis mode: Wavelengths
Number of Pixels in Spectrum: 2068
>>>>>Begin Spectral Data<<<<<
199,4	-1,217
199,9	1,733
200,4	-0,467
200,8	0,162
201,3	-0,81
201,8	0,105
202,2	-0,81
202,7	0,819
203,2	0,39
203,6	3,448
204,1	6,19
204,6	5,848
205	7,762
205,5	12,19
206	12,648
206,4	10,676
206,9	10,305
207,4	9,419
207,8	14,048
208,3	11,162
208,8	10,505
209,2	9,819
209,7	11,276
210,2	10,762
210,6	5,962
211,1	5,133
211,5	4,019
212	1,79
212,5	1,648
212,9	4,619
213,4	1,933
213,9	3,39
214,3	-2,781
214,8	-1,038
215,3	0,79
215,7	5,419
216,2	2,733
216,7	7,19
217,1	7,819
217,6	11,476
218,1	13,619
218,5	5,476
219	-3,181
219,5	-0,41
219,9	-0,695
220,4	2,533
220,9	-0,352
221,3	-0,467
221,8	6,333
222,3	10,448
222,7	7,248
223,2	6,59
223,6	6,19
224,1	11,219
224,6	5,476
225	8,99
225,5	8,419
226	7,933
226,4	8,705
226,9	13,505
227,4	14,476
227,8	16,733
228,3	16,105
228,8	14,99
229,2	15,59
229,7	10,162
230,2	4,762
230,6	2,133
231,1	5,848
231,5	4,59
232	6,19
232,5	6,79
232,9	10,848
233,4	14,476
233,9	13,676
234,3	7,505
234,8	5,733
235,3	11,39
235,7	9,076
236,2	8,333
236,7	-0,467
237,1	1,533
237,6	6,562
238,1	5,076
238,5	0,848
239	6,533
239,4	10,362
239,9	10,219
240,4	9,933
240,8	10,505
241,3	11,848
241,8	12,733
242,2	6,762
242,7	11,076
243,2	16,248
243,6	14,848
244,1	12,876
244,6	9,733
245	6,99
245,5	6,819
245,9	1,533
246,4	3,19
246,9	4,848
247,3	7,676
247,8	13,248
248,3	9,419
248,7	13,619
249,2	9,533
249,7	7,933
250,1	8,619
250,6	4,762
251	1,19
251,5	6,962
252	8,619
252,4	11,562
252,9	7,99
253,4	9,305
253,8	10,619
254,3	15,619
254,8	14,448
255,2	12,276
255,7	6,448
256,1	9,905
256,6	5,733
257,1	8,79
257,5	1,933
258	3,19
258,5	-0,438
258,9	5,048
259,4	-0,581
259,9	1,762
260,3	-1,181
260,8	3,19
261,2	-3,981
261,7	-3,552
262,2	-4,952
262,6	-5,238
263,1	-7,01
263,6	-6,61
264	-6,638
264,5	0,362
264,9	-0,324
265,4	-0,438
265,9	5,39
266,3	6,99
266,8	1,676
267,3	-3,295
267,7	-6,124
268,2	-3,581
268,7	-3,467
269,1	-3,352
269,6	-7,352
270	-4,181
270,5	-1,724
271	-3,438
271,4	-4,695
271,9	-0,01
272,4	-1,381
272,8	3,076
273,3	5,762
273,7	9,133
274,2	10,362
274,7	10,562
275,1	10,019
275,6	7,219
276,1	8,505
276,5	6,705
277	2,733
277,4	3,876
277,9	4,39
278,4	1,562
278,8	5,962
279,3	3,705
279,8	6,162
280,2	6,448
280,7	8,39
281,1	5,533
281,6	0,162
282,1	0,505
282,5	-1,438
283	2,705
283,4	-0,524
283,9	-4,838
284,4	-2,581
284,8	2,533
285,3	0,162
285,8	-0,181
286,2	-7,038
286,7	-5,41
287,1	-1,467
287,6	-3,438
288,1	-3,41
288,5	-6,467
289	-4,01
289,5	-3,038
289,9	-3,124
290,4	-7,152
290,8	-3,924
291,3	-5,638
291,8	-1,467
292,2	-0,895
292,7	1,448
293,1	3,648
293,6	5,762
294,1	8,048
294,5	9,705
295	10,105
295,5	9,162
295,9	6,419
296,4	8,133
296,8	12,562
297,3	9,705
297,8	5,562
298,2	3,019
298,7	4,762
299,1	5,476
299,6	3,305
300,1	2,219
300,5	3,105
301	8,533
301,5	9,905
301,9	9,276
302,4	6,933
302,8	10,59
303,3	5,648
303,8	3,733
304,2	5,676
304,7	8,705
305,1	4,79
305,6	4,933
306,1	-3,981
306,5	-4,381
307	-7,952
307,4	-14,438
307,9	-11,981
308,4	-12,895
308,8	-4,581
309,3	0,933
309,8	5,876
310,2	9,59
310,7	13,133
311,1	7,933
311,6	11,876
312,1	6,876
312,5	6,933
313	4,476
313,4	9,276
313,9	5,819
314,4	8,333
314,8	10,162
315,3	11,419
315,7	12,59
316,2	13,533
316,7	4,819
317,1	8,933
317,6	6,562
318	4,133
318,5	0,419
319	2,819
319,4	-1,81
319,9	-2,21
320,3	-2,381
320,8	-3,381
321,3	-0,867
321,7	1,048
322,2	-2,495
322,6	2,305
323,1	9,048
323,6	10,505
324	13,705
324,5	15,39
324,9	14,419
325,4	14,876
325,9	11,019
326,3	10,533
326,8	8,362
327,2	4,79
327,7	-2,038
328,2	-3,781
328,6	-2,352
329,1	-1,552
329,5	-5,181
330	-4,638
330,5	-4,181
330,9	-2,867
331,4	-3,238
331,8	-2,638
332,3	-1,152
332,8	0,99
333,2	-2,524
333,7	3,162
334,1	2,219
334,6	4,448
335,1	4,648
335,5	6,476
336	8,076
336,4	14,19
336,9	9,79
337,4	14,162
337,8	16,705
338,3	13,819
338,7	15,476
339,2	13,305
339,7	9,076
340,1	14,762
340,6	13,99
341	15,848
341,5	16,819
342	20,476
342,4	28,048
342,9	34,419
343,3	29,533
343,8	30,133
344,2	28,076
344,7	30,619
345,2	29,39
345,6	24,333
346,1	18,619
346,5	20,419
347	20,819
347,5	22,933
347,9	28,162
348,4	25,019
348,8	26,676
349,3	30,219
349,8	31,962
350,2	37,276
350,7	44,848
351,1	47,848
351,6	59,419
352	71,648
352,5	89,962
353	110,476
353,4	131,505
353,9	151,905
354,3	188,562
354,8	227,048
355,3	269,333
355,7	319,448
356,2	382,419
356,6	452,962
357,1	539,819
357,5	631,219
358	737,248
358,5	865,048
358,9	1008,59
359,4	1169,476
359,8	1352,848
360,3	1556,79
360,8	1785,19
361,2	2038,59
361,7	2322,505
362,1	2631,476
362,6	2965,39
363	3327,819
363,5	3716,876
364	4120,162
364,4	4533,076
364,9	4949,819
365,3	5357,819
365,8	5745,848
366,3	6112,276
366,7	6439,219
367,2	6718,99
367,6	6958,476
368,1	7139,305
368,5	7264,248
369	7332,333
369,5	7339,876
369,9	7275,248
370,4	7165,19
370,8	7006,448
371,3	6794,962
371,7	6548,076
372,2	6277,048
372,7	5980,419
373,1	5670,79
373,6	5350,362
374	5017,79
374,5	4693,105
374,9	4367,962
375,4	4053,933
375,9	3750,048
376,3	3462,219
376,8	3189,362
377,2	2933,019
377,7	2693,476
378,2	2472,362
378,6	2261,533
379,1	2064,019
379,5	1885,933
380	1724,305
380,4	1578,905
380,9	1440,905
381,4	1323,39
381,8	1211,905
382,3	1119,733
382,7	1042,248
383,2	965,333
383,6	899,248
384,1	837,276
384,6	774,39
385	721,876
385,5	669,59
385,9	614,676
386,4	571,848
386,8	526,048
387,3	489,219
387,7	456,99
388,2	425,819
388,7	394,648
389,1	368,39
389,6	342,305
390	314,79
390,5	294,076
390,9	266,876
391,4	248,59
391,9	230,705
392,3	214,248
392,8	202,848
393,2	191,39
393,7	173,533
394,1	169,419
394,6	154,762
395,1	145,248
395,5	139,419
396	128,333
396,4	122,819
396,9	121,362
397,3	113,39
397,8	113,219
398,2	104,848
398,7	98,705
399,2	92,533
399,6	85,448
400,1	78,162
400,5	74,305
401	64,505
401,4	62,59
401,9	61,59
402,4	58,619
402,8	59,219
403,3	63,362
403,7	64,79
404,2	69,648
404,6	67,162
405,1	60,533
405,5	63,562
406	61,762
406,5	60,562
406,9	62,733
407,4	61,419
407,8	70,448
408,3	74,219
408,7	79,19
409,2	90,848
409,6	96,79
410,1	99,99
410,6	107,048
411	111,219
411,5	122,305
411,9	125,048
412,4	129,619
412,8	134,419
413,3	139,19
413,7	143,19
414,2	151,162
414,7	151,905
415,1	156,219
415,6	161,276
416	167,676
416,5	179,533
416,9	189,048
417,4	191,733
417,8	200,876
418,3	218,333
418,8	228,933
419,2	242,733
419,7	249,876
420,1	263,219
420,6	281,676
421	299,048
421,5	307,59
421,9	317,705
422,4	327,076
422,8	341,419
423,3	357,333
423,8	370,048
424,2	385,39
424,7	406,362
425,1	427,819
425,6	444,562
426	464,362
426,5	484,676
426,9	505,933
427,4	532,219
427,9	550,105
428,3	575,619
428,8	610,048
429,2	642,362
429,7	670,562
430,1	704,19
430,6	735,705
431	772,99
431,5	808,676
431,9	843,619
432,4	884,733
432,8	928,876
433,3	967,362
433,8	1015,476
434,2	1061,562
434,7	1109,876
435,1	1162,648
435,6	1206,933
436	1260,133
436,5	1324,848
436,9	1378,619
437,4	1441,533
437,8	1509,305
438,3	1575,59
438,8	1650,876
439,2	1720,019
439,7	1796,676
440,1	1877,819
440,6	1961,505
441	2040,905
441,5	2128,59
441,9	2216,162
442,4	2313,248
442,8	2403,705
443,3	2504,076
443,7	2603,305
444,2	2707,905
444,7	2814,105
445,1	2931,876
445,6	3050,105
446	3161,476
446,5	3279,562
446,9	3406,505
447,4	3540,676
447,8	3669,248
448,3	3790,505
448,7	3929,99
449,2	4075,819
449,6	4221,105
450,1	4361,133
450,6	4505,905
451	4656,819
451,5	4820,876
451,9	4977,533
452,4	5139,39
452,8	5302,705
453,3	5467,962
453,7	5637,562
454,2	5812,333
454,6	5986,133
455,1	6151,962
455,5	6327,105
456	6506,248
456,4	6688,505
456,9	6872,505
457,3	7063,19
457,8	7254,676
458,3	7446,333
458,7	7641,99
459,2	7841,133
459,6	8037,333
460,1	8235,162
460,5	8436,448
461	8635,305
461,4	8846,819
461,9	9052,676
462,3	9250,562
462,8	9460,048
463,2	9666,362
463,7	9872,105
464,1	10073,619
464,6	10274,819
465	10473,962
465,5	10678,276
466	10884,562
466,4	11083,533
466,9	11280,048
467,3	11488,562
467,8	11697,59
468,2	11906,076
468,7	12123,19
469,1	12329,305
469,6	12532,705
470	12732,79
470,5	12920,562
470,9	13107,276
471,4	13297,876
471,8	13482,676
472,3	13656,762
472,7	13851,019
473,2	14031,105
473,6	14220,39
474,1	14391,533
474,5	14553,705
475	14711,933
475,4	14889,19
475,9	15036,619
476,4	15200,505
476,8	15341,533
477,3	15493,733
477,7	15651,048
478,2	15772,276
478,6	15909,39
479,1	16045,876
479,5	16163,219
480	16291,676
480,4	16400,248
480,9	16500,733
481,3	16630,819
481,8	16726,648
482,2	16815,248
482,7	16904,705
483,1	16974,848
483,6	17058,505
484	17134,076
484,5	17197,533
484,9	17250,448
485,4	17314,59
485,8	17360,448
486,3	17411,048
486,7	17450,676
487,2	17490,19
487,6	17513,648
488,1	17548,99
488,5	17563,762
489	17584,276
489,4	17608,676
489,9	17613,305
490,4	17607,048
490,8	17609,562
491,3	17588,105
491,7	17565,048
492,2	17546,219
492,6	17516,733
493,1	17475,648
493,5	17424,648
494	17372,362
494,4	17318,362
494,9	17269,448
495,3	17208,219
495,8	17141,962
496,2	17095,819
496,7	17042,676
497,1	16970,676
497,6	16915,019
498	16842,505
498,5	16773,619
498,9	16694,505
499,4	16603,99
499,8	16519,362
500,3	16439,676
500,7	16356,762
501,2	16269,162
501,6	16175,333
502,1	16083,648
502,5	15991,962
503	15903,99
503,4	15810,019
503,9	15708,076
504,3	15608,362
504,8	15500,79
505,2	15388,59
505,7	15277,333
506,1	15159,819
506,6	15042,076
507	14916,019
507,5	14797,19
507,9	14679,933
508,4	14561,648
508,8	14433,048
509,3	14312,962
509,7	14197,676
510,2	14077,048
510,6	13954,933
511,1	13828,562
511,5	13698,819
512	13577,733
512,4	13455,505
512,9	13318,505
513,3	13185,79
513,8	13041,648
514,2	12920,676
514,7	12802,019
515,1	12689,962
515,6	12560,79
516	12427,362
516,5	12302,533
516,9	12190,819
517,4	12057,619
517,8	11925,276
518,3	11785,133
518,7	11644,79
519,2	11534,076
519,6	11411,505
520,1	11286,505
520,5	11155,962
521	11032,105
521,4	10913,248
521,9	10803,162
522,3	10678,676
522,8	10559,962
523,2	10436,876
523,7	10328,619
524,1	10208,019
524,6	10083,962
525	9962,248
525,5	9848,362
525,9	9734,419
526,4	9614,59
526,8	9515,248
527,3	9409,133
527,7	9312,905
528,2	9216,876
528,6	9116,276
529,1	9009,99
529,5	8925,905
530	8821,762
530,4	8736,362
530,9	8632,305
531,3	8533,79
531,8	8436,19
532,2	8357,219
532,6	8268,505
533,1	8166,505
533,5	8073,819
534	7990,305
534,4	7904,819
534,9	7821,362
535,3	7726,59
535,8	7636,533
536,2	7560,276
536,7	7475,962
537,1	7395,505
537,6	7318,219
538	7238,505
538,5	7160,619
538,9	7082,162
539,4	6998,876
539,8	6921,619
540,3	6850,933
540,7	6770,619
541,2	6698,533
541,6	6631,019
542,1	6563,39
542,5	6499,476
543	6429,562
543,4	6355,048
543,9	6294,848
544,3	6232,219
544,8	6165,133
545,2	6098,562
545,7	6039,19
546,1	5981,048
546,5	5924,133
547	5860,933
547,4	5801,962
547,9	5745,79
548,3	5689,733
548,8	5622,676
549,2	5574,019
549,7	5523,019
550,1	5475,448
550,6	5421,248
551	5370,419
551,5	5323,076
551,9	5284,076
552,4	5228,105
552,8	5182,419
553,3	5131,705
553,7	5090,419
554,2	5038,019
554,6	4988,905
555,1	4941,619
555,5	4902,648
555,9	4857,276
556,4	4817,962
556,8	4772,133
557,3	4736,133
557,7	4702,333
558,2	4663,59
558,6	4618,19
559,1	4579,905
559,5	4550,962
560	4513,562
560,4	4479,962
560,9	4442,419
561,3	4404,676
561,8	4375,848
562,2	4340,305
562,7	4293,39
563,1	4265,39
563,6	4236,533
564	4208,476
564,4	4175,362
564,9	4140,676
565,3	4111,962
565,8	4088,105
566,2	4056,962
566,7	4014,505
567,1	3975,79
567,6	3948,076
568	3918,105
568,5	3887,676
568,9	3852,762
569,4	3819,105
569,8	3791,076
570,3	3759,59
570,7	3736,219
571,1	3713,79
571,6	3684,819
572	3652,676
572,5	3621,819
572,9	3597,733
573,4	3571,762
573,8	3546,248
574,3	3517,133
574,7	3491,333
575,2	3467,276
575,6	3447,562
576,1	3426,848
576,5	3402,733
576,9	3374,933
577,4	3350,619
577,8	3330,133
578,3	3315,162
578,7	3292,533
579,2	3268,819
579,6	3250,962
580,1	3232,19
580,5	3210,076
581	3187,705
581,4	3166,59
581,9	3144,162
582,3	3119,79
582,7	3094,99
583,2	3069,419
583,6	3044,248
584,1	3018,619
584,5	2993,562
585	2970,162
585,4	2956,19
585,9	2937,476
586,3	2920,305
586,8	2906,59
587,2	2891,79
587,6	2875,562
588,1	2861,533
588,5	2834,305
589	2810,048
589,4	2794,248
589,9	2779,505
590,3	2762,19
590,8	2737,19
591,2	2716,705
591,7	2703,876
592,1	2691,39
592,5	2669,59
593	2649,305
593,4	2629,676
593,9	2622,79
594,3	2609,562
594,8	2594,248
595,2	2586,362
595,7	2575,276
596,1	2559,076
596,6	2547,448
597	2531,39
597,4	2515,19
597,9	2503,905
598,3	2487,933
598,8	2476,619
599,2	2465,99
599,7	2455,99
600,1	2439,448
600,6	2423,533
601	2406,019
601,4	2393,962
601,9	2378,305
602,3	2365,705
602,8	2353,962
603,2	2346,648
603,7	2340,133
604,1	2329,276
604,6	2310,533
605	2295,905
605,4	2283,248
605,9	2266,105
606,3	2251,419
606,8	2230,133
607,2	2220,333
607,7	2207,733
608,1	2195,448
608,6	2186,905
609	2174,562
609,4	2156,248
609,9	2153,876
610,3	2143,619
610,8	2139,762
611,2	2127,962
611,7	2108,905
612,1	2100,076
612,6	2091,419
613	2073,876
613,4	2059,905
613,9	2045,333
614,3	2032,59
614,8	2025,876
615,2	2011,562
615,7	2000,162
616,1	1990,762
616,6	1976,762
617	1963,648
617,4	1949,133
617,9	1939,105
618,3	1922,305
618,8	1911,133
619,2	1901,533
619,7	1890,762
620,1	1880,505
620,5	1871,676
621	1854,99
621,4	1847,933
621,9	1841,562
622,3	1825,076
622,8	1810,562
623,2	1797,619
623,6	1787,876
624,1	1773,933
624,5	1762,276
625	1748,39
625,4	1739,533
625,9	1728,505
626,3	1717,505
626,8	1708,705
627,2	1704,676
627,6	1690,362
628,1	1676,819
628,5	1670,79
629	1663,448
629,4	1653,019
629,9	1639,79
630,3	1626,905
630,7	1618,59
631,2	1604,933
631,6	1586,59
632,1	1576,933
632,5	1563,648
633	1557,048
633,4	1549,505
633,8	1540,933
634,3	1527,248
634,7	1519,733
635,2	1508,333
635,6	1500,248
636,1	1485,048
636,5	1469,133
636,9	1456,962
637,4	1451,59
637,8	1439,619
638,3	1428,048
638,7	1414,933
639,2	1402,733
639,6	1391,533
640	1385,048
640,5	1379,276
640,9	1373,276
641,4	1363,448
641,8	1361,905
642,2	1355,99
642,7	1356,162
643,1	1348,848
643,6	1341,362
644	1331,305
644,5	1325,962
644,9	1316,905
645,3	1313,819
645,8	1302,276
646,2	1289,876
646,7	1280,876
647,1	1277,59
647,6	1269,819
648	1259,762
648,4	1249,362
648,9	1246,59
649,3	1240,248
649,8	1234,905
650,2	1228,733
650,6	1222,819
651,1	1217,762
651,5	1205,162
652	1192,105
652,4	1185,419
652,9	1175,333
653,3	1164,476
653,7	1156,876
654,2	1143,848
654,6	1138,905
655,1	1128,276
655,5	1123,019
655,9	1110,448
656,4	1101,248
656,8	1095,619
657,3	1091,79
657,7	1084,876
658,2	1079,676
658,6	1076,533
659	1074,848
659,5	1065,305
659,9	1058,19
660,4	1047,59
660,8	1040,505
661,2	1031,905
661,7	1017,533
662,1	1010,79
662,6	1009,933
663	1000,19
663,4	997,39
663,9	990,819
664,3	987,59
664,8	984,962
665,2	975,59
665,6	971,933
666,1	964,505
666,5	960,648
667	953,562
667,4	943,705
667,9	931,19
668,3	929,648
668,7	920,905
669,2	914,59
669,6	901,505
670,1	898,333
670,5	890,419
670,9	885,448
671,4	877,333
671,8	867,19
672,3	860,048
672,7	857,648
673,1	848,733
673,6	845,562
674	839,933
674,5	832,476
674,9	828,448
675,3	820,448
675,8	815,933
676,2	811,133
676,7	808,019
677,1	798,79
677,5	792,99
678	787,276
678,4	788,476
678,9	783,048
679,3	777,876
679,7	768,819
680,2	766,733
680,6	761,505
681,1	753,762
681,5	745,162
681,9	741,648
682,4	731,505
682,8	727,076
683,3	724,019
683,7	721,019
684,1	713,076
684,6	705,19
685	696,362
685,5	695,876
685,9	690,505
686,3	685,362
686,8	676,876
687,2	675,733
687,7	668,333
688,1	666,219
688,5	657,448
689	649,733
689,4	646,248
689,9	644,79
690,3	638,505
690,7	641,419
691,2	632,419
691,6	630,619
692	630,733
692,5	624,248
692,9	616,705
693,4	615,99
693,8	603,076
694,2	598,505
694,7	598,848
695,1	589,048
695,6	588,819
696	585,79
696,4	580,333
696,9	584,305
697,3	576,79
697,8	570,162
698,2	565,905
698,6	563,933
699,1	558,619
699,5	552,705
699,9	546,476
700,4	546,762
700,8	543,705
701,3	541,048
701,7	530,733
702,1	527,648
702,6	524,048
703	515,59
703,5	510,562
703,9	501,39
704,3	500,105
704,8	494,19
705,2	492,248
705,6	489,876
706,1	489,076
706,5	487,162
707	488,448
707,4	485,048
707,8	482,876
708,3	477,048
708,7	476,648
709,2	471,476
709,6	468,619
710	463,133
710,5	459,448
710,9	455,962
711,3	451,733
711,8	450,162
712,2	452,962
712,7	450,133
713,1	448,305
713,5	444,59
714	446,676
714,4	445,476
714,8	437,876
715,3	434,019
715,7	422,848
716,2	419,162
716,6	417,962
717	408,162
717,5	404,619
717,9	402,448
718,3	393,99
718,8	397,905
719,2	389,448
719,7	387,305
720,1	385,648
720,5	381,762
721	377,476
721,4	378,848
721,8	375,848
722,3	375,59
722,7	368,99
723,2	362,819
723,6	359,676
724	353,676
724,5	348,505
724,9	346,505
725,3	343,819
725,8	340,705
726,2	338,962
726,7	339,162
727,1	337,876
727,5	332,648
728	327,448
728,4	322,39
728,8	316,962
729,3	315,819
729,7	308,105
730,1	305,79
730,6	305,362
731	302,419
731,5	308,733
731,9	310,562
732,3	310,819
732,8	312,162
733,2	310,848
733,6	310,848
734,1	309,905
734,5	304,305
734,9	304,276
735,4	296,419
735,8	293,533
736,3	291,133
736,7	289,848
737,1	291,562
737,6	289,362
738	286,19
738,4	291,962
738,9	295,39
739,3	293,448
739,7	296,676
740,2	294,019
740,6	292,79
741,1	288,276
741,5	283,076
741,9	275,333
742,4	276,562
742,8	268,19
743,2	263,133
743,7	261,619
744,1	264,076
744,5	263,505
745	264,219
745,4	258,733
745,8	259,276
746,3	257,048
746,7	255,733
747,2	246,562
747,6	248,648
748	243,305
748,5	241,419
748,9	235,39
749,3	237,933
749,8	237,962
750,2	242,99
750,6	239,076
751,1	238,876
751,5	243,905
751,9	239,762
752,4	236,219
752,8	227,419
753,3	226,19
753,7	222,876
754,1	221,019
754,6	215,99
755	218,59
755,4	214,448
755,9	221,19
756,3	217,476
756,7	214,705
757,2	213,133
757,6	211,762
758	209,79
758,5	217,076
758,9	209,79
759,3	213,819
759,8	212,476
760,2	212,133
760,6	211,076
761,1	206,505
761,5	203,733
761,9	204,219
762,4	199,619
762,8	201,619
763,3	202,333
763,7	190,933
764,1	193,505
764,6	184,419
765	183,933
765,4	179,848
765,9	172,933
766,3	171,705
766,7	177,162
767,2	176,076
767,6	180,79
768	178,448
768,5	179,876
768,9	178,933
769,3	179,705
769,8	178,962
770,2	177,276
770,6	170,219
771,1	165,705
771,5	164,076
771,9	169,419
772,4	165,476
772,8	161,248
773,2	164,19
773,7	164,676
774,1	164,448
774,5	161,419
775	158,105
775,4	160,219
775,8	163,762
776,3	163,162
776,7	162,762
777,1	162,99
777,6	166,19
778	164,276
778,4	156,305
778,9	158,705
779,3	152,105
779,7	154,076
780,2	159,076
780,6	156,505
781	152,162
781,5	152,162
781,9	149,933
782,3	150,133
782,8	149,219
783,2	146,505
783,6	148,39
784,1	145,819
784,5	144,476
784,9	138,362
785,4	136,019
785,8	135,076
786,2	134,39
786,7	126,448
787,1	129,505
787,5	131,619
788	134,105
788,4	133,419
788,8	129,962
789,3	124,819
789,7	132,19
790,1	130,133
790,6	128,448
791	127,905
791,4	125,962
791,9	127,705
792,3	126,333
792,7	123,048
793,2	122,59
793,6	124,419
794	123,362
794,5	127,419
794,9	124,733
795,3	125,476
795,8	124,448
796,2	124,333
796,6	121,162
797,1	123,048
797,5	121,333
797,9	119,619
798,4	120,762
798,8	122,019
799,2	120,905
799,7	122,076
800,1	120,219
800,5	120,133
801	118,819
801,4	116,076
801,8	113,076
802,2	117,133
802,7	117,962
803,1	114,448
803,5	112,133
804	114,876
804,4	111,648
804,8	111,448
805,3	109,676
805,7	104,933
806,1	107,162
806,6	104,505
807	101,448
807,4	105,276
807,9	99,876
808,3	92,133
808,7	86,419
809,2	84,905
809,6	82,762
810	82,305
810,4	78,248
810,9	78,905
811,3	82,362
811,7	86,905
812,2	85,819
812,6	85,162
813	86,162
813,5	86,419
813,9	89,619
814,3	87,276
814,8	88,019
815,2	86,99
815,6	90,648
816,1	86,048
816,5	87,819
816,9	83,019
817,3	85,619
817,8	86,59
818,2	84,905
818,6	81,476
819,1	86,048
819,5	82,933
819,9	83,819
820,4	83,733
820,8	82,505
821,2	79,39
821,7	83,133
822,1	84,762
822,5	85,648
822,9	85,305
823,4	79,448
823,8	79,19
824,2	80,905
824,7	76,733
825,1	71,905
825,5	70,19
826	66,962
826,4	72,562
826,8	63,962
827,3	64,333
827,7	64,476
828,1	61,619
828,5	59,819
829	60,79
829,4	59,305
829,8	63,505
830,3	61,019
830,7	61,276
831,1	62,59
831,6	65,019
832	62,79
832,4	59,933
832,8	62,019
833,3	61,705
833,7	62,79
834,1	63,248
834,6	58,733
835	61,333
835,4	69,276
835,8	66,133
836,3	66,133
836,7	61,99
837,1	59,048
837,6	57,676
838	56,505
838,4	45,933
838,9	45,219
839,3	48,705
839,7	51,105
840,1	51,905
840,6	55,848
841	54,39
841,4	56,448
841,9	59,905
842,3	60,162
842,7	60,59
843,1	64,219
843,6	65,076
844	69,562
844,4	65,305
844,9	67,105
845,3	65,048
845,7	65,219
846,2	57,533
846,6	56,048
847	51,305
847,4	51,933
847,9	48,305
848,3	44,219
848,7	43,333
849,2	48,333
849,6	49,876
850	49,99
850,4	54,019
850,9	51,333
851,3	51,476
851,7	51,762
852,2	45,905
852,6	44,162
853	43,962
853,4	39,219
853,9	44,39
854,3	45,276
854,7	37,905
855,2	39,905
855,6	36,619
856	37,79
856,4	38,105
856,9	34,305
857,3	33,219
857,7	38,19
858,2	36,162
858,6	34,962
859	35,333
859,4	33,19
859,9	32,505
860,3	33,962
860,7	33,505
861,1	36,905
861,6	39,019
862	34,419
862,4	36,819
862,9	36,333
863,3	33,533
863,7	33,162
864,1	30,705
864,6	32,705
865	35,648
865,4	36,505
865,9	35,562
866,3	35,962
866,7	34,933
867,1	37,39
867,6	31,39
868	25,676
868,4	25,362
868,8	27,019
869,3	34,305
869,7	33,648
870,1	31,648
870,6	34,762
871	-12,952
871,4	-10,695
871,8	-11,924
872,3	-23,61
872,7	-27,21
873,1	-32,438
873,5	-30,267
874	23,448
874,4	20,79
874,8	18,39
875,3	22,419
875,7	24,905
876,1	30,648
876,5	32,533
877	31,333
877,4	32,619
877,8	35,676
878,2	31,648
878,7	35,705
879,1	31,676
879,5	28,448
879,9	24,362
880,4	23,448
880,8	22,99
881,2	27,219
881,7	23,362
882,1	30,162
882,5	26,99
882,9	30,562
883,4	28,619
883,8	28,105
884,2	28,019
884,6	29,105
885,1	21,648
885,5	25,733
885,9	25,876
886,3	21,648
886,8	18,133
887,2	17,99
887,6	16,019
888	20,819
888,5	16,305
888,9	12,105
889,3	15,533
889,8	18,276
890,2	17,533
890,6	17,533
891	16,305
891,5	18,048
891,9	19,219
892,3	19,105
892,7	19,59
893,2	20,162
893,6	18,905
894	15,619
894,4	15,305
894,9	12,933
895,3	14,619
895,7	11,619
896,1	9,19
896,6	9,648
897	10,562
897,4	5,448
897,8	11,476
898,3	12,19
898,7	12,905
899,1	12,819
899,5	10,848
900	15,476
900,4	21,133
900,8	24,019
901,2	23,419
901,7	26,105
902,1	28,933
902,5	29,648
902,9	26,962
903,4	24,962
903,8	18,219
904,2	14,933
904,6	11,133
905,1	8,248
905,5	13,105
905,9	11,533
906,3	8,562
906,8	5,505
907,2	5,076
907,6	6,79
908	7,305
908,5	5,733
908,9	6,962
909,3	9,562
909,7	12,705
910,2	17,562
910,6	17,59
911	18,962
911,4	15,133
911,9	12,59
912,3	15,933
912,7	16,505
913,1	12,705
913,6	13,419
914	14,962
914,4	18,19
914,8	18,448
915,3	20,448
915,7	16,619
916,1	17,79
916,5	15,048
916,9	16,476
917,4	18,648
917,8	20,133
918,2	11,019
918,6	13,905
919,1	11,676
919,5	14,019
919,9	13,505
920,3	11,248
920,8	8,676
921,2	11,076
921,6	11,933
922	16,076
922,5	14,019
922,9	11,276
923,3	11,99
923,7	12,819
924,2	13,676
924,6	13,876
925	16,333
925,4	19,99
925,8	15,419
926,3	10,39
926,7	12,99
927,1	13,933
927,5	12,59
928	10,648
928,4	10,133
928,8	11,79
929,2	16,962
929,7	16,79
930,1	16,848
930,5	18,19
930,9	17,39
931,3	12,705
931,8	11,876
932,2	11,648
932,6	9,533
933	9,019
933,5	7,533
933,9	2,962
934,3	6,505
934,7	9,219
935,2	2,505
935,6	0,419
936	2,848
936,4	1,076
936,8	0,39
937,3	1,819
937,7	-1,181
938,1	3,305
938,5	5,419
939	4,562
939,4	9,933
939,8	16,076
940,2	14,819
940,6	20,19
941,1	18,162
941,5	19,933
941,9	16,933
942,3	16,333
942,8	11,59
943,2	11,819
943,6	9,876
944	9,933
944,4	5,19
944,9	8,848
945,3	4,848
945,7	10,133
946,1	3,619
946,6	2,99
947	3,305
947,4	7,962
947,8	2,562
948,2	4,876
948,7	-2,21
949,1	2,476
949,5	2,19
949,9	4,048
950,3	-0,895
950,8	-0,581
951,2	-1,981
951,6	4,39
952	4,762
952,5	3,705
952,9	2,705
953,3	3,219
953,7	5,362
954,1	6,362
954,6	2,99
955	1,99
955,4	4,79
955,8	-0,095
956,2	3,505
956,7	6,19
957,1	5,905
957,5	4,276
957,9	1,99
958,3	0,676
958,8	2,962
959,2	1,962
959,6	-1,752
960	5,19
960,5	2,933
960,9	7,105
961,3	10,448
961,7	11,133
962,1	10,333
962,6	11,676
963	5,419
963,4	11,39
963,8	9,733
964,2	4,733
964,7	4,876
965,1	3,905
965,5	3,219
965,9	0,705
966,3	-3,095
966,8	-0,61
967,2	2,619
967,6	3,133
968	5,705
968,4	6,59
968,9	6,105
969,3	6,676
969,7	5,59
970,1	3,39
970,5	8,362
971	4,019
971,4	4,048
971,8	2,99
972,2	4,733
972,6	1,59
973,1	0,476
973,5	-1,952
973,9	2,99
974,3	3,962
974,7	7,133
975,2	6,99
975,6	9,962
976	10,619
976,4	7,333
976,8	7,362
977,3	6,19
977,7	4,705
978,1	6,105
978,5	6,133
978,9	4,448
979,4	3,505
979,8	-2,924
980,2	-2,181
980,6	-3,867
981	-6,438
981,5	-12,495
981,9	-11,781
982,3	-6,152
982,7	-3,667
983,1	-4,467
983,6	-4,352
984	-11,552
984,4	-6,438
984,8	-2,295
985,2	-7,724
985,6	-9,495
986,1	-10,724
986,5	-6,552
986,9	-1,752
987,3	0,476
987,7	-2,924
988,2	-0,467
988,6	5,933
989	7,99
989,4	3,505
989,8	5,505
990,3	1,248
990,7	2,162
991,1	1,448
991,5	4,219
991,9	3,362
992,3	5,705
992,8	3,876
993,2	6,533
993,6	5,048
994	8,276
994,4	2,076
994,9	3,562
995,3	7,419
995,7	7,933
996,1	7,762
996,5	8,79
996,9	3,248
997,4	3,733
997,8	4,39
998,2	-2,267
998,6	-2,752
999	-9,41
999,5	-6,524
999,9	-0,324
1000,3	-1,981
1000,7	-8,01
1001,1	-4,867
1001,5	-5,752
1002	-3,495
1002,4	-7,095
1002,8	-14,067
1003,2	-10,295
1003,6	-0,895
1004	-0,095
1004,5	1,105
1004,9	5,962
1005,3	2,505
1005,7	5,39
1006,1	4,99
1006,6	0,505
1007	-2,467
1007,4	4,162
1007,8	1,933
1008,2	6,876
1008,6	7,533
1009,1	7,676
1009,5	7,562
1009,9	12,362
1010,3	3,59
1010,7	7,362
1011,1	3,876
1011,6	6,99
1012	8,533
1012,4	7,705
1012,8	5,533
1013,2	3,362
1013,6	3,248
1014,1	5,19
1014,5	3,676
1014,9	1,476
1015,3	2,762
1015,7	0,39
1016,1	10,19
1016,6	7,676
1017	8,905
1017,4	6,219
1017,8	7,876
1018,2	2,419
1018,6	5,99
1019,1	0,648
1019,5	1,419
1019,9	0,39
1020,3	-1,895
1020,7	-7,181
1021,1	-5,781
1021,6	-6,21
1022	-5,924
1022,4	-9,895
1022,8	-13,867
1023,2	-5,867
1023,6	-3,038
1024,1	-0,752
1024,5	-2,152
1024,9	-1,267
1025,3	-0,381
1025,7	-0,952
1026,1	-5,638
1026,6	-8,152
1027	-10,21
1027,4	-15,181
1027,8	-10,581
1028,2	-3,952
1028,6	3,048
1029	3,876
1029,5	4,305
1029,9	3,19
1030,3	8,048
1030,7	3,276
1031,1	-0,495
1031,5	-2,41
1032	-2,61
1032,4	0,19
1032,8	1,39
1033,2	1,048
1033,6	2,333
1034	1,762
1034,4	2,933
1034,9	2,133
1035,3	1,448
1035,7	3,105
1036,1	3,419
1036,5	2,305
1036,9	4,19
1037,4	5,533
1037,8	7,162
1038,2	11,876
1038,6	11,619
1039	9,562
1039,4	11,19
1039,8	9,105
1040,3	8,39
1040,7	8,905
1041,1	3,476
1041,5	5,876
1041,9	11,848
1042,3	12,762
1042,7	11,162
1043,2	11,19
1043,6	5,619
1044	8,133
1044,4	11,162
1044,8	5,19
1045,2	4,762
1045,6	6,076
1046,1	5,448
1046,5	12,476
1046,9	11,162
1047,3	4,105
1047,7	6,762
1048,1	4,276
1048,5	2,79
1049	2,105
1049,4	-3,067
1049,8	-6,324
1050,2	-4,438
1050,6	-6,524
1051	-1,152
1051,4	0,076
1051,9	-3,952
1052,3	1,819
1052,7	6,848
1053,1	9,648
1053,5	11,276
1053,9	9,219
1054,3	9,419
1054,8	17,448
1055,2	16,048
1055,6	10,876
1056	6,648
1056,4	10,676
1056,8	8,59
1057,2	8,276
1057,6	-1,752
1058,1	-5,895
1058,5	-3,124
1058,9	-1,981
1059,3	-2,867
1059,7	-1,552
1060,1	5,619
1060,5	15,305
1061	19,733
1061,4	21,819
1061,8	25,305
1062,2	22,619
1062,6	18,048
1063	9,019
1063,4	8,419
1063,8	2,79
1064,3	3,905
1064,7	4,848
1065,1	2,362
1065,5	5,676
1065,9	6,819
1066,3	3,619
1066,7	6,448
1067,1	-0,152
1067,6	-0,238
1068	2,648
1068,4	4,562
1068,8	4,962
1069,2	3,476
1069,6	5,276
1070	9,248
1070,4	6,562
1070,9	1,019
1071,3	0,219
1071,7	5,133
1072,1	8,248
1072,5	8,076
1072,9	10,248
1073,3	5,419
1073,7	6,248
1074,2	7,905
1074,6	-1,438
1075	0,19
1075,4	0,933
1075,8	-0,324
1076,2	5,019
1076,6	10,59
1077	8,019
1077,5	17,39
1077,9	10,933
1078,3	10,248
1078,7	10,162
1079,1	8,362
1079,5	9,276
1079,9	7,59
1080,3	1,848
1080,7	2,733
1081,2	0,39
1081,6	0,419
1082	-1,924
1082,4	-6,581
1082,8	-4,324
1083,2	-2,781
1083,6	-4,952
1084	-0,781
1084,5	-0,81
1084,9	0,048
1085,3	-2,581
1085,7	-4,781
1086,1	0,248
1086,5	-0,267
1086,9	2,533
1087,3	0,533
1087,7	1,076
1088,2	7,448
1088,6	9,105
1089	4,933
1089,4	9,019
1089,8	1,79
1090,2	-0,581
1090,6	2,162
1091	-0,724
1091,4	-4,438
1091,9	-5,324
1092,3	-0,667
1092,7	1,99
1093,1	10,962
1093,5	9,419
1093,9	11,076
1094,3	13,505
1094,7	13,448
1095,1	9,705
1095,5	9,333
1096	4,819
1096,4	7,476
1096,8	7,162
1097,2	6,79
1097,6	6,248
1098	6,448
1098,4	6,333
1098,8	2,59
1099,2	-2,552
1099,6	-3,981
1100,1	-3,267
1100,5	-1,152
1100,9	-2,524
1101,3	-4,667
1101,7	-1,552
1102,1	3,39
1102,5	4,39
1102,9	6,79
1103,3	2,305
1103,7	7,562
1104,2	9,019
1104,6	9,476
1105	8,59
1105,4	5,619
1105,8	3,333
1106,2	6,448
1106,6	1,533
1107	1,505
1107,4	-0,167
1107,8	-3,347
1108,3	0,533
