Data from Subt2_066.txt Node
Date: Sat Aug 26 16:34:04 MSK 2023
User: vat
Spectrometer: MAYP114033
Trigger mode: 0
Integration Time (sec): 1,000000E0
Scans to average: 5
Electric dark correction enabled: true
Nonlinearity correction enabled: false
Boxcar width: 3
XAxis mode: Wavelengths
Number of Pixels in Spectrum: 2068
>>>>>Begin Spectral Data<<<<<
199,4	-0,617
199,9	-1,427
200,4	-3,067
200,8	-3,924
201,3	-2,495
201,8	-0,067
202,2	0,105
202,7	2,99
203,2	4,333
203,6	6,99
204,1	9,362
204,6	10,848
205	10,333
205,5	10,476
206	7,676
206,4	8,876
206,9	6,562
207,4	8,019
207,8	2,876
208,3	0,962
208,8	0,476
209,2	4,076
209,7	2,048
210,2	7,619
210,6	3,162
211,1	6,762
211,5	5,733
212	2,962
212,5	-4,495
212,9	-2,638
213,4	-3,352
213,9	-1,695
214,3	0,076
214,8	4,676
215,3	7,676
215,7	11,305
216,2	9,362
216,7	3,019
217,1	3,105
217,6	1,219
218,1	-0,124
218,5	1,676
219	4,59
219,5	6,076
219,9	9,39
220,4	8,362
220,9	8,19
221,3	6,105
221,8	3,219
222,3	4,105
222,7	1,79
223,2	2,59
223,6	2,848
224,1	-0,01
224,6	1,79
225	-0,438
225,5	2,99
226	2,99
226,4	5,79
226,9	8,419
227,4	11,733
227,8	13,048
228,3	17,676
228,8	11,933
229,2	14,39
229,7	4,333
230,2	4,476
230,6	3,933
231,1	4,305
231,5	7,448
232	9,276
232,5	11,762
232,9	18,248
233,4	17,39
233,9	15,59
234,3	12,99
234,8	13,676
235,3	13,333
235,7	13,876
236,2	9,648
236,7	6,162
237,1	10,162
237,6	10,162
238,1	5,676
238,5	5,905
239	1,048
239,4	5,933
239,9	9,79
240,4	5,19
240,8	5,219
241,3	0,876
241,8	-0,495
242,2	-3,21
242,7	-1,238
243,2	-1,295
243,6	2,333
244,1	1,933
244,6	2,133
245	3,333
245,5	6,733
245,9	1,448
246,4	4,19
246,9	0,248
247,3	0,79
247,8	2,59
248,3	0,962
248,7	4,048
249,2	6,248
249,7	3,648
250,1	8,362
250,6	8,962
251	9,533
251,5	6,905
252	7,476
252,4	9,419
252,9	8,733
253,4	6,933
253,8	3,105
254,3	5,362
254,8	8,219
255,2	4,219
255,7	5,162
256,1	2,105
256,6	0,562
257,1	3,933
257,5	6,248
258	7,019
258,5	5,619
258,9	3,619
259,4	7,79
259,9	12,39
260,3	7,876
260,8	9,619
261,2	14,219
261,7	19,333
262,2	19,962
262,6	19,59
263,1	12,105
263,6	18,762
264	11,819
264,5	8,905
264,9	3,562
265,4	3,419
265,9	2,219
266,3	7,848
266,8	6,419
267,3	10,848
267,7	9,076
268,2	8,505
268,7	6,99
269,1	6,848
269,6	5,133
270	3,333
270,5	3,333
271	2,219
271,4	4,019
271,9	5,676
272,4	3,59
272,8	2,333
273,3	0,819
273,7	-0,61
274,2	-0,124
274,7	-0,495
275,1	-0,667
275,6	1,048
276,1	3,619
276,5	7,019
277	10,533
277,4	12,048
277,9	12,448
278,4	15,562
278,8	20,162
279,3	17,276
279,8	20,99
280,2	16,19
280,7	13,562
281,1	17,648
281,6	15,905
282,1	15,219
282,5	18,648
283	13,076
283,4	10,448
283,9	7,648
284,4	5,848
284,8	6,276
285,3	0,962
285,8	-2,552
286,2	-3,438
286,7	-2,41
287,1	-0,41
287,6	5,048
288,1	2,505
288,5	6,99
289	9,39
289,5	7,733
289,9	9,048
290,4	8,048
290,8	5,762
291,3	5,048
291,8	5,248
292,2	4,619
292,7	8,533
293,1	10,419
293,6	11,933
294,1	6,305
294,5	11,59
295	9,39
295,5	12,362
295,9	15,048
296,4	14,448
296,8	13,819
297,3	17,562
297,8	12,933
298,2	10,219
298,7	3,419
299,1	5,59
299,6	4,133
300,1	6,305
300,5	5,362
301	8,533
301,5	9,59
301,9	14,248
302,4	8,59
302,8	8,59
303,3	8,048
303,8	5,105
304,2	3,676
304,7	5,019
305,1	6,333
305,6	0,562
306,1	0,105
306,5	-2,01
307	0,305
307,4	-2,295
307,9	-1,867
308,4	-4,467
308,8	4,248
309,3	7,505
309,8	12,39
310,2	11,619
310,7	19,562
311,1	14,762
311,6	12,476
312,1	11,162
312,5	9,048
313	5,933
313,4	5,876
313,9	6,476
314,4	7,533
314,8	13,105
315,3	12,619
315,7	13,448
316,2	14,333
316,7	14,448
317,1	8,076
317,6	9,933
318	9,276
318,5	14,276
319	13,476
319,4	13,419
319,9	12,648
320,3	14,219
320,8	14,933
321,3	12,162
321,7	9,533
322,2	11,276
322,6	13,819
323,1	14,448
323,6	13,219
324	14,076
324,5	12,819
324,9	13,79
325,4	11,905
325,9	14,019
326,3	18,048
326,8	16,933
327,2	14,362
327,7	16,419
328,2	9,79
328,6	13,305
329,1	6,305
329,5	3,333
330	6,162
330,5	6,19
330,9	5,019
331,4	5,476
331,8	6,562
332,3	12,133
332,8	9,19
333,2	5,962
333,7	12,819
334,1	15,248
334,6	17,505
335,1	13,533
335,5	9,39
336	9,619
336,4	10,19
336,9	10,733
337,4	8,048
337,8	8,619
338,3	8,676
338,7	8,048
339,2	10,905
339,7	10,276
340,1	5,162
340,6	4,448
341	5,848
341,5	7,99
342	11,133
342,4	7,248
342,9	2,79
343,3	3,448
343,8	9,219
344,2	11,876
344,7	8,79
345,2	5,505
345,6	9,905
346,1	17,848
346,5	21,476
347	22,448
347,5	15,562
347,9	17,819
348,4	20,419
348,8	18,819
349,3	13,59
349,8	11,133
350,2	5,905
350,7	14,419
351,1	15,905
351,6	14,962
352	24,676
352,5	32,19
353	38,733
353,4	45,99
353,9	49,276
354,3	58,905
354,8	69,048
355,3	74,19
355,7	88,076
356,2	102,305
356,6	124,105
357,1	141,933
357,5	168,39
358	203,019
358,5	238,505
358,9	272,762
359,4	320,59
359,8	363,305
360,3	419,133
360,8	477,676
361,2	543,962
361,7	614,79
362,1	701,848
362,6	788,419
363	884,676
363,5	993,276
364	1093,59
364,4	1193,39
364,9	1300,819
365,3	1402,905
365,8	1498,019
366,3	1596,676
366,7	1675,133
367,2	1751,79
367,6	1820,076
368,1	1867,19
368,5	1900,105
369	1918,248
369,5	1916,305
369,9	1903,219
370,4	1874,276
370,8	1828,59
371,3	1781,79
371,7	1716,39
372,2	1648,848
372,7	1564,619
373,1	1484,162
373,6	1396,848
374	1307,962
374,5	1214,79
374,9	1126,162
375,4	1043,448
375,9	970,333
376,3	889,619
376,8	822,962
377,2	761,762
377,7	701,876
378,2	648,59
378,6	594,333
379,1	551,619
379,5	510,248
380	475,133
380,4	437,048
380,9	408,076
381,4	380,162
381,8	350,248
382,3	318,676
382,7	290,962
383,2	261,133
383,6	242,048
384,1	223,19
384,6	202,962
385	192,076
385,5	182,048
385,9	176,19
386,4	166,99
386,8	162,676
387,3	149,019
387,7	142,105
388,2	134,019
388,7	127,505
389,1	116,476
389,6	107,619
390	95,076
390,5	91,876
390,9	91,276
391,4	87,562
391,9	77,505
392,3	73,133
392,8	75,162
393,2	69,048
393,7	72,276
394,1	68,705
394,6	62,076
395,1	64,076
395,5	69,505
396	66,105
396,4	68,019
396,9	63,533
397,3	56,876
397,8	56,905
398,2	51,619
398,7	43,476
399,2	42,59
399,6	45,619
400,1	35,105
400,5	34,99
401	38,79
401,4	41,59
401,9	41,59
402,4	38,819
402,8	35,762
403,3	39,905
403,7	42,076
404,2	38,219
404,6	36,333
405,1	35,505
405,5	32,99
406	30,419
406,5	27,362
406,9	24,476
407,4	23,848
407,8	24,762
408,3	27,248
408,7	35,505
409,2	39,162
409,6	44,848
410,1	56,705
410,6	59,562
411	58,905
411,5	59,533
411,9	57,048
412,4	61,419
412,8	64,333
413,3	59,533
413,7	62,705
414,2	71,476
414,7	77,848
415,1	80,333
415,6	82,076
416	84,848
416,5	84,133
416,9	86,133
417,4	85,933
417,8	85,19
418,3	92,276
418,8	92,19
419,2	95,105
419,7	102,905
420,1	100,848
420,6	103,19
421	106,876
421,5	106,562
421,9	105,962
422,4	106,333
422,8	105,933
423,3	110,219
423,8	113,219
424,2	112,476
424,7	108,79
425,1	111,59
425,6	114,962
426	116,448
426,5	116,819
426,9	113,848
427,4	114,733
427,9	109,562
428,3	107,448
428,8	103,19
429,2	96,648
429,7	95,619
430,1	95,19
430,6	93,076
431	97,619
431,5	99,076
431,9	101,619
432,4	109,79
432,8	111,533
433,3	111,362
433,8	117,648
434,2	122,219
434,7	122,619
435,1	125,19
435,6	129,419
436	132,333
436,5	141,562
436,9	138,79
437,4	149,362
437,8	154,876
438,3	162,248
438,8	163,333
439,2	168,819
439,7	170,333
440,1	181,476
440,6	183,248
441	193,79
441,5	199,105
441,9	207,876
442,4	223,419
442,8	234,048
443,3	239,219
443,7	243,876
444,2	251,648
444,7	258,419
445,1	265,105
445,6	269,333
446	278,19
446,5	294,59
446,9	312,019
447,4	325,333
447,8	336,19
448,3	354,648
448,7	366,19
449,2	377,362
449,6	388,59
450,1	400,933
450,6	416,762
451	429,59
451,5	438,276
451,9	454,276
452,4	473,248
452,8	491,533
453,3	505,219
453,7	518,648
454,2	543,019
454,6	566,905
455,1	581,733
455,5	602,448
456	627,419
456,4	651,562
456,9	673,819
457,3	698,076
457,8	718,848
458,3	746,59
458,7	772,019
459,2	791,333
459,6	813,648
460,1	838,762
460,5	863,219
461	885,619
461,4	913,333
461,9	934,476
462,3	961,905
462,8	991,79
463,2	1024,048
463,7	1049,305
464,1	1083,048
464,6	1109,333
465	1138,305
465,5	1169,448
466	1203,819
466,4	1227,305
466,9	1260,133
467,3	1288,133
467,8	1326,39
468,2	1362,59
468,7	1399,19
469,1	1429,162
469,6	1466,562
470	1498,019
470,5	1535,419
470,9	1565,619
471,4	1601,733
471,8	1627,076
472,3	1653,048
472,7	1689,876
473,2	1719,39
473,6	1745,905
474,1	1771,533
474,5	1798,619
475	1834,533
475,4	1870,39
475,9	1905,076
476,4	1938,876
476,8	1969,933
477,3	2005,048
477,7	2040,019
478,2	2067,476
478,6	2103,99
479,1	2127,619
479,5	2163,819
480	2197,762
480,4	2232,848
480,9	2263,59
481,3	2290,505
481,8	2313,962
482,2	2340,619
482,7	2366,133
483,1	2394,219
483,6	2412,848
484	2430,733
484,5	2456,848
484,9	2481,819
485,4	2507,19
485,8	2522,562
486,3	2536,99
486,7	2561,819
487,2	2585,933
487,6	2607,133
488,1	2630,305
488,5	2646,962
489	2668,048
489,4	2688,705
489,9	2701,99
490,4	2719,419
490,8	2731,505
491,3	2743,905
491,7	2756,848
492,2	2774,819
492,6	2790,162
493,1	2800,248
493,5	2806,419
494	2824,619
494,4	2829,133
494,9	2846,476
495,3	2847,876
495,8	2857,505
496,2	2869,048
496,7	2875,819
497,1	2882,076
497,6	2892,019
498	2889,048
498,5	2892,648
498,9	2893,819
499,4	2901,019
499,8	2907,133
500,3	2907,562
500,7	2910,019
501,2	2914,333
501,6	2925,448
502,1	2934,848
502,5	2933,048
503	2940,762
503,4	2946,962
503,9	2951,79
504,3	2956,362
504,8	2958,59
505,2	2955,162
505,7	2961,019
506,1	2961,305
506,6	2960,762
507	2964,219
507,5	2965,905
507,9	2968,162
508,4	2974,162
508,8	2972,133
509,3	2972,819
509,7	2968,333
510,2	2962,99
510,6	2955,59
511,1	2955,448
511,5	2947,419
512	2950,019
512,4	2947,762
512,9	2952,905
513,3	2957,333
513,8	2963,276
514,2	2960,562
514,7	2961,676
515,1	2958,762
515,6	2954,876
516	2946,105
516,5	2945,562
516,9	2940,562
517,4	2937,333
517,8	2939,448
518,3	2938,333
518,7	2939,876
519,2	2946,705
519,6	2942,476
520,1	2941,419
520,5	2939,105
521	2935,819
521,4	2935,705
521,9	2936,333
522,3	2930,876
522,8	2931,133
523,2	2934,705
523,7	2936,59
524,1	2936,676
524,6	2928,648
525	2933,276
525,5	2935,333
525,9	2931,162
526,4	2933,419
526,8	2932,333
527,3	2932,905
527,7	2939,476
528,2	2926,305
528,6	2924,076
529,1	2927,905
529,5	2920,19
530	2920,162
530,4	2921,905
530,9	2919,876
531,3	2931,448
531,8	2936,133
532,2	2937,248
532,6	2939,105
533,1	2936,848
533,5	2936,39
534	2943,676
534,4	2940,905
534,9	2944,276
535,3	2946,733
535,8	2953,819
536,2	2961,248
536,7	2963,219
537,1	2958,305
537,6	2966,876
538	2964,619
538,5	2962,048
538,9	2966,933
539,4	2970,476
539,8	2973,019
540,3	2977,562
540,7	2971,019
541,2	2972,276
541,6	2978,019
542,1	2976,276
542,5	2974,533
543	2974,305
543,4	2976,219
543,9	2980,819
544,3	2985,276
544,8	2990,648
545,2	2989,648
545,7	2993,819
546,1	3001,076
546,5	3006,59
547	3011,333
547,4	3011,848
547,9	3012,562
548,3	3022,219
548,8	3024,59
549,2	3025,333
549,7	3031,59
550,1	3033,133
550,6	3043,819
551	3049,619
551,5	3050,19
551,9	3057,819
552,4	3063,848
552,8	3063,019
553,3	3066,305
553,7	3065,276
554,2	3067,59
554,6	3071,162
555,1	3076,619
555,5	3077,676
555,9	3080,248
556,4	3082,505
556,8	3084,419
557,3	3083,162
557,7	3082,505
558,2	3077,562
558,6	3084,505
559,1	3089,248
559,5	3096,648
560	3096,133
560,4	3101,533
560,9	3110,819
561,3	3116,762
561,8	3121,79
562,2	3122,848
562,7	3123,076
563,1	3126,076
563,6	3125,705
564	3128,962
564,4	3137,362
564,9	3133,476
565,3	3138,248
565,8	3141,419
566,2	3139,962
566,7	3145,219
567,1	3147,362
567,6	3141,876
568	3151,133
568,5	3145,248
568,9	3146,933
569,4	3158,333
569,8	3157,476
570,3	3155,819
570,7	3152,819
571,1	3146,933
571,6	3150,419
572	3151,162
572,5	3141,562
572,9	3142,99
573,4	3140,705
573,8	3144,99
574,3	3142,505
574,7	3142,848
575,2	3136,448
575,6	3139,733
576,1	3136,99
576,5	3135,648
576,9	3135,79
577,4	3135,705
577,8	3131,848
578,3	3127,076
578,7	3130,019
579,2	3134,476
579,6	3138,905
580,1	3135,476
580,5	3129,562
581	3128,448
581,4	3134,419
581,9	3124,79
582,3	3108,99
582,7	3098,305
583,2	3089,019
583,6	3081,619
584,1	3078,305
584,5	3072,39
585	3071,79
585,4	3072,762
585,9	3067,39
586,3	3063,305
586,8	3058,962
587,2	3049,219
587,6	3043,419
588,1	3036,962
588,5	3030,848
589	3021,333
589,4	3015,648
589,9	3014,505
590,3	3011,305
590,8	3008,019
591,2	3004,59
591,7	3003,905
592,1	3001,533
592,5	3005,676
593	3001,819
593,4	2999,19
593,9	2984,59
594,3	2977,505
594,8	2968,59
595,2	2971,705
595,7	2966,533
596,1	2961,705
596,6	2966,562
597	2967,505
597,4	2962,219
597,9	2958,333
598,3	2950,533
598,8	2939,219
599,2	2936,933
599,7	2917,305
600,1	2917,619
600,6	2917,476
601	2910,99
601,4	2903,419
601,9	2888,219
602,3	2884,105
602,8	2884,105
603,2	2873,105
603,7	2864,648
604,1	2864,162
604,6	2849,99
605	2857,076
605,4	2845,419
605,9	2836,962
606,3	2830,048
606,8	2820,305
607,2	2809,533
607,7	2806,933
608,1	2796,933
608,6	2788,162
609	2785,419
609,4	2778,676
609,9	2768,048
610,3	2756,448
610,8	2753,533
611,2	2743,219
611,7	2734,476
612,1	2724,219
612,6	2713,848
613	2712,962
613,4	2708,676
613,9	2694,733
614,3	2690,219
614,8	2677,676
615,2	2668,705
615,7	2668,733
616,1	2653,162
616,6	2641,762
617	2632,733
617,4	2623,333
617,9	2622,79
618,3	2612,105
618,8	2589,648
619,2	2583,99
619,7	2574,79
620,1	2565,333
620,5	2556,419
621	2540,048
621,4	2527,105
621,9	2519,105
622,3	2511,448
622,8	2499,448
623,2	2487,019
623,6	2471,048
624,1	2469,276
624,5	2460,876
625	2452,505
625,4	2437,762
625,9	2425,962
626,3	2418,705
626,8	2411,248
627,2	2395,676
627,6	2386,676
628,1	2375,848
628,5	2361,619
629	2358,333
629,4	2349,333
629,9	2334,705
630,3	2323,362
630,7	2312,219
631,2	2298,876
631,6	2293,905
632,1	2275,933
632,5	2265,076
633	2252,133
633,4	2243,305
633,8	2224,105
634,3	2211,39
634,7	2199,933
635,2	2194,419
635,6	2175,648
636,1	2175,076
636,5	2161,39
636,9	2155,733
637,4	2148,79
637,8	2132,419
638,3	2118,648
638,7	2122,105
639,2	2108,248
639,6	2097,105
640	2093,019
640,5	2084,362
640,9	2080,762
641,4	2071,305
641,8	2053,676
642,2	2044,676
642,7	2036,333
643,1	2025,99
643,6	2016,99
644	2008,505
644,5	2001,39
644,9	1993,076
645,3	1981,876
645,8	1977,305
646,2	1968,162
646,7	1954,362
647,1	1944,876
647,6	1932,59
648	1921,562
648,4	1913,305
648,9	1900,99
649,3	1896,79
649,8	1891,305
650,2	1879,933
650,6	1873,305
651,1	1870,59
651,5	1866,105
652	1855,219
652,4	1833,505
652,9	1824,39
653,3	1816,305
653,7	1804,362
654,2	1791,448
654,6	1772,962
655,1	1760,105
655,5	1756,676
655,9	1747,705
656,4	1737,962
656,8	1726,676
657,3	1712,162
657,7	1706,99
658,2	1703,19
658,6	1688,99
659	1678,676
659,5	1667,59
659,9	1663,19
660,4	1659,276
660,8	1655,219
661,2	1638,762
661,7	1635,105
662,1	1625,619
662,6	1617,133
663	1604,105
663,4	1593,448
663,9	1577,648
664,3	1572,533
664,8	1563,848
665,2	1555,305
665,6	1549,819
666,1	1540,305
666,5	1531,362
667	1520,99
667,4	1515,19
667,9	1502,019
668,3	1494,848
668,7	1482,305
669,2	1475,505
669,6	1462,79
670,1	1456,476
670,5	1442,905
670,9	1443,105
671,4	1431,733
671,8	1425,19
672,3	1417,333
672,7	1410,076
673,1	1401,133
673,6	1398,276
674	1384,219
674,5	1376,505
674,9	1364,619
675,3	1357,276
675,8	1351,162
676,2	1347,333
676,7	1337,533
677,1	1326,305
677,5	1322,248
678	1315,019
678,4	1305,733
678,9	1298,762
679,3	1282,333
679,7	1278,362
680,2	1275,276
680,6	1261,333
681,1	1253,762
681,5	1247,162
681,9	1237,105
682,4	1238,276
682,8	1222,619
683,3	1211,419
683,7	1204,305
684,1	1198,076
684,6	1188,419
685	1183,276
685,5	1170,133
685,9	1170,505
686,3	1165,19
686,8	1162,048
687,2	1158,419
687,7	1151,819
688,1	1148,276
688,5	1145,133
689	1136,276
689,4	1134,962
689,9	1128,39
690,3	1116,305
690,7	1113,076
691,2	1101,819
691,6	1087,79
692	1080,362
692,5	1062,219
692,9	1051,276
693,4	1048,962
693,8	1039,819
694,2	1032,419
694,7	1032,876
695,1	1024,505
695,6	1022,933
696	1017,476
696,4	1009,19
696,9	1008,162
697,3	1005,533
697,8	994,419
698,2	986,448
698,6	982,39
699,1	974,933
699,5	968,505
699,9	959,762
700,4	947,648
700,8	946,819
701,3	943,762
701,7	937,59
702,1	931,905
702,6	927,876
703	914,019
703,5	914,305
703,9	906,419
704,3	899,99
704,8	892,705
705,2	889,133
705,6	877,733
706,1	877,762
706,5	870,362
707	864,19
707,4	859,133
707,8	857,333
708,3	856,19
708,7	858,048
709,2	847,819
709,6	845,648
710	837,105
710,5	834,648
710,9	820,876
711,3	814,505
711,8	804,59
712,2	807,419
712,7	798,448
713,1	795,419
713,5	785,562
714	786,648
714,4	779,733
714,8	778,076
715,3	772,105
715,7	764,362
716,2	755,619
716,6	755,933
717	750,333
717,5	744,619
717,9	736,219
718,3	731,276
718,8	727,733
719,2	724,648
719,7	716,362
720,1	708,733
720,5	705,276
721	699,448
721,4	696,962
721,8	695,762
722,3	691,505
722,7	686,619
723,2	683,219
723,6	677,19
724	676,219
724,5	664,362
724,9	653,162
725,3	650,933
725,8	643,333
726,2	635,619
726,7	631,876
727,1	620,105
727,5	621,076
728	625,305
728,4	618,219
728,8	618,962
729,3	617,019
729,7	612,162
730,1	608,219
730,6	601,648
731	598,39
731,5	598,419
731,9	598,59
732,3	600,533
732,8	600,562
733,2	602,362
733,6	602,248
734,1	591,819
734,5	589,276
734,9	582,933
735,4	575,876
735,8	567,933
736,3	560,99
736,7	555,39
737,1	555,305
737,6	551,248
738	546,962
738,4	546,276
738,9	546,476
739,3	542,19
739,7	540,162
740,2	538,533
740,6	534,59
741,1	530,333
741,5	526,505
741,9	520,362
742,4	523,248
742,8	519,133
743,2	516,762
743,7	516,876
744,1	515,305
744,5	511,905
745	507,219
745,4	502,848
745,8	499,248
746,3	494,248
746,7	486,219
747,2	485,848
747,6	480,362
748	482,133
748,5	476,219
748,9	469,476
749,3	471,705
749,8	467,59
750,2	457,39
750,6	453,848
751,1	450,819
751,5	448,619
751,9	449,305
752,4	441,848
752,8	440,562
753,3	437,19
753,7	439,905
754,1	436,619
754,6	433,905
755	427,39
755,4	423,819
755,9	420,533
756,3	418,39
756,7	413,019
757,2	410,048
757,6	407,276
758	405,333
758,5	401,105
758,9	397,59
759,3	395,048
759,8	395,819
760,2	397,133
760,6	396,419
761,1	397,476
761,5	398,876
761,9	399,048
762,4	399,762
762,8	393,39
763,3	381,219
763,7	379,219
764,1	376,162
764,6	368,248
765	363,305
765,4	360,533
765,9	356,562
766,3	355,876
766,7	354,248
767,2	353,19
767,6	351,476
768	353,19
768,5	348,762
768,9	347,39
769,3	347,962
769,8	347,762
770,2	346,79
770,6	346,105
771,1	344,933
771,5	343,59
771,9	338,419
772,4	343,533
772,8	337,19
773,2	332,962
773,7	335,162
774,1	337,876
774,5	338,762
775	338,248
775,4	330,619
775,8	332,019
776,3	328,933
776,7	324,219
777,1	319,505
777,6	315,819
778	316,676
778,4	313,019
778,9	308,99
779,3	308,276
779,7	306,419
780,2	299,476
780,6	299,076
781	295,333
781,5	293,59
781,9	291,619
782,3	286,105
782,8	282,019
783,2	279,905
783,6	274,248
784,1	275,333
784,5	272,705
784,9	270,819
785,4	268,648
785,8	264,933
786,2	262,505
786,7	260,848
787,1	257,048
787,5	256,676
788	253,876
788,4	251,619
788,8	249,105
789,3	248,562
789,7	245,248
790,1	242,533
790,6	243,048
791	243,848
791,4	243,933
791,9	246,562
792,3	241,99
792,7	245,848
793,2	240,99
793,6	238,819
794	235,476
794,5	237,876
794,9	237,619
795,3	237,905
795,8	235,79
796,2	236,248
796,6	231,676
797,1	228,533
797,5	226,99
797,9	225,59
798,4	223,448
798,8	217,505
799,2	221,39
799,7	222,848
800,1	220,048
800,5	214,933
801	210,962
801,4	208,476
801,8	208,648
802,2	203,848
802,7	200,848
803,1	198,99
803,5	200,248
804	197,305
804,4	194,533
804,8	193,619
805,3	189,39
805,7	186,333
806,1	190,048
806,6	187,79
807	188,19
807,4	188,019
807,9	188,305
808,3	186,99
808,7	189,933
809,2	186,533
809,6	186,248
810	182,59
810,4	184,362
810,9	179,705
811,3	180,705
811,7	177,819
812,2	176,419
812,6	174,362
813	179,048
813,5	176,105
813,9	176,876
814,3	173,076
814,8	170,219
815,2	163,676
815,6	157,562
816,1	151,476
816,5	148,79
816,9	151,562
817,3	149,905
817,8	151,79
818,2	151,848
818,6	156,219
819,1	153,562
819,5	150,933
819,9	140,933
820,4	140,762
820,8	134,105
821,2	134,476
821,7	131,533
822,1	132,733
822,5	137,105
822,9	144,562
823,4	144,705
823,8	147,876
824,2	152,905
824,7	153,876
825,1	153,676
825,5	156,533
826	152,505
826,4	153,248
826,8	152,562
827,3	147,305
827,7	147,962
828,1	148,905
828,5	143,648
829	142,048
829,4	142,19
829,8	138,39
830,3	140,133
830,7	133,79
831,1	129,59
831,6	125,933
832	120,705
832,4	114,99
832,8	116,533
833,3	109,705
833,7	112,676
834,1	110,419
834,6	108,733
835	113,048
835,4	120,019
835,8	111,19
836,3	112,419
836,7	107,619
837,1	107,019
837,6	104,505
838	98,762
838,4	88,676
838,9	99,619
839,3	102,962
839,7	104,048
840,1	101,876
840,6	106,99
841	106,39
841,4	106,162
841,9	99,076
842,3	97,448
842,7	94,733
843,1	98,99
843,6	98,333
844	99,648
844,4	104,219
844,9	106,619
845,3	102,19
845,7	106,133
846,2	106,162
846,6	102,105
847	103,219
847,4	99,933
847,9	98,248
848,3	99,676
848,7	97,048
849,2	95,59
849,6	97,276
850	95,076
850,4	96,562
850,9	92,39
851,3	88,133
851,7	85,676
852,2	82,133
852,6	79,676
853	83,419
853,4	82,648
853,9	83,533
854,3	84,448
854,7	81,133
855,2	79,248
855,6	74,19
856	70,933
856,4	66,59
856,9	62,705
857,3	64,19
857,7	69,305
858,2	68,648
858,6	76,648
859	68,99
859,4	72,676
859,9	72,933
860,3	72,076
860,7	70,79
861,1	74,019
861,6	70,962
862	76,19
862,4	75,162
862,9	75,962
863,3	76,762
863,7	73,476
864,1	71,219
864,6	70,648
865	67,162
865,4	66,905
865,9	65,39
866,3	64,819
866,7	62,248
867,1	62,362
867,6	56,962
868	59,105
868,4	55,105
868,8	59,333
869,3	59,39
869,7	59,076
870,1	59,562
870,6	60,476
871	99,962
871,4	94,333
871,8	90,505
872,3	91,733
872,7	94,448
873,1	94,276
873,5	97,933
874	56,933
874,4	61,619
874,8	59,99
875,3	52,819
875,7	53,019
876,1	51,848
876,5	54,248
877	55,619
877,4	52,99
877,8	58,162
878,2	57,848
878,7	60,619
879,1	58,99
879,5	52,476
879,9	49,933
880,4	51,533
880,8	47,733
881,2	50,333
881,7	50,448
882,1	49,162
882,5	52,819
882,9	52,848
883,4	58,162
883,8	56,276
884,2	55,819
884,6	55,505
885,1	57,762
885,5	61,59
885,9	66,533
886,3	65,819
886,8	60,333
887,2	58,733
887,6	50,276
888	47,448
888,5	41,79
888,9	37,305
889,3	26,762
889,8	34,448
890,2	32,762
890,6	34,048
891	34,876
891,5	34,362
891,9	36,533
892,3	44,305
892,7	42,876
893,2	43,648
893,6	42,819
894	42,705
894,4	45,448
894,9	43,333
895,3	41,476
895,7	43,762
896,1	41,39
896,6	42,476
897	43,333
897,4	36,819
897,8	37,362
898,3	43,819
898,7	37,362
899,1	40,762
899,5	40,076
900	38,019
900,4	38,162
900,8	39,019
901,2	30,162
901,7	30,019
902,1	32,819
902,5	35,419
902,9	37,99
903,4	41,162
903,8	38,019
904,2	40,619
904,6	41,419
905,1	39,705
905,5	36,648
905,9	34,448
906,3	32,219
906,8	33,076
907,2	30,019
907,6	33,99
908	30,905
908,5	32,105
908,9	30,305
909,3	29,133
909,7	26,933
910,2	27,933
910,6	27,076
911	30,048
911,4	27,305
911,9	29,733
912,3	29,219
912,7	30,305
913,1	25,905
913,6	26,848
914	27,476
914,4	25,162
914,8	25,162
915,3	26,248
915,7	22,533
916,1	22,876
916,5	21,133
916,9	17,219
917,4	21,362
917,8	15,648
918,2	13,733
918,6	17,105
919,1	21,419
919,5	21,333
919,9	23,476
920,3	22,59
920,8	22,59
921,2	24,39
921,6	23,362
922	22,305
922,5	21,362
922,9	17,619
923,3	20,19
923,7	21,819
924,2	18,99
924,6	17,619
925	17,248
925,4	17,648
925,8	20,733
926,3	19,705
926,7	22,39
927,1	23,305
927,5	22,876
928	23,99
928,4	19,905
928,8	18,705
929,2	17,076
929,7	14,076
930,1	15,248
930,5	12,848
930,9	11,762
931,3	15,59
931,8	15,019
932,2	14,448
932,6	18,333
933	15,419
933,5	17,048
933,9	18,533
934,3	17,133
934,7	19,476
935,2	22,133
935,6	20,962
936	24,648
936,4	25,876
936,8	23,505
937,3	25,448
937,7	22,562
938,1	14,733
938,5	14,505
939	14,676
939,4	18,676
939,8	18,676
940,2	14,676
940,6	15,848
941,1	24,048
941,5	24,933
941,9	24,648
942,3	20,676
942,8	21,476
943,2	20,99
943,6	22,448
944	17,619
944,4	10,819
944,9	7,019
945,3	9,676
945,7	7,705
946,1	9,762
946,6	4,305
947	7,59
947,4	10,99
947,8	14,562
948,2	13,733
948,7	14,876
949,1	12,305
949,5	17,305
949,9	18,39
950,3	23,305
950,8	20,848
951,2	18,248
951,6	20,562
952	22,705
952,5	19,733
952,9	14,733
953,3	7,362
953,7	9,19
954,1	12,762
954,6	11,562
955	9,762
955,4	10,476
955,8	13,819
956,2	13,476
956,7	14,476
957,1	8,79
957,5	6,905
957,9	7,962
958,3	6,048
958,8	5,533
959,2	9,99
959,6	9,505
960	10,476
960,5	7,533
960,9	7,619
961,3	8,105
961,7	5,276
962,1	0,848
962,6	-0,21
963	-3,352
963,4	1,962
963,8	3,105
964,2	2,39
964,7	5,162
965,1	8,248
965,5	6,276
965,9	11,619
966,3	8,619
966,8	10,248
967,2	13,333
967,6	15,133
968	14,19
968,4	18,848
968,9	25,533
969,3	25,276
969,7	22,762
970,1	21,99
970,5	20,162
971	17,562
971,4	15,105
971,8	12,905
972,2	15,648
972,6	15,676
973,1	15,876
973,5	18,819
973,9	18,905
974,3	16,676
974,7	8,19
975,2	6,59
975,6	0,39
976	5,076
976,4	0,619
976,8	2,476
977,3	1,962
977,7	5,019
978,1	3,133
978,5	11,533
978,9	4,648
979,4	4,505
979,8	4,905
980,2	3,905
980,6	0,676
981	9,048
981,5	6,762
981,9	8,133
982,3	6,133
982,7	5,562
983,1	7,19
983,6	12,133
984	8,505
984,4	10,333
984,8	10,476
985,2	13,648
985,6	15,762
986,1	13,933
986,5	8,105
986,9	7,39
987,3	3,39
987,7	3,705
988,2	6,105
988,6	2,476
989	6,933
989,4	13,362
989,8	11,905
990,3	13,819
990,7	10,648
991,1	3,133
991,5	4,19
991,9	8,99
992,3	7,219
992,8	10,048
993,2	14,276
993,6	16,362
994	19,819
994,4	18,333
994,9	12,733
995,3	15,619
995,7	12,533
996,1	8,448
996,5	9,533
996,9	4,962
997,4	8,99
997,8	7,133
998,2	7,905
998,6	8,876
999	9,105
999,5	6,448
999,9	14,933
1000,3	16,019
1000,7	17,19
1001,1	9,962
1001,5	6,305
1002	3,648
1002,4	5,276
1002,8	2,305
1003,2	3,762
1003,6	6,076
1004	10,19
1004,5	8,333
1004,9	11,676
1005,3	6,819
1005,7	5,419
1006,1	-0,038
1006,6	-0,295
1007	-0,267
1007,4	3,305
1007,8	0,305
1008,2	3,876
1008,6	2,048
1009,1	0,762
1009,5	3,333
1009,9	7,419
1010,3	9,276
1010,7	13,019
1011,1	17,219
1011,6	16,819
1012	19,533
1012,4	16,305
1012,8	6,219
1013,2	5,219
1013,6	2,762
1014,1	0,962
1014,5	6,505
1014,9	6,819
1015,3	9,819
1015,7	12,762
1016,1	14,362
1016,6	12,962
1017	12,79
1017,4	8,305
1017,8	10,248
1018,2	1,476
1018,6	3,505
1019,1	-1,724
1019,5	1,819
1019,9	4,39
1020,3	6,019
1020,7	7,79
1021,1	15,533
1021,6	15,305
1022	14,333
1022,4	17,333
1022,8	13,819
1023,2	15,705
1023,6	9,619
1024,1	9,676
1024,5	9,419
1024,9	13,248
1025,3	7,505
1025,7	8,133
1026,1	12,105
1026,6	17,648
1027	12,248
1027,4	11,476
1027,8	14,219
1028,2	13,933
1028,6	14,762
1029	7,019
1029,5	10,648
1029,9	12,276
1030,3	16,276
1030,7	12,619
1031,1	11,733
1031,5	8,39
1032	13,99
1032,4	4,476
1032,8	4,962
1033,2	-0,552
1033,6	0,133
1034	0,705
1034,4	6,305
1034,9	-1,752
1035,3	1,276
1035,7	1,048
1036,1	5,905
1036,5	3,305
1036,9	4,59
1037,4	3,733
1037,8	6,076
1038,2	2,705
1038,6	1,248
1039	0,305
1039,4	3,962
1039,8	4,19
1040,3	4,476
1040,7	8,076
1041,1	10,305
1041,5	7,419
1041,9	7,019
1042,3	8,819
1042,7	10,933
1043,2	9,333
1043,6	11,419
1044	13,733
1044,4	14,505
1044,8	9,019
1045,2	7,448
1045,6	12,819
1046,1	15,676
1046,5	17,076
1046,9	19,019
1047,3	20,876
1047,7	23,99
1048,1	23,848
1048,5	18,619
1049	16,362
1049,4	9,019
1049,8	1,99
1050,2	3,59
1050,6	5,676
1051	7,076
1051,4	2,562
1051,9	3,076
1052,3	0,648
1052,7	-0,095
1053,1	1,048
1053,5	2,533
1053,9	-0,21
1054,3	3,19
1054,8	6,848
1055,2	10,99
1055,6	14,19
1056	13,19
1056,4	10,848
1056,8	15,305
1057,2	15,705
1057,6	9,362
1058,1	11,076
1058,5	9,705
1058,9	12,619
1059,3	19,59
1059,7	12,848
1060,1	11,59
1060,5	9,39
1061	7,79
1061,4	11,448
1061,8	7,276
1062,2	2,962
1062,6	5,676
1063	3,876
1063,4	7,333
1063,8	9,048
1064,3	5,105
1064,7	3,419
1065,1	3,762
1065,5	5,59
1065,9	3,905
1066,3	-0,895
1066,7	-0,381
1067,1	-0,924
1067,6	7,19
1068	4,362
1068,4	8,019
1068,8	11,962
1069,2	13,99
1069,6	15,848
1070	18,619
1070,4	12,733
1070,9	11,448
1071,3	7,505
1071,7	9,219
1072,1	12,076
1072,5	8,105
1072,9	10,619
1073,3	15,305
1073,7	13,848
1074,2	14,105
1074,6	12,133
1075	7,819
1075,4	9,619
1075,8	8,848
1076,2	6,619
1076,6	11,876
1077	9,39
1077,5	12,276
1077,9	16,219
1078,3	16,39
1078,7	14,39
1079,1	16,676
1079,5	13,276
1079,9	17,648
1080,3	15,105
1080,7	17,105
1081,2	12,619
1081,6	17,362
1082	11,99
1082,4	12,019
1082,8	6,133
1083,2	2,162
1083,6	4,219
1084	6,133
1084,5	-0,067
1084,9	1,562
1085,3	1,476
1085,7	0,733
1086,1	-0,695
1086,5	-4,552
1086,9	0,248
1087,3	2,505
1087,7	4,705
1088,2	4,19
1088,6	4,619
1089	6,019
1089,4	3,705
1089,8	2,248
1090,2	3,933
1090,6	0,162
1091	3,99
1091,4	8,105
1091,9	12,476
1092,3	11,162
1092,7	6,705
1093,1	5,19
1093,5	4,962
1093,9	4,79
1094,3	4,276
1094,7	3,133
1095,1	3,962
1095,5	6,962
1096	1,333
1096,4	4,848
1096,8	2,848
1097,2	3,505
1097,6	4,276
1098	7,562
1098,4	10,476
1098,8	16,305
1099,2	12,476
1099,6	15,162
1100,1	16,733
1100,5	18,076
1100,9	20,419
1101,3	15,819
1101,7	17,79
1102,1	19,619
1102,5	17,905
1102,9	11,733
1103,3	9,933
1103,7	6,705
1104,2	9,476
1104,6	9,933
1105	8,733
1105,4	9,448
1105,8	11,933
1106,2	10,648
1106,6	9,048
1107	6,419
1107,4	2,9
1107,8	3,333
1108,3	0,083
