Data from Subt2_074.txt Node
Date: Sat Aug 26 16:35:34 MSK 2023
User: vat
Spectrometer: MAYP114033
Trigger mode: 0
Integration Time (sec): 1,000000E0
Scans to average: 5
Electric dark correction enabled: true
Nonlinearity correction enabled: false
Boxcar width: 3
XAxis mode: Wavelengths
Number of Pixels in Spectrum: 2068
>>>>>Begin Spectral Data<<<<<
199,4	0,467
199,9	0,407
200,4	-1,467
200,8	0,11
201,3	1,624
201,8	3,481
202,2	5,281
202,7	5,967
203,2	4,595
203,6	5,624
204,1	5,938
204,6	7,31
205	3,452
205,5	1,052
206	1,967
206,4	4,824
206,9	4,538
207,4	6,824
207,8	2,767
208,3	5,91
208,8	9,738
209,2	16,167
209,7	16,624
210,2	22,452
210,6	18,367
211,1	19,824
211,5	19,138
212	14,424
212,5	4,224
212,9	1,138
213,4	-0,948
213,9	0,11
214,3	2,795
214,8	6,138
215,3	9,024
215,7	9,881
216,2	14,681
216,7	10,31
217,1	11,538
217,6	9,452
218,1	5,11
218,5	5,567
219	13,281
219,5	13,11
219,9	17,052
220,4	14,767
220,9	16,738
221,3	20,681
221,8	17,567
222,3	9,51
222,7	6,824
223,2	9,538
223,6	8,852
224,1	6,767
224,6	5,681
225	5,31
225,5	12,11
226	13,367
226,4	11,31
226,9	10,738
227,4	13,967
227,8	16,11
228,3	19,567
228,8	12,395
229,2	11,738
229,7	6,795
230,2	11,052
230,6	7,224
231,1	5,167
231,5	8,081
232	20,538
232,5	20,138
232,9	19,681
233,4	20,938
233,9	21,567
234,3	18,167
234,8	13,652
235,3	5,081
235,7	9,738
236,2	11,567
236,7	10,595
237,1	8,624
237,6	8,424
238,1	12,424
238,5	13,138
239	6,138
239,4	11,252
239,9	9,224
240,4	11,967
240,8	15,91
241,3	10,852
241,8	8,51
242,2	8,11
242,7	6,424
243,2	7,481
243,6	8,71
244,1	7,824
244,6	9,424
245	8,995
245,5	11,167
245,9	8,167
246,4	6,71
246,9	5,224
247,3	2,538
247,8	1,367
248,3	7,052
248,7	14,881
249,2	15,052
249,7	15,424
250,1	15,71
250,6	19,91
251	23,395
251,5	18,167
252	10,51
252,4	12,681
252,9	13,395
253,4	11,824
253,8	8,281
254,3	7,31
254,8	9,167
255,2	11,167
255,7	9,281
256,1	6,967
256,6	7,338
257,1	8,367
257,5	9,195
258	7,71
258,5	8,281
258,9	11,024
259,4	13,91
259,9	18,71
260,3	16,767
260,8	16,224
261,2	19,567
261,7	19,738
262,2	12,538
262,6	13,31
263,1	7,91
263,6	14,367
264	11,624
264,5	11,967
264,9	12,052
265,4	18,081
265,9	19,11
266,3	19,024
266,8	14,51
267,3	18,881
267,7	16,481
268,2	11,652
268,7	10,167
269,1	5,824
269,6	7,338
270	10,281
270,5	7,195
271	6,881
271,4	5,567
271,9	5,767
272,4	5,538
272,8	4,595
273,3	2,395
273,7	1,938
274,2	0,938
274,7	5,51
275,1	3,795
275,6	9,481
276,1	14,881
276,5	19,567
277	19,767
277,4	18,938
277,9	16,71
278,4	22,71
278,8	21,995
279,3	16,624
279,8	15,624
280,2	13,31
280,7	14,595
281,1	18,024
281,6	12,452
282,1	10,281
282,5	15,852
283	13,824
283,4	14,595
283,9	10,052
284,4	6,281
284,8	8,367
285,3	6,595
285,8	-0,633
286,2	-3,605
286,7	-2,976
287,1	-0,719
287,6	3,11
288,1	4,395
288,5	6,652
289	9,338
289,5	7,938
289,9	9,995
290,4	12,881
290,8	13,681
291,3	10,024
291,8	8,31
292,2	10,081
292,7	11,224
293,1	7,652
293,6	3,767
294,1	-0,576
294,5	4,852
295	4,138
295,5	1,224
295,9	3,795
296,4	7,195
296,8	6,11
297,3	7,738
297,8	6,31
298,2	9,567
298,7	5,824
299,1	9,11
299,6	8,738
300,1	14,31
300,5	15,567
301	13,938
301,5	9,11
301,9	13,881
302,4	12,424
302,8	11,51
303,3	12,31
303,8	10,052
304,2	7,938
304,7	9,652
305,1	10,138
305,6	2,681
306,1	5,281
306,5	4,167
307	0,452
307,4	-0,805
307,9	1,252
308,4	0,11
308,8	4,481
309,3	1,081
309,8	0,11
310,2	3,052
310,7	12,252
311,1	8,595
311,6	8,424
312,1	8,224
312,5	11,624
313	9,652
313,4	11,852
313,9	12,595
314,4	11,167
314,8	14,91
315,3	12,71
315,7	10,624
316,2	12,71
316,7	8,338
317,1	0,31
317,6	3,652
318	1,967
318,5	5,652
319	4,738
319,4	6,252
319,9	10,938
320,3	14,967
320,8	14,91
321,3	11,995
321,7	9,252
322,2	11,024
322,6	11,052
323,1	9,738
323,6	7,91
324	9,71
324,5	10,081
324,9	11,538
325,4	12,281
325,9	16,767
326,3	18,11
326,8	18,738
327,2	16,452
327,7	15,281
328,2	13,281
328,6	12,995
329,1	4,852
329,5	0,967
330	0,452
330,5	2,567
330,9	5,881
331,4	3,31
331,8	3,938
332,3	6,767
332,8	9,167
333,2	6,91
333,7	6,167
334,1	7,024
334,6	8,224
335,1	6,91
335,5	7,31
336	2,424
336,4	5,481
336,9	6,995
337,4	2,71
337,8	6,71
338,3	8,167
338,7	6,138
339,2	14,995
339,7	14,738
340,1	12,224
340,6	12,024
341	18,652
341,5	19,395
342	23,224
342,4	17,024
342,9	12,71
343,3	17,424
343,8	20,995
344,2	15,881
344,7	16,138
345,2	9,91
345,6	14,367
346,1	19,538
346,5	15,481
347	17,967
347,5	11,224
347,9	8,967
348,4	14,052
348,8	14,024
349,3	13,795
349,8	13,852
350,2	11,195
350,7	20,538
351,1	23,395
351,6	23,281
352	32,881
352,5	34,167
353	42,767
353,4	49,91
353,9	55,967
354,3	69,052
354,8	75,995
355,3	81,995
355,7	96,338
356,2	109,881
356,6	130,481
357,1	153,595
357,5	169,252
358	203,395
358,5	237,767
358,9	277,424
359,4	325,367
359,8	372,452
360,3	424,138
360,8	491,481
361,2	562,138
361,7	640,224
362,1	725,967
362,6	813,281
363	907,71
363,5	1012,452
364	1117,481
364,4	1223,052
364,9	1327,052
365,3	1426,538
365,8	1525,652
366,3	1627,395
366,7	1715,081
367,2	1792,938
367,6	1858,91
368,1	1911,281
368,5	1951,11
369	1968,595
369,5	1965,481
369,9	1948,167
370,4	1919,51
370,8	1875,567
371,3	1821,138
371,7	1754,138
372,2	1689,167
372,7	1607,938
373,1	1525,71
373,6	1437,338
374	1349,738
374,5	1259,081
374,9	1170,081
375,4	1082,167
375,9	1005,681
376,3	928,424
376,8	855,281
377,2	791,081
377,7	727,91
378,2	673,452
378,6	618,338
379,1	564,681
379,5	520,167
380	482,767
380,4	444,31
380,9	411,595
381,4	378,224
381,8	351,852
382,3	326,567
382,7	304,081
383,2	273,367
383,6	252,624
384,1	237,224
384,6	218,081
385	201,338
385,5	188,681
385,9	175,31
386,4	172,91
386,8	163,11
387,3	149,481
387,7	145,652
388,2	133,395
388,7	125,31
389,1	116,595
389,6	107,995
390	100,11
390,5	96,281
390,9	92,795
391,4	95,138
391,9	89,681
392,3	83,967
392,8	78,452
393,2	69,767
393,7	68,167
394,1	64,51
394,6	58,652
395,1	59,167
395,5	62,167
396	61,767
396,4	62,252
396,9	58,995
397,3	54,91
397,8	54,424
398,2	50,938
398,7	44,624
399,2	41,91
399,6	46,195
400,1	43,395
400,5	43,567
401	45,224
401,4	46,11
401,9	44,538
402,4	48,681
402,8	45,481
403,3	45,881
403,7	46,71
404,2	45,624
404,6	45,967
405,1	47,081
405,5	40,595
406	39,824
406,5	38,938
406,9	36,081
407,4	34,624
407,8	36,11
408,3	37,252
408,7	43,652
409,2	47,91
409,6	48,224
410,1	52,681
410,6	55,995
411	58,424
411,5	58,538
411,9	56,195
412,4	56,31
412,8	60,967
413,3	60,424
413,7	60,395
414,2	65,852
414,7	75,624
415,1	78,595
415,6	82,195
416	83,452
416,5	86,252
416,9	89,195
417,4	87,624
417,8	84,31
418,3	89,224
418,8	87,281
419,2	91,224
419,7	98,224
420,1	94,481
420,6	90,624
421	88,167
421,5	85,424
421,9	86,367
422,4	86,91
422,8	83,11
423,3	88,167
423,8	96,824
424,2	105,052
424,7	106,938
425,1	107,795
425,6	106,281
426	107,481
426,5	107,538
426,9	101,052
427,4	98,424
427,9	94,51
428,3	92,338
428,8	92,51
429,2	86,567
429,7	82,681
430,1	87,795
430,6	87,938
431	86,652
431,5	88,367
431,9	91,081
432,4	94,91
432,8	98,224
433,3	95,167
433,8	97,51
434,2	103,195
434,7	103,995
435,1	101,195
435,6	112,224
436	115,081
436,5	121,51
436,9	123,052
437,4	127,538
437,8	132,71
438,3	140,167
438,8	132,024
439,2	136,024
439,7	136,795
440,1	136,795
440,6	144,024
441	148,824
441,5	150,281
441,9	162,995
442,4	170,024
442,8	179,367
443,3	186,71
443,7	187,11
444,2	196,195
444,7	207,738
445,1	211,51
445,6	215,995
446	225,224
446,5	236,338
446,9	249,395
447,4	258,995
447,8	269,31
448,3	284,424
448,7	294,281
449,2	299,881
449,6	310,195
450,1	320,624
450,6	330,881
451	337,11
451,5	341,452
451,9	356,938
452,4	374,167
452,8	389,452
453,3	400,852
453,7	414,681
454,2	429,052
454,6	451,224
455,1	462,081
455,5	474,252
456	487,624
456,4	504,224
456,9	519,91
457,3	542,11
457,8	554,424
458,3	577,167
458,7	600,738
459,2	621,91
459,6	640,052
460,1	659,052
460,5	678,795
461	700,31
461,4	720,795
461,9	734,624
462,3	752,767
462,8	775,195
463,2	801,881
463,7	820,338
464,1	844,167
464,6	862,395
465	890,281
465,5	914,767
466	937,338
466,4	961,167
466,9	985,852
467,3	1006,738
467,8	1039,395
468,2	1061,195
468,7	1089,052
469,1	1114,195
469,6	1133,367
470	1163,224
470,5	1191,052
470,9	1211,567
471,4	1238,281
471,8	1259,081
472,3	1277,081
472,7	1306,938
473,2	1324,395
473,6	1351,138
474,1	1372,91
474,5	1401,852
475	1429,195
475,4	1459,795
475,9	1485,881
476,4	1514,795
476,8	1534,795
477,3	1560,652
477,7	1583,024
478,2	1604,91
478,6	1633,624
479,1	1654,481
479,5	1674,595
480	1703,195
480,4	1722,995
480,9	1743,395
481,3	1761,681
481,8	1781,652
482,2	1799,681
482,7	1821,024
483,1	1838,852
483,6	1863,91
484	1880,595
484,5	1901,424
484,9	1921,938
485,4	1940,624
485,8	1956,938
486,3	1969,424
486,7	1991,567
487,2	2004,938
487,6	2024,852
488,1	2039,738
488,5	2051,91
489	2063,081
489,4	2080,452
489,9	2084,738
490,4	2101,395
490,8	2107,538
491,3	2117,481
491,7	2126,51
492,2	2138,481
492,6	2144,51
493,1	2150,167
493,5	2153,195
494	2162,967
494,4	2160,71
494,9	2171,281
495,3	2178,795
495,8	2184,538
496,2	2195,167
496,7	2198,167
497,1	2200,024
497,6	2209,481
498	2211,195
498,5	2212,395
498,9	2214,795
499,4	2214,595
499,8	2219,624
500,3	2230,281
500,7	2233,71
501,2	2242,767
501,6	2244,395
502,1	2252,652
502,5	2253,795
503	2259,424
503,4	2253,138
503,9	2256,795
504,3	2248,938
504,8	2254,395
505,2	2250,767
505,7	2255,31
506,1	2254,824
506,6	2259,252
507	2257,967
507,5	2262,624
507,9	2260,824
508,4	2266,167
508,8	2262,195
509,3	2259,595
509,7	2252,31
510,2	2248,738
510,6	2243,452
511,1	2243,738
511,5	2238,11
512	2244,395
512,4	2245,738
512,9	2252,338
513,3	2261,395
513,8	2267,767
514,2	2272,938
514,7	2272,138
515,1	2269,252
515,6	2268,367
516	2260,081
516,5	2251,024
516,9	2242,452
517,4	2234,824
517,8	2237,795
518,3	2230,595
518,7	2229,452
519,2	2236,11
519,6	2236,738
520,1	2237,167
520,5	2235,31
521	2231,538
521,4	2231,538
521,9	2228,338
522,3	2226,71
522,8	2230,51
523,2	2232,11
523,7	2233,938
524,1	2232,252
524,6	2233,395
525	2240,395
525,5	2242,224
525,9	2234,795
526,4	2234,081
526,8	2235,481
527,3	2238,567
527,7	2245,281
528,2	2242,852
528,6	2242,138
529,1	2243,367
529,5	2244,481
530	2244,481
530,4	2245,481
530,9	2236,967
531,3	2236,738
531,8	2237,595
532,2	2237,452
532,6	2241,852
533,1	2243,31
533,5	2247,081
534	2254,167
534,4	2257,824
534,9	2266,224
535,3	2272,11
535,8	2272,71
536,2	2277,681
536,7	2275,224
537,1	2272,995
537,6	2272,795
538	2271,738
538,5	2272,71
538,9	2278,31
539,4	2279,024
539,8	2285,824
540,3	2293,081
540,7	2297,51
541,2	2295,195
541,6	2304,452
542,1	2300,824
542,5	2300,338
543	2295,224
543,4	2301,081
543,9	2303,995
544,3	2307,91
544,8	2306,767
545,2	2315,652
545,7	2320,881
546,1	2328,538
546,5	2330,281
547	2331,595
547,4	2335,995
547,9	2339,138
548,3	2331,567
548,8	2335,195
549,2	2336,967
549,7	2342,567
550,1	2346,881
550,6	2352,51
551	2364,424
551,5	2370,024
551,9	2377,024
552,4	2380,91
552,8	2382,51
553,3	2389,71
553,7	2388,624
554,2	2383,595
554,6	2394,567
555,1	2394,595
555,5	2400,795
555,9	2402,31
556,4	2398,167
556,8	2402,395
557,3	2403,081
557,7	2401,452
558,2	2402,452
558,6	2406,167
559,1	2409,11
559,5	2417,567
560	2422,395
560,4	2431,595
560,9	2441,252
561,3	2441,881
561,8	2448,624
562,2	2447,852
562,7	2448,71
563,1	2445,138
563,6	2442,281
564	2442,224
564,4	2451,938
564,9	2451,652
565,3	2453,51
565,8	2457,538
566,2	2460,995
566,7	2460,452
567,1	2463,31
567,6	2459,795
568	2460,938
568,5	2461,795
568,9	2462,538
569,4	2466,567
569,8	2465,967
570,3	2469,91
570,7	2464,567
571,1	2459,538
571,6	2461,538
572	2461,938
572,5	2456,995
572,9	2463,967
573,4	2456,91
573,8	2461,938
574,3	2466,881
574,7	2470,081
575,2	2465,767
575,6	2466,795
576,1	2458,424
576,5	2454,11
576,9	2455,195
577,4	2447,081
577,8	2439,767
578,3	2435,881
578,7	2438,681
579,2	2444,281
579,6	2449,195
580,1	2445,081
580,5	2441,624
581	2439,052
581,4	2438,424
581,9	2435,738
582,3	2429,052
582,7	2422,995
583,2	2416,595
583,6	2420,281
584,1	2418,881
584,5	2415,052
585	2413,424
585,4	2407,995
585,9	2409,91
586,3	2405,567
586,8	2392,624
587,2	2388,338
587,6	2382,91
588,1	2377,795
588,5	2377,052
589	2365,681
589,4	2363,338
589,9	2366,852
590,3	2364,081
590,8	2365,338
591,2	2361,081
591,7	2357,767
592,1	2353,681
592,5	2352,052
593	2345,052
593,4	2336,281
593,9	2327,767
594,3	2320,31
594,8	2313,967
595,2	2315,224
595,7	2309,967
596,1	2307,281
596,6	2315,967
597	2314,824
597,4	2309,281
597,9	2305,281
598,3	2299,652
598,8	2296,681
599,2	2290,31
599,7	2276,395
600,1	2272,338
600,6	2269,967
601	2263,167
601,4	2260,481
601,9	2255,167
602,3	2250,11
602,8	2246,424
603,2	2241,31
603,7	2239,795
604,1	2239,595
604,6	2226,681
605	2224,938
605,4	2221,052
605,9	2215,767
606,3	2206,881
606,8	2200,452
607,2	2194,91
607,7	2194,71
608,1	2187,538
608,6	2188,31
609	2185,624
609,4	2186,224
609,9	2182,567
610,3	2174,71
610,8	2168,738
611,2	2159,11
611,7	2142,938
612,1	2133,424
612,6	2123,31
613	2112,424
613,4	2102,624
613,9	2093,538
614,3	2090,967
614,8	2085,681
615,2	2082,224
615,7	2076,71
616,1	2065,91
616,6	2061,91
617	2051,995
617,4	2042,51
617,9	2033,71
618,3	2020,538
618,8	2009,31
619,2	2007,11
619,7	2002,938
620,1	1994,538
620,5	1986,538
621	1981,367
621,4	1977,024
621,9	1972,967
622,3	1966,31
622,8	1951,024
623,2	1949,481
623,6	1939,224
624,1	1933,71
624,5	1923,795
625	1909,138
625,4	1899,71
625,9	1896,31
626,3	1885,195
626,8	1879,595
627,2	1865,538
627,6	1857,481
628,1	1848,738
628,5	1838,024
629	1829,481
629,4	1819,538
629,9	1809,081
630,3	1802,681
630,7	1795,91
631,2	1790,881
631,6	1782,167
632,1	1766,167
632,5	1759,395
633	1744,167
633,4	1735,995
633,8	1722,795
634,3	1711,395
634,7	1704,795
635,2	1703,195
635,6	1692,252
636,1	1691,881
636,5	1683,11
636,9	1671,91
637,4	1667,624
637,8	1658,852
638,3	1649,167
638,7	1646,052
639,2	1634,538
639,6	1628,195
640	1625,767
640,5	1618,967
640,9	1609,11
641,4	1600,424
641,8	1589,252
642,2	1584,652
642,7	1574,881
643,1	1575,681
643,6	1565,852
644	1562,881
644,5	1554,538
644,9	1545,652
645,3	1538,281
645,8	1536,881
646,2	1523,824
646,7	1518,224
647,1	1509,938
647,6	1504,081
648	1500,71
648,4	1489,71
648,9	1478,595
649,3	1468,481
649,8	1462,71
650,2	1453,71
650,6	1444,595
651,1	1438,738
651,5	1435,195
652	1425,081
652,4	1417,795
652,9	1409,481
653,3	1402,424
653,7	1398,424
654,2	1388,338
654,6	1377,795
655,1	1368,681
655,5	1364,195
655,9	1358,624
656,4	1350,567
656,8	1342,481
657,3	1331,881
657,7	1321,252
658,2	1321,138
658,6	1306,71
659	1295,11
659,5	1288,567
659,9	1283,367
660,4	1279,281
660,8	1285,995
661,2	1273,795
661,7	1271,338
662,1	1262,938
662,6	1254,681
663	1244,595
663,4	1235,824
663,9	1217,081
664,3	1210,795
664,8	1200,995
665,2	1196,51
665,6	1191,452
666,1	1181,138
666,5	1172,51
667	1166,767
667,4	1164,167
667,9	1158,195
668,3	1150,652
668,7	1141,481
669,2	1138,71
669,6	1135,881
670,1	1133,281
670,5	1115,252
670,9	1112,195
671,4	1106,11
671,8	1100,91
672,3	1091,052
672,7	1081,938
673,1	1071,91
673,6	1069,195
674	1061,338
674,5	1057,167
674,9	1048,081
675,3	1041,367
675,8	1032,452
676,2	1027,995
676,7	1022,624
677,1	1017,195
677,5	1010,167
678	1004,881
678,4	1004,167
678,9	1002,995
679,3	990,424
679,7	987,881
680,2	984,795
680,6	975,624
681,1	967,367
681,5	959,91
681,9	948,795
682,4	950,538
682,8	943,538
683,3	933,681
683,7	931,224
684,1	924,595
684,6	914,652
685	911,052
685,5	904,452
685,9	901,51
686,3	893,167
686,8	885,252
687,2	882,795
687,7	882,081
688,1	880,224
688,5	871,91
689	864,224
689,4	865,91
689,9	861,538
690,3	855,71
690,7	845,795
691,2	839,081
691,6	839,595
692	833,024
692,5	824,91
692,9	816,852
693,4	809,938
693,8	812,224
694,2	803,681
694,7	797,995
695,1	796,338
695,6	786,824
696	784,281
696,4	781,452
696,9	771,967
697,3	766,995
697,8	758,395
698,2	751,11
698,6	747,852
699,1	741,652
699,5	738,481
699,9	732,652
700,4	729,567
700,8	728,081
701,3	723,281
701,7	713,138
702,1	710,31
702,6	702,138
703	695,652
703,5	687,081
703,9	681,71
704,3	677,281
704,8	679,395
705,2	672,252
705,6	669,052
706,1	676,024
706,5	681,252
707	673,538
707,4	673,852
707,8	672,595
708,3	667,367
708,7	666,652
709,2	657,024
709,6	648,852
710	644,024
710,5	640,424
710,9	635,538
711,3	633,71
711,8	628,681
712,2	622,081
712,7	618,938
713,1	618,395
713,5	610,138
714	603,652
714,4	600,595
714,8	596,995
715,3	596,795
715,7	585,795
716,2	581,71
716,6	578,424
717	572,167
717,5	567,281
717,9	561,881
718,3	552,052
718,8	554,995
719,2	548,967
719,7	542,995
720,1	538,995
720,5	538,424
721	533,252
721,4	535,395
721,8	532,167
722,3	526,138
722,7	518,652
723,2	518,824
723,6	511,338
724	510,567
724,5	502,91
724,9	494,167
725,3	493,681
725,8	495,767
726,2	489,281
726,7	486,11
727,1	475,367
727,5	471,452
728	472,424
728,4	468,195
728,8	464,795
729,3	462,91
729,7	461,967
730,1	465,367
730,6	464,538
731	465,452
731,5	466,424
731,9	469,252
732,3	469,195
732,8	467,081
733,2	464,567
733,6	462,452
734,1	455,767
734,5	446,624
734,9	438,452
735,4	435,195
735,8	432,795
736,3	430,795
736,7	428,681
737,1	428,167
737,6	429,11
738	428,224
738,4	426,91
738,9	430,252
739,3	423,195
739,7	421,167
740,2	418,967
740,6	420,91
741,1	416,224
741,5	412,51
741,9	401,252
742,4	401,195
742,8	403,567
743,2	400,167
743,7	395,652
744,1	393,195
744,5	391,595
745	388,281
745,4	384,51
745,8	376,595
746,3	376,767
746,7	375,081
747,2	373,567
747,6	367,538
748	369,024
748,5	364,91
748,9	362,481
749,3	359,681
749,8	352,052
750,2	349,11
750,6	353,452
751,1	352,424
751,5	351,281
751,9	352,138
752,4	348,481
752,8	350,224
753,3	350,338
753,7	343,91
754,1	340,052
754,6	340,681
755	332,767
755,4	331,138
755,9	325,481
756,3	319,481
756,7	315,481
757,2	317,11
757,6	315,624
758	309,252
758,5	305,567
758,9	310,338
759,3	312,738
759,8	313,795
760,2	309,538
760,6	307,824
761,1	309,052
761,5	306,081
761,9	299,138
762,4	295,538
762,8	294,167
763,3	288,31
763,7	282,167
764,1	280,681
764,6	275,138
765	276,138
765,4	276,024
765,9	271,624
766,3	270,767
766,7	271,595
767,2	272,481
767,6	271,71
768	269,195
768,5	264,31
768,9	261,081
769,3	258,452
769,8	256,881
770,2	256,71
770,6	254,624
771,1	255,51
771,5	254,595
771,9	251,252
772,4	257,081
772,8	253,138
773,2	250,795
773,7	253,481
774,1	250,195
774,5	249,367
775	250,224
775,4	239,967
775,8	241,738
776,3	237,195
776,7	236,452
777,1	236,195
777,6	234,595
778	233,167
778,4	235,567
778,9	234,795
779,3	236,481
779,7	236,024
780,2	232,624
780,6	232,71
781	231,91
781,5	230,167
781,9	233,081
782,3	233,11
782,8	228,424
783,2	223,452
783,6	216,167
784,1	213,624
784,5	214,052
784,9	206,395
785,4	199,852
785,8	196,738
786,2	196,852
786,7	198,024
787,1	200,967
787,5	197,881
788	197,852
788,4	197,71
788,8	196,595
789,3	197,967
789,7	199,91
790,1	195,081
790,6	192,395
791	188,167
791,4	186,624
791,9	186,424
792,3	183,11
792,7	182,967
793,2	180,738
793,6	181,652
794	184,31
794,5	184,481
794,9	184,338
795,3	181,71
795,8	179,081
796,2	179,567
796,6	175,681
797,1	169,367
797,5	168,824
797,9	167,738
798,4	168,338
798,8	162,995
799,2	164,881
799,7	168,824
800,1	169,938
800,5	165,995
801	165,795
801,4	160,338
801,8	163,252
802,2	163,195
802,7	157,195
803,1	154,31
803,5	155,681
804	150,567
804,4	153,138
804,8	150,052
805,3	144,195
805,7	143,967
806,1	144,224
806,6	148,281
807	150,367
807,4	147,852
807,9	147,71
808,3	148,738
808,7	148,538
809,2	144,224
809,6	135,595
810	135,024
810,4	136,71
810,9	132,367
811,3	130,452
811,7	123,881
812,2	130,624
812,6	133,367
813	130,31
813,5	128,052
813,9	128,967
814,3	126,624
814,8	133,51
815,2	125,652
815,6	120,367
816,1	121,538
816,5	122,51
816,9	123,824
817,3	120,224
817,8	120,395
818,2	118,767
818,6	120,938
819,1	120,967
819,5	120,51
819,9	118,052
820,4	119,91
820,8	110,881
821,2	117,938
821,7	118,624
822,1	115,767
822,5	114,967
822,9	112,681
823,4	111,224
823,8	117,424
824,2	112,281
824,7	113,11
825,1	112,767
825,5	113,51
826	117,224
826,4	121,881
826,8	121,11
827,3	123,71
827,7	123,824
828,1	125,795
828,5	122,681
829	111,881
829,4	113,081
829,8	109,167
830,3	108,795
830,7	101,624
831,1	96,51
831,6	92,281
832	94,738
832,4	89,224
832,8	91,024
833,3	85,681
833,7	88,824
834,1	90,967
834,6	94,881
835	99,938
835,4	102,11
835,8	100,824
836,3	100,395
836,7	94,51
837,1	88,824
837,6	84,824
838	81,452
838,4	77,538
838,9	77,681
839,3	79,081
839,7	85,281
840,1	87,967
840,6	90,367
841	87,624
841,4	83,938
841,9	80,024
842,3	81,51
842,7	80,452
843,1	82,081
843,6	82,538
844	86,367
844,4	92,452
844,9	91,052
845,3	89,138
845,7	87,852
846,2	83,91
846,6	78,452
847	72,624
847,4	67,738
847,9	70,967
848,3	69,624
848,7	68,967
849,2	72,395
849,6	75,481
850	80,481
850,4	80,91
850,9	76,11
851,3	71,681
851,7	70,652
852,2	63,995
852,6	61,852
853	57,31
853,4	59,567
853,9	59,452
854,3	64,481
854,7	64,081
855,2	64,652
855,6	59,538
856	55,195
856,4	51,595
856,9	49,852
857,3	46,795
857,7	47,624
858,2	48,595
858,6	55,281
859	55,31
859,4	54,195
859,9	54,738
860,3	52,281
860,7	48,281
861,1	48,395
861,6	43,824
862	49,738
862,4	51,367
862,9	54,195
863,3	53,367
863,7	51,024
864,1	49,938
864,6	49,824
865	49,252
865,4	44,881
865,9	42,252
866,3	45,595
866,7	49,938
867,1	53,71
867,6	54,367
868	54,938
868,4	54,224
868,8	55,995
869,3	58,71
869,7	53,567
870,1	52,795
870,6	53,11
871	119,224
871,4	119,852
871,8	118,367
872,3	116,681
872,7	117,252
873,1	117,395
873,5	116,252
874	48,938
874,4	47,138
874,8	45,281
875,3	44,024
875,7	43,195
876,1	34,852
876,5	36,71
877	36,224
877,4	38,91
877,8	43,795
878,2	40,281
878,7	45,195
879,1	50,338
879,5	53,281
879,9	52,452
880,4	49,595
880,8	44,881
881,2	47,624
881,7	49,452
882,1	51,824
882,5	43,938
882,9	43,71
883,4	48,852
883,8	47,995
884,2	47,395
884,6	44,281
885,1	43,624
885,5	51,51
885,9	52,452
886,3	51,195
886,8	50,31
887,2	48,91
887,6	40,595
888	37,795
888,5	35,11
888,9	33,91
889,3	28,795
889,8	29,338
890,2	24,624
890,6	30,767
891	30,71
891,5	28,252
891,9	26,595
892,3	26,652
892,7	27,795
893,2	31,767
893,6	32,167
894	33,738
894,4	35,852
894,9	37,595
895,3	41,824
895,7	42,91
896,1	44,167
896,6	42,652
897	38,624
897,4	31,624
897,8	30,852
898,3	34,852
898,7	34,252
899,1	30,567
899,5	29,652
900	29,681
900,4	32,881
900,8	33,824
901,2	28,538
901,7	26,338
902,1	31,567
902,5	32,938
902,9	34,681
903,4	38,11
903,8	32,967
904,2	33,51
904,6	29,795
905,1	30,938
905,5	28,51
905,9	31,052
906,3	25,024
906,8	31,195
907,2	27,995
907,6	34,195
908	30,024
908,5	33,367
908,9	31,538
909,3	30,967
909,7	26,881
910,2	28,481
910,6	24,71
911	24,138
911,4	16,881
911,9	17,652
912,3	16,91
912,7	17,91
913,1	15,881
913,6	18,11
914	13,995
914,4	16,91
914,8	14,31
915,3	18,595
915,7	13,881
916,1	12,767
916,5	13,738
916,9	16,767
917,4	18,395
917,8	14,538
918,2	11,224
918,6	17,081
919,1	21,281
919,5	21,538
919,9	25,167
920,3	24,024
920,8	28,424
921,2	31,624
921,6	27,824
922	21,938
922,5	20,338
922,9	18,024
923,3	20,681
923,7	17,767
924,2	14,824
924,6	14,538
925	18,995
925,4	16,624
925,8	17,624
926,3	18,052
926,7	23,71
927,1	23,967
927,5	27,052
928	23,167
928,4	24,938
928,8	27,195
929,2	24,71
929,7	15,538
930,1	19,51
930,5	17,11
930,9	23,967
931,3	26,481
931,8	21,252
932,2	19,424
932,6	28,881
933	23,91
933,5	26,795
933,9	22,281
934,3	16,624
934,7	20,224
935,2	23,71
935,6	20,652
936	20,081
936,4	18,252
936,8	15,481
937,3	18,281
937,7	15,71
938,1	9,852
938,5	5,852
939	9,652
939,4	6,424
939,8	8,795
940,2	9,567
940,6	7,824
941,1	13,424
941,5	16,195
941,9	14,51
942,3	17,624
942,8	19,024
943,2	11,595
943,6	14,567
944	11,681
944,4	7,024
944,9	7,31
945,3	8,024
945,7	9,51
946,1	15,395
946,6	12,967
947	15,538
947,4	16,395
947,8	18,938
948,2	15,652
948,7	11,252
949,1	7,967
949,5	9,51
949,9	13,452
950,3	13,91
950,8	10,767
951,2	13,995
951,6	21,595
952	23,052
952,5	19,138
952,9	11,967
953,3	16,024
953,7	17,538
954,1	14,767
954,6	10,338
955	10,967
955,4	12,738
955,8	18,481
956,2	18,452
956,7	16,595
957,1	19,595
957,5	15,481
957,9	17,595
958,3	18,767
958,8	18,338
959,2	13,052
959,6	12,71
960	12,567
960,5	10,395
960,9	8,11
961,3	4,081
961,7	-1,548
962,1	1,024
962,6	1,11
963	-1,919
963,4	4,138
963,8	6,367
964,2	8,624
964,7	9,052
965,1	12,424
965,5	12,595
965,9	15,967
966,3	11,452
966,8	9,395
967,2	11,624
967,6	11,31
968	9,481
968,4	8,967
968,9	8,624
969,3	10,31
969,7	8,681
970,1	6,11
970,5	11,338
971	8,424
971,4	11,738
971,8	9,11
972,2	10,224
972,6	13,052
973,1	17,71
973,5	16,195
973,9	21,881
974,3	18,052
974,7	16,452
975,2	13,052
975,6	7,538
976	7,71
976,4	5,395
976,8	3,767
977,3	7,567
977,7	10,31
978,1	11,824
978,5	16,881
978,9	13,91
979,4	13,395
979,8	13,081
980,2	6,795
980,6	3,052
981	8,738
981,5	7,995
981,9	7,138
982,3	6,595
982,7	8,395
983,1	13,767
983,6	12,852
984	10,395
984,4	10,424
984,8	9,538
985,2	10,824
985,6	9,395
986,1	5,881
986,5	6,195
986,9	4,052
987,3	4,881
987,7	7,767
988,2	9,424
988,6	8,024
989	10,367
989,4	16,424
989,8	14,338
990,3	17,824
990,7	14,738
991,1	9,852
991,5	6,824
991,9	10,567
992,3	8,167
992,8	16,595
993,2	13,852
993,6	17,395
994	17,938
994,4	24,281
994,9	21,767
995,3	20,71
995,7	14,738
996,1	11,224
996,5	6,138
996,9	6,681
997,4	1,824
997,8	1,795
998,2	2,652
998,6	3,081
999	6,424
999,5	8,881
999,9	12,995
1000,3	17,767
1000,7	16,024
1001,1	15,624
1001,5	12,938
1002	7,224
1002,4	6,081
1002,8	4,967
1003,2	2,738
1003,6	5,967
1004	7,252
1004,5	9,738
1004,9	10,938
1005,3	8,652
1005,7	5,024
1006,1	-0,919
1006,6	-3,948
1007	-5,69
1007,4	-9,262
1007,8	-5,748
1008,2	-6,548
1008,6	-6,69
1009,1	-6,205
1009,5	-1,833
1009,9	5,91
1010,3	9,852
1010,7	8,624
1011,1	16,338
1011,6	16,024
1012	18,938
1012,4	18,91
1012,8	9,167
1013,2	10,567
1013,6	7,795
1014,1	5,052
1014,5	8,31
1014,9	9,995
1015,3	3,652
1015,7	5,938
1016,1	2,652
1016,6	5,538
1017	6,452
1017,4	2,281
1017,8	1,31
1018,2	0,51
1018,6	5,281
1019,1	5,281
1019,5	5,481
1019,9	7,481
1020,3	8,538
1020,7	8,567
1021,1	12,567
1021,6	7,11
1022	5,51
1022,4	11,538
1022,8	8,481
1023,2	11,538
1023,6	11,938
1024,1	14,167
1024,5	13,852
1024,9	22,624
1025,3	18,938
1025,7	20,767
1026,1	19,31
1026,6	24,138
1027	20,767
1027,4	21,395
1027,8	16,881
1028,2	18,595
1028,6	19,024
1029	16,338
1029,5	9,138
1029,9	4,795
1030,3	8,481
1030,7	6,995
1031,1	0,567
1031,5	-4,833
1032	0,881
1032,4	-2,148
1032,8	-1,319
1033,2	-2,605
1033,6	1,281
1034	7,852
1034,4	15,224
1034,9	11,052
1035,3	20,995
1035,7	25,481
1036,1	26,367
1036,5	18,995
1036,9	16,424
1037,4	15,938
1037,8	19,652
1038,2	8,795
1038,6	3,767
1039	4,081
1039,4	8,424
1039,8	5,167
1040,3	-0,119
1040,7	-3,776
1041,1	1,738
1041,5	4,31
1041,9	-0,005
1042,3	1,652
1042,7	3,024
1043,2	1,681
1043,6	6,081
1044	8,367
1044,4	6,681
1044,8	6,681
1045,2	6,395
1045,6	10,138
1046,1	15,681
1046,5	17,624
1046,9	18,224
1047,3	17,595
1047,7	16,91
1048,1	13,31
1048,5	11,567
1049	12,538
1049,4	9,538
1049,8	6,738
1050,2	9,567
1050,6	15,281
1051	21,538
1051,4	19,595
1051,9	22,281
1052,3	16,052
1052,7	15,567
1053,1	17,767
1053,5	16,481
1053,9	10,51
1054,3	9,167
1054,8	9,31
1055,2	15,91
1055,6	15,824
1056	14,881
1056,4	14,881
1056,8	19,852
1057,2	22,795
1057,6	16,795
1058,1	13,681
1058,5	14,081
1058,9	16,338
1059,3	18,938
1059,7	12,395
1060,1	11,51
1060,5	9,424
1061	8,367
1061,4	14,052
1061,8	8,824
1062,2	5,281
1062,6	5,567
1063	5,567
1063,4	9,081
1063,8	12,51
1064,3	5,395
1064,7	5,71
1065,1	6,167
1065,5	10,395
1065,9	11,824
1066,3	7,481
1066,7	4,395
1067,1	2,481
1067,6	6,167
1068	4,195
1068,4	4,395
1068,8	3,024
1069,2	2,995
1069,6	4,252
1070	10,252
1070,4	8,71
1070,9	9,767
1071,3	6,51
1071,7	6,91
1072,1	10,31
1072,5	13,681
1072,9	13,395
1073,3	13,595
1073,7	7,624
1074,2	10,252
1074,6	10,938
1075	10,338
1075,4	6,395
1075,8	5,595
1076,2	5,881
1076,6	10,224
1077	9,138
1077,5	4,71
1077,9	4,938
1078,3	5,052
1078,7	4,91
1079,1	7,338
1079,5	2,91
1079,9	5,452
1080,3	7,081
1080,7	9,424
1081,2	12,738
1081,6	9,767
1082	8,91
1082,4	12,024
1082,8	9,767
1083,2	11,052
1083,6	8,281
1084	4,824
1084,5	3,567
1084,9	1,252
1085,3	1,11
1085,7	-3,833
1086,1	-6,376
1086,5	-2,919
1086,9	1,31
1087,3	5,767
1087,7	5,881
1088,2	5,824
1088,6	9,452
1089	13,167
1089,4	10,281
1089,8	9,681
1090,2	9,595
1090,6	7,767
1091	14,652
1091,4	17,138
1091,9	17,052
1092,3	18,052
1092,7	16,567
1093,1	13,252
1093,5	14,167
1093,9	14,567
1094,3	15,195
1094,7	16,881
1095,1	11,224
1095,5	8,195
1096	6,024
1096,4	9,424
1096,8	3,281
1097,2	1,367
1097,6	-1,033
1098	2,367
1098,4	2,652
1098,8	8,081
1099,2	8,052
1099,6	11,281
1100,1	11,11
1100,5	13,11
1100,9	13,71
1101,3	14,138
1101,7	18,395
1102,1	16,224
1102,5	13,852
1102,9	10,452
1103,3	8,71
1103,7	10,281
1104,2	12,624
1104,6	9,824
1105	9,652
1105,4	8,795
1105,8	11,452
1106,2	9,995
1106,6	6,595
1107	4,51
1107,4	0,867
1107,8	-0,553
1108,3	-0,033
