Data from Subt2_255.txt Node
Date: Sat Aug 26 18:59:53 MSK 2023
User: vat
Spectrometer: MAYP114033
Trigger mode: 0
Integration Time (sec): 1,000000E0
Scans to average: 5
Electric dark correction enabled: true
Nonlinearity correction enabled: false
Boxcar width: 3
XAxis mode: Wavelengths
Number of Pixels in Spectrum: 2068
>>>>>Begin Spectral Data<<<<<
199,4	-0,983
199,9	1,707
200,4	2,4
200,8	5,181
201,3	3,238
201,8	5,41
202,2	5,21
202,7	8,267
203,2	6,095
203,6	4,581
204,1	-0,276
204,6	3,81
205	1,781
205,5	-1,505
206	-2,105
206,4	0,181
206,9	1,41
207,4	5,552
207,8	0,295
208,3	0,838
208,8	3,552
209,2	4,267
209,7	6,838
210,2	9,01
210,6	5,495
211,1	9,067
211,5	7,41
212	9,095
212,5	7,038
212,9	0,81
213,4	-2,533
213,9	-3,733
214,3	-1,962
214,8	-0,705
215,3	-4,219
215,7	-1,276
216,2	4,867
216,7	8,667
217,1	8,038
217,6	10,267
218,1	9,552
218,5	10,895
219	3,181
219,5	-2,648
219,9	-7,705
220,4	3,152
220,9	-1,276
221,3	2,152
221,8	3,952
222,3	8,381
222,7	12,552
223,2	15,895
223,6	7,038
224,1	8,01
224,6	7,838
225	3,381
225,5	5,41
226	5,381
226,4	5,638
226,9	8,952
227,4	11,981
227,8	5,638
228,3	12,381
228,8	9,067
229,2	10,152
229,7	10,41
230,2	11,181
230,6	10,695
231,1	21,695
231,5	15,524
232	17,638
232,5	13,781
232,9	16,238
233,4	17,895
233,9	12,524
234,3	3,038
234,8	8,752
235,3	6,152
235,7	9,781
236,2	6,152
236,7	7,152
237,1	10,552
237,6	8,581
238,1	5,067
238,5	2,924
239	1,752
239,4	2,781
239,9	-3,333
240,4	-1,619
240,8	6,552
241,3	3,638
241,8	5,181
242,2	3,438
242,7	2,41
243,2	3,695
243,6	1,438
244,1	3,638
244,6	5,724
245	7,581
245,5	8,41
245,9	5,838
246,4	5,724
246,9	6,952
247,3	5,181
247,8	9,867
248,3	9,552
248,7	11,838
249,2	15,238
249,7	14,381
250,1	15,952
250,6	10,924
251	10,267
251,5	9,324
252	3,352
252,4	4,752
252,9	1,352
253,4	-5,276
253,8	-4,333
254,3	-4,848
254,8	-1,733
255,2	-1,848
255,7	-2,819
256,1	1,695
256,6	6,181
257,1	6,295
257,5	4,495
258	-0,133
258,5	6,181
258,9	5,981
259,4	2,952
259,9	3,924
260,3	3,952
260,8	2,952
261,2	7,124
261,7	5,324
262,2	-0,933
262,6	0,867
263,1	3,067
263,6	2,238
264	3,038
264,5	0,267
264,9	-3,362
265,4	0,61
265,9	-2,133
266,3	-2,619
266,8	1,438
267,3	-1,419
267,7	-1,276
268,2	3,038
268,7	5,295
269,1	6,952
269,6	3,638
270	4,438
270,5	6,21
271	7,238
271,4	2,095
271,9	-1,619
272,4	4,724
272,8	1,781
273,3	-3,733
273,7	1,152
274,2	2,524
274,7	4,324
275,1	5,352
275,6	2,638
276,1	2,695
276,5	7,724
277	4,81
277,4	4,81
277,9	7,324
278,4	6,152
278,8	5,752
279,3	11,124
279,8	11,752
280,2	13,41
280,7	16,267
281,1	13,095
281,6	18,467
282,1	18,267
282,5	15,038
283	11,238
283,4	5,752
283,9	4,267
284,4	6,981
284,8	2,381
285,3	-0,448
285,8	2,41
286,2	-0,505
286,7	1,267
287,1	-0,705
287,6	-1,076
288,1	-1,762
288,5	1,324
289	-2,076
289,5	2,924
289,9	5,152
290,4	8,61
290,8	6,61
291,3	9,181
291,8	9,124
292,2	11,01
292,7	14,295
293,1	15,038
293,6	12,181
294,1	12,41
294,5	10,495
295	12,638
295,5	14,21
295,9	11,581
296,4	7,381
296,8	6,295
297,3	7,838
297,8	5,581
298,2	2,695
298,7	4,752
299,1	3,381
299,6	4,552
300,1	4,438
300,5	3,952
301	11,438
301,5	14,695
301,9	11,181
302,4	5,524
302,8	8,238
303,3	9,238
303,8	6,781
304,2	1,21
304,7	-2,59
305,1	-5,333
305,6	1,295
306,1	4,238
306,5	4,238
307	9,067
307,4	14,495
307,9	16,152
308,4	16,124
308,8	11,467
309,3	8,924
309,8	8,038
310,2	10,181
310,7	2,867
311,1	1,238
311,6	6,41
312,1	8,952
312,5	8,438
313	10,01
313,4	8,924
313,9	12,21
314,4	12,924
314,8	2,581
315,3	5,095
315,7	1,181
316,2	-1,219
316,7	-7,276
317,1	-4,219
317,6	-2,476
318	7,952
318,5	3,41
319	3,124
319,4	6,438
319,9	13,667
320,3	8,295
320,8	6,21
321,3	4,581
321,7	9,438
322,2	14,438
322,6	11,467
323,1	5,181
323,6	10,067
324	10,524
324,5	9,095
324,9	10,924
325,4	10,467
325,9	16,295
326,3	20,895
326,8	20,552
327,2	13,181
327,7	12,924
328,2	9,095
328,6	9,438
329,1	-2,39
329,5	-4,105
330	-5,905
330,5	1,295
330,9	4,838
331,4	1,181
331,8	-0,133
332,3	13,067
332,8	13,695
333,2	15,41
333,7	16,638
334,1	13,838
334,6	16,581
335,1	13,552
335,5	8,124
336	3,752
336,4	0,381
336,9	2,924
337,4	4,295
337,8	4,981
338,3	10,324
338,7	14,038
339,2	17,152
339,7	21,895
340,1	15,152
340,6	12,952
341	10,352
341,5	5,381
342	-1,905
342,4	-3,248
342,9	-7,933
343,3	-4,39
343,8	-3,79
344,2	1,552
344,7	6,838
345,2	9,01
345,6	9,781
346,1	14,952
346,5	12,267
347	10,667
347,5	6,667
347,9	8,638
348,4	9,238
348,8	11,895
349,3	12,038
349,8	12,867
350,2	17,752
350,7	16,638
351,1	12,952
351,6	17,981
352	17,324
352,5	19,467
353	25,952
353,4	29,838
353,9	43,838
354,3	53,552
354,8	61,41
355,3	80,981
355,7	98,467
356,2	121,124
356,6	140,638
357,1	162,21
357,5	193,695
358	226,695
358,5	255,438
358,9	292,524
359,4	330,038
359,8	377,581
360,3	431,924
360,8	486,238
361,2	551,838
361,7	627,838
362,1	713,581
362,6	808,752
363	904,438
363,5	1005,152
364	1113,324
364,4	1223,695
364,9	1338,667
365,3	1446,467
365,8	1543,067
366,3	1639,095
366,7	1725,524
367,2	1799,524
367,6	1861,01
368,1	1909,838
368,5	1937,181
369	1954,467
369,5	1958,981
369,9	1947,467
370,4	1926,524
370,8	1882,61
371,3	1820,181
371,7	1759,781
372,2	1683,695
372,7	1602,238
373,1	1516,695
373,6	1424,267
374	1337,638
374,5	1249,781
374,9	1158,381
375,4	1075,781
375,9	993,752
376,3	915,095
376,8	839,638
377,2	770,924
377,7	705,695
378,2	644,752
378,6	588,124
379,1	536,752
379,5	494,067
380	457,181
380,4	415,752
380,9	380,838
381,4	348,552
381,8	327,61
382,3	305,381
382,7	279,381
383,2	257,381
383,6	243,524
384,1	228,181
384,6	218,238
385	200,095
385,5	185,067
385,9	172,581
386,4	158,724
386,8	147,952
387,3	135,467
387,7	124,295
388,2	116,781
388,7	108,524
389,1	99,581
389,6	91,895
390	83,21
390,5	81,924
390,9	77,352
391,4	71,895
391,9	72,981
392,3	71,781
392,8	69,838
393,2	65,81
393,7	59,952
394,1	53,752
394,6	51,61
395,1	44,352
395,5	43,01
396	42,81
396,4	40,924
396,9	42,381
397,3	45,124
397,8	48,295
398,2	50,581
398,7	45,981
399,2	41,038
399,6	45,41
400,1	40,152
400,5	34,238
401	33,324
401,4	28,667
401,9	30,638
402,4	34,981
402,8	28,238
403,3	35,324
403,7	33,895
404,2	30,124
404,6	31,524
405,1	28,152
405,5	24,552
406	23,267
406,5	18,067
406,9	18,181
407,4	15,181
407,8	16,552
408,3	22,352
408,7	21,01
409,2	29,724
409,6	29,952
410,1	35,895
410,6	42,038
411	41,067
411,5	40,981
411,9	44,495
412,4	43,581
412,8	47,752
413,3	49,61
413,7	48,352
414,2	50,238
414,7	57,095
415,1	64,21
415,6	65,295
416	67,695
416,5	71,181
416,9	76,724
417,4	82,981
417,8	85,067
418,3	85,667
418,8	94,438
419,2	97,438
419,7	98,924
420,1	97,267
420,6	96,181
421	94,924
421,5	98,438
421,9	95,01
422,4	99,21
422,8	96,295
423,3	98,867
423,8	99,752
424,2	94,952
424,7	90,638
425,1	89,381
425,6	87,924
426	92,952
426,5	91,41
426,9	93,381
427,4	96,695
427,9	94,41
428,3	95,21
428,8	88,495
429,2	85,581
429,7	84,352
430,1	80,438
430,6	78,438
431	80,038
431,5	83,81
431,9	81,895
432,4	85,438
432,8	92,781
433,3	99,067
433,8	100,01
434,2	103,495
434,7	104,067
435,1	109,895
435,6	112,552
436	115,438
436,5	119,781
436,9	124,467
437,4	129,238
437,8	127,467
438,3	136,638
438,8	140,495
439,2	138,352
439,7	144,067
440,1	147,61
440,6	159,524
441	166,724
441,5	169,352
441,9	176,095
442,4	185,667
442,8	191,61
443,3	206,867
443,7	210,124
444,2	223,952
444,7	231,695
445,1	241,638
445,6	252,752
446	260,324
446,5	261,438
446,9	264,667
447,4	270,01
447,8	284,924
448,3	295,581
448,7	307,61
449,2	319,238
449,6	340,952
450,1	356,724
450,6	374,124
451	382,581
451,5	395,667
451,9	411,067
452,4	433,981
452,8	444,952
453,3	464,952
453,7	478,152
454,2	505,581
454,6	522,695
455,1	536,495
455,5	540,724
456	559,952
456,4	571,952
456,9	591,324
457,3	603,152
457,8	623,467
458,3	649,152
458,7	668,638
459,2	687,41
459,6	710,895
460,1	732,095
460,5	751,295
461	773,152
461,4	787,638
461,9	814,381
462,3	837,552
462,8	859,067
463,2	879,21
463,7	906,981
464,1	935,581
464,6	966,038
465	992,381
465,5	1019,952
466	1049,638
466,4	1079,352
466,9	1111,01
467,3	1133,695
467,8	1159,324
468,2	1191,067
468,7	1217,838
469,1	1246,524
469,6	1275,181
470	1296,752
470,5	1322,467
470,9	1349,295
471,4	1367,981
471,8	1396,21
472,3	1422,667
472,7	1448,381
473,2	1471,038
473,6	1496,21
474,1	1525,724
474,5	1555,838
475	1581,61
475,4	1609,867
475,9	1636,724
476,4	1663,581
476,8	1696,181
477,3	1719,895
477,7	1752,552
478,2	1778,067
478,6	1803,381
479,1	1828,467
479,5	1859,067
480	1879,295
480,4	1904,495
480,9	1925,838
481,3	1946,352
481,8	1965,524
482,2	1987,01
482,7	2013,924
483,1	2034,267
483,6	2052,638
484	2070,438
484,5	2094,352
484,9	2114,781
485,4	2135,981
485,8	2151,495
486,3	2175,81
486,7	2196,638
487,2	2220,095
487,6	2235,095
488,1	2250,895
488,5	2262,552
489	2279,324
489,4	2298,067
489,9	2310,638
490,4	2325,01
490,8	2338,067
491,3	2362,21
491,7	2376,981
492,2	2390,81
492,6	2400,552
493,1	2418,267
493,5	2423,81
494	2436,752
494,4	2445,467
494,9	2460,695
495,3	2472,152
495,8	2479,181
496,2	2492,781
496,7	2504,267
497,1	2520,438
497,6	2526,152
498	2533,381
498,5	2540,781
498,9	2549,867
499,4	2549,524
499,8	2564,924
500,3	2572,238
500,7	2581,124
501,2	2584,867
501,6	2585,41
502,1	2597,067
502,5	2609,038
503	2609,781
503,4	2612,981
503,9	2615,638
504,3	2632,01
504,8	2641,981
505,2	2642,61
505,7	2646,781
506,1	2658,924
506,6	2660,552
507	2661,438
507,5	2663,295
507,9	2673,124
508,4	2681,21
508,8	2689,638
509,3	2690,781
509,7	2703,638
510,2	2714,895
510,6	2716,638
511,1	2723,238
511,5	2729,724
512	2731,552
512,4	2736,524
512,9	2739,21
513,3	2744,495
513,8	2756,324
514,2	2759,124
514,7	2768,781
515,1	2774,524
515,6	2776,781
516	2779,095
516,5	2785,181
516,9	2786,467
517,4	2791,21
517,8	2791,638
518,3	2792,724
518,7	2793,924
519,2	2799,152
519,6	2804,838
520,1	2807,981
520,5	2809,21
521	2811,81
521,4	2821,095
521,9	2834,038
522,3	2842,41
522,8	2837,295
523,2	2843,552
523,7	2852,467
524,1	2854,095
524,6	2859,952
525	2864,352
525,5	2868,352
525,9	2887,752
526,4	2889,495
526,8	2893,581
527,3	2906,152
527,7	2914,152
528,2	2918,524
528,6	2921,295
529,1	2922,667
529,5	2939,981
530	2943,352
530,4	2947,352
530,9	2954,667
531,3	2968,067
531,8	2976,952
532,2	2986,895
532,6	2989,724
533,1	2998,067
533,5	3011,324
534	3018,181
534,4	3023,238
534,9	3034,752
535,3	3040,352
535,8	3050,095
536,2	3061,638
536,7	3065,238
537,1	3070,324
537,6	3074,181
538	3081,181
538,5	3094,067
538,9	3098,181
539,4	3109,01
539,8	3118,495
540,3	3129,324
540,7	3140,495
541,2	3147,981
541,6	3150,438
542,1	3159,581
542,5	3166,124
543	3169,924
543,4	3178,838
543,9	3188,295
544,3	3196,238
544,8	3202,21
545,2	3206,295
545,7	3212,61
546,1	3228,495
546,5	3238,067
547	3239,924
547,4	3247,895
547,9	3264,152
548,3	3278,581
548,8	3286,81
549,2	3284,867
549,7	3286,324
550,1	3300,61
550,6	3303,695
551	3306,467
551,5	3308,581
551,9	3316,238
552,4	3327,752
552,8	3332,324
553,3	3337,667
553,7	3343,895
554,2	3350,924
554,6	3362,067
555,1	3370,638
555,5	3375,067
555,9	3388,952
556,4	3389,667
556,8	3403,867
557,3	3411,067
557,7	3417,838
558,2	3419,724
558,6	3426,667
559,1	3427,267
559,5	3437,981
560	3442,095
560,4	3447,752
560,9	3449,238
561,3	3456,152
561,8	3460,381
562,2	3472,724
562,7	3475,495
563,1	3481,324
563,6	3478,581
564	3483,667
564,4	3490,095
564,9	3498,924
565,3	3497,124
565,8	3500,867
566,2	3498,324
566,7	3505,267
567,1	3511,124
567,6	3513,238
568	3511,381
568,5	3513,295
568,9	3517,952
569,4	3524,581
569,8	3527,61
570,3	3526,381
570,7	3525,095
571,1	3523,495
571,6	3525,495
572	3524,381
572,5	3532,324
572,9	3533,438
573,4	3536,524
573,8	3537,695
574,3	3538,381
574,7	3542,981
575,2	3539,924
575,6	3530,924
576,1	3536,667
576,5	3540,438
576,9	3536,695
577,4	3537,352
577,8	3531,01
578,3	3529,724
578,7	3525,01
579,2	3519,695
579,6	3510,152
580,1	3507,638
580,5	3508,695
581	3510,895
581,4	3508,467
581,9	3510,267
582,3	3504,238
582,7	3499,952
583,2	3494,61
583,6	3488,524
584,1	3479,324
584,5	3478,21
585	3468,01
585,4	3454,981
585,9	3451,895
586,3	3453,581
586,8	3447,238
587,2	3444,438
587,6	3438,324
588,1	3441,095
588,5	3444,695
589	3437,41
589,4	3429,924
589,9	3424,381
590,3	3416,524
590,8	3413,581
591,2	3406,352
591,7	3398,295
592,1	3395,352
592,5	3388,752
593	3382,724
593,4	3373,867
593,9	3362,467
594,3	3352,867
594,8	3351,438
595,2	3345,038
595,7	3342,381
596,1	3336,067
596,6	3330,695
597	3327,067
597,4	3325,41
597,9	3310,724
598,3	3308,124
598,8	3301,038
599,2	3300,324
599,7	3304,495
600,1	3294,381
600,6	3281,524
601	3282,352
601,4	3282,895
601,9	3277,838
602,3	3266,21
602,8	3250,895
603,2	3244,61
603,7	3246,61
604,1	3241,01
604,6	3221,867
605	3207,838
605,4	3205,295
605,9	3195,124
606,3	3189,752
606,8	3169,524
607,2	3156,41
607,7	3145,095
608,1	3144,667
608,6	3127,752
609	3121,467
609,4	3109,352
609,9	3106,038
610,3	3095,181
610,8	3085,067
611,2	3070,695
611,7	3063,61
612,1	3055,21
612,6	3049,695
613	3040,124
613,4	3028,267
613,9	3016,095
614,3	2993,038
614,8	2981,781
615,2	2965,152
615,7	2954,124
616,1	2938,952
616,6	2928,667
617	2920,867
617,4	2918,038
617,9	2911,552
618,3	2907,21
618,8	2894,781
619,2	2880,01
619,7	2868,41
620,1	2859,581
620,5	2848,838
621	2830,695
621,4	2815,095
621,9	2803,152
622,3	2797,438
622,8	2786,067
623,2	2775,124
623,6	2765,181
624,1	2753,295
624,5	2742,267
625	2734,981
625,4	2718,667
625,9	2708,352
626,3	2689,067
626,8	2669,724
627,2	2659,952
627,6	2639,324
628,1	2621,781
628,5	2615,61
629	2592,495
629,4	2578,724
629,9	2573,952
630,3	2557,524
630,7	2548,438
631,2	2530,267
631,6	2514,352
632,1	2509,095
632,5	2498,152
633	2484,238
633,4	2470,067
633,8	2460,324
634,3	2447,21
634,7	2428,981
635,2	2413,61
635,6	2403,21
636,1	2387,01
636,5	2370,981
636,9	2356,152
637,4	2346,124
637,8	2337,81
638,3	2326,867
638,7	2316,152
639,2	2303,324
639,6	2299,324
640	2284,752
640,5	2273,067
640,9	2257,495
641,4	2251,895
641,8	2239,667
642,2	2234,438
642,7	2224,924
643,1	2222,124
643,6	2211,152
644	2205,781
644,5	2188,667
644,9	2180,438
645,3	2165,095
645,8	2150,838
646,2	2138,467
646,7	2133,095
647,1	2119,952
647,6	2109,095
648	2095,295
648,4	2080,067
648,9	2072,952
649,3	2056,752
649,8	2040,638
650,2	2032,124
650,6	2025,21
651,1	2011,695
651,5	2012,524
652	1997,095
652,4	1985,61
652,9	1975,295
653,3	1964,495
653,7	1950,81
654,2	1943,324
654,6	1923,952
655,1	1918,695
655,5	1913,324
655,9	1901,21
656,4	1887,124
656,8	1874,295
657,3	1863,838
657,7	1853,61
658,2	1834,238
658,6	1820,638
659	1813,267
659,5	1800,552
659,9	1795,352
660,4	1785,667
660,8	1774,81
661,2	1766,81
661,7	1758,267
662,1	1747,267
662,6	1734,21
663	1717,352
663,4	1700,324
663,9	1693,552
664,3	1683,724
664,8	1668,695
665,2	1655,924
665,6	1646,81
666,1	1640,781
666,5	1629,724
667	1615,867
667,4	1602,324
667,9	1592,838
668,3	1579,352
668,7	1574,21
669,2	1563,095
669,6	1562,838
670,1	1555,41
670,5	1547,124
670,9	1539,152
671,4	1528,581
671,8	1518,238
672,3	1511,152
672,7	1493,352
673,1	1476,581
673,6	1468,295
674	1459,295
674,5	1451,467
674,9	1436,81
675,3	1420,638
675,8	1417,095
676,2	1407,267
676,7	1398,152
677,1	1386,495
677,5	1380,552
678	1376,41
678,4	1372,638
678,9	1358,61
679,3	1349,81
679,7	1344,381
680,2	1330,638
680,6	1317,467
681,1	1308,667
681,5	1302,781
681,9	1293,61
682,4	1288,838
682,8	1277,895
683,3	1282,381
683,7	1279,238
684,1	1270,61
684,6	1261,781
685	1254,695
685,5	1245,752
685,9	1232,238
686,3	1215,467
686,8	1206,695
687,2	1195,895
687,7	1181,038
688,1	1171,695
688,5	1166,495
689	1161,295
689,4	1152,324
689,9	1143,152
690,3	1130,381
690,7	1129,895
691,2	1126,01
691,6	1115,41
692	1108,695
692,5	1103,295
692,9	1093,552
693,4	1091,867
693,8	1080,21
694,2	1065,181
694,7	1057,81
695,1	1047,895
695,6	1039,41
696	1036,952
696,4	1028,867
696,9	1021,181
697,3	1017,81
697,8	1010,895
698,2	1003,581
698,6	1000,438
699,1	989,838
699,5	984,695
699,9	978,981
700,4	973,352
700,8	969,381
701,3	966,067
701,7	954,21
702,1	947,924
702,6	943,267
703	938,61
703,5	931,438
703,9	917,552
704,3	909,181
704,8	905,981
705,2	896,924
705,6	886,067
706,1	877,524
706,5	868,895
707	868,324
707,4	861,838
707,8	851,21
708,3	851,41
708,7	848,381
709,2	839,352
709,6	837,552
710	837,41
710,5	833,21
710,9	832,638
711,3	824,81
711,8	818,41
712,2	818,438
712,7	810,381
713,1	798,724
713,5	792,952
714	785,238
714,4	780,352
714,8	776,724
715,3	767,81
715,7	765,267
716,2	759,581
716,6	754,924
717	750,295
717,5	740,667
717,9	738,324
718,3	731,124
718,8	722,095
719,2	720,095
719,7	709,038
720,1	703,781
720,5	704,867
721	691,41
721,4	689,295
721,8	688,124
722,3	676,61
722,7	680,924
723,2	670,238
723,6	655,181
724	651,381
724,5	641,095
724,9	635,152
725,3	631,467
725,8	623,267
726,2	621,61
726,7	619,952
727,1	615,752
727,5	613,638
728	606,381
728,4	606,067
728,8	601,238
729,3	594,724
729,7	590,381
730,1	589,01
730,6	585,21
731	581,61
731,5	576,467
731,9	568,867
732,3	570,895
732,8	573,238
733,2	568,752
733,6	564,095
734,1	565,895
734,5	563,581
734,9	564,695
735,4	558,924
735,8	549,981
736,3	549,038
736,7	551,324
737,1	541,781
737,6	536,467
738	534,81
738,4	530,324
738,9	530,61
739,3	523,581
739,7	519,667
740,2	517,552
740,6	518,01
741,1	513,21
741,5	510,638
741,9	502,581
742,4	506,124
742,8	502,695
743,2	500,21
743,7	491,81
744,1	485,067
744,5	483,81
745	480,781
745,4	472,867
745,8	467,324
746,3	466,952
746,7	464,952
747,2	463,124
747,6	465,638
748	469,038
748,5	470,324
748,9	464,467
749,3	458,41
749,8	453,41
750,2	453,324
750,6	441,838
751,1	435,095
751,5	429,21
751,9	429,752
752,4	429,352
752,8	429,895
753,3	425,467
753,7	426,295
754,1	421,752
754,6	415,781
755	408,81
755,4	403,724
755,9	398,495
756,3	393,495
756,7	387,295
757,2	387,381
757,6	387,352
758	385,552
758,5	381,067
758,9	381,981
759,3	382,552
759,8	380,867
760,2	379,381
760,6	376,524
761,1	374,152
761,5	375,781
761,9	372,324
762,4	367,981
762,8	363,867
763,3	355,752
763,7	352,324
764,1	354,41
764,6	351,838
765	346,438
765,4	345,581
765,9	344,01
766,3	343,267
766,7	340,495
767,2	333,295
767,6	332,81
768	331,267
768,5	328,667
768,9	330,41
769,3	328,552
769,8	325,81
770,2	327,667
770,6	321,724
771,1	323,552
771,5	321,038
771,9	317,067
772,4	321,467
772,8	318,352
773,2	317,438
773,7	315,267
774,1	309,981
774,5	305,381
775	303,895
775,4	298,238
775,8	297,838
776,3	297,495
776,7	295,581
777,1	292,495
777,6	290,352
778	291,724
778,4	286,238
778,9	284,867
779,3	277,695
779,7	274,524
780,2	272,838
780,6	272,552
781	264,752
781,5	258,41
781,9	254,181
782,3	252,124
782,8	253,724
783,2	253,152
783,6	253,095
784,1	248,924
784,5	249,438
784,9	250,781
785,4	253,124
785,8	251,838
786,2	251,152
786,7	248,638
787,1	247,895
787,5	248,181
788	246,124
788,4	243,352
788,8	239,181
789,3	236,81
789,7	238,667
790,1	237,667
790,6	242,638
791	236,095
791,4	234,667
791,9	227,181
792,3	218,867
792,7	218,152
793,2	212,895
793,6	206,524
794	207,981
794,5	200,724
794,9	206,381
795,3	211,752
795,8	206,267
796,2	209,381
796,6	208,467
797,1	207,41
797,5	206,638
797,9	201,238
798,4	195,752
798,8	191,695
799,2	189,552
799,7	190,581
800,1	187,752
800,5	188,152
801	189,067
801,4	188,552
801,8	184,924
802,2	181,867
802,7	176,867
803,1	177,467
803,5	175,952
804	172,324
804,4	175,667
804,8	180,867
805,3	185,324
805,7	184,981
806,1	181,752
806,6	181,01
807	178,524
807,4	175,495
807,9	169,21
808,3	166,524
808,7	164,067
809,2	164,438
809,6	166,781
810	171,181
810,4	167,695
810,9	168,667
811,3	163,21
811,7	165,152
812,2	167,495
812,6	161,21
813	158,038
813,5	158,41
813,9	157,295
814,3	158,924
814,8	152,067
815,2	147,895
815,6	146,981
816,1	146,752
816,5	145,438
816,9	145,095
817,3	144,152
817,8	152,581
818,2	149,152
818,6	148,81
819,1	146,124
819,5	145,81
819,9	144,981
820,4	143,238
820,8	136,667
821,2	135,324
821,7	138,01
822,1	138,838
822,5	141,038
822,9	140,81
823,4	137,695
823,8	137,581
824,2	138,495
824,7	133,067
825,1	128,581
825,5	119,61
826	113,01
826,4	112,581
826,8	109,038
827,3	109,324
827,7	107,295
828,1	107,438
828,5	112,981
829	111,352
829,4	112,61
829,8	111,038
830,3	111,924
830,7	110,295
831,1	111,867
831,6	107,81
832	110,581
832,4	106,124
832,8	107,838
833,3	101,067
833,7	98,724
834,1	99,124
834,6	97,267
835	99,438
835,4	103,438
835,8	97,038
836,3	96,381
836,7	102,381
837,1	97,667
837,6	102,467
838	97,495
838,4	95,324
838,9	98,867
839,3	100,867
839,7	98,095
840,1	94,038
840,6	86,724
841	86,438
841,4	85,924
841,9	86,438
842,3	83,781
842,7	84,867
843,1	86,638
843,6	92,924
844	91,667
844,4	92,267
844,9	92,552
845,3	90,752
845,7	90,21
846,2	90,095
846,6	81,295
847	84,152
847,4	86,495
847,9	85,238
848,3	84,181
848,7	83,21
849,2	84,267
849,6	82,638
850	85,238
850,4	78,981
850,9	80,695
851,3	80,581
851,7	77,81
852,2	73,295
852,6	75,81
853	74,638
853,4	76,752
853,9	68,61
854,3	70,867
854,7	70,638
855,2	70,81
855,6	71,81
856	64,495
856,4	61,01
856,9	64,381
857,3	63,095
857,7	64,038
858,2	69,21
858,6	68,895
859	73,981
859,4	77,267
859,9	74,838
860,3	73,581
860,7	69,581
861,1	65,324
861,6	63,81
862	59,095
862,4	55,352
862,9	58,495
863,3	60,352
863,7	61,952
864,1	63,238
864,6	59,181
865	60,067
865,4	61,981
865,9	59,695
866,3	52,981
866,7	52,267
867,1	48,81
867,6	54,781
868	51,81
868,4	47,124
868,8	44,838
869,3	49,695
869,7	53,352
870,1	51,095
870,6	47,638
871	3,01
871,4	10,581
871,8	11,295
872,3	10,467
872,7	5,124
873,1	9,181
873,5	11,781
874	56,352
874,4	50,467
874,8	47,781
875,3	48,724
875,7	45,41
876,1	44,41
876,5	38,952
877	37,181
877,4	35,324
877,8	40,41
878,2	41,01
878,7	44,381
879,1	41,181
879,5	43,467
879,9	45,467
880,4	47,781
880,8	44,352
881,2	44,324
881,7	43,01
882,1	47,238
882,5	44,924
882,9	43,438
883,4	41,01
883,8	43,41
884,2	38,952
884,6	37,067
885,1	34,61
885,5	37,21
885,9	38,267
886,3	40,838
886,8	37,067
887,2	37,867
887,6	41,781
888	43,152
888,5	41,952
888,9	38,524
889,3	33,638
889,8	33,638
890,2	34,952
890,6	30,038
891	29,667
891,5	30,152
891,9	33,095
892,3	34,295
892,7	35,838
893,2	38,61
893,6	43,695
894	42,067
894,4	40,181
894,9	38,124
895,3	38,581
895,7	40,581
896,1	35,867
896,6	30,638
897	29,867
897,4	35,838
897,8	39,067
898,3	38,81
898,7	35,038
899,1	35,267
899,5	36,61
900	32,21
900,4	28,238
900,8	20,867
901,2	21,181
901,7	21,352
902,1	21,095
902,5	23,438
902,9	26,695
903,4	26,695
903,8	33,581
904,2	31,981
904,6	31,467
905,1	33,495
905,5	33,438
905,9	35,467
906,3	38,381
906,8	37,038
907,2	38,924
907,6	41,524
908	40,352
908,5	36,781
908,9	33,924
909,3	30,324
909,7	29,667
910,2	29,695
910,6	31,495
911	25,267
911,4	30,781
911,9	30,552
912,3	31,61
912,7	35,267
913,1	34,038
913,6	33,438
914	40,381
914,4	30,981
914,8	32,181
915,3	26,781
915,7	24,552
916,1	22,067
916,5	20,867
916,9	21,61
917,4	24,124
917,8	25,981
918,2	25,524
918,6	22,752
919,1	23,324
919,5	21,21
919,9	18,867
920,3	18,867
920,8	13,381
921,2	15,524
921,6	11,152
922	12,324
922,5	9,524
922,9	7,381
923,3	7,752
923,7	11,924
924,2	10,467
924,6	13,467
925	11,924
925,4	12,095
925,8	9,638
926,3	10,181
926,7	9,467
927,1	11,695
927,5	13,438
928	12,067
928,4	10,667
928,8	11,924
929,2	9,867
929,7	6,324
930,1	6,21
930,5	1,352
930,9	9,095
931,3	14,067
931,8	16,21
932,2	15,581
932,6	16,724
933	9,867
933,5	14,381
933,9	9,695
934,3	10,467
934,7	5,438
935,2	12,238
935,6	16,524
936	20,952
936,4	20,095
936,8	20,438
937,3	14,267
937,7	20,124
938,1	17,895
938,5	12,867
939	16,381
939,4	21,638
939,8	18,867
940,2	18,038
940,6	18,981
941,1	16,724
941,5	24,724
941,9	18,095
942,3	12,781
942,8	14,895
943,2	15,924
943,6	10,924
944	9,81
944,4	4,238
944,9	6,781
945,3	7,695
945,7	4,095
946,1	3,324
946,6	6,952
947	9,581
947,4	10,695
947,8	13,181
948,2	9,981
948,7	14,181
949,1	15,124
949,5	17,724
949,9	17,981
950,3	17,352
950,8	13,81
951,2	14,924
951,6	9,181
952	15,095
952,5	5,667
952,9	8,438
953,3	7,181
953,7	6,552
954,1	11,581
954,6	16,581
955	14,181
955,4	18,724
955,8	17,867
956,2	15,61
956,7	17,81
957,1	9,752
957,5	12,667
957,9	12,867
958,3	10,695
958,8	11,552
959,2	18,124
959,6	21,352
960	20,752
960,5	20,552
960,9	18,81
961,3	19,638
961,7	15,438
962,1	6,724
962,6	7,238
963	14,01
963,4	11,124
963,8	10,981
964,2	13,952
964,7	14,267
965,1	21,038
965,5	19,781
965,9	19,781
966,3	21,952
966,8	22,695
967,2	19,21
967,6	18,21
968	14,61
968,4	10,724
968,9	10,381
969,3	10,238
969,7	8,181
970,1	11,238
970,5	8,524
971	15,152
971,4	19,21
971,8	19,752
972,2	17,81
972,6	16,524
973,1	15,695
973,5	15,638
973,9	9,752
974,3	9,667
974,7	9,61
975,2	9,495
975,6	9,724
976	10,152
976,4	9,61
976,8	12,095
977,3	6,61
977,7	5,267
978,1	5,695
978,5	7,41
978,9	7,152
979,4	7,667
979,8	7,324
980,2	12,581
980,6	7,438
981	6,81
981,5	7,124
981,9	8,095
982,3	12,438
982,7	9,667
983,1	2,667
983,6	6,181
984	9,467
984,4	9,924
984,8	9,81
985,2	9,61
985,6	9,152
986,1	14,867
986,5	16,667
986,9	9,095
987,3	9,638
987,7	6,81
988,2	5,61
988,6	8,467
989	6,61
989,4	3,095
989,8	6,095
990,3	4,181
990,7	5,867
991,1	4,352
991,5	5,752
991,9	11,01
992,3	13,981
992,8	16,838
993,2	20,381
993,6	21,295
994	27,581
994,4	23,467
994,9	20,095
995,3	17,01
995,7	14,41
996,1	9,095
996,5	5,952
996,9	-2,676
997,4	0,781
997,8	-7,362
998,2	-7,333
998,6	-10,305
999	-7,905
999,5	-8,476
999,9	-4,59
1000,3	-8,99
1000,7	-2,248
1001,1	-4,79
1001,5	-0,619
1002	2,695
1002,4	6,41
1002,8	4,152
1003,2	10,01
1003,6	11,381
1004	17,781
1004,5	14,581
1004,9	11,581
1005,3	9,238
1005,7	14,61
1006,1	10,981
1006,6	9,781
1007	10,152
1007,4	9,495
1007,8	11,895
1008,2	6,238
1008,6	5,467
1009,1	6,324
1009,5	4,467
1009,9	7,724
1010,3	14,038
1010,7	10,838
1011,1	17,781
1011,6	17,524
1012	21,552
1012,4	21,067
1012,8	13,21
1013,2	13,952
1013,6	16,067
1014,1	15,61
1014,5	15,695
1014,9	10,61
1015,3	11,695
1015,7	14,981
1016,1	9,667
1016,6	9,352
1017	8,381
1017,4	5,352
1017,8	6,781
1018,2	10,667
1018,6	5,952
1019,1	8,295
1019,5	8,067
1019,9	4,81
1020,3	7,181
1020,7	8,552
1021,1	5,867
1021,6	9,152
1022	6,352
1022,4	2,21
1022,8	9,438
1023,2	6,867
1023,6	6,438
1024,1	9,838
1024,5	12,438
1024,9	11,295
1025,3	14,495
1025,7	8,381
1026,1	12,038
1026,6	10,181
1027	7,524
1027,4	7,924
1027,8	10,41
1028,2	8,41
1028,6	16,181
1029	15,867
1029,5	18,181
1029,9	14,981
1030,3	2,952
1030,7	5,838
1031,1	4,61
1031,5	-4,333
1032	-9,848
1032,4	-14,133
1032,8	-7,19
1033,2	-0,533
1033,6	-3,505
1034	-1,476
1034,4	1,924
1034,9	7,181
1035,3	7,552
1035,7	5,695
1036,1	7,152
1036,5	2,61
1036,9	1,952
1037,4	5,867
1037,8	2,01
1038,2	2,524
1038,6	1,41
1039	6,695
1039,4	15,267
1039,8	14,581
1040,3	13,724
1040,7	12,438
1041,1	13,981
1041,5	17,981
1041,9	13,981
1042,3	12,467
1042,7	13,952
1043,2	11,981
1043,6	15,095
1044	9,924
1044,4	6,152
1044,8	6,952
1045,2	6,495
1045,6	6,667
1046,1	1,667
1046,5	1,61
1046,9	6,667
1047,3	6,152
1047,7	3,01
1048,1	-2,248
1048,5	-1,219
1049	5,295
1049,4	8,067
1049,8	8,438
1050,2	9,895
1050,6	16,724
1051	21,467
1051,4	20,81
1051,9	17,152
1052,3	22,295
1052,7	22,924
1053,1	19,41
1053,5	18,552
1053,9	20,952
1054,3	20,495
1054,8	26,067
1055,2	18,867
1055,6	19,724
1056	22,438
1056,4	18,324
1056,8	15,524
1057,2	16,095
1057,6	12,124
1058,1	10,01
1058,5	6,324
1058,9	5,895
1059,3	6,438
1059,7	9,324
1060,1	8,467
1060,5	6,095
1061	12,924
1061,4	12,095
1061,8	13,838
1062,2	11,038
1062,6	10,01
1063	11,124
1063,4	12,924
1063,8	8,01
1064,3	5,981
1064,7	3,238
1065,1	5,495
1065,5	-2,905
1065,9	-7,133
1066,3	-8,79
1066,7	-11,562
1067,1	-6,39
1067,6	-2,848
1068	-3,505
1068,4	3,01
1068,8	8,095
1069,2	12,81
1069,6	14,352
1070	13,895
1070,4	12,467
1070,9	12,781
1071,3	11,267
1071,7	9,867
1072,1	6,038
1072,5	6,924
1072,9	4,295
1073,3	3,067
1073,7	-0,476
1074,2	1,152
1074,6	3,495
1075	5,21
1075,4	1,952
1075,8	6,01
1076,2	8,267
1076,6	13,438
1077	14,067
1077,5	16,381
1077,9	16,552
1078,3	18,181
1078,7	13,495
1079,1	8,381
1079,5	9,495
1079,9	10,152
1080,3	4,752
1080,7	4,267
1081,2	7,638
1081,6	7,067
1082	10,238
1082,4	12,838
1082,8	9,667
1083,2	9,267
1083,6	9,81
1084	6,695
1084,5	13,981
1084,9	10,552
1085,3	3,152
1085,7	2,81
1086,1	3,095
1086,5	4,152
1086,9	9,181
1087,3	4,81
1087,7	8,095
1088,2	13,638
1088,6	15,667
1089	19,152
1089,4	18,181
1089,8	14,81
1090,2	12,21
1090,6	9,781
1091	11,952
1091,4	13,895
1091,9	8,181
1092,3	7,724
1092,7	5,724
1093,1	11,981
1093,5	14,781
1093,9	10,838
1094,3	9,038
1094,7	13,267
1095,1	12,41
1095,5	15,467
1096	12,324
1096,4	10,724
1096,8	8,41
1097,2	10,752
1097,6	15,438
1098	17,095
1098,4	19,61
1098,8	16,781
1099,2	23,467
1099,6	22,724
1100,1	19,038
1100,5	11,524
1100,9	12,152
1101,3	7,895
1101,7	8,124
1102,1	1,581
1102,5	5,467
1102,9	10,352
1103,3	14,324
1103,7	11,552
1104,2	8,581
1104,6	11,467
1105	10,038
1105,4	5,667
1105,8	0,095
1106,2	-2,59
1106,6	-2,533
1107	-0,305
1107,4	-2,767
1107,8	-2,413
1108,3	-0,483
