Data from Subt2_123.txt Node
Date: Sat Aug 26 18:24:13 MSK 2023
User: vat
Spectrometer: MAYP114033
Trigger mode: 0
Integration Time (sec): 1,000000E0
Scans to average: 5
Electric dark correction enabled: true
Nonlinearity correction enabled: false
Boxcar width: 3
XAxis mode: Wavelengths
Number of Pixels in Spectrum: 2068
>>>>>Begin Spectral Data<<<<<
199,4	-1,017
199,9	-0,347
200,4	-1,433
200,8	-1,01
201,3	0,905
201,8	4,305
202,2	1,533
202,7	7,505
203,2	6,59
203,6	7,905
204,1	5,248
204,6	3,076
205	1,362
205,5	5,59
206	-0,552
206,4	-0,324
206,9	-0,41
207,4	5,762
207,8	6,248
208,3	3,133
208,8	-1,552
209,2	2,076
209,7	4,105
210,2	1,99
210,6	-1,324
211,1	-3,21
211,5	-4,581
212	-3,81
212,5	-4,267
212,9	-8,438
213,4	-6,01
213,9	-8,038
214,3	-5,81
214,8	-1,381
215,3	-0,01
215,7	1,476
216,2	1,848
216,7	4,39
217,1	3,105
217,6	5,533
218,1	3,562
218,5	4,933
219	-0,924
219,5	5,762
219,9	-1,267
220,4	6,162
220,9	3,162
221,3	1,562
221,8	4,105
222,3	3,562
222,7	2,276
223,2	3,619
223,6	-1,895
224,1	-1,638
224,6	2,276
225	-4,295
225,5	-1,724
226	-3,124
226,4	-0,638
226,9	0,19
227,4	1,733
227,8	-5,752
228,3	-2,81
228,8	-1,895
229,2	-2,295
229,7	-0,467
230,2	0,59
230,6	1,219
231,1	9,019
231,5	8,105
232	8,248
232,5	7,219
232,9	2,505
233,4	1,533
233,9	0,019
234,3	0,305
234,8	2,619
235,3	-0,667
235,7	-0,238
236,2	4,505
236,7	6,933
237,1	6,848
237,6	3,562
238,1	2,648
238,5	0,705
239	0,819
239,4	3,248
239,9	1,248
240,4	-0,41
240,8	4,819
241,3	0,762
241,8	-0,352
242,2	-0,238
242,7	-6,752
243,2	-7,124
243,6	-6,381
244,1	-9,695
244,6	-6,638
245	-4,095
245,5	-4,038
245,9	-5,095
246,4	-5,867
246,9	-5,838
247,3	-4,695
247,8	-1,181
248,3	1,79
248,7	-0,124
249,2	2,076
249,7	2,39
250,1	4,19
250,6	-0,038
251	0,819
251,5	0,333
252	3,648
252,4	6,276
252,9	1,333
253,4	-3,21
253,8	-1,038
254,3	-4,095
254,8	-3,581
255,2	-11,667
255,7	-15,038
256,1	-6,495
256,6	-1,867
257,1	2,276
257,5	0,219
258	-1,467
258,5	4,905
258,9	7,705
259,4	2,99
259,9	3,648
260,3	0,476
260,8	2,133
261,2	3,533
261,7	4,848
262,2	2,933
262,6	4,248
263,1	4,676
263,6	4,105
264	6,619
264,5	8,276
264,9	5,19
265,4	8,79
265,9	9,248
266,3	10,762
266,8	13,362
267,3	8,419
267,7	5,705
268,2	6,019
268,7	3,305
269,1	0,048
269,6	-8,495
270	-10,752
270,5	-8,838
271	-6,838
271,4	-5,867
271,9	-11,438
272,4	-6,438
272,8	-4,038
273,3	-8,324
273,7	-3,61
274,2	-7,41
274,7	-7,695
275,1	1,048
275,6	1,933
276,1	2,162
276,5	9,019
277	3,762
277,4	7,162
277,9	8,39
278,4	5,362
278,8	6,048
279,3	9,705
279,8	4,162
280,2	7,505
280,7	6,562
281,1	0,79
281,6	-0,095
282,1	-3,895
282,5	-7,124
283	-4,01
283,4	-9,552
283,9	-8,752
284,4	-1,638
284,8	-0,924
285,3	0,933
285,8	4,105
286,2	3,876
286,7	5,848
287,1	2,819
287,6	2,276
288,1	-1,952
288,5	-1,152
289	-3,638
289,5	-2,638
289,9	-3,552
290,4	0,19
290,8	-0,981
291,3	4,419
291,8	5,905
292,2	7,105
292,7	4,733
293,1	4,19
293,6	6,162
294,1	5,762
294,5	5,39
295	1,619
295,5	3,933
295,9	10,076
296,4	12,733
296,8	10,048
297,3	9,19
297,8	3,648
298,2	0,99
298,7	2,305
299,1	-1,638
299,6	-4,667
300,1	-4,695
300,5	-3,924
301	5,333
301,5	12,019
301,9	4,648
302,4	7,105
302,8	9,076
303,3	7,819
303,8	8,962
304,2	2,076
304,7	-2,638
305,1	-0,038
305,6	-6,381
306,1	0,59
306,5	4,133
307	6,79
307,4	11,905
307,9	12,533
308,4	11,276
308,8	9,305
309,3	4,562
309,8	2,59
310,2	1,133
310,7	-6,495
311,1	-5,867
311,6	-3,981
312,1	-3,41
312,5	-3,524
313	0,248
313,4	-3,152
313,9	-0,81
314,4	-2,581
314,8	-4,524
315,3	-4,352
315,7	-9,895
316,2	-15,181
316,7	-18,01
317,1	-12,381
317,6	-10,952
318	-2,638
318,5	1,99
319	3,419
319,4	8,019
319,9	14,362
320,3	14,419
320,8	16,162
321,3	12,99
321,7	13,419
322,2	17,276
322,6	13,705
323,1	10,648
323,6	6,705
324	3,962
324,5	0,19
324,9	-0,867
325,4	-2,152
325,9	0,79
326,3	0,962
326,8	6,676
327,2	4,105
327,7	4,162
328,2	7,59
328,6	12,448
329,1	4,676
329,5	4,105
330	1,19
330,5	6,048
330,9	8,562
331,4	8,59
331,8	2,962
332,3	8,905
332,8	11,39
333,2	11,905
333,7	9,305
334,1	9,305
334,6	1,676
335,1	-1,438
335,5	-2,981
336	-5,038
336,4	-4,952
336,9	0,219
337,4	0,419
337,8	7,219
338,3	14,762
338,7	15,676
339,2	15,133
339,7	19,19
340,1	13,419
340,6	12,419
341	8,419
341,5	6,19
342	1,648
342,4	0,905
342,9	-4,295
343,3	-3,267
343,8	-4,324
344,2	-2,467
344,7	1,219
345,2	0,59
345,6	4,276
346,1	4,59
346,5	3,848
347	3,076
347,5	2,219
347,9	3,476
348,4	9,819
348,8	10,648
349,3	12,933
349,8	15,162
350,2	19,848
350,7	18,133
351,1	13,819
351,6	15,962
352	15,733
352,5	15,105
353	20,876
353,4	24,676
353,9	34,676
354,3	39,419
354,8	44,133
355,3	55,79
355,7	66,076
356,2	76,276
356,6	91,762
357,1	106,962
357,5	126,905
358	150,248
358,5	167,848
358,9	197,648
359,4	229,562
359,8	260,59
360,3	300,448
360,8	339,419
361,2	384,048
361,7	439,448
362,1	497,448
362,6	560,905
363	629,333
363,5	698,105
364	784,505
364,4	867,619
364,9	946,676
365,3	1027,076
365,8	1101,733
366,3	1170,448
366,7	1237,676
367,2	1287,733
367,6	1327,848
368,1	1370,619
368,5	1389,619
369	1400,219
369,5	1405,476
369,9	1394,162
370,4	1377,648
370,8	1350,705
371,3	1305,133
371,7	1263,562
372,2	1208,019
372,7	1146,048
373,1	1087,276
373,6	1014,933
374	951,99
374,5	888,99
374,9	824,333
375,4	770,333
375,9	710,876
376,3	653,219
376,8	604,219
377,2	556,648
377,7	512,105
378,2	465,276
378,6	424,733
379,1	388,79
379,5	360,019
380	334,019
380,4	303,019
380,9	275,819
381,4	255,448
381,8	232,448
382,3	218,362
382,7	201,162
383,2	189,133
383,6	178,562
384,1	170,505
384,6	164,476
385	157,048
385,5	146,048
385,9	131,162
386,4	117,99
386,8	111,048
387,3	101,448
387,7	92,676
388,2	86,905
388,7	81,19
389,1	79,419
389,6	80,105
390	74,39
390,5	71,648
390,9	67,99
391,4	62,79
391,9	57,99
392,3	57,962
392,8	47,733
393,2	44,533
393,7	41,562
394,1	35,705
394,6	38,99
395,1	42,59
395,5	35,676
396	37,162
396,4	37,133
396,9	33,248
397,3	40,819
397,8	37,333
398,2	34,59
398,7	37,705
399,2	40,248
399,6	41,905
400,1	44,076
400,5	34,419
401	32,762
401,4	29,105
401,9	34,248
402,4	33,533
402,8	29,419
403,3	32,59
403,7	36,676
404,2	42,99
404,6	49,619
405,1	46,219
405,5	46,219
406	49,333
406,5	48,333
406,9	54,133
407,4	51,133
407,8	54,933
408,3	58,905
408,7	62,419
409,2	68,048
409,6	76,819
410,1	78,619
410,6	86,648
411	91,448
411,5	97,962
411,9	102,962
412,4	108,733
412,8	116,705
413,3	125,905
413,7	132,076
414,2	138,905
414,7	152,076
415,1	167,048
415,6	179,962
416	189,162
416,5	200,19
416,9	211,99
417,4	224,99
417,8	237,905
418,3	249,819
418,8	264,333
419,2	278,876
419,7	296,705
420,1	316,705
420,6	333,705
421	348,076
421,5	366,933
421,9	382,333
422,4	405,533
422,8	424,219
423,3	443,819
423,8	465,133
424,2	481,79
424,7	509,876
425,1	538,333
425,6	563,19
426	590,533
426,5	625,648
426,9	661,619
427,4	697,79
427,9	729,533
428,3	769,048
428,8	807,876
429,2	851,505
429,7	891,276
430,1	936,819
430,6	986,562
431	1042,219
431,5	1095,39
431,9	1152,19
432,4	1209,762
432,8	1271,733
433,3	1335,362
433,8	1405,133
434,2	1472,105
434,7	1541,905
435,1	1615,39
435,6	1698,048
436	1777,648
436,5	1866,048
436,9	1950,333
437,4	2041,333
437,8	2143,076
438,3	2246,39
438,8	2351,733
439,2	2467,105
439,7	2578,705
440,1	2703,962
440,6	2826,59
441	2950,419
441,5	3085,505
441,9	3218,962
442,4	3347,248
442,8	3490,533
443,3	3635,99
443,7	3790,79
444,2	3952,476
444,7	4108,933
445,1	4272,905
445,6	4451,59
446	4626,105
446,5	4802,162
446,9	4980,133
447,4	5163,476
447,8	5360,448
448,3	5565,676
448,7	5771,505
449,2	5983,533
449,6	6196,505
450,1	6411,448
450,6	6635,648
451	6853,048
451,5	7079,533
451,9	7313,019
452,4	7551,562
452,8	7790,99
453,3	8036,733
453,7	8286,276
454,2	8545,99
454,6	8806,676
455,1	9056,59
455,5	9316,248
456	9588,219
456,4	9860,305
456,9	10132,99
457,3	10409,248
457,8	10677,876
458,3	10972,076
458,7	11250,105
459,2	11539,048
459,6	11826,048
460,1	12124,648
460,5	12410,905
461	12701,905
461,4	12990,79
461,9	13285,648
462,3	13577,619
462,8	13884,619
463,2	14170,619
463,7	14472,105
464,1	14775,905
464,6	15072,133
465	15378,533
465,5	15670,333
466	15954,39
466,4	16244,848
466,9	16535,648
467,3	16822,733
467,8	17098,962
468,2	17380,648
468,7	17672,933
469,1	17953,905
469,6	18237,562
470	18510,762
470,5	18779,99
470,9	19063,362
471,4	19315,848
471,8	19569,762
472,3	19828,133
472,7	20068,505
473,2	20305,676
473,6	20544,819
474,1	20771,99
474,5	21007,362
475	21238,99
475,4	21461,419
475,9	21689,162
476,4	21908,076
476,8	22114,105
477,3	22317,476
477,7	22522,162
478,2	22703,533
478,6	22882,333
479,1	23040,59
479,5	23203,19
480	23370,848
480,4	23532,99
480,9	23669,133
481,3	23818,676
481,8	23957,905
482,2	24099,248
482,7	24221,362
483,1	24337,019
483,6	24437,048
484	24538,219
484,5	24622,305
484,9	24696,99
485,4	24765,705
485,8	24826,79
486,3	24880,276
486,7	24928,933
487,2	24962,562
487,6	24998,562
488,1	25018,933
488,5	25040,333
489	25047,648
489,4	25056,933
489,9	25045,733
490,4	25046,105
490,8	25029,562
491,3	25032,962
491,7	25006,562
492,2	24986,505
492,6	24934,762
493,1	24890,59
493,5	24826,876
494	24771,762
494,4	24697,562
494,9	24614,448
495,3	24538,59
495,8	24458,533
496,2	24379,219
496,7	24293,076
497,1	24199,99
497,6	24102,076
498	24032,819
498,5	23939,705
498,9	23834,276
499,4	23725,305
499,8	23639,333
500,3	23528,676
500,7	23414,19
501,2	23269,39
501,6	23142,619
502,1	23017,533
502,5	22897,99
503	22751,362
503,4	22618,819
503,9	22480,676
504,3	22352,248
504,8	22205,59
505,2	22063,562
505,7	21917,305
506,1	21770,419
506,6	21601,276
507	21432,076
507,5	21268,476
507,9	21099,419
508,4	20937,333
508,8	20771,619
509,3	20596,676
509,7	20429,105
510,2	20267,476
510,6	20100,276
511,1	19938,448
511,5	19768,962
512	19590,39
512,4	19423,705
512,9	19255,39
513,3	19084,419
513,8	18903,562
514,2	18722,705
514,7	18546,076
515,1	18368,39
515,6	18194,59
516	18002,905
516,5	17820,676
516,9	17641,848
517,4	17464,333
517,8	17285,019
518,3	17096,933
518,7	16913,448
519,2	16745,248
519,6	16564,019
520,1	16385,79
520,5	16216,19
521	16034,219
521,4	15866,619
521,9	15696,676
522,3	15524,733
522,8	15348,876
523,2	15179,505
523,7	15011,933
524,1	14852,333
524,6	14685,905
525	14518,848
525,5	14354,219
525,9	14200,105
526,4	14046,219
526,8	13881,39
527,3	13725,362
527,7	13571,933
528,2	13418,362
528,6	13274,333
529,1	13123,533
529,5	12969,105
530	12823,276
530,4	12680,219
530,9	12537,905
531,3	12399,105
531,8	12249,99
532,2	12113,248
532,6	11985,533
533,1	11847,79
533,5	11713,59
534	11572,476
534,4	11432,99
534,9	11303,362
535,3	11175,848
535,8	11046,19
536,2	10928,476
536,7	10805,476
537,1	10682,505
537,6	10563,933
538	10452,79
538,5	10332,619
538,9	10207,048
539,4	10092,133
539,8	9972,933
540,3	9865,305
540,7	9748,048
541,2	9634,533
541,6	9527,219
542,1	9428,333
542,5	9318,076
543	9219,59
543,4	9116,705
543,9	9026,705
544,3	8926,848
544,8	8823,705
545,2	8721,133
545,7	8626,048
546,1	8527,99
546,5	8439,762
547	8341,79
547,4	8249,248
547,9	8164,562
548,3	8086,105
548,8	8000,562
549,2	7908,333
549,7	7826,648
550,1	7748,762
550,6	7670,162
551	7591,105
551,5	7510,248
551,9	7431,676
552,4	7359,448
552,8	7278,019
553,3	7206,048
553,7	7132,105
554,2	7066,533
554,6	6993,305
555,1	6920,019
555,5	6845,19
555,9	6781,962
556,4	6713,676
556,8	6645,762
557,3	6578,59
557,7	6514,79
558,2	6456,19
558,6	6403,505
559,1	6339,905
559,5	6273,59
560	6219,676
560,4	6156,762
560,9	6096,39
561,3	6031,305
561,8	5970,99
562,2	5913,448
562,7	5854,162
563,1	5797,048
563,6	5740,562
564	5688,076
564,4	5642,048
564,9	5590,676
565,3	5536,248
565,8	5488,819
566,2	5441,019
566,7	5394,962
567,1	5347,305
567,6	5303,076
568	5257,79
568,5	5213,19
568,9	5166,59
569,4	5122,476
569,8	5076,076
570,3	5035,619
570,7	4979,076
571,1	4933,39
571,6	4895,99
572	4861,733
572,5	4810,219
572,9	4773,533
573,4	4724,562
573,8	4691,733
574,3	4658,248
574,7	4613,105
575,2	4563,419
575,6	4533,419
576,1	4489,276
576,5	4454,333
576,9	4405,733
577,4	4353,533
577,8	4313,048
578,3	4281,476
578,7	4239,476
579,2	4201,533
579,6	4165,876
580,1	4134,848
580,5	4105,162
581	4069,448
581,4	4037,362
581,9	3999,533
582,3	3974,59
582,7	3940,819
583,2	3908,962
583,6	3876,448
584,1	3854,562
584,5	3820,333
585	3796,276
585,4	3753,076
585,9	3718,962
586,3	3689,476
586,8	3664,905
587,2	3626,39
587,6	3603,076
588,1	3573,848
588,5	3552,705
589	3526,476
589,4	3492,79
589,9	3461,876
590,3	3440,762
590,8	3408,648
591,2	3385,133
591,7	3362,248
592,1	3337,048
592,5	3319,59
593	3294,705
593,4	3269,362
593,9	3242,505
594,3	3215,705
594,8	3185,362
595,2	3160,762
595,7	3140,105
596,1	3113,648
596,6	3086,362
597	3074,79
597,4	3055,419
597,9	3040,533
598,3	3023,219
598,8	3005,333
599,2	2993,048
599,7	2975,076
600,1	2949,619
600,6	2920,219
601	2900,419
601,4	2886,99
601,9	2865,819
602,3	2841,705
602,8	2826,333
603,2	2802,276
603,7	2787,019
604,1	2763,19
604,6	2738,248
605	2714,676
605,4	2695,733
605,9	2671,876
606,3	2648,819
606,8	2632,733
607,2	2617,419
607,7	2596,276
608,1	2584,419
608,6	2571,248
609	2560,79
609,4	2552,79
609,9	2535,733
610,3	2517,476
610,8	2498,39
611,2	2475,762
611,7	2455,419
612,1	2431,448
612,6	2409,79
613	2391,905
613,4	2372,562
613,9	2357,819
614,3	2345,962
614,8	2334,648
615,2	2317,333
615,7	2307,39
616,1	2292,962
616,6	2271,476
617	2253,905
617,4	2234,362
617,9	2223,162
618,3	2211,848
618,8	2196,133
619,2	2178,648
619,7	2174,276
620,1	2160,476
620,5	2149,419
621	2122,162
621,4	2111,448
621,9	2084,876
622,3	2073,133
622,8	2047,219
623,2	2034,476
623,6	2018,533
624,1	2008,59
624,5	1992,562
625	1991,533
625,4	1977,905
625,9	1973,248
626,3	1958,962
626,8	1946,876
627,2	1937,105
627,6	1917,848
628,1	1896,876
628,5	1885,105
629	1865,276
629,4	1849,905
629,9	1833,162
630,3	1814,99
630,7	1803,562
631,2	1796,219
631,6	1774,848
632,1	1764,162
632,5	1749,248
633	1734,876
633,4	1725,219
633,8	1712,505
634,3	1696,705
634,7	1687,505
635,2	1676,619
635,6	1666,333
636,1	1657,505
636,5	1636,619
636,9	1622,362
637,4	1608,705
637,8	1598,133
638,3	1584,419
638,7	1572,248
639,2	1555,19
639,6	1547,79
640	1537,048
640,5	1529,019
640,9	1515,648
641,4	1508,79
641,8	1500,39
642,2	1494,648
642,7	1489,648
643,1	1487,133
643,6	1475,076
644	1467,19
644,5	1458,048
644,9	1449,79
645,3	1437,562
645,8	1421,99
646,2	1406,162
646,7	1399,733
647,1	1389,048
647,6	1378,676
648	1370,848
648,4	1359,019
648,9	1352,19
649,3	1347,105
649,8	1338,676
650,2	1334,533
650,6	1324,419
651,1	1311,59
651,5	1312,79
652	1306,79
652,4	1295,733
652,9	1287,676
653,3	1278,819
653,7	1266,819
654,2	1257,162
654,6	1239,105
655,1	1228,105
655,5	1223,876
655,9	1212,848
656,4	1199,105
656,8	1191,733
657,3	1189,419
657,7	1187,962
658,2	1177,619
658,6	1164,476
659	1153,362
659,5	1146,305
659,9	1139,962
660,4	1130,019
660,8	1116,705
661,2	1108,448
661,7	1103,905
662,1	1100,848
662,6	1092,448
663	1086,305
663,4	1078,333
663,9	1074,676
664,3	1067,619
664,8	1055,39
665,2	1044,419
665,6	1037,676
666,1	1031,219
666,5	1026,105
667	1014,019
667,4	1009,59
667,9	1004,333
668,3	998,505
668,7	992,705
669,2	984,076
669,6	973,162
670,1	971,476
670,5	962,248
670,9	951,962
671,4	941,305
671,8	935,562
672,3	933,133
672,7	929,99
673,1	921,733
673,6	915,79
674	910,848
674,5	906,819
674,9	898,276
675,3	887,762
675,8	874,39
676,2	866,305
676,7	858,419
677,1	851,762
677,5	845,276
678	839,533
678,4	837,59
678,9	835,219
679,3	830,733
679,7	825,676
680,2	814,648
680,6	802,848
681,1	797,39
681,5	789,562
681,9	787,076
682,4	779,676
682,8	777,562
683,3	779,705
683,7	779,19
684,1	772,762
684,6	767,705
685	757,59
685,5	751,99
685,9	740,276
686,3	730,762
686,8	726,476
687,2	719,848
687,7	712,562
688,1	703,105
688,5	697,533
689	696,305
689,4	691,248
689,9	683,133
690,3	677,79
690,7	670,619
691,2	674,219
691,6	669,048
692	661,305
692,5	659,019
692,9	657,048
693,4	651,876
693,8	647,59
694,2	639,105
694,7	633,19
695,1	629,019
695,6	627,076
696	620,619
696,4	618,248
696,9	613,419
697,3	606,505
697,8	605,048
698,2	605,219
698,6	598,076
699,1	596,133
699,5	593,848
699,9	587,019
700,4	582,248
700,8	578,39
701,3	569,419
701,7	563,59
702,1	560,819
702,6	551,219
703	549,162
703,5	547,105
703,9	539,419
704,3	537,048
704,8	532,505
705,2	527,99
705,6	525,105
706,1	523,305
706,5	518,876
707	518,79
707,4	518,733
707,8	513,876
708,3	508,933
708,7	507,419
709,2	505,448
709,6	502,79
710	501,39
710,5	496,305
710,9	493,848
711,3	486,676
711,8	486,162
712,2	478,79
712,7	473,305
713,1	470,848
713,5	467,333
714	463,248
714,4	461,533
714,8	456,648
715,3	452,305
715,7	450,819
716,2	439,305
716,6	433,733
717	431,248
717,5	426,248
717,9	427,048
718,3	425,19
718,8	419,648
719,2	419,619
719,7	413,219
720,1	413,19
720,5	414,648
721	404,848
721,4	404,362
721,8	406,133
722,3	397,676
722,7	400,619
723,2	391,305
723,6	380,905
724	375,048
724,5	370,533
724,9	366,79
725,3	368,99
725,8	362,048
726,2	360,905
726,7	364,619
727,1	365,076
727,5	360,276
728	353,162
728,4	353,333
728,8	350,933
729,3	347,076
729,7	341,819
730,1	340,105
730,6	337,933
731	336,105
731,5	331,79
731,9	331,133
732,3	332,762
732,8	334,048
733,2	330,248
733,6	327,333
734,1	326,619
734,5	320,619
734,9	318,876
735,4	313,333
735,8	307,933
736,3	310,59
736,7	308,248
737,1	308,533
737,6	308,333
738	303,762
738,4	302,905
738,9	306,19
739,3	302,59
739,7	304,276
740,2	298,219
740,6	302,419
741,1	300,562
741,5	296,79
741,9	289,276
742,4	290,076
742,8	286,562
743,2	288,076
743,7	281,533
744,1	275,705
744,5	273,305
745	269,533
745,4	264,505
745,8	263,876
746,3	257,448
746,7	252,476
747,2	257,733
747,6	261,133
748	268,333
748,5	268,048
748,9	262,676
749,3	262,848
749,8	267,733
750,2	263,705
750,6	259,848
751,1	255,733
751,5	251,162
751,9	252,133
752,4	253,105
752,8	251,248
753,3	246,505
753,7	253,876
754,1	246,276
754,6	245,619
755	240,819
755,4	240,962
755,9	235,933
756,3	235,248
756,7	226,448
757,2	229,99
757,6	226,59
758	227,562
758,5	222,705
758,9	221,219
759,3	223,448
759,8	222,619
760,2	220,105
760,6	220,676
761,1	220,219
761,5	217,905
761,9	214,876
762,4	211,962
762,8	207,705
763,3	203,848
763,7	201,248
764,1	200,333
764,6	202,39
765	203,276
765,4	203,048
765,9	206,905
766,3	211,962
766,7	207,362
767,2	202,448
767,6	200,105
768	198,505
768,5	196,848
768,9	193,819
769,3	188,905
769,8	189,648
770,2	191,019
770,6	188,162
771,1	189,676
771,5	189,448
771,9	187,676
772,4	187,219
772,8	188,676
773,2	183,476
773,7	181,562
774,1	177,019
774,5	172,019
775	171,676
775,4	169,933
775,8	170,048
776,3	177,362
776,7	176,305
777,1	176,276
777,6	179,476
778	180,19
778,4	178,733
778,9	176,876
779,3	170,219
779,7	172,562
780,2	175,048
780,6	169,448
781	164,419
781,5	161,076
781,9	158,819
782,3	156,276
782,8	153,419
783,2	150,305
783,6	152,676
784,1	148,305
784,5	145,362
784,9	144,219
785,4	148,79
785,8	146,733
786,2	144,39
786,7	141,905
787,1	146,705
787,5	148,59
788	148,505
788,4	146,248
788,8	147,505
789,3	146,19
789,7	148,333
790,1	142,99
790,6	144,905
791	142,019
791,4	143,476
791,9	138,162
792,3	132,905
792,7	131,705
793,2	131,333
793,6	128,99
794	125,048
794,5	122,476
794,9	126,248
795,3	126,448
795,8	124,876
796,2	124,362
796,6	124,448
797,1	125,705
797,5	121,105
797,9	120,133
798,4	122,648
798,8	121,305
799,2	120,448
799,7	118,162
800,1	115,733
800,5	115,048
801	113,505
801,4	110,848
801,8	109,819
802,2	109,133
802,7	105,99
803,1	111,962
803,5	109,305
804	108,133
804,4	106,933
804,8	107,248
805,3	107,533
805,7	109,848
806,1	104,59
806,6	108,076
807	102,79
807,4	101,219
807,9	95,533
808,3	96,076
808,7	95,419
809,2	96,619
809,6	96,248
810	101,619
810,4	102,248
810,9	103,533
811,3	98,076
811,7	97,99
812,2	99,648
812,6	99,619
813	98,819
813,5	102,248
813,9	100,305
814,3	102,762
814,8	99,876
815,2	93,362
815,6	90,59
816,1	90,505
816,5	88,019
816,9	89,962
817,3	88,676
817,8	91,562
818,2	97,133
818,6	95,276
819,1	92,362
819,5	88,219
819,9	90,562
820,4	93,848
820,8	88,276
821,2	81,133
821,7	84,105
822,1	89,048
822,5	94,619
822,9	88,219
823,4	82,819
823,8	82,79
824,2	85,848
824,7	78,048
825,1	69,905
825,5	64,362
826	60,648
826,4	60,905
826,8	59,59
827,3	58,848
827,7	60,848
828,1	62,048
828,5	60,962
829	59,619
829,4	61,105
829,8	57,448
830,3	56,533
830,7	52,219
831,1	51,99
831,6	52,019
832	57,562
832,4	55,762
832,8	63,162
833,3	59,248
833,7	61,99
834,1	63,676
834,6	63,219
835	63,362
835,4	63,076
835,8	58,305
836,3	58,848
836,7	58,476
837,1	56,648
837,6	57,819
838	55,248
838,4	56,076
838,9	56,933
839,3	56,419
839,7	61,305
840,1	51,676
840,6	48,962
841	50,733
841,4	50,933
841,9	52,105
842,3	54,105
842,7	50,19
843,1	56,619
843,6	60,933
844	60,705
844,4	60,59
844,9	58,076
845,3	59,448
845,7	62,39
846,2	60,676
846,6	57,562
847	59,562
847,4	58,305
847,9	60,762
848,3	59,705
848,7	56,133
849,2	60,305
849,6	57,619
850	53,962
850,4	54,219
850,9	52,762
851,3	51,419
851,7	54,219
852,2	52,133
852,6	57,133
853	55,619
853,4	53,248
853,9	53,79
854,3	56,533
854,7	57,105
855,2	52,048
855,6	47,533
856	44,762
856,4	43,905
856,9	38,362
857,3	35,105
857,7	32,333
858,2	35,848
858,6	35,333
859	41,733
859,4	42,248
859,9	41,505
860,3	39,19
860,7	39,533
861,1	41,39
861,6	40,79
862	40,076
862,4	37,076
862,9	39,362
863,3	41,905
863,7	39,476
864,1	41,59
864,6	38,933
865	36,505
865,4	39,305
865,9	41,105
866,3	37,762
866,7	35,819
867,1	26,733
867,6	29,79
868	27,99
868,4	25,676
868,8	24,79
869,3	26,962
869,7	32,676
870,1	33,962
870,6	33,79
871	-31,038
871,4	-26,038
871,8	-28,638
872,3	-28,467
872,7	-31,81
873,1	-27,61
873,5	-30,552
874	31,076
874,4	24,362
874,8	24,019
875,3	25,819
875,7	26,819
876,1	26,419
876,5	28,419
877	26,733
877,4	28,39
877,8	29,248
878,2	29,848
878,7	29,333
879,1	28,762
879,5	32,99
879,9	36,79
880,4	37,533
880,8	37,076
881,2	33,762
881,7	27,733
882,1	24,762
882,5	17,305
882,9	15,619
883,4	11,019
883,8	13,476
884,2	12,648
884,6	13,219
885,1	16,619
885,5	17,99
885,9	21,505
886,3	25,105
886,8	21,762
887,2	19,962
887,6	22,019
888	14,933
888,5	15,476
888,9	9,848
889,3	5,962
889,8	5,905
890,2	9,362
890,6	7,133
891	12,676
891,5	12,619
891,9	17,819
892,3	19,905
892,7	22,248
893,2	20,419
893,6	23,933
894	24,648
894,4	22,448
894,9	21,133
895,3	19,819
895,7	22,133
896,1	19,276
896,6	20,505
897	19,333
897,4	25,505
897,8	27,219
898,3	33,076
898,7	26,848
899,1	26,848
899,5	20,79
900	13,762
900,4	9,305
900,8	1,876
901,2	-5,524
901,7	-2,381
902,1	-0,638
902,5	3,219
902,9	8,533
903,4	10,705
903,8	16,705
904,2	18,019
904,6	16,076
905,1	18,019
905,5	19,505
905,9	19,848
906,3	21,79
906,8	22,648
907,2	23,676
907,6	24,59
908	26,648
908,5	21,562
908,9	19,562
909,3	16,219
909,7	12,162
910,2	11,362
910,6	14,648
911	10,19
911,4	12,248
911,9	12,848
912,3	9,79
912,7	12,305
913,1	12,162
913,6	6,619
914	5,533
914,4	2,276
914,8	3,248
915,3	0,79
915,7	3,648
916,1	6,19
916,5	6,362
916,9	11,162
917,4	13,219
917,8	13,819
918,2	14,505
918,6	7,533
919,1	9,019
919,5	12,19
919,9	6,419
920,3	5,705
920,8	6,562
921,2	8,933
921,6	10,19
922	8,419
922,5	4,876
922,9	9,019
923,3	7,905
923,7	8,562
924,2	6,362
924,6	9,162
925	8,048
925,4	9,533
925,8	9,19
926,3	14,133
926,7	10,676
927,1	17,162
927,5	18,419
928	18,505
928,4	17,905
928,8	19,362
929,2	15,048
929,7	16,905
930,1	16,962
930,5	10,105
930,9	9,333
931,3	8,276
931,8	3,505
932,2	3,876
932,6	5,905
933	-3,067
933,5	-1,095
933,9	3,476
934,3	6,619
934,7	3,419
935,2	4,476
935,6	-1,181
936	5,505
936,4	11,133
936,8	10,19
937,3	5,562
937,7	12,619
938,1	12,39
938,5	15,676
939	11,933
939,4	9,705
939,8	6,99
940,2	9,59
940,6	7,962
941,1	5,962
941,5	8,048
941,9	5,705
942,3	0,419
942,8	0,733
943,2	0,905
943,6	-5,695
944	-1,81
944,4	-4,81
944,9	-1,495
945,3	0,79
945,7	-2,352
946,1	-4,638
946,6	-2,638
947	-5,467
947,4	-3,152
947,8	-3,21
948,2	-4,638
948,7	-1,752
949,1	-2,238
949,5	2,676
949,9	4,305
950,3	2,076
950,8	1,562
951,2	-1,638
951,6	-4,581
952	1,305
952,5	-3,981
952,9	-4,667
953,3	-5,638
953,7	-6,638
954,1	-3,295
954,6	-1,695
955	-6,638
955,4	-3,752
955,8	0,99
956,2	2,819
956,7	7,248
957,1	9,105
957,5	11,619
957,9	15,533
958,3	12,076
958,8	10,39
959,2	12,819
959,6	12,933
960	9,448
960,5	9,333
960,9	8,276
961,3	6,933
961,7	2,276
962,1	-3,81
962,6	-7,724
963	-6,124
963,4	-11,438
963,8	-10,295
964,2	-4,152
964,7	0,962
965,1	8,39
965,5	8,505
965,9	8,333
966,3	12,99
966,8	8,305
967,2	6,248
967,6	5,076
968	1,648
968,4	4,419
968,9	7,733
969,3	8,59
969,7	9,79
970,1	11,305
970,5	6,762
971	3,448
971,4	0,933
971,8	2,219
972,2	-0,352
972,6	-0,895
973,1	-0,438
973,5	1,733
973,9	4,733
974,3	3,733
974,7	6,105
975,2	8,619
975,6	5,59
976	3,562
976,4	-1,067
976,8	-0,781
977,3	0,048
977,7	-6,895
978,1	-11,124
978,5	-10,524
978,9	-12,152
979,4	-8,638
979,8	-10,695
980,2	-8,152
980,6	-7,324
981	0,676
981,5	1,305
981,9	2,876
982,3	4,533
982,7	6,133
983,1	0,019
983,6	1,162
984	-3,381
984,4	1,048
984,8	2,076
985,2	1,276
985,6	-1,295
986,1	2,962
986,5	5,705
986,9	-0,01
987,3	1,905
987,7	-0,181
988,2	0,962
988,6	1,848
989	2,962
989,4	-2,267
989,8	2,362
990,3	-0,095
990,7	0,562
991,1	-0,124
991,5	1,476
991,9	0,276
992,3	0,876
992,8	2,819
993,2	-1,81
993,6	4,448
994	5,362
994,4	5,19
994,9	2,133
995,3	3,705
995,7	3,762
996,1	2,733
996,5	-2,21
996,9	-10,324
997,4	-7,895
997,8	-8,067
998,2	-9,324
998,6	-18,524
999	-14,495
999,5	-14,152
999,9	-7,724
1000,3	-12,352
1000,7	-4,724
1001,1	-6,981
1001,5	0,676
1002	1,505
1002,4	-0,295
1002,8	-2,324
1003,2	1,648
1003,6	0,476
1004	5,562
1004,5	2,162
1004,9	2,476
1005,3	-1,61
1005,7	2,105
1006,1	-1,752
1006,6	-5,781
1007	-4,781
1007,4	-1,438
1007,8	0,933
1008,2	2,676
1008,6	3,533
1009,1	5,619
1009,5	1,962
1009,9	3,133
1010,3	5,876
1010,7	6,105
1011,1	8,59
1011,6	7,848
1012	10,505
1012,4	13,162
1012,8	8,705
1013,2	8,79
1013,6	5,676
1014,1	9,276
1014,5	9,705
1014,9	5,362
1015,3	4,962
1015,7	4,533
1016,1	0,762
1016,6	-0,467
1017	-1,21
1017,4	-2,124
1017,8	-3,867
1018,2	-1,552
1018,6	-3,667
1019,1	-6,095
1019,5	-5,61
1019,9	-12,895
1020,3	-10,638
1020,7	-7,324
1021,1	-7,638
1021,6	-5,324
1022	-2,352
1022,4	-2,495
1022,8	4,219
1023,2	1,933
1023,6	2,99
1024,1	8,105
1024,5	8,048
1024,9	6,048
1025,3	8,533
1025,7	5,048
1026,1	5,79
1026,6	1,79
1027	-4,41
1027,4	-4,867
1027,8	-5,152
1028,2	-10,295
1028,6	-8,067
1029	-11,638
1029,5	-2,381
1029,9	-2,752
1030,3	-6,381
1030,7	-2,524
1031,1	5,705
1031,5	1,39
1032	1,676
1032,4	-6,552
1032,8	-2,61
1033,2	4,676
1033,6	3,962
1034	0,19
1034,4	4,019
1034,9	6,305
1035,3	7,762
1035,7	8,133
1036,1	5,933
1036,5	5,248
1036,9	6,533
1037,4	10,448
1037,8	4,533
1038,2	1,248
1038,6	-0,924
1039	-2,067
1039,4	3,505
1039,8	2,419
1040,3	1,305
1040,7	2,533
1041,1	5,505
1041,5	0,79
1041,9	4,019
1042,3	-0,495
1042,7	0,419
1043,2	-4,01
1043,6	-2,038
1044	-3,667
1044,4	4,533
1044,8	1,676
1045,2	-2,695
1045,6	-3,352
1046,1	-2,095
1046,5	2,533
1046,9	2,762
1047,3	-3,524
1047,7	-2,981
1048,1	-1,781
1048,5	-2,724
1049	0,39
1049,4	2,676
1049,8	4,019
1050,2	7,733
1050,6	12,533
1051	13,562
1051,4	11,905
1051,9	9,39
1052,3	5,676
1052,7	9,705
1053,1	7,59
1053,5	5,819
1053,9	8,219
1054,3	8,79
1054,8	16,648
1055,2	19,362
1055,6	17,648
1056	15,019
1056,4	13,876
1056,8	14,59
1057,2	16,648
1057,6	6,962
1058,1	-0,267
1058,5	-6,695
1058,9	-2,067
1059,3	-0,61
1059,7	-5,952
1060,1	-3,41
1060,5	-3,152
1061	0,276
1061,4	3,733
1061,8	6,59
1062,2	0,848
1062,6	6,533
1063	3,276
1063,4	2,076
1063,8	3,648
1064,3	1,019
1064,7	-3,61
1065,1	-3,467
1065,5	-10,895
1065,9	-10,638
1066,3	-12,038
1066,7	-17,095
1067,1	-15,81
1067,6	-12,895
1068	-12,324
1068,4	-6,238
1068,8	-6,495
1069,2	-3,352
1069,6	-0,581
1070	5,476
1070,4	2,733
1070,9	3,476
1071,3	1,505
1071,7	-1,495
1072,1	0,705
1072,5	0,076
1072,9	-5,352
1073,3	-6,552
1073,7	-6,238
1074,2	-6,152
1074,6	-6,01
1075	-4,667
1075,4	-2,695
1075,8	-0,438
1076,2	1,362
1076,6	3,133
1077	2,248
1077,5	7,762
1077,9	3,162
1078,3	4,448
1078,7	2,162
1079,1	0,533
1079,5	0,648
1079,9	4,962
1080,3	4,048
1080,7	3,39
1081,2	4,933
1081,6	6,733
1082	5,333
1082,4	8,933
1082,8	5,105
1083,2	3,19
1083,6	7,048
1084	4,305
1084,5	8,133
1084,9	7,876
1085,3	-2,352
1085,7	-1,952
1086,1	-2,152
1086,5	-0,924
1086,9	2,648
1087,3	-1,324
1087,7	1,876
1088,2	4,648
1088,6	3,362
1089	1,59
1089,4	-1,038
1089,8	-1,381
1090,2	-2,638
1090,6	-6,295
1091	0,219
1091,4	1,476
1091,9	3,019
1092,3	5,19
1092,7	1,362
1093,1	4,505
1093,5	7,219
1093,9	2,419
1094,3	7,59
1094,7	6,19
1095,1	4,876
1095,5	7,733
1096	3,276
1096,4	6,762
1096,8	8,133
1097,2	0,762
1097,6	7,648
1098	5,219
1098,4	6,648
1098,8	7,448
1099,2	10,79
1099,6	11,619
1100,1	14,533
1100,5	8,676
1100,9	12,219
1101,3	10,79
1101,7	12,19
1102,1	6,59
1102,5	8,248
1102,9	9,419
1103,3	11,933
1103,7	9,99
1104,2	7,762
1104,6	8,876
1105	7,505
1105,4	6,019
1105,8	4,219
1106,2	2,276
1106,6	1,648
1107	1,39
1107,4	-0,1
1107,8	1,853
1108,3	0,133
