Data from Subt2_108.txt Node
Date: Sat Aug 26 18:20:13 MSK 2023
User: vat
Spectrometer: MAYP114033
Trigger mode: 0
Integration Time (sec): 1,000000E0
Scans to average: 5
Electric dark correction enabled: true
Nonlinearity correction enabled: false
Boxcar width: 3
XAxis mode: Wavelengths
Number of Pixels in Spectrum: 2068
>>>>>Begin Spectral Data<<<<<
199,4	-0,767
199,9	1,593
200,4	-0,433
200,8	-0,424
201,3	-0,624
201,8	0,233
202,2	-2,052
202,7	1,148
203,2	-1,51
203,6	-1,624
204,1	-3,51
204,6	-3,51
205	-2,967
205,5	-0,738
206	-4,738
206,4	-2,652
206,9	-0,938
207,4	4,433
207,8	1,833
208,3	0,548
208,8	1,519
209,2	4,605
209,7	4,633
210,2	4,719
210,6	-1,595
211,1	-1,424
211,5	-5,567
212	-5,91
212,5	-10,995
212,9	-13,11
213,4	-11,881
213,9	-11,081
214,3	-6,167
214,8	-1,681
215,3	-6,938
215,7	0,633
216,2	2,176
216,7	2,433
217,1	1,805
217,6	-0,081
218,1	2,662
218,5	3,605
219	-4,338
219,5	-5,224
219,9	-12,452
220,4	-3,024
220,9	-4,195
221,3	-5,395
221,8	2,148
222,3	4,719
222,7	6,405
223,2	12,033
223,6	4,205
224,1	2,262
224,6	1,576
225	-2,652
225,5	-2,795
226	-4,795
226,4	-1,881
226,9	3,719
227,4	9,262
227,8	6,976
228,3	6,433
228,8	8,462
229,2	8,376
229,7	1,919
230,2	-0,31
230,6	0,605
231,1	3,49
231,5	6,633
232	3,69
232,5	3,748
232,9	9,205
233,4	11,462
233,9	6,033
234,3	6,376
234,8	5,576
235,3	6,319
235,7	7,748
236,2	8,605
236,7	4,919
237,1	10,605
237,6	5,348
238,1	4,919
238,5	3,862
239	2,605
239,4	4,976
239,9	2,862
240,4	-0,481
240,8	5,519
241,3	2,205
241,8	2,919
242,2	4,662
242,7	-2,138
243,2	-0,452
243,6	-1,081
244,1	-2,31
244,6	1,348
245	-0,71
245,5	-1,91
245,9	-0,824
246,4	-1,024
246,9	0,09
247,3	1,033
247,8	0,033
248,3	1,948
248,7	4,233
249,2	6,119
249,7	6,005
250,1	3,748
250,6	0,919
251	3,662
251,5	6,348
252	5,405
252,4	4,976
252,9	3,319
253,4	3,205
253,8	0,919
254,3	1,148
254,8	-0,538
255,2	-5,652
255,7	-8,081
256,1	-4,11
256,6	0,948
257,1	6,69
257,5	3,119
258	2,69
258,5	7,862
258,9	8,033
259,4	4,205
259,9	2,633
260,3	-3,024
260,8	-7,11
261,2	-5,052
261,7	-3,738
262,2	-5,138
262,6	-6,224
263,1	-7,795
263,6	-5,71
264	1,033
264,5	2,69
264,9	0,748
265,4	5,605
265,9	4,462
266,3	8,833
266,8	12,805
267,3	8,348
267,7	2,405
268,2	2,462
268,7	-1,538
269,1	0,29
269,6	-5,252
270	-2,252
270,5	-1,252
271	2,205
271,4	4,976
271,9	1,462
272,4	6,49
272,8	9,69
273,3	0,605
273,7	-0,167
274,2	-2,281
274,7	-5,967
275,1	-0,738
275,6	-2,052
276,1	-8,195
276,5	-4,595
277	-4,681
277,4	-5,052
277,9	-4,595
278,4	-4,452
278,8	-5,452
279,3	0,805
279,8	2,348
280,2	5,662
280,7	9,233
281,1	8,119
281,6	7,433
282,1	7,29
282,5	6,176
283	4,633
283,4	4,605
283,9	3,176
284,4	7,176
284,8	7,919
285,3	7,005
285,8	9,062
286,2	6,919
286,7	6,319
287,1	4,633
287,6	0,69
288,1	0,262
288,5	2,662
289	0,062
289,5	2,033
289,9	-1,624
290,4	0,605
290,8	3,376
291,3	7,748
291,8	5,805
292,2	6,119
292,7	13,719
293,1	18,576
293,6	21,233
294,1	18,119
294,5	13,462
295	12,719
295,5	8,833
295,9	5,576
296,4	3,548
296,8	-0,795
297,3	2,262
297,8	-1,224
298,2	-2,767
298,7	3,919
299,1	-0,052
299,6	-5,567
300,1	-1,71
300,5	-3,938
301	-0,281
301,5	5,576
301,9	-1,795
302,4	-2,995
302,8	3,776
303,3	0,376
303,8	-1,91
304,2	-0,767
304,7	-4,71
305,1	-3,167
305,6	-1,767
306,1	0,033
306,5	0,205
307	5,776
307,4	5,49
307,9	3,833
308,4	2,119
308,8	-0,567
309,3	-4,452
309,8	-5,31
310,2	-6,31
310,7	-9,652
311,1	-6,452
311,6	-2,252
312,1	-0,681
312,5	1,433
313	5,433
313,4	5,205
313,9	10,89
314,4	8,919
314,8	3,176
315,3	6,29
315,7	1,29
316,2	-3,567
316,7	-7,052
317,1	-7,824
317,6	-6,338
318	3,576
318,5	0,948
319	5,462
319,4	5,176
319,9	11,805
320,3	11,148
320,8	8,576
321,3	2,719
321,7	2,348
322,2	3,319
322,6	9,919
323,1	2,862
323,6	1,633
324	1,776
324,5	0,69
324,9	4,833
325,4	2,09
325,9	1,319
326,3	4,09
326,8	7,976
327,2	6,719
327,7	7,062
328,2	3,833
328,6	4,062
329,1	0,662
329,5	-0,167
330	-2,624
330,5	0,376
330,9	2,29
331,4	2,005
331,8	3,662
332,3	5,405
332,8	8,69
333,2	9,176
333,7	11,548
334,1	12,519
334,6	13,376
335,1	8,062
335,5	7,462
336	5,548
336,4	6,633
336,9	10,776
337,4	10,576
337,8	9,433
338,3	13,89
338,7	16,005
339,2	14,119
339,7	12,319
340,1	4,576
340,6	6,348
341	3,948
341,5	2,119
342	-2,681
342,4	-2,138
342,9	-1,795
343,3	0,462
343,8	-4,31
344,2	-1,538
344,7	6,319
345,2	6,148
345,6	6,29
346,1	3,976
346,5	2,948
347	3,462
347,5	1,833
347,9	-3,252
348,4	-2,995
348,8	-0,681
349,3	4,919
349,8	7,176
350,2	15,862
350,7	12,548
351,1	15,176
351,6	18,462
352	20,776
352,5	26,29
353	34,119
353,4	35,49
353,9	53,348
354,3	67,062
354,8	80,519
355,3	102,29
355,7	121,262
356,2	141,548
356,6	168,119
357,1	198,119
357,5	230,519
358	271,69
358,5	314,348
358,9	361,748
359,4	421,09
359,8	484,29
360,3	556,462
360,8	631,433
361,2	721,376
361,7	815,09
362,1	924,948
362,6	1039,519
363	1160,662
363,5	1293,462
364	1445,348
364,4	1593,605
364,9	1745,519
365,3	1887,862
365,8	2021,662
366,3	2150,776
366,7	2262,719
367,2	2353,833
367,6	2431,062
368,1	2494,29
368,5	2537,605
369	2568,576
369,5	2583,576
369,9	2565,748
370,4	2529,862
370,8	2477,548
371,3	2403,062
371,7	2318,69
372,2	2214,548
372,7	2104,348
373,1	1999,348
373,6	1882,919
374	1769,605
374,5	1652,519
374,9	1537,49
375,4	1427,862
375,9	1319,49
376,3	1214,89
376,8	1118,605
377,2	1025,69
377,7	937,833
378,2	858,233
378,6	788,89
379,1	720,976
379,5	662,433
380	611,976
380,4	558,805
380,9	513,862
381,4	470,776
381,8	434,148
382,3	404,29
382,7	372,748
383,2	348,033
383,6	321,776
384,1	303,948
384,6	286,919
385	266,719
385,5	249,862
385,9	230,433
386,4	204,576
386,8	195,576
387,3	177,69
387,7	162,29
388,2	153,748
388,7	138,233
389,1	132,719
389,6	130,548
390	117,833
390,5	113,119
390,9	109,319
391,4	98,09
391,9	94,919
392,3	88,462
392,8	79,29
393,2	71,062
393,7	65,433
394,1	56,633
394,6	56,033
395,1	50,862
395,5	44,89
396	47,605
396,4	53,49
396,9	50,005
397,3	57,062
397,8	59,319
398,2	62,233
398,7	62,89
399,2	58,833
399,6	58,69
400,1	61,576
400,5	52,062
401	48,49
401,4	42,719
401,9	44,49
402,4	47,233
402,8	41,519
403,3	43,49
403,7	45,776
404,2	48,519
404,6	56,519
405,1	54,605
405,5	51,262
406	54,919
406,5	51,948
406,9	57,29
407,4	57,919
407,8	53,948
408,3	60,89
408,7	64,376
409,2	71,405
409,6	81,376
410,1	86,748
410,6	95,348
411	105,919
411,5	111,205
411,9	122,662
412,4	130,462
412,8	137,662
413,3	146,862
413,7	151,919
414,2	154,748
414,7	169,062
415,1	184,948
415,6	196,548
416	205,433
416,5	214,576
416,9	227,576
417,4	246,948
417,8	259,919
418,3	274,033
418,8	292,29
419,2	310,148
419,7	324,748
420,1	342,262
420,6	362,89
421	383,262
421,5	399,405
421,9	414,205
422,4	437,062
422,8	464,29
423,3	491,748
423,8	513,205
424,2	534,976
424,7	564,662
425,1	598,376
425,6	632,833
426	666,976
426,5	700,662
426,9	743,09
427,4	779,262
427,9	816,69
428,3	861,662
428,8	908,119
429,2	952,976
429,7	997,519
430,1	1046,09
430,6	1104,119
431	1161,805
431,5	1219,005
431,9	1270,176
432,4	1333,805
432,8	1412,29
433,3	1483,748
433,8	1559,462
434,2	1638,233
434,7	1712,719
435,1	1797,062
435,6	1887,976
436	1972,919
436,5	2070,805
436,9	2169,576
437,4	2273,833
437,8	2390,919
438,3	2508,89
438,8	2626,833
439,2	2746,748
439,7	2873,205
440,1	3009,49
440,6	3152,205
441	3284,033
441,5	3431,033
441,9	3584,49
442,4	3743,148
442,8	3905,176
443,3	4067,548
443,7	4234,948
444,2	4418,805
444,7	4601,005
445,1	4791,148
445,6	4982,319
446	5169,262
446,5	5364,576
446,9	5566,862
447,4	5776,919
447,8	5994,805
448,3	6212,09
448,7	6440,348
449,2	6684,576
449,6	6930,633
450,1	7169,919
450,6	7417,348
451	7670,576
451,5	7931,605
451,9	8195,062
452,4	8454,605
452,8	8720,033
453,3	9001,433
453,7	9277,633
454,2	9555,805
454,6	9847,005
455,1	10135,633
455,5	10423,548
456	10718,519
456,4	11013,519
456,9	11314,148
457,3	11620,033
457,8	11919,148
458,3	12227,748
458,7	12549,748
459,2	12880,033
459,6	13206,605
460,1	13544,205
460,5	13878,719
461	14210,005
461,4	14540,576
461,9	14864,519
462,3	15192,633
462,8	15515,633
463,2	15829,576
463,7	16153,176
464,1	16484,548
464,6	16822,948
465	17162,833
465,5	17484,405
466	17826,09
466,4	18154,176
466,9	18478,376
467,3	18794,748
467,8	19105,576
468,2	19421,433
468,7	19735,348
469,1	20044,148
469,6	20357,433
470	20667,119
470,5	20966,89
470,9	21258,89
471,4	21553,776
471,8	21839,176
472,3	22120,805
472,7	22406,205
473,2	22677,862
473,6	22952,29
474,1	23220,233
474,5	23473,49
475	23737,605
475,4	23978,062
475,9	24211,548
476,4	24446,176
476,8	24673,433
477,3	24901,205
477,7	25119,433
478,2	25328,29
478,6	25536,062
479,1	25726,09
479,5	25917,948
480	26098,49
480,4	26275,748
480,9	26427,433
481,3	26580,862
481,8	26727,548
482,2	26874,062
482,7	27001,005
483,1	27130,062
483,6	27228,69
484	27352,605
484,5	27451,748
484,9	27523,548
485,4	27599,948
485,8	27659,948
486,3	27716,005
486,7	27777,519
487,2	27814,748
487,6	27849,09
488,1	27889,89
488,5	27914,976
489	27931,833
489,4	27948,805
489,9	27936,033
490,4	27921,719
490,8	27897,976
491,3	27870,348
491,7	27839,205
492,2	27805,033
492,6	27738,319
493,1	27683,633
493,5	27626,976
494	27556,405
494,4	27488,433
494,9	27402,805
495,3	27330,748
495,8	27258,948
496,2	27186,662
496,7	27083,833
497,1	26995,862
497,6	26889,633
498	26809,605
498,5	26689,462
498,9	26563,919
499,4	26435,376
499,8	26317,319
500,3	26185,319
500,7	26061,148
501,2	25903,062
501,6	25767,005
502,1	25621,748
502,5	25485,405
503	25343,519
503,4	25201,09
503,9	25039,805
504,3	24895,205
504,8	24727,805
505,2	24575,719
505,7	24400,376
506,1	24234,719
506,6	24050,719
507	23898,833
507,5	23707,805
507,9	23545,833
508,4	23360,348
508,8	23175,69
509,3	22977,062
509,7	22808,262
510,2	22596,948
510,6	22414,405
511,1	22218,548
511,5	22022,405
512	21832,662
512,4	21641,176
512,9	21424,376
513,3	21231,119
513,8	21033,89
514,2	20825,976
514,7	20618,319
515,1	20410,633
515,6	20221,862
516	20023,376
516,5	19823,433
516,9	19621,433
517,4	19430,919
517,8	19243,005
518,3	19043,805
518,7	18843,376
519,2	18652,119
519,6	18463,062
520,1	18259,719
520,5	18063,176
521	17856,233
521,4	17682,662
521,9	17488,862
522,3	17307,405
522,8	17111,405
523,2	16933,548
523,7	16743,662
524,1	16566,205
524,6	16371,262
525	16190,405
525,5	15999,148
525,9	15815,376
526,4	15630,776
526,8	15450,776
527,3	15281,576
527,7	15114,69
528,2	14946,176
528,6	14769,348
529,1	14614,09
529,5	14455,005
530	14293,776
530,4	14144,633
530,9	13980,433
531,3	13827,119
531,8	13676,433
532,2	13524,233
532,6	13367,662
533,1	13215,005
533,5	13048,633
534	12896,233
534,4	12739,062
534,9	12602,262
535,3	12439,948
535,8	12302,405
536,2	12164,49
536,7	12023,662
537,1	11890,719
537,6	11751,833
538	11616,805
538,5	11497,29
538,9	11355,776
539,4	11233,09
539,8	11114,833
540,3	10985,405
540,7	10865,348
541,2	10729,262
541,6	10609,862
542,1	10493,548
542,5	10368,69
543	10250,005
543,4	10132,376
543,9	10023,233
544,3	9922,948
544,8	9810,89
545,2	9707,29
545,7	9605,89
546,1	9495,062
546,5	9402,919
547	9295,433
547,4	9196,805
547,9	9095,49
548,3	9001,719
548,8	8907,29
549,2	8816,005
549,7	8719,748
550,1	8638,233
550,6	8544,062
551	8456,976
551,5	8370,862
551,9	8277,376
552,4	8198,205
552,8	8105,462
553,3	8014,69
553,7	7931,805
554,2	7850,033
554,6	7763,176
555,1	7689,662
555,5	7605,033
555,9	7542,976
556,4	7467,748
556,8	7395,176
557,3	7317,119
557,7	7246,662
558,2	7173,033
558,6	7110,262
559,1	7036,605
559,5	6963,148
560	6893,89
560,4	6834,348
560,9	6768,976
561,3	6700,176
561,8	6636,748
562,2	6569,519
562,7	6509,176
563,1	6452,348
563,6	6383,376
564	6321,919
564,4	6264,833
564,9	6199,176
565,3	6142,09
565,8	6090,348
566,2	6035,719
566,7	5992,976
567,1	5946,805
567,6	5894,49
568	5846,062
568,5	5794,919
568,9	5740,805
569,4	5692,405
569,8	5633,376
570,3	5573,948
570,7	5518,948
571,1	5474,69
571,6	5423,262
572	5371,033
572,5	5316,633
572,9	5272,005
573,4	5225,319
573,8	5186,548
574,3	5137,576
574,7	5100,405
575,2	5058,719
575,6	5019,69
576,1	4978,119
576,5	4950,376
576,9	4902,29
577,4	4854,405
577,8	4804,89
578,3	4763,233
578,7	4725,662
579,2	4684,805
579,6	4627,49
580,1	4590,233
580,5	4553,776
581	4520,119
581,4	4485,69
581,9	4434,748
582,3	4400,09
582,7	4368,69
583,2	4332,348
583,6	4299,748
584,1	4263,548
584,5	4226,548
585	4193,919
585,4	4149,605
585,9	4106,976
586,3	4078,605
586,8	4044,862
587,2	4006,262
587,6	3973,805
588,1	3946,09
588,5	3923,233
589	3900,776
589,4	3859,776
589,9	3827,69
590,3	3805,005
590,8	3778,548
591,2	3752,062
591,7	3725,605
592,1	3702,005
592,5	3682,033
593	3655,833
593,4	3629,319
593,9	3600,005
594,3	3569,862
594,8	3536,09
595,2	3504,005
595,7	3476,976
596,1	3452,948
596,6	3425,148
597	3403,176
597,4	3380,519
597,9	3359,29
598,3	3342,69
598,8	3315,033
599,2	3288,348
599,7	3263,148
600,1	3234,662
600,6	3213,033
601	3194,833
601,4	3174,576
601,9	3160,348
602,3	3138,348
602,8	3124,433
603,2	3105,062
603,7	3079,662
604,1	3058,119
604,6	3029,89
605	3000,148
605,4	2982,519
605,9	2953,433
606,3	2930,519
606,8	2911,576
607,2	2882,49
607,7	2856,49
608,1	2843,205
608,6	2821,748
609	2811,89
609,4	2798,862
609,9	2780,033
610,3	2764,948
610,8	2755,576
611,2	2736,319
611,7	2715,033
612,1	2687,005
612,6	2662,405
613	2647,176
613,4	2627,89
613,9	2602,976
614,3	2582,262
614,8	2570,662
615,2	2553,005
615,7	2533,405
616,1	2514,233
616,6	2493,148
617	2475,776
617,4	2459,376
617,9	2440,862
618,3	2422,862
618,8	2414,148
619,2	2397,748
619,7	2388,119
620,1	2375,662
620,5	2364,462
621	2345,176
621,4	2330,49
621,9	2314,233
622,3	2300,633
622,8	2278,348
623,2	2258,176
623,6	2236,119
624,1	2221,548
624,5	2206,519
625	2188,633
625,4	2173,348
625,9	2164,148
626,3	2149,348
626,8	2132,89
627,2	2117,148
627,6	2098,119
628,1	2081,433
628,5	2065,919
629	2041,919
629,4	2026,576
629,9	2015,405
630,3	1997,948
630,7	1984,119
631,2	1969,176
631,6	1949,662
632,1	1941,919
632,5	1930,89
633	1916,948
633,4	1904,462
633,8	1893,805
634,3	1883,376
634,7	1869,805
635,2	1853,805
635,6	1839,576
636,1	1825,119
636,5	1810,776
636,9	1792,519
637,4	1779,262
637,8	1760,976
638,3	1746,262
638,7	1733,719
639,2	1717,519
639,6	1706,462
640	1698,662
640,5	1684,148
640,9	1679,233
641,4	1671,833
641,8	1659,09
642,2	1650,148
642,7	1639,605
643,1	1631,062
643,6	1617,033
644	1604,376
644,5	1593,862
644,9	1581,548
645,3	1573,319
645,8	1561,719
646,2	1552,462
646,7	1542,005
647,1	1531,233
647,6	1522,748
648	1512,748
648,4	1498,062
648,9	1488,662
649,3	1475,176
649,8	1471,176
650,2	1459,862
650,6	1449,633
651,1	1437,805
651,5	1432,148
652	1421,319
652,4	1407,519
652,9	1393,69
653,3	1384,033
653,7	1371,862
654,2	1362,319
654,6	1350,462
655,1	1340,033
655,5	1338,233
655,9	1328,233
656,4	1324,719
656,8	1316,89
657,3	1313,148
657,7	1305,89
658,2	1296,148
658,6	1280,405
659	1272,233
659,5	1259,005
659,9	1252,776
660,4	1243,548
660,8	1232,462
661,2	1224,348
661,7	1218,89
662,1	1212,89
662,6	1205,633
663	1197,09
663,4	1186,862
663,9	1178,176
664,3	1175,748
664,8	1163,033
665,2	1151,176
665,6	1140,148
666,1	1130,176
666,5	1119,062
667	1110,69
667,4	1095,49
667,9	1094,205
668,3	1087,719
668,7	1080,262
669,2	1075,233
669,6	1072,348
670,1	1065,69
670,5	1057,49
670,9	1044,89
671,4	1035,119
671,8	1024,633
672,3	1016,09
672,7	1009,233
673,1	999,662
673,6	992,262
674	988,319
674,5	975,805
674,9	969,262
675,3	955,29
675,8	948,062
676,2	942,348
676,7	934,376
677,1	926,548
677,5	924,662
678	921,433
678,4	917,205
678,9	907,433
679,3	901,262
679,7	898,205
680,2	889,148
680,6	886,319
681,1	874,376
681,5	869,09
681,9	865,148
682,4	862,176
682,8	859,205
683,3	856,233
683,7	849,633
684,1	846,005
684,6	836,519
685	830,776
685,5	823,148
685,9	812,033
686,3	800,29
686,8	791,833
687,2	785,29
687,7	782,976
688,1	768,748
688,5	758,033
689	755,662
689,4	756,29
689,9	748,29
690,3	740,033
690,7	734,119
691,2	735,833
691,6	736,519
692	730,576
692,5	724,262
692,9	723,519
693,4	721,348
693,8	720,633
694,2	716,176
694,7	704,119
695,1	695,633
695,6	692,805
696	690,748
696,4	684,805
696,9	668,805
697,3	661,233
697,8	662,233
698,2	659,205
698,6	651,576
699,1	640,89
699,5	639,319
699,9	645,033
700,4	634,805
700,8	630,748
701,3	627,662
701,7	620,862
702,1	618,976
702,6	615,376
703	609,433
703,5	613,405
703,9	605,805
704,3	605,148
704,8	599,719
705,2	594,69
705,6	591,662
706,1	586,633
706,5	580,148
707	575,519
707,4	565,776
707,8	562,805
708,3	562,176
708,7	555,805
709,2	547,233
709,6	541,49
710	539,662
710,5	534,148
710,9	533,69
711,3	526,005
711,8	520,548
712,2	525,862
712,7	523,348
713,1	519,09
713,5	518,462
714	515,548
714,4	509,89
714,8	512,605
715,3	497,548
715,7	495,805
716,2	486,605
716,6	484,49
717	478,89
717,5	479,462
717,9	475,233
718,3	477,662
718,8	470,605
719,2	470,862
719,7	466,033
720,1	466,719
720,5	463,405
721	455,262
721,4	452,69
721,8	454,776
722,3	452,49
722,7	448,748
723,2	439,662
723,6	424,433
724	419,833
724,5	413,948
724,9	404,805
725,3	397,433
725,8	392,205
726,2	386,805
726,7	393,405
727,1	390,148
727,5	389,833
728	389,005
728,4	388,519
728,8	384,119
729,3	385,462
729,7	380,719
730,1	379,205
730,6	374,005
731	369,548
731,5	367,805
731,9	369,348
732,3	368,976
732,8	368,433
733,2	364,576
733,6	362,205
734,1	360,49
734,5	357,319
734,9	360,033
735,4	356,462
735,8	347,605
736,3	348,376
736,7	344,033
737,1	340,69
737,6	338,09
738	331,29
738,4	324,633
738,9	328,748
739,3	329,633
739,7	331,205
740,2	326,633
740,6	330,548
741,1	327,062
741,5	324,976
741,9	324,919
742,4	321,233
742,8	318,176
743,2	323,776
743,7	313,376
744,1	310,605
744,5	310,49
745	302,719
745,4	297,719
745,8	295,662
746,3	287,29
746,7	287,376
747,2	284,176
747,6	282,976
748	289,09
748,5	290,862
748,9	284,033
749,3	283,205
749,8	282,005
750,2	284,09
750,6	277,576
751,1	271,69
751,5	268,49
751,9	271,49
752,4	273,548
752,8	274,462
753,3	267,776
753,7	275,405
754,1	271,176
754,6	265,433
755	261,148
755,4	258,176
755,9	250,205
756,3	249,462
756,7	247,519
757,2	250,262
757,6	254,29
758	254,89
758,5	251,005
758,9	251,833
759,3	252,462
759,8	246,205
760,2	240,462
760,6	232,205
761,1	228,805
761,5	227,548
761,9	226,833
762,4	217,462
762,8	213,976
763,3	209,09
763,7	213,233
764,1	213,49
764,6	212,633
765	211,49
765,4	215,233
765,9	213,49
766,3	217,462
766,7	209,833
767,2	207,519
767,6	208,776
768	207,233
768,5	208,205
768,9	207,805
769,3	207,948
769,8	208,633
770,2	211,69
770,6	208,176
771,1	208,805
771,5	207,462
771,9	208,548
772,4	208,69
772,8	208,09
773,2	204,89
773,7	201,948
774,1	197,719
774,5	191,233
775	186,605
775,4	186,205
775,8	186,348
776,3	184,29
776,7	184,062
777,1	183,119
777,6	185,405
778	192,033
778,4	185,519
778,9	184,719
779,3	183,462
779,7	183,519
780,2	185,033
780,6	184,662
781	179,09
781,5	176,262
781,9	176,062
782,3	170,29
782,8	173,548
783,2	171,005
783,6	174,89
784,1	168,862
784,5	166,49
784,9	161,69
785,4	163,033
785,8	159,719
786,2	161,462
786,7	160,576
787,1	160,205
787,5	162,576
788	161,033
788,4	162,09
788,8	156,033
789,3	151,405
789,7	145,29
790,1	143,433
790,6	145,948
791	143,719
791,4	142,148
791,9	140,005
792,3	140,433
792,7	142,548
793,2	141,262
793,6	140,405
794	143,805
794,5	141,433
794,9	144,605
795,3	144,69
795,8	143,148
796,2	147,062
796,6	140,376
797,1	135,69
797,5	132,862
797,9	128,262
798,4	120,205
798,8	116,205
799,2	113,576
799,7	116,29
800,1	116,233
800,5	121,005
801	123,748
801,4	129,519
801,8	130,49
802,2	129,49
802,7	126,205
803,1	128,233
803,5	124,748
804	121,176
804,4	117,69
804,8	119,862
805,3	121,548
805,7	122,719
806,1	121,948
806,6	124,462
807	129,576
807,4	128,49
807,9	121,319
808,3	116,776
808,7	116,748
809,2	117,748
809,6	116,405
810	112,005
810,4	109,033
810,9	110,719
811,3	115,062
811,7	113,319
812,2	114,205
812,6	109,948
813	112,862
813,5	117,919
813,9	115,09
814,3	110,976
814,8	103,805
815,2	96,49
815,6	97,748
816,1	97,633
816,5	96,033
816,9	96,519
817,3	95,862
817,8	106,49
818,2	109,748
818,6	103,233
819,1	98,976
819,5	96,233
819,9	94,348
820,4	94,29
820,8	88,119
821,2	80,405
821,7	86,405
822,1	88,633
822,5	95,576
822,9	97,348
823,4	96,119
823,8	92,976
824,2	100,49
824,7	91,233
825,1	83,748
825,5	69,576
826	63,976
826,4	58,519
826,8	57,69
827,3	58,519
827,7	62,919
828,1	66,348
828,5	70,719
829	70,948
829,4	73,519
829,8	72,862
830,3	66,205
830,7	65,89
831,1	63,119
831,6	65,405
832	65,662
832,4	66,948
832,8	71,062
833,3	72,348
833,7	72,005
834,1	71,262
834,6	70,062
835	72,462
835,4	73,262
835,8	66,776
836,3	67,462
836,7	65,005
837,1	64,548
837,6	65,89
838	64,09
838,4	59,833
838,9	61,033
839,3	55,49
839,7	58,948
840,1	52,89
840,6	50,033
841	52,862
841,4	54,89
841,9	58,805
842,3	61,948
842,7	62,576
843,1	65,948
843,6	65,976
844	65,69
844,4	66,548
844,9	68,576
845,3	69,005
845,7	64,576
846,2	65,805
846,6	61,033
847	60,29
847,4	61,119
847,9	54,776
848,3	52,862
848,7	51,49
849,2	50,205
849,6	48,748
850	50,805
850,4	48,233
850,9	50,433
851,3	52,29
851,7	53,376
852,2	52,948
852,6	61,376
853	58,262
853,4	55,976
853,9	52,09
854,3	51,833
854,7	53,776
855,2	54,262
855,6	46,29
856	42,433
856,4	42,119
856,9	44,662
857,3	42,833
857,7	47,462
858,2	47,805
858,6	48,976
859	49,69
859,4	50,205
859,9	49,919
860,3	44,548
860,7	33,948
861,1	36,176
861,6	36,148
862	36,433
862,4	34,719
862,9	36,948
863,3	42,776
863,7	43,69
864,1	40,748
864,6	38,69
865	36,948
865,4	38,405
865,9	37,176
866,3	32,005
866,7	31,348
867,1	28,919
867,6	30,033
868	29,376
868,4	29,776
868,8	27,433
869,3	26,633
869,7	32,262
870,1	30,833
870,6	28,376
871	8,348
871,4	9,176
871,8	3,662
872,3	10,348
872,7	5,348
873,1	10,833
873,5	12,633
874	32,776
874,4	35,176
874,8	36,576
875,3	35,805
875,7	36,49
876,1	30,319
876,5	32,119
877	30,862
877,4	25,833
877,8	30,119
878,2	29,176
878,7	32,862
879,1	34,919
879,5	35,29
879,9	37,033
880,4	40,862
880,8	37,519
881,2	37,262
881,7	34,262
882,1	36,576
882,5	31,805
882,9	26,719
883,4	19,519
883,8	20,033
884,2	19,49
884,6	17,29
885,1	16,462
885,5	20,662
885,9	24,605
886,3	26,748
886,8	26,519
887,2	23,176
887,6	21,462
888	18,462
888,5	18,748
888,9	16,176
889,3	13,748
889,8	13,662
890,2	12,09
890,6	11,948
891	12,462
891,5	9,405
891,9	11,919
892,3	17,348
892,7	17,462
893,2	22,976
893,6	26,548
894	30,376
894,4	28,062
894,9	29,719
895,3	25,633
895,7	27,662
896,1	22,205
896,6	22,262
897	21,319
897,4	28,633
897,8	28,662
898,3	28,576
898,7	22,833
899,1	25,405
899,5	22,948
900	17,519
900,4	14,776
900,8	7,09
901,2	7,119
901,7	8,09
902,1	9,948
902,5	13,119
902,9	14,005
903,4	12,605
903,8	18,805
904,2	18,205
904,6	18,062
905,1	15,919
905,5	12,176
905,9	17,69
906,3	23,233
906,8	25,548
907,2	24,348
907,6	27,033
908	27,062
908,5	26,062
908,9	20,405
909,3	15,233
909,7	12,519
910,2	17,433
910,6	20,205
911	17,462
911,4	18,205
911,9	16,862
912,3	16,319
912,7	18,49
913,1	20,49
913,6	17,176
914	18,519
914,4	19,69
914,8	21,976
915,3	21,348
915,7	14,49
916,1	9,319
916,5	10,205
916,9	12,662
917,4	12,69
917,8	13,262
918,2	9,919
918,6	6,919
919,1	8,119
919,5	10,033
919,9	8,29
920,3	4,662
920,8	4,376
921,2	7,519
921,6	12,348
922	10,862
922,5	5,49
922,9	6,176
923,3	3,89
923,7	4,148
924,2	-0,481
924,6	1,748
925	3,576
925,4	3,776
925,8	3,605
926,3	7,805
926,7	5,548
927,1	7,805
927,5	8,062
928	5,89
928,4	2,233
928,8	2,862
929,2	-1,538
929,7	2,005
930,1	5,576
930,5	0,319
930,9	5,776
931,3	12,033
931,8	10,633
932,2	15,633
932,6	13,09
933	7,433
933,5	11,548
933,9	8,348
934,3	7,119
934,7	1,319
935,2	1,005
935,6	2,49
936	7,548
936,4	10,262
936,8	9,176
937,3	3,633
937,7	11,862
938,1	13,919
938,5	7,605
939	8,205
939,4	4,462
939,8	3,89
940,2	7,919
940,6	3,405
941,1	2,748
941,5	11,748
941,9	4,49
942,3	7,49
942,8	5,748
943,2	8,033
943,6	7,719
944	4,862
944,4	-0,424
944,9	2,262
945,3	0,948
945,7	-2,795
946,1	-8,595
946,6	-9,595
947	-11,338
947,4	-5,11
947,8	-2,824
948,2	-6,51
948,7	-2,567
949,1	-0,624
949,5	4,062
949,9	5,205
950,3	0,548
950,8	1,119
951,2	0,748
951,6	-3,224
952	3,233
952,5	-3,795
952,9	-2,395
953,3	-1,138
953,7	-3,795
954,1	2,29
954,6	7,376
955	3,29
955,4	8,433
955,8	7,262
956,2	5,09
956,7	6,776
957,1	5,319
957,5	6,69
957,9	8,119
958,3	3,719
958,8	7,633
959,2	11,405
959,6	11,49
960	6,662
960,5	7,519
960,9	9,805
961,3	9,633
961,7	9,119
962,1	6,633
962,6	9,576
963	11,319
963,4	7,319
963,8	3,49
964,2	8,719
964,7	7,062
965,1	6,633
965,5	2,748
965,9	1,49
966,3	3,662
966,8	3,462
967,2	2,233
967,6	0,548
968	-1,91
968,4	-0,195
968,9	3,49
969,3	4,176
969,7	3,605
970,1	3,348
970,5	2,948
971	8,519
971,4	5,49
971,8	0,005
972,2	0,405
972,6	-0,11
973,1	0,548
973,5	2,09
973,9	-1,481
974,3	2,948
974,7	9,605
975,2	9,348
975,6	6,833
976	5,719
976,4	1,29
976,8	-0,71
977,3	-5,538
977,7	-12,195
978,1	-13,881
978,5	-13,252
978,9	-14,595
979,4	-10,167
979,8	-8,395
980,2	-4,51
980,6	-7,51
981	-7,595
981,5	-2,995
981,9	-4,481
982,3	-5,967
982,7	-3,91
983,1	-7,91
983,6	-6,252
984	-7,367
984,4	-8,052
984,8	-7,367
985,2	-6,481
985,6	-9,881
986,1	-7,995
986,5	-2,052
986,9	-4,538
987,3	-4,481
987,7	-2,91
988,2	-5,51
988,6	-1,967
989	-2,624
989,4	-5,452
989,8	-0,338
990,3	-2,338
990,7	-3,881
991,1	-0,738
991,5	0,748
991,9	3,262
992,3	6,948
992,8	7,719
993,2	6,633
993,6	10,776
994	14,376
994,4	13,862
994,9	15,348
995,3	10,776
995,7	7,89
996,1	11,576
996,5	10,519
996,9	1,605
997,4	0,033
997,8	-3,881
998,2	-3,481
998,6	-8,338
999	-9,224
999,5	-12,538
999,9	-9,652
1000,3	-11,795
1000,7	-12,252
1001,1	-13,081
1001,5	-6,681
1002	-0,024
1002,4	3,576
1002,8	6,405
1003,2	11,005
1003,6	14,748
1004	19,462
1004,5	17,633
1004,9	11,49
1005,3	5,176
1005,7	5,89
1006,1	0,205
1006,6	-4,652
1007	-9,11
1007,4	-11,481
1007,8	-12,995
1008,2	-10,452
1008,6	-13,795
1009,1	-11,71
1009,5	-12,624
1009,9	-8,881
1010,3	-2,481
1010,7	-2,138
1011,1	-0,91
1011,6	0,862
1012	3,376
1012,4	4,776
1012,8	0,833
1013,2	2,319
1013,6	3,233
1014,1	4,376
1014,5	7,576
1014,9	4,976
1015,3	7,49
1015,7	9,233
1016,1	3,833
1016,6	1,176
1017	1,233
1017,4	0,148
1017,8	1,662
1018,2	1,919
1018,6	-1,224
1019,1	-2,595
1019,5	-3,281
1019,9	-6,138
1020,3	-8,452
1020,7	-9,71
1021,1	-10,738
1021,6	-5,167
1022	-1,367
1022,4	-1,452
1022,8	2,633
1023,2	2,976
1023,6	4,405
1024,1	12,062
1024,5	15,49
1024,9	7,805
1025,3	9,119
1025,7	10,633
1026,1	13,033
1026,6	11,462
1027	5,49
1027,4	0,519
1027,8	6,976
1028,2	5,833
1028,6	6,976
1029	5,576
1029,5	12,605
1029,9	12,062
1030,3	9,548
1030,7	5,519
1031,1	7,69
1031,5	0,49
1032	-1,567
1032,4	-5,738
1032,8	-6,481
1033,2	0,348
1033,6	3,462
1034	-0,024
1034,4	2,005
1034,9	4,29
1035,3	-1,51
1035,7	0,148
1036,1	-3,681
1036,5	-3,481
1036,9	-0,281
1037,4	1,405
1037,8	-0,938
1038,2	3,09
1038,6	1,348
1039	4,948
1039,4	7,805
1039,8	5,862
1040,3	8,576
1040,7	2,49
1041,1	0,519
1041,5	0,233
1041,9	-6,538
1042,3	-8,224
1042,7	-8,51
1043,2	-9,51
1043,6	-2,91
1044	-2,024
1044,4	-2,567
1044,8	4,833
1045,2	1,09
1045,6	0,833
1046,1	-3,081
1046,5	-2,052
1046,9	-3,967
1047,3	-4,167
1047,7	-11,595
1048,1	-11,538
1048,5	-5,795
1049	-1,91
1049,4	0,119
1049,8	-1,452
1050,2	-1,595
1050,6	4,833
1051	8,29
1051,4	4,176
1051,9	2,576
1052,3	9,119
1052,7	13,233
1053,1	10,948
1053,5	9,519
1053,9	8,862
1054,3	5,319
1054,8	14,005
1055,2	7,348
1055,6	8,405
1056	10,176
1056,4	8,662
1056,8	6,233
1057,2	10,005
1057,6	-1,767
1058,1	-6,795
1058,5	-10,338
1058,9	-5,681
1059,3	-5,452
1059,7	-4,767
1060,1	-4,967
1060,5	-1,652
1061	2,262
1061,4	5,519
1061,8	5,148
1062,2	5,119
1062,6	3,405
1063	10,233
1063,4	9,748
1063,8	9,662
1064,3	5,862
1064,7	4,348
1065,1	1,433
1065,5	1,89
1065,9	-8,338
1066,3	-8,395
1066,7	-14,652
1067,1	-15,11
1067,6	-11,452
1068	-9,967
1068,4	-9,652
1068,8	2,319
1069,2	2,148
1069,6	6,662
1070	13,776
1070,4	9,376
1070,9	5,49
1071,3	5,89
1071,7	-2,138
1072,1	-0,481
1072,5	-3,452
1072,9	-7,795
1073,3	-6,652
1073,7	-2,652
1074,2	1,748
1074,6	4,09
1075	1,833
1075,4	5,89
1075,8	6,719
1076,2	5,29
1076,6	8,148
1077	3,176
1077,5	4,205
1077,9	4,176
1078,3	3,319
1078,7	0,633
1079,1	0,376
1079,5	-1,91
1079,9	0,29
1080,3	-5,31
1080,7	-5,824
1081,2	-4,367
1081,6	-6,395
1082	-10,567
1082,4	-7,024
1082,8	-10,138
1083,2	-5,51
1083,6	-3,224
1084	-6,738
1084,5	-4,967
1084,9	-2,71
1085,3	-9,424
1085,7	-4,881
1086,1	-5,538
1086,5	-2,224
1086,9	4,89
1087,3	3,662
1087,7	4,576
1088,2	7,205
1088,6	4,748
1089	3,148
1089,4	-2,51
1089,8	-5,395
1090,2	-7,395
1090,6	-7,167
1091	-4,681
1091,4	-1,31
1091,9	-0,138
1092,3	2,462
1092,7	4,148
1093,1	11,633
1093,5	12,176
1093,9	7,862
1094,3	8,49
1094,7	7,633
1095,1	6,576
1095,5	5,633
1096	3,405
1096,4	3,348
1096,8	5,919
1097,2	4,405
1097,6	4,805
1098	4,09
1098,4	4,148
1098,8	4,548
1099,2	12,319
1099,6	10,662
1100,1	5,462
1100,5	5,319
1100,9	5,319
1101,3	4,09
1101,7	1,605
1102,1	-5,91
1102,5	0,233
1102,9	4,919
1103,3	6,576
1103,7	9,119
1104,2	4,776
1104,6	5,405
1105	5,833
1105,4	-1,052
1105,8	-2,51
1106,2	-4,624
1106,6	-6,481
1107	-3,252
1107,4	-2,3
1107,8	-2,687
1108,3	-0,217
