Data from Subt2_045.txt Node
Date: Sat Aug 26 16:25:29 MSK 2023
User: vat
Spectrometer: MAYP114033
Trigger mode: 0
Integration Time (sec): 1,000000E0
Scans to average: 5
Electric dark correction enabled: true
Nonlinearity correction enabled: false
Boxcar width: 3
XAxis mode: Wavelengths
Number of Pixels in Spectrum: 2068
>>>>>Begin Spectral Data<<<<<
199,4	-0,083
199,9	-0,413
200,4	-2,267
200,8	-1,048
201,3	-2,076
201,8	-0,219
202,2	0,238
202,7	1,41
203,2	1,01
203,6	1,695
204,1	1,038
204,6	5,581
205	5,352
205,5	4,324
206	5,295
206,4	7,924
206,9	9,352
207,4	12,41
207,8	7,667
208,3	7,552
208,8	10,495
209,2	10,295
209,7	9,524
210,2	14,581
210,6	14,552
211,1	15,952
211,5	14,067
212	8,552
212,5	4,638
212,9	2,895
213,4	-1,219
213,9	-6,619
214,3	-2,819
214,8	-1,648
215,3	0,01
215,7	-0,962
216,2	4,438
216,7	2,838
217,1	3,381
217,6	-0,505
218,1	0,924
218,5	5,781
219	13,067
219,5	8,638
219,9	7,381
220,4	7,61
220,9	9,067
221,3	9,438
221,8	2,295
222,3	-1,019
222,7	-3,648
223,2	-0,076
223,6	0,524
224,1	-1,59
224,6	-2,99
225	-0,848
225,5	2,895
226	4,467
226,4	5,524
226,9	1,381
227,4	7,067
227,8	9,238
228,3	15,524
228,8	10,838
229,2	12,152
229,7	8,01
230,2	16,524
230,6	9,21
231,1	7,381
231,5	5,238
232	10,267
232,5	12,61
232,9	15,038
233,4	14,038
233,9	14,895
234,3	13,152
234,8	12,067
235,3	11,01
235,7	11,21
236,2	9,867
236,7	6,267
237,1	6,61
237,6	5,924
238,1	5,438
238,5	5,295
239	3,81
239,4	4,152
239,9	4,124
240,4	7,095
240,8	9,124
241,3	5,81
241,8	-0,962
242,2	-6,248
242,7	-7,019
243,2	-5,733
243,6	-8,705
244,1	-11,733
244,6	-9,333
245	-9,019
245,5	-3,562
245,9	-3,476
246,4	-5,648
246,9	-5,248
247,3	-2,248
247,8	-0,476
248,3	8,295
248,7	9,61
249,2	7,61
249,7	9,838
250,1	8,61
250,6	8,724
251	8,467
251,5	0,695
252	-1,733
252,4	1,352
252,9	2,981
253,4	4,352
253,8	0,181
254,3	0,438
254,8	5,952
255,2	5,752
255,7	7,952
256,1	8,095
256,6	9,038
257,1	15,781
257,5	15,838
258	11,924
258,5	12,21
258,9	11,438
259,4	10,838
259,9	12,438
260,3	6,438
260,8	7,895
261,2	9,581
261,7	5,352
262,2	2,552
262,6	1,924
263,1	0,952
263,6	4,724
264	2,295
264,5	2,695
264,9	8,095
265,4	7,524
265,9	9,524
266,3	9,01
266,8	5,124
267,3	7,467
267,7	9,01
268,2	6,267
268,7	6,895
269,1	1,324
269,6	2,724
270	8,61
270,5	5,952
271	3,267
271,4	2,667
271,9	1,495
272,4	5,067
272,8	1,181
273,3	-1,305
273,7	-1,448
274,2	-4,333
274,7	-4,19
275,1	-4,419
275,6	-1,79
276,1	4,21
276,5	7,667
277	10,581
277,4	15,61
277,9	17,61
278,4	19,638
278,8	16,638
279,3	9,01
279,8	7,838
280,2	2,581
280,7	0,867
281,1	0,61
281,6	1,495
282,1	2,324
282,5	8,552
283	5,952
283,4	5,81
283,9	2,638
284,4	2,038
284,8	1,181
285,3	-2,105
285,8	-4,933
286,2	-7,648
286,7	-5,419
287,1	-2,105
287,6	1,152
288,1	2,81
288,5	8,895
289	12,124
289,5	10,867
289,9	11,238
290,4	8,295
290,8	9,352
291,3	6,01
291,8	4,067
292,2	3,095
292,7	7,552
293,1	6,467
293,6	7,438
294,1	4,495
294,5	11,61
295	9,981
295,5	12,638
295,9	13,152
296,4	16,467
296,8	18,01
297,3	18,952
297,8	14,724
298,2	15,895
298,7	7,524
299,1	9,295
299,6	7,695
300,1	11,781
300,5	12,638
301	15,581
301,5	14,495
301,9	19,667
302,4	15,667
302,8	16,01
303,3	9,438
303,8	7,581
304,2	0,124
304,7	-1,562
305,1	-0,562
305,6	1,467
306,1	0,752
306,5	2,981
307	-0,019
307,4	2,181
307,9	4,067
308,4	2,41
308,8	6,01
309,3	3,524
309,8	8,324
310,2	8,495
310,7	14,724
311,1	11,781
311,6	11,467
312,1	11,152
312,5	12,295
313	6,667
313,4	9,152
313,9	8,381
314,4	9,067
314,8	11,267
315,3	8,867
315,7	9,781
316,2	6,01
316,7	4,067
317,1	2,495
317,6	4,952
318	7,381
318,5	10,21
319	11,724
319,4	17,867
319,9	21,41
320,3	22,895
320,8	24,867
321,3	19,81
321,7	16,381
322,2	15,781
322,6	14,552
323,1	12,267
323,6	9,324
324	6,867
324,5	4,695
324,9	8,61
325,4	10,295
325,9	13,952
326,3	16,381
326,8	18,324
327,2	21,381
327,7	24,295
328,2	19,695
328,6	21,238
329,1	20,267
329,5	19,181
330	21,981
330,5	17,867
330,9	17,295
331,4	13,095
331,8	13,924
332,3	10,467
332,8	6,838
333,2	-0,562
333,7	3,495
334,1	3,81
334,6	9,038
335,1	6,552
335,5	7,495
336	6,181
336,4	8,61
336,9	8,381
337,4	9,067
337,8	10,01
338,3	9,038
338,7	9,924
339,2	15,895
339,7	16,124
340,1	13,152
340,6	10,981
341	13,867
341,5	17,352
342	16,352
342,4	16,838
342,9	14,095
343,3	16,895
343,8	20,41
344,2	16,41
344,7	15,467
345,2	9,638
345,6	8,438
346,1	12,152
346,5	8,981
347	9,952
347,5	7,81
347,9	6,781
348,4	14,381
348,8	14,61
349,3	12,781
349,8	14,895
350,2	13,181
350,7	17,324
351,1	14,667
351,6	15,695
352	21,924
352,5	26,695
353	35,324
353,4	45,324
353,9	57,924
354,3	78,238
354,8	88,467
355,3	106,324
355,7	127,924
356,2	150,095
356,6	179,238
357,1	207,352
357,5	237,838
358	285,467
358,5	327,381
358,9	379,295
359,4	438,752
359,8	500,352
360,3	571,01
360,8	650,61
361,2	740,495
361,7	845,01
362,1	958,267
362,6	1081,295
363	1216,952
363,5	1362,552
364	1507,924
364,4	1655,667
364,9	1803,067
365,3	1947,238
365,8	2082,352
366,3	2211,867
366,7	2323,124
367,2	2427,895
367,6	2512,467
368,1	2575,638
368,5	2616,381
369	2640,952
369,5	2640,524
369,9	2619,324
370,4	2576,467
370,8	2517,095
371,3	2445,41
371,7	2362,324
372,2	2261,81
372,7	2142,467
373,1	2027,552
373,6	1911,495
374	1790,352
374,5	1665,61
374,9	1544,981
375,4	1432,181
375,9	1330,295
376,3	1230,695
376,8	1134,238
377,2	1047,095
377,7	964,952
378,2	888,61
378,6	815,524
379,1	749,352
379,5	688,381
380	631,867
380,4	577,724
380,9	533,152
381,4	490,895
381,8	453,495
382,3	415,581
382,7	378,981
383,2	348,81
383,6	325,524
384,1	303,895
384,6	276,21
385	256,381
385,5	242,724
385,9	232,752
386,4	217,695
386,8	203,867
387,3	190,781
387,7	184,295
388,2	171,524
388,7	157,152
389,1	144,81
389,6	135,181
390	124,667
390,5	111,924
390,9	106,895
391,4	98,924
391,9	90,495
392,3	82,181
392,8	75,838
393,2	67,238
393,7	63,324
394,1	59,181
394,6	56,752
395,1	59,152
395,5	59,152
396	55,981
396,4	55,181
396,9	56,295
397,3	50,695
397,8	47,981
398,2	43,267
398,7	40,01
399,2	38,467
399,6	44,438
400,1	39,438
400,5	41,324
401	46,552
401,4	52,267
401,9	53,61
402,4	58,01
402,8	54,838
403,3	55,81
403,7	54,095
404,2	46,41
404,6	42,638
405,1	42,152
405,5	37,438
406	35,181
406,5	32,41
406,9	31,924
407,4	33,752
407,8	35,295
408,3	34,867
408,7	44,21
409,2	48,981
409,6	52,924
410,1	61,295
410,6	67,41
411	72,267
411,5	76,267
411,9	75,038
412,4	77,695
412,8	81,952
413,3	81,838
413,7	89,838
414,2	96,581
414,7	107,467
415,1	112,038
415,6	120,752
416	133,152
416,5	141,781
416,9	143,867
417,4	152,495
417,8	158,352
418,3	173,467
418,8	177,381
419,2	187,238
419,7	201,124
420,1	209,181
420,6	214,41
421	223,781
421,5	228,295
421,9	241,667
422,4	246,981
422,8	256,352
423,3	269,381
423,8	285,295
424,2	298,038
424,7	311,524
425,1	321,41
425,6	340,581
426	351,038
426,5	368,867
426,9	380,924
427,4	398,724
427,9	412,667
428,3	434,41
428,8	453,638
429,2	469,524
429,7	485,41
430,1	510,724
430,6	532,952
431	561,752
431,5	589,095
431,9	613,695
432,4	644,924
432,8	681,581
433,3	709,238
433,8	743,695
434,2	782,21
434,7	815,21
435,1	851,467
435,6	892,638
436	928,267
436,5	979,638
436,9	1023,524
437,4	1070,695
437,8	1116,038
438,3	1166,81
438,8	1217,381
439,2	1271,324
439,7	1320,21
440,1	1377,095
440,6	1437,352
441	1503,267
441,5	1567,667
441,9	1637,038
442,4	1709,438
442,8	1785,41
443,3	1859,038
443,7	1926,438
444,2	2005,438
444,7	2092,095
445,1	2173,81
445,6	2255,667
446	2340,381
446,5	2432,095
446,9	2532,524
447,4	2628,067
447,8	2717,381
448,3	2816,21
448,7	2920,524
449,2	3021,324
449,6	3125,181
450,1	3229,181
450,6	3338,81
451	3443,867
451,5	3561,981
451,9	3681,61
452,4	3801,467
452,8	3932,381
453,3	4049,295
453,7	4170,095
454,2	4308,838
454,6	4434,838
455,1	4565,781
455,5	4706,095
456	4828,524
456,4	4969,238
456,9	5107,152
457,3	5241,01
457,8	5380,352
458,3	5518,124
458,7	5660,752
459,2	5808,838
459,6	5957,152
460,1	6099,01
460,5	6249,295
461	6393,724
461,4	6546,695
461,9	6686,981
462,3	6840,124
462,8	6990,21
463,2	7152,895
463,7	7299,924
464,1	7461,438
464,6	7614,838
465	7767,981
465,5	7916,781
466	8063,695
466,4	8204,495
466,9	8355,295
467,3	8502,267
467,8	8649,952
468,2	8798,038
468,7	8947,238
469,1	9095,781
469,6	9245,495
470	9394,524
470,5	9531,495
470,9	9670,495
471,4	9813,295
471,8	9941,438
472,3	10068,438
472,7	10204,724
473,2	10324,781
473,6	10449,952
474,1	10573,21
474,5	10688,61
475	10810,381
475,4	10940,181
475,9	11051,352
476,4	11164,552
476,8	11276,581
477,3	11379,267
477,7	11490,095
478,2	11582,095
478,6	11679,038
479,1	11764,324
479,5	11853,038
480	11948,495
480,4	12034,867
480,9	12106,438
481,3	12184,695
481,8	12240,924
482,2	12307,724
482,7	12381,61
483,1	12437,838
483,6	12485,924
484	12542,581
484,5	12597,81
484,9	12646,952
485,4	12694,038
485,8	12719,581
486,3	12736,724
486,7	12768,324
487,2	12784,352
487,6	12801,781
488,1	12817,181
488,5	12839,895
489	12853,752
489,4	12871,924
489,9	12874,867
490,4	12872,438
490,8	12870,638
491,3	12867,267
491,7	12837,467
492,2	12828,352
492,6	12804,095
493,1	12781,667
493,5	12753,867
494	12726,067
494,4	12688,067
494,9	12654,61
495,3	12606,552
495,8	12563,952
496,2	12520,324
496,7	12478,495
497,1	12418,495
497,6	12369,638
498	12319,381
498,5	12271,124
498,9	12221,152
499,4	12159,895
499,8	12099,152
500,3	12042,01
500,7	11978,81
501,2	11919,295
501,6	11848,81
502,1	11783,924
502,5	11710,952
503	11645,124
503,4	11577,095
503,9	11509,867
504,3	11428,924
504,8	11350,067
505,2	11268,695
505,7	11197,438
506,1	11128,61
506,6	11040,152
507	10953,524
507,5	10875,381
507,9	10799,524
508,4	10720,867
508,8	10633,495
509,3	10544,781
509,7	10457,895
510,2	10381,038
510,6	10292,781
511,1	10198,124
511,5	10105,781
512	10018,038
512,4	9919,152
512,9	9833,152
513,3	9737,181
513,8	9638,21
514,2	9552,381
514,7	9461,095
515,1	9365,038
515,6	9275,552
516	9175,524
516,5	9076,381
516,9	8986,867
517,4	8887,41
517,8	8783,895
518,3	8688,952
518,7	8593,21
519,2	8502,438
519,6	8414,381
520,1	8317,124
520,5	8241,781
521	8146,552
521,4	8054,581
521,9	7963,467
522,3	7879,495
522,8	7794,895
523,2	7715,01
523,7	7609,038
524,1	7534,695
524,6	7454,695
525	7370,01
525,5	7291,324
525,9	7199,01
526,4	7113,752
526,8	7033,667
527,3	6956,438
527,7	6875,895
528,2	6797,981
528,6	6726,981
529,1	6650,581
529,5	6576,495
530	6507,038
530,4	6429,21
530,9	6352,495
531,3	6280,238
531,8	6200,895
532,2	6126,752
532,6	6066,724
533,1	5989,267
533,5	5916,067
534	5852,981
534,4	5782,01
534,9	5719,438
535,3	5658,838
535,8	5586,924
536,2	5523,295
536,7	5458,924
537,1	5398,067
537,6	5335,41
538	5270,524
538,5	5209,667
538,9	5142,124
539,4	5090,667
539,8	5032,524
540,3	4972,61
540,7	4925,267
541,2	4865,867
541,6	4812,924
542,1	4763,981
542,5	4711,524
543	4659,724
543,4	4609,038
543,9	4549,095
544,3	4504,238
544,8	4450,552
545,2	4400,038
545,7	4353,467
546,1	4307,638
546,5	4262,41
547	4217,21
547,4	4166,01
547,9	4123,781
548,3	4078,181
548,8	4023,61
549,2	3978,067
549,7	3935,324
550,1	3896,695
550,6	3854,067
551	3821,21
551,5	3787,81
551,9	3763,01
552,4	3730,01
552,8	3690,924
553,3	3651,352
553,7	3614,781
554,2	3574,467
554,6	3534,41
555,1	3496,752
555,5	3458,524
555,9	3430,238
556,4	3401,067
556,8	3373,581
557,3	3337,438
557,7	3310,181
558,2	3273,41
558,6	3239,838
559,1	3205,124
559,5	3172,81
560	3151,01
560,4	3120,695
560,9	3094,981
561,3	3069,41
561,8	3048,467
562,2	3019,41
562,7	2998,495
563,1	2965,467
563,6	2936,438
564	2905,01
564,4	2878,61
564,9	2848,438
565,3	2827,381
565,8	2798,981
566,2	2766,924
566,7	2747,552
567,1	2728,867
567,6	2704,667
568	2684,581
568,5	2659,352
568,9	2631,01
569,4	2612,067
569,8	2586,781
570,3	2563,924
570,7	2539,21
571,1	2508,981
571,6	2489,952
572	2477,752
572,5	2454,552
572,9	2438,01
573,4	2411,895
573,8	2392,867
574,3	2380,61
574,7	2356,895
575,2	2329,724
575,6	2313,21
576,1	2289,438
576,5	2270,467
576,9	2254,467
577,4	2239,695
577,8	2226,61
578,3	2210,381
578,7	2192,695
579,2	2180,295
579,6	2168,867
580,1	2156,895
580,5	2132,495
581	2110,752
581,4	2093,152
581,9	2070,924
582,3	2048,352
582,7	2029,238
583,2	2005,324
583,6	1992,21
584,1	1978,638
584,5	1966,781
585	1961,238
585,4	1945,838
585,9	1934,952
586,3	1921,324
586,8	1903,524
587,2	1886,552
587,6	1871,181
588,1	1858,267
588,5	1844,267
589	1825,152
589,4	1810,181
589,9	1800,724
590,3	1789,152
590,8	1776,067
591,2	1756,552
591,7	1747,524
592,1	1738,752
592,5	1729,638
593	1716,981
593,4	1704,667
593,9	1683,581
594,3	1670,638
594,8	1658,095
595,2	1645,01
595,7	1631,381
596,1	1615,781
596,6	1605,324
597	1601,867
597,4	1593,181
597,9	1580,924
598,3	1569,095
598,8	1557,467
599,2	1550,724
599,7	1535,181
600,1	1523,381
600,6	1514,152
601	1504,238
601,4	1502,21
601,9	1493,495
602,3	1484,952
602,8	1480,438
603,2	1474,981
603,7	1465,095
604,1	1463,867
604,6	1442,581
605	1431,924
605,4	1426,295
605,9	1412,581
606,3	1404,181
606,8	1394,038
607,2	1380,524
607,7	1377,41
608,1	1370,495
608,6	1356,524
609	1353,267
609,4	1343,21
609,9	1335,381
610,3	1329,267
610,8	1320,295
611,2	1311,095
611,7	1304,324
612,1	1291,038
612,6	1282,667
613	1277,552
613,4	1265,21
613,9	1257,867
614,3	1252,81
614,8	1242,438
615,2	1238,238
615,7	1233,01
616,1	1223,41
616,6	1216,81
617	1205,695
617,4	1193,41
617,9	1189,981
618,3	1181,152
618,8	1168,895
619,2	1163,324
619,7	1152,61
620,1	1142,667
620,5	1142,838
621	1129,467
621,4	1124,095
621,9	1113,838
622,3	1106,21
622,8	1098,81
623,2	1094,152
623,6	1075,81
624,1	1071,61
624,5	1063,581
625	1058,324
625,4	1050,038
625,9	1046,038
626,3	1040,295
626,8	1035,467
627,2	1029,724
627,6	1020,095
628,1	1012,381
628,5	1002,895
629	997,952
629,4	981,695
629,9	975,781
630,3	964,895
630,7	961,838
631,2	956,638
631,6	947,038
632,1	939,638
632,5	945,695
633	938,838
633,4	933,752
633,8	921,467
634,3	916,581
634,7	916,981
635,2	910,438
635,6	899,552
636,1	896,152
636,5	890,495
636,9	885,838
637,4	877,952
637,8	867,61
638,3	860,095
638,7	854,352
639,2	849,838
639,6	845,381
640	839,067
640,5	830,21
640,9	826,524
641,4	823,581
641,8	814,495
642,2	805,838
642,7	804,124
643,1	805,067
643,6	805,895
644	805,324
644,5	796,924
644,9	795,41
645,3	793,61
645,8	785,238
646,2	777,352
646,7	767,495
647,1	758,495
647,6	755,238
648	750,495
648,4	743,067
648,9	738,638
649,3	737,267
649,8	734,924
650,2	725,438
650,6	721,267
651,1	717,21
651,5	716,981
652	710,781
652,4	699,724
652,9	698,21
653,3	699,581
653,7	693,638
654,2	691,752
654,6	680,095
655,1	673,467
655,5	670,667
655,9	663,267
656,4	657,781
656,8	653,552
657,3	644,524
657,7	638,038
658,2	635,667
658,6	625,552
659	621,638
659,5	613,124
659,9	611,41
660,4	611,41
660,8	613,21
661,2	604,352
661,7	606,552
662,1	605,181
662,6	603,067
663	596,41
663,4	589,324
663,9	586,581
664,3	587,295
664,8	586,752
665,2	580,552
665,6	576,41
666,1	568,181
666,5	560,21
667	551,067
667,4	550,695
667,9	539,838
668,3	534,41
668,7	531,667
669,2	530,295
669,6	531,095
670,1	531,038
670,5	519,238
670,9	518,781
671,4	515,324
671,8	512,838
672,3	511,552
672,7	509,981
673,1	506,81
673,6	508,01
674	500,152
674,5	495,695
674,9	492,267
675,3	485,495
675,8	482,124
676,2	479,067
676,7	476,352
677,1	478,752
677,5	474,324
678	470,752
678,4	471,438
678,9	464,41
679,3	458,41
679,7	454,095
680,2	451,695
680,6	454,41
681,1	448,495
681,5	443,324
681,9	441,924
682,4	442,781
682,8	440,695
683,3	436,781
683,7	431,41
684,1	426,152
684,6	426,61
685	423,895
685,5	417,067
685,9	416,867
686,3	419,381
686,8	415,581
687,2	417,695
687,7	415,524
688,1	413,61
688,5	412,381
689	409,638
689,4	403,095
689,9	401,038
690,3	400,267
690,7	393,152
691,2	393,324
691,6	393,295
692	386,695
692,5	381,638
692,9	377,61
693,4	373,752
693,8	373,267
694,2	362,295
694,7	356,21
695,1	353,524
695,6	349,21
696	348,438
696,4	339,495
696,9	335,295
697,3	335,495
697,8	330,324
698,2	328,552
698,6	328,81
699,1	323,81
699,5	323,21
699,9	323,01
700,4	324,981
700,8	325,924
701,3	320,838
701,7	316,895
702,1	314,952
702,6	316,152
703	307,067
703,5	301,638
703,9	303,152
704,3	303,81
704,8	302,952
705,2	303,81
705,6	296,667
706,1	304,981
706,5	301,41
707	293,61
707,4	292,638
707,8	291,752
708,3	286,924
708,7	293,124
709,2	287,067
709,6	288,867
710	289,41
710,5	286,238
710,9	279,152
711,3	278,267
711,8	272,01
712,2	271,952
712,7	268,124
713,1	264,124
713,5	261,981
714	262,724
714,4	262,295
714,8	260,752
715,3	258,41
715,7	255,352
716,2	251,924
716,6	253,267
717	251,981
717,5	250,152
717,9	248,781
718,3	247,81
718,8	245,867
719,2	248,238
719,7	246,867
720,1	240,038
720,5	236,81
721	232,524
721,4	229,952
721,8	231,781
722,3	230,238
722,7	224,352
723,2	228,124
723,6	226,695
724	227,352
724,5	223,581
724,9	216,124
725,3	212,724
725,8	211,152
726,2	204,324
726,7	198,238
727,1	194,952
727,5	193,067
728	193,152
728,4	192,352
728,8	194,695
729,3	197,267
729,7	198,552
730,1	199,295
730,6	198,667
731	201,381
731,5	202,295
731,9	198,638
732,3	196,867
732,8	198,81
733,2	195,352
733,6	195,067
734,1	192,895
734,5	186,638
734,9	185,924
735,4	187,838
735,8	188,667
736,3	188,581
736,7	190,981
737,1	189,095
737,6	188,467
738	188,152
738,4	187,41
738,9	183,324
739,3	182,981
739,7	178,667
740,2	176,895
740,6	181,724
741,1	177,81
741,5	174,524
741,9	166,981
742,4	163,952
742,8	164,41
743,2	164,724
743,7	163,124
744,1	161,038
744,5	159,61
745	159,381
745,4	158,124
745,8	154,181
746,3	154,267
746,7	148,81
747,2	152,781
747,6	151,381
748	155,838
748,5	153,924
748,9	151,924
749,3	149,095
749,8	148,352
750,2	147,01
750,6	150,61
751,1	150,952
751,5	150,038
751,9	149,867
752,4	149,667
752,8	151,581
753,3	144,924
753,7	141,924
754,1	137,01
754,6	136,438
755	136,381
755,4	135,695
755,9	131,838
756,3	135,01
756,7	133,038
757,2	136,61
757,6	138,81
758	134,095
758,5	133,41
758,9	133,81
759,3	135,81
759,8	136,638
760,2	135,581
760,6	132,867
761,1	135,324
761,5	132,838
761,9	129,324
762,4	124,41
762,8	123,695
763,3	121,581
763,7	119,295
764,1	118,81
764,6	120,352
765	121,267
765,4	122,581
765,9	117,752
766,3	115,952
766,7	117,181
767,2	115,038
767,6	106,895
768	106,895
768,5	103,81
768,9	98,21
769,3	97,581
769,8	97,695
770,2	103,352
770,6	108,552
771,1	112,238
771,5	111,952
771,9	119,781
772,4	124,067
772,8	123,924
773,2	118,067
773,7	118,952
774,1	116,381
774,5	119,438
775	112,467
775,4	106,467
775,8	103,752
776,3	101,467
776,7	98,667
777,1	101,41
777,6	96,295
778	99,438
778,4	99,124
778,9	97,467
779,3	101,695
779,7	101,524
780,2	94,752
780,6	94,781
781	95,21
781,5	96,495
781,9	97,838
782,3	99,295
782,8	97,667
783,2	93,895
783,6	91,581
784,1	89,695
784,5	83,352
784,9	83,695
785,4	79,381
785,8	77,067
786,2	77,952
786,7	76,524
787,1	76,752
787,5	81,895
788	76,267
788,4	71,295
788,8	70,61
789,3	74,524
789,7	81,438
790,1	79,467
790,6	78,867
791	83,267
791,4	84,295
791,9	84,781
792,3	83,238
792,7	80,552
793,2	76,638
793,6	75,495
794	72,381
794,5	75,838
794,9	79,238
795,3	76,724
795,8	71,152
796,2	77,524
796,6	72,81
797,1	72,267
797,5	66,952
797,9	63,781
798,4	64,238
798,8	65,095
799,2	63,61
799,7	71,752
800,1	70,324
800,5	68,21
801	68,038
801,4	62,381
801,8	61,324
802,2	62,524
802,7	57,838
803,1	57,752
803,5	61,495
804	62,952
804,4	63,181
804,8	67,238
805,3	61,752
805,7	59,952
806,1	62,095
806,6	63,41
807	62,238
807,4	65,238
807,9	64,438
808,3	64,752
808,7	64,581
809,2	64,867
809,6	59,524
810	56,924
810,4	59,324
810,9	54,41
811,3	55,467
811,7	54,21
812,2	56,095
812,6	62,067
813	61,752
813,5	59,752
813,9	60,838
814,3	61,924
814,8	63,267
815,2	55,581
815,6	49,238
816,1	51,752
816,5	51,61
816,9	52,41
817,3	51,724
817,8	54,467
818,2	56,267
818,6	60,467
819,1	53,638
819,5	52,067
819,9	48,238
820,4	48,467
820,8	41,581
821,2	45,238
821,7	47,21
822,1	49,495
822,5	48,724
822,9	53,21
823,4	51,038
823,8	52,81
824,2	49,952
824,7	46,667
825,1	49,067
825,5	56,581
826	55,381
826,4	56,352
826,8	57,638
827,3	60,095
827,7	59,438
828,1	61,267
828,5	54,781
829	52,895
829,4	54,467
829,8	49,21
830,3	50,181
830,7	49,181
831,1	45,952
831,6	43,41
832	42,095
832,4	38,495
832,8	43,981
833,3	35,667
833,7	37,324
834,1	36,01
834,6	37,295
835	40,695
835,4	43,781
835,8	38,152
836,3	39,81
836,7	33,895
837,1	31,724
837,6	28,924
838	25,238
838,4	18,81
838,9	26,038
839,3	28,981
839,7	28,61
840,1	31,381
840,6	36,038
841	35,438
841,4	38,724
841,9	34,667
842,3	34,867
842,7	40,781
843,1	41,867
843,6	46,267
844	49,152
844,4	50,638
844,9	51,295
845,3	48,124
845,7	48,895
846,2	46,181
846,6	37,524
847	33,438
847,4	29,695
847,9	28,352
848,3	32,124
848,7	29,952
849,2	31,695
849,6	33,181
850	32,895
850,4	35,381
850,9	32,581
851,3	30,552
851,7	28,067
852,2	23,381
852,6	23,21
853	24,238
853,4	26,952
853,9	27,41
854,3	27,752
854,7	25,61
855,2	27,924
855,6	27,067
856	22,838
856,4	20,41
856,9	19,924
857,3	20,41
857,7	26,895
858,2	25,552
858,6	28,838
859	30,952
859,4	28,467
859,9	29,238
860,3	29,952
860,7	27,638
861,1	28,895
861,6	26,152
862	29,524
862,4	33,038
862,9	30,924
863,3	26,352
863,7	19,381
864,1	19,295
864,6	16,581
865	12,895
865,4	7,038
865,9	7,295
866,3	10,467
866,7	16,067
867,1	16,495
867,6	18,61
868	20,238
868,4	22,924
868,8	27,152
869,3	23,095
869,7	18,895
870,1	20,667
870,6	17,352
871	13,067
871,4	11,638
871,8	7,067
872,3	10,981
872,7	14,324
873,1	14,895
873,5	21,324
874	28,724
874,4	31,295
874,8	32,352
875,3	30,067
875,7	26,438
876,1	25,267
876,5	24,667
877	21,552
877,4	18,752
877,8	23,695
878,2	26,067
878,7	32,981
879,1	29,781
879,5	27,01
879,9	26,838
880,4	23,095
880,8	18,924
881,2	16,381
881,7	17,038
882,1	14,695
882,5	12,352
882,9	12,067
883,4	14,667
883,8	12,381
884,2	14,038
884,6	6,781
885,1	13,381
885,5	19,552
885,9	24,124
886,3	29,01
886,8	27,238
887,2	25,01
887,6	23,124
888	19,295
888,5	16,838
888,9	15,81
889,3	10,438
889,8	13,067
890,2	11,581
890,6	14,238
891	16,581
891,5	16,867
891,9	15,838
892,3	16,438
892,7	18,61
893,2	22,438
893,6	20,752
894	17,838
894,4	15,867
894,9	12,495
895,3	12,81
895,7	11,324
896,1	10,152
896,6	11,838
897	10,924
897,4	8,781
897,8	9,81
898,3	15,124
898,7	12,867
899,1	11,924
899,5	12,01
900	13,695
900,4	12,21
900,8	12,695
901,2	8,952
901,7	10,181
902,1	9,552
902,5	9,295
902,9	12,781
903,4	18,095
903,8	13,752
904,2	13,724
904,6	13,238
905,1	13,41
905,5	9,495
905,9	6,181
906,3	2,21
906,8	6,295
907,2	1,81
907,6	3,067
908	1,152
908,5	9,181
908,9	6,952
909,3	7,124
909,7	5,467
910,2	6,552
910,6	5,895
911	8,524
911,4	2,924
911,9	6,124
912,3	6,581
912,7	6,981
913,1	5,295
913,6	4,352
914	5,41
914,4	3,581
914,8	3,124
915,3	2,981
915,7	0,181
916,1	2,667
916,5	6,667
916,9	7,067
917,4	9,495
917,8	6,295
918,2	2,21
918,6	5,81
919,1	10,924
919,5	12,581
919,9	12,067
920,3	10,952
920,8	13,067
921,2	22,867
921,6	24,352
922	17,752
922,5	12,381
922,9	9,895
923,3	14,095
923,7	11,524
924,2	3,381
924,6	0,895
925	3,381
925,4	5,381
925,8	4,352
926,3	4,01
926,7	6,181
927,1	9,781
927,5	12,21
928	10,467
928,4	10,495
928,8	12,067
929,2	11,267
929,7	9,381
930,1	7,21
930,5	4,552
930,9	7,838
931,3	8,895
931,8	4,81
932,2	0,038
932,6	2,267
933	-0,333
933,5	-0,676
933,9	-2,79
934,3	-7,905
934,7	-1,705
935,2	3,81
935,6	2,21
936	5,695
936,4	10,038
936,8	8,438
937,3	10,524
937,7	8,438
938,1	1,552
938,5	2,638
939	4,152
939,4	1,01
939,8	1,895
940,2	0,752
940,6	2,781
941,1	11,295
941,5	15,41
941,9	11,781
942,3	9,724
942,8	12,552
943,2	9,81
943,6	9,152
944	6,924
944,4	0,61
944,9	1,895
945,3	5,695
945,7	5,924
946,1	8,81
946,6	7,381
947	9,038
947,4	10,581
947,8	12,295
948,2	7,381
948,7	3,695
949,1	4,724
949,5	5,21
949,9	4,067
950,3	5,038
950,8	0,838
951,2	3,924
951,6	7,781
952	7,267
952,5	3,81
952,9	-3,276
953,3	-6,419
953,7	-3,705
954,1	-3,019
954,6	-4,933
955	-8,99
955,4	-7,19
955,8	2,267
956,2	1,924
956,7	3,895
957,1	2,752
957,5	-1,762
957,9	0,638
958,3	1,81
958,8	-0,933
959,2	2,752
959,6	2,895
960	2,381
960,5	4,552
960,9	6,181
961,3	4,838
961,7	2,752
962,1	0,295
962,6	-0,819
963	2,581
963,4	4,552
963,8	8,038
964,2	6,581
964,7	4,695
965,1	7,581
965,5	8,581
965,9	6,695
966,3	5,695
966,8	6,524
967,2	7,695
967,6	10,095
968	10,267
968,4	12,838
968,9	13,352
969,3	14,895
969,7	8,895
970,1	12,181
970,5	16,152
971	10,067
971,4	8,238
971,8	5,895
972,2	7,152
972,6	10,067
973,1	11,781
973,5	7,981
973,9	9,124
974,3	3,524
974,7	3,067
975,2	-1,933
975,6	-9,162
976	-10,505
976,4	-11,819
976,8	-8,733
977,3	-4,59
977,7	-2,676
978,1	-1,019
978,5	8,067
978,9	2,838
979,4	5,467
979,8	5,895
980,2	0,61
980,6	2,238
981	5,981
981,5	8,495
981,9	11,695
982,3	7,638
982,7	6,238
983,1	9,238
983,6	12,352
984	10,124
984,4	8,695
984,8	10,238
985,2	14,352
985,6	16,867
986,1	17,124
986,5	8,467
986,9	9,581
987,3	5,381
987,7	6,181
988,2	8,01
988,6	5,981
989	8,61
989,4	12,552
989,8	6,41
990,3	8,667
990,7	6,438
991,1	4,21
991,5	1,952
991,9	1,381
992,3	1,267
992,8	10,181
993,2	8,095
993,6	6,952
994	1,324
994,4	4,581
994,9	5,152
995,3	4,095
995,7	0,838
996,1	0,467
996,5	2,752
996,9	6,124
997,4	10,981
997,8	8,695
998,2	8,552
998,6	7,181
999	9,21
999,5	7,181
999,9	8,01
1000,3	5,838
1000,7	2,267
1001,1	0,667
1001,5	-3,162
1002	-6,39
1002,4	-6,848
1002,8	-6,39
1003,2	-8,476
1003,6	-0,19
1004	3,324
1004,5	6,752
1004,9	9,352
1005,3	6,752
1005,7	3,552
1006,1	5,495
1006,6	4,038
1007	4,467
1007,4	7,181
1007,8	8,581
1008,2	10,867
1008,6	9,238
1009,1	4,667
1009,5	8,238
1009,9	6,438
1010,3	4,067
1010,7	1,524
1011,1	9,752
1011,6	11,152
1012	9,867
1012,4	9,038
1012,8	6,038
1013,2	7,181
1013,6	8,524
1014,1	6,752
1014,5	11,638
1014,9	13,495
1015,3	6,01
1015,7	8,352
1016,1	9,324
1016,6	16,238
1017	11,695
1017,4	4,181
1017,8	2,752
1018,2	3,838
1018,6	7,01
1019,1	3,867
1019,5	-0,362
1019,9	4,667
1020,3	9,381
1020,7	9,867
1021,1	15,267
1021,6	9,438
1022	5,952
1022,4	7,781
1022,8	-0,333
1023,2	2,267
1023,6	1,124
1024,1	1,038
1024,5	6,152
1024,9	13,61
1025,3	5,952
1025,7	11,238
1026,1	11,581
1026,6	16,181
1027	9,152
1027,4	9,781
1027,8	3,867
1028,2	7,438
1028,6	5,181
1029	2,01
1029,5	5,01
1029,9	7,295
1030,3	9,352
1030,7	10,895
1031,1	7,295
1031,5	5,524
1032	10,552
1032,4	2,724
1032,8	0,524
1033,2	-2,619
1033,6	2,152
1034	5,21
1034,4	8,952
1034,9	-0,848
1035,3	1,495
1035,7	4,495
1036,1	3,21
1036,5	-2,476
1036,9	-2,476
1037,4	-2,019
1037,8	2,838
1038,2	-3,876
1038,6	-6,99
1039	-5,933
1039,4	-3,362
1039,8	-4,448
1040,3	-4,676
1040,7	-7,676
1041,1	0,324
1041,5	2,895
1041,9	-1,476
1042,3	1,352
1042,7	5,381
1043,2	2,952
1043,6	9,924
1044	8,038
1044,4	6,552
1044,8	7,895
1045,2	5,038
1045,6	2,981
1046,1	2,981
1046,5	4,724
1046,9	8,295
1047,3	6,467
1047,7	7,781
1048,1	6,781
1048,5	3,152
1049	5,381
1049,4	1,667
1049,8	-1,019
1050,2	2,667
1050,6	3,552
1051	7,81
1051,4	8,067
1051,9	12,638
1052,3	9,467
1052,7	9,067
1053,1	9,095
1053,5	9,324
1053,9	4,495
1054,3	4,467
1054,8	0,438
1055,2	6,838
1055,6	2,61
1056	2,524
1056,4	1,867
1056,8	5,038
1057,2	8,524
1057,6	4,838
1058,1	0,01
1058,5	4,41
1058,9	5,067
1059,3	9,895
1059,7	6,867
1060,1	2,581
1060,5	0,552
1061	-0,933
1061,4	5,01
1061,8	-0,619
1062,2	-5,362
1062,6	-7,99
1063	-10,219
1063,4	-7,905
1063,8	-4,505
1064,3	-10,448
1064,7	-3,79
1065,1	-2,79
1065,5	4,724
1065,9	11,152
1066,3	9,695
1066,7	5,924
1067,1	6,295
1067,6	2,81
1068	0,638
1068,4	-0,362
1068,8	1,181
1069,2	0,81
1069,6	8,981
1070	10,495
1070,4	11,01
1070,9	7,895
1071,3	5,495
1071,7	4,667
1072,1	10,724
1072,5	6,152
1072,9	7,438
1073,3	5,81
1073,7	11,524
1074,2	12,952
1074,6	9,067
1075	5,238
1075,4	2,695
1075,8	3,952
1076,2	4,352
1076,6	5,238
1077	3,495
1077,5	9,524
1077,9	8,638
1078,3	8,038
1078,7	8,152
1079,1	14,895
1079,5	6,81
1079,9	7,838
1080,3	2,952
1080,7	5,267
1081,2	5,952
1081,6	5,41
1082	2,838
1082,4	7,895
1082,8	6,867
1083,2	4,067
1083,6	2,667
1084	2,41
1084,5	0,324
1084,9	-5,99
1085,3	-6,219
1085,7	-9,819
1086,1	-7,905
1086,5	-5,562
1086,9	-3,905
1087,3	-4,076
1087,7	1,781
1088,2	0,867
1088,6	1,238
1089	0,038
1089,4	1,638
1089,8	3,467
1090,2	2,895
1090,6	-2,048
1091	0,21
1091,4	5,81
1091,9	9,381
1092,3	2,438
1092,7	-2,648
1093,1	-4,848
1093,5	-6,19
1093,9	-4,19
1094,3	-3,99
1094,7	-5,648
1095,1	-5,219
1095,5	-1,362
1096	-3,733
1096,4	2,295
1096,8	-2,933
1097,2	-2,276
1097,6	-1,876
1098	2,038
1098,4	-0,705
1098,8	6,924
1099,2	5,61
1099,6	7,581
1100,1	5,895
1100,5	7,152
1100,9	4,952
1101,3	6,181
1101,7	2,924
1102,1	1,667
1102,5	4,095
1102,9	2,467
1103,3	-3,962
1103,7	-3,276
1104,2	0,467
1104,6	3,981
1105	2,952
1105,4	2,752
1105,8	2,924
1106,2	8,038
1106,6	6,895
1107	3,552
1107,4	-0,867
1107,8	2,067
1108,3	0,117
