Data from Subt2_310.txt Node
Date: Sat Aug 26 19:14:43 MSK 2023
User: vat
Spectrometer: MAYP114033
Trigger mode: 0
Integration Time (sec): 1,000000E0
Scans to average: 5
Electric dark correction enabled: true
Nonlinearity correction enabled: false
Boxcar width: 3
XAxis mode: Wavelengths
Number of Pixels in Spectrum: 2068
>>>>>Begin Spectral Data<<<<<
199,4	0,283
199,9	3,273
200,4	3,6
200,8	2,719
201,3	1,662
201,8	5,09
202,2	1,062
202,7	6,176
203,2	6,005
203,6	2,89
204,1	3,062
204,6	3,976
205	3,348
205,5	9,376
206	6,119
206,4	3,062
206,9	5,09
207,4	3,262
207,8	2,633
208,3	-1,11
208,8	-3,481
209,2	-2,995
209,7	-0,224
210,2	2,09
210,6	6,405
211,1	9,005
211,5	8,176
212	7,576
212,5	7,262
212,9	4,833
213,4	4,233
213,9	1,948
214,3	3,69
214,8	7,176
215,3	8,176
215,7	9,948
216,2	14,319
216,7	13,805
217,1	14,519
217,6	15,862
218,1	16,576
218,5	16,005
219	9,719
219,5	7,719
219,9	5,776
220,4	12,976
220,9	6,976
221,3	5,919
221,8	9,576
222,3	17,033
222,7	19,805
223,2	23,148
223,6	17,548
224,1	21,348
224,6	21,176
225	14,662
225,5	12,948
226	7,89
226,4	7,633
226,9	8,576
227,4	9,776
227,8	6,919
228,3	10,776
228,8	7,348
229,2	10,49
229,7	10,262
230,2	9,605
230,6	13,576
231,1	21,262
231,5	20,233
232	25,262
232,5	24,233
232,9	25,348
233,4	25,405
233,9	17,948
234,3	12,033
234,8	13,519
235,3	11,976
235,7	12,033
236,2	13,005
236,7	11,548
237,1	14,948
237,6	12,719
238,1	11,662
238,5	6,062
239	4,89
239,4	7,205
239,9	7,348
240,4	7,805
240,8	14,433
241,3	15,176
241,8	15,948
242,2	16,776
242,7	8,262
243,2	10,548
243,6	8,633
244,1	8,976
244,6	10,548
245	15,148
245,5	14,89
245,9	15,062
246,4	13,576
246,9	11,033
247,3	6,205
247,8	5,29
248,3	5,433
248,7	5,633
249,2	8,262
249,7	4,948
250,1	6,976
250,6	5,719
251	8,233
251,5	4,633
252	6,89
252,4	12,148
252,9	10,062
253,4	6,29
253,8	9,348
254,3	8,748
254,8	14,005
255,2	12,405
255,7	4,976
256,1	12,519
256,6	17,833
257,1	20,548
257,5	14,662
258	9,205
258,5	6,148
258,9	7,919
259,4	6,576
259,9	5,09
260,3	2,09
260,8	3,119
261,2	5,633
261,7	11,062
262,2	11,633
262,6	8,405
263,1	12,833
263,6	15,033
264	19,919
264,5	22,29
264,9	19,205
265,4	21,719
265,9	19,405
266,3	19,09
266,8	19,348
267,3	15,49
267,7	11,09
268,2	9,748
268,7	9,862
269,1	13,605
269,6	11,319
270	12,205
270,5	14,062
271	18,633
271,4	19,348
271,9	13,976
272,4	13,033
272,8	10,376
273,3	1,005
273,7	2,69
274,2	0,405
274,7	-0,738
275,1	6,233
275,6	9,033
276,1	6,433
276,5	14,348
277	11,69
277,4	10,919
277,9	14,976
278,4	11,033
278,8	10,776
279,3	12,262
279,8	9,719
280,2	12,576
280,7	17,205
281,1	13,205
281,6	13,405
282,1	10,862
282,5	13,29
283	14,576
283,4	12,005
283,9	7,776
284,4	13,49
284,8	17,319
285,3	17,205
285,8	14,862
286,2	15,233
286,7	17,833
287,1	17,576
287,6	13,719
288,1	4,69
288,5	7,433
289	11,69
289,5	10,719
289,9	6,405
290,4	10,119
290,8	11,205
291,3	16,633
291,8	16,662
292,2	10,548
292,7	14,062
293,1	15,348
293,6	16,005
294,1	16,576
294,5	16,205
295	14,862
295,5	17,976
295,9	18,519
296,4	19,548
296,8	16,348
297,3	14,776
297,8	12,748
298,2	9,976
298,7	12,433
299,1	9,033
299,6	5,405
300,1	6,176
300,5	5,033
301	6,776
301,5	13,605
301,9	9,262
302,4	5,005
302,8	7,662
303,3	8,205
303,8	6,948
304,2	7,262
304,7	1,862
305,1	0,862
305,6	3,748
306,1	7,233
306,5	6,976
307	13,519
307,4	14,833
307,9	17,348
308,4	20,319
308,8	16,776
309,3	13,148
309,8	11,462
310,2	10,462
310,7	4,748
311,1	3,119
311,6	5,176
312,1	12,348
312,5	10,948
313	10,576
313,4	8,376
313,9	13,405
314,4	13,376
314,8	6,005
315,3	3,719
315,7	2,919
316,2	0,919
316,7	-1,738
317,1	1,605
317,6	1,605
318	8,976
318,5	5,148
319	8,405
319,4	12,176
319,9	18,748
320,3	12,176
320,8	12,633
321,3	12,633
321,7	18,976
322,2	18,519
322,6	20,176
323,1	15,919
323,6	22,805
324	21,976
324,5	18,833
324,9	19,719
325,4	17,548
325,9	19,148
326,3	18,833
326,8	14,29
327,2	10,205
327,7	11,29
328,2	6,29
328,6	8,833
329,1	-0,281
329,5	-0,138
330	-1,824
330,5	4,462
330,9	10,148
331,4	11,29
331,8	11,662
332,3	18,233
332,8	21,719
333,2	25,062
333,7	25,89
334,1	22,576
334,6	18,233
335,1	17,09
335,5	15,005
336	8,719
336,4	9,376
336,9	13,519
337,4	15,176
337,8	16,062
338,3	15,233
338,7	14,862
339,2	17,633
339,7	17,948
340,1	9,748
340,6	8,148
341	10,833
341,5	13,205
342	11,576
342,4	7,719
342,9	4,776
343,3	11,262
343,8	8,176
344,2	9,548
344,7	12,576
345,2	12,033
345,6	17,119
346,1	19,89
346,5	10,662
347	9,205
347,5	7,433
347,9	10,662
348,4	14,005
348,8	13,148
349,3	12,033
349,8	19,833
350,2	20,948
350,7	22,29
351,1	20,176
351,6	23,89
352	27,719
352,5	32,233
353	39,119
353,4	47,062
353,9	58,548
354,3	66,205
354,8	77,548
355,3	95,548
355,7	116,89
356,2	135,405
356,6	162,376
357,1	189,862
357,5	223,062
358	258,433
358,5	293,348
358,9	336,662
359,4	388,776
359,8	441,605
360,3	512,205
360,8	579,605
361,2	658,576
361,7	751,233
362,1	855,148
362,6	963,576
363	1079,062
363,5	1196,062
364	1333,29
364,4	1462,376
364,9	1594,033
365,3	1715,805
365,8	1831,662
366,3	1947,348
366,7	2047,662
367,2	2131,205
367,6	2205,519
368,1	2262,548
368,5	2295,548
369	2316,948
369,5	2321,662
369,9	2302,576
370,4	2265,205
370,8	2210,148
371,3	2140,405
371,7	2066,376
372,2	1979,948
372,7	1877,176
373,1	1776,805
373,6	1677,176
374	1583,605
374,5	1477,805
374,9	1375,005
375,4	1279,805
375,9	1187,176
376,3	1095,519
376,8	1007,005
377,2	924,148
377,7	850,033
378,2	783,748
378,6	715,348
379,1	656,748
379,5	606,89
380	559,69
380,4	513,176
380,9	473,433
381,4	434,119
381,8	403,433
382,3	378,319
382,7	352,262
383,2	327,148
383,6	302,919
384,1	284,319
384,6	268,176
385	247,919
385,5	233,062
385,9	215,205
386,4	199,805
386,8	191,376
387,3	178,119
387,7	169,09
388,2	162,233
388,7	147,405
389,1	139,919
389,6	131,548
390	123,148
390,5	115,548
390,9	106,719
391,4	101,09
391,9	97,49
392,3	94,233
392,8	87,49
393,2	75,433
393,7	77,376
394,1	70,69
394,6	63,748
395,1	63,319
395,5	58,49
396	62,09
396,4	62,633
396,9	56,205
397,3	60,005
397,8	62,033
398,2	60,69
398,7	60,176
399,2	58,49
399,6	62,748
400,1	66,805
400,5	61,176
401	60,919
401,4	53,605
401,9	55,033
402,4	56,405
402,8	52,776
403,3	54,405
403,7	51,662
404,2	51,433
404,6	57,005
405,1	52,948
405,5	45,976
406	45,89
406,5	36,919
406,9	43,662
407,4	39,319
407,8	38,49
408,3	43,233
408,7	41,376
409,2	46,319
409,6	49,233
410,1	46,205
410,6	51,833
411	51,976
411,5	55,376
411,9	62,776
412,4	62,633
412,8	65,862
413,3	70,176
413,7	67,233
414,2	64,948
414,7	66,119
415,1	74,462
415,6	76,433
416	79,233
416,5	78,033
416,9	81,29
417,4	90,348
417,8	96,719
418,3	95,576
418,8	96,862
419,2	96,29
419,7	102,033
420,1	102,205
420,6	101,69
421	93,376
421,5	97,09
421,9	100,319
422,4	102,319
422,8	101,519
423,3	103,376
423,8	98,519
424,2	94,548
424,7	87,033
425,1	84,976
425,6	86,605
426	86,376
426,5	86,633
426,9	94,348
427,4	95,805
427,9	93,09
428,3	93,119
428,8	91,862
429,2	90,119
429,7	88,948
430,1	80,662
430,6	89,948
431	94,119
431,5	97,233
431,9	95,805
432,4	100,576
432,8	101,29
433,3	107,319
433,8	103,29
434,2	105,748
434,7	107,662
435,1	111,69
435,6	112,633
436	117,319
436,5	121,205
436,9	125,919
437,4	126,348
437,8	124,119
438,3	128,148
438,8	130,062
439,2	136,09
439,7	142,148
440,1	147,376
440,6	154,833
441	158,833
441,5	164,119
441,9	170,49
442,4	172,09
442,8	178,833
443,3	185,033
443,7	193,405
444,2	206,89
444,7	213,376
445,1	226,462
445,6	234,976
446	242,605
446,5	243,205
446,9	243,433
447,4	248,719
447,8	255,433
448,3	257,176
448,7	268,89
449,2	283,862
449,6	302,719
450,1	318,633
450,6	330,948
451	346,576
451,5	360,719
451,9	377,548
452,4	388,89
452,8	400,062
453,3	418,148
453,7	433,719
454,2	447,119
454,6	460,433
455,1	472,919
455,5	481,405
456	502,805
456,4	513,09
456,9	529,233
457,3	544,548
457,8	556,69
458,3	572,862
458,7	588,948
459,2	597,69
459,6	617,062
460,1	636,433
460,5	654,148
461	685,233
461,4	708,119
461,9	728,348
462,3	754,033
462,8	778,319
463,2	797,719
463,7	819,719
464,1	842,348
464,6	863,519
465	890,719
465,5	914,176
466	935,948
466,4	958,748
466,9	988,69
467,3	1007,09
467,8	1033,462
468,2	1055,005
468,7	1078,719
469,1	1108,033
469,6	1135,033
470	1159,062
470,5	1185,976
470,9	1206,148
471,4	1228,576
471,8	1252,148
472,3	1274,062
472,7	1298,862
473,2	1319,033
473,6	1340,89
474,1	1369,833
474,5	1395,519
475	1425,319
475,4	1449,176
475,9	1472,805
476,4	1497,833
476,8	1527,748
477,3	1546,033
477,7	1576,062
478,2	1595,033
478,6	1613,862
479,1	1631,09
479,5	1652,662
480	1670,662
480,4	1697,348
480,9	1715,033
481,3	1731,262
481,8	1754,405
482,2	1770,948
482,7	1798,09
483,1	1817,519
483,6	1832,862
484	1847,548
484,5	1867,833
484,9	1881,776
485,4	1908,262
485,8	1918,376
486,3	1931,976
486,7	1947,405
487,2	1967,09
487,6	1984,748
488,1	1996,862
488,5	2006,49
489	2020,49
489,4	2038,89
489,9	2047,233
490,4	2055,405
490,8	2064,948
491,3	2075,805
491,7	2083,348
492,2	2089,462
492,6	2094,262
493,1	2105,633
493,5	2109,69
494	2112,29
494,4	2124,948
494,9	2132,605
495,3	2144,462
495,8	2149,662
496,2	2157,09
496,7	2164,748
497,1	2177,748
497,6	2176,176
498	2184,176
498,5	2190,005
498,9	2193,348
499,4	2197,319
499,8	2209,205
500,3	2212,062
500,7	2217,748
501,2	2217,462
501,6	2206,548
502,1	2209,205
502,5	2209,662
503	2203,976
503,4	2197,948
503,9	2198,29
504,3	2205,319
504,8	2216,262
505,2	2219,548
505,7	2218,09
506,1	2225,29
506,6	2227,776
507	2227,148
507,5	2226,548
507,9	2224,005
508,4	2221,948
508,8	2216,319
509,3	2209,262
509,7	2212,748
510,2	2219,29
510,6	2212,976
511,1	2209,233
511,5	2207,548
512	2212,519
512,4	2212,119
512,9	2205,319
513,3	2201,89
513,8	2198,09
514,2	2199,69
514,7	2201,005
515,1	2199,919
515,6	2198,033
516	2192,49
516,5	2193,919
516,9	2196,49
517,4	2198,405
517,8	2194,662
518,3	2195,49
518,7	2194,148
519,2	2196,633
519,6	2189,176
520,1	2182,919
520,5	2178,176
521	2174,976
521,4	2174,005
521,9	2174,005
522,3	2177,176
522,8	2175,69
523,2	2184,69
523,7	2184,09
524,1	2182,576
524,6	2173,462
525	2169,919
525,5	2164,548
525,9	2172,205
526,4	2161,29
526,8	2165,462
527,3	2165,919
527,7	2177,348
528,2	2182,805
528,6	2187,89
529,1	2183,233
529,5	2186,976
530	2189,348
530,4	2191,062
530,9	2188,519
531,3	2189,548
531,8	2183,49
532,2	2189,548
532,6	2191,262
533,1	2186,719
533,5	2188,69
534	2187,376
534,4	2191,519
534,9	2197,29
535,3	2196,633
535,8	2201,548
536,2	2209,205
536,7	2210,49
537,1	2216,119
537,6	2213,405
538	2226,062
538,5	2228,976
538,9	2230,119
539,4	2232,776
539,8	2234,862
540,3	2236,862
540,7	2239,176
541,2	2234,69
541,6	2235,748
542,1	2238,376
542,5	2235,69
543	2237,176
543,4	2237,148
543,9	2246,348
544,3	2251,233
544,8	2252,005
545,2	2256,548
545,7	2262,033
546,1	2271,09
546,5	2276,719
547	2274,205
547,4	2276,976
547,9	2279,348
548,3	2280,062
548,8	2289,776
549,2	2289,948
549,7	2293,433
550,1	2301,862
550,6	2304,69
551	2308,69
551,5	2310,405
551,9	2305,376
552,4	2307,376
552,8	2309,119
553,3	2307,376
553,7	2307,09
554,2	2312,119
554,6	2317,919
555,1	2320,405
555,5	2319,719
555,9	2321,29
556,4	2323,205
556,8	2325,49
557,3	2329,376
557,7	2331,948
558,2	2335,148
558,6	2345,148
559,1	2346,69
559,5	2355,919
560	2358,462
560,4	2360,033
560,9	2363,348
561,3	2362,976
561,8	2362,89
562,2	2367,976
562,7	2362,976
563,1	2367,662
563,6	2362,805
564	2364,462
564,4	2366,862
564,9	2366,376
565,3	2366,49
565,8	2369,233
566,2	2370,29
566,7	2377,948
567,1	2375,405
567,6	2376,29
568	2380,462
568,5	2382,89
568,9	2380,548
569,4	2381,662
569,8	2381,29
570,3	2387,576
570,7	2383,29
571,1	2385,805
571,6	2385,062
572	2390,348
572,5	2388,662
572,9	2385,433
573,4	2380,833
573,8	2387,119
574,3	2379,805
574,7	2378,662
575,2	2375,062
575,6	2370,776
576,1	2378,49
576,5	2378,262
576,9	2370,262
577,4	2373,09
577,8	2371,948
578,3	2369,205
578,7	2369,405
579,2	2369,233
579,6	2364,748
580,1	2361,948
580,5	2359,09
581	2354,119
581,4	2352,519
581,9	2347,119
582,3	2334,49
582,7	2335,862
583,2	2334,862
583,6	2328,69
584,1	2329,89
584,5	2325,319
585	2323,548
585,4	2319,29
585,9	2315,805
586,3	2318,119
586,8	2323,662
587,2	2315,862
587,6	2314,662
588,1	2315,576
588,5	2313,348
589	2310,29
589,4	2305,519
589,9	2293,862
590,3	2289,576
590,8	2289,09
591,2	2284,033
591,7	2283,062
592,1	2281,49
592,5	2275,49
593	2271,89
593,4	2276,233
593,9	2262,662
594,3	2255,662
594,8	2245,576
595,2	2239,605
595,7	2239,09
596,1	2233,233
596,6	2224,348
597	2226,119
597,4	2227,776
597,9	2231,976
598,3	2230,69
598,8	2224,833
599,2	2224,69
599,7	2216,89
600,1	2211,433
600,6	2203,09
601	2199,576
601,4	2199,376
601,9	2193,948
602,3	2184,805
602,8	2182,205
603,2	2178,69
603,7	2175,976
604,1	2167,862
604,6	2157,948
605	2149,748
605,4	2150,348
605,9	2148,576
606,3	2138,833
606,8	2127,433
607,2	2119,919
607,7	2107,376
608,1	2107,205
608,6	2100,462
609	2098,633
609,4	2101,548
609,9	2095,348
610,3	2090,662
610,8	2089,919
611,2	2078,062
611,7	2072,89
612,1	2059,433
612,6	2048,262
613	2049,519
613,4	2038,462
613,9	2028,548
614,3	2023,976
614,8	2016,29
615,2	2010,976
615,7	2005,748
616,1	1997,862
616,6	1990,805
617	1984,005
617,4	1983,69
617,9	1975,49
618,3	1970,119
618,8	1966,805
619,2	1954,319
619,7	1952,262
620,1	1944,548
620,5	1939,033
621	1929,919
621,4	1920,919
621,9	1910,548
622,3	1907,433
622,8	1895,062
623,2	1883,148
623,6	1868,148
624,1	1859,205
624,5	1847,633
625	1838,919
625,4	1835,519
625,9	1832,119
626,3	1831,948
626,8	1821,776
627,2	1815,548
627,6	1799,805
628,1	1786,062
628,5	1780,148
629	1770,748
629,4	1760,033
629,9	1749,005
630,3	1742,262
630,7	1745,148
631,2	1746,005
631,6	1723,548
632,1	1712,376
632,5	1701,119
633	1702,148
633,4	1692,005
633,8	1679,976
634,3	1667,148
634,7	1666,89
635,2	1655,319
635,6	1649,376
636,1	1634,919
636,5	1624,29
636,9	1615,605
637,4	1608,176
637,8	1593,919
638,3	1586,29
638,7	1583,576
639,2	1575,633
639,6	1567,576
640	1557,919
640,5	1550,719
640,9	1548,119
641,4	1544,89
641,8	1533,719
642,2	1533,633
642,7	1527,976
643,1	1530,49
643,6	1520,719
644	1513,719
644,5	1509,29
644,9	1498,519
645,3	1483,119
645,8	1473,662
646,2	1464,576
646,7	1459,662
647,1	1449,805
647,6	1436,519
648	1434,948
648,4	1427,148
648,9	1426,319
649,3	1416,405
649,8	1408,833
650,2	1403,462
650,6	1403,49
651,1	1391,319
651,5	1389,376
652	1382,89
652,4	1373,376
652,9	1367,976
653,3	1361,29
653,7	1349,233
654,2	1342,176
654,6	1332,976
655,1	1323,862
655,5	1321,748
655,9	1310,719
656,4	1304,89
656,8	1300,062
657,3	1296,09
657,7	1296,719
658,2	1292,29
658,6	1279,633
659	1275,262
659,5	1265,119
659,9	1257,548
660,4	1251,605
660,8	1235,548
661,2	1226,376
661,7	1228,062
662,1	1222,176
662,6	1212,662
663	1204,433
663,4	1195,519
663,9	1190,748
664,3	1181,805
664,8	1166,433
665,2	1158,519
665,6	1152,148
666,1	1146,49
666,5	1141,233
667	1133,119
667,4	1124,719
667,9	1119,49
668,3	1113,348
668,7	1108,005
669,2	1104,89
669,6	1095,005
670,1	1088,205
670,5	1084,405
670,9	1079,09
671,4	1070,262
671,8	1064,862
672,3	1058,062
672,7	1055,148
673,1	1047,89
673,6	1042,605
674	1036,205
674,5	1027,348
674,9	1019,176
675,3	1007,262
675,8	1002,148
676,2	1000,205
676,7	994,462
677,1	985,69
677,5	983,148
678	981,405
678,4	981,519
678,9	973,405
679,3	964,176
679,7	952,862
680,2	944,376
680,6	933,719
681,1	928,89
681,5	922,605
681,9	916,262
682,4	912,205
682,8	911,262
683,3	914,348
683,7	915,976
684,1	907,69
684,6	898,662
685	889,548
685,5	884,233
685,9	873,176
686,3	864,576
686,8	857,405
687,2	853,862
687,7	849,976
688,1	841,719
688,5	834,89
689	835,462
689,4	828,176
689,9	821,919
690,3	811,462
690,7	807,148
691,2	811,376
691,6	814,548
692	808,005
692,5	807,519
692,9	805,119
693,4	804,205
693,8	800,633
694,2	791,89
694,7	777,033
695,1	773,89
695,6	768,605
696	762,69
696,4	757,462
696,9	747,433
697,3	737,89
697,8	736,319
698,2	724,662
698,6	720,462
699,1	715,005
699,5	709,862
699,9	706,633
700,4	705,376
700,8	702,605
701,3	701,69
701,7	690,862
702,1	688,576
702,6	683,176
703	682,09
703,5	677,176
703,9	669,148
704,3	665,548
704,8	663,805
705,2	655,462
705,6	650,176
706,1	643,89
706,5	639,29
707	637,833
707,4	633,976
707,8	628,69
708,3	627,205
708,7	626,833
709,2	624,262
709,6	622,462
710	620,748
710,5	612,862
710,9	611,262
711,3	607,205
711,8	604,948
712,2	602,833
712,7	597,89
713,1	592,976
713,5	593,605
714	590,605
714,4	585,605
714,8	579,862
715,3	570,205
715,7	570,89
716,2	565,862
716,6	565,348
717	560,576
717,5	555,033
717,9	550,89
718,3	546,805
718,8	537,205
719,2	533,862
719,7	524,348
720,1	529,005
720,5	527,548
721	523,09
721,4	526,833
721,8	528,205
722,3	520,605
722,7	521,605
723,2	507,919
723,6	499,519
724	495,462
724,5	490,633
724,9	484,919
725,3	481,319
725,8	474,633
726,2	468,233
726,7	467,148
727,1	463,519
727,5	456,405
728	453,119
728,4	451,49
728,8	450,776
729,3	451,519
729,7	450,29
730,1	447,976
730,6	446,405
731	441,062
731,5	436,348
731,9	430,548
732,3	430,605
732,8	430,062
733,2	429,433
733,6	426,29
734,1	430,29
734,5	428,748
734,9	429,948
735,4	428,033
735,8	421,09
736,3	420,89
736,7	419,405
737,1	412,176
737,6	412,148
738	409,49
738,4	404,833
738,9	401,376
739,3	399,005
739,7	397,148
740,2	396,805
740,6	396,433
741,1	397,262
741,5	388,948
741,9	391,605
742,4	391,519
742,8	388,433
743,2	387,548
743,7	379,833
744,1	372,148
744,5	374,148
745	369,89
745,4	361,719
745,8	360,348
746,3	357,033
746,7	358,348
747,2	354,948
747,6	361,662
748	362,119
748,5	362,576
748,9	358,776
749,3	355,919
749,8	351,633
750,2	353,719
750,6	342,319
751,1	340,29
751,5	337,862
751,9	339,205
752,4	338,633
752,8	337,89
753,3	336,005
753,7	339,776
754,1	332,119
754,6	326,919
755	321,005
755,4	313,262
755,9	315,262
756,3	309,29
756,7	302,205
757,2	305,49
757,6	308,148
758	308,605
758,5	311,233
758,9	304,662
759,3	305,662
759,8	305,462
760,2	299,462
760,6	293,862
761,1	289,405
761,5	288,148
761,9	289,462
762,4	286,748
762,8	283,262
763,3	284,348
763,7	283,405
764,1	282,919
764,6	280,49
765	279,833
765,4	279,376
765,9	281,862
766,3	280,319
766,7	277,49
767,2	275,805
767,6	275,205
768	267,748
768,5	264,805
768,9	260,033
769,3	255,348
769,8	255,49
770,2	257,49
770,6	256,033
771,1	263,119
771,5	261,348
771,9	264,148
772,4	268,405
772,8	266,519
773,2	263,462
773,7	261,376
774,1	254,49
774,5	251,805
775	245,919
775,4	237,148
775,8	232,148
776,3	236,033
776,7	231,433
777,1	230,262
777,6	232,348
778	236,948
778,4	236,233
778,9	240,033
779,3	229,69
779,7	232,948
780,2	231,148
780,6	229,119
781	220,519
781,5	221,062
781,9	221,233
782,3	219,062
782,8	218,148
783,2	212,862
783,6	212,262
784,1	208,776
784,5	206,748
784,9	201,662
785,4	206,776
785,8	205,49
786,2	209,262
786,7	205,862
787,1	206,862
787,5	206,376
788	205,005
788,4	196,976
788,8	193,833
789,3	191,719
789,7	188,862
790,1	187,633
790,6	188,519
791	185,776
791,4	192,319
791,9	187,119
792,3	183,033
792,7	187,033
793,2	182,576
793,6	183,262
794	183,29
794,5	173,148
794,9	176,576
795,3	178,319
795,8	174,29
796,2	177,862
796,6	173,976
797,1	175,462
797,5	176,633
797,9	172,148
798,4	170,548
798,8	166,89
799,2	166,29
799,7	167,833
800,1	163,805
800,5	161,519
801	164,576
801,4	163,576
801,8	162,633
802,2	161,862
802,7	154,462
803,1	153,348
803,5	154,462
804	149,119
804,4	148,205
804,8	148,719
805,3	148,433
805,7	151,176
806,1	150,148
806,6	152,062
807	153,805
807,4	152,433
807,9	148,205
808,3	146,376
808,7	145,005
809,2	144,148
809,6	145,748
810	141,748
810,4	143,605
810,9	143,519
811,3	144,376
811,7	144,69
812,2	149,376
812,6	143,976
813	149,319
813,5	144,776
813,9	146,033
814,3	142,833
814,8	137,862
815,2	128,948
815,6	124,948
816,1	123,49
816,5	121,376
816,9	119,519
817,3	120,833
817,8	126,062
818,2	129,719
818,6	131,176
819,1	126,662
819,5	128,005
819,9	127,805
820,4	123,633
820,8	117,033
821,2	109,776
821,7	108,719
822,1	109,633
822,5	114,29
822,9	112,376
823,4	112,262
823,8	116,862
824,2	121,862
824,7	120,719
825,1	114,148
825,5	107,633
826	106,605
826,4	105,748
826,8	101,49
827,3	98,805
827,7	98,605
828,1	105,719
828,5	104,805
829	101,119
829,4	99,69
829,8	94,319
830,3	94,09
830,7	92,205
831,1	92,49
831,6	90,719
832	92,605
832,4	93,633
832,8	100,919
833,3	97,576
833,7	95,948
834,1	90,805
834,6	86,805
835	87,033
835,4	88,462
835,8	81,919
836,3	82,176
836,7	85,033
837,1	80,862
837,6	87,233
838	85,319
838,4	81,062
838,9	83,119
839,3	83,205
839,7	82,233
840,1	82,919
840,6	82,633
841	85,176
841,4	84,862
841,9	82,548
842,3	83,776
842,7	84,633
843,1	83,548
843,6	84,319
844	83,89
844,4	85,548
844,9	89,719
845,3	88,062
845,7	82,862
846,2	80,233
846,6	72,233
847	68,319
847,4	66,833
847,9	66,205
848,3	65,948
848,7	66,69
849,2	66,805
849,6	68,805
850	74,862
850,4	71,89
850,9	70,662
851,3	67,919
851,7	67,29
852,2	69,805
852,6	74,405
853	72,462
853,4	72,605
853,9	69,719
854,3	69,805
854,7	72,148
855,2	71,662
855,6	67,919
856	63,833
856,4	60,262
856,9	58,948
857,3	59,805
857,7	58,662
858,2	62,033
858,6	63,433
859	63,662
859,4	69,233
859,9	67,633
860,3	63,519
860,7	63,233
861,1	61,605
861,6	58,09
862	57,719
862,4	56,205
862,9	59,919
863,3	63,576
863,7	62,719
864,1	61,748
864,6	59,748
865	57,319
865,4	59,69
865,9	59,605
866,3	59,576
866,7	53,605
867,1	49,033
867,6	51,233
868	52,262
868,4	48,205
868,8	44,89
869,3	44,49
869,7	53,262
870,1	52,948
870,6	52,176
871	-11,367
871,4	-7,138
871,8	-7,224
872,3	-6,481
872,7	-10,138
873,1	-11,652
873,5	-12,938
874	48,119
874,4	43,033
874,8	41,119
875,3	37,948
875,7	35,805
876,1	42,233
876,5	40,49
877	39,976
877,4	37,033
877,8	39,319
878,2	44,233
878,7	46,519
879,1	41,89
879,5	45,09
879,9	49,462
880,4	48,09
880,8	52,119
881,2	48,005
881,7	44,862
882,1	47,605
882,5	44,69
882,9	41,348
883,4	40,49
883,8	37,09
884,2	37,262
884,6	35,233
885,1	30,405
885,5	33,233
885,9	31,976
886,3	36,519
886,8	32,633
887,2	30,776
887,6	31,233
888	34,319
888,5	31,29
888,9	28,862
889,3	26,462
889,8	27,833
890,2	29,262
890,6	27,919
891	24,462
891,5	24,576
891,9	28,09
892,3	28,89
892,7	27,776
893,2	27,176
893,6	31,005
894	34,976
894,4	35,033
894,9	34,233
895,3	37,205
895,7	42,176
896,1	43,005
896,6	42,205
897	42,462
897,4	47,262
897,8	48,433
898,3	47,405
898,7	39,148
899,1	38,919
899,5	38,148
900	33,49
900,4	28,976
900,8	28,005
901,2	24,119
901,7	28,719
902,1	30,433
902,5	33,033
902,9	35,176
903,4	36,262
903,8	36,519
904,2	38,519
904,6	38,176
905,1	36,405
905,5	35,462
905,9	36,776
906,3	38,176
906,8	38,462
907,2	38,719
907,6	39,148
908	44,748
908,5	39,633
908,9	38,976
909,3	33,662
909,7	33,919
910,2	33,033
910,6	34,205
911	20,548
911,4	25,49
911,9	23,148
912,3	25,233
912,7	29,976
913,1	29,548
913,6	21,376
914	25,376
914,4	22,205
914,8	22,09
915,3	19,005
915,7	12,69
916,1	12,89
916,5	20,548
916,9	21,119
917,4	21,748
917,8	25,605
918,2	24,69
918,6	22,005
919,1	21,033
919,5	22,005
919,9	21,548
920,3	20,976
920,8	19,005
921,2	22,605
921,6	25,262
922	27,148
922,5	26,09
922,9	27,062
923,3	27,548
923,7	29,462
924,2	28,433
924,6	26,948
925	25,89
925,4	19,548
925,8	19,462
926,3	18,919
926,7	15,348
927,1	12,148
927,5	16,29
928	12,405
928,4	13,148
928,8	13,548
929,2	14,576
929,7	17,719
930,1	22,49
930,5	18,348
930,9	24,49
931,3	27,176
931,8	28,548
932,2	28,233
932,6	26,919
933	18,69
933,5	21,69
933,9	22,348
934,3	24,748
934,7	22,29
935,2	21,605
935,6	20,662
936	27,833
936,4	24,976
936,8	25,948
937,3	21,519
937,7	24,976
938,1	27,576
938,5	22,262
939	22,748
939,4	23,005
939,8	18,633
940,2	16,433
940,6	18,976
941,1	15,605
941,5	23,405
941,9	25,919
942,3	26,062
942,8	29,576
943,2	35,805
943,6	30,833
944	31,776
944,4	30,176
944,9	22,976
945,3	24,09
945,7	15,433
946,1	11,462
946,6	6,862
947	4,976
947,4	6,462
947,8	9,005
948,2	3,662
948,7	9,548
949,1	11,805
949,5	19,748
949,9	20,005
950,3	17,09
950,8	16,233
951,2	18,976
951,6	16,033
952	17,49
952,5	13,862
952,9	12,605
953,3	14,205
953,7	11,976
954,1	18,148
954,6	22,69
955	21,376
955,4	17,805
955,8	23,119
956,2	22,262
956,7	24,548
957,1	14,176
957,5	17,49
957,9	18,548
958,3	20,176
958,8	21,348
959,2	24,662
959,6	27,462
960	31,262
960,5	25,319
960,9	22,833
961,3	18,948
961,7	16,348
962,1	8,519
962,6	7,976
963	8,119
963,4	3,719
963,8	5,89
964,2	8,29
964,7	4,233
965,1	12,948
965,5	12,09
965,9	15,433
966,3	23,148
966,8	24,462
967,2	28,805
967,6	33,748
968	27,49
968,4	28,49
968,9	26,319
969,3	27,748
969,7	20,919
970,1	21,176
970,5	18,319
971	25,376
971,4	25,633
971,8	26,433
972,2	21,376
972,6	26,376
973,1	23,29
973,5	24,033
973,9	16,605
974,3	13,348
974,7	18,033
975,2	18,348
975,6	18,176
976	22,176
976,4	19,405
976,8	20,833
977,3	21,49
977,7	12,776
978,1	11,033
978,5	5,005
978,9	-0,852
979,4	0,348
979,8	0,262
980,2	2,29
980,6	2,662
981	10,348
981,5	13,319
981,9	12,005
982,3	11,376
982,7	11,776
983,1	7,748
983,6	8,176
984	2,662
984,4	6,605
984,8	12,519
985,2	11,033
985,6	7,976
986,1	11,948
986,5	15,576
986,9	8,719
987,3	9,176
987,7	6,919
988,2	8,148
988,6	11,462
989	6,548
989,4	4,805
989,8	9,719
990,3	4,548
990,7	1,69
991,1	2,348
991,5	3,948
991,9	6,605
992,3	8,919
992,8	13,519
993,2	15,576
993,6	21,805
994	26,09
994,4	21,09
994,9	23,833
995,3	23,033
995,7	19,405
996,1	19,748
996,5	15,948
996,9	8,776
997,4	14,205
997,8	6,948
998,2	2,319
998,6	-1,51
999	-0,281
999,5	-0,881
999,9	1,719
1000,3	-4,538
1000,7	2,662
1001,1	3,862
1001,5	7,576
1002	6,576
1002,4	9,376
1002,8	10,09
1003,2	14,376
1003,6	14,176
1004	17,376
1004,5	15,662
1004,9	17,948
1005,3	12,49
1005,7	15,662
1006,1	12,176
1006,6	10,148
1007	10,548
1007,4	12,319
1007,8	10,005
1008,2	9,262
1008,6	8,433
1009,1	12,49
1009,5	14,776
1009,9	16,062
1010,3	14,519
1010,7	16,805
1011,1	21,462
1011,6	20,519
1012	21,176
1012,4	17,49
1012,8	15,605
1013,2	20,29
1013,6	20,09
1014,1	19,833
1014,5	20,633
1014,9	17,633
1015,3	16,062
1015,7	18,89
1016,1	16,233
1016,6	15,633
1017	16,176
1017,4	17,005
1017,8	15,662
1018,2	22,062
1018,6	17,976
1019,1	17,89
1019,5	16,519
1019,9	13,348
1020,3	11,805
1020,7	13,49
1021,1	8,548
1021,6	9,748
1022	9,662
1022,4	10,348
1022,8	16,776
1023,2	16,119
1023,6	23,89
1024,1	29,29
1024,5	28,49
1024,9	25,376
1025,3	25,09
1025,7	22,805
1026,1	23,348
1026,6	16,09
1027	9,719
1027,4	17,633
1027,8	18,119
1028,2	16,976
1028,6	15,805
1029	13,29
1029,5	15,948
1029,9	14,205
1030,3	3,462
1030,7	6,576
1031,1	8,776
1031,5	7,062
1032	4,89
1032,4	3,748
1032,8	8,948
1033,2	11,919
1033,6	10,948
1034	9,462
1034,4	10,119
1034,9	17,919
1035,3	14,833
1035,7	14,548
1036,1	15,862
1036,5	14,062
1036,9	17,033
1037,4	24,405
1037,8	16,119
1038,2	16,205
1038,6	18,348
1039	16,833
1039,4	22,148
1039,8	20,148
1040,3	11,176
1040,7	14,462
1041,1	20,062
1041,5	19,29
1041,9	18,319
1042,3	17,376
1042,7	19,29
1043,2	22,433
1043,6	20,519
1044	16,948
1044,4	15,662
1044,8	16,976
1045,2	12,405
1045,6	13,633
1046,1	17,833
1046,5	17,119
1046,9	14,09
1047,3	13,09
1047,7	9,576
1048,1	8,148
1048,5	0,976
1049	-1,367
1049,4	4,605
1049,8	9,262
1050,2	12,09
1050,6	21,205
1051	23,748
1051,4	25,49
1051,9	23,233
1052,3	28,805
1052,7	24,205
1053,1	15,633
1053,5	8,976
1053,9	10,205
1054,3	10,948
1054,8	16,49
1055,2	12,862
1055,6	21,205
1056	28,176
1056,4	27,033
1056,8	33,748
1057,2	33,376
1057,6	22,805
1058,1	16,776
1058,5	10,033
1058,9	14,462
1059,3	21,519
1059,7	17,833
1060,1	19,033
1060,5	24,89
1061	23,89
1061,4	23,433
1061,8	22,376
1062,2	15,376
1062,6	13,719
1063	12,748
1063,4	11,376
1063,8	11,576
1064,3	11,348
1064,7	9,233
1065,1	10,662
1065,5	5,605
1065,9	6,433
1066,3	4,005
1066,7	4,462
1067,1	6,376
1067,6	5,519
1068	-0,452
1068,4	2,833
1068,8	5,319
1069,2	8,033
1069,6	11,719
1070	10,89
1070,4	6,833
1070,9	10,49
1071,3	10,062
1071,7	6,605
1072,1	8,405
1072,5	7,319
1072,9	8,233
1073,3	12,405
1073,7	15,719
1074,2	15,348
1074,6	15,09
1075	12,748
1075,4	14,605
1075,8	13,633
1076,2	14,262
1076,6	13,176
1077	14,919
1077,5	17,976
1077,9	20,176
1078,3	17,976
1078,7	20,033
1079,1	16,976
1079,5	16,205
1079,9	14,376
1080,3	12,662
1080,7	8,748
1081,2	10,433
1081,6	6,776
1082	9,319
1082,4	14,719
1082,8	15,576
1083,2	17,633
1083,6	21,719
1084	19,49
1084,5	19,605
1084,9	17,033
1085,3	9,348
1085,7	10,862
1086,1	6,948
1086,5	9,376
1086,9	11,748
1087,3	16,233
1087,7	16,719
1088,2	20,548
1088,6	16,862
1089	18,233
1089,4	15,405
1089,8	14,833
1090,2	11,548
1090,6	11,576
1091	11,405
1091,4	15,805
1091,9	15,319
1092,3	12,348
1092,7	9,833
1093,1	14,976
1093,5	15,862
1093,9	14,719
1094,3	13,948
1094,7	12,548
1095,1	15,605
1095,5	15,833
1096	7,29
1096,4	8,09
1096,8	11,89
1097,2	10,662
1097,6	14,319
1098	13,405
1098,4	15,233
1098,8	20,176
1099,2	24,919
1099,6	20,948
1100,1	20,119
1100,5	16,89
1100,9	13,49
1101,3	14,062
1101,7	9,405
1102,1	4,633
1102,5	7,348
1102,9	10,033
1103,3	12,948
1103,7	18,348
1104,2	14,833
1104,6	19,433
1105	15,576
1105,4	11,748
1105,8	7,548
1106,2	4,148
1106,6	0,033
1107	0,69
1107,4	-2,3
1107,8	-1,007
1108,3	-0,467
