Data from Subt2_196.txt Node
Date: Sat Aug 26 18:44:23 MSK 2023
User: vat
Spectrometer: MAYP114033
Trigger mode: 0
Integration Time (sec): 1,000000E0
Scans to average: 5
Electric dark correction enabled: true
Nonlinearity correction enabled: false
Boxcar width: 3
XAxis mode: Wavelengths
Number of Pixels in Spectrum: 2068
>>>>>Begin Spectral Data<<<<<
199,4	-0,717
199,9	0,653
200,4	-0,667
200,8	3,362
201,3	2,276
201,8	5,933
202,2	3,905
202,7	5,905
203,2	4,248
203,6	5,59
204,1	-1,267
204,6	0,048
205	-3,638
205,5	-4,524
206	-5,495
206,4	-5,152
206,9	-7,324
207,4	-2,81
207,8	-3,095
208,3	-4,981
208,8	-2,781
209,2	-2,895
209,7	-0,638
210,2	1,248
210,6	-1,981
211,1	0,905
211,5	-1,867
212	1,79
212,5	0,705
212,9	-2,295
213,4	-1,438
213,9	-0,295
214,3	-3,867
214,8	0,848
215,3	-4,438
215,7	-1,095
216,2	5,333
216,7	6,848
217,1	5,219
217,6	6,248
218,1	7,248
218,5	8,39
219	1,19
219,5	-3,838
219,9	-6,467
220,4	0,876
220,9	4,876
221,3	4,848
221,8	7,219
222,3	11,905
222,7	14,676
223,2	14,162
223,6	8,133
224,1	3,076
224,6	4,533
225	1,19
225,5	0,105
226	-2,924
226,4	-1,524
226,9	0,619
227,4	6,248
227,8	-0,21
228,3	2,19
228,8	0,219
229,2	1,362
229,7	1,19
230,2	2,219
230,6	-0,895
231,1	6,505
231,5	5,448
232	11,19
232,5	12,476
232,9	15,19
233,4	15,99
233,9	9,59
234,3	5,99
234,8	4,79
235,3	1,162
235,7	-0,467
236,2	-1,067
236,7	-3,724
237,1	5,419
237,6	1,676
238,1	3,448
238,5	0,533
239	0,676
239,4	0,648
239,9	-0,124
240,4	-0,495
240,8	5,105
241,3	3,533
241,8	5,133
242,2	4,676
242,7	-2,181
243,2	1,933
243,6	-1,581
244,1	0,105
244,6	3,476
245	3,962
245,5	3,39
245,9	5,305
246,4	4,848
246,9	7,162
247,3	8,276
247,8	9,362
248,3	12,762
248,7	15,048
249,2	18,99
249,7	13,79
250,1	15,419
250,6	13,19
251	12,962
251,5	12,819
252	10,819
252,4	9,219
252,9	9,848
253,4	4,305
253,8	0,876
254,3	-0,181
254,8	0,19
255,2	-0,924
255,7	-1,81
256,1	-3,067
256,6	-3,867
257,1	-0,667
257,5	-3,924
258	-10,21
258,5	-6,61
258,9	-3,467
259,4	-1,095
259,9	3,076
260,3	-3,01
260,8	-3,724
261,2	2,39
261,7	2,048
262,2	-2,124
262,6	-3,981
263,1	-5,495
263,6	0,019
264	4,133
264,5	3,905
264,9	3,333
265,4	4,533
265,9	4,562
266,3	9,448
266,8	14,448
267,3	16,048
267,7	14,248
268,2	11,419
268,7	14,076
269,1	20,048
269,6	12,933
270	9,676
270,5	6,076
271	7,648
271,4	7,39
271,9	5,133
272,4	3,476
272,8	6,276
273,3	0,705
273,7	4,305
274,2	2,876
274,7	4,105
275,1	2,133
275,6	0,276
276,1	-0,41
276,5	7,133
277	1,39
277,4	1,448
277,9	3,219
278,4	7,419
278,8	6,105
279,3	8,705
279,8	4,733
280,2	9,99
280,7	11,019
281,1	8,305
281,6	8,648
282,1	5,162
282,5	1,876
283	-0,924
283,4	-2,581
283,9	-2,381
284,4	2,79
284,8	-0,524
285,3	3,648
285,8	5,848
286,2	7,848
286,7	7,733
287,1	5,19
287,6	1,819
288,1	1,105
288,5	2,905
289	-0,438
289,5	2,419
289,9	-1,01
290,4	0,962
290,8	1,905
291,3	1,076
291,8	0,848
292,2	0,99
292,7	0,619
293,1	4,276
293,6	5,905
294,1	5,562
294,5	7,933
295	6,448
295,5	7,276
295,9	10,19
296,4	9,105
296,8	5,133
297,3	1,705
297,8	-3,324
298,2	-4,181
298,7	1,562
299,1	-0,924
299,6	1,162
300,1	4,962
300,5	10,733
301	15,533
301,5	20,848
301,9	12,705
302,4	8,819
302,8	8,933
303,3	4,676
303,8	-1,61
304,2	-3,181
304,7	-5,638
305,1	-7,61
305,6	-4,438
306,1	-0,638
306,5	2,819
307	9,076
307,4	14,59
307,9	12,105
308,4	15,19
308,8	8,419
309,3	4,505
309,8	6,333
310,2	6,19
310,7	3,162
311,1	1,819
311,6	3,648
312,1	10,248
312,5	11,076
313	10,79
313,4	5,848
313,9	10,248
314,4	10,733
314,8	8,162
315,3	6,19
315,7	0,648
316,2	-1,038
316,7	-2,095
317,1	-1,695
317,6	-0,695
318	5,19
318,5	6,848
319	9,19
319,4	7,305
319,9	14,648
320,3	9,876
320,8	11,133
321,3	10,276
321,7	11,248
322,2	9,99
322,6	10,676
323,1	6,762
323,6	5,619
324	5,419
324,5	-0,295
324,9	-2,695
325,4	-3,924
325,9	-1,41
326,3	-0,324
326,8	3,305
327,2	-1,152
327,7	3,848
328,2	3,876
328,6	8,248
329,1	2,419
329,5	1,619
330	-3,438
330,5	1,419
330,9	4,076
331,4	3,19
331,8	-3,095
332,3	4,219
332,8	3,048
333,2	4,076
333,7	5,219
334,1	-1,638
334,6	-0,724
335,1	-1,181
335,5	-3,124
336	-2,095
336,4	0,448
336,9	5,733
337,4	7,59
337,8	6,562
338,3	11,59
338,7	12,019
339,2	11,476
339,7	11,933
340,1	2,848
340,6	5,162
341	-0,152
341,5	-1,981
342	-6,095
342,4	-6,781
342,9	-8,724
343,3	-5,695
343,8	-6,01
344,2	2,533
344,7	8,448
345,2	8,619
345,6	10,562
346,1	11,19
346,5	8,448
347	7,762
347,5	4,762
347,9	4,305
348,4	7,219
348,8	6,676
349,3	10,162
349,8	14,019
350,2	19,648
350,7	18,305
351,1	18,505
351,6	25,705
352	27,162
352,5	32,305
353	37,79
353,4	39,819
353,9	52,79
354,3	65,562
354,8	73,076
355,3	95,39
355,7	110,99
356,2	134,705
356,6	162,076
357,1	192,79
357,5	224,362
358	261,505
358,5	297,99
358,9	345,19
359,4	398,219
359,8	456,962
360,3	520,848
360,8	591,905
361,2	674,362
361,7	765,19
362,1	870,962
362,6	983,905
363	1100,248
363,5	1227,219
364	1369,019
364,4	1505,105
364,9	1649,505
365,3	1781,448
365,8	1904,39
366,3	2026,733
366,7	2141,076
367,2	2230,819
367,6	2309,105
368,1	2368,933
368,5	2414,019
369	2434,933
369,5	2443,39
369,9	2425,305
370,4	2385,79
370,8	2331,019
371,3	2257,619
371,7	2170,019
372,2	2075,848
372,7	1972,79
373,1	1865,362
373,6	1759,648
374	1659,962
374,5	1553,39
374,9	1448,619
375,4	1346,533
375,9	1241,419
376,3	1143,79
376,8	1049,733
377,2	961,705
377,7	880,362
378,2	807,705
378,6	743,79
379,1	683,79
379,5	633,105
380	584,905
380,4	534,59
380,9	491,848
381,4	446,762
381,8	409,819
382,3	380,248
382,7	345,476
383,2	321,476
383,6	299,505
384,1	278,99
384,6	266,248
385	247,305
385,5	226,333
385,9	212,219
386,4	197,962
386,8	184,076
387,3	170,248
387,7	154,505
388,2	145,076
388,7	138,019
389,1	127,648
389,6	116,819
390	106,562
390,5	102,419
390,9	101,619
391,4	96,505
391,9	94,076
392,3	89,99
392,8	83,276
393,2	77,933
393,7	73,648
394,1	64,619
394,6	57,362
395,1	49,133
395,5	45,59
396	45,105
396,4	45,448
396,9	41,676
397,3	43,048
397,8	49,533
398,2	50,305
398,7	50,476
399,2	49,933
399,6	49,733
400,1	49,362
400,5	44,733
401	44,19
401,4	39,362
401,9	41,105
402,4	41,19
402,8	38,276
403,3	43,876
403,7	43,162
404,2	41,448
404,6	47,905
405,1	45,962
405,5	42,505
406	43,962
406,5	34,819
406,9	44,39
407,4	45,076
407,8	47,019
408,3	50,219
408,7	56,819
409,2	66,762
409,6	76,076
410,1	80,562
410,6	84,962
411	82,848
411,5	88,476
411,9	93,248
412,4	91,848
412,8	96,99
413,3	100,762
413,7	104,505
414,2	113,905
414,7	120,448
415,1	130,619
415,6	142,276
416	151,362
416,5	156,848
416,9	164,876
417,4	174,819
417,8	186,362
418,3	192,076
418,8	201,248
419,2	210,59
419,7	220,648
420,1	234,048
420,6	245,819
421	253,019
421,5	268,048
421,9	277,476
422,4	288,162
422,8	296,99
423,3	308,248
423,8	319,819
424,2	332,19
424,7	343,333
425,1	352,99
425,6	370,848
426	385,99
426,5	404,305
426,9	423,248
427,4	442,19
427,9	458,105
428,3	483,619
428,8	504,276
429,2	525,676
429,7	544,133
430,1	567,048
430,6	591,419
431	620,476
431,5	644,762
431,9	663,962
432,4	696,333
432,8	732,105
433,3	765,705
433,8	802,362
434,2	841,819
434,7	886,133
435,1	933,162
435,6	978,133
436	1020,419
436,5	1065,362
436,9	1111,076
437,4	1160,39
437,8	1213,705
438,3	1271,933
438,8	1328,905
439,2	1388,448
439,7	1451,076
440,1	1514,762
440,6	1580,105
441	1640,419
441,5	1705,733
441,9	1774,419
442,4	1838,533
442,8	1910,133
443,3	1992,39
443,7	2068,505
444,2	2152,733
444,7	2237,676
445,1	2322,448
445,6	2414,305
446	2513,076
446,5	2597,762
446,9	2687,705
447,4	2783,048
447,8	2877,648
448,3	2986,162
448,7	3092,162
449,2	3190,848
449,6	3300,39
450,1	3413,276
450,6	3531,133
451	3648,905
451,5	3763,562
451,9	3887,105
452,4	4014,933
452,8	4145,648
453,3	4282,476
453,7	4408,705
454,2	4541,876
454,6	4673,019
455,1	4806,762
455,5	4936,619
456	5074,79
456,4	5204,705
456,9	5347,762
457,3	5485,219
457,8	5629,39
458,3	5779,619
458,7	5930,105
459,2	6083,562
459,6	6234,448
460,1	6389,248
460,5	6543,076
461	6698,476
461,4	6844,419
461,9	6991,533
462,3	7137,248
462,8	7298,048
463,2	7449,79
463,7	7606,562
464,1	7758,848
464,6	7922,076
465	8079,505
465,5	8234,79
466	8385,19
466,4	8535,19
466,9	8691,505
467,3	8845,419
467,8	8988,962
468,2	9144,676
468,7	9292,876
469,1	9448,705
469,6	9605,333
470	9755,476
470,5	9895,933
470,9	10034,933
471,4	10172,248
471,8	10310,333
472,3	10444,505
472,7	10574,076
473,2	10697,876
473,6	10824,562
474,1	10960,133
474,5	11086,133
475	11215,733
475,4	11333,733
475,9	11451,476
476,4	11571,819
476,8	11704,19
477,3	11811,305
477,7	11921,79
478,2	12022,933
478,6	12125,848
479,1	12217,419
479,5	12308,648
480	12387,762
480,4	12478,648
480,9	12555,676
481,3	12632,048
481,8	12702,505
482,2	12768,076
482,7	12837,305
483,1	12888,619
483,6	12945,019
484	13004,476
484,5	13054,762
484,9	13094,162
485,4	13133,105
485,8	13161,562
486,3	13199,39
486,7	13221,876
487,2	13236,133
487,6	13250,076
488,1	13259,648
488,5	13268,676
489	13277,533
489,4	13277,105
489,9	13274,79
490,4	13275,133
490,8	13275,619
491,3	13261,076
491,7	13243,333
492,2	13226,99
492,6	13209,162
493,1	13174,619
493,5	13143,705
494	13092,476
494,4	13061,99
494,9	13036,962
495,3	12998,905
495,8	12956,876
496,2	12920,705
496,7	12856,705
497,1	12824,876
497,6	12767,533
498	12712,933
498,5	12649,048
498,9	12579,019
499,4	12512,105
499,8	12457,533
500,3	12386,476
500,7	12324,705
501,2	12248,048
501,6	12169,305
502,1	12092,305
502,5	12022,276
503	11953,276
503,4	11870,848
503,9	11792,333
504,3	11709,419
504,8	11627,39
505,2	11559,533
505,7	11472,19
506,1	11394,419
506,6	11302,076
507	11210,905
507,5	11117,733
507,9	11029,562
508,4	10928,705
508,8	10831,99
509,3	10719,105
509,7	10629,448
510,2	10537,819
510,6	10449,19
511,1	10356,533
511,5	10266,276
512	10168,848
512,4	10086,933
512,9	9984,762
513,3	9887,333
513,8	9785,162
514,2	9682,505
514,7	9577,848
515,1	9484,19
515,6	9380,076
516	9289,933
516,5	9180,476
516,9	9083,219
517,4	8992,448
517,8	8900,076
518,3	8803,39
518,7	8701,733
519,2	8602,19
519,6	8522,476
520,1	8432,733
520,5	8341,305
521	8239,99
521,4	8156,305
521,9	8073,962
522,3	7988,248
522,8	7894,105
523,2	7805,533
523,7	7710,59
524,1	7631,476
524,6	7536,276
525	7450,019
525,5	7361,048
525,9	7280,419
526,4	7190,162
526,8	7116,305
527,3	7032,676
527,7	6955,562
528,2	6872,99
528,6	6795,333
529,1	6717,648
529,5	6646,705
530	6566,705
530,4	6496,248
530,9	6415,848
531,3	6346,276
531,8	6274,676
532,2	6203,248
532,6	6127,962
533,1	6053,619
533,5	5983,162
534	5919,733
534,4	5848,362
534,9	5780,448
535,3	5716,219
535,8	5663,905
536,2	5603,505
536,7	5543,79
537,1	5480,962
537,6	5418,676
538	5361,819
538,5	5301,219
538,9	5233,276
539,4	5178,219
539,8	5117,905
540,3	5065,505
540,7	5011,333
541,2	4951,876
541,6	4892,076
542,1	4850,219
542,5	4804,362
543	4753,676
543,4	4697,219
543,9	4659,362
544,3	4617,39
544,8	4572,819
545,2	4510,819
545,7	4460,59
546,1	4413,505
546,5	4382,99
547	4329,39
547,4	4286,962
547,9	4246,476
548,3	4213,819
548,8	4168,962
549,2	4126,819
549,7	4078,162
550,1	4036,505
550,6	3990,733
551	3952,133
551,5	3908,019
551,9	3865,19
552,4	3826,79
552,8	3790,076
553,3	3755,076
553,7	3722,19
554,2	3690,448
554,6	3656,533
555,1	3632,162
555,5	3602,533
555,9	3573,733
556,4	3547,276
556,8	3514,105
557,3	3479,476
557,7	3456,333
558,2	3422,848
558,6	3395,305
559,1	3361,876
559,5	3330,848
560	3301,848
560,4	3274,219
560,9	3243,019
561,3	3216,162
561,8	3184,819
562,2	3160,99
562,7	3135,276
563,1	3114,905
563,6	3087,79
564	3061,133
564,4	3034,99
564,9	3016,762
565,3	2992,476
565,8	2972,448
566,2	2948,848
566,7	2934,905
567,1	2916,219
567,6	2895,99
568	2870,905
568,5	2850,705
568,9	2823,019
569,4	2800,962
569,8	2773,733
570,3	2750,876
570,7	2725,648
571,1	2711,476
571,6	2689,39
572	2675,79
572,5	2655,733
572,9	2634,99
573,4	2613,219
573,8	2601,19
574,3	2576,362
574,7	2558,848
575,2	2537,848
575,6	2516,276
576,1	2500,476
576,5	2489,133
576,9	2465,819
577,4	2447,305
577,8	2428,79
578,3	2410,99
578,7	2398,448
579,2	2382,705
579,6	2358,648
580,1	2341,448
580,5	2326,648
581	2311,133
581,4	2292,162
581,9	2275,448
582,3	2255,019
582,7	2246,105
583,2	2228,505
583,6	2212,705
584,1	2197,133
584,5	2184,419
585	2167,276
585,4	2151,676
585,9	2132,819
586,3	2127,733
586,8	2112,619
587,2	2093,362
587,6	2084,533
588,1	2077,476
588,5	2068,619
589	2059,59
589,4	2037,39
589,9	2025,619
590,3	2010,933
590,8	1986,705
591,2	1970,848
591,7	1957,219
592,1	1947,419
592,5	1940,133
593	1926,048
593,4	1920,448
593,9	1911,419
594,3	1896,933
594,8	1886,162
595,2	1871,248
595,7	1862,762
596,1	1851,39
596,6	1841,819
597	1835,39
597,4	1825,419
597,9	1818,076
598,3	1811,362
598,8	1800,048
599,2	1797,333
599,7	1788,533
600,1	1774,619
600,6	1767,619
601	1756,476
601,4	1745,562
601,9	1737,848
602,3	1719,476
602,8	1709,105
603,2	1701,819
603,7	1689,705
604,1	1677,99
604,6	1663,59
605	1649,533
605,4	1646,476
605,9	1634,505
606,3	1620,905
606,8	1610,848
607,2	1596,305
607,7	1582,048
608,1	1574,705
608,6	1566,219
609	1564,448
609,4	1559,448
609,9	1552,933
610,3	1550,905
610,8	1549,105
611,2	1536,648
611,7	1526,333
612,1	1510,705
612,6	1505,933
613	1498,048
613,4	1488,733
613,9	1476,276
614,3	1464,648
614,8	1453,248
615,2	1441,076
615,7	1430,99
616,1	1415,505
616,6	1403,676
617	1396,133
617,4	1393,848
617,9	1386,848
618,3	1382,933
618,8	1377,733
619,2	1371,162
619,7	1367,419
620,1	1362,676
620,5	1360,762
621	1352,419
621,4	1346,076
621,9	1333,162
622,3	1327,562
622,8	1317,533
623,2	1306,933
623,6	1294,162
624,1	1286,762
624,5	1278,333
625	1278,362
625,4	1270,648
625,9	1258,905
626,3	1251,162
626,8	1244,619
627,2	1240,819
627,6	1224,333
628,1	1206,933
628,5	1200,048
629	1191,562
629,4	1185,133
629,9	1172,248
630,3	1158,048
630,7	1156,79
631,2	1149,619
631,6	1144,333
632,1	1138,733
632,5	1130,419
633	1124,448
633,4	1115,162
633,8	1110,962
634,3	1103,533
634,7	1095,333
635,2	1089,505
635,6	1085,048
636,1	1078,533
636,5	1067,219
636,9	1057,248
637,4	1050,676
637,8	1032,905
638,3	1024,333
638,7	1013,048
639,2	1005,876
639,6	1006,848
640	1000,019
640,5	993,533
640,9	994,648
641,4	990,59
641,8	986,848
642,2	983,476
642,7	985,105
643,1	983,505
643,6	979,39
644	972,733
644,5	968,79
644,9	962,476
645,3	953,933
645,8	938,562
646,2	936,248
646,7	924,419
647,1	920,333
647,6	913,162
648	906,448
648,4	901,305
648,9	901,076
649,3	885,276
649,8	886,219
650,2	877,562
650,6	872,848
651,1	868,248
651,5	863,562
652	854,648
652,4	851,59
652,9	847,076
653,3	844,733
653,7	837,219
654,2	830,733
654,6	823,39
655,1	822,533
655,5	821,248
655,9	814,676
656,4	812,79
656,8	810,533
657,3	809,59
657,7	812,076
658,2	799,676
658,6	792,076
659	784,39
659,5	773,362
659,9	767,905
660,4	762,848
660,8	747,933
661,2	744,219
661,7	738,162
662,1	735,019
662,6	733,619
663	723,362
663,4	716,219
663,9	715,876
664,3	710,219
664,8	700,305
665,2	691,848
665,6	684,648
666,1	684,162
666,5	677,962
667	671,162
667,4	666,419
667,9	666,933
668,3	666,59
668,7	657,419
669,2	657,876
669,6	655,533
670,1	652,219
670,5	649,962
670,9	643,162
671,4	634,99
671,8	638,876
672,3	631,305
672,7	625,99
673,1	620,905
673,6	612,333
674	610,276
674,5	606,19
674,9	596,419
675,3	588,048
675,8	583,99
676,2	578,648
676,7	573,99
677,1	569,276
677,5	565,419
678	565,99
678,4	562,848
678,9	557,905
679,3	553,676
679,7	555,219
680,2	545,505
680,6	539,048
681,1	535,333
681,5	535,419
681,9	532,99
682,4	531,19
682,8	526,99
683,3	528,476
683,7	527,819
684,1	523,019
684,6	517,59
685	515,676
685,5	509,333
685,9	502,048
686,3	496,39
686,8	494,79
687,2	490,162
687,7	480,362
688,1	470,019
688,5	465,105
689	463,505
689,4	460,505
689,9	453,248
690,3	445,99
690,7	448,99
691,2	453,048
691,6	454,79
692	456,248
692,5	456,39
692,9	454,476
693,4	454,276
693,8	452,39
694,2	445,305
694,7	439,733
695,1	426,019
695,6	422,99
696	423,533
696,4	421,162
696,9	415,276
697,3	411,876
697,8	412,219
698,2	414,962
698,6	411,19
699,1	404,133
699,5	404,476
699,9	396,362
700,4	389,733
700,8	384,562
701,3	386,419
701,7	381,048
702,1	379,248
702,6	373,562
703	379,076
703,5	380,39
703,9	375,533
704,3	368,79
704,8	366,648
705,2	366,362
705,6	365,848
706,1	358,219
706,5	352,905
707	350,59
707,4	350,905
707,8	346,705
708,3	342,876
708,7	338,133
709,2	338,333
709,6	336,276
710	341,162
710,5	332,99
710,9	336,276
711,3	335,648
711,8	334,219
712,2	333,59
712,7	327,933
713,1	321,819
713,5	324,505
714	323,076
714,4	315,733
714,8	315,362
715,3	309,59
715,7	312,905
716,2	306,219
716,6	303,676
717	294,105
717,5	290,962
717,9	286,619
718,3	281,819
718,8	280,962
719,2	282,762
719,7	279,962
720,1	283,362
720,5	286,79
721	285,59
721,4	285,762
721,8	284,905
722,3	279,848
722,7	280,962
723,2	274,619
723,6	266,105
724	260,962
724,5	258,99
724,9	253,39
725,3	251,705
725,8	243,276
726,2	244,533
726,7	246,905
727,1	246,819
727,5	243,19
728	239,162
728,4	239,448
728,8	238,705
729,3	232,533
729,7	225,533
730,1	225,305
730,6	224,933
731	223,362
731,5	220,476
731,9	218,219
732,3	219,248
732,8	227,762
733,2	226,248
733,6	227,762
734,1	228,162
734,5	228,733
734,9	231,105
735,4	230,562
735,8	220,448
736,3	221,419
736,7	218,105
737,1	219,133
737,6	213,705
738	211,248
738,4	209,248
738,9	214,19
739,3	206,962
739,7	206,248
740,2	201,448
740,6	204,133
741,1	204,076
741,5	200,19
741,9	197,848
742,4	203,533
742,8	200,819
743,2	202,162
743,7	192,876
744,1	189,276
744,5	189,362
745	184,962
745,4	177,99
745,8	177,419
746,3	174,248
746,7	175,619
747,2	178,076
747,6	177,962
748	181,705
748,5	184,048
748,9	182,133
749,3	181,476
749,8	183,99
750,2	180,39
750,6	176,419
751,1	175,533
751,5	171,419
751,9	172,362
752,4	175,933
752,8	176,705
753,3	174,476
753,7	179,076
754,1	171,219
754,6	169,448
755	164,848
755,4	158,505
755,9	152,476
756,3	152,248
756,7	148,219
757,2	154,076
757,6	157,419
758	157,448
758,5	154,476
758,9	157,933
759,3	156,562
759,8	156,048
760,2	152,162
760,6	149,333
761,1	147,79
761,5	150,19
761,9	149,219
762,4	147,59
762,8	146,019
763,3	144,676
763,7	145,019
764,1	146,533
764,6	147,276
765	149,048
765,4	147,39
765,9	146,133
766,3	149,019
766,7	143,248
767,2	142,048
767,6	146,19
768	143,476
768,5	143,99
768,9	147,876
769,3	141,99
769,8	140,848
770,2	140,733
770,6	133,019
771,1	135,076
771,5	134,619
771,9	133,048
772,4	137,733
772,8	140,448
773,2	138,648
773,7	137,019
774,1	131,048
774,5	125,505
775	121,648
775,4	118,133
775,8	119,648
776,3	121,733
776,7	121,048
777,1	122,133
777,6	128,305
778	133,048
778,4	130,105
778,9	127,648
779,3	123,362
779,7	126,362
780,2	125,305
780,6	123,448
781	120,619
781,5	117,79
781,9	113,133
782,3	109,362
782,8	105,562
783,2	103,533
783,6	106,933
784,1	99,59
784,5	97,562
784,9	99,048
785,4	103,076
785,8	103,619
786,2	105,848
786,7	101,419
787,1	103,59
787,5	106,648
788	106,933
788,4	106,79
788,8	104,733
789,3	102,562
789,7	100,962
790,1	103,248
790,6	106,048
791	103,076
791,4	104,048
791,9	106,19
792,3	98,219
792,7	100,448
793,2	95,648
793,6	93,133
794	92,819
794,5	87,933
794,9	86,59
795,3	96,076
795,8	91,076
796,2	96,619
796,6	98,762
797,1	98,476
797,5	99,476
797,9	94,933
798,4	91,048
798,8	90,79
799,2	84,133
799,7	84,619
800,1	84,848
800,5	80,733
801	84,105
801,4	79,705
801,8	80,705
802,2	81,819
802,7	76,276
803,1	77,162
803,5	79,219
804	78,562
804,4	82,162
804,8	82,448
805,3	84,762
805,7	85,219
806,1	85,076
806,6	86,619
807	83,848
807,4	79,876
807,9	72,99
808,3	70,79
808,7	74,333
809,2	77,048
809,6	76,333
810	76,819
810,4	77,676
810,9	81,362
811,3	81,733
811,7	77,362
812,2	75,848
812,6	72,276
813	76,362
813,5	75,048
813,9	76,79
814,3	75,019
814,8	75,876
815,2	70,533
815,6	73,105
816,1	70,705
816,5	73,19
816,9	68,819
817,3	72,019
817,8	75,333
818,2	78,676
818,6	73,39
819,1	67,505
819,5	67,133
819,9	71,048
820,4	65,79
820,8	60,933
821,2	53,819
821,7	56,648
822,1	63,533
822,5	67,819
822,9	66,562
823,4	68,248
823,8	69,819
824,2	74,848
824,7	70,076
825,1	61,905
825,5	51,876
826	44,876
826,4	39,733
826,8	34,848
827,3	34,048
827,7	36,248
828,1	39,533
828,5	43,733
829	44,162
829,4	48,762
829,8	46,133
830,3	43,562
830,7	44,19
831,1	45,933
831,6	46,705
832	52,105
832,4	49,848
832,8	53,533
833,3	54,248
833,7	54,59
834,1	52,419
834,6	48,648
835	47,019
835,4	51,362
835,8	49,533
836,3	49,876
836,7	48,99
837,1	49,648
837,6	54,79
838	49,819
838,4	46,99
838,9	44,476
839,3	41,276
839,7	41,162
840,1	35,505
840,6	30,533
841	33,533
841,4	32,99
841,9	35,848
842,3	35,79
842,7	35,819
843,1	39,333
843,6	41,476
844	39,733
844,4	40,19
844,9	42,276
845,3	44,533
845,7	44,905
846,2	40,962
846,6	36,648
847	38,619
847,4	37,962
847,9	36,99
848,3	35,819
848,7	34,476
849,2	34,933
849,6	33,619
850	37,848
850,4	39,333
850,9	39,362
851,3	39,105
851,7	38,162
852,2	37,362
852,6	44,79
853	41,362
853,4	38,733
853,9	34,048
854,3	32,705
854,7	36,305
855,2	38,533
855,6	32,79
856	29,848
856,4	27,648
856,9	28,619
857,3	29,876
857,7	29,648
858,2	33,219
858,6	32,219
859	29,619
859,4	30,219
859,9	30,962
860,3	28,848
860,7	25,562
861,1	23,333
861,6	25,419
862	27,248
862,4	28,905
862,9	28,305
863,3	28,19
863,7	29,448
864,1	30,448
864,6	27,762
865	29,305
865,4	29,705
865,9	30,476
866,3	28,562
866,7	24,876
867,1	19,905
867,6	27,076
868	28,219
868,4	22,562
868,8	21,59
869,3	26,933
869,7	36,39
870,1	35,905
870,6	30,133
871	7,933
871,4	13,562
871,8	15,419
872,3	14,305
872,7	4,562
873,1	9,362
873,5	6,648
874	28,648
874,4	26,276
874,8	24,476
875,3	22,933
875,7	22,048
876,1	20,362
876,5	22,676
877	18,476
877,4	15,79
877,8	14,59
878,2	17,076
878,7	24,962
879,1	20,848
879,5	21,076
879,9	23,105
880,4	27,676
880,8	26,962
881,2	23,705
881,7	17,676
882,1	20,819
882,5	23,59
882,9	22,076
883,4	18,476
883,8	18,876
884,2	18,876
884,6	14,419
885,1	17,162
885,5	16,333
885,9	17,648
886,3	20,219
886,8	19,876
887,2	18,248
887,6	22,133
888	21,19
888,5	19,19
888,9	21,562
889,3	15,676
889,8	16,99
890,2	16,505
890,6	16,019
891	14,248
891,5	10,79
891,9	8,419
892,3	13,619
892,7	13,59
893,2	19,19
893,6	22,048
894	26,248
894,4	25,876
894,9	26,39
895,3	26,648
895,7	27,448
896,1	23,762
896,6	21,762
897	16,876
897,4	23,048
897,8	24,076
898,3	24,19
898,7	22,705
899,1	19,962
899,5	14,705
900	10,333
900,4	8,248
900,8	6,648
901,2	5,133
901,7	3,99
902,1	7,705
902,5	16,333
902,9	19,962
903,4	23,019
903,8	22,305
904,2	20,762
904,6	20,476
905,1	20,162
905,5	16,733
905,9	19,848
906,3	13,905
906,8	15,505
907,2	17,905
907,6	19,562
908	18,99
908,5	18,105
908,9	13,505
909,3	14,476
909,7	12,248
910,2	15,39
910,6	16,39
911	16,933
911,4	18,219
911,9	16,276
912,3	13,733
912,7	17,048
913,1	13,219
913,6	12,533
914	12,819
914,4	11,362
914,8	14,019
915,3	16,79
915,7	17,505
916,1	16,133
916,5	15,162
916,9	13,419
917,4	14,79
917,8	14,533
918,2	10,105
918,6	1,048
919,1	0,705
919,5	1,619
919,9	-1,01
920,3	0,79
920,8	2,933
921,2	4,762
921,6	14,276
922	16,305
922,5	15,876
922,9	18,676
923,3	14,219
923,7	11,162
924,2	11,076
924,6	6,905
925	7,19
925,4	4,505
925,8	4,733
926,3	6,819
926,7	4,79
927,1	3,705
927,5	6,676
928	-0,038
928,4	-1,524
928,8	-1,038
929,2	-2,752
929,7	1,59
930,1	7,79
930,5	2,448
930,9	11,305
931,3	11,533
931,8	7,762
932,2	9,219
932,6	4,476
933	-3,01
933,5	-1,152
933,9	-4,781
934,3	1,019
934,7	2,733
935,2	2,933
935,6	6,448
936	8,476
936,4	11,448
936,8	14,533
937,3	10,162
937,7	11,905
938,1	14,448
938,5	10,105
939	9,676
939,4	9,162
939,8	3,848
940,2	6,876
940,6	8,162
941,1	3,933
941,5	11,448
941,9	12,076
942,3	8,619
942,8	8,505
943,2	11,848
943,6	7,99
944	7,99
944,4	6,476
944,9	3,619
945,3	4,333
945,7	2,333
946,1	-5,667
946,6	-7,095
947	-6,038
947,4	-3,438
947,8	0,848
948,2	-2,924
948,7	3,533
949,1	5,819
949,5	11,448
949,9	8,019
950,3	7,905
950,8	6,933
951,2	12,59
951,6	9,133
952	12,105
952,5	4,619
952,9	6,219
953,3	3,762
953,7	3,819
954,1	2,476
954,6	3,648
955	3,305
955,4	7,448
955,8	12,448
956,2	11,733
956,7	18,962
957,1	18,848
957,5	21,019
957,9	20,419
958,3	16,733
958,8	17,048
959,2	20,562
959,6	15,076
960	13,733
960,5	12,648
960,9	13,99
961,3	12,905
961,7	6,933
962,1	1,705
962,6	2,79
963	7,505
963,4	1,276
963,8	0,99
964,2	4,219
964,7	6,59
965,1	12,276
965,5	10,133
965,9	5,219
966,3	9,448
966,8	4,533
967,2	9,876
967,6	8,676
968	-0,01
968,4	-1,524
968,9	4,305
969,3	2,762
969,7	4,476
970,1	-0,267
970,5	2,19
971	6,905
971,4	7,248
971,8	1,99
972,2	2,819
972,6	0,419
973,1	0,648
973,5	-0,438
973,9	0,99
974,3	-0,724
974,7	2,676
975,2	5,162
975,6	6,219
976	6,305
976,4	2,619
976,8	-2,61
977,3	1,076
977,7	-3,724
978,1	-5,438
978,5	-5,581
978,9	-7,981
979,4	-6,41
979,8	-4,495
980,2	-5,524
980,6	-5,781
981	-3,295
981,5	-0,867
981,9	-2,381
982,3	-3,238
982,7	-1,524
983,1	-6,695
983,6	-5,952
984	-8,21
984,4	-9,61
984,8	-2,352
985,2	0,476
985,6	-1,352
986,1	4,619
986,5	5,676
986,9	3,448
987,3	4,562
987,7	2,305
988,2	2,648
988,6	4,419
989	1,648
989,4	2,933
989,8	4,162
990,3	3,105
990,7	4,419
991,1	3,448
991,5	4,79
991,9	7,276
992,3	6,733
992,8	8,019
993,2	8,448
993,6	6,876
994	11,962
994,4	12,048
994,9	14,733
995,3	16,133
995,7	19,019
996,1	19,219
996,5	20,19
996,9	14,133
997,4	16,962
997,8	10,962
998,2	9,476
998,6	-1,467
999	-1,152
999,5	-4,067
999,9	-1,724
1000,3	-7,781
1000,7	-3,124
1001,1	-3,838
1001,5	4,648
1002	10,076
1002,4	14,476
1002,8	12,962
1003,2	15,676
1003,6	12,733
1004	15,676
1004,5	10,933
1004,9	6,876
1005,3	4,019
1005,7	8,39
1006,1	5,362
1006,6	3,019
1007	0,933
1007,4	1,305
1007,8	2,276
1008,2	-2,238
1008,6	-4,067
1009,1	-3,581
1009,5	-0,838
1009,9	-0,952
1010,3	0,79
1010,7	0,305
1011,1	5,39
1011,6	3,048
1012	5,676
1012,4	4,533
1012,8	2,876
1013,2	6,476
1013,6	7,505
1014,1	5,448
1014,5	5,162
1014,9	2,162
1015,3	0,276
1015,7	4,248
1016,1	-1,638
1016,6	-5,724
1017	-2,238
1017,4	-3,695
1017,8	-2,524
1018,2	1,39
1018,6	-6,152
1019,1	-2,067
1019,5	-2,867
1019,9	-7,41
1020,3	-0,438
1020,7	1,305
1021,1	-0,267
1021,6	6,19
1022	7,676
1022,4	11,533
1022,8	13,133
1023,2	7,39
1023,6	7,019
1024,1	13,533
1024,5	11,905
1024,9	8,619
1025,3	5,59
1025,7	6,79
1026,1	10,019
1026,6	10,162
1027	2,362
1027,4	3,19
1027,8	1,933
1028,2	0,79
1028,6	4,962
1029	-0,552
1029,5	1,676
1029,9	3,019
1030,3	1,819
1030,7	5,648
1031,1	11,505
1031,5	1,962
1032	4,762
1032,4	2,162
1032,8	3,419
1033,2	6,162
1033,6	-0,438
1034	-0,038
1034,4	3,962
1034,9	5,705
1035,3	3,933
1035,7	5,133
1036,1	0,333
1036,5	3,448
1036,9	1,962
1037,4	5,133
1037,8	-0,124
1038,2	0,562
1038,6	0,59
1039	4,59
1039,4	11,905
1039,8	7,676
1040,3	3,105
1040,7	5,248
1041,1	6,448
1041,5	6,076
1041,9	3,162
1042,3	-1,552
1042,7	1,362
1043,2	0,819
1043,6	0,39
1044	0,362
1044,4	0,562
1044,8	2,019
1045,2	-1,781
1045,6	-1,552
1046,1	-1,724
1046,5	1,333
1046,9	-1,81
1047,3	-4,724
1047,7	-4,41
1048,1	-5,667
1048,5	-8,352
1049	-0,895
1049,4	2,476
1049,8	5,762
1050,2	7,79
1050,6	10,39
1051	15,219
1051,4	13,105
1051,9	11,105
1052,3	12,533
1052,7	11,019
1053,1	7,619
1053,5	7,905
1053,9	7,276
1054,3	8,362
1054,8	8,905
1055,2	3,476
1055,6	6,962
1056	11,39
1056,4	4,19
1056,8	2,59
1057,2	5,333
1057,6	0,533
1058,1	1,019
1058,5	-4,124
1058,9	-5,267
1059,3	0,048
1059,7	2,676
1060,1	5,048
1060,5	6,505
1061	5,819
1061,4	10,305
1061,8	12,905
1062,2	14,048
1062,6	12,248
1063	13,048
1063,4	14,048
1063,8	15,733
1064,3	10,933
1064,7	9,79
1065,1	6,448
1065,5	3,505
1065,9	1,19
1066,3	-1,095
1066,7	-1,81
1067,1	-2,952
1067,6	-0,467
1068	-3,438
1068,4	2,076
1068,8	3,362
1069,2	5,962
1069,6	6,419
1070	12,762
1070,4	10,219
1070,9	15,219
1071,3	15,876
1071,7	11,305
1072,1	9,533
1072,5	6,619
1072,9	1,362
1073,3	1,305
1073,7	-2,867
1074,2	-1,41
1074,6	3,505
1075	5,905
1075,4	6,276
1075,8	13,105
1076,2	16,39
1076,6	18,962
1077	13,162
1077,5	12,448
1077,9	9,048
1078,3	11,848
1078,7	6,705
1079,1	4,39
1079,5	5,219
1079,9	8,505
1080,3	3,733
1080,7	5,305
1081,2	8,876
1081,6	7,733
1082	3,705
1082,4	4,876
1082,8	2,79
1083,2	4,448
1083,6	6,362
1084	2,162
1084,5	3,819
1084,9	3,019
1085,3	-1,524
1085,7	-1,41
1086,1	0,162
1086,5	-3,21
1086,9	-1,524
1087,3	-4,124
1087,7	-2,638
1088,2	1,019
1088,6	0,162
1089	-1,324
1089,4	0,562
1089,8	-0,695
1090,2	0,762
1090,6	2,476
1091	4,762
1091,4	10,019
1091,9	12,105
1092,3	12,762
1092,7	8,562
1093,1	13,99
1093,5	12,219
1093,9	9,276
1094,3	10,19
1094,7	7,676
1095,1	7,448
1095,5	7,476
1096	2,476
1096,4	6,305
1096,8	5,133
1097,2	1,505
1097,6	6,476
1098	5,79
1098,4	9,876
1098,8	11,59
1099,2	12,762
1099,6	14,305
1100,1	15,648
1100,5	8,133
1100,9	9,962
1101,3	8,648
1101,7	7,705
1102,1	5,362
1102,5	5,419
1102,9	6,133
1103,3	15,219
1103,7	14,419
1104,2	13,019
1104,6	12,333
1105	10,162
1105,4	10,105
1105,8	6,762
1106,2	0,648
1106,6	-0,524
1107	0,276
1107,4	0,6
1107,8	1,373
1108,3	-0,167
