Data from Subt2_031.txt Node
Date: Sat Aug 26 16:22:04 MSK 2023
User: vat
Spectrometer: MAYP114033
Trigger mode: 0
Integration Time (sec): 1,000000E0
Scans to average: 5
Electric dark correction enabled: true
Nonlinearity correction enabled: false
Boxcar width: 3
XAxis mode: Wavelengths
Number of Pixels in Spectrum: 2068
>>>>>Begin Spectral Data<<<<<
199,4	0,517
199,9	0,267
200,4	-0,033
200,8	0,181
201,3	-0,705
201,8	2,152
202,2	3,495
202,7	4,41
203,2	7,981
203,6	8,495
204,1	9,924
204,6	12,124
205	11,01
205,5	9,324
206	11,352
206,4	9,152
206,9	4,524
207,4	5,952
207,8	1,552
208,3	2,838
208,8	3,724
209,2	1,924
209,7	0,895
210,2	7,552
210,6	6,838
211,1	6,438
211,5	2,41
212	-0,705
212,5	-5,876
212,9	-5,905
213,4	-6,762
213,9	-8,448
214,3	-5,048
214,8	-2,248
215,3	0,067
215,7	2,01
216,2	3,752
216,7	-0,362
217,1	-2,248
217,6	-2,419
218,1	0,41
218,5	5,324
219	10,467
219,5	8,067
219,9	9,21
220,4	10,41
220,9	9,181
221,3	5,695
221,8	0,01
222,3	-3,733
222,7	-2,619
223,2	0,581
223,6	-2,619
224,1	0,981
224,6	1,924
225	2,924
225,5	8,695
226	7,924
226,4	12,267
226,9	14,01
227,4	16,067
227,8	16,381
228,3	17,895
228,8	12,838
229,2	12,495
229,7	6,438
230,2	7,124
230,6	1,924
231,1	1,095
231,5	2,152
232	7,352
232,5	8,838
232,9	12,181
233,4	15,21
233,9	15,952
234,3	14,095
234,8	10,238
235,3	9,124
235,7	11,381
236,2	8,295
236,7	8,552
237,1	5,924
237,6	7,638
238,1	6,038
238,5	4,324
239	-0,19
239,4	1,467
239,9	0,181
240,4	6,124
240,8	7,552
241,3	4,495
241,8	0,667
242,2	-1,562
242,7	-0,39
243,2	-3,19
243,6	-3,448
244,1	-4,705
244,6	-3,733
245	-0,248
245,5	3,524
245,9	0,61
246,4	2,552
246,9	-1,419
247,3	-3,048
247,8	-1,19
248,3	-0,533
248,7	3,552
249,2	2,838
249,7	4,867
250,1	6,524
250,6	4,095
251	5,552
251,5	-0,048
252	0,438
252,4	2,81
252,9	1,21
253,4	0,724
253,8	2,781
254,3	5,695
254,8	8,924
255,2	0,81
255,7	3,095
256,1	-1,048
256,6	-0,79
257,1	3,552
257,5	4,981
258	6,838
258,5	11,01
258,9	12,038
259,4	18,61
259,9	21,238
260,3	15,21
260,8	13,495
261,2	16,495
261,7	15,324
262,2	10,438
262,6	6,61
263,1	5,867
263,6	9,21
264	10,324
264,5	6,695
264,9	11,01
265,4	10,038
265,9	12,552
266,3	9,724
266,8	10,581
267,3	13,381
267,7	14,181
268,2	13,067
268,7	13,581
269,1	9,41
269,6	11,581
270	16,752
270,5	13,724
271	14,238
271,4	10,952
271,9	13,381
272,4	17,267
272,8	13,781
273,3	5,695
273,7	1,352
274,2	-1,162
274,7	1,238
275,1	-2,733
275,6	1,724
276,1	6,038
276,5	6,924
277	10,352
277,4	8,438
277,9	4,381
278,4	10,667
278,8	10,295
279,3	5,21
279,8	10,41
280,2	8,552
280,7	12,495
281,1	18,41
281,6	14,924
282,1	10,238
282,5	13,752
283	8,095
283,4	9,152
283,9	4,638
284,4	1,781
284,8	0,924
285,3	-0,162
285,8	-2,99
286,2	-0,905
286,7	-4,876
287,1	-4,905
287,6	-3,276
288,1	-3,219
288,5	-1,819
289	2,324
289,5	1,038
289,9	1,895
290,4	3,981
290,8	7,838
291,3	10,067
291,8	10,924
292,2	12,581
292,7	12,724
293,1	13,638
293,6	12,038
294,1	4,524
294,5	5,867
295	3,467
295,5	1,724
295,9	5,552
296,4	10,695
296,8	11,41
297,3	13,867
297,8	8,952
298,2	7,495
298,7	5,724
299,1	3,895
299,6	0,61
300,1	1,238
300,5	3,752
301	8,495
301,5	10,781
301,9	9,352
302,4	5,095
302,8	4,495
303,3	7,181
303,8	2,867
304,2	-1,562
304,7	-0,905
305,1	-0,933
305,6	-1,39
306,1	-1,905
306,5	-3,733
307	-5,533
307,4	-6,848
307,9	-5,419
308,4	-0,562
308,8	7,152
309,3	5,924
309,8	9,067
310,2	8,638
310,7	18,581
311,1	13,41
311,6	8,552
312,1	7,467
312,5	11,495
313	6,895
313,4	8,81
313,9	6,495
314,4	6,267
314,8	11,752
315,3	10,638
315,7	9,381
316,2	13,01
316,7	16,152
317,1	11,981
317,6	15,781
318	13,724
318,5	15,924
319	16,495
319,4	14,41
319,9	10,667
320,3	14,867
320,8	20,61
321,3	18,867
321,7	14,667
322,2	11,81
322,6	11,981
323,1	16,467
323,6	9,952
324	3,867
324,5	3,067
324,9	6,295
325,4	10,124
325,9	15,695
326,3	18,438
326,8	22,41
327,2	25,61
327,7	27,438
328,2	25,638
328,6	29,124
329,1	23,524
329,5	22,867
330	24,495
330,5	19,095
330,9	20,467
331,4	15,638
331,8	13,581
332,3	19,752
332,8	11,895
333,2	8,124
333,7	13,438
334,1	10,667
334,6	13,21
335,1	10,981
335,5	4,638
336	5,324
336,4	4,01
336,9	6,81
337,4	3,952
337,8	8,981
338,3	10,695
338,7	11,095
339,2	16,781
339,7	16,867
340,1	9,81
340,6	11,238
341	9,324
341,5	9,267
342	9,438
342,4	2,724
342,9	2,152
343,3	2,324
343,8	7,381
344,2	13,21
344,7	12,552
345,2	16,667
345,6	21,981
346,1	27,61
346,5	33,667
347	35,267
347,5	27,267
347,9	26,267
348,4	25,21
348,8	26,41
349,3	26,552
349,8	26,467
350,2	24,752
350,7	27,581
351,1	31,638
351,6	32,01
352	41,752
352,5	48,61
353	57,381
353,4	71,495
353,9	90,638
354,3	111,952
354,8	138,924
355,3	158,552
355,7	187,952
356,2	223,524
356,6	265,41
357,1	310,552
357,5	367,381
358	434,924
358,5	515,067
358,9	602,267
359,4	701,181
359,8	807,924
360,3	930,667
360,8	1064,81
361,2	1214,267
361,7	1372,524
362,1	1559,01
362,6	1757,467
363	1974,238
363,5	2203,695
364	2444,638
364,4	2689,467
364,9	2940,61
365,3	3183,41
365,8	3414,467
366,3	3630,924
366,7	3825,124
367,2	3986,095
367,6	4124,41
368,1	4229,61
368,5	4289,924
369	4323,495
369,5	4319,467
369,9	4278,124
370,4	4207,695
370,8	4102,381
371,3	3974,924
371,7	3826,295
372,2	3662,095
372,7	3477,495
373,1	3290,124
373,6	3095,152
374	2899,838
374,5	2705,324
374,9	2509,352
375,4	2320,81
375,9	2144,752
376,3	1977,552
376,8	1824,667
377,2	1680,352
377,7	1541,41
378,2	1418,295
378,6	1295,324
379,1	1189,895
379,5	1090,124
380	998,981
380,4	909,524
380,9	836,438
381,4	771,981
381,8	711,81
382,3	651,124
382,7	597,924
383,2	548,952
383,6	513,895
384,1	472,981
384,6	437,524
385	410,095
385,5	382,095
385,9	359,038
386,4	338,495
386,8	317,038
387,3	298,867
387,7	281,095
388,2	260,895
388,7	246,924
389,1	228,438
389,6	208,752
390	189,667
390,5	172,924
390,9	164,781
391,4	158,067
391,9	145,152
392,3	131,838
392,8	129,324
393,2	120,152
393,7	120,81
394,1	113,267
394,6	102,01
395,1	100,21
395,5	100,61
396	93,667
396,4	93,524
396,9	86,552
397,3	79,181
397,8	80,238
398,2	72,381
398,7	68,01
399,2	65,667
399,6	64,495
400,1	56,81
400,5	55,552
401	51,324
401,4	54,324
401,9	56,152
402,4	58,552
402,8	57,181
403,3	61,324
403,7	62,41
404,2	63,81
404,6	63,667
405,1	62,295
405,5	57,152
406	55,667
406,5	58,867
406,9	60,581
407,4	65,152
407,8	68,524
408,3	73,41
408,7	82,695
409,2	87,295
409,6	92,495
410,1	99,838
410,6	102,895
411	108,895
411,5	115,81
411,9	122,152
412,4	135,038
412,8	142,781
413,3	150,695
413,7	161,952
414,2	171,781
414,7	186,352
415,1	196,952
415,6	207,324
416	222,581
416,5	235,695
416,9	249,781
417,4	267,952
417,8	281,295
418,3	302,581
418,8	316,01
419,2	330,638
419,7	352,352
420,1	369,581
420,6	389,181
421	412,324
421,5	429,752
421,9	453,867
422,4	480,038
422,8	502,238
423,3	530,552
423,8	560,867
424,2	590,21
424,7	617,467
425,1	652,581
425,6	689,724
426	727,352
426,5	764,095
426,9	802,495
427,4	845,381
427,9	891,21
428,3	937,695
428,8	983,01
429,2	1029,01
429,7	1079,61
430,1	1134,952
430,6	1189,295
431	1248,838
431,5	1311,067
431,9	1372,81
432,4	1445,352
432,8	1523,152
433,3	1597,667
433,8	1679,952
434,2	1765,267
434,7	1850,438
435,1	1946,81
435,6	2045,752
436	2143,067
436,5	2251,324
436,9	2358,21
437,4	2476,695
437,8	2599,695
438,3	2722,381
438,8	2847,61
439,2	2984,495
439,7	3121,438
440,1	3261,838
440,6	3411,267
441	3559,038
441,5	3718,838
441,9	3881,752
442,4	4046,638
442,8	4221,895
443,3	4404,581
443,7	4579,867
444,2	4772,324
444,7	4969,152
445,1	5172,667
445,6	5383,238
446	5594,867
446,5	5811,152
446,9	6044,695
447,4	6279,695
447,8	6508,867
448,3	6749,667
448,7	6988,324
449,2	7237,667
449,6	7490,81
450,1	7751,867
450,6	8010,152
451	8283,124
451,5	8554,438
451,9	8842,581
452,4	9133,752
452,8	9440,438
453,3	9723,781
453,7	10035,581
454,2	10332,752
454,6	10643,895
455,1	10957,295
455,5	11263,438
456	11567,752
456,4	11899,295
456,9	12217,638
457,3	12564,495
457,8	12905,267
458,3	13239,067
458,7	13589,924
459,2	13941,667
459,6	14287,81
460,1	14630,038
460,5	14969,152
461	15313,695
461,4	15659,41
461,9	16009,152
462,3	16366,095
462,8	16726,895
463,2	17087,981
463,7	17451,352
464,1	17812,867
464,6	18175,667
465	18536,381
465,5	18885,324
466	19230,095
466,4	19573,467
466,9	19923,067
467,3	20262,01
467,8	20604,638
468,2	20933,895
468,7	21270,524
469,1	21599,267
469,6	21934,81
470	22258,524
470,5	22576,181
470,9	22900,867
471,4	23217,838
471,8	23524,667
472,3	23818,238
472,7	24108,438
473,2	24395,152
473,6	24688,724
474,1	24954,381
474,5	25226,067
475	25497,352
475,4	25781,524
475,9	26066,467
476,4	26322,667
476,8	26575,695
477,3	26815,581
477,7	27060,981
478,2	27278,352
478,6	27484,238
479,1	27659,267
479,5	27859,81
480	28039,781
480,4	28217,695
480,9	28380,552
481,3	28552,238
481,8	28713,438
482,2	28880,552
482,7	29017,21
483,1	29157,295
483,6	29293,752
484	29408,581
484,5	29505,724
484,9	29590,324
485,4	29659,21
485,8	29730,41
486,3	29784,924
486,7	29837,638
487,2	29869,238
487,6	29920,695
488,1	29953,352
488,5	29987,067
489	29997,867
489,4	30008,152
489,9	29998,638
490,4	29996,181
490,8	29956,752
491,3	29924,581
491,7	29886,895
492,2	29853,067
492,6	29795,981
493,1	29733,838
493,5	29665,295
494	29600,638
494,4	29528,895
494,9	29447,581
495,3	29355,324
495,8	29271,781
496,2	29175,524
496,7	29076,952
497,1	28969,067
497,6	28873,667
498	28748,581
498,5	28624,152
498,9	28493,124
499,4	28353,838
499,8	28217,095
500,3	28085,295
500,7	27939,695
501,2	27803,352
501,6	27654,152
502,1	27496,21
502,5	27345,124
503	27186,952
503,4	27020,124
503,9	26842,867
504,3	26664,095
504,8	26480,781
505,2	26309,21
505,7	26134,267
506,1	25954,61
506,6	25754,324
507	25556,295
507,5	25363,752
507,9	25178,838
508,4	24984,838
508,8	24784,638
509,3	24578,41
509,7	24375,181
510,2	24172,924
510,6	23965,752
511,1	23765,095
511,5	23540,752
512	23338,181
512,4	23122,752
512,9	22927,295
513,3	22724,381
513,8	22515,61
514,2	22285,124
514,7	22075,238
515,1	21859,095
515,6	21652,095
516	21428,181
516,5	21218,781
516,9	20999,067
517,4	20799,638
517,8	20593,895
518,3	20373,267
518,7	20150,381
519,2	19939,981
519,6	19710,924
520,1	19510,01
520,5	19294,867
521	19076,038
521,4	18880,695
521,9	18690,295
522,3	18490,495
522,8	18301,21
523,2	18099,581
523,7	17893,267
524,1	17692,01
524,6	17485,295
525	17290,924
525,5	17106,867
525,9	16913,581
526,4	16723,124
526,8	16538,181
527,3	16367,01
527,7	16192,81
528,2	16003,352
528,6	15816,067
529,1	15636,981
529,5	15457,181
530	15279,067
530,4	15099,781
530,9	14925,267
531,3	14750,61
531,8	14580,838
532,2	14419,238
532,6	14246,781
533,1	14085,381
533,5	13916,524
534	13746,438
534,4	13597,638
534,9	13445,667
535,3	13283,552
535,8	13139,581
536,2	12994,152
536,7	12850,381
537,1	12710,238
537,6	12560,467
538	12413,781
538,5	12271,467
538,9	12131,781
539,4	11990,124
539,8	11851,752
540,3	11713,867
540,7	11569,152
541,2	11433,495
541,6	11304,724
542,1	11174,924
542,5	11055,695
543	10935,352
543,4	10822,981
543,9	10706,095
544,3	10587,438
544,8	10467,552
545,2	10348,581
545,7	10224,752
546,1	10118,038
546,5	9991,152
547	9890,524
547,4	9782,267
547,9	9683,038
548,3	9586,924
548,8	9483,01
549,2	9375,267
549,7	9287,667
550,1	9182,067
550,6	9092,095
551	8997,067
551,5	8898,267
551,9	8816,724
552,4	8729,552
552,8	8632,552
553,3	8547,952
553,7	8451,01
554,2	8355,038
554,6	8266,724
555,1	8183,267
555,5	8102,381
555,9	8024,61
556,4	7950,895
556,8	7871,324
557,3	7798,352
557,7	7722,752
558,2	7635,381
558,6	7556,581
559,1	7491,21
559,5	7415,952
560	7348,695
560,4	7275,695
560,9	7209,381
561,3	7148,467
561,8	7087,552
562,2	7013,295
562,7	6941,838
563,1	6871,981
563,6	6802,21
564	6740,838
564,4	6675,495
564,9	6603,095
565,3	6544,638
565,8	6491,21
566,2	6434,467
566,7	6375,867
567,1	6314,095
567,6	6257,181
568	6205,01
568,5	6148,152
568,9	6085,095
569,4	6030,41
569,8	5981,238
570,3	5927,752
570,7	5870,61
571,1	5817,124
571,6	5756,152
572	5713,467
572,5	5666,781
572,9	5623,552
573,4	5572,267
573,8	5528,552
574,3	5478,638
574,7	5440,295
575,2	5395,867
575,6	5348,838
576,1	5299,867
576,5	5254,838
576,9	5207,438
577,4	5161,638
577,8	5119,01
578,3	5060,752
578,7	5012,667
579,2	4973,638
579,6	4938,124
580,1	4902,495
580,5	4863,924
581	4823,81
581,4	4785,295
581,9	4745,467
582,3	4695,41
582,7	4648,752
583,2	4609,267
583,6	4565,467
584,1	4523,267
584,5	4491,924
585	4455,124
585,4	4421,467
585,9	4388,524
586,3	4343,095
586,8	4309,238
587,2	4276,581
587,6	4241,552
588,1	4206,81
588,5	4174,238
589	4133,838
589,4	4103,181
589,9	4076,752
590,3	4042,124
590,8	4014,238
591,2	3982,352
591,7	3948,552
592,1	3926,238
592,5	3901,381
593	3870,867
593,4	3840,552
593,9	3801,552
594,3	3773,295
594,8	3752,524
595,2	3725,095
595,7	3699,467
596,1	3672,552
596,6	3654,495
597	3637,01
597,4	3616,81
597,9	3589,467
598,3	3564,41
598,8	3531,838
599,2	3507,838
599,7	3472,295
600,1	3444,267
600,6	3422,152
601	3395,638
601,4	3370,552
601,9	3347,638
602,3	3325,124
602,8	3304,895
603,2	3290,21
603,7	3263,352
604,1	3241,124
604,6	3221,61
605	3203,152
605,4	3179,381
605,9	3162,752
606,3	3130,695
606,8	3101,667
607,2	3077,152
607,7	3053,724
608,1	3039,41
608,6	3016,41
609	2995,81
609,4	2977,181
609,9	2963,61
610,3	2946,952
610,8	2927,152
611,2	2900,524
611,7	2877,324
612,1	2850,638
612,6	2828,324
613	2808,924
613,4	2791,238
613,9	2767,352
614,3	2746,638
614,8	2731,952
615,2	2712,581
615,7	2703,352
616,1	2687,181
616,6	2661,724
617	2642,552
617,4	2621,752
617,9	2604,238
618,3	2589,267
618,8	2561,095
619,2	2543,381
619,7	2530,152
620,1	2515,324
620,5	2502,152
621	2479,267
621,4	2465,238
621,9	2449,752
622,3	2430,581
622,8	2402,21
623,2	2383,981
623,6	2358,952
624,1	2347,381
624,5	2324,067
625	2306,61
625,4	2287,695
625,9	2279,295
626,3	2264,01
626,8	2257,781
627,2	2237,752
627,6	2220,924
628,1	2204,095
628,5	2188,924
629	2173,81
629,4	2153,924
629,9	2136,838
630,3	2122,581
630,7	2106,838
631,2	2093,381
631,6	2079,238
632,1	2066,095
632,5	2052,295
633	2032,867
633,4	2013,781
633,8	1995,352
634,3	1980,895
634,7	1969,724
635,2	1956,895
635,6	1943,952
636,1	1930,695
636,5	1917,41
636,9	1910,124
637,4	1898,667
637,8	1877,695
638,3	1858,695
638,7	1845,867
639,2	1838,467
639,6	1823,752
640	1810,352
640,5	1792,924
640,9	1782,838
641,4	1772,781
641,8	1757,952
642,2	1740,095
642,7	1732,81
643,1	1719,124
643,6	1708,267
644	1700,067
644,5	1686,467
644,9	1679,152
645,3	1672,781
645,8	1662,324
646,2	1652,838
646,7	1641,01
647,1	1625,152
647,6	1615,267
648	1599,924
648,4	1585,895
648,9	1576,695
649,3	1569,181
649,8	1558,181
650,2	1548,41
650,6	1540,438
651,1	1536,21
651,5	1527,295
652	1510,524
652,4	1497,21
652,9	1493,238
653,3	1482,352
653,7	1471,01
654,2	1458,61
654,6	1451,981
655,1	1447,381
655,5	1438,638
655,9	1423,638
656,4	1419,267
656,8	1408,038
657,3	1396,438
657,7	1378,41
658,2	1367,895
658,6	1352,552
659	1338,81
659,5	1325,324
659,9	1323,667
660,4	1313,667
660,8	1307,81
661,2	1301,752
661,7	1294,352
662,1	1292,352
662,6	1278,924
663	1261,352
663,4	1254,095
663,9	1241,81
664,3	1231,124
664,8	1224,01
665,2	1208,267
665,6	1201,924
666,1	1192,067
666,5	1180,638
667	1173,152
667,4	1164,581
667,9	1155,41
668,3	1150,667
668,7	1138,61
669,2	1132,638
669,6	1129,695
670,1	1123,352
670,5	1112,467
670,9	1108,124
671,4	1099,41
671,8	1094,952
672,3	1086,838
672,7	1074,152
673,1	1065,124
673,6	1053,267
674	1042,181
674,5	1039,124
674,9	1033,238
675,3	1025,238
675,8	1020,695
676,2	1018,21
676,7	1015,695
677,1	1011,124
677,5	1002,552
678	997,752
678,4	993,124
678,9	985,238
679,3	972,01
679,7	965,724
680,2	956,438
680,6	947,895
681,1	937,61
681,5	930,838
681,9	925,181
682,4	921,952
682,8	912,752
683,3	902,81
683,7	895,781
684,1	889,638
684,6	881,181
685	870,238
685,5	861,867
685,9	856,724
686,3	855,552
686,8	850,095
687,2	844,524
687,7	838,952
688,1	839,01
688,5	828,21
689	821,61
689,4	819,752
689,9	815,981
690,3	812,581
690,7	803,781
691,2	793,01
691,6	792,067
692	785,81
692,5	775,038
692,9	764,181
693,4	754,667
693,8	750,638
694,2	738,267
694,7	732,838
695,1	728,524
695,6	721,181
696	719,667
696,4	713,952
696,9	709,324
697,3	710,038
697,8	702,895
698,2	696,981
698,6	694,924
699,1	687,867
699,5	683,438
699,9	679,381
700,4	673,467
700,8	673,124
701,3	668,924
701,7	663,181
702,1	658,467
702,6	656,667
703	647,81
703,5	647,638
703,9	639,524
704,3	637,752
704,8	633,467
705,2	628,781
705,6	617,295
706,1	616,324
706,5	609,638
707	603,667
707,4	597,667
707,8	592,524
708,3	585,381
708,7	587,067
709,2	584,152
709,6	578,895
710	573,124
710,5	566,352
710,9	562,752
711,3	559,638
711,8	553,638
712,2	549,124
712,7	548,581
713,1	548,238
713,5	542,467
714	535,124
714,4	535,267
714,8	531,524
715,3	529,781
715,7	521,752
716,2	516,295
716,6	517,21
717	512,467
717,5	506,695
717,9	500,867
718,3	494,895
718,8	490,895
719,2	488,295
719,7	483,895
720,1	479,61
720,5	477,41
721	475,038
721,4	471,095
721,8	472,552
722,3	467,867
722,7	459,067
723,2	458,124
723,6	450,981
724	449,095
724,5	441,867
724,9	431,181
725,3	427,124
725,8	426,781
726,2	423,124
726,7	419,41
727,1	411,495
727,5	411,267
728	414,581
728,4	411,095
728,8	408,467
729,3	404,524
729,7	407,495
730,1	407,41
730,6	404,067
731	399,61
731,5	401,067
731,9	403,667
732,3	403,324
732,8	397,838
733,2	393,724
733,6	394,638
734,1	392,352
734,5	382,952
734,9	377,61
735,4	376,924
735,8	371,524
736,3	373,752
736,7	371,41
737,1	369,695
737,6	368,952
738	362,981
738,4	361,067
738,9	363,81
739,3	355,724
739,7	351,038
740,2	343,352
740,6	343,381
741,1	342,41
741,5	339,838
741,9	331,067
742,4	330,495
742,8	329,238
743,2	332,238
743,7	327,838
744,1	322,381
744,5	321,295
745	322,81
745,4	323,01
745,8	319,381
746,3	320,067
746,7	321,724
747,2	324,61
747,6	322,295
748	320,467
748,5	313,952
748,9	311,924
749,3	309,495
749,8	302,895
750,2	298,41
750,6	292,438
751,1	291,552
751,5	291,781
751,9	290,181
752,4	284,181
752,8	281,867
753,3	278,21
753,7	278,752
754,1	274,552
754,6	272,095
755	267,238
755,4	268,324
755,9	265,638
756,3	263,41
756,7	256,695
757,2	257,381
757,6	256,924
758	256,924
758,5	250,152
758,9	248,752
759,3	248,981
759,8	253,581
760,2	253,238
760,6	253,01
761,1	249,724
761,5	253,724
761,9	255,152
762,4	254,267
762,8	251,438
763,3	244,838
763,7	239,638
764,1	236,181
764,6	232,267
765	229,295
765,4	231,324
765,9	224,552
766,3	228,61
766,7	228,524
767,2	230,495
767,6	225,495
768	226,381
768,5	221,352
768,9	221,267
769,3	216,838
769,8	217,095
770,2	218,152
770,6	218,838
771,1	221,552
771,5	220,01
771,9	218,981
772,4	222,21
772,8	222,895
773,2	220,838
773,7	219,095
774,1	214,981
774,5	217,152
775	214,467
775,4	210,21
775,8	206,21
776,3	204,838
776,7	208,295
777,1	209,238
777,6	205,352
778	206,752
778,4	204,752
778,9	203,324
779,3	203,41
779,7	199,238
780,2	193,781
780,6	193,324
781	195,238
781,5	196,381
781,9	195,61
782,3	191,095
782,8	189,952
783,2	184,638
783,6	181,038
784,1	179,581
784,5	172,324
784,9	172,124
785,4	170,752
785,8	166,667
786,2	169,152
786,7	167,467
787,1	164,838
787,5	167,838
788	162,524
788,4	157,752
788,8	156,781
789,3	153,61
789,7	155,552
790,1	154,981
790,6	154,181
791	156,01
791,4	159,152
791,9	158,981
792,3	158,667
792,7	154,581
793,2	147,352
793,6	146,924
794	144,695
794,5	143,81
794,9	145,495
795,3	148,181
795,8	148,21
796,2	152,924
796,6	147,838
797,1	142,067
797,5	141,381
797,9	136,81
798,4	133,838
798,8	132,438
799,2	129,81
799,7	136,01
800,1	141,552
800,5	137,41
801	135,61
801,4	128,781
801,8	131,695
802,2	131,238
802,7	128,41
803,1	126,724
803,5	132,152
804	134,552
804,4	135,352
804,8	133,752
805,3	131,952
805,7	126,067
806,1	125,524
806,6	127,581
807	123,01
807,4	123,381
807,9	121,438
808,3	119,695
808,7	123,467
809,2	121,81
809,6	116,267
810	120,638
810,4	124,724
810,9	120,467
811,3	120,895
811,7	119,524
812,2	123,038
812,6	121,381
813	119,524
813,5	116,438
813,9	120,467
814,3	117,524
814,8	117,21
815,2	108,781
815,6	105,152
816,1	106,295
816,5	103,952
816,9	102,438
817,3	103,181
817,8	99,781
818,2	99,267
818,6	100,21
819,1	98,838
819,5	100,038
819,9	93,324
820,4	91,152
820,8	87,324
821,2	93,438
821,7	93,981
822,1	90,324
822,5	90,152
822,9	94,324
823,4	97,552
823,8	104,038
824,2	98,581
824,7	97,495
825,1	98,667
825,5	101,581
826	99,61
826,4	96,581
826,8	95,124
827,3	95,267
827,7	97,695
828,1	97,438
828,5	93,81
829	94,41
829,4	101,924
829,8	95,124
830,3	94,581
830,7	90,267
831,1	89,867
831,6	87,381
832	79,695
832,4	75,295
832,8	78,781
833,3	78,924
833,7	81,924
834,1	75,867
834,6	71,981
835	79,581
835,4	78,381
835,8	76,61
836,3	74,552
836,7	64,695
837,1	66,524
837,6	67,61
838	59,638
838,4	51,695
838,9	56,438
839,3	63,41
839,7	67,467
840,1	67,438
840,6	71,838
841	69,924
841,4	71,381
841,9	64,695
842,3	60,21
842,7	61,61
843,1	62,781
843,6	60,61
844	67,41
844,4	72,924
844,9	70,067
845,3	66,352
845,7	65,295
846,2	66,438
846,6	65,267
847	62,467
847,4	60,438
847,9	61,981
848,3	64,981
848,7	63,61
849,2	62,124
849,6	62,038
850	60,867
850,4	57,352
850,9	57,41
851,3	55,181
851,7	55,81
852,2	50,381
852,6	48,295
853	53,01
853,4	57,752
853,9	53,638
854,3	53,581
854,7	51,952
855,2	55,81
855,6	55,238
856	48,752
856,4	45,924
856,9	46,781
857,3	45,61
857,7	47,867
858,2	45,438
858,6	50,61
859	51,352
859,4	51,038
859,9	51,581
860,3	51,067
860,7	50,324
861,1	52,324
861,6	46,438
862	48,752
862,4	45,924
862,9	49,924
863,3	46,638
863,7	45,867
864,1	44,381
864,6	44,152
865	42,324
865,4	44,038
865,9	42,181
866,3	48,352
866,7	46,752
867,1	48,238
867,6	44,438
868	45,124
868,4	42,267
868,8	46,638
869,3	42,552
869,7	39,152
870,1	38,438
870,6	42,352
871	49,267
871,4	46,867
871,8	44,752
872,3	47,038
872,7	47,495
873,1	48,781
873,5	49,152
874	43,267
874,4	44,667
874,8	36,695
875,3	34,267
875,7	34,267
876,1	31,01
876,5	33,095
877	31,581
877,4	33,724
877,8	38,41
878,2	34,038
878,7	38,895
879,1	37,267
879,5	37,638
879,9	36,267
880,4	32,152
880,8	28,952
881,2	34,581
881,7	30,181
882,1	30,295
882,5	26,438
882,9	25,295
883,4	31,41
883,8	33,752
884,2	30,667
884,6	30,895
885,1	32,124
885,5	35,438
885,9	39,895
886,3	36,41
886,8	34,495
887,2	33,952
887,6	32,638
888	29,924
888,5	29,038
888,9	27,838
889,3	25,552
889,8	24,638
890,2	20,495
890,6	22,181
891	21,01
891,5	19,667
891,9	16,324
892,3	17,952
892,7	18,638
893,2	23,352
893,6	19,924
894	24,41
894,4	23,695
894,9	22,524
895,3	19,238
895,7	21,01
896,1	22,695
896,6	23,01
897	19,981
897,4	13,124
897,8	17,381
898,3	24,81
898,7	23,495
899,1	19,124
899,5	19,295
900	20,695
900,4	27,61
900,8	25,81
901,2	20,095
901,7	19,295
902,1	22,467
902,5	24,352
902,9	26,095
903,4	27,438
903,8	23,838
904,2	27,724
904,6	21,924
905,1	21,152
905,5	20,21
905,9	19,324
906,3	13,724
906,8	16,638
907,2	11,01
907,6	18,924
908	16,181
908,5	18,067
908,9	12,067
909,3	12,295
909,7	9,267
910,2	10,067
910,6	11,067
911	14,667
911,4	11,838
911,9	16,638
912,3	20,067
912,7	24,152
913,1	20,981
913,6	20,295
914	16,924
914,4	15,638
914,8	16,124
915,3	10,152
915,7	4,352
916,1	6,61
916,5	2,21
916,9	4,324
917,4	9,152
917,8	5,01
918,2	9,495
918,6	13,524
919,1	16,81
919,5	20,61
919,9	20,438
920,3	16,867
920,8	16,895
921,2	19,01
921,6	15,638
922	10,924
922,5	8,124
922,9	5,324
923,3	11,267
923,7	9,867
924,2	5,038
924,6	5,067
925	7,638
925,4	8,81
925,8	7,124
926,3	4,381
926,7	8,724
927,1	9,095
927,5	11,667
928	12,381
928,4	13,438
928,8	21,495
929,2	18,695
929,7	13,695
930,1	13,295
930,5	10,067
930,9	10,724
931,3	12,381
931,8	6,438
932,2	6,21
932,6	13,295
933	13,067
933,5	13,752
933,9	10,381
934,3	3,724
934,7	4,581
935,2	8,552
935,6	4,267
936	2,838
936,4	8,981
936,8	11,438
937,3	16,238
937,7	16,552
938,1	11,238
938,5	13,552
939	14,552
939,4	9,667
939,8	7,352
940,2	3,695
940,6	4,924
941,1	9,667
941,5	10,038
941,9	12,724
942,3	11,152
942,8	13,038
943,2	14,667
943,6	17,838
944	13,752
944,4	8,552
944,9	5,924
945,3	10,524
945,7	9,81
946,1	9,124
946,6	3,552
947	7,152
947,4	7,81
947,8	10,352
948,2	7,467
948,7	9,067
949,1	10,61
949,5	9,238
949,9	10,438
950,3	15,352
950,8	14,981
951,2	14,381
951,6	16,267
952	15,238
952,5	12,61
952,9	9,981
953,3	5,895
953,7	3,667
954,1	6,467
954,6	3,724
955	1,438
955,4	6,295
955,8	9,667
956,2	6,152
956,7	10,581
957,1	6,724
957,5	6,495
957,9	8,267
958,3	7,038
958,8	4,61
959,2	7,924
959,6	8,467
960	12,381
960,5	9,524
960,9	10,524
961,3	12,324
961,7	7,61
962,1	9,438
962,6	5,524
963	0,981
963,4	4,61
963,8	5,781
964,2	1,295
964,7	0,152
965,1	1,238
965,5	-0,676
965,9	4,352
966,3	-0,79
966,8	-5,819
967,2	0,267
967,6	2,352
968	0,781
968,4	6,952
968,9	9,038
969,3	10,667
969,7	12,038
970,1	8,038
970,5	10,667
971	5,638
971,4	4,81
971,8	3,752
972,2	6,238
972,6	3,867
973,1	6,295
973,5	3,324
973,9	6,524
974,3	2,01
974,7	-3,076
975,2	-4,105
975,6	-6,762
976	-3,705
976,4	-3,476
976,8	-1,905
977,3	-3,162
977,7	-2,505
978,1	-4,305
978,5	-1,419
978,9	-6,676
979,4	-5,362
979,8	-6,419
980,2	-6,39
980,6	-4,248
981	-1,133
981,5	1,438
981,9	-1,648
982,3	-1,733
982,7	-1,133
983,1	1,352
983,6	1,067
984	-0,505
984,4	-1,99
984,8	2,438
985,2	2,124
985,6	1,781
986,1	2,324
986,5	-2,219
986,9	2,01
987,3	-0,305
987,7	0,41
988,2	1,895
988,6	1,495
989	1,267
989,4	5,438
989,8	-1,105
990,3	3,295
990,7	0,524
991,1	-3,79
991,5	-2,648
991,9	2,667
992,3	0,295
992,8	9,695
993,2	15,238
993,6	18,352
994	17,381
994,4	17,952
994,9	16,581
995,3	20,495
995,7	17,21
996,1	8,581
996,5	4,981
996,9	7,524
997,4	7,238
997,8	5,867
998,2	5,181
998,6	1,038
999	4,152
999,5	7,438
999,9	7,667
1000,3	11,267
1000,7	4,867
1001,1	-2,476
1001,5	-2,848
1002	-5,619
1002,4	-9,933
1002,8	-9,219
1003,2	-11,219
1003,6	-2,933
1004	2,495
1004,5	2,61
1004,9	4,21
1005,3	8,067
1005,7	8,238
1006,1	5,981
1006,6	1,381
1007	1,867
1007,4	4,152
1007,8	4,867
1008,2	4,095
1008,6	2,924
1009,1	3,752
1009,5	10,41
1009,9	13,267
1010,3	16,352
1010,7	20,381
1011,1	22,867
1011,6	24,552
1012	22,867
1012,4	22,695
1012,8	12,695
1013,2	10,581
1013,6	6,295
1014,1	5,638
1014,5	5,924
1014,9	7,152
1015,3	-1,505
1015,7	4,581
1016,1	2,238
1016,6	6,524
1017	4,581
1017,4	3,438
1017,8	1,524
1018,2	2,01
1018,6	0,981
1019,1	-0,505
1019,5	-0,59
1019,9	3,181
1020,3	2,781
1020,7	2,467
1021,1	7,095
1021,6	5,838
1022	5,095
1022,4	8,381
1022,8	3,667
1023,2	3,724
1023,6	5,981
1024,1	5,695
1024,5	10,952
1024,9	19,21
1025,3	14,21
1025,7	23,067
1026,1	24,667
1026,6	27,095
1027	21,381
1027,4	17,667
1027,8	8,752
1028,2	6,752
1028,6	0,924
1029	0,638
1029,5	0,467
1029,9	4,038
1030,3	6,238
1030,7	8,581
1031,1	7,181
1031,5	1,695
1032	2,381
1032,4	-4,705
1032,8	-4,019
1033,2	-5,476
1033,6	-1,505
1034	-0,676
1034,4	8,238
1034,9	-0,019
1035,3	8,181
1035,7	10,181
1036,1	10,238
1036,5	7,752
1036,9	4,752
1037,4	0,038
1037,8	5,124
1038,2	0,981
1038,6	-3,162
1039	-2,648
1039,4	-3,305
1039,8	4,238
1040,3	2,724
1040,7	-0,99
1041,1	-0,105
1041,5	-0,505
1041,9	-0,876
1042,3	1,41
1042,7	-1,933
1043,2	1,524
1043,6	13,581
1044	12,152
1044,4	11,867
1044,8	7,752
1045,2	9,638
1045,6	10,267
1046,1	11,124
1046,5	6,124
1046,9	8,81
1047,3	11,838
1047,7	13,867
1048,1	8,924
1048,5	6,61
1049	5,01
1049,4	5,181
1049,8	6,067
1050,2	6,181
1050,6	10,238
1051	14,752
1051,4	18,095
1051,9	19,81
1052,3	17,181
1052,7	14,752
1053,1	15,781
1053,5	14,838
1053,9	7,01
1054,3	3,038
1054,8	7,467
1055,2	10,61
1055,6	9,41
1056	7,667
1056,4	9,838
1056,8	15,21
1057,2	15,238
1057,6	9,038
1058,1	6,724
1058,5	5,524
1058,9	8,067
1059,3	8,124
1059,7	0,267
1060,1	1,095
1060,5	-4,819
1061	-6,99
1061,4	-1,19
1061,8	-6,762
1062,2	-10,962
1062,6	-5,905
1063	-8,162
1063,4	-0,362
1063,8	1,838
1064,3	-2,333
1064,7	-0,876
1065,1	1,438
1065,5	5,01
1065,9	5,61
1066,3	0,038
1066,7	-1,762
1067,1	-0,133
1067,6	1,952
1068	-5,162
1068,4	-5,276
1068,8	0,181
1069,2	-1,59
1069,6	1,124
1070	-1,99
1070,4	-1,476
1070,9	5,381
1071,3	7,467
1071,7	6,152
1072,1	15,61
1072,5	16,41
1072,9	23,352
1073,3	21,352
1073,7	22,438
1074,2	22,867
1074,6	22,038
1075	17,524
1075,4	17,81
1075,8	11,952
1076,2	10,867
1076,6	8,895
1077	0,952
1077,5	-1,476
1077,9	-0,962
1078,3	-3,362
1078,7	-3,476
1079,1	-0,562
1079,5	-6,276
1079,9	0,181
1080,3	2,038
1080,7	4,724
1081,2	5,981
1081,6	10,61
1082	7,41
1082,4	13,124
1082,8	10,267
1083,2	5,552
1083,6	1,524
1084	-3,048
1084,5	-9,59
1084,9	-12,276
1085,3	-9,762
1085,7	-14,848
1086,1	-13,019
1086,5	-7,162
1086,9	-3,705
1087,3	2,095
1087,7	12,924
1088,2	7,438
1088,6	9,895
1089	8,952
1089,4	1,552
1089,8	5,038
1090,2	1,752
1090,6	-5,362
1091	0,381
1091,4	6,324
1091,9	9,981
1092,3	14,552
1092,7	6,895
1093,1	4,581
1093,5	2,038
1093,9	2,152
1094,3	-0,99
1094,7	1,352
1095,1	-5,048
1095,5	1,01
1096	1,01
1096,4	6,038
1096,8	0,267
1097,2	0,667
1097,6	-2,505
1098	-0,333
1098,4	-1,162
1098,8	2,495
1099,2	-1,448
1099,6	3,181
1100,1	4,238
1100,5	4,524
1100,9	2,952
1101,3	3,638
1101,7	5,981
1102,1	11,01
1102,5	10,724
1102,9	8,81
1103,3	3,981
1103,7	7,895
1104,2	8,181
1104,6	6,495
1105	6,438
1105,4	5,952
1105,8	6,438
1106,2	10,895
1106,6	8,038
1107	6,238
1107,4	4,833
1107,8	1,187
1108,3	-0,383
