Data from Subt2_285.txt Node
Date: Sat Aug 26 19:07:18 MSK 2023
User: vat
Spectrometer: MAYP114033
Trigger mode: 0
Integration Time (sec): 1,000000E0
Scans to average: 5
Electric dark correction enabled: true
Nonlinearity correction enabled: false
Boxcar width: 3
XAxis mode: Wavelengths
Number of Pixels in Spectrum: 2068
>>>>>Begin Spectral Data<<<<<
199,4	-0,233
199,9	2,187
200,4	0,767
200,8	3,495
201,3	1,952
201,8	4,952
202,2	3,438
202,7	6,81
203,2	6,581
203,6	7,067
204,1	5,181
204,6	4,524
205	4,838
205,5	4,067
206	3,124
206,4	3,81
206,9	3,838
207,4	5,581
207,8	5,667
208,3	4,867
208,8	7,781
209,2	10,41
209,7	9,238
210,2	11,238
210,6	7,781
211,1	10,581
211,5	6,981
212	6,21
212,5	0,752
212,9	-0,819
213,4	-0,362
213,9	-1,819
214,3	-1,419
214,8	3,124
215,3	4,581
215,7	9,467
216,2	12,667
216,7	13,21
217,1	14,324
217,6	17,038
218,1	15,038
218,5	12,581
219	4,667
219,5	4,581
219,9	0,781
220,4	9,381
220,9	8,924
221,3	5,667
221,8	7,638
222,3	13,867
222,7	14,067
223,2	16,381
223,6	9,467
224,1	1,867
224,6	8,41
225	6,324
225,5	5,381
226	3,952
226,4	4,152
226,9	5,238
227,4	10,752
227,8	1,41
228,3	-0,933
228,8	-1,933
229,2	-0,362
229,7	-0,219
230,2	2,581
230,6	6,467
231,1	17,21
231,5	23,438
232	23,067
232,5	19,495
232,9	19,095
233,4	20,01
233,9	13,581
234,3	9,181
234,8	8,752
235,3	8,581
235,7	9,895
236,2	10,552
236,7	6,21
237,1	11,267
237,6	7,324
238,1	6,324
238,5	0,21
239	1,724
239,4	5,895
239,9	4,181
240,4	0,638
240,8	3,924
241,3	2,552
241,8	7,181
242,2	7,01
242,7	0,495
243,2	5,381
243,6	6,124
244,1	10,352
244,6	14,324
245	13,638
245,5	13,381
245,9	12,981
246,4	8,61
246,9	11,638
247,3	6,21
247,8	7,21
248,3	12,895
248,7	10,838
249,2	15,695
249,7	13,81
250,1	16,095
250,6	16,752
251	13,838
251,5	11,752
252	12,581
252,4	11,581
252,9	13,524
253,4	4,752
253,8	5,695
254,3	5,724
254,8	7,038
255,2	6,981
255,7	2,952
256,1	5,01
256,6	11,867
257,1	12,124
257,5	8,838
258	7,581
258,5	10,067
258,9	11,152
259,4	13,352
259,9	8,095
260,3	2,781
260,8	2,467
261,2	1,352
261,7	0,238
262,2	-0,619
262,6	-5,333
263,1	0,181
263,6	6,924
264	13,41
264,5	14,238
264,9	14,095
265,4	17,352
265,9	18,61
266,3	16,752
266,8	15,667
267,3	10,038
267,7	7,324
268,2	8,038
268,7	5,867
269,1	3,438
269,6	1,981
270	5,924
270,5	5,895
271	6,867
271,4	6,067
271,9	3,952
272,4	10,267
272,8	9,038
273,3	1,238
273,7	2,667
274,2	2,067
274,7	1,067
275,1	3,952
275,6	1,152
276,1	-2,762
276,5	1,467
277	3,41
277,4	4,267
277,9	5,952
278,4	8,638
278,8	11,381
279,3	19,61
279,8	19,695
280,2	19,324
280,7	23,238
281,1	22,895
281,6	22,352
282,1	17,495
282,5	16,01
283	13,067
283,4	12,924
283,9	12,267
284,4	13,381
284,8	8,124
285,3	7,781
285,8	8,295
286,2	10,581
286,7	9,695
287,1	5,924
287,6	2,61
288,1	4,667
288,5	8,181
289	4,295
289,5	8,524
289,9	5,61
290,4	10,438
290,8	12,724
291,3	13,238
291,8	16,581
292,2	15,724
292,7	10,752
293,1	10,267
293,6	9,352
294,1	8,095
294,5	8,524
295	4,781
295,5	3,838
295,9	6,81
296,4	7,667
296,8	4,181
297,3	4,467
297,8	0,467
298,2	-3,305
298,7	2,095
299,1	-1,705
299,6	-3,419
300,1	-2,933
300,5	-1,39
301	4,667
301,5	7,467
301,9	5,324
302,4	6,41
302,8	11,524
303,3	14,552
303,8	10,724
304,2	11,038
304,7	14,267
305,1	9,81
305,6	11,924
306,1	16,495
306,5	18,895
307	24,838
307,4	23,838
307,9	19,067
308,4	22,781
308,8	15,21
309,3	7,21
309,8	-0,276
310,2	-2,562
310,7	-5,905
311,1	-5,648
311,6	-4,019
312,1	1,467
312,5	2,981
313	7,81
313,4	8,438
313,9	12,41
314,4	13,81
314,8	10,067
315,3	8,838
315,7	1,581
316,2	-1,276
316,7	-1,733
317,1	-0,105
317,6	-1,99
318	4,667
318,5	4,81
319	10,581
319,4	15,295
319,9	15,924
320,3	16,124
320,8	19,21
321,3	16,61
321,7	20,41
322,2	23,752
322,6	22,838
323,1	17,981
323,6	13,838
324	12,238
324,5	10,181
324,9	9,21
325,4	6,695
325,9	6,295
326,3	14,352
326,8	16,952
327,2	15,781
327,7	17,581
328,2	14,181
328,6	16,124
329,1	9,867
329,5	6,667
330	2,924
330,5	6,981
330,9	6,524
331,4	10,067
331,8	10,295
332,3	15,381
332,8	16,724
333,2	17,467
333,7	14,438
334,1	15,152
334,6	10,41
335,1	4,238
335,5	5,667
336	-0,505
336,4	-0,362
336,9	4,21
337,4	5,324
337,8	10,295
338,3	16,724
338,7	16,124
339,2	17,895
339,7	19,524
340,1	12,695
340,6	10,295
341	7,752
341,5	5,095
342	4,381
342,4	2,581
342,9	-0,648
343,3	-1,705
343,8	-3,59
344,2	-3,076
344,7	-0,362
345,2	-0,562
345,6	0,61
346,1	8,124
346,5	12,152
347	13,324
347,5	10,667
347,9	15,238
348,4	15,095
348,8	16,352
349,3	9,552
349,8	10,924
350,2	15,924
350,7	16,667
351,1	11,352
351,6	15,867
352	21,381
352,5	27,981
353	32,781
353,4	34,381
353,9	42,295
354,3	49,924
354,8	50,438
355,3	61,038
355,7	70,495
356,2	82,867
356,6	101,467
357,1	120,838
357,5	142,581
358	170,867
358,5	192,581
358,9	222,752
359,4	253,41
359,8	286,495
360,3	326,867
360,8	369,238
361,2	416,181
361,7	476,324
362,1	539,067
362,6	608,038
363	677,695
363,5	755,981
364	842,124
364,4	926,467
364,9	1008,238
365,3	1091,381
365,8	1168,581
366,3	1248,267
366,7	1307,095
367,2	1365,295
367,6	1409,724
368,1	1448,581
368,5	1468,21
369	1480,61
369,5	1481,238
369,9	1477,552
370,4	1452,924
370,8	1426,638
371,3	1383,495
371,7	1336,467
372,2	1276,124
372,7	1211,038
373,1	1147,095
373,6	1079,124
374	1012,552
374,5	944,781
374,9	881,895
375,4	821,781
375,9	762,952
376,3	698,581
376,8	643,067
377,2	589,867
377,7	539,952
378,2	495,638
378,6	456,095
379,1	417,295
379,5	391,267
380	363,61
380,4	332,61
380,9	305,724
381,4	276,867
381,8	256,01
382,3	238,838
382,7	216,352
383,2	203,181
383,6	192,924
384,1	184,41
384,6	175,181
385	165,267
385,5	152,752
385,9	143,981
386,4	133,267
386,8	124,21
387,3	112,781
387,7	106,238
388,2	100,152
388,7	93,467
389,1	90,267
389,6	84,752
390	80,295
390,5	79,695
390,9	79,095
391,4	77,181
391,9	76,867
392,3	74,895
392,8	69,467
393,2	62,495
393,7	57,01
394,1	51,152
394,6	47,638
395,1	46,581
395,5	38,981
396	39,124
396,4	40,41
396,9	38,695
397,3	40,867
397,8	39,467
398,2	36,524
398,7	40,724
399,2	39,695
399,6	41,924
400,1	42,724
400,5	38,124
401	37,467
401,4	34,552
401,9	36,124
402,4	36,581
402,8	27,781
403,3	30,01
403,7	29,067
404,2	28,952
404,6	31,695
405,1	27,924
405,5	24,152
406	30,124
406,5	24,181
406,9	27,295
407,4	26,181
407,8	24,867
408,3	29,952
408,7	31,981
409,2	36,01
409,6	41,095
410,1	41,324
410,6	45,895
411	49,324
411,5	45,667
411,9	51,238
412,4	50,724
412,8	52,724
413,3	50,038
413,7	48,01
414,2	48,581
414,7	57,581
415,1	58,095
415,6	62,581
416	70,524
416,5	74,81
416,9	74,41
417,4	75,638
417,8	78,381
418,3	81,267
418,8	79,752
419,2	76,152
419,7	81,124
420,1	86,495
420,6	91,41
421	85,695
421,5	83,267
421,9	84,495
422,4	83,981
422,8	83,324
423,3	82,924
423,8	77,981
424,2	77,152
424,7	73,724
425,1	70,981
425,6	72,81
426	68,838
426,5	68,924
426,9	71,524
427,4	71,41
427,9	68,781
428,3	69,781
428,8	64,524
429,2	64,324
429,7	59,781
430,1	54,095
430,6	52,438
431	54,867
431,5	52,038
431,9	51,41
432,4	52,752
432,8	56,267
433,3	57,552
433,8	53,724
434,2	52,038
434,7	53,924
435,1	52,21
435,6	50,695
436	46,267
436,5	47,524
436,9	44,181
437,4	44,467
437,8	45,21
438,3	44,667
438,8	43,781
439,2	44,781
439,7	46,01
440,1	49,924
440,6	54,038
441	50,524
441,5	53,095
441,9	56,324
442,4	51,381
442,8	50,381
443,3	53,638
443,7	55,838
444,2	58,781
444,7	59,067
445,1	58,552
445,6	64,495
446	69,295
446,5	68,781
446,9	60,438
447,4	61,438
447,8	65,01
448,3	67,695
448,7	72,01
449,2	71,724
449,6	76,295
450,1	82,638
450,6	89,21
451	91,095
451,5	91,352
451,9	96,838
452,4	102,21
452,8	101,552
453,3	106,781
453,7	102,495
454,2	104,467
454,6	110,41
455,1	110,695
455,5	106,81
456	116,095
456,4	115,467
456,9	125,124
457,3	131,038
457,8	129,752
458,3	134,295
458,7	139,724
459,2	140,495
459,6	146,524
460,1	149,01
460,5	148,524
461	158,095
461,4	156,124
461,9	162,495
462,3	169,067
462,8	171,495
463,2	173,638
463,7	180,952
464,1	186,41
464,6	197,438
465	202,438
465,5	202,667
466	212,695
466,4	220,324
466,9	226,238
467,3	230,267
467,8	233,21
468,2	241,838
468,7	250,381
469,1	257,181
469,6	261,267
470	265,752
470,5	272,295
470,9	277,952
471,4	276,238
471,8	283,781
472,3	291,552
472,7	301,438
473,2	307,267
473,6	311,581
474,1	321,724
474,5	330,552
475	335,895
475,4	339,467
475,9	344,524
476,4	353,724
476,8	363,552
477,3	368,867
477,7	380,924
478,2	386,381
478,6	390,495
479,1	394,352
479,5	398,21
480	401,267
480,4	410,095
480,9	414,524
481,3	420,238
481,8	428,038
482,2	426,038
482,7	429,581
483,1	433,467
483,6	433,381
484	433,124
484,5	440,295
484,9	443,495
485,4	457,981
485,8	461,238
486,3	468,552
486,7	477,695
487,2	487,181
487,6	492,495
488,1	494,352
488,5	493,038
489	502,238
489,4	506,21
489,9	506,724
490,4	510,381
490,8	510,638
491,3	518,724
491,7	524,324
492,2	526,381
492,6	530,152
493,1	532,067
493,5	529,381
494	528,952
494,4	528,895
494,9	531,895
495,3	537,267
495,8	535,324
496,2	540,752
496,7	540,752
497,1	546,895
497,6	548,381
498	548,695
498,5	547,695
498,9	548,267
499,4	545,724
499,8	560,867
500,3	566,152
500,7	565,067
501,2	567,981
501,6	567,01
502,1	573,61
502,5	580,724
503	574,067
503,4	574,067
503,9	578,924
504,3	583,381
504,8	590,695
505,2	588,552
505,7	587,352
506,1	593,724
506,6	590,981
507	592,61
507,5	597,752
507,9	596,467
508,4	600,724
508,8	600,124
509,3	597,038
509,7	598,781
510,2	603,381
510,6	598,038
511,1	601,01
511,5	604,01
512	611,295
512,4	617,724
512,9	620,038
513,3	625,867
513,8	631,238
514,2	637,152
514,7	643,067
515,1	644,095
515,6	646,067
516	647,152
516,5	649,524
516,9	655,724
517,4	654,238
517,8	657,781
518,3	662,095
518,7	661,752
519,2	668,581
519,6	668,41
520,1	666,21
520,5	671,067
521	666,295
521,4	670,895
521,9	679,324
522,3	682,638
522,8	684,21
523,2	693,524
523,7	697,095
524,1	707,01
524,6	707,524
525	705,667
525,5	706,21
525,9	711,238
526,4	708,181
526,8	712,238
527,3	714,724
527,7	720,524
528,2	728,152
528,6	732,581
529,1	734,781
529,5	738,724
530	739,438
530,4	741,152
530,9	742,61
531,3	742,467
531,8	747,895
532,2	751,981
532,6	758,724
533,1	761,695
533,5	764,21
534	763,867
534,4	765,467
534,9	769,724
535,3	771,924
535,8	774,867
536,2	779,495
536,7	783,667
537,1	792,381
537,6	801,467
538	802,581
538,5	812,352
538,9	812,552
539,4	817,038
539,8	821,124
540,3	823,01
540,7	822,324
541,2	826,724
541,6	828,895
542,1	835,752
542,5	839,438
543	843,495
543,4	841,038
543,9	845,181
544,3	853,067
544,8	851,152
545,2	851,752
545,7	858,295
546,1	863,295
546,5	877,838
547	883,81
547,4	887,724
547,9	890,01
548,3	899,41
548,8	900,81
549,2	894,667
549,7	891,581
550,1	896,324
550,6	894,238
551	898,467
551,5	897,81
551,9	898,352
552,4	909,552
552,8	915,838
553,3	917,781
553,7	920,152
554,2	926,181
554,6	929,552
555,1	935,981
555,5	933,724
555,9	934,524
556,4	935,524
556,8	939,181
557,3	943,524
557,7	949,867
558,2	949,324
558,6	957,952
559,1	959,095
559,5	961,838
560	964,295
560,4	965,41
560,9	964,124
561,3	967,41
561,8	965,638
562,2	973,267
562,7	974,41
563,1	981,61
563,6	982,467
564	984,667
564,4	987,21
564,9	991,467
565,3	991,81
565,8	997,952
566,2	999,324
566,7	1005,038
567,1	1011,581
567,6	1014,067
568	1014,124
568,5	1013,695
568,9	1008,295
569,4	1008,781
569,8	1006,695
570,3	999,038
570,7	995,495
571,1	1000,152
571,6	1000,067
572	1005,295
572,5	1005,524
572,9	1008,067
573,4	1012,352
573,8	1017,295
574,3	1012,438
574,7	1010,981
575,2	1005,495
575,6	1000,895
576,1	999,867
576,5	1004,467
576,9	999,381
577,4	1000,238
577,8	1002,238
578,3	1005,495
578,7	1006,638
579,2	1010,01
579,6	1000,867
580,1	1004,038
580,5	1004,952
581	1009,695
581,4	1010,41
581,9	1010,581
582,3	1005,952
582,7	1012,581
583,2	1013,752
583,6	1013,581
584,1	1010,924
584,5	1013,181
585	1014,381
585,4	1006,981
585,9	1005,438
586,3	1007,238
586,8	1008,638
587,2	1006,324
587,6	1009,81
588,1	1010,41
588,5	1013,81
589	1012,181
589,4	1005,667
589,9	1002,467
590,3	1003,267
590,8	996,752
591,2	997,724
591,7	1002,295
592,1	1001,295
592,5	1006,552
593	1008,552
593,4	1005,352
593,9	1001,352
594,3	995,838
594,8	989,181
595,2	989,381
595,7	983,467
596,1	979,695
596,6	980,524
597	978,752
597,4	977,267
597,9	975,038
598,3	974,067
598,8	972,952
599,2	967,352
599,7	962,352
600,1	960,495
600,6	958,21
601	961,352
601,4	966,21
601,9	965,181
602,3	966,324
602,8	966,61
603,2	964,695
603,7	963,467
604,1	960,638
604,6	948,81
605	944,781
605,4	945,638
605,9	940,067
606,3	935,752
606,8	927,952
607,2	924,467
607,7	918,781
608,1	917,838
608,6	917,124
609	917,695
609,4	918,838
609,9	919,867
610,3	916,81
610,8	914,838
611,2	910,181
611,7	903,495
612,1	901,295
612,6	901,381
613	902,838
613,4	899,724
613,9	900,295
614,3	896,181
614,8	894,724
615,2	887,067
615,7	879,41
616,1	877,495
616,6	871,267
617	864,324
617,4	863,01
617,9	858,581
618,3	858,01
618,8	861,467
619,2	856,581
619,7	858,724
620,1	854,552
620,5	855,067
621	852,895
621,4	851,238
621,9	846,695
622,3	841,267
622,8	828,267
623,2	828,781
623,6	821,867
624,1	816,552
624,5	813,952
625	809,01
625,4	803,324
625,9	804,838
626,3	801,095
626,8	796,581
627,2	799,495
627,6	786,924
628,1	781,124
628,5	781,667
629	779,181
629,4	771,181
629,9	769,638
630,3	754,438
630,7	750,781
631,2	746,238
631,6	741,638
632,1	735,838
632,5	737,21
633	731,124
633,4	732,638
633,8	736,21
634,3	735,867
634,7	728,152
635,2	723,381
635,6	719,638
636,1	715,524
636,5	707,181
636,9	697,667
637,4	690,667
637,8	684,41
638,3	680,752
638,7	671,924
639,2	667,981
639,6	672,038
640	666,267
640,5	659,324
640,9	660,295
641,4	659,752
641,8	660,552
642,2	658,61
642,7	657,781
643,1	664,552
643,6	664,324
644	666,267
644,5	667,724
644,9	664,124
645,3	657,838
645,8	647,924
646,2	642,752
646,7	642,267
647,1	633,61
647,6	628,895
648	626,695
648,4	626,867
648,9	624,895
649,3	617,01
649,8	614,524
650,2	611,095
650,6	608,067
651,1	604,495
651,5	604,352
652	601,752
652,4	599,667
652,9	597,981
653,3	594,01
653,7	587,038
654,2	583,724
654,6	574,41
655,1	577,495
655,5	583,438
655,9	581,781
656,4	581,81
656,8	579,81
657,3	581,867
657,7	581,895
658,2	570,295
658,6	557,61
659	548,381
659,5	542,952
659,9	539,41
660,4	532,81
660,8	529,124
661,2	528,295
661,7	531,095
662,1	528,724
662,6	528,352
663	528,724
663,4	523,752
663,9	521,524
664,3	517,095
664,8	506,267
665,2	501,267
665,6	495,438
666,1	491,781
666,5	488,352
667	483,952
667,4	477,667
667,9	477,038
668,3	475,724
668,7	470,095
669,2	471,924
669,6	469,867
670,1	466,724
670,5	466,152
670,9	466,152
671,4	463,952
671,8	465,61
672,3	460,238
672,7	459,495
673,1	453,552
673,6	451,01
674	450,352
674,5	450,695
674,9	445,267
675,3	436,695
675,8	433,724
676,2	434,095
676,7	430,924
677,1	424,352
677,5	419,467
678	420,238
678,4	421,838
678,9	420,952
679,3	419,61
679,7	419,267
680,2	414,581
680,6	407,667
681,1	401,838
681,5	401,61
681,9	396,781
682,4	395,067
682,8	394,781
683,3	397,524
683,7	398,952
684,1	398,095
684,6	392,552
685	388,238
685,5	383,981
685,9	376,61
686,3	370,324
686,8	369,695
687,2	367,352
687,7	361,867
688,1	356,352
688,5	356,638
689	358,581
689,4	358,467
689,9	353,067
690,3	351,124
690,7	350,21
691,2	353,695
691,6	354,238
692	350,467
692,5	352,467
692,9	353,095
693,4	349,124
693,8	352,295
694,2	348,952
694,7	341,152
695,1	337,381
695,6	331,467
696	330,152
696,4	329,067
696,9	321,41
697,3	320,181
697,8	319,181
698,2	317,724
698,6	317,352
699,1	312,81
699,5	313,638
699,9	312,895
700,4	306,781
700,8	304,581
701,3	306,438
701,7	298,952
702,1	300,124
702,6	294,124
703	294,01
703,5	292,01
703,9	292,01
704,3	289,381
704,8	291,095
705,2	283,867
705,6	284,41
706,1	279,352
706,5	277,238
707	275,324
707,4	272,952
707,8	265,81
708,3	267,038
708,7	264,067
709,2	264,581
709,6	267,495
710	272,181
710,5	268,952
710,9	273,41
711,3	271,924
711,8	271,181
712,2	269,524
712,7	265,352
713,1	255,124
713,5	254,124
714	256,238
714,4	251,238
714,8	252,981
715,3	246,667
715,7	248,61
716,2	249,238
716,6	247,867
717	236,638
717,5	237,324
717,9	241,038
718,3	240,01
718,8	236,238
719,2	234,895
719,7	232,81
720,1	240,124
720,5	239,695
721	231,295
721,4	234,352
721,8	234,695
722,3	231,267
722,7	230,781
723,2	222,295
723,6	216,981
724	209,952
724,5	204,467
724,9	200,952
725,3	198,524
725,8	200,267
726,2	202,038
726,7	202,238
727,1	206,781
727,5	209,524
728	205,438
728,4	204,295
728,8	199,61
729,3	197,524
729,7	196,952
730,1	197,267
730,6	194,324
731	198,41
731,5	199,038
731,9	198,124
732,3	197,01
732,8	198,467
733,2	192,41
733,6	189,352
734,1	186,152
734,5	184,495
734,9	185,438
735,4	183,895
735,8	178,981
736,3	181,324
736,7	182,438
737,1	183,095
737,6	182,267
738	177,724
738,4	174,638
738,9	178,381
739,3	176,124
739,7	178,581
740,2	176,352
740,6	180,667
741,1	181,095
741,5	181,038
741,9	178,352
742,4	179,352
742,8	175,552
743,2	175,152
743,7	164,21
744,1	158,981
744,5	161,381
745	158,124
745,4	152,41
745,8	150,352
746,3	146,838
746,7	148,695
747,2	150,095
747,6	147,438
748	153,924
748,5	161,552
748,9	158,524
749,3	159,067
749,8	161,238
750,2	159,61
750,6	159,81
751,1	154,152
751,5	146,867
751,9	149,095
752,4	148,867
752,8	145,41
753,3	144,381
753,7	144,267
754,1	142,495
754,6	139,981
755	139,552
755,4	138,495
755,9	137,495
756,3	138,238
756,7	135,81
757,2	138,952
757,6	140,838
758	141,295
758,5	136,952
758,9	135,61
759,3	138,667
759,8	141,924
760,2	135,267
760,6	133,21
761,1	130,267
761,5	130,41
761,9	133,152
762,4	124,638
762,8	122,524
763,3	124,381
763,7	125,61
764,1	127,21
764,6	130,352
765	132,238
765,4	135,352
765,9	131,724
766,3	134,552
766,7	133,552
767,2	129,638
767,6	128,295
768	121,981
768,5	120,067
768,9	121,01
769,3	114,067
769,8	111,467
770,2	112,295
770,6	109,581
771,1	115,524
771,5	120,038
771,9	118,752
772,4	119,352
772,8	121,581
773,2	122,095
773,7	120,752
774,1	115,838
774,5	105,552
775	100,324
775,4	102,838
775,8	99,552
776,3	98,21
776,7	97,924
777,1	96,181
777,6	105,952
778	109,752
778,4	103,895
778,9	101,552
779,3	100,61
779,7	99,581
780,2	101,695
780,6	98,752
781	96,552
781,5	93,695
781,9	97,21
782,3	93,095
782,8	95,095
783,2	90,095
783,6	90,352
784,1	89,695
784,5	92,838
784,9	93,638
785,4	100,152
785,8	101,095
786,2	106,667
786,7	100,924
787,1	96,124
787,5	96,21
788	89,924
788,4	84,838
788,8	79,724
789,3	73,981
789,7	80,181
790,1	84,81
790,6	86,095
791	83,41
791,4	89,124
791,9	89,438
792,3	88,124
792,7	85,238
793,2	79,01
793,6	74,238
794	78,924
794,5	71,41
794,9	75,095
795,3	81,781
795,8	80,695
796,2	88,01
796,6	88,581
797,1	85,695
797,5	88,752
797,9	84,21
798,4	79,467
798,8	76,867
799,2	73,724
799,7	80,638
800,1	81,781
800,5	79,152
801	77,267
801,4	74,952
801,8	76,895
802,2	78,324
802,7	70,552
803,1	69,724
803,5	70,724
804	69,981
804,4	72,324
804,8	70,752
805,3	71,895
805,7	73,381
806,1	71,895
806,6	70,152
807	73,552
807,4	73,867
807,9	70,295
808,3	66,524
808,7	66,924
809,2	73,524
809,6	75,724
810	71,952
810,4	70,524
810,9	71,152
811,3	70,752
811,7	72,038
812,2	72,867
812,6	69,81
813	74,81
813,5	74,41
813,9	75,752
814,3	76,61
814,8	70,095
815,2	60,895
815,6	58,438
816,1	59,61
816,5	58,238
816,9	58,867
817,3	59,581
817,8	64,467
818,2	66,924
818,6	65,267
819,1	61,038
819,5	57,61
819,9	58,895
820,4	54,724
820,8	52,21
821,2	45,467
821,7	48,581
822,1	51,924
822,5	56,438
822,9	55,352
823,4	54,752
823,8	57,952
824,2	63,41
824,7	61,295
825,1	51,981
825,5	46,01
826	42,81
826,4	45,438
826,8	41,781
827,3	43,895
827,7	41,324
828,1	44,21
828,5	47,181
829	46,695
829,4	42,438
829,8	39,352
830,3	37,467
830,7	39,038
831,1	43,61
831,6	42,838
832	41,952
832,4	45,838
832,8	48,124
833,3	48,867
833,7	46,667
834,1	44,038
834,6	42,752
835	42,838
835,4	44,724
835,8	40,181
836,3	36,381
836,7	39,81
837,1	38,981
837,6	41,524
838	40,81
838,4	38,81
838,9	39,867
839,3	38,21
839,7	37,81
840,1	30,324
840,6	30,495
841	34,781
841,4	32,238
841,9	36,01
842,3	37,495
842,7	35,81
843,1	43,324
843,6	41,752
844	37,81
844,4	40,267
844,9	41,752
845,3	42,41
845,7	44,838
846,2	41,895
846,6	40,124
847	41,038
847,4	38,524
847,9	40,267
848,3	41,124
848,7	38,01
849,2	40,438
849,6	35,152
850	38,752
850,4	39,038
850,9	35,61
851,3	37,295
851,7	36,324
852,2	35,467
852,6	44,295
853	43,381
853,4	42,41
853,9	37,638
854,3	34,981
854,7	39,924
855,2	37,581
855,6	34,81
856	30,381
856,4	25,838
856,9	27,724
857,3	28,038
857,7	27,581
858,2	33,667
858,6	30,524
859	32,552
859,4	36,267
859,9	35,61
860,3	31,895
860,7	29,638
861,1	29,152
861,6	31,152
862	29,267
862,4	29,438
862,9	32,381
863,3	36,238
863,7	36,295
864,1	33,095
864,6	33,324
865	30,81
865,4	32,238
865,9	36,781
866,3	30,867
866,7	31,524
867,1	28,038
867,6	31,01
868	35,095
868,4	31,21
868,8	24,952
869,3	29,01
869,7	29,838
870,1	29,781
870,6	22,381
871	25,124
871,4	29,61
871,8	28,752
872,3	32,324
872,7	28,581
873,1	29,438
873,5	32,724
874	27,381
874,4	25,095
874,8	21,981
875,3	18,61
875,7	19,381
876,1	20,838
876,5	24,238
877	20,352
877,4	16,352
877,8	22,238
878,2	23,352
878,7	23,667
879,1	22,867
879,5	20,01
879,9	22,61
880,4	28,695
880,8	26,924
881,2	23,667
881,7	20,952
882,1	23,752
882,5	23,667
882,9	23,752
883,4	19,838
883,8	17,838
884,2	19,267
884,6	19,295
885,1	17,781
885,5	19,61
885,9	23,038
886,3	25,524
886,8	22,01
887,2	18,81
887,6	20,867
888	19,867
888,5	17,124
888,9	15,867
889,3	10,181
889,8	13,524
890,2	15,467
890,6	14,181
891	15,295
891,5	13,324
891,9	13,181
892,3	16,181
892,7	18,038
893,2	17,952
893,6	20,381
894	19,181
894,4	20,838
894,9	20,095
895,3	22,295
895,7	21,895
896,1	25,152
896,6	21,552
897	22,152
897,4	26,638
897,8	28,21
898,3	29,895
898,7	28,867
899,1	25,41
899,5	25,01
900	18,667
900,4	13,952
900,8	10,667
901,2	6,724
901,7	8,095
902,1	11,438
902,5	12,238
902,9	20,495
903,4	21,752
903,8	22,181
904,2	21,724
904,6	19,752
905,1	20,238
905,5	21,952
905,9	21,781
906,3	24,352
906,8	27,324
907,2	27,41
907,6	28,61
908	28,124
908,5	24,667
908,9	16,81
909,3	13,61
909,7	11,752
910,2	13,181
910,6	15,667
911	8,438
911,4	10,295
911,9	11,21
912,3	12,038
912,7	15,752
913,1	18,667
913,6	10,724
914	15,724
914,4	15,695
914,8	19,41
915,3	17,095
915,7	10,667
916,1	6,61
916,5	11,752
916,9	9,895
917,4	8,467
917,8	11,752
918,2	10,638
918,6	10,238
919,1	10,924
919,5	11,152
919,9	12,467
920,3	9,724
920,8	5,924
921,2	3,981
921,6	7,895
922	6,667
922,5	4,695
922,9	5,781
923,3	9,324
923,7	8,61
924,2	10,952
924,6	10,181
925	10,495
925,4	7,21
925,8	5,61
926,3	6,495
926,7	3,552
927,1	6,781
927,5	9,067
928	7,838
928,4	10,438
928,8	12,41
929,2	11,152
929,7	14,524
930,1	14,695
930,5	10,581
930,9	15,581
931,3	16,181
931,8	14,524
932,2	14,752
932,6	13,867
933	7,01
933,5	9,524
933,9	9,495
934,3	12,952
934,7	9,867
935,2	12,781
935,6	10,552
936	16,695
936,4	15,724
936,8	17,21
937,3	8,781
937,7	12,81
938,1	13,867
938,5	13,61
939	11,324
939,4	9,952
939,8	4,981
940,2	10,067
940,6	12,324
941,1	10,238
941,5	17,038
941,9	11,324
942,3	13,438
942,8	16,21
943,2	19,667
943,6	17,324
944	16,952
944,4	13,267
944,9	15,952
945,3	15,724
945,7	12,552
946,1	5,838
946,6	5,067
947	0,295
947,4	5,552
947,8	8,552
948,2	3,667
948,7	3,781
949,1	6,038
949,5	8,695
949,9	11,867
950,3	8,495
950,8	10,524
951,2	15,124
951,6	11,038
952	14,695
952,5	8,952
952,9	10,124
953,3	7,61
953,7	2,267
954,1	3,61
954,6	10,552
955	9,867
955,4	9,352
955,8	11,695
956,2	11,838
956,7	15,181
957,1	10,752
957,5	12,667
957,9	11,724
958,3	15,838
958,8	14,724
959,2	19,067
959,6	22,267
960	22,724
960,5	16,724
960,9	18,181
961,3	16,381
961,7	14,352
962,1	10,638
962,6	10,638
963	10,495
963,4	8,238
963,8	5,152
964,2	8,181
964,7	9,61
965,1	14,695
965,5	14,238
965,9	15,324
966,3	18,981
966,8	18,267
967,2	16,952
967,6	17,01
968	9,21
968,4	6,152
968,9	10,152
969,3	15,61
969,7	13,352
970,1	13,295
970,5	9,638
971	13,324
971,4	12,438
971,8	13,152
972,2	9,524
972,6	11,295
973,1	12,01
973,5	17,495
973,9	15,667
974,3	17,152
974,7	18,467
975,2	18,124
975,6	18,038
976	18,124
976,4	13,41
976,8	15,41
977,3	8,752
977,7	0,724
978,1	-1,133
978,5	1,695
978,9	-2,39
979,4	-1,162
979,8	-4,162
980,2	1,21
980,6	-0,648
981	-0,076
981,5	-1,59
981,9	1,495
982,3	-0,133
982,7	3,095
983,1	-0,19
983,6	2,952
984	4,952
984,4	6,352
984,8	2,267
985,2	4,752
985,6	-0,533
986,1	5,038
986,5	9,552
986,9	5,267
987,3	4,438
987,7	7,324
988,2	3,752
988,6	4,067
989	2,295
989,4	0,524
989,8	-2,019
990,3	-3,39
990,7	-3,933
991,1	-2,076
991,5	5,267
991,9	8,61
992,3	7,781
992,8	14,552
993,2	16,667
993,6	19,324
994	21,781
994,4	16,781
994,9	16,324
995,3	16,067
995,7	15,124
996,1	16,724
996,5	17,295
996,9	13,067
997,4	18,495
997,8	15,381
998,2	12,81
998,6	6,095
999	1,781
999,5	-3,619
999,9	-2,19
1000,3	-6,962
1000,7	-6,619
1001,1	-7,619
1001,5	2,924
1002	6,552
1002,4	10,181
1002,8	10,638
1003,2	11,467
1003,6	14,324
1004	21,667
1004,5	16,867
1004,9	17,61
1005,3	14,324
1005,7	18,438
1006,1	15,467
1006,6	11,124
1007	6,524
1007,4	5,924
1007,8	6,238
1008,2	5,438
1008,6	2,952
1009,1	4,752
1009,5	11,152
1009,9	11,352
1010,3	12,352
1010,7	11,01
1011,1	14,952
1011,6	14,61
1012	17,638
1012,4	12,524
1012,8	12,124
1013,2	14,352
1013,6	18,638
1014,1	18,238
1014,5	18,952
1014,9	16,895
1015,3	15,724
1015,7	19,067
1016,1	18,581
1016,6	11,695
1017	10,838
1017,4	10,524
1017,8	9,638
1018,2	13,467
1018,6	5,352
1019,1	5,038
1019,5	5,41
1019,9	4,095
1020,3	2,81
1020,7	4,895
1021,1	1,695
1021,6	3,952
1022	3,01
1022,4	7,01
1022,8	11,381
1023,2	12,381
1023,6	11,724
1024,1	17,952
1024,5	23,095
1024,9	20,438
1025,3	17,495
1025,7	15,01
1026,1	18,724
1026,6	18,524
1027	11,095
1027,4	13,095
1027,8	19,695
1028,2	18,781
1028,6	24,124
1029	19,695
1029,5	24,038
1029,9	25,21
1030,3	19,924
1030,7	15,352
1031,1	20,267
1031,5	13,781
1032	15,238
1032,4	12,752
1032,8	16,095
1033,2	18,01
1033,6	18,038
1034	12,895
1034,4	13,581
1034,9	14,467
1035,3	11,495
1035,7	11,667
1036,1	8,61
1036,5	3,838
1036,9	4,638
1037,4	7,21
1037,8	4,924
1038,2	5,924
1038,6	1,181
1039	6,61
1039,4	18,895
1039,8	14,324
1040,3	14,524
1040,7	12,238
1041,1	17,095
1041,5	21,867
1041,9	18,21
1042,3	10,238
1042,7	14,238
1043,2	14,438
1043,6	12,724
1044	4,181
1044,4	1,067
1044,8	-0,648
1045,2	-0,248
1045,6	3,581
1046,1	0,267
1046,5	3,352
1046,9	3,781
1047,3	4,524
1047,7	3,752
1048,1	2,067
1048,5	-4,248
1049	1,095
1049,4	8,267
1049,8	11,867
1050,2	12,01
1050,6	17,21
1051	20,21
1051,4	22,381
1051,9	12,638
1052,3	17,238
1052,7	18,381
1053,1	15,781
1053,5	15,524
1053,9	14,181
1054,3	11,524
1054,8	22,81
1055,2	14,324
1055,6	9,867
1056	12,724
1056,4	13,81
1056,8	14,81
1057,2	21,352
1057,6	13,438
1058,1	10,724
1058,5	11,381
1058,9	12,352
1059,3	9,124
1059,7	14,981
1060,1	15,438
1060,5	19,01
1061	22,238
1061,4	24,524
1061,8	27,267
1062,2	27,895
1062,6	22,752
1063	19,895
1063,4	20,238
1063,8	17,838
1064,3	12,124
1064,7	10,324
1065,1	12,267
1065,5	8,352
1065,9	4,838
1066,3	2,152
1066,7	1,495
1067,1	2,838
1067,6	8,781
1068	3,495
1068,4	5,467
1068,8	9,41
1069,2	12,067
1069,6	11,152
1070	17,324
1070,4	10,61
1070,9	12,438
1071,3	14,838
1071,7	15,21
1072,1	14,81
1072,5	16,352
1072,9	10,124
1073,3	13,981
1073,7	12,924
1074,2	12,495
1074,6	10,724
1075	6,667
1075,4	6,152
1075,8	11,324
1076,2	6,352
1076,6	5,867
1077	4,267
1077,5	9,324
1077,9	7,324
1078,3	8,324
1078,7	5,781
1079,1	7,238
1079,5	7,152
1079,9	10,352
1080,3	8,095
1080,7	12,867
1081,2	18,524
1081,6	15,695
1082	14,181
1082,4	20,924
1082,8	17,381
1083,2	18,867
1083,6	20,524
1084	13,324
1084,5	17,724
1084,9	15,295
1085,3	6,295
1085,7	8,295
1086,1	3,61
1086,5	3,181
1086,9	5,352
1087,3	9,21
1087,7	10,867
1088,2	16,838
1088,6	12,524
1089	15,438
1089,4	13,267
1089,8	12,438
1090,2	7,21
1090,6	8,924
1091	9,61
1091,4	16,61
1091,9	14,324
1092,3	15,41
1092,7	13,381
1093,1	18,924
1093,5	16,352
1093,9	15,295
1094,3	15,124
1094,7	17,124
1095,1	15,752
1095,5	18,752
1096	12,524
1096,4	12,067
1096,8	9,381
1097,2	5,467
1097,6	9,067
1098	8,638
1098,4	9,895
1098,8	11,181
1099,2	20,095
1099,6	18,295
1100,1	17,295
1100,5	12,752
1100,9	16,781
1101,3	13,21
1101,7	12,295
1102,1	7,238
1102,5	13,438
1102,9	16,752
1103,3	19,524
1103,7	18,838
1104,2	19,152
1104,6	18,667
1105	16,752
1105,4	13,495
1105,8	9,267
1106,2	4,667
1106,6	1,495
1107	1,381
1107,4	1,833
1107,8	0,787
1108,3	-0,183
