Data from Subt2_276.txt Node
Date: Sat Aug 26 19:05:48 MSK 2023
User: vat
Spectrometer: MAYP114033
Trigger mode: 0
Integration Time (sec): 1,000000E0
Scans to average: 5
Electric dark correction enabled: true
Nonlinearity correction enabled: false
Boxcar width: 3
XAxis mode: Wavelengths
Number of Pixels in Spectrum: 2068
>>>>>Begin Spectral Data<<<<<
199,4	0,1
199,9	5,76
200,4	4,167
200,8	5,914
201,3	4,086
201,8	8,029
202,2	6,657
202,7	9,229
203,2	5,057
203,6	5,629
204,1	2,486
204,6	2,629
205	0,2
205,5	-1,143
206	-2,686
206,4	0,771
206,9	0,857
207,4	3,4
207,8	4,057
208,3	0,343
208,8	4,743
209,2	9,2
209,7	5,771
210,2	6,2
210,6	3,314
211,1	6,229
211,5	6,971
212	6,714
212,5	0,171
212,9	-0,743
213,4	-1,057
213,9	-0,171
214,3	0,6
214,8	5,114
215,3	3,657
215,7	9,229
216,2	10,371
216,7	13,686
217,1	10,143
217,6	9,143
218,1	5
218,5	6
219	1,629
219,5	5,886
219,9	3,229
220,4	13,8
220,9	14,571
221,3	15,486
221,8	14,343
222,3	15,914
222,7	13,629
223,2	12,6
223,6	7,171
224,1	7,371
224,6	5,371
225	3,514
225,5	2,143
226	0,314
226,4	2,371
226,9	6,571
227,4	4,857
227,8	7,143
228,3	10,171
228,8	11,6
229,2	14,743
229,7	15,6
230,2	10,429
230,6	13,229
231,1	20,4
231,5	18,171
232	19,657
232,5	13,686
232,9	13,6
233,4	15,686
233,9	10,543
234,3	5,714
234,8	8,571
235,3	5,743
235,7	10,914
236,2	11,771
236,7	9,029
237,1	12,086
237,6	9,171
238,1	5
238,5	1,629
239	-0,571
239,4	0,857
239,9	2,629
240,4	1,143
240,8	3,086
241,3	0,743
241,8	4,971
242,2	6,257
242,7	-1,686
243,2	-2,8
243,6	-4,143
244,1	-4,543
244,6	4,971
245	4,286
245,5	4,457
245,9	3,914
246,4	3,714
246,9	7,943
247,3	11,171
247,8	12,029
248,3	16,257
248,7	16,943
249,2	22,286
249,7	23,4
250,1	25,229
250,6	22,286
251	18,8
251,5	16,514
252	14,686
252,4	15,343
252,9	13,286
253,4	7,629
253,8	7,629
254,3	11,057
254,8	11,229
255,2	9,914
255,7	5,8
256,1	4,543
256,6	6,057
257,1	6,429
257,5	3,6
258	0,857
258,5	3,543
258,9	5,686
259,4	8,743
259,9	8,686
260,3	7,343
260,8	3,686
261,2	2,914
261,7	4,171
262,2	-0,086
262,6	-1,057
263,1	1,286
263,6	2,714
264	6,943
264,5	12,514
264,9	7,486
265,4	13,629
265,9	12,686
266,3	11,943
266,8	11,686
267,3	8,743
267,7	6,571
268,2	7,943
268,7	5,343
269,1	8,829
269,6	6,4
270	12,057
270,5	8,743
271	4,686
271,4	4,857
271,9	-0
272,4	2,143
272,8	1,629
273,3	-4,114
273,7	-1,371
274,2	0,886
274,7	-0,571
275,1	5,457
275,6	2,057
276,1	0,657
276,5	2,257
277	2,429
277,4	3,6
277,9	11,114
278,4	12,314
278,8	16,771
279,3	22,486
279,8	22,629
280,2	26,943
280,7	28,114
281,1	20,829
281,6	17,771
282,1	13,571
282,5	12,657
283	11
283,4	8,886
283,9	9,629
284,4	13,6
284,8	14,971
285,3	15,2
285,8	11,8
286,2	12,086
286,7	11,914
287,1	7,571
287,6	3,4
288,1	2,6
288,5	1,143
289	0,8
289,5	1,286
289,9	-4,429
290,4	-0,771
290,8	-0,171
291,3	-0,971
291,8	4,143
292,2	4,429
292,7	5,429
293,1	7,914
293,6	6,657
294,1	9,257
294,5	11,8
295	5,8
295,5	7,429
295,9	5,371
296,4	6,114
296,8	4,114
297,3	4,857
297,8	1,457
298,2	2,457
298,7	4,543
299,1	5,057
299,6	1
300,1	4,743
300,5	0,8
301	3,457
301,5	4
301,9	0,543
302,4	-1,514
302,8	2,886
303,3	-2,657
303,8	-2,457
304,2	-1,343
304,7	-1,514
305,1	-4,229
305,6	0,686
306,1	4,686
306,5	10,943
307	15,8
307,4	17,571
307,9	18,514
308,4	22,114
308,8	17,229
309,3	16,371
309,8	14,629
310,2	11,571
310,7	5,314
311,1	4,629
311,6	6,543
312,1	9,514
312,5	9,914
313	10,143
313,4	12,057
313,9	16,8
314,4	16,143
314,8	12,086
315,3	9,314
315,7	2,6
316,2	2
316,7	-0,857
317,1	0,771
317,6	0,114
318	5,371
318,5	3,714
319	8,714
319,4	8,371
319,9	13,171
320,3	10
320,8	11,257
321,3	8,743
321,7	12,229
322,2	12,514
322,6	15,686
323,1	13,771
323,6	14,629
324	13,914
324,5	12,657
324,9	12,943
325,4	13,514
325,9	15,229
326,3	13,543
326,8	17,914
327,2	14,886
327,7	13,914
328,2	15,171
328,6	16,571
329,1	9,371
329,5	12,571
330	11,8
330,5	15,343
330,9	20,029
331,4	20,371
331,8	14,086
332,3	16,914
332,8	15,229
333,2	8,6
333,7	9,914
334,1	7,114
334,6	0,771
335,1	-0,8
335,5	-2,514
336	-4,057
336,4	-2,029
336,9	4,086
337,4	9,086
337,8	15,8
338,3	20,743
338,7	25,371
339,2	23,257
339,7	29,171
340,1	25,543
340,6	23,171
341	20,686
341,5	19,371
342	12,229
342,4	12,457
342,9	6,943
343,3	3,429
343,8	0,286
344,2	-0,114
344,7	6,743
345,2	10,057
345,6	11,686
346,1	11,343
346,5	7,686
347	5,343
347,5	6,743
347,9	5,314
348,4	4,057
348,8	7,114
349,3	10,486
349,8	18,771
350,2	28,343
350,7	28,429
351,1	28,771
351,6	38,886
352	47,314
352,5	54,229
353	61
353,4	65,343
353,9	77,343
354,3	94,257
354,8	104,771
355,3	123,971
355,7	150,429
356,2	179,743
356,6	213,143
357,1	254,971
357,5	299,286
358	356,143
358,5	409,029
358,9	473,257
359,4	545,429
359,8	631,829
360,3	728
360,8	829,771
361,2	944,143
361,7	1076,543
362,1	1220,257
362,6	1372,629
363	1531,8
363,5	1706,029
364	1892,4
364,4	2082,629
364,9	2276,371
365,3	2467,057
365,8	2650,229
366,3	2824,886
366,7	2972,857
367,2	3111,686
367,6	3220,486
368,1	3306,4
368,5	3366,743
369	3398,286
369,5	3410,057
369,9	3398,971
370,4	3346,543
370,8	3279,4
371,3	3189,771
371,7	3079,6
372,2	2956,057
372,7	2814,743
373,1	2659,457
373,6	2510,8
374	2361,6
374,5	2203,314
374,9	2045,143
375,4	1898,457
375,9	1758,171
376,3	1624,914
376,8	1493,086
377,2	1375,771
377,7	1262,543
378,2	1161,543
378,6	1064,771
379,1	975,343
379,5	898,886
380	827,514
380,4	752,714
380,9	693,629
381,4	640,4
381,8	591,086
382,3	552,657
382,7	510,571
383,2	475,857
383,6	445,286
384,1	418
384,6	390,171
385	363,771
385,5	333,629
385,9	309
386,4	290,314
386,8	272,143
387,3	249,829
387,7	233,2
388,2	219,457
388,7	205,914
389,1	193,514
389,6	178
390	163,857
390,5	155,4
390,9	145,029
391,4	136,771
391,9	130,743
392,3	129,886
392,8	119,4
393,2	114,629
393,7	108,429
394,1	96,914
394,6	91,257
395,1	87,029
395,5	78,114
396	78,4
396,4	74,543
396,9	75,029
397,3	79,343
397,8	82,971
398,2	76,714
398,7	74,257
399,2	72,257
399,6	67,371
400,1	61,543
400,5	54
401	48,771
401,4	45,343
401,9	44,314
402,4	45,571
402,8	42,057
403,3	46,114
403,7	48,057
404,2	47,914
404,6	52,514
405,1	54,229
405,5	50,343
406	56,229
406,5	50,4
406,9	52,857
407,4	51,4
407,8	52,886
408,3	54,829
408,7	59,6
409,2	65,429
409,6	73,8
410,1	75,286
410,6	83,8
411	86,057
411,5	87,657
411,9	93,486
412,4	92,743
412,8	93,257
413,3	96,371
413,7	92,257
414,2	91,971
414,7	98,543
415,1	104,886
415,6	108,686
416	112,829
416,5	116,057
416,9	119
417,4	122,514
417,8	125,457
418,3	123,543
418,8	127
419,2	126,343
419,7	128,886
420,1	134,114
420,6	133,943
421	129,314
421,5	125,457
421,9	120,857
422,4	123,371
422,8	123,457
423,3	123,6
423,8	121,029
424,2	122,543
424,7	125,086
425,1	125,143
425,6	126,629
426	122,143
426,5	121,771
426,9	127,257
427,4	118,029
427,9	111,257
428,3	111,457
428,8	108,143
429,2	106,657
429,7	100,486
430,1	94,771
430,6	98,314
431	100,343
431,5	100,429
431,9	98,914
432,4	102,257
432,8	106,029
433,3	105,914
433,8	107,657
434,2	106,571
434,7	107,029
435,1	110,2
435,6	108,914
436	107,857
436,5	114,686
436,9	113,857
437,4	113,943
437,8	113,943
438,3	110
438,8	109,257
439,2	109,8
439,7	112,571
440,1	116,914
440,6	125,114
441	124,743
441,5	129,943
441,9	135,743
442,4	133,886
442,8	127,229
443,3	132,229
443,7	131,629
444,2	139,2
444,7	140,943
445,1	141,657
445,6	147
446	154,629
446,5	150,629
446,9	149,914
447,4	146,8
447,8	150,771
448,3	156,086
448,7	160,886
449,2	163,657
449,6	171,714
450,1	175,086
450,6	183,343
451	186,943
451,5	187,543
451,9	193,2
452,4	195,6
452,8	192,371
453,3	202,114
453,7	204,657
454,2	206,171
454,6	211,771
455,1	213,429
455,5	215,8
456	226,457
456,4	227,343
456,9	231,743
457,3	235,543
457,8	234,571
458,3	244,629
458,7	251,514
459,2	254,4
459,6	256,857
460,1	262,829
460,5	266,571
461	285,514
461,4	284,543
461,9	292,2
462,3	304,486
462,8	314,914
463,2	321,886
463,7	333,086
464,1	336,857
464,6	348,943
465	362,486
465,5	371,829
466	381,114
466,4	389,543
466,9	404,514
467,3	412,314
467,8	422,543
468,2	426,171
468,7	433,029
469,1	446,2
469,6	455,314
470	459,914
470,5	466,629
470,9	472,743
471,4	484,114
471,8	493,714
472,3	502,914
472,7	515,2
473,2	520,171
473,6	532,229
474,1	546,943
474,5	555,886
475	569,314
475,4	576,971
475,9	587,314
476,4	602,143
476,8	612,629
477,3	619,629
477,7	629,714
478,2	638,429
478,6	644,314
479,1	652,943
479,5	659,429
480	664,914
480,4	673,971
480,9	681,686
481,3	686,657
481,8	694,886
482,2	695,286
482,7	699,429
483,1	709,143
483,6	718,486
484	725,629
484,5	733,086
484,9	739,486
485,4	752,743
485,8	764,029
486,3	769,2
486,7	773,057
487,2	779,2
487,6	783,514
488,1	793,314
488,5	795,029
489	801,571
489,4	813,629
489,9	814,714
490,4	819,2
490,8	827,257
491,3	835,514
491,7	839,971
492,2	845,514
492,6	846,571
493,1	857,486
493,5	860,057
494	858,4
494,4	860,057
494,9	866,257
495,3	871,6
495,8	872,829
496,2	877,429
496,7	879,229
497,1	895,457
497,6	896,2
498	908,343
498,5	911,686
498,9	917,6
499,4	917,886
499,8	930,143
500,3	928,571
500,7	932,314
501,2	925,2
501,6	924,886
502,1	927,514
502,5	929,857
503	933,229
503,4	931,2
503,9	932,686
504,3	940,486
504,8	945,829
505,2	952,286
505,7	957,171
506,1	958,543
506,6	963,457
507	967,629
507,5	969,371
507,9	967,657
508,4	965,429
508,8	964,657
509,3	959,8
509,7	964,543
510,2	974,771
510,6	973,143
511,1	976,286
511,5	976,714
512	980,429
512,4	986,571
512,9	984,686
513,3	982,143
513,8	992,371
514,2	998,629
514,7	1006,286
515,1	1013,4
515,6	1019,8
516	1023,543
516,5	1031,371
516,9	1036,143
517,4	1039,914
517,8	1045,429
518,3	1047,143
518,7	1050,257
519,2	1057,743
519,6	1056,543
520,1	1061,743
520,5	1065,086
521	1064,086
521,4	1066,429
521,9	1069,171
522,3	1073,286
522,8	1077,229
523,2	1075,257
523,7	1080,6
524,1	1086,543
524,6	1093,543
525	1095,629
525,5	1097,571
525,9	1106,086
526,4	1105,6
526,8	1107,286
527,3	1114,2
527,7	1117,486
528,2	1126,457
528,6	1130,029
529,1	1130,429
529,5	1144,057
530	1147,943
530,4	1153,8
530,9	1162,057
531,3	1167,371
531,8	1173,914
532,2	1182,429
532,6	1185,714
533,1	1193,286
533,5	1194,429
534	1194,4
534,4	1194
534,9	1199,057
535,3	1200,429
535,8	1201,571
536,2	1211,114
536,7	1219,371
537,1	1227,114
537,6	1235,743
538	1241,229
538,5	1251,629
538,9	1255,514
539,4	1256,6
539,8	1261,714
540,3	1271,2
540,7	1279,457
541,2	1282,771
541,6	1279,314
542,1	1285,943
542,5	1295,057
543	1296,514
543,4	1294,086
543,9	1297,143
544,3	1304,029
544,8	1313,6
545,2	1317,971
545,7	1321,886
546,1	1330,514
546,5	1341,743
547	1347,314
547,4	1352,571
547,9	1357,286
548,3	1366,457
548,8	1368,914
549,2	1367
549,7	1374,229
550,1	1382,686
550,6	1386,343
551	1389,571
551,5	1391,343
551,9	1392,686
552,4	1404,829
552,8	1399,057
553,3	1393,657
553,7	1398,257
554,2	1403
554,6	1406,514
555,1	1415,457
555,5	1411,171
555,9	1419,543
556,4	1427,257
556,8	1431,2
557,3	1435,457
557,7	1440,457
558,2	1441,286
558,6	1452,971
559,1	1454,457
559,5	1460,571
560	1462,971
560,4	1467,4
560,9	1469,886
561,3	1475,657
561,8	1471,629
562,2	1477,514
562,7	1479,657
563,1	1483,629
563,6	1481,171
564	1488,4
564,4	1486,486
564,9	1492,886
565,3	1493,257
565,8	1496,971
566,2	1498,029
566,7	1510,971
567,1	1512,429
567,6	1512,714
568	1511,286
568,5	1515,743
568,9	1516,771
569,4	1523,6
569,8	1517
570,3	1517,771
570,7	1521
571,1	1524,229
571,6	1526,714
572	1527,743
572,5	1531,6
572,9	1528,514
573,4	1528,4
573,8	1533,6
574,3	1532,971
574,7	1527,029
575,2	1524,229
575,6	1513,371
576,1	1519,714
576,5	1523,714
576,9	1519,6
577,4	1520,914
577,8	1523,029
578,3	1520,8
578,7	1525,743
579,2	1523,429
579,6	1512,171
580,1	1511,2
580,5	1513,286
581	1516,171
581,4	1514,8
581,9	1507,629
582,3	1508,571
582,7	1513,8
583,2	1516,514
583,6	1517,514
584,1	1516,971
584,5	1517,343
585	1519,829
585,4	1512,657
585,9	1511,086
586,3	1510,886
586,8	1507,543
587,2	1501,514
587,6	1506,829
588,1	1509,171
588,5	1511,371
589	1512,086
589,4	1504,8
589,9	1497,086
590,3	1494,971
590,8	1488,657
591,2	1487,057
591,7	1490,029
592,1	1484,086
592,5	1486,286
593	1485,143
593,4	1483,6
593,9	1480,6
594,3	1474,2
594,8	1466,6
595,2	1465,229
595,7	1463,286
596,1	1461,257
596,6	1459,971
597	1464,143
597,4	1464,943
597,9	1463,314
598,3	1467,229
598,8	1463,343
599,2	1466,829
599,7	1462,629
600,1	1451,257
600,6	1451,029
601	1453,629
601,4	1447,771
601,9	1445,029
602,3	1433,286
602,8	1433,371
603,2	1430,4
603,7	1419
604,1	1410,057
604,6	1406,029
605	1396,429
605,4	1401,314
605,9	1395,143
606,3	1389,543
606,8	1388,4
607,2	1383,943
607,7	1374,771
608,1	1377,286
608,6	1372,343
609	1375,857
609,4	1378,914
609,9	1377,429
610,3	1374,257
610,8	1371,886
611,2	1367,286
611,7	1360
612,1	1348,771
612,6	1340,171
613	1334,343
613,4	1330,171
613,9	1323,257
614,3	1318,629
614,8	1322,657
615,2	1316,029
615,7	1312,857
616,1	1311,571
616,6	1303,743
617	1298,886
617,4	1296,943
617,9	1288,371
618,3	1290,114
618,8	1285,2
619,2	1279,486
619,7	1280,057
620,1	1279,2
620,5	1275,914
621	1267,457
621,4	1258,971
621,9	1254,8
622,3	1245,914
622,8	1234,8
623,2	1227,8
623,6	1215,657
624,1	1211,429
624,5	1205,343
625	1200,714
625,4	1196,314
625,9	1193,943
626,3	1189,029
626,8	1184,971
627,2	1180,371
627,6	1169,829
628,1	1160,914
628,5	1156,429
629	1152,6
629,4	1145,371
629,9	1136,229
630,3	1126,857
630,7	1122,971
631,2	1118,057
631,6	1111,229
632,1	1102,6
632,5	1102,314
633	1102,057
633,4	1096,743
633,8	1090,8
634,3	1088,229
634,7	1086,086
635,2	1080,943
635,6	1072,714
636,1	1062,771
636,5	1055,943
636,9	1052,686
637,4	1045,143
637,8	1030,971
638,3	1024,114
638,7	1017,171
639,2	1014,286
639,6	1012,771
640	1004,714
640,5	999,371
640,9	990,4
641,4	985,286
641,8	979,743
642,2	976,971
642,7	975,971
643,1	980,6
643,6	975,257
644	980,286
644,5	979,314
644,9	972,886
645,3	962,8
645,8	947,771
646,2	931,943
646,7	926,6
647,1	919,914
647,6	918,714
648	918,571
648,4	916,314
648,9	920,114
649,3	918,286
649,8	920,457
650,2	917,657
650,6	908,257
651,1	902,914
651,5	903,743
652	894,2
652,4	887,486
652,9	878,943
653,3	871,343
653,7	867
654,2	858,429
654,6	844,857
655,1	847,943
655,5	855,829
655,9	850,714
656,4	849,057
656,8	846,114
657,3	845,143
657,7	846,314
658,2	833,971
658,6	817
659	813,229
659,5	803,086
659,9	794,286
660,4	790,257
660,8	785,514
661,2	776,714
661,7	774,8
662,1	770,971
662,6	770,086
663	768,229
663,4	762,371
663,9	757,829
664,3	757,086
664,8	752,314
665,2	743,8
665,6	740,486
666,1	739
666,5	734,829
667	728,943
667,4	723,171
667,9	719,086
668,3	712,886
668,7	707,429
669,2	698,8
669,6	694
670,1	691,171
670,5	688,714
670,9	682,4
671,4	680,371
671,8	677,371
672,3	674,4
672,7	671,629
673,1	662
673,6	658,943
674	661,029
674,5	651,657
674,9	640,314
675,3	634,114
675,8	629,829
676,2	627,2
676,7	621,343
677,1	612,286
677,5	613
678	617,971
678,4	615,514
678,9	607,629
679,3	605,8
679,7	602,371
680,2	599,143
680,6	591,257
681,1	587
681,5	582,571
681,9	581,171
682,4	576,4
682,8	572,486
683,3	573,8
683,7	577,286
684,1	568,771
684,6	565,486
685	560,886
685,5	559,686
685,9	554,4
686,3	542,571
686,8	536,514
687,2	537,571
687,7	532,314
688,1	527,371
688,5	521,143
689	520,8
689,4	519,971
689,9	512,714
690,3	504,914
690,7	503,8
691,2	504,171
691,6	500,629
692	498,657
692,5	496,057
692,9	494,6
693,4	493,914
693,8	495,514
694,2	490,343
694,7	485,371
695,1	478,2
695,6	475,8
696	478,2
696,4	472,657
696,9	460,343
697,3	454,314
697,8	455,714
698,2	451,8
698,6	449,971
699,1	441,714
699,5	443,057
699,9	441,4
700,4	439,114
700,8	435,771
701,3	438,686
701,7	431,8
702,1	431,257
702,6	425,314
703	424,6
703,5	423,314
703,9	415,943
704,3	411,857
704,8	410,257
705,2	406,543
705,6	401,8
706,1	399,971
706,5	397,629
707	399,543
707,4	396,629
707,8	392,943
708,3	391,286
708,7	392,429
709,2	390,6
709,6	392,657
710	393,171
710,5	385,2
710,9	385,486
711,3	381,371
711,8	379,657
712,2	375,514
712,7	369,343
713,1	364,914
713,5	368,886
714	367
714,4	364,657
714,8	361
715,3	355,143
715,7	354,314
716,2	350,314
716,6	347,857
717	340,971
717,5	339,343
717,9	339,771
718,3	338,6
718,8	334,514
719,2	334,114
719,7	329,057
720,1	332,486
720,5	334,743
721	328,4
721,4	325,6
721,8	331,457
722,3	323,257
722,7	328,086
723,2	318,229
723,6	308,6
724	304,257
724,5	302,629
724,9	295,371
725,3	295
725,8	287,371
726,2	289,171
726,7	289,914
727,1	292,057
727,5	293,143
728	285,886
728,4	284,771
728,8	278,371
729,3	275,629
729,7	269,829
730,1	267,171
730,6	265,829
731	262,857
731,5	259,571
731,9	259,629
732,3	259,571
732,8	262,657
733,2	262
733,6	257,8
734,1	261,257
734,5	265,143
734,9	269,686
735,4	270,086
735,8	264,257
736,3	268
736,7	264,829
737,1	259,457
737,6	253,114
738	247
738,4	242,743
738,9	246,457
739,3	237,086
739,7	234,429
740,2	233,229
740,6	237,571
741,1	239,257
741,5	237,8
741,9	236,257
742,4	241,714
742,8	243,143
743,2	243,286
743,7	232,771
744,1	229,114
744,5	225,6
745	221,743
745,4	212,914
745,8	212,886
746,3	207,943
746,7	210,543
747,2	208
747,6	214,857
748	216,286
748,5	218,6
748,9	210,571
749,3	215,6
749,8	215,371
750,2	212,657
750,6	205,4
751,1	202,514
751,5	200,371
751,9	205,514
752,4	202,629
752,8	200,857
753,3	200,571
753,7	198,514
754,1	194,971
754,6	192,171
755	190,543
755,4	185,286
755,9	186,314
756,3	183,629
756,7	184,6
757,2	184,371
757,6	186,057
758	187,429
758,5	187,429
758,9	184,4
759,3	186,4
759,8	186,771
760,2	188,314
760,6	182
761,1	177,2
761,5	177,629
761,9	173,029
762,4	168,543
762,8	167,343
763,3	162,057
763,7	165,686
764,1	165
764,6	162,943
765	170,457
765,4	170,571
765,9	167,8
766,3	172,6
766,7	167,629
767,2	167,686
767,6	168,343
768	162,486
768,5	164,314
768,9	166,114
769,3	160,343
769,8	158,229
770,2	159,629
770,6	157,914
771,1	161,029
771,5	158,714
771,9	157,114
772,4	158,657
772,8	161,514
773,2	160,771
773,7	159,971
774,1	155,086
774,5	145,914
775	140,771
775,4	139,943
775,8	140,057
776,3	138,143
776,7	138,714
777,1	139,2
777,6	150,057
778	153,086
778,4	149,086
778,9	146,571
779,3	142,286
779,7	140,286
780,2	140,257
780,6	135,771
781	130,371
781,5	124,543
781,9	123,657
782,3	123,714
782,8	124,743
783,2	121,914
783,6	121,714
784,1	119,743
784,5	126
784,9	125,8
785,4	127,943
785,8	125,457
786,2	127,486
786,7	126,429
787,1	127
787,5	125,743
788	122,914
788,4	120,914
788,8	117,571
789,3	113,257
789,7	112,943
790,1	113,429
790,6	114,886
791	114,857
791,4	112,943
791,9	114,257
792,3	107,914
792,7	110,943
793,2	109,943
793,6	106,714
794	110,086
794,5	107,229
794,9	111,971
795,3	119,857
795,8	113,514
796,2	114,629
796,6	116,657
797,1	109,829
797,5	109,543
797,9	101,286
798,4	95,429
798,8	95,743
799,2	90,486
799,7	91,6
800,1	90,686
800,5	91,657
801	94,057
801,4	94,543
801,8	90,229
802,2	93,057
802,7	85,343
803,1	91,229
803,5	93,486
804	89,771
804,4	90,857
804,8	94,486
805,3	96,514
805,7	101,343
806,1	96,886
806,6	93,857
807	93,629
807,4	92,514
807,9	86,857
808,3	82,629
808,7	79,6
809,2	83,857
809,6	85,857
810	84,743
810,4	84,2
810,9	87,286
811,3	91,086
811,7	90,343
812,2	90,029
812,6	86,571
813	88,914
813,5	89,829
813,9	89,4
814,3	88,829
814,8	89,486
815,2	83,629
815,6	84,743
816,1	86,257
816,5	85,229
816,9	83,657
817,3	82
817,8	82,886
818,2	82,4
818,6	80,457
819,1	76,8
819,5	72,971
819,9	74,229
820,4	71,914
820,8	66,571
821,2	64,171
821,7	62,457
822,1	67,286
822,5	73,743
822,9	69,714
823,4	70,086
823,8	73,314
824,2	76,343
824,7	73,2
825,1	61,829
825,5	53,886
826	53,543
826,4	49,257
826,8	47,886
827,3	46,171
827,7	49,257
828,1	56,229
828,5	59,257
829	58,257
829,4	64,029
829,8	57,114
830,3	56,571
830,7	51,4
831,1	50,743
831,6	51,286
832	54,229
832,4	47,714
832,8	50,6
833,3	49,743
833,7	50,743
834,1	48,571
834,6	46,343
835	46,543
835,4	51,914
835,8	54,886
836,3	56,371
836,7	59,543
837,1	59,829
837,6	60,057
838	59,971
838,4	53,657
838,9	54,971
839,3	51,429
839,7	51,571
840,1	44,371
840,6	44,914
841	47,371
841,4	52,086
841,9	47,857
842,3	48,2
842,7	46,943
843,1	53,286
843,6	51,857
844	45,857
844,4	47,4
844,9	47,086
845,3	48,343
845,7	44,743
846,2	40,257
846,6	40,257
847	44,057
847,4	42,914
847,9	45,371
848,3	43,543
848,7	47,229
849,2	50,114
849,6	42,4
850	44,543
850,4	41,543
850,9	42,543
851,3	45,771
851,7	45,4
852,2	42,571
852,6	49,486
853	48,314
853,4	44,6
853,9	38,629
854,3	36,143
854,7	30,486
855,2	33,714
855,6	33,457
856	28,971
856,4	32,229
856,9	34,029
857,3	33,143
857,7	37,486
858,2	39,686
858,6	40,629
859	38,286
859,4	38,571
859,9	36,514
860,3	33,914
860,7	37,371
861,1	34,743
861,6	29,943
862	33,371
862,4	31,457
862,9	30,029
863,3	30,571
863,7	27,543
864,1	30,771
864,6	32,571
865	31,8
865,4	30,486
865,9	36,943
866,3	36,343
866,7	37,171
867,1	29,571
867,6	32,971
868	32,6
868,4	30,686
868,8	29,857
869,3	32,429
869,7	34,771
870,1	34,714
870,6	27,429
871	37,114
871,4	43,4
871,8	38,971
872,3	37,4
872,7	34,314
873,1	35,486
873,5	40,943
874	27,457
874,4	25,629
874,8	24,086
875,3	25,771
875,7	24,571
876,1	26,4
876,5	25,829
877	24,886
877,4	21,314
877,8	28,429
878,2	28,4
878,7	30,229
879,1	30,229
879,5	30,057
879,9	36,457
880,4	36,943
880,8	32,8
881,2	34
881,7	31,771
882,1	32,571
882,5	30,514
882,9	31,8
883,4	33,143
883,8	31,171
884,2	26,829
884,6	25,743
885,1	29,629
885,5	30,886
885,9	24,314
886,3	26,286
886,8	27,429
887,2	27,029
887,6	29,171
888	22,2
888,5	22,886
888,9	24,229
889,3	19,943
889,8	19,343
890,2	21,114
890,6	17,857
891	20,257
891,5	18,571
891,9	21,086
892,3	24,343
892,7	21,571
893,2	25,2
893,6	27,657
894	29,743
894,4	30,857
894,9	27,714
895,3	25,371
895,7	30
896,1	25,486
896,6	24,143
897	25,829
897,4	28,943
897,8	29,114
898,3	29,229
898,7	25,457
899,1	28,229
899,5	26,229
900	17
900,4	8,286
900,8	6,886
901,2	6,229
901,7	6,371
902,1	3,771
902,5	4,657
902,9	8,286
903,4	16,686
903,8	19,029
904,2	14,943
904,6	15,971
905,1	17,629
905,5	19,2
905,9	22,029
906,3	21,314
906,8	21,743
907,2	27,371
907,6	28,943
908	30,257
908,5	26,771
908,9	23,686
909,3	17,971
909,7	16,114
910,2	13,057
910,6	15,114
911	6,943
911,4	10,886
911,9	9
912,3	10,486
912,7	16,314
913,1	17,514
913,6	14,714
914	21,486
914,4	18,114
914,8	21,2
915,3	16,143
915,7	12,057
916,1	11,629
916,5	14,286
916,9	13,571
917,4	12,686
917,8	12,286
918,2	15,229
918,6	13,457
919,1	14,714
919,5	13,171
919,9	15,143
920,3	19,314
920,8	17,6
921,2	17,057
921,6	14,743
922	14,743
922,5	14,029
922,9	12,6
923,3	9,914
923,7	13,143
924,2	13,457
924,6	15,971
925	15,657
925,4	16,086
925,8	13,486
926,3	13,229
926,7	8,829
927,1	14,4
927,5	17,229
928	11,686
928,4	9,171
928,8	13,314
929,2	12,686
929,7	16,457
930,1	18,2
930,5	13,743
930,9	21,086
931,3	23,4
931,8	22,771
932,2	27,629
932,6	24
933	11,829
933,5	13,514
933,9	11,429
934,3	9,914
934,7	6,829
935,2	5,571
935,6	5,829
936	13,2
936,4	13,486
936,8	16
937,3	13,143
937,7	15,686
938,1	16,971
938,5	13,429
939	14,286
939,4	14,857
939,8	12,143
940,2	13,629
940,6	12,743
941,1	9,229
941,5	16,429
941,9	8,8
942,3	7,829
942,8	8,371
943,2	9,429
943,6	4,914
944	5,057
944,4	4
944,9	7,743
945,3	5,743
945,7	-0,029
946,1	-3,029
946,6	-4,086
947	-5,286
947,4	-1,686
947,8	0,4
948,2	0,829
948,7	9,114
949,1	12,486
949,5	19,371
949,9	22,629
950,3	21,914
950,8	18,6
951,2	18,4
951,6	10,914
952	14,114
952,5	9,114
952,9	7,743
953,3	5,143
953,7	8,6
954,1	11,057
954,6	20,257
955	22,029
955,4	19,486
955,8	22
956,2	21,543
956,7	19,829
957,1	13,571
957,5	10,429
957,9	3,543
958,3	8,114
958,8	4,571
959,2	5,029
959,6	7,514
960	9,914
960,5	13,714
960,9	21,143
961,3	19,371
961,7	16,8
962,1	15,314
962,6	18,486
963	22,629
963,4	15,371
963,8	12
964,2	14,686
964,7	15,886
965,1	20,029
965,5	12,943
965,9	11,2
966,3	12,571
966,8	11,114
967,2	12,143
967,6	10,743
968	3
968,4	6,886
968,9	5,343
969,3	8,371
969,7	5,457
970,1	5,514
970,5	5,686
971	11,857
971,4	9,086
971,8	11,829
972,2	9,257
972,6	10,086
973,1	9,086
973,5	11,686
973,9	9,686
974,3	11,686
974,7	16,171
975,2	16,4
975,6	16,657
976	13,057
976,4	11,571
976,8	12,371
977,3	6,771
977,7	3,486
978,1	3,714
978,5	4,857
978,9	0,971
979,4	1,457
979,8	1,143
980,2	9,343
980,6	4,943
981	8,2
981,5	2,657
981,9	6,8
982,3	6,943
982,7	7,886
983,1	-1,486
983,6	2,4
984	0,886
984,4	7,171
984,8	9,829
985,2	9,8
985,6	6,257
986,1	14,371
986,5	12,857
986,9	6,4
987,3	6,114
987,7	5,543
988,2	5,971
988,6	6,2
989	1,257
989,4	-0,286
989,8	3,143
990,3	2,686
990,7	3,629
991,1	2,114
991,5	6,229
991,9	7,857
992,3	9,943
992,8	12,743
993,2	12,686
993,6	13,343
994	16,286
994,4	14,229
994,9	17,629
995,3	17,743
995,7	13,343
996,1	11,086
996,5	6,486
996,9	2,514
997,4	5,343
997,8	0,343
998,2	-3,143
998,6	-3,829
999	-3,343
999,5	-1,8
999,9	0,257
1000,3	-3,6
1000,7	-2,514
1001,1	-2,086
1001,5	0,8
1002	6,371
1002,4	10,457
1002,8	8,114
1003,2	8,257
1003,6	12,886
1004	18,343
1004,5	17,114
1004,9	14,086
1005,3	10,543
1005,7	13,8
1006,1	12,543
1006,6	9,543
1007	7,457
1007,4	6,057
1007,8	6,086
1008,2	2,229
1008,6	4,429
1009,1	3,114
1009,5	5,286
1009,9	3,543
1010,3	8,114
1010,7	10,686
1011,1	15,371
1011,6	15,029
1012	20,686
1012,4	16,2
1012,8	16,4
1013,2	19
1013,6	18,057
1014,1	20,629
1014,5	17,229
1014,9	15,771
1015,3	14,743
1015,7	16,571
1016,1	10,171
1016,6	5,171
1017	3,429
1017,4	6,2
1017,8	7,457
1018,2	12,771
1018,6	10,229
1019,1	13,971
1019,5	16,114
1019,9	12,286
1020,3	10,629
1020,7	9,943
1021,1	7,543
1021,6	6,914
1022	6,457
1022,4	5,629
1022,8	6,2
1023,2	6,4
1023,6	4,943
1024,1	8,371
1024,5	13,657
1024,9	8,657
1025,3	7,257
1025,7	10,429
1026,1	14,057
1026,6	12,857
1027	11,057
1027,4	9,686
1027,8	11,257
1028,2	14,229
1028,6	17,857
1029	16,486
1029,5	25,457
1029,9	24,571
1030,3	18,914
1030,7	22,514
1031,1	23,257
1031,5	14,2
1032	8,771
1032,4	4,371
1032,8	2,657
1033,2	8,743
1033,6	5,886
1034	4,543
1034,4	4,914
1034,9	12,8
1035,3	5,543
1035,7	8,057
1036,1	5,743
1036,5	2,886
1036,9	3,971
1037,4	12,543
1037,8	4,457
1038,2	5,514
1038,6	4,686
1039	8,657
1039,4	14,286
1039,8	8,943
1040,3	7,457
1040,7	6,286
1041,1	9,657
1041,5	10,457
1041,9	5,514
1042,3	2,714
1042,7	8,486
1043,2	5,086
1043,6	9,6
1044	7,229
1044,4	6,914
1044,8	9,257
1045,2	6,971
1045,6	6
1046,1	4,743
1046,5	4,829
1046,9	4,171
1047,3	2,771
1047,7	-3,2
1048,1	-1,6
1048,5	-2,714
1049	-1,114
1049,4	4,086
1049,8	7
1050,2	11,429
1050,6	20,057
1051	24,343
1051,4	25,657
1051,9	26,314
1052,3	28,857
1052,7	25,543
1053,1	20,886
1053,5	18,714
1053,9	15,857
1054,3	14,714
1054,8	20,086
1055,2	16,343
1055,6	20,371
1056	21,143
1056,4	16,543
1056,8	20,857
1057,2	20,257
1057,6	11,371
1058,1	8,2
1058,5	3,286
1058,9	4,714
1059,3	8,429
1059,7	3,429
1060,1	5,343
1060,5	8,714
1061	6,886
1061,4	7,714
1061,8	8,829
1062,2	10,6
1062,6	15,2
1063	10,943
1063,4	12,457
1063,8	10,457
1064,3	13,057
1064,7	12
1065,1	10,286
1065,5	0,629
1065,9	5,457
1066,3	2,4
1066,7	3,829
1067,1	-0,714
1067,6	3,8
1068	0,057
1068,4	6,286
1068,8	6,943
1069,2	11,2
1069,6	14,343
1070	23,029
1070,4	16,429
1070,9	18,514
1071,3	17,543
1071,7	13,714
1072,1	9,743
1072,5	4
1072,9	-0,257
1073,3	1,6
1073,7	-2,171
1074,2	-0,343
1074,6	0,543
1075	3,429
1075,4	6,971
1075,8	8,6
1076,2	10
1076,6	16,114
1077	17,943
1077,5	24,2
1077,9	21,343
1078,3	20,371
1078,7	16,914
1079,1	15,029
1079,5	10,971
1079,9	10,057
1080,3	5,143
1080,7	7,229
1081,2	10,914
1081,6	10,4
1082	12,4
1082,4	21,314
1082,8	18,429
1083,2	15,371
1083,6	16,229
1084	14,314
1084,5	18,6
1084,9	12,686
1085,3	1,886
1085,7	6,514
1086,1	6,657
1086,5	3,286
1086,9	8,2
1087,3	5,057
1087,7	8,857
1088,2	17
1088,6	12,6
1089	14,857
1089,4	16,886
1089,8	14,8
1090,2	16,714
1090,6	14,114
1091	13,914
1091,4	15,486
1091,9	15,314
1092,3	19,2
1092,7	14,829
1093,1	17,714
1093,5	20,771
1093,9	18,143
1094,3	20,829
1094,7	23,6
1095,1	20,429
1095,5	25,686
1096	17,829
1096,4	15,543
1096,8	12,714
1097,2	9,314
1097,6	12,6
1098	9,771
1098,4	5,857
1098,8	11,057
1099,2	17,943
1099,6	19,771
1100,1	19,686
1100,5	12,286
1100,9	12,057
1101,3	13,629
1101,7	11,4
1102,1	7,086
1102,5	8,429
1102,9	9,857
1103,3	14,343
1103,7	16,714
1104,2	13,514
1104,6	13
1105	10,029
1105,4	9,029
1105,8	6,143
1106,2	1,886
1106,6	-0,057
1107	0,686
1107,4	1,367
1107,8	3,08
1108,3	-0,05
