Data from Subt2_153.txt Node
Date: Sat Aug 26 18:32:03 MSK 2023
User: vat
Spectrometer: MAYP114033
Trigger mode: 0
Integration Time (sec): 1,000000E0
Scans to average: 5
Electric dark correction enabled: true
Nonlinearity correction enabled: false
Boxcar width: 3
XAxis mode: Wavelengths
Number of Pixels in Spectrum: 2068
>>>>>Begin Spectral Data<<<<<
199,4	0,6
199,9	1,06
200,4	-2,567
200,8	-3,157
201,3	-3,5
201,8	-4,929
202,2	-9,043
202,7	-6,1
203,2	-7,586
203,6	-4,129
204,1	-2,7
204,6	-1,471
205	-0,014
205,5	8,414
206	7,357
206,4	10,443
206,9	7,586
207,4	7,929
207,8	4,929
208,3	3,871
208,8	-1,9
209,2	-2,071
209,7	-4,071
210,2	-1,043
210,6	0,786
211,1	4,9
211,5	1,443
212	2,557
212,5	-0,9
212,9	-3,614
213,4	-3,786
213,9	-5,271
214,3	-5,957
214,8	-0,7
215,3	-1,757
215,7	3,614
216,2	6,529
216,7	7,3
217,1	4,471
217,6	5,643
218,1	3,071
218,5	0,3
219	-6,614
219,5	-5,357
219,9	-10,071
220,4	-5,157
220,9	-8,614
221,3	-5,7
221,8	-1,843
222,3	1,929
222,7	4,729
223,2	11,5
223,6	5,9
224,1	4,757
224,6	4,357
225	-1,3
225,5	-2,586
226	-6,443
226,4	-5,5
226,9	1,3
227,4	4,729
227,8	0,786
228,3	4,243
228,8	3,014
229,2	3,814
229,7	2,157
230,2	-3,557
230,6	-4,929
231,1	3,271
231,5	5,471
232	10,614
232,5	8,014
232,9	6,357
233,4	8,9
233,9	6,129
234,3	2,3
234,8	-0,443
235,3	-3,929
235,7	-4,843
236,2	-1,871
236,7	-3,643
237,1	-0,671
237,6	-2,814
238,1	-2,5
238,5	-5,871
239	-0,614
239,4	-0,5
239,9	-3,043
240,4	-2,186
240,8	-0,3
241,3	0,1
241,8	2,014
242,2	3,214
242,7	-4,071
243,2	2,157
243,6	-2,7
244,1	0,186
244,6	2,3
245	5,357
245,5	1,557
245,9	-0,643
246,4	-2,729
246,9	1,386
247,3	-2,814
247,8	-2,7
248,3	-2,786
248,7	-4,243
249,2	3,729
249,7	0,757
250,1	2,043
250,6	2,557
251	3,471
251,5	2,443
252	6,186
252,4	6,3
252,9	4,843
253,4	1,7
253,8	0,214
254,3	-2,786
254,8	-2,071
255,2	-8,586
255,7	-14,214
256,1	-10,186
256,6	-7,871
257,1	-6,386
257,5	-10,129
258	-15,243
258,5	-13,357
258,9	-8,929
259,4	-10,1
259,9	-10,014
260,3	-13,786
260,8	-14,557
261,2	-11,729
261,7	-4,7
262,2	-8,929
262,6	-10,329
263,1	-7,7
263,6	-1,471
264	5,586
264,5	8,557
264,9	4,843
265,4	9,614
265,9	10,3
266,3	8,243
266,8	5,786
267,3	-1,529
267,7	-2,757
268,2	-3,043
268,7	-2,3
269,1	-2,186
269,6	-7,557
270	-1,357
270,5	-0,357
271	0,357
271,4	0,014
271,9	-7,186
272,4	-3,986
272,8	2,7
273,3	-3,5
273,7	3,357
274,2	2,986
274,7	3,471
275,1	10,1
275,6	10,186
276,1	5,929
276,5	9,729
277	8,5
277,4	9,814
277,9	8,929
278,4	5,929
278,8	5,529
279,3	6,271
279,8	6,529
280,2	6,329
280,7	7,014
281,1	5,243
281,6	8,157
282,1	4,271
282,5	5,9
283	0,871
283,4	0,071
283,9	-1,9
284,4	1,3
284,8	2,1
285,3	3,729
285,8	4,1
286,2	2,671
286,7	2,986
287,1	2,271
287,6	-1,386
288,1	-7,357
288,5	-5,643
289	-6,843
289,5	-4,043
289,9	-3,614
290,4	-1,671
290,8	0,043
291,3	3,529
291,8	5,357
292,2	8,271
292,7	11,329
293,1	12,157
293,6	9,386
294,1	7,043
294,5	6,157
295	0,3
295,5	-7,157
295,9	-8,043
296,4	-11,957
296,8	-11,957
297,3	-7,414
297,8	-8,071
298,2	-8,014
298,7	-1,357
299,1	-2,986
299,6	-1,129
300,1	3,357
300,5	0,071
301	3,986
301,5	9,9
301,9	7,471
302,4	6,3
302,8	3,786
303,3	1,357
303,8	1,414
304,2	-3,7
304,7	-7,586
305,1	-8,357
305,6	-8,043
306,1	1,843
306,5	3,586
307	8,7
307,4	13,986
307,9	15,786
308,4	16,671
308,8	12,957
309,3	6,3
309,8	2,757
310,2	2,614
310,7	-2,929
311,1	-4,957
311,6	-8,186
312,1	-2,671
312,5	-2,071
313	-0,043
313,4	-1,471
313,9	5,357
314,4	6,414
314,8	9,471
315,3	10,414
315,7	3,871
316,2	1,9
316,7	-2,929
317,1	-2,9
317,6	-1,871
318	2,186
318,5	-1,271
319	4,671
319,4	10,043
319,9	18,9
320,3	15,671
320,8	12,243
321,3	10,357
321,7	11,671
322,2	11,271
322,6	7,757
323,1	0,957
323,6	-1,329
324	-0,214
324,5	-4,843
324,9	-5,014
325,4	-6,043
325,9	-4,471
326,3	-2,1
326,8	1,957
327,2	-0,357
327,7	2,643
328,2	1,3
328,6	3,986
329,1	-0,357
329,5	-2,214
330	-4,3
330,5	2,071
330,9	4,043
331,4	8,014
331,8	4,757
332,3	8,671
332,8	11,014
333,2	9,814
333,7	10,071
334,1	11,271
334,6	2,5
335,1	0,614
335,5	0,586
336	-0,757
336,4	2,5
336,9	2,786
337,4	1,9
337,8	9,014
338,3	11,386
338,7	12,814
339,2	10,386
339,7	7,271
340,1	2,671
340,6	2,243
341	0,129
341,5	0,786
342	-2,871
342,4	-0,214
342,9	-2,643
343,3	1,9
343,8	2,386
344,2	5,443
344,7	8,9
345,2	8,1
345,6	7,5
346,1	12,071
346,5	8,186
347	4,5
347,5	0,786
347,9	2,186
348,4	3,986
348,8	3,157
349,3	1,557
349,8	3,986
350,2	9,929
350,7	8,014
351,1	5,9
351,6	13,729
352	14,7
352,5	17,443
353	22,843
353,4	22,671
353,9	34,014
354,3	43,186
354,8	47,586
355,3	63,386
355,7	80,357
356,2	98,443
356,6	118,557
357,1	140,3
357,5	163,557
358	189,871
358,5	219,557
358,9	249,157
359,4	283,3
359,8	325,243
360,3	374,243
360,8	422,3
361,2	477,986
361,7	540,871
362,1	616,529
362,6	693,929
363	780,357
363,5	864,986
364	964,957
364,4	1062,443
364,9	1159,757
365,3	1256,843
365,8	1346,9
366,3	1428,271
366,7	1507,9
367,2	1575,529
367,6	1629,7
368,1	1675,186
368,5	1703,443
369	1721,243
369,5	1727,786
369,9	1715,586
370,4	1690,786
370,8	1656,3
371,3	1605,043
371,7	1545,386
372,2	1479,443
372,7	1407,957
373,1	1329,843
373,6	1249,3
374	1171,1
374,5	1096,5
374,9	1024,671
375,4	951,5
375,9	881,1
376,3	817,043
376,8	752,5
377,2	694,471
377,7	632,814
378,2	571,786
378,6	520,043
379,1	472,3
379,5	433,3
380	399,729
380,4	361,443
380,9	330,614
381,4	305,729
381,8	282,357
382,3	265,557
382,7	245,014
383,2	225,929
383,6	215,071
384,1	206,586
384,6	192,386
385	178,9
385,5	161,014
385,9	149,557
386,4	138,614
386,8	128,443
387,3	111,357
387,7	106,386
388,2	101,271
388,7	99,243
389,1	90,5
389,6	85,014
390	79,871
390,5	82,871
390,9	74,814
391,4	70,871
391,9	61,3
392,3	60,671
392,8	53,186
393,2	45,643
393,7	36,671
394,1	34,357
394,6	33,186
395,1	33,414
395,5	27,329
396	28,757
396,4	29,557
396,9	32,129
397,3	37,3
397,8	36,214
398,2	34,814
398,7	38,043
399,2	37,9
399,6	37,757
400,1	37,729
400,5	31,386
401	29,043
401,4	26,814
401,9	27,929
402,4	30,271
402,8	26,014
403,3	28,843
403,7	26,414
404,2	28,3
404,6	32,729
405,1	28,386
405,5	24,643
406	27,214
406,5	22,443
406,9	26,843
407,4	27,7
407,8	28,729
408,3	34,1
408,7	32,929
409,2	39,243
409,6	44,129
410,1	50,814
410,6	58,929
411	57,214
411,5	59,3
411,9	68,871
412,4	68,814
412,8	72,071
413,3	72,643
413,7	71,557
414,2	74,586
414,7	82,186
415,1	88,243
415,6	95,014
416	99,186
416,5	103,671
416,9	110,214
417,4	118,957
417,8	125,957
418,3	131,929
418,8	137,157
419,2	144,271
419,7	150,5
420,1	152,614
420,6	161,814
421	165,5
421,5	171,557
421,9	180,671
422,4	188,986
422,8	197,014
423,3	207,271
423,8	210,957
424,2	211,643
424,7	216,443
425,1	221,443
425,6	232,357
426	237,757
426,5	246,271
426,9	259,3
427,4	266,386
427,9	271,614
428,3	284,9
428,8	287,814
429,2	299,071
429,7	308,643
430,1	315,586
430,6	335,643
431	352,786
431,5	364,529
431,9	378,643
432,4	397,443
432,8	416,614
433,3	436,014
433,8	453,471
434,2	475,071
434,7	498,443
435,1	527,643
435,6	548,643
436	573,729
436,5	601,186
436,9	627,386
437,4	652,386
437,8	680,614
438,3	706,814
438,8	737,843
439,2	771,586
439,7	809,586
440,1	848,014
440,6	887,986
441	924,757
441,5	968,214
441,9	1011,843
442,4	1050,243
442,8	1089,757
443,3	1135,7
443,7	1184,757
444,2	1239,129
444,7	1284,386
445,1	1336,814
445,6	1390,786
446	1447,071
446,5	1496,529
446,9	1549,986
447,4	1602,671
447,8	1667,386
448,3	1730,814
448,7	1798,386
449,2	1866,214
449,6	1941,443
450,1	2001,386
450,6	2075,729
451	2146,3
451,5	2216,586
451,9	2289,014
452,4	2363,929
452,8	2432,214
453,3	2520,814
453,7	2591,471
454,2	2670,1
454,6	2744,557
455,1	2823,129
455,5	2893,643
456	2976,386
456,4	3054,1
456,9	3140,614
457,3	3226,043
457,8	3309,671
458,3	3399,157
458,7	3495,986
459,2	3591,186
459,6	3685,529
460,1	3779,071
460,5	3863,271
461	3969,214
461,4	4054,757
461,9	4148,9
462,3	4240,414
462,8	4338,5
463,2	4437,157
463,7	4539,271
464,1	4631,271
464,6	4735,729
465	4830,614
465,5	4923,529
466	5018,671
466,4	5104,214
466,9	5202,1
467,3	5296,471
467,8	5389,214
468,2	5481,271
468,7	5575,9
469,1	5672,443
469,6	5769,786
470	5857,557
470,5	5947,671
470,9	6030,5
471,4	6118,186
471,8	6207,757
472,3	6284,014
472,7	6365,986
473,2	6445,157
473,6	6517,043
474,1	6596,271
474,5	6675,157
475	6754,043
475,4	6833,529
475,9	6909,7
476,4	6986,757
476,8	7072,071
477,3	7147,357
477,7	7217,243
478,2	7278,529
478,6	7334,471
479,1	7386,843
479,5	7434,271
480	7478,471
480,4	7529,843
480,9	7573,214
481,3	7616,643
481,8	7669,071
482,2	7713,586
482,7	7766,071
483,1	7804,043
483,6	7837,586
484	7871,929
484,5	7910,386
484,9	7932,071
485,4	7960,529
485,8	7978,471
486,3	8001,786
486,7	8022,414
487,2	8036,786
487,6	8048,043
488,1	8056,071
488,5	8062,757
489	8076,443
489,4	8081,3
489,9	8081,843
490,4	8090,243
490,8	8085,129
491,3	8094,529
491,7	8095,643
492,2	8085,3
492,6	8074,757
493,1	8058,814
493,5	8028,557
494	8000,586
494,4	7977,557
494,9	7943,271
495,3	7924,786
495,8	7902,1
496,2	7880,214
496,7	7867,243
497,1	7847,786
497,6	7816,871
498	7787,786
498,5	7749,243
498,9	7710,843
499,4	7677,329
499,8	7637,243
500,3	7598,071
500,7	7550,329
501,2	7517,043
501,6	7476,843
502,1	7437,757
502,5	7390,271
503	7345,157
503,4	7306,1
503,9	7268,614
504,3	7226,1
504,8	7171,271
505,2	7126,5
505,7	7080,386
506,1	7027,929
506,6	6972,1
507	6916,929
507,5	6858,757
507,9	6809,129
508,4	6751,614
508,8	6695,957
509,3	6641,843
509,7	6589,471
510,2	6536,643
510,6	6472,443
511,1	6413,729
511,5	6358,729
512	6299,614
512,4	6244,9
512,9	6184,014
513,3	6123,843
513,8	6066,929
514,2	6013,729
514,7	5950,071
515,1	5885,157
515,6	5821,557
516	5756,786
516,5	5702,586
516,9	5649,3
517,4	5589,3
517,8	5535,471
518,3	5482,386
518,7	5429,586
519,2	5381,243
519,6	5315,214
520,1	5256,814
520,5	5191,243
521	5128,7
521,4	5075,871
521,9	5019,043
522,3	4960,414
522,8	4905,3
523,2	4854,071
523,7	4805,357
524,1	4753,014
524,6	4694,957
525	4635,271
525,5	4581,9
525,9	4532,9
526,4	4474,671
526,8	4420,814
527,3	4366,586
527,7	4314,586
528,2	4266,557
528,6	4216,814
529,1	4162,5
529,5	4117,129
530	4073,843
530,4	4027,3
530,9	3983,586
531,3	3940,471
531,8	3897,157
532,2	3863,014
532,6	3815,071
533,1	3766,014
533,5	3718,214
534	3672,357
534,4	3629,729
534,9	3584,729
535,3	3533,643
535,8	3493,7
536,2	3452,471
536,7	3420,643
537,1	3386,386
537,6	3345,014
538	3307,471
538,5	3270,443
538,9	3232,643
539,4	3202,471
539,8	3159,529
540,3	3125,871
540,7	3092,071
541,2	3058,814
541,6	3028,7
542,1	2994,843
542,5	2958,757
543	2930,9
543,4	2891,043
543,9	2860,843
544,3	2831,786
544,8	2795,643
545,2	2767,129
545,7	2739,7
546,1	2715,414
546,5	2695,557
547	2660,214
547,4	2629,186
547,9	2602,957
548,3	2579,843
548,8	2551,843
549,2	2518,5
549,7	2484,386
550,1	2461,186
550,6	2433,957
551	2404,214
551,5	2377,386
551,9	2351,814
552,4	2327,214
552,8	2303,071
553,3	2280,871
553,7	2261,757
554,2	2245,157
554,6	2223,729
555,1	2200,986
555,5	2183,843
555,9	2166,129
556,4	2144,843
556,8	2122,929
557,3	2099,3
557,7	2081,671
558,2	2062,043
558,6	2045,3
559,1	2021,243
559,5	2002,643
560	1978,643
560,4	1962,071
560,9	1943,071
561,3	1920,386
561,8	1897,071
562,2	1883,957
562,7	1865,729
563,1	1855,814
563,6	1833,929
564	1815,357
564,4	1801,671
564,9	1785,471
565,3	1770,1
565,8	1758,386
566,2	1737,9
566,7	1727,871
567,1	1714,271
567,6	1700,7
568	1684,414
568,5	1671,471
568,9	1652,529
569,4	1642,214
569,8	1627,471
570,3	1608,729
570,7	1588,414
571,1	1574,986
571,6	1561,7
572	1553,614
572,5	1538,814
572,9	1529,129
573,4	1520,557
573,8	1514,614
574,3	1505,157
574,7	1490,814
575,2	1473,271
575,6	1461,5
576,1	1449,157
576,5	1440,186
576,9	1425,1
577,4	1412,5
577,8	1395,071
578,3	1386,614
578,7	1374,043
579,2	1368,643
579,6	1349,386
580,1	1339,786
580,5	1333,414
581	1332,5
581,4	1321,986
581,9	1315,129
582,3	1294,871
582,7	1285,643
583,2	1273,986
583,6	1261,5
584,1	1252,729
584,5	1246,271
585	1232,443
585,4	1220,957
585,9	1212,014
586,3	1210,129
586,8	1198,186
587,2	1181,729
587,6	1173,157
588,1	1171,643
588,5	1168,9
589	1164,357
589,4	1154,357
589,9	1146,243
590,3	1137,757
590,8	1128,071
591,2	1116,557
591,7	1108,243
592,1	1098,671
592,5	1096,9
593	1086,871
593,4	1082,786
593,9	1071,529
594,3	1062,557
594,8	1052,557
595,2	1047,529
595,7	1034,7
596,1	1025,671
596,6	1018,843
597	1011,814
597,4	1007,757
597,9	1006,243
598,3	1001,557
598,8	996,243
599,2	997,671
599,7	990,557
600,1	982,043
600,6	972,643
601	964,414
601,4	959,843
601,9	951,3
602,3	939,7
602,8	932,243
603,2	930,1
603,7	926,3
604,1	920,243
604,6	908,9
605	901,243
605,4	899,643
605,9	891,014
606,3	880,757
606,8	874,586
607,2	868,271
607,7	862,386
608,1	860,243
608,6	855,014
609	859,157
609,4	860,214
609,9	850,5
610,3	840,414
610,8	837,157
611,2	832,3
611,7	824,614
612,1	814,329
612,6	807,757
613	807,1
613,4	801,757
613,9	795,214
614,3	787,014
614,8	784,757
615,2	778,071
615,7	780,386
616,1	774,243
616,6	770,157
617	765,871
617,4	760,043
617,9	756,786
618,3	757,614
618,8	751,271
619,2	747,3
619,7	749,871
620,1	740,7
620,5	739,643
621	731,843
621,4	727,071
621,9	715,986
622,3	711,929
622,8	703,271
623,2	703,786
623,6	696,729
624,1	695,871
624,5	688,5
625	690,157
625,4	686,814
625,9	682,929
626,3	675,129
626,8	667,586
627,2	661,443
627,6	650,671
628,1	641,186
628,5	638,243
629	636,443
629,4	633,557
629,9	634,329
630,3	624,157
630,7	623,529
631,2	619,443
631,6	615,271
632,1	610,014
632,5	608,557
633	608,3
633,4	606,986
633,8	606,071
634,3	601,329
634,7	595,271
635,2	585,643
635,6	582,129
636,1	573,986
636,5	566,586
636,9	560,443
637,4	561,3
637,8	552,1
638,3	549,1
638,7	545,814
639,2	540,586
639,6	543,871
640	539,243
640,5	530,529
640,9	529,786
641,4	530,214
641,8	524,1
642,2	520,129
642,7	522,586
643,1	520,271
643,6	521,557
644	518,957
644,5	520,414
644,9	517,586
645,3	516,071
645,8	505,471
646,2	502,757
646,7	497,471
647,1	495,643
647,6	491,671
648	492,3
648,4	488,814
648,9	489,7
649,3	485,214
649,8	482,557
650,2	478,729
650,6	474,529
651,1	465,757
651,5	465,671
652	458,929
652,4	458,414
652,9	451,9
653,3	447,329
653,7	440,643
654,2	440,243
654,6	430,443
655,1	429,3
655,5	430,529
655,9	431,757
656,4	431,014
656,8	431,643
657,3	429,5
657,7	434,043
658,2	433,557
658,6	428,586
659	430,043
659,5	425,357
659,9	422,071
660,4	417,643
660,8	407,529
661,2	397,757
661,7	392,7
662,1	388,3
662,6	386,186
663	381,129
663,4	381,443
663,9	383,1
664,3	384,557
664,8	381,843
665,2	373,071
665,6	369,357
666,1	369,471
666,5	364,814
667	362,3
667,4	359,043
667,9	359,357
668,3	358,186
668,7	354,443
669,2	351,557
669,6	350,129
670,1	345,957
670,5	338,557
670,9	330,757
671,4	330,1
671,8	333,814
672,3	335,471
672,7	335,814
673,1	334,643
673,6	336,9
674	341,786
674,5	334,529
674,9	321,3
675,3	311,129
675,8	307,071
676,2	304,071
676,7	299,357
677,1	291,786
677,5	292,243
678	298,529
678,4	301,5
678,9	297,929
679,3	300,729
679,7	298,814
680,2	295,386
680,6	292,271
681,1	290,071
681,5	290,557
681,9	288,329
682,4	284,329
682,8	286,5
683,3	286,9
683,7	289,014
684,1	290,5
684,6	285,329
685	279,643
685,5	279,157
685,9	272,586
686,3	268,071
686,8	264,043
687,2	259,643
687,7	254,557
688,1	253,129
688,5	250,957
689	251,9
689,4	251,014
689,9	248,071
690,3	239,557
690,7	238,014
691,2	239,786
691,6	235,529
692	235,214
692,5	236,1
692,9	235,071
693,4	239,414
693,8	241,386
694,2	239,157
694,7	236,814
695,1	234,357
695,6	232,1
696	236,157
696,4	233,014
696,9	225,643
697,3	221,529
697,8	219,7
698,2	215,014
698,6	211,529
699,1	209,186
699,5	210,471
699,9	212,9
700,4	213,3
700,8	214,071
701,3	216,757
701,7	217,5
702,1	213,386
702,6	211,129
703	210,329
703,5	209,986
703,9	206,557
704,3	203,7
704,8	201,671
705,2	201,214
705,6	198,243
706,1	197,929
706,5	192,071
707	190,671
707,4	193,043
707,8	192,643
708,3	190,614
708,7	189,386
709,2	187,614
709,6	187,557
710	190,786
710,5	182,1
710,9	177,671
711,3	173,386
711,8	173,386
712,2	172,557
712,7	172,071
713,1	167,957
713,5	172,414
714	173,014
714,4	170,071
714,8	171,014
715,3	168,071
715,7	169,386
716,2	166,843
716,6	165,243
717	159,843
717,5	161,3
717,9	162,1
718,3	156,043
718,8	153,471
719,2	154,986
719,7	153,643
720,1	156,471
720,5	158,357
721	150,614
721,4	155,929
721,8	158,557
722,3	154,271
722,7	155,014
723,2	150,071
723,6	140,643
724	138,386
724,5	136,757
724,9	132,957
725,3	133,5
725,8	127,957
726,2	131,329
726,7	137,757
727,1	137,871
727,5	137,786
728	139,929
728,4	136,729
728,8	137,7
729,3	131,757
729,7	126,786
730,1	129,186
730,6	126,643
731	122,386
731,5	120,957
731,9	116,7
732,3	120,871
732,8	122,929
733,2	120,729
733,6	118,1
734,1	117,271
734,5	116,843
734,9	121,957
735,4	125,271
735,8	119,643
736,3	121,3
736,7	120,671
737,1	118,471
737,6	122,557
738	121,443
738,4	116,3
738,9	119,043
739,3	115,071
739,7	117,443
740,2	117,157
740,6	117,957
741,1	118,129
741,5	114,957
741,9	115,186
742,4	118,814
742,8	117,443
743,2	117,843
743,7	109,3
744,1	103,614
744,5	102,729
745	104,243
745,4	100,471
745,8	100,357
746,3	102,614
746,7	101,9
747,2	101,671
747,6	106,271
748	106,671
748,5	111,957
748,9	107,043
749,3	103,386
749,8	106,386
750,2	108,729
750,6	100,871
751,1	100,929
751,5	97,471
751,9	101,271
752,4	102,471
752,8	103,957
753,3	100,186
753,7	106,814
754,1	97,386
754,6	95,586
755	90,014
755,4	86,957
755,9	84,643
756,3	87,071
756,7	86,729
757,2	91,3
757,6	88,757
758	92,671
758,5	92,5
758,9	90,986
759,3	90,643
759,8	87,014
760,2	85,586
760,6	86,157
761,1	82,186
761,5	82,671
761,9	80,643
762,4	76,843
762,8	76,9
763,3	76,529
763,7	77,671
764,1	79,014
764,6	81,986
765	87,186
765,4	88,671
765,9	90,7
766,3	91,614
766,7	88,5
767,2	88,614
767,6	86,557
768	84,386
768,5	80,586
768,9	78,471
769,3	77,871
769,8	77,586
770,2	76,957
770,6	73,757
771,1	73,814
771,5	77,386
771,9	77,7
772,4	79,986
772,8	79,243
773,2	79,786
773,7	81,557
774,1	79,843
774,5	73,814
775	69,929
775,4	69,729
775,8	65,786
776,3	62,814
776,7	59,329
777,1	59,271
777,6	63,471
778	66,5
778,4	62,043
778,9	66,9
779,3	65,586
779,7	65,5
780,2	64,671
780,6	62,186
781	59,557
781,5	59,929
781,9	58,186
782,3	56,614
782,8	56,9
783,2	54,9
783,6	59,871
784,1	60,329
784,5	55,471
784,9	52,986
785,4	56,814
785,8	58,043
786,2	55,671
786,7	50,7
787,1	49,1
787,5	51,614
788	55,386
788,4	55,929
788,8	54,3
789,3	58,529
789,7	59,243
790,1	57,929
790,6	56,814
791	52,129
791,4	50,7
791,9	49,529
792,3	44,814
792,7	47,671
793,2	49,043
793,6	49,757
794	52,557
794,5	48,557
794,9	50,757
795,3	54,186
795,8	49,814
796,2	51,071
796,6	51,786
797,1	52,071
797,5	50,414
797,9	47,471
798,4	46,786
798,8	46,557
799,2	42,3
799,7	46,443
800,1	42,557
800,5	46,871
801	47,7
801,4	44,843
801,8	46,271
802,2	45,757
802,7	42,414
803,1	41,757
803,5	40,986
804	37,757
804,4	40,043
804,8	37,1
805,3	42,014
805,7	40,386
806,1	40,671
806,6	43,071
807	46,1
807,4	45,214
807,9	42,5
808,3	40,386
808,7	42,043
809,2	46,586
809,6	45,643
810	47,271
810,4	45,471
810,9	49,7
811,3	51,614
811,7	51,014
812,2	50,814
812,6	48,014
813	50,414
813,5	49,329
813,9	45,843
814,3	39,214
814,8	37,786
815,2	29,186
815,6	30,843
816,1	28,586
816,5	31,586
816,9	37,071
817,3	39,814
817,8	44,214
818,2	53,414
818,6	52,614
819,1	49,9
819,5	47,386
819,9	45,186
820,4	45,7
820,8	40,443
821,2	33,271
821,7	35,043
822,1	35,414
822,5	39,5
822,9	37,3
823,4	33,157
823,8	33,671
824,2	36,643
824,7	28,929
825,1	23,843
825,5	19,786
826	17,414
826,4	20,814
826,8	16,357
827,3	17,386
827,7	16,386
828,1	22,329
828,5	21,357
829	21,643
829,4	20,9
829,8	19,929
830,3	18,986
830,7	19,9
831,1	18,471
831,6	20,1
832	25,386
832,4	25,271
832,8	29,214
833,3	25,357
833,7	26,557
834,1	26,214
834,6	21,986
835	19,271
835,4	19,243
835,8	20,071
836,3	21,157
836,7	22,871
837,1	21,071
837,6	24,014
838	23,843
838,4	22,614
838,9	22,957
839,3	21,529
839,7	21,986
840,1	15,814
840,6	15,071
841	13,329
841,4	14,186
841,9	13,357
842,3	15,386
842,7	16,757
843,1	24,014
843,6	27,443
844	27,3
844,4	29,871
844,9	31,014
845,3	31,414
845,7	29,671
846,2	25,357
846,6	21,1
847	23,357
847,4	23,043
847,9	21,157
848,3	19,671
848,7	21,014
849,2	22,186
849,6	18,786
850	17,186
850,4	13,729
850,9	11,129
851,3	13,071
851,7	12,9
852,2	12,671
852,6	17,129
853	18,643
853,4	19,014
853,9	18,186
854,3	18,443
854,7	15,7
855,2	17,243
855,6	18,557
856	14,9
856,4	12,586
856,9	9,529
857,3	8,7
857,7	14,043
858,2	18,043
858,6	12,757
859	13,871
859,4	14,729
859,9	19,329
860,3	16,986
860,7	13,014
861,1	11,443
861,6	18,014
862	20,357
862,4	21,157
862,9	21,157
863,3	27,014
863,7	27,671
864,1	25,443
864,6	21,186
865	18,014
865,4	20,557
865,9	23,671
866,3	18,786
866,7	15,414
867,1	13,3
867,6	15,243
868	17,586
868,4	11,929
868,8	9,786
869,3	7,729
869,7	14,729
870,1	15,043
870,6	12,614
871	15,129
871,4	22,186
871,8	18,7
872,3	23,9
872,7	21,014
873,1	19,157
873,5	20,871
874	15,386
874,4	13,186
874,8	10,843
875,3	10,357
875,7	9,071
876,1	12,271
876,5	13,043
877	14,986
877,4	13,157
877,8	17,929
878,2	17,157
878,7	17,786
879,1	17,071
879,5	15,3
879,9	15,386
880,4	16,786
880,8	16,557
881,2	13,5
881,7	13,157
882,1	14,014
882,5	10,957
882,9	8,643
883,4	7,9
883,8	10,729
884,2	10,386
884,6	6,186
885,1	6,329
885,5	11,129
885,9	11,1
886,3	10,7
886,8	7,843
887,2	10,186
887,6	13,1
888	8,671
888,5	6,671
888,9	8,586
889,3	4,5
889,8	3,129
890,2	2,3
890,6	-0,357
891	0,929
891,5	-1,5
891,9	-2,157
892,3	3,443
892,7	2,443
893,2	1,529
893,6	8,186
894	11,557
894,4	10,586
894,9	9,843
895,3	6,843
895,7	10,043
896,1	6,986
896,6	2,529
897	2,014
897,4	6,471
897,8	13,129
898,3	13,243
898,7	10,357
899,1	15,071
899,5	12,3
900	9,043
900,4	7,043
900,8	-4,3
901,2	-5,757
901,7	-6,329
902,1	-7,614
902,5	-1,614
902,9	-0,414
903,4	1,7
903,8	7,614
904,2	6,643
904,6	8,843
905,1	10,957
905,5	8,5
905,9	9,786
906,3	11,071
906,8	13,157
907,2	17,243
907,6	18,557
908	15,243
908,5	13,729
908,9	12,871
909,3	10,7
909,7	8,043
910,2	7,9
910,6	9,043
911	9,814
911,4	11,986
911,9	8,129
912,3	6,471
912,7	7,871
913,1	5,671
913,6	2,386
914	5,929
914,4	2,271
914,8	5,957
915,3	5,529
915,7	2,529
916,1	1,557
916,5	5,557
916,9	1,557
917,4	4,871
917,8	5,329
918,2	3,157
918,6	1,871
919,1	2,014
919,5	1,214
919,9	1,957
920,3	-1,929
920,8	-3,786
921,2	-3,071
921,6	0,386
922	0,5
922,5	-4,557
922,9	-3,1
923,3	-3,1
923,7	-2,414
924,2	-0,443
924,6	-1,643
925	1,186
925,4	5,271
925,8	3,157
926,3	2,3
926,7	2,443
927,1	-1,7
927,5	-1,814
928	-2,014
928,4	-6,471
928,8	-3,7
929,2	-2,157
929,7	-1,7
930,1	2,129
930,5	0,929
930,9	2,071
931,3	5,043
931,8	2,843
932,2	2,643
932,6	1,043
933	-1,557
933,5	1,443
933,9	3,014
934,3	6,471
934,7	4,271
935,2	7,414
935,6	9,557
936	15,7
936,4	17,557
936,8	16,929
937,3	8,586
937,7	13,243
938,1	13,357
938,5	7,3
939	5,786
939,4	2,986
939,8	-1,043
940,2	2,786
940,6	0,5
941,1	-1,814
941,5	5,5
941,9	1,729
942,3	4,357
942,8	5,1
943,2	5,071
943,6	5,557
944	9,957
944,4	7,071
944,9	7,157
945,3	4,243
945,7	-0,186
946,1	-0,757
946,6	-3,386
947	-8,214
947,4	-3,043
947,8	-0,871
948,2	-4,214
948,7	0,7
949,1	-0,129
949,5	5,671
949,9	7,929
950,3	4,414
950,8	4,671
951,2	10,357
951,6	7,043
952	11,7
952,5	2,043
952,9	2,529
953,3	2,271
953,7	-0,357
954,1	-3,043
954,6	4,386
955	5,614
955,4	9,443
955,8	12,271
956,2	10,043
956,7	14,043
957,1	12,643
957,5	10,957
957,9	9,671
958,3	10,129
958,8	7,671
959,2	9,357
959,6	9,729
960	11,386
960,5	13,357
960,9	14,186
961,3	14,643
961,7	10,757
962,1	9,157
962,6	6,557
963	5,3
963,4	-4,757
963,8	-7,071
964,2	-7,471
964,7	-5,329
965,1	0,529
965,5	-0,643
965,9	0,271
966,3	6,586
966,8	3,586
967,2	2,986
967,6	1,871
968	-5,586
968,4	-0,643
968,9	3,243
969,3	3,329
969,7	8,129
970,1	10,586
970,5	12,129
971	17,186
971,4	11,386
971,8	6,386
972,2	4,157
972,6	-0,871
973,1	-1,729
973,5	-3,329
973,9	-4,014
974,3	-1,471
974,7	2,871
975,2	6,814
975,6	8,871
976	11,786
976,4	10,871
976,8	9,786
977,3	8,014
977,7	1,757
978,1	-1,3
978,5	0,043
978,9	-5,843
979,4	-8,043
979,8	-8,557
980,2	-8,643
980,6	-8,814
981	-5,843
981,5	-8,357
981,9	-6,157
982,3	-3,129
982,7	-2,186
983,1	-4,243
983,6	-0,757
984	-1,929
984,4	0,786
984,8	0,986
985,2	2,529
985,6	-0,5
986,1	4,157
986,5	4,529
986,9	-3,643
987,3	-6,186
987,7	-5,414
988,2	-10,5
988,6	-7,5
989	-8,957
989,4	-12,043
989,8	-4,1
990,3	-0,871
990,7	-3,414
991,1	1,786
991,5	-0,271
991,9	-0,7
992,3	4,614
992,8	1,9
993,2	-1,9
993,6	-1,271
994	-0,357
994,4	2,529
994,9	3,443
995,3	-0,814
995,7	0,557
996,1	0,471
996,5	1,814
996,9	-7,129
997,4	-4,386
997,8	-7,671
998,2	-9,014
998,6	-15,271
999	-13,729
999,5	-14,471
999,9	-5,529
1000,3	-11,1
1000,7	-7,529
1001,1	-6,329
1001,5	1,786
1002	5,186
1002,4	6,014
1002,8	4,757
1003,2	7,329
1003,6	4,871
1004	9,471
1004,5	7,529
1004,9	7,786
1005,3	2,357
1005,7	4,929
1006,1	4,243
1006,6	3,043
1007	0,957
1007,4	-0,443
1007,8	-1,871
1008,2	1,7
1008,6	-1,986
1009,1	-5,557
1009,5	0,014
1009,9	3,557
1010,3	4,986
1010,7	-0,443
1011,1	1,329
1011,6	3,071
1012	8,529
1012,4	6,814
1012,8	2,929
1013,2	5,986
1013,6	10,414
1014,1	10,243
1014,5	9,271
1014,9	7,329
1015,3	4,1
1015,7	3,3
1016,1	-2,443
1016,6	-5,7
1017	-3,9
1017,4	-7,557
1017,8	-5,529
1018,2	-3,071
1018,6	-7,014
1019,1	-5,271
1019,5	-1,243
1019,9	-6,357
1020,3	-1,529
1020,7	-2,243
1021,1	-4,986
1021,6	-2,786
1022	-0,7
1022,4	-2,643
1022,8	2,186
1023,2	-2,586
1023,6	-1,243
1024,1	9,386
1024,5	10,329
1024,9	6,9
1025,3	7,614
1025,7	4,129
1026,1	8,071
1026,6	5,986
1027	-2,729
1027,4	-0,271
1027,8	0,329
1028,2	-4,357
1028,6	0,5
1029	-1,214
1029,5	2,329
1029,9	3,271
1030,3	-0,871
1030,7	2,929
1031,1	8,1
1031,5	2,386
1032	4,7
1032,4	0,529
1032,8	3,871
1033,2	6,529
1033,6	1,529
1034	2,529
1034,4	1,843
1034,9	2,271
1035,3	-3,786
1035,7	-5,1
1036,1	-6,471
1036,5	-2,757
1036,9	-6,071
1037,4	0,843
1037,8	-3,271
1038,2	1,729
1038,6	0,043
1039	2,7
1039,4	3,9
1039,8	3,357
1040,3	2,557
1040,7	1,043
1041,1	2,5
1041,5	3,271
1041,9	-2,043
1042,3	-6,871
1042,7	-5,557
1043,2	-5,871
1043,6	-2,271
1044	-4,357
1044,4	-2,986
1044,8	2,729
1045,2	5,957
1045,6	6,7
1046,1	3,557
1046,5	1,1
1046,9	4,671
1047,3	2,214
1047,7	-2,557
1048,1	-6,3
1048,5	-5,414
1049	-1,814
1049,4	7,014
1049,8	8,7
1050,2	12,814
1050,6	21,529
1051	24,386
1051,4	21,471
1051,9	18,214
1052,3	19,186
1052,7	16,329
1053,1	10,271
1053,5	7,1
1053,9	7,671
1054,3	8,129
1054,8	12,557
1055,2	8,614
1055,6	13,329
1056	12,357
1056,4	9,129
1056,8	10,843
1057,2	12,614
1057,6	7,157
1058,1	0,329
1058,5	-8,043
1058,9	-1,986
1059,3	1,9
1059,7	0,071
1060,1	-2,243
1060,5	3,586
1061	8,614
1061,4	7,814
1061,8	7,729
1062,2	3,129
1062,6	3,9
1063	5,386
1063,4	3,3
1063,8	4,243
1064,3	3,9
1064,7	0,586
1065,1	2,271
1065,5	-0,014
1065,9	-1,614
1066,3	-2,071
1066,7	-4,729
1067,1	-2,557
1067,6	-1,786
1068	-7,243
1068,4	-6,071
1068,8	-3,386
1069,2	-1,9
1069,6	-1,071
1070	4,5
1070,4	3,729
1070,9	8,529
1071,3	8,1
1071,7	4,071
1072,1	2,043
1072,5	-0,786
1072,9	-2,9
1073,3	-1,157
1073,7	-2,243
1074,2	-3,129
1074,6	0,129
1075	0,3
1075,4	6,243
1075,8	7,271
1076,2	7,014
1076,6	8,643
1077	9,271
1077,5	11,843
1077,9	9,614
1078,3	5,243
1078,7	4,986
1079,1	3,614
1079,5	2,557
1079,9	1,071
1080,3	-5,243
1080,7	-5,729
1081,2	-3,614
1081,6	-5,957
1082	-7,929
1082,4	-3,643
1082,8	1,671
1083,2	5,957
1083,6	9,871
1084	6,186
1084,5	7,214
1084,9	4,1
1085,3	-2,929
1085,7	-6,786
1086,1	-8,471
1086,5	-12,414
1086,9	-9,243
1087,3	-7,529
1087,7	-5,757
1088,2	-4,014
1088,6	-4,043
1089	-2,871
1089,4	0,043
1089,8	1,443
1090,2	-2,786
1090,6	1,243
1091	8,214
1091,4	11,071
1091,9	14,7
1092,3	14,957
1092,7	11,329
1093,1	14,214
1093,5	11,614
1093,9	6,729
1094,3	7,9
1094,7	3,443
1095,1	2,786
1095,5	5,443
1096	0,786
1096,4	3,957
1096,8	-1,243
1097,2	-3,586
1097,6	1,129
1098	-2,357
1098,4	-1,043
1098,8	3,043
1099,2	4,729
1099,6	8,843
1100,1	7,443
1100,5	1,957
1100,9	6,671
1101,3	8,043
1101,7	6,386
1102,1	2,529
1102,5	6,757
1102,9	7,843
1103,3	11,729
1103,7	9,414
1104,2	5,214
1104,6	5,814
1105	6,329
1105,4	4,443
1105,8	3,243
1106,2	0,843
1106,6	0,471
1107	1,014
1107,4	1,167
1107,8	2,18
1108,3	-0,9
