Data from Subt2_182.txt Node
Date: Sat Aug 26 18:40:28 MSK 2023
User: vat
Spectrometer: MAYP114033
Trigger mode: 0
Integration Time (sec): 1,000000E0
Scans to average: 5
Electric dark correction enabled: true
Nonlinearity correction enabled: false
Boxcar width: 3
XAxis mode: Wavelengths
Number of Pixels in Spectrum: 2068
>>>>>Begin Spectral Data<<<<<
199,4	-1
199,9	-2,92
200,4	-5,167
200,8	-1,886
201,3	-0,6
201,8	1,2
202,2	-2,543
202,7	4,543
203,2	4,629
203,6	5,971
204,1	1,057
204,6	-2,686
205	-1,429
205,5	3,2
206	-1,457
206,4	2,514
206,9	2,486
207,4	4,086
207,8	5,486
208,3	0,343
208,8	3,286
209,2	5,429
209,7	2,086
210,2	2,743
210,6	3,629
211,1	8,629
211,5	9,343
212	6,943
212,5	0,686
212,9	-1,571
213,4	-0,543
213,9	-2,171
214,3	-3,371
214,8	-0,371
215,3	-1,6
215,7	4,829
216,2	8,429
216,7	9,257
217,1	8,429
217,6	11,086
218,1	7,914
218,5	5,057
219	-3,771
219,5	-4,171
219,9	-5,143
220,4	-1,771
220,9	-3
221,3	-1,771
221,8	-0,2
222,3	3,829
222,7	6,429
223,2	5,686
223,6	2,971
224,1	-3,114
224,6	1,314
225	-0,6
225,5	0,686
226	0,229
226,4	1,086
226,9	2,457
227,4	6,629
227,8	-1,429
228,3	-2,057
228,8	-2,4
229,2	0,371
229,7	1,2
230,2	5,114
230,6	5,086
231,1	10,943
231,5	14,857
232	13,4
232,5	7,4
232,9	10,543
233,4	11,486
233,9	7,6
234,3	7,714
234,8	5,314
235,3	3,514
235,7	5,457
236,2	3,714
236,7	-1,771
237,1	-1,114
237,6	-3,829
238,1	-6,686
238,5	-9,2
239	-10,114
239,4	-9,8
239,9	-10,486
240,4	-6,371
240,8	-4,286
241,3	-2,229
241,8	3,914
242,2	2,371
242,7	-5,143
243,2	-4,743
243,6	-9,6
244,1	-9,943
244,6	-8,229
245	-11,4
245,5	-10,571
245,9	-9,8
246,4	-7,143
246,9	-3,086
247,3	-4,486
247,8	-1,971
248,3	4,571
248,7	6,714
249,2	11
249,7	9,143
250,1	11,343
250,6	13,029
251	13,514
251,5	10,543
252	8,771
252,4	8,657
252,9	5,371
253,4	-1,229
253,8	-3,771
254,3	-3,486
254,8	-4,857
255,2	-4,971
255,7	-7,086
256,1	-3,457
256,6	-0,6
257,1	5,571
257,5	-0,429
258	-1,286
258,5	-1,8
258,9	1,314
259,4	1,229
259,9	3,629
260,3	-2,543
260,8	-1,971
261,2	-0,629
261,7	2,971
262,2	-0,229
262,6	-6,657
263,1	-5,486
263,6	-5,4
264	-0,629
264,5	1,286
264,9	-3,171
265,4	0,343
265,9	5,686
266,3	8,771
266,8	10,771
267,3	8,971
267,7	7,229
268,2	8,743
268,7	8,686
269,1	6,657
269,6	-0,086
270	3,114
270,5	2,057
271	0,143
271,4	2,314
271,9	-3,686
272,4	3,914
272,8	2,229
273,3	-4,457
273,7	-2,6
274,2	-3,771
274,7	-5
275,1	1,771
275,6	-2,314
276,1	-2,857
276,5	3,486
277	2,171
277,4	5,086
277,9	6,057
278,4	5,943
278,8	5,514
279,3	9,8
279,8	7,086
280,2	8,743
280,7	14,343
281,1	15,057
281,6	12,171
282,1	11,857
282,5	12,114
283	8,114
283,4	6,657
283,9	2,8
284,4	3,543
284,8	6,829
285,3	5,371
285,8	4,229
286,2	7,229
286,7	6,514
287,1	5,257
287,6	3,171
288,1	0,257
288,5	2,657
289	0,971
289,5	3,057
289,9	1,114
290,4	3,057
290,8	1,257
291,3	3,571
291,8	4,886
292,2	2,4
292,7	4,657
293,1	5,2
293,6	5,971
294,1	8,314
294,5	6,086
295	6
295,5	9,486
295,9	8,114
296,4	12,114
296,8	8,143
297,3	3,943
297,8	1,686
298,2	-5,771
298,7	-4,229
299,1	-5,771
299,6	-9,486
300,1	-9,457
300,5	-2,229
301	1,257
301,5	11,914
301,9	7,657
302,4	7,086
302,8	8,257
303,3	5,486
303,8	0,2
304,2	-2,857
304,7	-8,743
305,1	-6,6
305,6	-5,914
306,1	-1,657
306,5	1,057
307	7,457
307,4	11,914
307,9	15,114
308,4	13,057
308,8	11,629
309,3	5,429
309,8	5,514
310,2	2,914
310,7	-3,914
311,1	-7,2
311,6	-1,229
312,1	-1,314
312,5	4,857
313	5,257
313,4	3,857
313,9	6,4
314,4	6,314
314,8	1,829
315,3	2,029
315,7	-5,4
316,2	-5,629
316,7	-6,971
317,1	-1,886
317,6	0,857
318	1,4
318,5	3
319	6,314
319,4	8,8
319,9	13
320,3	11,086
320,8	8,629
321,3	12,171
321,7	13,057
322,2	16,571
322,6	15,029
323,1	11,029
323,6	9,657
324	7,429
324,5	3,486
324,9	3,114
325,4	1,371
325,9	3,314
326,3	7,086
326,8	9,314
327,2	8,943
327,7	10,829
328,2	9,343
328,6	6,714
329,1	0,171
329,5	-3,686
330	-8,686
330,5	-3,629
330,9	-2,8
331,4	-1,143
331,8	-0,857
332,3	5,8
332,8	8,571
333,2	10,571
333,7	12,486
334,1	11,143
334,6	10,029
335,1	8,343
335,5	6
336	3,543
336,4	5,629
336,9	9,057
337,4	14,8
337,8	13,229
338,3	16,143
338,7	19,257
339,2	18,6
339,7	21,543
340,1	15,086
340,6	9,857
341	7,457
341,5	7,371
342	3,314
342,4	1,743
342,9	-1,943
343,3	-1,657
343,8	-3,914
344,2	-1,971
344,7	0,114
345,2	2
345,6	2,4
346,1	4,229
346,5	3,943
347	6,514
347,5	7,4
347,9	11,057
348,4	13,743
348,8	17,229
349,3	17,429
349,8	20,657
350,2	22,8
350,7	24,429
351,1	19,829
351,6	23,086
352	25,229
352,5	28,343
353	37,257
353,4	39,686
353,9	49,686
354,3	64,371
354,8	71,457
355,3	92,914
355,7	115,543
356,2	135,371
356,6	165,6
357,1	195,571
357,5	224,686
358	267,686
358,5	304,429
358,9	350,429
359,4	403,571
359,8	464,914
360,3	536,314
360,8	617,514
361,2	703,6
361,7	802,914
362,1	915,143
362,6	1036,257
363	1159,286
363,5	1292,286
364	1434,543
364,4	1572,771
364,9	1715,171
365,3	1851,2
365,8	1974,771
366,3	2097,886
366,7	2211,286
367,2	2308,486
367,6	2392,486
368,1	2460,314
368,5	2502,029
369	2531,971
369,5	2540,114
369,9	2515,371
370,4	2475,6
370,8	2420,343
371,3	2342,629
371,7	2252,829
372,2	2153
372,7	2047,714
373,1	1940,314
373,6	1822,914
374	1712,4
374,5	1600,943
374,9	1494,686
375,4	1387,057
375,9	1282,314
376,3	1185,486
376,8	1092,086
377,2	1001,943
377,7	918,8
378,2	843,429
378,6	778,057
379,1	708,6
379,5	650,114
380	603,4
380,4	550,114
380,9	503,6
381,4	458,229
381,8	422,286
382,3	396,143
382,7	365,543
383,2	339,4
383,6	320,657
384,1	301,486
384,6	283,086
385	258,029
385,5	239,886
385,9	222,657
386,4	200,8
386,8	184,571
387,3	167,486
387,7	158,543
388,2	152,629
388,7	140,971
389,1	133,8
389,6	127,571
390	119,657
390,5	116,943
390,9	112,343
391,4	104,657
391,9	96,429
392,3	87,914
392,8	80,657
393,2	72,029
393,7	66,4
394,1	59,714
394,6	53,914
395,1	52,6
395,5	49,057
396	47,971
396,4	49,571
396,9	44,686
397,3	45,114
397,8	49,629
398,2	51,229
398,7	52,343
399,2	55,086
399,6	56,286
400,1	57,029
400,5	51,8
401	44,657
401,4	35,771
401,9	40,343
402,4	41,029
402,8	36,486
403,3	43,314
403,7	42
404,2	45,4
404,6	56,457
405,1	49,743
405,5	45,457
406	48,914
406,5	41,114
406,9	51,143
407,4	53,629
407,8	52,771
408,3	63,914
408,7	66
409,2	72,114
409,6	82,543
410,1	83,457
410,6	92,771
411	95,771
411,5	94,229
411,9	105,543
412,4	110,771
412,8	115,057
413,3	119,257
413,7	119,543
414,2	123,714
414,7	134,4
415,1	141,6
415,6	152,486
416	159,257
416,5	165,257
416,9	171,429
417,4	183,6
417,8	197,371
418,3	209,314
418,8	216,314
419,2	230,371
419,7	242,571
420,1	255,771
420,6	272,686
421	280,2
421,5	294,971
421,9	310,6
422,4	324,629
422,8	341,514
423,3	358
423,8	372,086
424,2	387,743
424,7	405,886
425,1	426,057
425,6	445,6
426	463,6
426,5	481,314
426,9	505,314
427,4	528,657
427,9	543,943
428,3	569,457
428,8	595,8
429,2	623,886
429,7	658,6
430,1	684,943
430,6	718,971
431	752,171
431,5	786,457
431,9	820,057
432,4	858,743
432,8	903,086
433,3	947
433,8	992,971
434,2	1043,486
434,7	1090,914
435,1	1147,429
435,6	1205,4
436	1254,771
436,5	1316,057
436,9	1372,514
437,4	1434,8
437,8	1500,886
438,3	1568,4
438,8	1640,057
439,2	1714,457
439,7	1784,257
440,1	1864,371
440,6	1950,743
441	2030,229
441,5	2112,457
441,9	2207,4
442,4	2295,314
442,8	2393,857
443,3	2492,8
443,7	2594,943
444,2	2702,486
444,7	2810,486
445,1	2911,229
445,6	3026,314
446	3141,743
446,5	3256,943
446,9	3371,143
447,4	3493,143
447,8	3622,286
448,3	3754,143
448,7	3891,4
449,2	4031,714
449,6	4169,571
450,1	4314,857
450,6	4464,914
451	4610,057
451,5	4762,057
451,9	4921,4
452,4	5077,314
452,8	5238,171
453,3	5402,2
453,7	5566,571
454,2	5738,914
454,6	5914,943
455,1	6085,343
455,5	6258,543
456	6438,4
456,4	6611,857
456,9	6795,171
457,3	6984,886
457,8	7163,6
458,3	7356,171
458,7	7549,229
459,2	7751,371
459,6	7953,714
460,1	8160,429
460,5	8352,686
461	8555,914
461,4	8749,743
461,9	8945,629
462,3	9137,8
462,8	9333,257
463,2	9528,343
463,7	9737,086
464,1	9944,371
464,6	10154,143
465	10365,771
465,5	10569,457
466	10785,743
466,4	10979,486
466,9	11182,686
467,3	11381,943
467,8	11576,429
468,2	11776,057
468,7	11980,514
469,1	12167,857
469,6	12378,086
470	12563,2
470,5	12737,429
470,9	12927,171
471,4	13099,686
471,8	13275,057
472,3	13459
472,7	13628,914
473,2	13802,429
473,6	13990,2
474,1	14158,457
474,5	14331,686
475	14503,257
475,4	14673,286
475,9	14825,629
476,4	14985,543
476,8	15133,057
477,3	15274,429
477,7	15421,257
478,2	15559,429
478,6	15683,229
479,1	15814,057
479,5	15940,057
480	16060,657
480,4	16177,657
480,9	16279,514
481,3	16375,514
481,8	16478
482,2	16556,371
482,7	16642,571
483,1	16731,229
483,6	16808,486
484	16882,4
484,5	16949,686
484,9	16987
485,4	17067,371
485,8	17104,543
486,3	17135,2
486,7	17174,6
487,2	17211,029
487,6	17240,429
488,1	17281,571
488,5	17282
489	17302,514
489,4	17313,943
489,9	17306,114
490,4	17301,057
490,8	17291,429
491,3	17273,6
491,7	17249,286
492,2	17224,6
492,6	17198,571
493,1	17168,486
493,5	17121,686
494	17058,229
494,4	17025,314
494,9	16976,257
495,3	16922,886
495,8	16866,314
496,2	16809,514
496,7	16738,429
497,1	16693,657
497,6	16610,457
498	16546,8
498,5	16471,143
498,9	16394,914
499,4	16316,543
499,8	16254,4
500,3	16185,143
500,7	16100,2
501,2	16008,6
501,6	15922,143
502,1	15827,2
502,5	15731,457
503	15630,971
503,4	15523
503,9	15422,743
504,3	15333,686
504,8	15225,143
505,2	15124,771
505,7	15028,543
506,1	14919,629
506,6	14800,114
507	14684,057
507,5	14559,2
507,9	14450,857
508,4	14320,714
508,8	14188,257
509,3	14060,029
509,7	13945,943
510,2	13829,943
510,6	13704,457
511,1	13576,571
511,5	13459,514
512	13340,829
512,4	13230,057
512,9	13100,657
513,3	12979,771
513,8	12862,486
514,2	12730,943
514,7	12602,029
515,1	12469,914
515,6	12350,657
516	12227,371
516,5	12100,543
516,9	11970,743
517,4	11847,743
517,8	11730,514
518,3	11617,771
518,7	11486,229
519,2	11360,771
519,6	11233,086
520,1	11114,2
520,5	10997,029
521	10869,057
521,4	10750,257
521,9	10622,457
522,3	10507,886
522,8	10391
523,2	10282,343
523,7	10177,657
524,1	10063,6
524,6	9942,629
525	9840,686
525,5	9730,543
525,9	9632,086
526,4	9513,714
526,8	9398,8
527,3	9298,371
527,7	9205,086
528,2	9101
528,6	9000,486
529,1	8891,6
529,5	8807,457
530	8707,6
530,4	8606,771
530,9	8505,743
531,3	8413,657
531,8	8321,343
532,2	8227,829
532,6	8125,543
533,1	8034,771
533,5	7948,171
534	7865,457
534,4	7773,114
534,9	7680,057
535,3	7598,829
535,8	7520,686
536,2	7447,886
536,7	7372,171
537,1	7284,486
537,6	7208,714
538	7132,857
538,5	7062,286
538,9	6978,543
539,4	6888,914
539,8	6808,771
540,3	6737,629
540,7	6661,914
541,2	6588,343
541,6	6520,514
542,1	6458,314
542,5	6397,8
543	6336,4
543,4	6268,229
543,9	6210,629
544,3	6152,743
544,8	6079,086
545,2	6008,914
545,7	5951,829
546,1	5893,971
546,5	5838,143
547	5776,743
547,4	5721,714
547,9	5668,629
548,3	5618,8
548,8	5564,6
549,2	5502,429
549,7	5451,371
550,1	5404,971
550,6	5347,429
551	5293,543
551,5	5244,657
551,9	5188,714
552,4	5148,2
552,8	5105,114
553,3	5052,657
553,7	5010,743
554,2	4972,029
554,6	4928,171
555,1	4891,914
555,5	4841,714
555,9	4793,514
556,4	4753,771
556,8	4710,771
557,3	4663,114
557,7	4622,371
558,2	4574,514
558,6	4542,514
559,1	4502,257
559,5	4457,2
560	4425,257
560,4	4396,686
560,9	4359,314
561,3	4326,343
561,8	4286,771
562,2	4252,4
562,7	4225,686
563,1	4187,8
563,6	4142,571
564	4107,686
564,4	4076,571
564,9	4050,8
565,3	4019,343
565,8	3984,143
566,2	3953,371
566,7	3928,886
567,1	3907,4
567,6	3879,657
568	3847,6
568,5	3820,514
568,9	3792,114
569,4	3766,686
569,8	3742,343
570,3	3706
570,7	3674,114
571,1	3647,086
571,6	3622,143
572	3601,229
572,5	3580,429
572,9	3554,286
573,4	3534,057
573,8	3508,657
574,3	3479,6
574,7	3447,114
575,2	3416,686
575,6	3381,971
576,1	3358,2
576,5	3333,886
576,9	3307,2
577,4	3283,429
577,8	3262,543
578,3	3241,343
578,7	3220,771
579,2	3199,486
579,6	3171,086
580,1	3151,314
580,5	3129,971
581	3109,429
581,4	3083,914
581,9	3067,914
582,3	3044,029
582,7	3025,143
583,2	3009,314
583,6	2987,657
584,1	2969,6
584,5	2952,943
585	2926,971
585,4	2901,086
585,9	2878,343
586,3	2858,286
586,8	2840,714
587,2	2820,971
587,6	2807,171
588,1	2794,371
588,5	2781,714
589	2770,457
589,4	2747,314
589,9	2733,457
590,3	2713,114
590,8	2693,2
591,2	2674,8
591,7	2661,371
592,1	2644,6
592,5	2634,657
593	2617,629
593,4	2611,086
593,9	2595,457
594,3	2582,429
594,8	2564,143
595,2	2551,943
595,7	2530,629
596,1	2511,771
596,6	2495,4
597	2480,886
597,4	2463,4
597,9	2451
598,3	2434,914
598,8	2428,429
599,2	2420,6
599,7	2405,543
600,1	2388,029
600,6	2375,114
601	2360,429
601,4	2349,2
601,9	2341,2
602,3	2322,6
602,8	2308,743
603,2	2293,6
603,7	2280
604,1	2267,971
604,6	2252,629
605	2228,114
605,4	2222,971
605,9	2207,571
606,3	2193,914
606,8	2176
607,2	2156,543
607,7	2141,371
608,1	2137,114
608,6	2121,029
609	2115
609,4	2111,257
609,9	2102,8
610,3	2095,343
610,8	2084,229
611,2	2069,4
611,7	2055,543
612,1	2043,714
612,6	2028,971
613	2020,743
613,4	2005,8
613,9	1993,486
614,3	1981,343
614,8	1974,057
615,2	1954,8
615,7	1948,914
616,1	1937,371
616,6	1927,229
617	1909,343
617,4	1898,6
617,9	1888,314
618,3	1881,686
618,8	1866,171
619,2	1856,686
619,7	1848,343
620,1	1840,343
620,5	1831,571
621	1815,029
621,4	1800,029
621,9	1794,229
622,3	1777,2
622,8	1762,029
623,2	1754,114
623,6	1740,971
624,1	1730,514
624,5	1720,514
625	1707,657
625,4	1699,8
625,9	1692,286
626,3	1681,2
626,8	1670,943
627,2	1665,971
627,6	1648,629
628,1	1634,914
628,5	1625,514
629	1613,143
629,4	1609,143
629,9	1593,6
630,3	1578,857
630,7	1572,886
631,2	1563,771
631,6	1551,971
632,1	1544,514
632,5	1525,571
633	1519,343
633,4	1510,286
633,8	1505,6
634,3	1497,114
634,7	1489,629
635,2	1481,2
635,6	1475,086
636,1	1464,343
636,5	1452,171
636,9	1441,486
637,4	1428,8
637,8	1413,371
638,3	1396,629
638,7	1384,429
639,2	1375,686
639,6	1370,229
640	1361,343
640,5	1345,543
640,9	1337,229
641,4	1335,286
641,8	1330,543
642,2	1324,8
642,7	1318,086
643,1	1310,486
643,6	1312,457
644	1307,086
644,5	1301,514
644,9	1294,914
645,3	1284,686
645,8	1269,486
646,2	1262,514
646,7	1249,343
647,1	1244,714
647,6	1238,143
648	1234,971
648,4	1222,514
648,9	1216,029
649,3	1207,371
649,8	1201,629
650,2	1189,714
650,6	1179,971
651,1	1164,657
651,5	1164,457
652	1161
652,4	1146,971
652,9	1139,8
653,3	1132,029
653,7	1119
654,2	1113,629
654,6	1103,229
655,1	1097,743
655,5	1102,686
655,9	1097,743
656,4	1089,571
656,8	1085,743
657,3	1077,629
657,7	1072,8
658,2	1064,571
658,6	1049,6
659	1041,771
659,5	1035,2
659,9	1025,657
660,4	1019,657
660,8	1008,371
661,2	997,571
661,7	990,629
662,1	978,2
662,6	973,943
663	970,086
663,4	963,429
663,9	961,686
664,3	955,114
664,8	952,486
665,2	947,229
665,6	937,4
666,1	933,029
666,5	925,6
667	920,743
667,4	913,514
667,9	902,457
668,3	896,8
668,7	886,429
669,2	878
669,6	871,086
670,1	859,857
670,5	856,229
670,9	853,857
671,4	848,143
671,8	847,086
672,3	843,829
672,7	840,829
673,1	832,057
673,6	827,257
674	824,943
674,5	819,171
674,9	812,486
675,3	797,4
675,8	790
676,2	788,314
676,7	779,314
677,1	766,6
677,5	762,171
678	761,714
678,4	760,229
678,9	755
679,3	748,086
679,7	743,743
680,2	736,343
680,6	733,571
681,1	729,143
681,5	726,686
681,9	724
682,4	719,714
682,8	717,629
683,3	719,571
683,7	714,743
684,1	705,714
684,6	702
685	692,743
685,5	687,514
685,9	678,029
686,3	668,314
686,8	658,257
687,2	653,4
687,7	646,143
688,1	639,886
688,5	632,829
689	632,257
689,4	627,4
689,9	627,429
690,3	618,2
690,7	618,171
691,2	618,229
691,6	616,371
692	610,286
692,5	608,143
692,9	602,457
693,4	600
693,8	593,286
694,2	585,686
694,7	577,943
695,1	568,771
695,6	564,914
696	563,486
696,4	564,6
696,9	557,371
697,3	554,314
697,8	555,714
698,2	556,343
698,6	551,314
699,1	543,971
699,5	539,771
699,9	532,857
700,4	523,857
700,8	517,371
701,3	512,829
701,7	505,229
702,1	497,486
702,6	493,743
703	497,286
703,5	497,229
703,9	495,114
704,3	492
704,8	488,857
705,2	492,629
705,6	484,229
706,1	476,429
706,5	473,6
707	469,743
707,4	463,514
707,8	461,143
708,3	458,657
708,7	460,171
709,2	456,943
709,6	452,314
710	452,571
710,5	451,657
710,9	449,571
711,3	440,114
711,8	437,029
712,2	434,457
712,7	431,143
713,1	426,086
713,5	426,314
714	422,343
714,4	419,343
714,8	418,286
715,3	414,371
715,7	413,171
716,2	407,171
716,6	400,171
717	395,886
717,5	394
717,9	392,229
718,3	388,457
718,8	386,286
719,2	383,343
719,7	381,714
720,1	383,743
720,5	387
721	380,657
721,4	379,114
721,8	377,543
722,3	375
722,7	375,429
723,2	365,971
723,6	355,114
724	349,143
724,5	342,743
724,9	338,086
725,3	335,286
725,8	329,543
726,2	331,2
726,7	330,343
727,1	327,143
727,5	330,143
728	325,457
728,4	320,857
728,8	318,686
729,3	312,457
729,7	308,914
730,1	308,714
730,6	307,286
731	306,886
731,5	307,8
731,9	303,086
732,3	306,686
732,8	305,543
733,2	305,429
733,6	303,029
734,1	303,743
734,5	295,914
734,9	302,057
735,4	301,086
735,8	296,8
736,3	296,371
736,7	290,4
737,1	286,171
737,6	288,429
738	278,171
738,4	268,343
738,9	267,857
739,3	262,914
739,7	264,4
740,2	261,457
740,6	263,943
741,1	268,029
741,5	264,686
741,9	267,629
742,4	267,8
742,8	266,571
743,2	266
743,7	260,314
744,1	252,286
744,5	255,914
745	250,971
745,4	245,771
745,8	243,686
746,3	241,314
746,7	239,086
747,2	242,057
747,6	245,2
748	242,971
748,5	243,943
748,9	236,971
749,3	233,543
749,8	229,714
750,2	225,629
750,6	221,143
751,1	223,086
751,5	219,514
751,9	224,943
752,4	227,514
752,8	229,657
753,3	229,143
753,7	230,371
754,1	225,029
754,6	222,743
755	218,086
755,4	213,114
755,9	209,629
756,3	207,943
756,7	201,286
757,2	205,857
757,6	209,143
758	208,629
758,5	209,714
758,9	213,857
759,3	214,971
759,8	217,371
760,2	214,971
760,6	207,857
761,1	203,429
761,5	200,057
761,9	193,8
762,4	189,371
762,8	186,6
763,3	184,486
763,7	187,771
764,1	192,229
764,6	195,2
765	194,457
765,4	196,571
765,9	197,6
766,3	196,686
766,7	193,143
767,2	189,429
767,6	192,486
768	193,971
768,5	191,514
768,9	185,8
769,3	181,914
769,8	177,457
770,2	178,343
770,6	171,229
771,1	171,571
771,5	170,543
771,9	175,714
772,4	179,429
772,8	182,629
773,2	178,171
773,7	176,371
774,1	173
774,5	167,886
775	163,771
775,4	159,686
775,8	155,8
776,3	160,343
776,7	161,543
777,1	162,8
777,6	164,8
778	166,229
778,4	163,629
778,9	166,629
779,3	161,257
779,7	160,771
780,2	160,686
780,6	158,829
781	157,571
781,5	155,6
781,9	155,686
782,3	152,2
782,8	151,314
783,2	148,143
783,6	151,371
784,1	146
784,5	143,971
784,9	140,829
785,4	144,029
785,8	144,543
786,2	142,371
786,7	138,114
787,1	136,4
787,5	137,829
788	136,6
788,4	137,371
788,8	133,257
789,3	131,143
789,7	136,4
790,1	137,771
790,6	138,371
791	134,457
791,4	132,229
791,9	127,571
792,3	126,4
792,7	119,914
793,2	114,257
793,6	112,771
794	115,371
794,5	113,571
794,9	117,343
795,3	118,114
795,8	121,143
796,2	123,6
796,6	121,743
797,1	119,771
797,5	116,343
797,9	113,114
798,4	109,2
798,8	103,629
799,2	99,686
799,7	100,886
800,1	98,971
800,5	101,571
801	102,486
801,4	101,914
801,8	99,629
802,2	101,257
802,7	97,086
803,1	96,743
803,5	93,114
804	91,171
804,4	92,029
804,8	92,743
805,3	93,429
805,7	96,029
806,1	97,314
806,6	100,057
807	101,629
807,4	101,6
807,9	95,371
808,3	94,6
808,7	93,257
809,2	91
809,6	89,743
810	83,314
810,4	85,829
810,9	93,571
811,3	96,029
811,7	96,543
812,2	102,743
812,6	100,686
813	108,2
813,5	104,086
813,9	101,571
814,3	99,143
814,8	96,714
815,2	89,229
815,6	88,343
816,1	88,457
816,5	88,571
816,9	89,8
817,3	89,229
817,8	93,171
818,2	93,8
818,6	90,2
819,1	82,8
819,5	80,914
819,9	81,829
820,4	80,829
820,8	73,257
821,2	70,029
821,7	74,971
822,1	78,4
822,5	81,171
822,9	77,629
823,4	75,686
823,8	78,657
824,2	85,2
824,7	78,714
825,1	73,4
825,5	68,829
826	63,057
826,4	63,371
826,8	61,143
827,3	56,771
827,7	61,171
828,1	62,2
828,5	63,086
829	62,829
829,4	61,543
829,8	57,429
830,3	59,6
830,7	55,629
831,1	57,943
831,6	59,029
832	61,971
832,4	65,314
832,8	70
833,3	68,886
833,7	69,171
834,1	66,057
834,6	63,486
835	63,971
835,4	62,8
835,8	58,829
836,3	56,371
836,7	55,486
837,1	56,943
837,6	58,571
838	57,714
838,4	54,486
838,9	54,029
839,3	51,286
839,7	55,629
840,1	49,257
840,6	45,971
841	45,286
841,4	44,943
841,9	48,857
842,3	47,286
842,7	46,314
843,1	49,486
843,6	54,429
844	55,457
844,4	59,486
844,9	59,171
845,3	60,857
845,7	56,571
846,2	55,086
846,6	51,143
847	51,6
847,4	51,086
847,9	48,629
848,3	48,029
848,7	50,229
849,2	51,914
849,6	50,229
850	52,543
850,4	50,171
850,9	51,029
851,3	52,6
851,7	49,314
852,2	49,2
852,6	51,514
853	47,6
853,4	45,143
853,9	43,714
854,3	45,886
854,7	50,971
855,2	49,371
855,6	49,143
856	48,257
856,4	44,486
856,9	43,086
857,3	40,229
857,7	38,971
858,2	41,829
858,6	37,6
859	39,286
859,4	42,257
859,9	43
860,3	38,8
860,7	34,971
861,1	36,657
861,6	36
862	31,286
862,4	31,771
862,9	30,486
863,3	31,343
863,7	28,971
864,1	24,857
864,6	28,486
865	30,686
865,4	34
865,9	36,429
866,3	36,6
866,7	37,6
867,1	36
867,6	33,029
868	31,743
868,4	25,314
868,8	20,371
869,3	21,257
869,7	24,686
870,1	20,657
870,6	21,714
871	6,143
871,4	13,371
871,8	14,257
872,3	17,114
872,7	18,829
873,1	24,286
873,5	25,829
874	38,943
874,4	35,371
874,8	39,457
875,3	36,257
875,7	31,429
876,1	31,343
876,5	30,886
877	30,057
877,4	25,571
877,8	22,543
878,2	26,971
878,7	28,543
879,1	24,343
879,5	24,457
879,9	28,514
880,4	31,343
880,8	34,514
881,2	28,971
881,7	27,914
882,1	27,486
882,5	22,343
882,9	20,657
883,4	18,114
883,8	13,6
884,2	14,086
884,6	13
885,1	17,286
885,5	19,343
885,9	20,2
886,3	23,457
886,8	22,629
887,2	21,143
887,6	20,514
888	14,6
888,5	18,629
888,9	16,371
889,3	13,4
889,8	11,314
890,2	12,914
890,6	10,8
891	15,029
891,5	7,686
891,9	11,629
892,3	12,343
892,7	18,2
893,2	18,314
893,6	16,486
894	20,4
894,4	22,486
894,9	20,829
895,3	18,971
895,7	18,171
896,1	17,257
896,6	23,2
897	21,314
897,4	26,714
897,8	28,2
898,3	28,914
898,7	25,171
899,1	26,314
899,5	21
900	17,143
900,4	13,829
900,8	5,914
901,2	5,571
901,7	6,171
902,1	5,343
902,5	9,2
902,9	7,629
903,4	6
903,8	10,714
904,2	8,086
904,6	5,514
905,1	5,857
905,5	5,857
905,9	9,886
906,3	13,686
906,8	16,943
907,2	22,4
907,6	28,229
908	28,629
908,5	26,486
908,9	23,943
909,3	16,229
909,7	13,971
910,2	12,686
910,6	13,514
911	11,629
911,4	15,029
911,9	14,657
912,3	19,257
912,7	21,857
913,1	22
913,6	16,429
914	17,914
914,4	12,343
914,8	12,571
915,3	8,886
915,7	5,2
916,1	4,543
916,5	8,571
916,9	8,4
917,4	10,829
917,8	11,343
918,2	9,314
918,6	4,857
919,1	5,829
919,5	5,571
919,9	1,286
920,3	0,571
920,8	3,629
921,2	7,057
921,6	12,486
922	10,514
922,5	6,229
922,9	9,086
923,3	10,029
923,7	10,371
924,2	11,229
924,6	10,743
925	10,429
925,4	9,514
925,8	11,4
926,3	9,657
926,7	7,229
927,1	8,171
927,5	8
928	6,143
928,4	7,029
928,8	2,829
929,2	3,4
929,7	2,914
930,1	4,8
930,5	2,543
930,9	9,143
931,3	10,029
931,8	14,171
932,2	16,8
932,6	16,686
933	9,371
933,5	7,314
933,9	6,8
934,3	11,314
934,7	5,943
935,2	5,057
935,6	4,057
936	7,971
936,4	13,029
936,8	9,771
937,3	4,829
937,7	9,2
938,1	12,543
938,5	11,114
939	13,971
939,4	14
939,8	12,857
940,2	13,6
940,6	12,257
941,1	10,2
941,5	13,829
941,9	10,371
942,3	6,029
942,8	5,743
943,2	10
943,6	5,171
944	7,514
944,4	4,829
944,9	2,886
945,3	3,343
945,7	1,829
946,1	-3,314
946,6	-1,4
947	-9,086
947,4	-8,886
947,8	-5,971
948,2	-5,943
948,7	-3
949,1	-4,4
949,5	2,714
949,9	9,771
950,3	11,743
950,8	13,229
951,2	16,886
951,6	15,4
952	18,886
952,5	11,6
952,9	9,486
953,3	6,743
953,7	3,086
954,1	5,657
954,6	3,743
955	3,686
955,4	5,057
955,8	6,429
956,2	9,686
956,7	10,8
957,1	1,543
957,5	5,343
957,9	7,629
958,3	8,371
958,8	8,114
959,2	8,4
959,6	12,743
960	17,4
960,5	21,171
960,9	18,371
961,3	18,257
961,7	12,714
962,1	8,771
962,6	6,229
963	7,371
963,4	0,714
963,8	0,629
964,2	2,6
964,7	3,829
965,1	7,971
965,5	4,914
965,9	3,914
966,3	7,257
966,8	4,629
967,2	5,714
967,6	7,914
968	1,771
968,4	2,171
968,9	1,771
969,3	4,943
969,7	4,029
970,1	4,971
970,5	3,8
971	13,943
971,4	12,857
971,8	15,114
972,2	8,771
972,6	8,2
973,1	4,543
973,5	6,743
973,9	2,171
974,3	1,743
974,7	1,4
975,2	4,029
975,6	3,457
976	6,286
976,4	2,657
976,8	4,257
977,3	7,143
977,7	4,971
978,1	3,257
978,5	7,114
978,9	2,371
979,4	0,6
979,8	-1,6
980,2	1,2
980,6	-1,171
981	3,2
981,5	2,6
981,9	2,086
982,3	5,8
982,7	2,457
983,1	-6,314
983,6	-7,257
984	-9,429
984,4	-8,229
984,8	-6,343
985,2	-5,429
985,6	-4,914
986,1	4,371
986,5	8,629
986,9	3,286
987,3	3,343
987,7	3,943
988,2	-0,829
988,6	0,286
989	-6,857
989,4	-7,514
989,8	-3,8
990,3	-5,686
990,7	-2,971
991,1	-0,771
991,5	1,771
991,9	9,6
992,3	10,943
992,8	10,886
993,2	10,2
993,6	12,914
994	16,286
994,4	13,543
994,9	9,943
995,3	5,229
995,7	1,714
996,1	4,457
996,5	-1,371
996,9	-9,457
997,4	-5,429
997,8	-10,257
998,2	-10,486
998,6	-13,229
999	-15
999,5	-15,857
999,9	-13,857
1000,3	-14,714
1000,7	-12,514
1001,1	-10,343
1001,5	-4,2
1002	0,114
1002,4	1,714
1002,8	7,257
1003,2	8,086
1003,6	10,343
1004	13,943
1004,5	9,143
1004,9	3,686
1005,3	0,114
1005,7	-0,571
1006,1	-5,629
1006,6	-2,714
1007	-6,829
1007,4	-4,343
1007,8	-1,4
1008,2	-1,457
1008,6	-2,343
1009,1	-2,571
1009,5	-5,629
1009,9	-0,114
1010,3	0,314
1010,7	0,257
1011,1	0,714
1011,6	-0,629
1012	4,371
1012,4	5,629
1012,8	-2,657
1013,2	6,457
1013,6	6,257
1014,1	11,343
1014,5	13,286
1014,9	8
1015,3	5,229
1015,7	10,4
1016,1	1,286
1016,6	-1,457
1017	-2,2
1017,4	-1,629
1017,8	-2,943
1018,2	2,486
1018,6	-2,429
1019,1	-1,571
1019,5	-0,029
1019,9	-3,629
1020,3	-5,314
1020,7	-2,4
1021,1	-5,857
1021,6	-1,914
1022	-1,086
1022,4	-2,286
1022,8	0,086
1023,2	-3,714
1023,6	-1,2
1024,1	6,143
1024,5	6,829
1024,9	6,029
1025,3	7,457
1025,7	9,629
1026,1	14,743
1026,6	10,571
1027	2,657
1027,4	4,543
1027,8	6,257
1028,2	8,743
1028,6	10,457
1029	5,2
1029,5	9,457
1029,9	11,029
1030,3	5,514
1030,7	6,971
1031,1	8,229
1031,5	-3,743
1032	0,314
1032,4	-0,429
1032,8	-1,543
1033,2	5,086
1033,6	1,857
1034	-1,229
1034,4	4,657
1034,9	4,971
1035,3	0,657
1035,7	-1,086
1036,1	-3,114
1036,5	-4,057
1036,9	-2,371
1037,4	0,429
1037,8	-6,286
1038,2	-3,086
1038,6	-1,171
1039	-4,286
1039,4	2,257
1039,8	-3,771
1040,3	-2,143
1040,7	7,657
1041,1	6,743
1041,5	7,971
1041,9	9,514
1042,3	5,229
1042,7	10,171
1043,2	4,743
1043,6	0,257
1044	-0,514
1044,4	-2,371
1044,8	-0,743
1045,2	-0,629
1045,6	0,943
1046,1	0,943
1046,5	0,171
1046,9	-2,171
1047,3	-4,743
1047,7	-5,714
1048,1	-7,429
1048,5	-9,971
1049	-3,314
1049,4	-1,029
1049,8	7,229
1050,2	12,514
1050,6	15,229
1051	16,143
1051,4	15
1051,9	9,571
1052,3	17,829
1052,7	15,657
1053,1	9,314
1053,5	8,486
1053,9	6,886
1054,3	6,714
1054,8	15,343
1055,2	9,286
1055,6	11,086
1056	12,4
1056,4	10,457
1056,8	11,171
1057,2	12,229
1057,6	4,286
1058,1	3,543
1058,5	-1,914
1058,9	1,829
1059,3	0,4
1059,7	-0,314
1060,1	0,486
1060,5	0,286
1061	1,229
1061,4	2,686
1061,8	3,6
1062,2	4,8
1062,6	5,971
1063	6,829
1063,4	8,257
1063,8	4,429
1064,3	1,286
1064,7	-3,657
1065,1	-2,371
1065,5	-4,457
1065,9	-7,686
1066,3	-12,114
1066,7	-13,057
1067,1	-14,257
1067,6	-10,543
1068	-13,714
1068,4	-15,829
1068,8	-14,771
1069,2	-5,743
1069,6	-2,086
1070	4,8
1070,4	3,543
1070,9	3,286
1071,3	7
1071,7	8,257
1072,1	5,6
1072,5	0,343
1072,9	-1,229
1073,3	-2,771
1073,7	-5,2
1074,2	-3,657
1074,6	-0,686
1075	-3,829
1075,4	-1,886
1075,8	-1,6
1076,2	3,143
1076,6	7,286
1077	3,543
1077,5	2
1077,9	1,6
1078,3	1,743
1078,7	-0,286
1079,1	-2,943
1079,5	-5,429
1079,9	0,657
1080,3	-0,571
1080,7	0,686
1081,2	5,286
1081,6	2,8
1082	-0,143
1082,4	9,714
1082,8	6,629
1083,2	9,314
1083,6	13,029
1084	9,743
1084,5	12,771
1084,9	13,943
1085,3	2,571
1085,7	6,543
1086,1	5,714
1086,5	3,229
1086,9	7,086
1087,3	6,771
1087,7	7,971
1088,2	10,2
1088,6	8,057
1089	2,943
1089,4	1
1089,8	-0,543
1090,2	-0,343
1090,6	-1,457
1091	2,286
1091,4	2,257
1091,9	7,343
1092,3	11,086
1092,7	8,857
1093,1	11,086
1093,5	14,743
1093,9	10,343
1094,3	10,086
1094,7	4,343
1095,1	-2,629
1095,5	-1,857
1096	-4,914
1096,4	-3,457
1096,8	-2,257
1097,2	-6
1097,6	1,171
1098	6,343
1098,4	8,143
1098,8	9,429
1099,2	7,457
1099,6	8,286
1100,1	8,429
1100,5	2,029
1100,9	1,4
1101,3	-0,086
1101,7	1,2
1102,1	0,486
1102,5	3,829
1102,9	5,143
1103,3	11
1103,7	10,057
1104,2	7,714
1104,6	4,886
1105	6,286
1105,4	5,086
1105,8	5,2
1106,2	1,543
1106,6	1,543
1107	3,457
1107,4	5,033
1107,8	2,68
1108,3	-0,15
