Data from Subt2_084.txt Node
Date: Sat Aug 26 16:40:24 MSK 2023
User: vat
Spectrometer: MAYP114033
Trigger mode: 0
Integration Time (sec): 1,000000E0
Scans to average: 5
Electric dark correction enabled: true
Nonlinearity correction enabled: false
Boxcar width: 3
XAxis mode: Wavelengths
Number of Pixels in Spectrum: 2068
>>>>>Begin Spectral Data<<<<<
199,4	0,05
199,9	1,02
200,4	-1,233
200,8	-1,557
201,3	-0,5
201,8	1,957
202,2	2,814
202,7	3,3
203,2	3,243
203,6	7,414
204,1	8,643
204,6	12,9
205	14,214
205,5	14,129
206	16,043
206,4	16,9
206,9	12,614
207,4	17,271
207,8	11,271
208,3	8,871
208,8	7,757
209,2	4,757
209,7	4,271
210,2	15,7
210,6	13,757
211,1	14,871
211,5	11,414
212	12,043
212,5	10,471
212,9	11,357
213,4	2,929
213,9	-2,3
214,3	1,129
214,8	8,357
215,3	5,7
215,7	5,414
216,2	8,5
216,7	5,7
217,1	7,643
217,6	5,671
218,1	2,5
218,5	5,871
219	15,529
219,5	9,986
219,9	12,786
220,4	12,986
220,9	13,5
221,3	12,243
221,8	8,957
222,3	4,843
222,7	5,414
223,2	5,1
223,6	1,986
224,1	1,814
224,6	2,329
225	4,7
225,5	8,129
226	9,157
226,4	10,9
226,9	11,7
227,4	11,643
227,8	15,643
228,3	19,614
228,8	12,1
229,2	14,671
229,7	10,5
230,2	18,471
230,6	16,043
231,1	14,1
231,5	16,614
232	25,957
232,5	22,729
232,9	25,243
233,4	24,643
233,9	28,929
234,3	28,129
234,8	22,786
235,3	14,557
235,7	20,643
236,2	23,9
236,7	20,843
237,1	20,814
237,6	17,7
238,1	18,529
238,5	20,414
239	13,443
239,4	13,043
239,9	10,014
240,4	7,214
240,8	10,071
241,3	8,986
241,8	6,243
242,2	6,929
242,7	10,1
243,2	9,529
243,6	10,329
244,1	10,814
244,6	6,129
245	7,3
245,5	9,357
245,9	3,986
246,4	6,214
246,9	6,843
247,3	1,643
247,8	5,757
248,3	9,3
248,7	12,271
249,2	9,186
249,7	11,529
250,1	9,471
250,6	11,329
251	13,843
251,5	9,3
252	9,157
252,4	14,3
252,9	15,329
253,4	17,071
253,8	17,1
254,3	16,643
254,8	18,214
255,2	15,529
255,7	14,729
256,1	13,271
256,6	14,157
257,1	18,643
257,5	20,557
258	21,643
258,5	20,757
258,9	20,414
259,4	19,1
259,9	20,671
260,3	17,786
260,8	16,786
261,2	22,071
261,7	24,5
262,2	23,871
262,6	24,357
263,1	18,671
263,6	21,014
264	16,529
264,5	11,586
264,9	10,329
265,4	9,671
265,9	13,414
266,3	17,386
266,8	17,671
267,3	22,9
267,7	24,529
268,2	24,414
268,7	21,986
269,1	18,157
269,6	17,9
270	14,043
270,5	14,471
271	11,243
271,4	8,243
271,9	13,614
272,4	13,3
272,8	7,186
273,3	6,043
273,7	3,843
274,2	5,843
274,7	6,757
275,1	0,957
275,6	2,414
276,1	12,214
276,5	16,986
277	16,414
277,4	14,157
277,9	14,986
278,4	17,871
278,8	17,643
279,3	9,529
279,8	9,243
280,2	7,9
280,7	6,986
281,1	10,271
281,6	10,129
282,1	10,271
282,5	16,671
283	15,986
283,4	18,329
283,9	17,929
284,4	14,414
284,8	15,729
285,3	11,586
285,8	8,986
286,2	6,729
286,7	2,443
287,1	2,786
287,6	1,071
288,1	3,786
288,5	6,586
289	3,586
289,5	3,357
289,9	5,529
290,4	4,957
290,8	10,329
291,3	3,5
291,8	5,043
292,2	8,529
292,7	9,786
293,1	13,471
293,6	16,071
294,1	10,386
294,5	14,186
295	11,614
295,5	13,1
295,9	15,014
296,4	14,5
296,8	15,329
297,3	20,414
297,8	19,3
298,2	18,414
298,7	14,214
299,1	12,014
299,6	8,9
300,1	8,3
300,5	8,757
301	12,929
301,5	15,243
301,9	15,9
302,4	14,843
302,8	15,214
303,3	15,9
303,8	12,157
304,2	9,414
304,7	10,9
305,1	14,3
305,6	11,271
306,1	12,614
306,5	9,557
307	8,871
307,4	7,186
307,9	2,814
308,4	3,5
308,8	10,014
309,3	6,7
309,8	11,643
310,2	10,843
310,7	17,9
311,1	15,786
311,6	12,386
312,1	12,614
312,5	12,386
313	8,957
313,4	10,3
313,9	6,7
314,4	8,557
314,8	11,071
315,3	14,729
315,7	18,014
316,2	15,729
316,7	16,529
317,1	19,786
317,6	21,214
318	18,843
318,5	14,929
319	18,329
319,4	20,843
319,9	19,5
320,3	15,9
320,8	17,471
321,3	16,9
321,7	17,186
322,2	13,186
322,6	12,157
323,1	15,129
323,6	12,929
324	13,614
324,5	10,157
324,9	9,443
325,4	10,157
325,9	17,357
326,3	17,557
326,8	20,129
327,2	20,3
327,7	24,014
328,2	22,586
328,6	22,614
329,1	17,043
329,5	21,557
330	17,929
330,5	18,043
330,9	20,186
331,4	17,243
331,8	18,871
332,3	19,929
332,8	9,243
333,2	9,5
333,7	8,271
334,1	5,729
334,6	11,386
335,1	11,043
335,5	10,014
336	11,386
336,4	12,671
336,9	16,329
337,4	18,471
337,8	19,386
338,3	18,871
338,7	20,643
339,2	29,243
339,7	27,043
340,1	25,214
340,6	17,957
341	19,443
341,5	17,671
342	13,043
342,4	5,957
342,9	3,9
343,3	3,386
343,8	12,957
344,2	11,7
344,7	14,1
345,2	14,671
345,6	19,786
346,1	26,786
346,5	26,071
347	25,529
347,5	19,671
347,9	21,271
348,4	27,243
348,8	24,957
349,3	22,329
349,8	25,1
350,2	26,329
350,7	32,7
351,1	35,214
351,6	38,643
352	53,414
352,5	63,586
353	77,957
353,4	92,814
353,9	115,043
354,3	138,071
354,8	164,557
355,3	191,386
355,7	230,471
356,2	270,157
356,6	320,271
357,1	372,386
357,5	436,329
358	516,843
358,5	606,329
358,9	704,957
359,4	824,9
359,8	952,814
360,3	1103,186
360,8	1269,757
361,2	1451,957
361,7	1651,671
362,1	1881,643
362,6	2127,014
363	2397,957
363,5	2693,443
364	2996,329
364,4	3310,357
364,9	3624,157
365,3	3938,643
365,8	4245,9
366,3	4539,7
366,7	4798,157
367,2	5035,014
367,6	5234,757
368,1	5400,957
368,5	5513,557
369	5580,5
369,5	5598,757
369,9	5569,843
370,4	5497,186
370,8	5382,9
371,3	5233,9
371,7	5053,9
372,2	4845,014
372,7	4611,414
373,1	4372,786
373,6	4119,986
374	3861,957
374,5	3607,386
374,9	3351,129
375,4	3106,043
375,9	2875,9
376,3	2652,329
376,8	2444,9
377,2	2248,871
377,7	2062,986
378,2	1893,557
378,6	1733,871
379,1	1585,043
379,5	1447,871
380	1326,929
380,4	1214,586
380,9	1111,586
381,4	1022,5
381,8	938,614
382,3	865,986
382,7	799,043
383,2	733,843
383,6	681,157
384,1	633,7
384,6	587,557
385	550,843
385,5	508,3
385,9	471,986
386,4	439,614
386,8	413,643
387,3	383,986
387,7	358,357
388,2	332,129
388,7	313,986
389,1	292,071
389,6	273,357
390	250,043
390,5	231,186
390,9	215,271
391,4	205,843
391,9	189,529
392,3	178,129
392,8	165,814
393,2	152,786
393,7	147,471
394,1	139,871
394,6	124,643
395,1	120,614
395,5	113,329
396	109,186
396,4	102,671
396,9	97,214
397,3	94,3
397,8	92,3
398,2	82,1
398,7	74,471
399,2	67,214
399,6	70,586
400,1	61,757
400,5	54,986
401	53,614
401,4	56,071
401,9	59,643
402,4	60,929
402,8	54,5
403,3	54,729
403,7	55,671
404,2	52,243
404,6	51,014
405,1	49,557
405,5	45,986
406	44,586
406,5	40,071
406,9	41,386
407,4	41,271
407,8	42,386
408,3	42,014
408,7	49,757
409,2	48,7
409,6	55,671
410,1	57,986
410,6	56,814
411	57,7
411,5	59,214
411,9	51,929
412,4	58,786
412,8	62,157
413,3	60,871
413,7	68,414
414,2	72,671
414,7	83,243
415,1	86,843
415,6	89,586
416	87,9
416,5	88,786
416,9	90,786
417,4	89,357
417,8	88,1
418,3	95,671
418,8	93,043
419,2	97,557
419,7	103,386
420,1	102,071
420,6	105,614
421	104,757
421,5	104,271
421,9	108,471
422,4	108,471
422,8	108,786
423,3	109,414
423,8	113,1
424,2	112,614
424,7	112,7
425,1	110,271
425,6	112,529
426	114,729
426,5	118,757
426,9	118,386
427,4	116,043
427,9	112,814
428,3	117,814
428,8	113,1
429,2	106,586
429,7	102,614
430,1	102,786
430,6	107,386
431	110,7
431,5	109,414
431,9	118,243
432,4	125,7
432,8	131,529
433,3	132,757
433,8	133,471
434,2	138,643
434,7	141,614
435,1	142,871
435,6	151,443
436	157,557
436,5	164,043
436,9	173,414
437,4	179,643
437,8	186,9
438,3	198,814
438,8	198,271
439,2	205,786
439,7	211,471
440,1	216,243
440,6	226,386
441	235,5
441,5	239,871
441,9	253,386
442,4	265,614
442,8	278,7
443,3	288,357
443,7	294,386
444,2	311,129
444,7	325,5
445,1	334,614
445,6	343,271
446	355,586
446,5	372,129
446,9	392,614
447,4	405,557
447,8	420,214
448,3	438,757
448,7	459,243
449,2	479,3
449,6	497,071
450,1	514,443
450,6	537,186
451	555,357
451,5	573,214
451,9	591,129
452,4	610,243
452,8	637,329
453,3	660,157
453,7	674,671
454,2	698,414
454,6	726,729
455,1	747,957
455,5	771,329
456	796,043
456,4	818,243
456,9	847,157
457,3	880,529
457,8	905,757
458,3	946,9
458,7	982,414
459,2	1008,557
459,6	1042,157
460,1	1074,814
460,5	1105,843
461	1136,243
461,4	1161,929
461,9	1189,957
462,3	1226,271
462,8	1261,843
463,2	1298,329
463,7	1331,3
464,1	1375,3
464,6	1408,357
465	1449,243
465,5	1486,843
466	1524,957
466,4	1562,814
466,9	1601,729
467,3	1634,386
467,8	1676,729
468,2	1711,643
468,7	1749,129
469,1	1785,986
469,6	1825,243
470	1862,329
470,5	1903,529
470,9	1939,157
471,4	1974,3
471,8	2014,586
472,3	2054,586
472,7	2097,786
473,2	2137,1
473,6	2171,843
474,1	2209,557
474,5	2257,471
475	2297,386
475,4	2335,129
475,9	2369,157
476,4	2411,329
476,8	2454,529
477,3	2499,986
477,7	2538,7
478,2	2572,129
478,6	2615,5
479,1	2651,043
479,5	2686,5
480	2724,214
480,4	2756,014
480,9	2787,386
481,3	2823,586
481,8	2855,129
482,2	2893,071
482,7	2928,243
483,1	2965,129
483,6	2993,843
484	3022,214
484,5	3052,614
484,9	3085,729
485,4	3115,671
485,8	3137,1
486,3	3157,929
486,7	3192,957
487,2	3221,129
487,6	3252,386
488,1	3270,929
488,5	3290,643
489	3317,614
489,4	3342,929
489,9	3360,9
490,4	3383,529
490,8	3400,586
491,3	3422,814
491,7	3443,929
492,2	3470,1
492,6	3486,786
493,1	3502,986
493,5	3516,7
494	3539,1
494,4	3556,529
494,9	3575,1
495,3	3591,414
495,8	3606,5
496,2	3624,3
496,7	3642,071
497,1	3650,3
497,6	3661,757
498	3676,7
498,5	3684,786
498,9	3697,671
499,4	3716,157
499,8	3723,357
500,3	3734,043
500,7	3742,786
501,2	3751,671
501,6	3755,757
502,1	3764,814
502,5	3766,443
503	3785,814
503,4	3799,071
503,9	3820,271
504,3	3825,129
504,8	3836,614
505,2	3845,871
505,7	3860,557
506,1	3863,043
506,6	3867,357
507	3864,443
507,5	3873,9
507,9	3883,3
508,4	3890,214
508,8	3892,957
509,3	3903,814
509,7	3909,5
510,2	3922,471
510,6	3927,414
511,1	3937,871
511,5	3941,1
512	3946,157
512,4	3945,243
512,9	3950,357
513,3	3956,9
513,8	3961,986
514,2	3967,986
514,7	3973,5
515,1	3977,357
515,6	3978,9
516	3984,1
516,5	3985,729
516,9	3990,729
517,4	3995,671
517,8	3997,814
518,3	4000,443
518,7	4016,329
519,2	4019,1
519,6	4017,5
520,1	4022,7
520,5	4020,243
521	4031,529
521,4	4038,671
521,9	4043,186
522,3	4052,786
522,8	4064,529
523,2	4068,643
523,7	4072,043
524,1	4081,586
524,6	4089,414
525	4098,5
525,5	4103,1
525,9	4102,786
526,4	4104,7
526,8	4107,957
527,3	4114,614
527,7	4115,271
528,2	4112,357
528,6	4118,214
529,1	4124,157
529,5	4128,814
530	4139,586
530,4	4141,3
530,9	4145,386
531,3	4153,9
531,8	4163,671
532,2	4175,529
532,6	4191,129
533,1	4196,7
533,5	4208,157
534	4224,614
534,4	4238,7
534,9	4249,643
535,3	4259,957
535,8	4268,414
536,2	4278,043
536,7	4276,9
537,1	4281,5
537,6	4280,7
538	4289,9
538,5	4295,871
538,9	4301,786
539,4	4316,7
539,8	4331,329
540,3	4337,243
540,7	4346,271
541,2	4350,214
541,6	4359,986
542,1	4365,186
542,5	4373,157
543	4378,329
543,4	4397,129
543,9	4410,871
544,3	4417,871
544,8	4420,786
545,2	4432,843
545,7	4437,129
546,1	4447,843
546,5	4451,843
547	4457,529
547,4	4467,3
547,9	4483,3
548,3	4494,3
548,8	4500,814
549,2	4509,957
549,7	4516,443
550,1	4526,129
550,6	4531,386
551	4538,243
551,5	4541,871
551,9	4549,443
552,4	4558,757
552,8	4565,5
553,3	4573,386
553,7	4578,757
554,2	4586,014
554,6	4594,243
555,1	4606,586
555,5	4610,357
555,9	4617,671
556,4	4620,443
556,8	4630,586
557,3	4637,414
557,7	4645,386
558,2	4643,986
558,6	4653,129
559,1	4663,557
559,5	4672,614
560	4672,729
560,4	4674,129
560,9	4684,729
561,3	4694,9
561,8	4704,814
562,2	4700,043
562,7	4706,614
563,1	4713,786
563,6	4721,643
564	4723,643
564,4	4733,5
564,9	4732,071
565,3	4743,1
565,8	4749,9
566,2	4758,929
566,7	4762,957
567,1	4775,071
567,6	4770,443
568	4776,357
568,5	4784,471
568,9	4779,586
569,4	4778,271
569,8	4774,786
570,3	4763,243
570,7	4769,414
571,1	4763,614
571,6	4758,7
572	4768,014
572,5	4770,9
572,9	4780,7
573,4	4780,786
573,8	4780,529
574,3	4783,843
574,7	4783,3
575,2	4771,614
575,6	4774,814
576,1	4764,614
576,5	4763,7
576,9	4759,814
577,4	4761,1
577,8	4757,243
578,3	4751,243
578,7	4742,786
579,2	4736,414
579,6	4736,814
580,1	4737,471
580,5	4725,071
581	4715,557
581,4	4716,186
581,9	4713,986
582,3	4709,386
582,7	4700,5
583,2	4686,871
583,6	4681,471
584,1	4682,843
584,5	4683,271
585	4673,671
585,4	4664,414
585,9	4662,986
586,3	4657,214
586,8	4651,1
587,2	4637,129
587,6	4621,1
588,1	4615,443
588,5	4615,557
589	4595,157
589,4	4583,986
589,9	4575,9
590,3	4576,129
590,8	4572,557
591,2	4564,7
591,7	4555,071
592,1	4553,9
592,5	4551,957
593	4545,529
593,4	4529,643
593,9	4513,3
594,3	4502,7
594,8	4496,1
595,2	4492,214
595,7	4484,586
596,1	4478,071
596,6	4478,671
597	4483,557
597,4	4473,186
597,9	4466,643
598,3	4461,443
598,8	4447,471
599,2	4441,586
599,7	4424,871
600,1	4410,843
600,6	4404,1
601	4393,414
601,4	4376,186
601,9	4362,871
602,3	4346,843
602,8	4340,186
603,2	4331,014
603,7	4320,729
604,1	4312,5
604,6	4302,157
605	4297,529
605,4	4290,9
605,9	4278,5
606,3	4267,9
606,8	4254,3
607,2	4241,243
607,7	4230,414
608,1	4215,414
608,6	4198,871
609	4189,414
609,4	4169,986
609,9	4157,786
610,3	4139,529
610,8	4128,386
611,2	4117,957
611,7	4107,271
612,1	4089,071
612,6	4080,871
613	4069,3
613,4	4061,729
613,9	4043,814
614,3	4032,557
614,8	4016,871
615,2	4008,557
615,7	3993,186
616,1	3976,871
616,6	3951,129
617	3936,529
617,4	3916,043
617,9	3898,586
618,3	3881,214
618,8	3861,329
619,2	3852,3
619,7	3848,071
620,1	3826,386
620,5	3815,386
621	3804,529
621,4	3786,586
621,9	3779,3
622,3	3757,1
622,8	3736,1
623,2	3727,414
623,6	3706,929
624,1	3688,443
624,5	3668,357
625	3644,614
625,4	3630,643
625,9	3610,786
626,3	3592,357
626,8	3572,643
627,2	3561,014
627,6	3549,271
628,1	3533,986
628,5	3516,7
629	3504,814
629,4	3482,557
629,9	3470,214
630,3	3444,729
630,7	3428,9
631,2	3408,329
631,6	3387,414
632,1	3370,043
632,5	3360,214
633	3337,071
633,4	3326,357
633,8	3300,586
634,3	3285,614
634,7	3269,3
635,2	3251,471
635,6	3234,614
636,1	3225,014
636,5	3200,957
636,9	3189,043
637,4	3168,471
637,8	3152,529
638,3	3138,014
638,7	3120,071
639,2	3100,7
639,6	3085,186
640	3069,186
640,5	3058,871
640,9	3044,071
641,4	3025,014
641,8	3009,9
642,2	2998,786
642,7	2984,757
643,1	2976,7
643,6	2961,7
644	2943,929
644,5	2930,929
644,9	2911,586
645,3	2888,814
645,8	2876,386
646,2	2856,557
646,7	2840,471
647,1	2827,986
647,6	2806,757
648	2789,471
648,4	2776,586
648,9	2763,986
649,3	2748,1
649,8	2735,529
650,2	2721,014
650,6	2715,3
651,1	2710,129
651,5	2700,243
652	2685,957
652,4	2676,957
652,9	2664,014
653,3	2648,129
653,7	2630,529
654,2	2617,786
654,6	2597,386
655,1	2575,529
655,5	2557,729
655,9	2543,671
656,4	2529,729
656,8	2513,414
657,3	2492,214
657,7	2479,814
658,2	2471,214
658,6	2448,214
659	2432,757
659,5	2413,186
659,9	2401,243
660,4	2391,871
660,8	2377,843
661,2	2359,043
661,7	2348,843
662,1	2330,014
662,6	2319,729
663	2301,5
663,4	2285,014
663,9	2270,243
664,3	2257,7
664,8	2247,5
665,2	2238,186
665,6	2232,329
666,1	2223,443
666,5	2208,186
667	2192,729
667,4	2183,329
667,9	2164,157
668,3	2146,3
668,7	2125,271
669,2	2103,529
669,6	2089,586
670,1	2079,386
670,5	2058,557
670,9	2049,557
671,4	2037,814
671,8	2021,871
672,3	2015,586
672,7	2002,386
673,1	1989,529
673,6	1978,7
674	1965,214
674,5	1954,614
674,9	1947,3
675,3	1933,957
675,8	1924,129
676,2	1914,814
676,7	1903,243
677,1	1891,614
677,5	1879,786
678	1866,757
678,4	1853,529
678,9	1840,157
679,3	1823,5
679,7	1807,357
680,2	1795,471
680,6	1777,843
681,1	1767,471
681,5	1756,214
681,9	1743,357
682,4	1734,757
682,8	1725,043
683,3	1711,3
683,7	1703,757
684,1	1689,871
684,6	1676,986
685	1664,586
685,5	1653,357
685,9	1648,329
686,3	1642,529
686,8	1632,1
687,2	1621,986
687,7	1616,471
688,1	1608,071
688,5	1592,386
689	1581,157
689,4	1569,871
689,9	1558,414
690,3	1552,271
690,7	1535,1
691,2	1521,357
691,6	1519,643
692	1505,7
692,5	1494,614
692,9	1484,5
693,4	1470,186
693,8	1461,814
694,2	1453,729
694,7	1443,757
695,1	1436,414
695,6	1419,1
696	1409,357
696,4	1395,871
696,9	1389,643
697,3	1380,843
697,8	1367,1
698,2	1357,529
698,6	1356,843
699,1	1346,614
699,5	1338,614
699,9	1327,243
700,4	1316,5
700,8	1305,214
701,3	1294,729
701,7	1277,043
702,1	1269,357
702,6	1264,5
703	1249,729
703,5	1243,1
703,9	1237,843
704,3	1230,414
704,8	1228,929
705,2	1220,557
705,6	1205,014
706,1	1205,529
706,5	1196,1
707	1185,9
707,4	1179,814
707,8	1167,386
708,3	1157,214
708,7	1156,186
709,2	1146,329
709,6	1141,986
710	1134,757
710,5	1129,614
710,9	1129,357
711,3	1120,614
711,8	1113,586
712,2	1110,271
712,7	1098,586
713,1	1092,214
713,5	1079,243
714	1068,643
714,4	1063,557
714,8	1054,7
715,3	1045,071
715,7	1038,386
716,2	1029,129
716,6	1024,557
717	1017,129
717,5	1014,557
717,9	1006,7
718,3	998,5
718,8	991,414
719,2	986,129
719,7	978,557
720,1	967,929
720,5	959,586
721	951,5
721,4	945,071
721,8	939,7
722,3	930,014
722,7	918,757
723,2	914,929
723,6	904,643
724	898,786
724,5	888,529
724,9	875,843
725,3	867,243
725,8	861,814
726,2	852,671
726,7	846,357
727,1	839,386
727,5	836,014
728	837,643
728,4	834,271
728,8	826,729
729,3	820,7
729,7	815,957
730,1	808,757
730,6	804,871
731	800,271
731,5	795,3
731,9	792,643
732,3	792,786
732,8	787,671
733,2	786,186
733,6	780,329
734,1	770,529
734,5	762,614
734,9	756,786
735,4	752,557
735,8	744,1
736,3	740,014
736,7	733,871
737,1	730,157
737,6	730,471
738	724,671
738,4	715,729
738,9	717,214
739,3	710,671
739,7	706,271
740,2	702,3
740,6	699,671
741,1	701,386
741,5	697,357
741,9	686,414
742,4	682,386
742,8	678,414
743,2	676,129
743,7	668,5
744,1	659,243
744,5	658,7
745	654,129
745,4	651,386
745,8	647,786
746,3	643,014
746,7	640,929
747,2	636,557
747,6	630,243
748	626,871
748,5	622,243
748,9	612,9
749,3	610,357
749,8	603,786
750,2	599,529
750,6	594,243
751,1	595,557
751,5	586,1
751,9	587,7
752,4	582,9
752,8	577,729
753,3	571,9
753,7	570,843
754,1	561,7
754,6	560,386
755	554,386
755,4	550,929
755,9	545,357
756,3	540,443
756,7	533,586
757,2	533,157
757,6	526,1
758	519,643
758,5	510,729
758,9	508,614
759,3	507,5
759,8	506,7
760,2	506,586
760,6	506,014
761,1	502,071
761,5	503,586
761,9	502,586
762,4	498,586
762,8	492,071
763,3	485,843
763,7	479,7
764,1	476,071
764,6	467,271
765	464,7
765,4	463,757
765,9	458,3
766,3	454,071
766,7	451,386
767,2	448,271
767,6	448,071
768	444,786
768,5	438,786
768,9	434,386
769,3	429,814
769,8	429,9
770,2	433,1
770,6	429,243
771,1	424,357
771,5	425,5
771,9	424,214
772,4	428,5
772,8	426,5
773,2	419,671
773,7	420,557
774,1	421,471
774,5	418,414
775	414,871
775,4	408,729
775,8	405,786
776,3	404,186
776,7	401,129
777,1	399,271
777,6	392,9
778	390,243
778,4	385,9
778,9	382,357
779,3	380,614
779,7	377,129
780,2	370,586
780,6	368,929
781	369,5
781,5	368,329
781,9	368,757
782,3	367,043
782,8	360,071
783,2	357,3
783,6	354,071
784,1	354,957
784,5	347,671
784,9	343,643
785,4	339,071
785,8	336,129
786,2	331,329
786,7	328,529
787,1	319,871
787,5	318,871
788	313,3
788,4	309,9
788,8	308,443
789,3	308,643
789,7	309,014
790,1	308,329
790,6	310,586
791	312,929
791,4	310,843
791,9	312,3
792,3	308,9
792,7	307,643
793,2	302,786
793,6	297,671
794	293,729
794,5	291,957
794,9	289,957
795,3	290,329
795,8	286,843
796,2	287,986
796,6	283,9
797,1	279,586
797,5	274,814
797,9	272,957
798,4	268,957
798,8	266,214
799,2	264,729
799,7	267,071
800,1	262,129
800,5	264,214
801	259,357
801,4	254,871
801,8	251,271
802,2	250,043
802,7	245,243
803,1	247,843
803,5	248,129
804	247,1
804,4	247,043
804,8	248,3
805,3	242,414
805,7	236,929
806,1	234,271
806,6	233,071
807	231,529
807,4	228,129
807,9	224,471
808,3	223,757
808,7	223,014
809,2	220,757
809,6	215,986
810	211,271
810,4	212,1
810,9	207,586
811,3	206,671
811,7	206,643
812,2	211,157
812,6	209,157
813	209,557
813,5	209,471
813,9	210,9
814,3	208,957
814,8	211,929
815,2	204,014
815,6	201,586
816,1	200,871
816,5	196,529
816,9	199,729
817,3	197,386
817,8	195,386
818,2	193,014
818,6	193,186
819,1	193,3
819,5	194,929
819,9	187,271
820,4	188,157
820,8	178,414
821,2	181,5
821,7	181,043
822,1	176,729
822,5	173,243
822,9	178,129
823,4	173,871
823,8	179,386
824,2	172,986
824,7	172,557
825,1	173,443
825,5	176,557
826	170,214
826,4	171,071
826,8	166,957
827,3	172,157
827,7	171,129
828,1	172,214
828,5	166,557
829	165,1
829,4	166,357
829,8	161,7
830,3	156,757
830,7	150,1
831,1	145,3
831,6	139,557
832	136,586
832,4	133,9
832,8	138,814
833,3	136,929
833,7	142,043
834,1	140,957
834,6	140,414
835	141,443
835,4	143,757
835,8	137,271
836,3	132,129
836,7	126,5
837,1	123,9
837,6	124,757
838	123,871
838,4	116,643
838,9	124,643
839,3	132,129
839,7	129,586
840,1	128,643
840,6	127,986
841	128,871
841,4	128,243
841,9	119,614
842,3	115,957
842,7	113,9
843,1	116,786
843,6	116,386
844	112,557
844,4	113,643
844,9	113,9
845,3	110,529
845,7	115,043
846,2	113,614
846,6	114,214
847	113,729
847,4	110,386
847,9	107,814
848,3	110,786
848,7	109,214
849,2	106,929
849,6	104,9
850	104,443
850,4	106,1
850,9	107,214
851,3	104,271
851,7	102,586
852,2	98,214
852,6	102,671
853	102,357
853,4	106,671
853,9	103,186
854,3	99,5
854,7	95,386
855,2	96,7
855,6	91,471
856	87,271
856,4	82,557
856,9	83,5
857,3	83,786
857,7	87,7
858,2	88,071
858,6	92,814
859	92,529
859,4	91,929
859,9	92,5
860,3	92,9
860,7	92,9
861,1	94,443
861,6	88,814
862	90,443
862,4	92,157
862,9	93,957
863,3	91,671
863,7	85,729
864,1	82,414
864,6	80,614
865	84,186
865,4	78,729
865,9	74,129
866,3	77,129
866,7	83,3
867,1	86,357
867,6	84,214
868	84,271
868,4	84,814
868,8	88,014
869,3	84,614
869,7	75,186
870,1	73,443
870,6	74,1
871	66,3
871,4	66,586
871,8	64,814
872,3	68,071
872,7	70,586
873,1	69,043
873,5	69,043
874	76,414
874,4	71,929
874,8	69,786
875,3	62,643
875,7	62,7
876,1	62,986
876,5	65,529
877	59,757
877,4	60,757
877,8	67,871
878,2	70,471
878,7	72,157
879,1	70,1
879,5	69,871
879,9	68,014
880,4	65,043
880,8	60,129
881,2	61,386
881,7	61,929
882,1	61,7
882,5	61,5
882,9	61,186
883,4	64,5
883,8	64,357
884,2	61,586
884,6	59,729
885,1	59,929
885,5	60,243
885,9	67,043
886,3	67,214
886,8	63,214
887,2	65,071
887,6	64,586
888	63,043
888,5	62,271
888,9	57,9
889,3	52,614
889,8	51,671
890,2	50,529
890,6	44,3
891	47,557
891,5	47,986
891,9	46,329
892,3	50,186
892,7	53,786
893,2	52,414
893,6	59,414
894	56,271
894,4	56,671
894,9	54,529
895,3	53,814
895,7	52,271
896,1	52,043
896,6	51,471
897	52,243
897,4	42,157
897,8	45,357
898,3	49,757
898,7	45,757
899,1	43,871
899,5	37,186
900	35,386
900,4	37,414
900,8	36,386
901,2	32,586
901,7	34,329
902,1	37,729
902,5	44,129
902,9	45,957
903,4	48,7
903,8	42,843
904,2	43,071
904,6	37,871
905,1	39,043
905,5	36,214
905,9	35,9
906,3	34,529
906,8	37,729
907,2	34,986
907,6	41,5
908	34,529
908,5	35,5
908,9	31,7
909,3	30,7
909,7	31,814
910,2	31,814
910,6	29,929
911	36,643
911,4	32,586
911,9	34,186
912,3	33,557
912,7	30,814
913,1	27,443
913,6	31,1
914	30,471
914,4	29,871
914,8	29,129
915,3	25,586
915,7	26,071
916,1	29,786
916,5	24,386
916,9	18,843
917,4	20,071
917,8	15,871
918,2	19,5
918,6	17,129
919,1	16,243
919,5	22,471
919,9	24,3
920,3	24,271
920,8	29,671
921,2	33,729
921,6	32,786
922	31,786
922,5	25,614
922,9	22,7
923,3	24,529
923,7	19,757
924,2	15,071
924,6	18,843
925	18,129
925,4	19,729
925,8	22,329
926,3	23,671
926,7	29,643
927,1	30,843
927,5	29,271
928	28,443
928,4	25,214
928,8	31,5
929,2	29,443
929,7	21,5
930,1	19,243
930,5	17,814
930,9	23,929
931,3	27,5
931,8	21,129
932,2	18,357
932,6	25,014
933	22,814
933,5	25,557
933,9	18,614
934,3	17,414
934,7	18,186
935,2	22,271
935,6	20,986
936	22,9
936,4	21,614
936,8	25,757
937,3	25,214
937,7	24,7
938,1	21,071
938,5	19,5
939	24,386
939,4	27,386
939,8	22,471
940,2	22,214
940,6	19,386
941,1	26,443
941,5	26,729
941,9	24,871
942,3	19,957
942,8	23,214
943,2	20,643
943,6	22,271
944	17,7
944,4	10,614
944,9	5,729
945,3	8,1
945,7	11,129
946,1	12,643
946,6	12,414
947	12,586
947,4	15,529
947,8	20,786
948,2	21,386
948,7	16,957
949,1	14,671
949,5	16,129
949,9	16,443
950,3	23,757
950,8	22,7
951,2	21,1
951,6	23,443
952	28,1
952,5	25,386
952,9	19,5
953,3	11,586
953,7	11,9
954,1	13,329
954,6	12,471
955	10,443
955,4	9,157
955,8	15,243
956,2	13,986
956,7	9,643
957,1	9,5
957,5	9,214
957,9	9,5
958,3	14,1
958,8	13,129
959,2	19,129
959,6	24,843
960	21,129
960,5	21,586
960,9	20,129
961,3	14,614
961,7	12,7
962,1	10,671
962,6	7,757
963	7,443
963,4	5,986
963,8	8,386
964,2	8,614
964,7	6,5
965,1	10,643
965,5	8,471
965,9	12,557
966,3	10,243
966,8	8,986
967,2	15,157
967,6	18,186
968	15,014
968,4	16,443
968,9	19,786
969,3	20,929
969,7	15,071
970,1	10,986
970,5	9,357
971	6,014
971,4	6,414
971,8	4,329
972,2	6,329
972,6	13,271
973,1	14,414
973,5	16,014
973,9	17,786
974,3	14,843
974,7	9,414
975,2	8,129
975,6	-1,214
976	1,929
976,4	0,386
976,8	1,071
977,3	4,786
977,7	6,529
978,1	7,014
978,5	14,414
978,9	10,471
979,4	14,471
979,8	15,243
980,2	11,5
980,6	14,443
981	18,157
981,5	18,729
981,9	20,043
982,3	13,986
982,7	12,614
983,1	18,071
983,6	19,586
984	18,586
984,4	21,643
984,8	21,586
985,2	24,957
985,6	25,243
986,1	24,643
986,5	16,071
986,9	12,014
987,3	6,243
987,7	9,329
988,2	9,014
988,6	9,3
989	9,843
989,4	13,414
989,8	13,757
990,3	16,557
990,7	14,129
991,1	14,3
991,5	14,357
991,9	13,014
992,3	13,9
992,8	19,529
993,2	25,129
993,6	22,9
994	21,186
994,4	20,757
994,9	20,986
995,3	21,157
995,7	12,729
996,1	6,386
996,5	3,1
996,9	5,786
997,4	9,1
997,8	11,214
998,2	11,643
998,6	16,586
999	18,814
999,5	23,929
999,9	23,586
1000,3	22,043
1000,7	15,386
1001,1	13,014
1001,5	9,414
1002	5,529
1002,4	4,3
1002,8	5,157
1003,2	6,957
1003,6	10,357
1004	13,7
1004,5	11,586
1004,9	10,557
1005,3	7,214
1005,7	3,7
1006,1	1,557
1006,6	0,271
1007	-1,529
1007,4	-0,243
1007,8	-0,871
1008,2	1,214
1008,6	-0,9
1009,1	-4,386
1009,5	2,129
1009,9	8,671
1010,3	14,043
1010,7	19,1
1011,1	23,157
1011,6	26,529
1012	26,271
1012,4	24,929
1012,8	13,414
1013,2	10,586
1013,6	8,471
1014,1	5,671
1014,5	6,271
1014,9	9,814
1015,3	5,329
1015,7	9,443
1016,1	10,471
1016,6	15,1
1017	14,786
1017,4	10,014
1017,8	4,843
1018,2	5,129
1018,6	6,957
1019,1	7,986
1019,5	5,729
1019,9	10,186
1020,3	12,214
1020,7	16,129
1021,1	20,814
1021,6	20,214
1022	12,757
1022,4	16,329
1022,8	12,643
1023,2	14,986
1023,6	12,729
1024,1	9,186
1024,5	11,329
1024,9	18,614
1025,3	14,9
1025,7	16,929
1026,1	19,1
1026,6	22,529
1027	20,271
1027,4	14,414
1027,8	12,243
1028,2	8,214
1028,6	4,443
1029	1,9
1029,5	3,357
1029,9	2,357
1030,3	11,386
1030,7	10,7
1031,1	11,186
1031,5	9,529
1032	9,871
1032,4	7,814
1032,8	8,014
1033,2	7,243
1033,6	12,071
1034	12,129
1034,4	20,271
1034,9	16,243
1035,3	21,071
1035,7	22,614
1036,1	20,243
1036,5	13,129
1036,9	13,757
1037,4	9,214
1037,8	13,957
1038,2	2,986
1038,6	5,529
1039	1,671
1039,4	3,271
1039,8	2,871
1040,3	2,186
1040,7	1,1
1041,1	7,929
1041,5	1,357
1041,9	1,3
1042,3	6,5
1042,7	10,071
1043,2	14,071
1043,6	18,129
1044	13,671
1044,4	12,014
1044,8	8,443
1045,2	8,986
1045,6	10,271
1046,1	8,957
1046,5	7,1
1046,9	8,529
1047,3	15,1
1047,7	14,386
1048,1	8,271
1048,5	5,757
1049	7,157
1049,4	3,557
1049,8	5,671
1050,2	2,557
1050,6	7,957
1051	15,186
1051,4	16,529
1051,9	17,9
1052,3	11,814
1052,7	15,329
1053,1	19,957
1053,5	21,071
1053,9	17,729
1054,3	17,157
1054,8	15,7
1055,2	28,814
1055,6	23,814
1056	19,471
1056,4	19,3
1056,8	21,614
1057,2	23,414
1057,6	17,586
1058,1	13,757
1058,5	11,1
1058,9	17,671
1059,3	19,757
1059,7	13,9
1060,1	10,586
1060,5	9,814
1061	8,929
1061,4	17,3
1061,8	11,586
1062,2	9,3
1062,6	12,929
1063	11,471
1063,4	13,357
1063,8	10,9
1064,3	6,071
1064,7	5,7
1065,1	5,471
1065,5	4,5
1065,9	5,957
1066,3	8,471
1066,7	12,271
1067,1	12,157
1067,6	16,586
1068	13,643
1068,4	15,386
1068,8	17,586
1069,2	17,9
1069,6	14,757
1070	13,643
1070,4	11,729
1070,9	16,443
1071,3	10,7
1071,7	10,014
1072,1	7,129
1072,5	12,186
1072,9	16,729
1073,3	16,614
1073,7	15,014
1074,2	22,157
1074,6	16,7
1075	18,5
1075,4	15,3
1075,8	14,529
1076,2	11,986
1076,6	10,871
1077	5,386
1077,5	10,586
1077,9	15,243
1078,3	12,529
1078,7	12,786
1079,1	15,329
1079,5	11,7
1079,9	16,643
1080,3	13,3
1080,7	11,271
1081,2	14,814
1081,6	12,243
1082	12,757
1082,4	15,071
1082,8	14,814
1083,2	16,814
1083,6	15,186
1084	10,929
1084,5	12,643
1084,9	8,443
1085,3	9,986
1085,7	3,843
1086,1	3,157
1086,5	8,157
1086,9	12,186
1087,3	12,929
1087,7	18,414
1088,2	17,5
1088,6	21,614
1089	19,843
1089,4	15,929
1089,8	13,443
1090,2	13,3
1090,6	14,243
1091	17,643
1091,4	14,814
1091,9	19,757
1092,3	14,9
1092,7	14,071
1093,1	10,5
1093,5	5,586
1093,9	5,814
1094,3	8,214
1094,7	6,014
1095,1	4,529
1095,5	7,643
1096	7,271
1096,4	11,843
1096,8	7,871
1097,2	8,671
1097,6	8,329
1098	12,614
1098,4	11,414
1098,8	13,671
1099,2	9,1
1099,6	11,986
1100,1	13,071
1100,5	12,643
1100,9	9,786
1101,3	7,757
1101,7	7,729
1102,1	9,5
1102,5	7,871
1102,9	1,3
1103,3	-0,071
1103,7	-0,014
1104,2	5,014
1104,6	7,014
1105	7,9
1105,4	6,671
1105,8	9,929
1106,2	10,5
1106,6	10,186
1107	5,671
1107,4	2,3
1107,8	-1,1
1108,3	-0
