Data from Subt2_049.txt Node
Date: Sat Aug 26 16:26:49 MSK 2023
User: vat
Spectrometer: MAYP114033
Trigger mode: 0
Integration Time (sec): 1,000000E0
Scans to average: 5
Electric dark correction enabled: true
Nonlinearity correction enabled: false
Boxcar width: 3
XAxis mode: Wavelengths
Number of Pixels in Spectrum: 2068
>>>>>Begin Spectral Data<<<<<
199,4	-0,167
199,9	-3,367
200,4	-1,8
200,8	-1,024
201,3	-1,452
201,8	-2,338
202,2	-1,681
202,7	-1,395
203,2	0,69
203,6	-1,195
204,1	-0,91
204,6	2,176
205	5,09
205,5	4,49
206	4,519
206,4	3,405
206,9	2,862
207,4	4,376
207,8	-2,081
208,3	-2,167
208,8	-2,11
209,2	2,805
209,7	7,748
210,2	13,119
210,6	11,919
211,1	18,805
211,5	16,805
212	13,862
212,5	6,605
212,9	5,776
213,4	2,776
213,9	-0,224
214,3	-2,795
214,8	-0,51
215,3	1,005
215,7	1,176
216,2	3,376
216,7	-0,681
217,1	3,29
217,6	2,805
218,1	-1,681
218,5	2,49
219	7,605
219,5	2,319
219,9	6,833
220,4	0,519
220,9	3,805
221,3	6,319
221,8	0,062
222,3	-2,91
222,7	-1,51
223,2	-1,51
223,6	0,205
224,1	-3,824
224,6	-2,595
225	-0,11
225,5	4,662
226	2,433
226,4	4,976
226,9	6,69
227,4	9,748
227,8	10,576
228,3	13,319
228,8	7,233
229,2	9,462
229,7	8,976
230,2	15,605
230,6	15,348
231,1	15,119
231,5	15,919
232	20,062
232,5	20,262
232,9	19,405
233,4	15,89
233,9	13,89
234,3	11,948
234,8	10,433
235,3	6,49
235,7	11,062
236,2	7,405
236,7	3,633
237,1	0,09
237,6	-0,052
238,1	-3,167
238,5	-2,11
239	-6,252
239,4	-2,595
239,9	-1,767
240,4	0,633
240,8	2,205
241,3	0,348
241,8	2,033
242,2	-3,167
242,7	-3,138
243,2	-1,338
243,6	1,948
244,1	1,662
244,6	5,633
245	4,29
245,5	7,69
245,9	7,548
246,4	4,605
246,9	1,69
247,3	3,205
247,8	1,433
248,3	3,69
248,7	12,062
249,2	5,976
249,7	6,462
250,1	6,462
250,6	7,376
251	8,348
251,5	2,462
252	-4,452
252,4	1,948
252,9	6,576
253,4	7,29
253,8	-0,567
254,3	1,005
254,8	6,262
255,2	2,976
255,7	4,662
256,1	-0,052
256,6	0,548
257,1	9,662
257,5	11,662
258	12,348
258,5	14,976
258,9	14,033
259,4	15,919
259,9	18,576
260,3	11,805
260,8	12,948
261,2	12,233
261,7	13,633
262,2	9,633
262,6	6,49
263,1	2,662
263,6	6,462
264	0,605
264,5	3,833
264,9	3,919
265,4	4,233
265,9	11,033
266,3	12,433
266,8	10,833
267,3	13,29
267,7	7,805
268,2	5,919
268,7	6,348
269,1	4,833
269,6	5,833
270	10,262
270,5	9,176
271	10,548
271,4	7,176
271,9	10,519
272,4	5,919
272,8	3,005
273,3	-3,167
273,7	-2,967
274,2	-2,91
274,7	0,776
275,1	-5,081
275,6	1,262
276,1	4,49
276,5	9,09
277	9,176
277,4	9,462
277,9	8,176
278,4	14,976
278,8	13,062
279,3	9,719
279,8	7,833
280,2	5,005
280,7	1,976
281,1	2,862
281,6	0,09
282,1	-1,167
282,5	1,49
283	-0,795
283,4	2,433
283,9	2,948
284,4	3,176
284,8	1,519
285,3	-0,367
285,8	-4,595
286,2	-4,881
286,7	-7,138
287,1	-6,938
287,6	-6,824
288,1	-5,624
288,5	-2,195
289	2,205
289,5	1,405
289,9	4,233
290,4	5,433
290,8	8,948
291,3	6,119
291,8	2,319
292,2	2,976
292,7	2,49
293,1	3,519
293,6	4,719
294,1	-2,938
294,5	2,49
295	2,205
295,5	3,633
295,9	11,348
296,4	12,119
296,8	10,49
297,3	17,462
297,8	16,49
298,2	16,148
298,7	10,148
299,1	5,748
299,6	0,49
300,1	3,433
300,5	3,462
301	4,948
301,5	7,005
301,9	11,833
302,4	10,748
302,8	14,462
303,3	13,033
303,8	6,833
304,2	1,69
304,7	1,29
305,1	-1,052
305,6	-3,252
306,1	1,233
306,5	1,09
307	2,233
307,4	1,29
307,9	1,805
308,4	3,405
308,8	10,948
309,3	3,462
309,8	5,348
310,2	4,205
310,7	12,233
311,1	6,405
311,6	3,89
312,1	1,805
312,5	4,09
313	1,919
313,4	7,233
313,9	2,976
314,4	7,262
314,8	10,405
315,3	12,233
315,7	14,09
316,2	10,719
316,7	10,29
317,1	9,29
317,6	9,919
318	9,862
318,5	9,462
319	4,862
319,4	9,548
319,9	6,748
320,3	8,462
320,8	8,033
321,3	3,805
321,7	3,519
322,2	6,862
322,6	0,548
323,1	0,233
323,6	-5,167
324	-5,424
324,5	-5,852
324,9	-6,481
325,4	-5,395
325,9	3,548
326,3	5,805
326,8	8,233
327,2	8,49
327,7	8,919
328,2	4,833
328,6	4,005
329,1	-0,71
329,5	3,319
330	4,033
330,5	2,462
330,9	6,862
331,4	7,119
331,8	9,062
332,3	12,605
332,8	8,29
333,2	10,148
333,7	9,948
334,1	10,205
334,6	10,348
335,1	5,719
335,5	4,148
336	1,89
336,4	-2,652
336,9	3,633
337,4	3,576
337,8	6,033
338,3	8,119
338,7	5,69
339,2	9,662
339,7	10,576
340,1	8,49
340,6	6,49
341	7,005
341,5	5,89
342	9,005
342,4	6,462
342,9	7,633
343,3	8,776
343,8	14,519
344,2	16,433
344,7	15,148
345,2	11,348
345,6	13,348
346,1	13,548
346,5	10,148
347	8,033
347,5	5,805
347,9	9,348
348,4	10,69
348,8	10,49
349,3	16,976
349,8	20,033
350,2	19,49
350,7	22,776
351,1	23,519
351,6	26,49
352	34,462
352,5	37,005
353	47,233
353,4	53,748
353,9	62,719
354,3	82,033
354,8	97,033
355,3	115,262
355,7	136,776
356,2	160,148
356,6	192,919
357,1	229,262
357,5	263,576
358	313,748
358,5	366,605
358,9	430,09
359,4	504,919
359,8	586,062
360,3	676,319
360,8	778,89
361,2	892,205
361,7	1016,948
362,1	1155,348
362,6	1301,519
363	1460,119
363,5	1629,662
364	1804,433
364,4	1985,69
364,9	2165,233
365,3	2341,062
365,8	2510,662
366,3	2678,548
366,7	2821,69
367,2	2955,69
367,6	3062,462
368,1	3146,176
368,5	3203,005
369	3234,062
369,5	3232,005
369,9	3206,348
370,4	3154,262
370,8	3086,262
371,3	2999,976
371,7	2894,748
372,2	2777,748
372,7	2641,462
373,1	2510,319
373,6	2372,49
374	2221,09
374,5	2071,576
374,9	1923,062
375,4	1782,29
375,9	1654,919
376,3	1520,662
376,8	1396,462
377,2	1287,005
377,7	1182,919
378,2	1088,605
378,6	994,548
379,1	905,119
379,5	833,433
380	765,09
380,4	699,405
380,9	642,519
381,4	593,919
381,8	546,433
382,3	504,519
382,7	459,205
383,2	421,262
383,6	390,119
384,1	361,776
384,6	332,748
385	308,119
385,5	285,662
385,9	272,005
386,4	254,776
386,8	239,748
387,3	222,005
387,7	207,519
388,2	196,205
388,7	181,29
389,1	166,948
389,6	155,405
390	141,976
390,5	128,776
390,9	120,148
391,4	116,633
391,9	112,633
392,3	102,319
392,8	98,719
393,2	92,919
393,7	91,148
394,1	86,462
394,6	73,433
395,1	71,862
395,5	73,548
396	67,805
396,4	65,033
396,9	63,805
397,3	58,576
397,8	60,233
398,2	54,948
398,7	45,176
399,2	40,805
399,6	43,462
400,1	33,49
400,5	33,462
401	34,748
401,4	34,09
401,9	42,29
402,4	43,662
402,8	39,319
403,3	43,176
403,7	43,519
404,2	34,805
404,6	32,09
405,1	28,005
405,5	23,005
406	20,176
406,5	17,148
406,9	11,29
407,4	16,976
407,8	19,205
408,3	16,833
408,7	24,976
409,2	29,433
409,6	34,176
410,1	41,09
410,6	44,09
411	46,605
411,5	48,919
411,9	42,919
412,4	45,405
412,8	49,576
413,3	52,948
413,7	50,805
414,2	54,148
414,7	62,29
415,1	67,605
415,6	71,662
416	73,662
416,5	74,205
416,9	82,233
417,4	84,605
417,8	87,29
418,3	92,748
418,8	88,433
419,2	93,49
419,7	98,176
420,1	97,376
420,6	95,976
421	92,233
421,5	94,062
421,9	98,89
422,4	97,233
422,8	95,148
423,3	98,89
423,8	105,433
424,2	111,919
424,7	114,033
425,1	118,433
425,6	126,09
426	128,633
426,5	127,09
426,9	124,862
427,4	125,176
427,9	122,005
428,3	121,49
428,8	118,805
429,2	120,176
429,7	118,348
430,1	119,033
430,6	119,719
431	121,205
431,5	122,348
431,9	124,176
432,4	126,09
432,8	135,033
433,3	141,005
433,8	146,805
434,2	153,176
434,7	155,69
435,1	157,719
435,6	170,062
436	170,919
436,5	179,862
436,9	186,605
437,4	195,376
437,8	199,519
438,3	209,433
438,8	207,09
439,2	215,719
439,7	215,09
440,1	217,919
440,6	225,262
441	237,49
441,5	244,776
441,9	257,29
442,4	275,548
442,8	289,862
443,3	304,148
443,7	309,89
444,2	324,776
444,7	344,262
445,1	358,29
445,6	366,662
446	382,862
446,5	402,09
446,9	422,748
447,4	437,805
447,8	447,148
448,3	465,376
448,7	480,49
449,2	497,376
449,6	510,719
450,1	529,548
450,6	546,776
451	565,29
451,5	582,519
451,9	600,519
452,4	621,919
452,8	641,09
453,3	657,348
453,7	682,262
454,2	703,462
454,6	726,348
455,1	748,119
455,5	770,09
456	795,862
456,4	820,805
456,9	838,233
457,3	865,49
457,8	890,09
458,3	921,262
458,7	946,519
459,2	970,405
459,6	995,948
460,1	1025,205
460,5	1047,948
461	1067,833
461,4	1090,319
461,9	1117,005
462,3	1145,805
462,8	1174,805
463,2	1203,576
463,7	1231,119
464,1	1261,748
464,6	1288,09
465	1310,805
465,5	1341,69
466	1370,69
466,4	1395,976
466,9	1425,348
467,3	1454,033
467,8	1486,376
468,2	1515,319
468,7	1540,348
469,1	1562,948
469,6	1587,662
470	1620,348
470,5	1652,348
470,9	1676,69
471,4	1708,69
471,8	1737,548
472,3	1759,805
472,7	1797,348
473,2	1815,119
473,6	1836,919
474,1	1855,576
474,5	1880,119
475	1900,576
475,4	1928,919
475,9	1951,49
476,4	1976,29
476,8	1998,433
477,3	2031,548
477,7	2055,633
478,2	2072,976
478,6	2095,605
479,1	2110,548
479,5	2131,948
480	2151,205
480,4	2165,205
480,9	2183,49
481,3	2198,49
481,8	2220,405
482,2	2233,176
482,7	2246,348
483,1	2264,776
483,6	2276,176
484	2282,662
484,5	2295,405
484,9	2303,948
485,4	2313,633
485,8	2320,633
486,3	2322,519
486,7	2329,576
487,2	2338,176
487,6	2343,576
488,1	2346,148
488,5	2351,062
489	2356,833
489,4	2359,205
489,9	2362,319
490,4	2357,49
490,8	2363,719
491,3	2362,29
491,7	2361,319
492,2	2358,89
492,6	2357,605
493,1	2354,862
493,5	2351,462
494	2345,976
494,4	2344,233
494,9	2335,862
495,3	2334,948
495,8	2330,576
496,2	2328,605
496,7	2325,376
497,1	2315,776
497,6	2311,69
498	2305,69
498,5	2290,919
498,9	2281,376
499,4	2264,69
499,8	2250,176
500,3	2242,89
500,7	2218,805
501,2	2205,89
501,6	2189,29
502,1	2174,662
502,5	2160,748
503	2154,948
503,4	2135,319
503,9	2128,462
504,3	2114,576
504,8	2105,09
505,2	2092,119
505,7	2082,262
506,1	2061,49
506,6	2048,205
507	2033,405
507,5	2021,09
507,9	1999,233
508,4	1982,348
508,8	1957,948
509,3	1945,948
509,7	1925,776
510,2	1900,29
510,6	1877,976
511,1	1866,205
511,5	1846,948
512	1834,976
512,4	1809,29
512,9	1794,176
513,3	1785,776
513,8	1769,29
514,2	1751,433
514,7	1731,662
515,1	1714,776
515,6	1695,833
516	1677,148
516,5	1658,005
516,9	1637,319
517,4	1618,833
517,8	1598,89
518,3	1575,119
518,7	1563,033
519,2	1542,605
519,6	1519,89
520,1	1499,319
520,5	1483,433
521	1472,662
521,4	1455,719
521,9	1438,033
522,3	1419,548
522,8	1408,033
523,2	1396,005
523,7	1378,062
524,1	1356,033
524,6	1338,862
525	1325,862
525,5	1317,548
525,9	1295,033
526,4	1281,519
526,8	1262,633
527,3	1249,548
527,7	1239,719
528,2	1219,719
528,6	1198,805
529,1	1187,719
529,5	1168,119
530	1159,69
530,4	1145,49
530,9	1129,833
531,3	1115,148
531,8	1108,89
532,2	1095,005
532,6	1083,548
533,1	1066,633
533,5	1055,462
534	1043,376
534,4	1034,033
534,9	1022,633
535,3	1012,005
535,8	1002,348
536,2	993,49
536,7	978,89
537,1	963,062
537,6	951,062
538	935,948
538,5	923,833
538,9	914,662
539,4	900,462
539,8	888,462
540,3	876,862
540,7	866,233
541,2	854,29
541,6	844,89
542,1	833,748
542,5	824,462
543	817,833
543,4	816,605
543,9	806,262
544,3	801,062
544,8	790,948
545,2	781,576
545,7	772,776
546,1	767,919
546,5	757,119
547	751,062
547,4	740,319
547,9	734,433
548,3	728,09
548,8	719,833
549,2	707,119
549,7	698,233
550,1	689,862
550,6	681,405
551	676,376
551,5	666,433
551,9	666,919
552,4	664,633
552,8	658,519
553,3	655,948
553,7	649,662
554,2	643,176
554,6	637,433
555,1	630,462
555,5	622,348
555,9	617,948
556,4	607,89
556,8	602,462
557,3	590,519
557,7	584,805
558,2	574,348
558,6	569,119
559,1	561,29
559,5	556,29
560	551,405
560,4	549,605
560,9	547,29
561,3	543,376
561,8	541,405
562,2	538,833
562,7	533,605
563,1	529,005
563,6	523,233
564	518,376
564,4	513,633
564,9	506,205
565,3	504,919
565,8	507,719
566,2	503,205
566,7	499,148
567,1	496,548
567,6	492,033
568	492,148
568,5	488,262
568,9	476,719
569,4	475,805
569,8	473,948
570,3	471,862
570,7	466,576
571,1	459,862
571,6	450,148
572	452,119
572,5	447,433
572,9	450,09
573,4	443,919
573,8	444,519
574,3	441,176
574,7	441,776
575,2	434,69
575,6	432,748
576,1	424,205
576,5	419,49
576,9	418,976
577,4	413,862
577,8	411,148
578,3	403,376
578,7	403,062
579,2	404,948
579,6	406,205
580,1	404,748
580,5	403,49
581	399,948
581,4	399,319
581,9	395,833
582,3	387,29
582,7	383,348
583,2	374,69
583,6	373,348
584,1	372,205
584,5	377,69
585	376,462
585,4	372,89
585,9	371,948
586,3	370,919
586,8	367,148
587,2	363,519
587,6	356,405
588,1	356,748
588,5	360,062
589	356,833
589,4	353,748
589,9	352,49
590,3	351,519
590,8	353,376
591,2	349,862
591,7	348,862
592,1	343,833
592,5	344,319
593	340,319
593,4	337,576
593,9	327,348
594,3	318,862
594,8	313,89
595,2	313,89
595,7	313,005
596,1	314,519
596,6	313,833
597	322,062
597,4	319,719
597,9	316,29
598,3	314,862
598,8	308,262
599,2	303,576
599,7	301,519
600,1	293,576
600,6	295,662
601	292,462
601,4	291,862
601,9	291,519
602,3	293,205
602,8	292,519
603,2	294,005
603,7	293,833
604,1	294,462
604,6	285,09
605	284,09
605,4	284,319
605,9	277,433
606,3	272,205
606,8	265,49
607,2	263,833
607,7	265,89
608,1	263,919
608,6	259,29
609	266,805
609,4	270,033
609,9	273,176
610,3	270,148
610,8	274,89
611,2	272,948
611,7	272,205
612,1	262,69
612,6	260,462
613	260,948
613,4	261,719
613,9	254,805
614,3	256,433
614,8	252,433
615,2	256,862
615,7	252,462
616,1	245,462
616,6	240,719
617	236,89
617,4	233,376
617,9	234,633
618,3	228,662
618,8	229,062
619,2	232,605
619,7	233,919
620,1	232,748
620,5	232,119
621	227,919
621,4	227,376
621,9	226,262
622,3	223,719
622,8	220,633
623,2	223,548
623,6	216,262
624,1	222,29
624,5	220,948
625	215,805
625,4	215,719
625,9	215,29
626,3	211,548
626,8	216,89
627,2	209,948
627,6	210,49
628,1	210,233
628,5	205,033
629	205,862
629,4	202,605
629,9	197,319
630,3	198,062
630,7	197,69
631,2	194,633
631,6	194,633
632,1	189,176
632,5	195,033
633	195,919
633,4	191,319
633,8	187,833
634,3	191,09
634,7	191,519
635,2	195,09
635,6	190,976
636,1	193,948
636,5	194,776
636,9	192,805
637,4	191,49
637,8	184,833
638,3	181,49
638,7	183,519
639,2	180,719
639,6	180,862
640	179,662
640,5	178,605
640,9	178,262
641,4	178,948
641,8	171,833
642,2	170,719
642,7	166,662
643,1	171,519
643,6	169,433
644	176,205
644,5	173,519
644,9	178,519
645,3	179,462
645,8	180,49
646,2	175,576
646,7	174,976
647,1	171,69
647,6	171,919
648	167,348
648,4	162,662
648,9	158,69
649,3	157,948
649,8	159,29
650,2	154,662
650,6	155,348
651,1	156,633
651,5	160,376
652	162,862
652,4	159,605
652,9	161,776
653,3	163,919
653,7	163,148
654,2	162,548
654,6	158,262
655,1	152,748
655,5	151,519
655,9	142,519
656,4	145,205
656,8	140,748
657,3	137,09
657,7	135,462
658,2	139,49
658,6	135,833
659	138,719
659,5	134,348
659,9	131,319
660,4	133,348
660,8	135,948
661,2	136,462
661,7	140,319
662,1	136,748
662,6	134,748
663	140,233
663,4	140,176
663,9	138,976
664,3	136,176
664,8	139,233
665,2	140,548
665,6	141,719
666,1	135,633
666,5	132,348
667	126,948
667,4	127,319
667,9	119,633
668,3	119,748
668,7	117,433
669,2	119,519
669,6	121,548
670,1	125,605
670,5	123,633
670,9	127,405
671,4	124,719
671,8	124,119
672,3	123,719
672,7	120,548
673,1	114,062
673,6	113,548
674	110,319
674,5	111,262
674,9	109,176
675,3	110,662
675,8	108,605
676,2	113,69
676,7	113,262
677,1	112,633
677,5	113,005
678	112,862
678,4	106,09
678,9	104,776
679,3	103,233
679,7	101,719
680,2	107,69
680,6	107,576
681,1	104,976
681,5	108,262
681,9	109,348
682,4	108,576
682,8	105,976
683,3	99,29
683,7	96,319
684,1	99,833
684,6	100,576
685	100,576
685,5	98,805
685,9	98,519
686,3	101,062
686,8	99,719
687,2	98,09
687,7	96,005
688,1	95,548
688,5	90,662
689	94,548
689,4	93,833
689,9	96,062
690,3	95,062
690,7	92,319
691,2	91,805
691,6	96,519
692	91,062
692,5	86,719
692,9	83,319
693,4	82,09
693,8	84,462
694,2	82,805
694,7	86,005
695,1	89,262
695,6	89,948
696	90,176
696,4	87,719
696,9	85,662
697,3	86,49
697,8	78,548
698,2	78,605
698,6	82,233
699,1	77,833
699,5	76,948
699,9	77,948
700,4	73,29
700,8	76,633
701,3	71,976
701,7	68,49
702,1	74,119
702,6	78,319
703	72,662
703,5	75,005
703,9	71,89
704,3	76,376
704,8	80,033
705,2	77,433
705,6	70,89
706,1	81,205
706,5	84,748
707	80,433
707,4	79,948
707,8	75,833
708,3	74,662
708,7	79,462
709,2	74,49
709,6	70,29
710	75,376
710,5	74,576
710,9	71,49
711,3	69,519
711,8	67,348
712,2	66,348
712,7	67,405
713,1	66,233
713,5	67,09
714	68,662
714,4	70,89
714,8	72,033
715,3	72,205
715,7	68,119
716,2	65,09
716,6	62,262
717	59,805
717,5	60,776
717,9	58,49
718,3	57,176
718,8	57,519
719,2	58,776
719,7	60,576
720,1	56,919
720,5	54,033
721	56,49
721,4	58,948
721,8	60,605
722,3	57,433
722,7	53,233
723,2	59,005
723,6	61,376
724	58,948
724,5	52,605
724,9	50,748
725,3	51,205
725,8	52,376
726,2	50,862
726,7	48,405
727,1	44,348
727,5	48,462
728	56,09
728,4	59,919
728,8	60,433
729,3	58,89
729,7	60,576
730,1	63,033
730,6	62,548
731	57,605
731,5	54,662
731,9	55,919
732,3	59,519
732,8	59,262
733,2	58,576
733,6	54,833
734,1	52,548
734,5	51,062
734,9	43,233
735,4	39,576
735,8	40,376
736,3	41,49
736,7	45,233
737,1	45,005
737,6	46,09
738	53,548
738,4	55,262
738,9	57,005
739,3	53,519
739,7	51,148
740,2	52,29
740,6	54,719
741,1	52,119
741,5	54,662
741,9	44,148
742,4	44,748
742,8	47,262
743,2	46,719
743,7	44,948
744,1	37,976
744,5	34,748
745	37,919
745,4	40,948
745,8	37,69
746,3	38,719
746,7	39,776
747,2	47,976
747,6	45,719
748	48,862
748,5	47,405
748,9	45,548
749,3	44,49
749,8	43,348
750,2	41,776
750,6	44,748
751,1	45,548
751,5	43,49
751,9	44,633
752,4	45,662
752,8	42,862
753,3	41,405
753,7	41,89
754,1	35,119
754,6	34,176
755	33,119
755,4	31,919
755,9	33,262
756,3	29,805
756,7	26,29
757,2	31,49
757,6	35,405
758	34,919
758,5	30,462
758,9	25,29
759,3	25,148
759,8	31,576
760,2	33,148
760,6	32,89
761,1	29,319
761,5	33,176
761,9	38,805
762,4	43,605
762,8	40,319
763,3	34,119
763,7	32,548
764,1	33,833
764,6	31,833
765	30,376
765,4	29,119
765,9	23,862
766,3	28,09
766,7	25,576
767,2	28,319
767,6	27,09
768	27,348
768,5	28,548
768,9	25,519
769,3	26,662
769,8	29,148
770,2	30,376
770,6	32,548
771,1	33,405
771,5	31,719
771,9	34,776
772,4	34,405
772,8	31,605
773,2	30,29
773,7	33,119
774,1	36,976
774,5	37,69
775	34,833
775,4	32,862
775,8	37,633
776,3	36,376
776,7	33,062
777,1	27,405
777,6	24,862
778	28,262
778,4	27,376
778,9	21,633
779,3	22,89
779,7	26,033
780,2	26,205
780,6	26,833
781	26,719
781,5	29,49
781,9	30,433
782,3	29,748
782,8	24,719
783,2	24,89
783,6	21,405
784,1	23,833
784,5	20,033
784,9	20,148
785,4	18,776
785,8	16,462
786,2	16,376
786,7	22,976
787,1	20,233
787,5	21,233
788	22,519
788,4	24,062
788,8	25,033
789,3	26,29
789,7	21,49
790,1	24,405
790,6	26,376
791	29,833
791,4	28,29
791,9	27,976
792,3	24,119
792,7	30,776
793,2	23,062
793,6	20,605
794	16,519
794,5	16,519
794,9	20,005
795,3	25,433
795,8	17,176
796,2	24,519
796,6	21,205
797,1	19,89
797,5	21,519
797,9	22,405
798,4	20,233
798,8	22,09
799,2	20,348
799,7	24,976
800,1	28,033
800,5	28,062
801	25,919
801,4	20,176
801,8	21,833
802,2	19,919
802,7	20,405
803,1	19,519
803,5	19,49
804	18,662
804,4	23,262
804,8	21,662
805,3	20,462
805,7	16,262
806,1	18,605
806,6	18,205
807	17,976
807,4	12,005
807,9	12,062
808,3	13,69
808,7	14,662
809,2	9,976
809,6	11,519
810	14,519
810,4	22,405
810,9	20,69
811,3	18,519
811,7	18,662
812,2	21,262
812,6	20,519
813	19,29
813,5	16,29
813,9	19,748
814,3	22,319
814,8	23,748
815,2	19,776
815,6	18,033
816,1	16,976
816,5	16,319
816,9	14,948
817,3	15,833
817,8	18,805
818,2	17,805
818,6	17,833
819,1	16,262
819,5	21,062
819,9	18,719
820,4	19,776
820,8	13,405
821,2	18,148
821,7	18,033
822,1	18,376
822,5	15,262
822,9	19,119
823,4	16,119
823,8	18,062
824,2	16,576
824,7	18,433
825,1	20,376
825,5	22,805
826	19,89
826,4	19,605
826,8	22,519
827,3	23,119
827,7	26,976
828,1	28,119
828,5	23,948
829	22,29
829,4	28,176
829,8	25,776
830,3	25,062
830,7	15,49
831,1	16,862
831,6	16,776
832	14,605
832,4	9,548
832,8	11,805
833,3	8,176
833,7	14,148
834,1	8,519
834,6	7,976
835	14,662
835,4	16,833
835,8	11,833
836,3	14,405
836,7	10,005
837,1	8,262
837,6	5,005
838	-2,224
838,4	-3,11
838,9	5,948
839,3	11,519
839,7	10,519
840,1	10,205
840,6	13,376
841	18,319
841,4	17,376
841,9	11,205
842,3	9,062
842,7	12,805
843,1	17,148
843,6	21,376
844	24,49
844,4	27,262
844,9	27,605
845,3	23,176
845,7	24,605
846,2	22,205
846,6	18,662
847	14,405
847,4	10,205
847,9	8,205
848,3	13,148
848,7	12,29
849,2	17,005
849,6	20,319
850	19,09
850,4	21,719
850,9	21,976
851,3	17,376
851,7	16,262
852,2	8,176
852,6	6,29
853	7,148
853,4	8,033
853,9	7,519
854,3	5,748
854,7	5,262
855,2	7,548
855,6	2,862
856	-0,452
856,4	-1,738
856,9	-3,795
857,3	-4,767
857,7	-0,738
858,2	-1,31
858,6	4,919
859	3,519
859,4	2,262
859,9	6,119
860,3	9,633
860,7	10,148
861,1	11,833
861,6	6,919
862	14,005
862,4	16,119
862,9	17,119
863,3	15,548
863,7	6,405
864,1	4,833
864,6	5,519
865	2,176
865,4	-0,738
865,9	-7,652
866,3	-4,852
866,7	-3,281
867,1	3,633
867,6	1,776
868	2,89
868,4	1,719
868,8	6,376
869,3	9,805
869,7	9,948
870,1	6,09
870,6	9,062
871	58,519
871,4	56,776
871,8	58,205
872,3	54,176
872,7	56,062
873,1	56,69
873,5	55,833
874	4,748
874,4	5,719
874,8	7,205
875,3	5,833
875,7	6,605
876,1	4,348
876,5	9,833
877	10,548
877,4	10,49
877,8	9,005
878,2	12,348
878,7	17,205
879,1	12,376
879,5	8,862
879,9	8,548
880,4	8,09
880,8	8,805
881,2	6,462
881,7	2,948
882,1	9,89
882,5	9,948
882,9	9,948
883,4	16,033
883,8	13,548
884,2	10,633
884,6	8,662
885,1	11,119
885,5	15,033
885,9	21,919
886,3	18,976
886,8	17,919
887,2	18,348
887,6	16,919
888	11,548
888,5	8,119
888,9	2,205
889,3	-2,11
889,8	-2,138
890,2	-3,652
890,6	-3,052
891	-2,024
891,5	0,119
891,9	2,633
892,3	8,205
892,7	12,833
893,2	18,033
893,6	15,833
894	17,376
894,4	17,433
894,9	16,89
895,3	14,605
895,7	10,462
896,1	11,262
896,6	14,805
897	16,89
897,4	11,576
897,8	13,005
898,3	19,319
898,7	17,433
899,1	13,948
899,5	10,29
900	7,319
900,4	6,376
900,8	4,376
901,2	-1,395
901,7	3,319
902,1	4,748
902,5	6,662
902,9	5,805
903,4	12,119
903,8	10,69
904,2	12,433
904,6	6,862
905,1	7,548
905,5	8,919
905,9	9,519
906,3	2,433
906,8	4,348
907,2	-1,31
907,6	4,176
908	-0,281
908,5	1,262
908,9	0,633
909,3	1,948
909,7	1,462
910,2	1,633
910,6	1,605
911	4,605
911,4	-1,138
911,9	0,919
912,3	2,948
912,7	-0,338
913,1	-2,138
913,6	-2,71
914	-4,138
914,4	-0,595
914,8	0,919
915,3	-2,767
915,7	-4,281
916,1	0,719
916,5	-0,567
916,9	1,062
917,4	1,919
917,8	-1,91
918,2	2,005
918,6	6,005
919,1	3,233
919,5	5,919
919,9	5,29
920,3	5,376
920,8	6,519
921,2	5,662
921,6	1,605
922	1,376
922,5	-2,195
922,9	-4,281
923,3	-4,338
923,7	-4,424
924,2	-9,224
924,6	-4,538
925	-1,795
925,4	-0,11
925,8	-0,338
926,3	2,262
926,7	0,948
927,1	8,09
927,5	6,09
928	2,062
928,4	1,09
928,8	5,548
929,2	2,519
929,7	-0,052
930,1	-1,024
930,5	-4,224
930,9	0,976
931,3	1,033
931,8	0,233
932,2	0,462
932,6	4,776
933	-0,624
933,5	2,69
933,9	3,262
934,3	4,29
934,7	5,948
935,2	4,833
935,6	3,205
936	6,89
936,4	6,948
936,8	3,09
937,3	7,748
937,7	1,519
938,1	-3,195
938,5	1,89
939	4,776
939,4	8,062
939,8	8,719
940,2	3,919
940,6	4,976
941,1	12,719
941,5	11,262
941,9	7,605
942,3	3,119
942,8	4,348
943,2	4,233
943,6	9,176
944	3,89
944,4	-2,738
944,9	-4,138
945,3	1,433
945,7	5,433
946,1	5,519
946,6	5,748
947	8,948
947,4	10,862
947,8	11,948
948,2	8,433
948,7	6,576
949,1	3,09
949,5	0,319
949,9	1,548
950,3	6,09
950,8	6,89
951,2	5,576
951,6	6,033
952	8,976
952,5	8,262
952,9	3,233
953,3	-1,224
953,7	2,862
954,1	0,805
954,6	-0,824
955	-2,424
955,4	-5,195
955,8	0,405
956,2	-1,367
956,7	-0,852
957,1	1,262
957,5	2,148
957,9	0,633
958,3	4,062
958,8	0,119
959,2	2,662
959,6	-0,652
960	0,176
960,5	-3,338
960,9	-0,081
961,3	0,805
961,7	1,49
962,1	1,862
962,6	1,919
963	-1,31
963,4	0,319
963,8	2,319
964,2	3,29
964,7	5,605
965,1	6,405
965,5	7,148
965,9	10,376
966,3	12,233
966,8	10,776
967,2	10,205
967,6	9,919
968	9,948
968,4	13,176
968,9	15,119
969,3	11,205
969,7	8,119
970,1	6,462
970,5	5,948
971	-0,31
971,4	-2,938
971,8	0,348
972,2	3,262
972,6	5,776
973,1	7,548
973,5	9,633
973,9	16,548
974,3	13,576
974,7	6,033
975,2	1,09
975,6	-3,624
976	-4,081
976,4	-5,824
976,8	-9,681
977,3	-9,938
977,7	-9,51
978,1	-5,224
978,5	0,49
978,9	0,062
979,4	-3,224
979,8	-2,052
980,2	-2,852
980,6	-0,595
981	-0,252
981,5	1,348
981,9	1,49
982,3	0,005
982,7	3,89
983,1	5,148
983,6	2,262
984	0,633
984,4	0,433
984,8	-1,081
985,2	1,948
985,6	1,148
986,1	-1,938
986,5	-2,71
986,9	1,319
987,3	-4,195
987,7	0,833
988,2	1,833
988,6	-3,967
989	1,033
989,4	6,919
989,8	5,548
990,3	5,348
990,7	-0,51
991,1	-2,795
991,5	1,548
991,9	4,662
992,3	1,948
992,8	4,033
993,2	6,405
993,6	6,233
994	6,09
994,4	5,862
994,9	5,662
995,3	7,005
995,7	3,519
996,1	2,49
996,5	2,462
996,9	7,719
997,4	8,176
997,8	4,519
998,2	3,29
998,6	5,005
999	4,433
999,5	6,948
999,9	3,948
1000,3	6,462
1000,7	6,548
1001,1	4,319
1001,5	-0,595
1002	-1,738
1002,4	-3,51
1002,8	-3,91
1003,2	-3,281
1003,6	-5,081
1004	-3,624
1004,5	0,748
1004,9	4,605
1005,3	-0,567
1005,7	1,205
1006,1	-1,91
1006,6	1,805
1007	3,376
1007,4	0,205
1007,8	-3,738
1008,2	1,948
1008,6	-0,738
1009,1	-2,081
1009,5	-0,881
1009,9	-2,967
1010,3	2,405
1010,7	5,833
1011,1	8,29
1011,6	6,805
1012	6,348
1012,4	4,976
1012,8	1,29
1013,2	-2,167
1013,6	-1,652
1014,1	-1,252
1014,5	2,69
1014,9	5,148
1015,3	2,919
1015,7	9,433
1016,1	10,833
1016,6	8,919
1017	7,519
1017,4	4,233
1017,8	2,148
1018,2	-1,51
1018,6	-0,567
1019,1	-1,395
1019,5	1,662
1019,9	2,776
1020,3	5,09
1020,7	5,833
1021,1	10,548
1021,6	4,405
1022	-0,567
1022,4	0,005
1022,8	-0,881
1023,2	2,062
1023,6	2,948
1024,1	7,176
1024,5	10,548
1024,9	17,433
1025,3	15,433
1025,7	13,119
1026,1	14,805
1026,6	14,862
1027	7,119
1027,4	5,89
1027,8	2,748
1028,2	1,662
1028,6	3,319
1029	-3,995
1029,5	-4,081
1029,9	-2,595
1030,3	0,433
1030,7	1,833
1031,1	0,605
1031,5	-0,938
1032	-0,652
1032,4	-4,281
1032,8	0,376
1033,2	-1,995
1033,6	0,719
1034	3,662
1034,4	5,976
1034,9	5,662
1035,3	11,233
1035,7	11,09
1036,1	13,119
1036,5	5,548
1036,9	2,976
1037,4	6,433
1037,8	11,519
1038,2	3,09
1038,6	-0,71
1039	-3,881
1039,4	3,776
1039,8	2,176
1040,3	-5,424
1040,7	-10,71
1041,1	-4,51
1041,5	-7,138
1041,9	-7,395
1042,3	-10,367
1042,7	-6,081
1043,2	-3,738
1043,6	0,29
1044	-0,652
1044,4	0,69
1044,8	-0,881
1045,2	-0,567
1045,6	-0,452
1046,1	1,433
1046,5	3,462
1046,9	3,348
1047,3	0,89
1047,7	0,748
1048,1	-0,71
1048,5	-2,795
1049	-0,595
1049,4	-5,538
1049,8	-5,967
1050,2	1,205
1050,6	5,405
1051	7,49
1051,4	8,119
1051,9	8,719
1052,3	7,433
1052,7	10,833
1053,1	9,033
1053,5	7,862
1053,9	5,719
1054,3	6,89
1054,8	9,719
1055,2	9,833
1055,6	5,976
1056	2,519
1056,4	6,576
1056,8	8,462
1057,2	11,462
1057,6	3,748
1058,1	5,948
1058,5	5,748
1058,9	9,548
1059,3	7,805
1059,7	1,833
1060,1	-7,567
1060,5	-10,367
1061	-11,31
1061,4	-4,367
1061,8	-6,452
1062,2	-7,738
1062,6	-3,567
1063	-1,424
1063,4	0,119
1063,8	0,605
1064,3	-3,738
1064,7	-5,424
1065,1	-6,224
1065,5	-4,767
1065,9	-2,224
1066,3	-2,567
1066,7	-1,567
1067,1	-4,538
1067,6	-0,567
1068	-0,852
1068,4	-0,11
1068,8	1,976
1069,2	2,919
1069,6	0,976
1070	2,948
1070,4	-0,024
1070,9	-1,195
1071,3	-1,195
1071,7	-4,71
1072,1	0,548
1072,5	3,576
1072,9	6,176
1073,3	6,89
1073,7	6,662
1074,2	8,005
1074,6	11,89
1075	8,005
1075,4	8,833
1075,8	7,633
1076,2	6,605
1076,6	9,09
1077	5,205
1077,5	2,719
1077,9	3,09
1078,3	0,719
1078,7	-3,51
1079,1	-0,224
1079,5	-0,538
1079,9	0,69
1080,3	5,005
1080,7	5,576
1081,2	6,205
1081,6	11,69
1082	10,205
1082,4	8,405
1082,8	4,548
1083,2	-1,567
1083,6	2,776
1084	-2,367
1084,5	-5,624
1084,9	-9,11
1085,3	-7,71
1085,7	-8,395
1086,1	-9,11
1086,5	-8,595
1086,9	-2,252
1087,3	-1,681
1087,7	5,09
1088,2	1,833
1088,6	2,948
1089	0,976
1089,4	-4,224
1089,8	-2,652
1090,2	-0,938
1090,6	-3,938
1091	1,605
1091,4	2,548
1091,9	8,605
1092,3	8,462
1092,7	4,805
1093,1	0,748
1093,5	-0,481
1093,9	0,605
1094,3	4,919
1094,7	3,348
1095,1	1,633
1095,5	6,576
1096	3,719
1096,4	6,09
1096,8	2,919
1097,2	0,033
1097,6	-0,852
1098	1,005
1098,4	-1,938
1098,8	2,662
1099,2	-0,595
1099,6	0,548
1100,1	2,148
1100,5	4,119
1100,9	4,833
1101,3	3,148
1101,7	6,176
1102,1	8,719
1102,5	5,89
1102,9	0,119
1103,3	-2,252
1103,7	-3,624
1104,2	-2,71
1104,6	-2,795
1105	-2,595
1105,4	-1,938
1105,8	3,062
1106,2	4,633
1106,6	4,005
1107	3,119
1107,4	0,733
1107,8	-1,527
1108,3	-0,167
