Data from Subt2_103.txt Node
Date: Sat Aug 26 18:18:48 MSK 2023
User: vat
Spectrometer: MAYP114033
Trigger mode: 0
Integration Time (sec): 1,000000E0
Scans to average: 5
Electric dark correction enabled: true
Nonlinearity correction enabled: false
Boxcar width: 3
XAxis mode: Wavelengths
Number of Pixels in Spectrum: 2068
>>>>>Begin Spectral Data<<<<<
199,4	-1,683
199,9	-0,473
200,4	-2,4
200,8	1,167
201,3	-0,062
201,8	3,424
202,2	2,481
202,7	6,452
203,2	5,852
203,6	7,424
204,1	0,481
204,6	-0,005
205	0,624
205,5	2,824
206	0,224
206,4	-1,005
206,9	-0,748
207,4	4,995
207,8	3,138
208,3	-0,948
208,8	-2,576
209,2	-0,319
209,7	2,967
210,2	6,424
210,6	5,138
211,1	11,052
211,5	8,91
212	9,11
212,5	6,567
212,9	2,652
213,4	-2,633
213,9	-4,376
214,3	-7,748
214,8	-2,833
215,3	-4,633
215,7	-0,205
216,2	0,424
216,7	1,738
217,1	0,195
217,6	4,252
218,1	3,481
218,5	3,424
219	-5,719
219,5	-0,319
219,9	-3,405
220,4	3,167
220,9	-0,776
221,3	-6,348
221,8	-3,09
222,3	1,738
222,7	-1,033
223,2	0,595
223,6	-6,433
224,1	-7,862
224,6	-0,805
225	-3,005
225,5	-6,548
226	-7,462
226,4	-5,433
226,9	-0,062
227,4	0,652
227,8	-4,633
228,3	-6,519
228,8	-4,29
229,2	-3,233
229,7	-2,948
230,2	-4,119
230,6	0,852
231,1	4,967
231,5	6,681
232	6,91
232,5	6,11
232,9	9,424
233,4	7,852
233,9	2,624
234,3	0,824
234,8	-0,633
235,3	-1,148
235,7	-1,776
236,2	-8,805
236,7	-8,233
237,1	-4,005
237,6	-4,976
238,1	-3,176
238,5	-4,462
239	-4,29
239,4	2,452
239,9	2,681
240,4	2,024
240,8	5,367
241,3	5,538
241,8	3,338
242,2	1,91
242,7	-1,576
243,2	-2,205
243,6	-4,062
244,1	-5,662
244,6	-2,09
245	2,224
245,5	5,195
245,9	2,852
246,4	4,31
246,9	6,024
247,3	9,738
247,8	9,767
248,3	11,081
248,7	9,852
249,2	14,767
249,7	11,938
250,1	13,367
250,6	7,31
251	6,938
251,5	5,367
252	5,624
252,4	1,167
252,9	0,138
253,4	-5,262
253,8	-3,576
254,3	-2,49
254,8	-2,576
255,2	-5,09
255,7	-1,862
256,1	2,281
256,6	2,995
257,1	4,51
257,5	-1,405
258	-0,719
258,5	-1,633
258,9	-4,633
259,4	-5,433
259,9	-4,09
260,3	-7,833
260,8	-7,948
261,2	-6,862
261,7	-7,29
262,2	-9,005
262,6	-9,033
263,1	-2,69
263,6	3,052
264	5,71
264,5	5,995
264,9	8,738
265,4	16,138
265,9	11,767
266,3	8,167
266,8	3,452
267,3	5,967
267,7	0,51
268,2	-1,69
268,7	-6,148
269,1	-2,833
269,6	-8,062
270	-1,776
270,5	-7,29
271	1,281
271,4	6,681
271,9	5,967
272,4	10,024
272,8	13,252
273,3	8,11
273,7	10,395
274,2	8,195
274,7	5,224
275,1	5,367
275,6	6,595
276,1	5,424
276,5	8,195
277	7,138
277,4	4,824
277,9	6,795
278,4	9,767
278,8	7,71
279,3	10,824
279,8	8,567
280,2	11,31
280,7	14,395
281,1	9,224
281,6	7,681
282,1	3,767
282,5	2,881
283	2,824
283,4	-1,462
283,9	-3,89
284,4	-1,262
284,8	-1,348
285,3	-2,976
285,8	-4,376
286,2	-10,833
286,7	-6,89
287,1	-10,49
287,6	-11,405
288,1	-14,319
288,5	-7,376
289	-5,433
289,5	2,31
289,9	-0,062
290,4	3,052
290,8	5,281
291,3	11,024
291,8	9,91
292,2	6,395
292,7	7,11
293,1	7,11
293,6	8,71
294,1	9,224
294,5	9,195
295	4,71
295,5	1,824
295,9	-0,005
296,4	-0,49
296,8	-2,919
297,3	-3,033
297,8	-10,148
298,2	-12,005
298,7	-3,29
299,1	-0,89
299,6	-0,433
300,1	4,51
300,5	3,11
301	7,538
301,5	14,138
301,9	9,424
302,4	8,195
302,8	10,624
303,3	4,681
303,8	2,424
304,2	0,395
304,7	-1,833
305,1	-4,233
305,6	-6,062
306,1	-3,69
306,5	-0,719
307	7,367
307,4	11,395
307,9	7,624
308,4	6,852
308,8	2,052
309,3	-2,462
309,8	-3,805
310,2	-7,976
310,7	-12,348
311,1	-11,033
311,6	-6,833
312,1	0,052
312,5	6,51
313	9,967
313,4	9,338
313,9	11,824
314,4	13,481
314,8	9,281
315,3	9,138
315,7	-0,89
316,2	-6,148
316,7	-8,319
317,1	-5,348
317,6	-5,576
318	-0,948
318,5	-3,748
319	-1,862
319,4	-0,605
319,9	4,224
320,3	1,824
320,8	-0,576
321,3	-0,548
321,7	1,424
322,2	4,424
322,6	5,795
323,1	2,167
323,6	-0,319
324	-2,005
324,5	-5,148
324,9	-5,948
325,4	-6,662
325,9	-2,062
326,3	-2,148
326,8	2,71
327,2	6,481
327,7	8,11
328,2	8,852
328,6	6,767
329,1	0,424
329,5	2,595
330	-3,176
330,5	-2,433
330,9	0,995
331,4	-2,262
331,8	0,652
332,3	4,11
332,8	3,681
333,2	3,824
333,7	6,224
334,1	4,967
334,6	6,852
335,1	1,71
335,5	2,281
336	1,681
336,4	4,51
336,9	6,652
337,4	6,91
337,8	5,538
338,3	10,595
338,7	8,995
339,2	6,195
339,7	8,767
340,1	3,51
340,6	1,338
341	1,738
341,5	-0,633
342	-3,405
342,4	-2,976
342,9	-6,862
343,3	-4,462
343,8	-2,633
344,2	-0,776
344,7	6,281
345,2	4,824
345,6	6,795
346,1	5,967
346,5	3,11
347	-1,776
347,5	-1,948
347,9	-2,462
348,4	0,967
348,8	2,052
349,3	6,681
349,8	6,081
350,2	14,91
350,7	12,224
351,1	8,795
351,6	12,967
352	14,967
352,5	12,938
353	20,91
353,4	20,338
353,9	29,367
354,3	36,795
354,8	40,395
355,3	54,452
355,7	69,767
356,2	83,367
356,6	98,395
357,1	115,081
357,5	137,91
358	159,195
358,5	175,338
358,9	203,481
359,4	231,681
359,8	265,881
360,3	305,224
360,8	338,967
361,2	387,681
361,7	439,424
362,1	497,338
362,6	557,195
363	621,91
363,5	693,11
364	773,91
364,4	851,11
364,9	934,538
365,3	1007,51
365,8	1079,081
366,3	1148,967
366,7	1209,652
367,2	1258,11
367,6	1303,481
368,1	1335,767
368,5	1356,481
369	1369,795
369,5	1375,424
369,9	1364,71
370,4	1348,367
370,8	1316,881
371,3	1277,824
371,7	1233,51
372,2	1179,738
372,7	1120,71
373,1	1065,281
373,6	1000,024
374	938,024
374,5	875,795
374,9	817,595
375,4	760,824
375,9	703,938
376,3	642,167
376,8	593,367
377,2	547,11
377,7	497,91
378,2	455,452
378,6	418,167
379,1	380,167
379,5	354,338
380	326,51
380,4	296,738
380,9	274,052
381,4	249,481
381,8	231,452
382,3	219,938
382,7	205,11
383,2	192,31
383,6	179,738
384,1	170,567
384,6	159,51
385	147,138
385,5	135,167
385,9	121,938
386,4	112,881
386,8	106,852
387,3	100,024
387,7	95,481
388,2	87,91
388,7	82,252
389,1	78,795
389,6	73,452
390	69,624
390,5	69,195
390,9	69,11
391,4	64,224
391,9	61,024
392,3	58,852
392,8	56,052
393,2	51,081
393,7	45,424
394,1	37,51
394,6	42,424
395,1	39,71
395,5	34,995
396	33,538
396,4	34,195
396,9	32,938
397,3	41,281
397,8	45,167
398,2	47,31
398,7	46,51
399,2	48,024
399,6	49,395
400,1	51,224
400,5	43,624
401	37,338
401,4	33,938
401,9	41,024
402,4	43,824
402,8	38,795
403,3	40,967
403,7	40,11
404,2	41,652
404,6	45,71
405,1	47,338
405,5	43,738
406	49,652
406,5	48,595
406,9	56,252
407,4	56,938
407,8	60,967
408,3	66,71
408,7	71,252
409,2	80,224
409,6	87,195
410,1	92,052
410,6	104,795
411	108,967
411,5	111,938
411,9	120,795
412,4	125,224
412,8	134,11
413,3	141,852
413,7	146,367
414,2	154,395
414,7	168,938
415,1	184,967
415,6	199,167
416	210,824
416,5	224,767
416,9	237,424
417,4	254,652
417,8	270,081
418,3	285,71
418,8	303,281
419,2	316,995
419,7	332,11
420,1	353,938
420,6	375,881
421	388,824
421,5	411,91
421,9	433,624
422,4	461,167
422,8	486,681
423,3	510,395
423,8	531,795
424,2	561,224
424,7	585,081
425,1	613,252
425,6	646,881
426	677,91
426,5	713,995
426,9	755,11
427,4	793,538
427,9	827,081
428,3	866,481
428,8	905,395
429,2	959,081
429,7	1003,595
430,1	1052,395
430,6	1109,167
431	1172,567
431,5	1239,481
431,9	1299,081
432,4	1361,681
432,8	1434,567
433,3	1509,824
433,8	1584,024
434,2	1666,71
434,7	1746,081
435,1	1840,252
435,6	1931,052
436	2027,367
436,5	2126,281
436,9	2229,138
437,4	2332,681
437,8	2448,31
438,3	2559,452
438,8	2682,767
439,2	2807,652
439,7	2937,024
440,1	3070,167
440,6	3218,424
441	3354,167
441,5	3509,538
441,9	3662,767
442,4	3814,567
442,8	3978,338
443,3	4151,567
443,7	4315,767
444,2	4499,167
444,7	4686,31
445,1	4872,881
445,6	5076,681
446	5282,224
446,5	5483,452
446,9	5693,51
447,4	5914,024
447,8	6128,852
448,3	6357,31
448,7	6590,652
449,2	6821,052
449,6	7069,71
450,1	7319,481
450,6	7566,367
451	7815,881
451,5	8080,624
451,9	8351,424
452,4	8630,567
452,8	8907,51
453,3	9190,395
453,7	9471,681
454,2	9774,738
454,6	10071,51
455,1	10359,252
455,5	10644,567
456	10945,938
456,4	11254,395
456,9	11575,224
457,3	11881,281
457,8	12199,195
458,3	12518,11
458,7	12856,424
459,2	13183,567
459,6	13505,567
460,1	13826,481
460,5	14163,624
461	14491,024
461,4	14823,852
461,9	15141,424
462,3	15476,595
462,8	15823,967
463,2	16157,252
463,7	16490,081
464,1	16829,881
464,6	17162,967
465	17513,91
465,5	17855,424
466	18190,11
466,4	18520,395
466,9	18858,567
467,3	19179,91
467,8	19513,367
468,2	19836,395
468,7	20142,881
469,1	20447,852
469,6	20766,31
470	21074,081
470,5	21381,51
470,9	21679,481
471,4	21967,881
471,8	22265,938
472,3	22563,481
472,7	22850,481
473,2	23119,424
473,6	23388,395
474,1	23657,052
474,5	23923,338
475	24179,195
475,4	24429,252
475,9	24681,338
476,4	24918,795
476,8	25158,138
477,3	25378,424
477,7	25603,824
478,2	25800,452
478,6	25994,824
479,1	26175,767
479,5	26365,624
480	26536,424
480,4	26718,652
480,9	26858,424
481,3	27038,481
481,8	27175,824
482,2	27315,995
482,7	27447,138
483,1	27575,795
483,6	27676,052
484	27802,567
484,5	27896,91
484,9	28006,024
485,4	28084,51
485,8	28159,11
486,3	28221,224
486,7	28292,595
487,2	28333,852
487,6	28362,452
488,1	28380,567
488,5	28408,738
489	28437,138
489,4	28448,681
489,9	28436,281
490,4	28410,224
490,8	28399,167
491,3	28384,91
491,7	28356,081
492,2	28295,681
492,6	28239,71
493,1	28189,824
493,5	28143,681
494	28046,081
494,4	27956,767
494,9	27876,738
495,3	27800,595
495,8	27711,195
496,2	27612,967
496,7	27506,824
497,1	27433,395
497,6	27325,11
498	27207,795
498,5	27103,995
498,9	26988,138
499,4	26875,652
499,8	26773,738
500,3	26640,452
500,7	26518,938
501,2	26375,595
501,6	26220,424
502,1	26073,595
502,5	25932,995
503	25777,824
503,4	25631,767
503,9	25475,338
504,3	25320,11
504,8	25165,91
505,2	25007,91
505,7	24820,767
506,1	24639,824
506,6	24435,538
507	24249,538
507,5	24072,424
507,9	23886,138
508,4	23702,795
508,8	23521,71
509,3	23333,252
509,7	23161,681
510,2	22980,51
510,6	22789,567
511,1	22593,652
511,5	22391,281
512	22195,481
512,4	22009,11
512,9	21801,624
513,3	21593,252
513,8	21388,738
514,2	21182,51
514,7	20976,31
515,1	20766,71
515,6	20541,738
516	20341,995
516,5	20148,51
516,9	19947,995
517,4	19746,538
517,8	19544,795
518,3	19356,538
518,7	19154,31
519,2	18961,91
519,6	18751,652
520,1	18559,567
520,5	18355,738
521	18160,424
521,4	17956,852
521,9	17768,367
522,3	17571,424
522,8	17382,11
523,2	17187,195
523,7	17008,024
524,1	16813,624
524,6	16623,738
525	16441,252
525,5	16256,567
525,9	16074,824
526,4	15891,538
526,8	15707,31
527,3	15538,738
527,7	15364,681
528,2	15184,567
528,6	15016,538
529,1	14843,91
529,5	14683,767
530	14519,71
530,4	14348,795
530,9	14180,195
531,3	14025,51
531,8	13865,652
532,2	13715,71
532,6	13550,767
533,1	13390,395
533,5	13236,338
534	13090,995
534,4	12945,481
534,9	12797,138
535,3	12644,881
535,8	12498,91
536,2	12362,767
536,7	12225,824
537,1	12085,995
537,6	11947,824
538	11803,938
538,5	11673,195
538,9	11531,252
539,4	11400,024
539,8	11278,252
540,3	11159,995
540,7	11029,652
541,2	10910,252
541,6	10789,595
542,1	10682,738
542,5	10569,138
543	10441,452
543,4	10313,367
543,9	10203,138
544,3	10093,795
544,8	9978,881
545,2	9865,567
545,7	9753,31
546,1	9654,281
546,5	9555,681
547	9445,338
547,4	9341,224
547,9	9233,967
548,3	9134,681
548,8	9038,567
549,2	8934,195
549,7	8835,767
550,1	8749,195
550,6	8658,281
551	8566,738
551,5	8480,424
551,9	8382,367
552,4	8292,824
552,8	8209,224
553,3	8121,424
553,7	8035,281
554,2	7960,395
554,6	7880,138
555,1	7804,138
555,5	7732,195
555,9	7647,224
556,4	7571,452
556,8	7496,31
557,3	7419,024
557,7	7346,767
558,2	7276,852
558,6	7208,452
559,1	7140,138
559,5	7065,452
560	6999,338
560,4	6931,567
560,9	6859,338
561,3	6783,252
561,8	6710,767
562,2	6648,452
562,7	6585,224
563,1	6522,31
563,6	6462,795
564	6401,767
564,4	6351,624
564,9	6294,338
565,3	6238,738
565,8	6182,252
566,2	6124,338
566,7	6066,595
567,1	6015,081
567,6	5957,11
568	5906,938
568,5	5856,767
568,9	5803,224
569,4	5752,081
569,8	5704,424
570,3	5647,338
570,7	5595,281
571,1	5552,338
571,6	5499,452
572	5452,995
572,5	5403,71
572,9	5349,71
573,4	5306,11
573,8	5266,824
574,3	5211,138
574,7	5158,252
575,2	5114,681
575,6	5069,195
576,1	5034,481
576,5	4994,167
576,9	4950,767
577,4	4907,652
577,8	4864,738
578,3	4819,767
578,7	4775,51
579,2	4731,481
579,6	4686,252
580,1	4639,138
580,5	4605,995
581	4577,738
581,4	4540,167
581,9	4499,767
582,3	4454,824
582,7	4418,281
583,2	4378,138
583,6	4335,852
584,1	4295,767
584,5	4260,624
585	4226,195
585,4	4188,624
585,9	4149,51
586,3	4120,995
586,8	4087,852
587,2	4049,224
587,6	4018,967
588,1	3993,424
588,5	3968,938
589	3940,538
589,4	3905,395
589,9	3875,91
590,3	3846,595
590,8	3813,452
591,2	3784,538
591,7	3751,652
592,1	3726,71
592,5	3703,195
593	3673,51
593,4	3651,824
593,9	3626,938
594,3	3598,424
594,8	3573,395
595,2	3548,824
595,7	3527,024
596,1	3495,967
596,6	3470,424
597	3442,995
597,4	3417,681
597,9	3395,281
598,3	3372,71
598,8	3348,567
599,2	3332,567
599,7	3309,11
600,1	3284,767
600,6	3261,681
601	3240,338
601,4	3222,71
601,9	3200,652
602,3	3178,71
602,8	3157,452
603,2	3138,652
603,7	3111,31
604,1	3086,652
604,6	3061,195
605	3035,424
605,4	3013,167
605,9	2986,51
606,3	2957,681
606,8	2942,452
607,2	2920,738
607,7	2890,624
608,1	2869,795
608,6	2853,024
609	2843,052
609,4	2827,338
609,9	2803,852
610,3	2785,681
610,8	2769,052
611,2	2752,938
611,7	2727,738
612,1	2701,91
612,6	2687,052
613	2671,51
613,4	2653,224
613,9	2637,567
614,3	2612,938
614,8	2601,538
615,2	2578,138
615,7	2565,51
616,1	2549,881
616,6	2528,31
617	2505,995
617,4	2491,395
617,9	2470,795
618,3	2455,738
618,8	2434,881
619,2	2415,081
619,7	2402,367
620,1	2384,538
620,5	2372,481
621	2351,681
621,4	2342,881
621,9	2321,995
622,3	2302,024
622,8	2284,938
623,2	2270,51
623,6	2253,024
624,1	2242,881
624,5	2220,652
625	2213,452
625,4	2203,652
625,9	2189,452
626,3	2177,11
626,8	2159,967
627,2	2142,995
627,6	2127,31
628,1	2104,624
628,5	2089,852
629	2071,624
629,4	2057,452
629,9	2040,824
630,3	2019,452
630,7	2000,995
631,2	1985,51
631,6	1969,767
632,1	1955,738
632,5	1935,795
633	1921,138
633,4	1908,767
633,8	1897,538
634,3	1880,938
634,7	1865,138
635,2	1848,11
635,6	1833,281
636,1	1819,767
636,5	1804,881
636,9	1784,538
637,4	1773,71
637,8	1762,281
638,3	1750,11
638,7	1736,281
639,2	1715,424
639,6	1708,538
640	1699,195
640,5	1689,138
640,9	1674,567
641,4	1662,424
641,8	1652,024
642,2	1649,595
642,7	1639,852
643,1	1638,281
643,6	1625,767
644	1617,395
644,5	1612,367
644,9	1604,367
645,3	1594,624
645,8	1578,424
646,2	1563,824
646,7	1552,538
647,1	1538,681
647,6	1522,281
648	1513,681
648,4	1496,938
648,9	1489,824
649,3	1477,967
649,8	1468,281
650,2	1459,538
650,6	1452,795
651,1	1443,31
651,5	1442,31
652	1431,167
652,4	1423,795
652,9	1414,738
653,3	1405,938
653,7	1393,738
654,2	1386,052
654,6	1368,024
655,1	1359,481
655,5	1353,481
655,9	1348,052
656,4	1334,51
656,8	1329,51
657,3	1315,824
657,7	1311,824
658,2	1301,767
658,6	1287,195
659	1268,938
659,5	1259,338
659,9	1250,881
660,4	1242,595
660,8	1232,567
661,2	1222,738
661,7	1216,395
662,1	1215,31
662,6	1210,481
663	1201,367
663,4	1192,824
663,9	1187,338
664,3	1178,567
664,8	1166,195
665,2	1154,938
665,6	1144,567
666,1	1134,11
666,5	1126,852
667	1114,167
667,4	1102,91
667,9	1095,51
668,3	1090,138
668,7	1081,681
669,2	1074,652
669,6	1064,567
670,1	1057,081
670,5	1051,31
670,9	1040,395
671,4	1030,995
671,8	1026,338
672,3	1021,767
672,7	1020,11
673,1	1014,538
673,6	1009,852
674	1009,338
674,5	999,91
674,9	985,252
675,3	975,281
675,8	962,738
676,2	950,252
676,7	940,995
677,1	928,081
677,5	922,11
678	921,138
678,4	917,624
678,9	910,452
679,3	903,624
679,7	900,138
680,2	891,738
680,6	882,51
681,1	875,51
681,5	869,71
681,9	868,852
682,4	870,338
682,8	863,91
683,3	861,538
683,7	858,367
684,1	851,681
684,6	840,395
685	826,338
685,5	817,881
685,9	805,224
686,3	800,824
686,8	790,624
687,2	790,91
687,7	779,567
688,1	772,767
688,5	767,281
689	770,138
689,4	765,281
689,9	762,91
690,3	750,281
690,7	752,51
691,2	753,281
691,6	745,224
692	734,338
692,5	730,338
692,9	726,824
693,4	723,452
693,8	717,167
694,2	710,452
694,7	703,51
695,1	698,967
695,6	691,367
696	686,738
696,4	685,481
696,9	674,852
697,3	669,452
697,8	663,167
698,2	658,195
698,6	653,481
699,1	649,938
699,5	644,881
699,9	645,338
700,4	636,024
700,8	635,71
701,3	630,995
701,7	624,367
702,1	614,367
702,6	606,71
703	603,424
703,5	601,281
703,9	595,052
704,3	594,967
704,8	593,452
705,2	591,11
705,6	586,481
706,1	578,852
706,5	574,624
707	570,51
707,4	562,852
707,8	554,424
708,3	552,31
708,7	547,567
709,2	546,852
709,6	543,224
710	541,224
710,5	538,681
710,9	535,281
711,3	528,91
711,8	526,624
712,2	522,51
712,7	519,138
713,1	518,224
713,5	514,767
714	514,567
714,4	511,424
714,8	508,681
715,3	504,881
715,7	504,252
716,2	493,824
716,6	492,138
717	487,567
717,5	482,995
717,9	479,252
718,3	471,71
718,8	465,395
719,2	463,595
719,7	458,652
720,1	458,367
720,5	460,538
721	456,767
721,4	455,481
721,8	453,824
722,3	450,481
722,7	451,424
723,2	441,652
723,6	429,252
724	424,881
724,5	418,452
724,9	413,71
725,3	411,367
725,8	402,995
726,2	401,167
726,7	400,738
727,1	396,967
727,5	398,081
728	395,967
728,4	392,91
728,8	387,481
729,3	382,967
729,7	380,51
730,1	375,91
730,6	372,138
731	365,995
731,5	366,024
731,9	362,595
732,3	361,424
732,8	360,195
733,2	360,938
733,6	359,595
734,1	361,452
734,5	356,738
734,9	358,538
735,4	354,224
735,8	349,081
736,3	348,824
736,7	345,024
737,1	341,167
737,6	340,052
738	334,367
738,4	336,395
738,9	337,767
739,3	331,567
739,7	334,252
740,2	328,452
740,6	328,738
741,1	328,167
741,5	320,938
741,9	315,795
742,4	317,938
742,8	311,281
743,2	311,624
743,7	308,195
744,1	305,167
744,5	304,481
745	305,595
745,4	300,652
745,8	300,281
746,3	295,624
746,7	290,795
747,2	289,538
747,6	288,967
748	289,224
748,5	290,71
748,9	283,681
749,3	286,367
749,8	282,024
750,2	280,767
750,6	276,31
751,1	273,281
751,5	268,595
751,9	269,995
752,4	270,338
752,8	274,052
753,3	271,824
753,7	277,91
754,1	273,424
754,6	267,538
755	266,681
755,4	257,395
755,9	254,71
756,3	252,195
756,7	249,224
757,2	249,624
757,6	250,395
758	249,281
758,5	254,281
758,9	251,624
759,3	252,71
759,8	250,881
760,2	249,538
760,6	246,138
761,1	240,881
761,5	236,652
761,9	234,252
762,4	233,424
762,8	229,338
763,3	223,881
763,7	225,995
764,1	228,481
764,6	230,681
765	229,024
765,4	226,167
765,9	224,338
766,3	226,052
766,7	221,51
767,2	217,195
767,6	214,881
768	213,024
768,5	208,767
768,9	207,624
769,3	204,51
769,8	202,595
770,2	204,481
770,6	200,967
771,1	201,538
771,5	206,252
771,9	207,595
772,4	208,081
772,8	207,71
773,2	205,281
773,7	204,967
774,1	205,624
774,5	195,167
775	191,224
775,4	194,51
775,8	196,738
776,3	195,138
776,7	192,595
777,1	187,91
777,6	191,081
778	191,738
778,4	183,91
778,9	182,281
779,3	182,452
779,7	180,624
780,2	181,624
780,6	184,995
781	181,824
781,5	178,31
781,9	175,31
782,3	170,052
782,8	171,567
783,2	169,567
783,6	162,367
784,1	159,681
784,5	159,995
784,9	159,452
785,4	165,338
785,8	166,881
786,2	166,024
786,7	165,624
787,1	167,624
787,5	166,824
788	164,081
788,4	162,681
788,8	156,452
789,3	152,367
789,7	152,338
790,1	151,11
790,6	155,195
791	154,138
791,4	155,081
791,9	148,967
792,3	146,595
792,7	151,024
793,2	150,51
793,6	146,881
794	146,51
794,5	137,995
794,9	142,738
795,3	146,595
795,8	139,224
796,2	142,338
796,6	142,538
797,1	143,081
797,5	139,852
797,9	139,852
798,4	136,881
798,8	135,367
799,2	127,795
799,7	125,452
800,1	119,624
800,5	121,71
801	123,424
801,4	120,681
801,8	118,424
802,2	118,424
802,7	116,852
803,1	121,738
803,5	121,881
804	115,624
804,4	116,31
804,8	118,424
805,3	117,795
805,7	118,31
806,1	114,538
806,6	116,11
807	120,567
807,4	122,567
807,9	119,11
808,3	120,852
808,7	120,795
809,2	126,681
809,6	124,71
810	121,681
810,4	119,052
810,9	123,081
811,3	120,252
811,7	118,224
812,2	114,767
812,6	110,71
813	109,938
813,5	107,224
813,9	104,252
814,3	100,595
814,8	97,824
815,2	92,595
815,6	94,852
816,1	95,452
816,5	98,195
816,9	101,738
817,3	102,652
817,8	105,767
818,2	109,367
818,6	104,652
819,1	103,824
819,5	99,424
819,9	97,11
820,4	96,31
820,8	89,824
821,2	80,938
821,7	83,024
822,1	84,424
822,5	90,852
822,9	90,51
823,4	88,71
823,8	94,71
824,2	97,881
824,7	95,881
825,1	87,738
825,5	80,081
826	71,652
826,4	72,081
826,8	69,852
827,3	74,338
827,7	73,195
828,1	77,824
828,5	80,11
829	79,852
829,4	81,681
829,8	75,024
830,3	70,424
830,7	69,252
831,1	65,481
831,6	62,595
832	67,452
832,4	67,252
832,8	75,081
833,3	72,967
833,7	71,11
834,1	71,081
834,6	71,938
835	72,938
835,4	71,081
835,8	64,624
836,3	66,195
836,7	68,252
837,1	67,595
837,6	70,138
838	66,138
838,4	64,481
838,9	66,11
839,3	62,91
839,7	64,424
840,1	62,51
840,6	60,395
841	60,624
841,4	63,538
841,9	62,052
842,3	67,138
842,7	64,71
843,1	66,138
843,6	64,767
844	64,252
844,4	62,138
844,9	64,024
845,3	60,224
845,7	61,195
846,2	57,481
846,6	53,71
847	54,824
847,4	55,367
847,9	53,738
848,3	52,167
848,7	51,31
849,2	54,31
849,6	52,567
850	54,481
850,4	54,138
850,9	55,624
851,3	56,681
851,7	59,538
852,2	57,852
852,6	63,024
853	61,081
853,4	57,31
853,9	51,91
854,3	54,138
854,7	53,195
855,2	50,481
855,6	47,51
856	44,395
856,4	43,91
856,9	44,71
857,3	41,595
857,7	41,91
858,2	44,795
858,6	44,395
859	47,881
859,4	49,652
859,9	48,024
860,3	45,91
860,7	41,91
861,1	42,052
861,6	44,167
862	42,395
862,4	37,224
862,9	38,11
863,3	39,938
863,7	38,081
864,1	38,738
864,6	36,595
865	35,738
865,4	39,738
865,9	44,967
866,3	40,052
866,7	39,881
867,1	36,481
867,6	36,452
868	32,167
868,4	33,052
868,8	30,938
869,3	33,024
869,7	38,252
870,1	38,224
870,6	38,452
871	-17,148
871,4	-16,862
871,8	-19,776
872,3	-18,776
872,7	-20,062
873,1	-22,062
873,5	-22,262
874	35,652
874,4	34,91
874,8	32,881
875,3	36,052
875,7	32,081
876,1	35,595
876,5	35,195
877	30,367
877,4	26,052
877,8	28,91
878,2	29,424
878,7	30,652
879,1	28,252
879,5	27,11
879,9	34,195
880,4	36,424
880,8	35,138
881,2	36,624
881,7	33,938
882,1	37,395
882,5	35,052
882,9	33,052
883,4	31,538
883,8	32,91
884,2	27,824
884,6	28,881
885,1	25,052
885,5	27,538
885,9	23,538
886,3	26,852
886,8	23,938
887,2	23,967
887,6	22,795
888	23,824
888,5	22,652
888,9	22,11
889,3	21,881
889,8	19,652
890,2	18,481
890,6	14,167
891	16,595
891,5	13,395
891,9	16,481
892,3	11,881
892,7	14,424
893,2	14,967
893,6	22,081
894	19,767
894,4	23,481
894,9	23,452
895,3	29,167
895,7	31,652
896,1	31,281
896,6	30,167
897	30,395
897,4	33,481
897,8	35,738
898,3	33,338
898,7	27,881
899,1	26,452
899,5	21,167
900	18,681
900,4	12,424
900,8	6,395
901,2	-0,176
901,7	0,567
902,1	1,967
902,5	7,881
902,9	4,452
903,4	8,938
903,8	10,51
904,2	9,681
904,6	12,367
905,1	13,652
905,5	12,395
905,9	18,624
906,3	18,767
906,8	21,195
907,2	27,938
907,6	24,424
908	24,852
908,5	23,795
908,9	20,71
909,3	17,767
909,7	15,224
910,2	12,938
910,6	17,424
911	12,395
911,4	10,852
911,9	11,138
912,3	10,681
912,7	14,11
913,1	14,995
913,6	12,738
914	14,595
914,4	13,795
914,8	17,31
915,3	17,538
915,7	15,652
916,1	13,024
916,5	12,595
916,9	9,681
917,4	12,767
917,8	9,338
918,2	5,367
918,6	1,195
919,1	3,881
919,5	8,538
919,9	11,624
920,3	8,367
920,8	9,281
921,2	12,367
921,6	15,224
922	15,31
922,5	10,938
922,9	12,795
923,3	14,51
923,7	10,538
924,2	10,167
924,6	9,481
925	9,024
925,4	9,91
925,8	5,424
926,3	2,967
926,7	4,652
927,1	3,51
927,5	7,767
928	3,91
928,4	0,852
928,8	5,538
929,2	5,224
929,7	7,081
930,1	8,795
930,5	4,424
930,9	9,052
931,3	10,052
931,8	8,138
932,2	10,052
932,6	9,567
933	4,31
933,5	4,481
933,9	2,338
934,3	5,767
934,7	2,338
935,2	4,338
935,6	0,995
936	3,51
936,4	6,395
936,8	8,595
937,3	2,852
937,7	6,938
938,1	7,767
938,5	7,567
939	8,338
939,4	5,081
939,8	4,052
940,2	6,567
940,6	7,767
941,1	3,852
941,5	9,395
941,9	7,967
942,3	9,252
942,8	10,081
943,2	9,881
943,6	3,71
944	3,395
944,4	2,91
944,9	2,481
945,3	2,138
945,7	-5,376
946,1	-4,29
946,6	-4,548
947	-3,062
947,4	1,081
947,8	1,052
948,2	-3,462
948,7	3,31
949,1	1,567
949,5	8,767
949,9	9,195
950,3	2,51
950,8	4,081
951,2	8,11
951,6	2,51
952	3,738
952,5	-1,548
952,9	-4,033
953,3	-3,89
953,7	-3,89
954,1	0,681
954,6	7,367
955	10,138
955,4	9,91
955,8	12,081
956,2	13,31
956,7	17,338
957,1	8,338
957,5	11,052
957,9	9,595
958,3	7,71
958,8	7,424
959,2	7,681
959,6	9,367
960	13,881
960,5	11,338
960,9	10,967
961,3	11,252
961,7	11,881
962,1	12,652
962,6	9,681
963	5,824
963,4	-0,919
963,8	-2,348
964,2	-1,948
964,7	-4,433
965,1	-4,605
965,5	-8,205
965,9	-4,633
966,3	-0,605
966,8	0,652
967,2	4,967
967,6	5,081
968	0,138
968,4	3,881
968,9	4,938
969,3	11,51
969,7	10,052
970,1	6,367
970,5	7,681
971	13,338
971,4	10,824
971,8	9,967
972,2	5,31
972,6	0,281
973,1	2,567
973,5	2,395
973,9	0,51
974,3	0,91
974,7	3,481
975,2	4,452
975,6	5,852
976	7,224
976,4	6,195
976,8	6,224
977,3	2,224
977,7	-3,148
978,1	-6,776
978,5	-4,576
978,9	-8,833
979,4	-7,148
979,8	-8,49
980,2	-6,262
980,6	-7,576
981	-7,205
981,5	-7,605
981,9	-6,148
982,3	-7,605
982,7	-7,376
983,1	-8,205
983,6	-5,833
984	-3,776
984,4	-1,805
984,8	-1,833
985,2	-2,976
985,6	-7,005
986,1	-3,519
986,5	-1,776
986,9	-6,062
987,3	-5,548
987,7	-7,09
988,2	-3,89
988,6	0,224
989	-0,348
989,4	-3,119
989,8	-1,662
990,3	-3,833
990,7	-2,119
991,1	-2,862
991,5	0,767
991,9	-0,176
992,3	4,024
992,8	4,995
993,2	7,195
993,6	11,052
994	9,452
994,4	11,081
994,9	14,995
995,3	11,767
995,7	11,852
996,1	12,081
996,5	10,652
996,9	8,31
997,4	7,252
997,8	-0,833
998,2	-1,176
998,6	-8,262
999	-12,005
999,5	-14,005
999,9	-8,69
1000,3	-16,005
1000,7	-12,376
1001,1	-10,605
1001,5	-2,09
1002	2,052
1002,4	2,681
1002,8	-0,976
1003,2	4,31
1003,6	4,167
1004	6,795
1004,5	2,338
1004,9	0,11
1005,3	-6,319
1005,7	-4,919
1006,1	-7,119
1006,6	-7,519
1007	-9,433
1007,4	-6,433
1007,8	-9,976
1008,2	-6,29
1008,6	-1,748
1009,1	-3,576
1009,5	-4,948
1009,9	-3,748
1010,3	-3,862
1010,7	3,881
1011,1	5,595
1011,6	1,481
1012	9,881
1012,4	10,481
1012,8	9,024
1013,2	10,852
1013,6	6,938
1014,1	10,052
1014,5	9,681
1014,9	7,624
1015,3	9,452
1015,7	8,338
1016,1	4,538
1016,6	3,967
1017	2,11
1017,4	0,424
1017,8	-3,548
1018,2	0,11
1018,6	-2,348
1019,1	-2,348
1019,5	-1,805
1019,9	-6,548
1020,3	-2,976
1020,7	-2,29
1021,1	-5,862
1021,6	-4,062
1022	-0,605
1022,4	3,652
1022,8	7,795
1023,2	6,252
1023,6	7,052
1024,1	13,081
1024,5	14,052
1024,9	10,852
1025,3	6,281
1025,7	5,224
1026,1	7,795
1026,6	6,395
1027	0,338
1027,4	4,224
1027,8	4,938
1028,2	5,681
1028,6	9,624
1029	3,71
1029,5	7,938
1029,9	5,967
1030,3	-3,662
1030,7	-5,605
1031,1	-8,519
1031,5	-14,89
1032	-9,776
1032,4	-13,319
1032,8	-9,519
1033,2	-4,433
1033,6	-2,033
1034	5,824
1034,4	5,795
1034,9	6,31
1035,3	1,31
1035,7	-1,062
1036,1	-2,662
1036,5	-3,433
1036,9	-8,49
1037,4	-3,033
1037,8	-8,862
1038,2	-5,462
1038,6	-3,433
1039	2,538
1039,4	6,881
1039,8	2,452
1040,3	-0,976
1040,7	2,252
1041,1	6,11
1041,5	7,738
1041,9	4,71
1042,3	-0,233
1042,7	6,767
1043,2	10,91
1043,6	9,795
1044	7,51
1044,4	3,852
1044,8	5,967
1045,2	8,252
1045,6	9,881
1046,1	4,281
1046,5	5,652
1046,9	2,681
1047,3	3,195
1047,7	0,252
1048,1	3,538
1048,5	-0,576
1049	3,138
1049,4	0,51
1049,8	1,824
1050,2	3,995
1050,6	6,31
1051	3,91
1051,4	-0,119
1051,9	-5,548
1052,3	4,595
1052,7	5,795
1053,1	2,081
1053,5	1,738
1053,9	6,567
1054,3	5,281
1054,8	12,995
1055,2	6,481
1055,6	8,881
1056	8,71
1056,4	6,281
1056,8	0,081
1057,2	0,624
1057,6	-3,519
1058,1	-6,09
1058,5	-10,862
1058,9	-9,376
1059,3	-8,376
1059,7	-5,576
1060,1	-1,119
1060,5	-0,148
1061	-0,348
1061,4	-1,405
1061,8	1,424
1062,2	1,338
1062,6	0,938
1063	0,652
1063,4	-0,405
1063,8	-0,548
1064,3	-2,205
1064,7	-4,748
1065,1	-6,862
1065,5	-10,633
1065,9	-8,719
1066,3	-9,519
1066,7	-11,69
1067,1	-7,662
1067,6	-6,633
1068	-7,633
1068,4	-4,033
1068,8	-5,433
1069,2	-1,919
1069,6	2,624
1070	3,967
1070,4	2,195
1070,9	-0,49
1071,3	-2,605
1071,7	-3,376
1072,1	-6,605
1072,5	-7,176
1072,9	-10,69
1073,3	-5,89
1073,7	-0,033
1074,2	3,567
1074,6	8,738
1075	12,195
1075,4	12,11
1075,8	16,795
1076,2	10,252
1076,6	8,567
1077	4,852
1077,5	1,852
1077,9	-2,519
1078,3	-3,29
1078,7	-8,262
1079,1	-3,919
1079,5	-3,519
1079,9	-1,976
1080,3	-3,833
1080,7	-2,605
1081,2	3,052
1081,6	4,852
1082	-0,633
1082,4	3,538
1082,8	1,481
1083,2	4,252
1083,6	9,31
1084	4,338
1084,5	7,195
1084,9	9,081
1085,3	4,824
1085,7	6,51
1086,1	4,281
1086,5	-2,633
1086,9	0,938
1087,3	-0,805
1087,7	0,967
1088,2	2,767
1088,6	3,795
1089	4,338
1089,4	5,681
1089,8	1,938
1090,2	3,538
1090,6	2,395
1091	3,652
1091,4	4,424
1091,9	4,852
1092,3	5,538
1092,7	4,452
1093,1	3,967
1093,5	4,938
1093,9	1,567
1094,3	2,167
1094,7	-1,976
1095,1	0,567
1095,5	3,967
1096	-1,033
1096,4	-0,09
1096,8	-0,062
1097,2	-3,033
1097,6	3,395
1098	2,481
1098,4	3,424
1098,8	6,824
1099,2	11,767
1099,6	12,624
1100,1	10,367
1100,5	5,31
1100,9	2,224
1101,3	0,224
1101,7	1,538
1102,1	-2,319
1102,5	-2,033
1102,9	-0,548
1103,3	3,881
1103,7	5,967
1104,2	5,852
1104,6	6,71
1105	5,852
1105,4	3,852
1105,8	3,681
1106,2	0,452
1106,6	0,71
1107	0,538
1107,4	-1,567
1107,8	-2,353
1108,3	0,217
