Data from Subt2_213.txt Node
Date: Sat Aug 26 18:48:18 MSK 2023
User: vat
Spectrometer: MAYP114033
Trigger mode: 0
Integration Time (sec): 1,000000E0
Scans to average: 5
Electric dark correction enabled: true
Nonlinearity correction enabled: false
Boxcar width: 3
XAxis mode: Wavelengths
Number of Pixels in Spectrum: 2068
>>>>>Begin Spectral Data<<<<<
199,4	-1,05
199,9	-3,28
200,4	-3,633
200,8	-0,943
201,3	-3,743
201,8	0,543
202,2	-0,4
202,7	4,257
203,2	4,714
203,6	6
204,1	4,286
204,6	6,629
205	4,829
205,5	4,057
206	2,029
206,4	4,429
206,9	2,714
207,4	1,286
207,8	-0,171
208,3	1,629
208,8	5,114
209,2	2,171
209,7	3,543
210,2	2,971
210,6	3,086
211,1	5,486
211,5	-1,086
212	-4,314
212,5	-3,714
212,9	-7,314
213,4	-3,914
213,9	-4,229
214,3	-4,114
214,8	1,086
215,3	1,229
215,7	7,343
216,2	8,629
216,7	10,143
217,1	7,571
217,6	8,629
218,1	3,114
218,5	5,371
219	-3,457
219,5	-3,543
219,9	-6,971
220,4	2,086
220,9	-0,229
221,3	3,086
221,8	0,6
222,3	2,886
222,7	5,2
223,2	3,429
223,6	-2,229
224,1	-1,114
224,6	-1,057
225	-2,086
225,5	-0,571
226	-1,6
226,4	2,686
226,9	6,686
227,4	6,429
227,8	0,343
228,3	3,286
228,8	3,171
229,2	4,4
229,7	-0,171
230,2	-3,886
230,6	-0,257
231,1	10,886
231,5	11,857
232	15,514
232,5	13,171
232,9	17,314
233,4	19,829
233,9	16,2
234,3	12,714
234,8	11,029
235,3	5,486
235,7	12,571
236,2	10,743
236,7	8,229
237,1	8,6
237,6	4,429
238,1	4
238,5	-1,229
239	-7,143
239,4	0,114
239,9	-2,514
240,4	-1,971
240,8	0,886
241,3	-2,057
241,8	5,8
242,2	5,086
242,7	-5,029
243,2	-1,457
243,6	-3,486
244,1	-1,971
244,6	3,714
245	3,514
245,5	5,829
245,9	8,686
246,4	6,114
246,9	8,543
247,3	10,2
247,8	7,686
248,3	5,743
248,7	6,429
249,2	7,2
249,7	7,857
250,1	8,171
250,6	3,657
251	5,6
251,5	10,343
252	7,429
252,4	9,457
252,9	9,571
253,4	8,943
253,8	8,486
254,3	11,457
254,8	9,343
255,2	4,657
255,7	0,4
256,1	1,743
256,6	-0,943
257,1	1,114
257,5	-9,543
258	-12,257
258,5	-8,971
258,9	-7,429
259,4	-8,257
259,9	-5,8
260,3	-9,229
260,8	-8,229
261,2	-10,514
261,7	-9,857
262,2	-16,229
262,6	-15,857
263,1	-10,486
263,6	-5,943
264	2,943
264,5	8,714
264,9	5,971
265,4	14,371
265,9	10,4
266,3	6,714
266,8	6,143
267,3	2,6
267,7	1,743
268,2	6,143
268,7	5
269,1	7,086
269,6	1,371
270	3,714
270,5	1,086
271	-1,914
271,4	-0
271,9	-5,086
272,4	-0,743
272,8	4,486
273,3	0,429
273,7	4,971
274,2	6,857
274,7	5,771
275,1	11,314
275,6	11,543
276,1	10
276,5	16,971
277	14,429
277,4	12,829
277,9	13,657
278,4	14,314
278,8	13,829
279,3	15,514
279,8	11,229
280,2	10,943
280,7	15,143
281,1	11,429
281,6	9,514
282,1	7,4
282,5	3,571
283	1,086
283,4	0,657
283,9	-1,571
284,4	1,914
284,8	1,457
285,3	-0,771
285,8	-0,886
286,2	0,314
286,7	0,029
287,1	-0,171
287,6	-2,829
288,1	-4,714
288,5	0,257
289	0,486
289,5	0,8
289,9	2,257
290,4	5,971
290,8	6,286
291,3	5,857
291,8	5,343
292,2	8,914
292,7	13,314
293,1	11,457
293,6	8,686
294,1	10,314
294,5	14,114
295	13
295,5	9,4
295,9	5,686
296,4	5,914
296,8	2,543
297,3	0,143
297,8	-7,143
298,2	-11,486
298,7	-6,314
299,1	-10,314
299,6	-8,943
300,1	-4,571
300,5	-2,8
301	5,857
301,5	11,143
301,9	7,914
302,4	11,4
302,8	11,143
303,3	7,429
303,8	3,114
304,2	3,429
304,7	3,429
305,1	0,486
305,6	-1,6
306,1	4,629
306,5	7,857
307	14,314
307,4	11,971
307,9	11,543
308,4	10,657
308,8	6,8
309,3	3,8
309,8	3,8
310,2	2,514
310,7	-2,486
311,1	-1,971
311,6	4,343
312,1	11,343
312,5	9,914
313	10,486
313,4	9,829
313,9	15,771
314,4	15,143
314,8	11,171
315,3	10
315,7	5,486
316,2	3,657
316,7	-0,2
317,1	3,343
317,6	3,571
318	9
318,5	6,114
319	9,514
319,4	9,257
319,9	17,343
320,3	13,914
320,8	11,629
321,3	9,686
321,7	12,686
322,2	10,171
322,6	14,429
323,1	6,629
323,6	6,257
324	6,429
324,5	5,971
324,9	7,857
325,4	8,714
325,9	9,314
326,3	11
326,8	9,343
327,2	7,086
327,7	4,486
328,2	3,286
328,6	5,829
329,1	0,543
329,5	-1,4
330	1,714
330,5	5,514
330,9	6,514
331,4	6,686
331,8	7,029
332,3	9,286
332,8	12,743
333,2	11,657
333,7	10,257
334,1	12,029
334,6	6,543
335,1	1,514
335,5	-0,686
336	-2,657
336,4	-1,886
336,9	2,657
337,4	5,571
337,8	8,314
338,3	9,286
338,7	11,6
339,2	9,886
339,7	7,543
340,1	0,314
340,6	-4,286
341	-4,057
341,5	-0,629
342	-4,714
342,4	-4,171
342,9	-5,229
343,3	-2,2
343,8	-1,4
344,2	-0,114
344,7	1,543
345,2	2,143
345,6	4,029
346,1	7,8
346,5	3,371
347	0,886
347,5	-0,171
347,9	1,057
348,4	4,6
348,8	5,486
349,3	8,257
349,8	14,914
350,2	21,657
350,7	24,029
351,1	27,829
351,6	29,4
352	33,886
352,5	36,486
353	45,686
353,4	50,971
353,9	67,286
354,3	74,486
354,8	86,943
355,3	107,829
355,7	129,114
356,2	153,943
356,6	181,086
357,1	212,086
357,5	252,571
358	305,143
358,5	348,743
358,9	404,429
359,4	467,657
359,8	538,829
360,3	620,914
360,8	705,829
361,2	803,457
361,7	920,229
362,1	1051,914
362,6	1183,457
363	1327,514
363,5	1476,029
364	1641,086
364,4	1803,514
364,9	1966,6
365,3	2122,457
365,8	2278,714
366,3	2422,743
366,7	2550,457
367,2	2666,429
367,6	2754,657
368,1	2826,4
368,5	2874,857
369	2898,029
369,5	2903,171
369,9	2884,914
370,4	2839,371
370,8	2782,229
371,3	2699,8
371,7	2603,6
372,2	2494,486
372,7	2375,371
373,1	2249,086
373,6	2116,286
374	1990,314
374,5	1862,314
374,9	1735,143
375,4	1609,714
375,9	1488,6
376,3	1377,029
376,8	1271,4
377,2	1166,314
377,7	1068,629
378,2	976,743
378,6	899,543
379,1	825,314
379,5	757,286
380	698,086
380,4	637,714
380,9	586,314
381,4	532,857
381,8	490,914
382,3	458,143
382,7	419,914
383,2	387,486
383,6	360,943
384,1	338,514
384,6	323,314
385	300,029
385,5	275,429
385,9	255,571
386,4	236,286
386,8	220,314
387,3	198,971
387,7	185,743
388,2	173
388,7	164,143
389,1	153,371
389,6	145,629
390	135,686
390,5	134,8
390,9	127,343
391,4	120,314
391,9	111,657
392,3	110,171
392,8	99,143
393,2	92,314
393,7	83,743
394,1	77,857
394,6	73,286
395,1	66,714
395,5	60,771
396	61,457
396,4	60,514
396,9	61,514
397,3	62,686
397,8	60,286
398,2	61,8
398,7	61,543
399,2	61,257
399,6	57,086
400,1	51,314
400,5	40,057
401	38,657
401,4	35,086
401,9	35,257
402,4	32,057
402,8	29,086
403,3	32,114
403,7	36,229
404,2	39,086
404,6	41,229
405,1	37
405,5	37,457
406	37,343
406,5	33,543
406,9	40,457
407,4	39
407,8	40,914
408,3	46,371
408,7	47,8
409,2	56,943
409,6	63,057
410,1	61,029
410,6	66,629
411	68,314
411,5	70,514
411,9	75,114
412,4	75,657
412,8	75,771
413,3	82,971
413,7	84,143
414,2	86,457
414,7	96,914
415,1	107,829
415,6	112,286
416	120,914
416,5	121,371
416,9	125,257
417,4	133,286
417,8	138,229
418,3	141,829
418,8	152,457
419,2	156,514
419,7	164,6
420,1	171,514
420,6	175,029
421	175,971
421,5	182,4
421,9	186,429
422,4	198,971
422,8	204,457
423,3	209,143
423,8	217,286
424,2	223,857
424,7	226,657
425,1	232,514
425,6	235,514
426	241,286
426,5	253
426,9	266,114
427,4	274,2
427,9	283
428,3	297,029
428,8	306,314
429,2	319,371
429,7	332,543
430,1	342,543
430,6	356,371
431	373,886
431,5	388,457
431,9	401,743
432,4	423,029
432,8	442,371
433,3	461,143
433,8	481,114
434,2	497,857
434,7	514,943
435,1	544,143
435,6	562,171
436	582,286
436,5	606,514
436,9	632,229
437,4	660,4
437,8	688,686
438,3	712,314
438,8	744,2
439,2	771,4
439,7	806,429
440,1	841,914
440,6	879,914
441	916,657
441,5	956,571
441,9	994,943
442,4	1035,571
442,8	1071,714
443,3	1116,571
443,7	1156,771
444,2	1203,457
444,7	1247,371
445,1	1293,714
445,6	1346,457
446	1400,086
446,5	1447,2
446,9	1494,486
447,4	1545,143
447,8	1599,057
448,3	1658,543
448,7	1715,343
449,2	1771
449,6	1831,8
450,1	1895,543
450,6	1962,657
451	2025,686
451,5	2083,2
451,9	2151,6
452,4	2217,857
452,8	2281,514
453,3	2355,429
453,7	2421,257
454,2	2496,971
454,6	2572,286
455,1	2641,8
455,5	2709,743
456	2788,2
456,4	2858,286
456,9	2936,171
457,3	3006,029
457,8	3079,829
458,3	3158,114
458,7	3243,686
459,2	3319,543
459,6	3391,514
460,1	3474,829
460,5	3558,571
461	3648,257
461,4	3722,629
461,9	3805,771
462,3	3891,086
462,8	3985,829
463,2	4063,771
463,7	4144,2
464,1	4229,229
464,6	4319,971
465	4404,829
465,5	4488,057
466	4570,657
466,4	4650,314
466,9	4742,514
467,3	4821,143
467,8	4909,229
468,2	4995,429
468,7	5080,4
469,1	5165,543
469,6	5257,314
470	5339,057
470,5	5427,257
470,9	5502,8
471,4	5571,629
471,8	5651,457
472,3	5729,2
472,7	5803,857
473,2	5875,429
473,6	5943,771
474,1	6024,229
474,5	6097,514
475	6167,486
475,4	6240,657
475,9	6303,057
476,4	6370,086
476,8	6428,086
477,3	6476,2
477,7	6540,943
478,2	6596,314
478,6	6639,6
479,1	6689,657
479,5	6731,314
480	6774,686
480,4	6823,429
480,9	6871,343
481,3	6904
481,8	6952,143
482,2	6985,914
482,7	7024,943
483,1	7065,629
483,6	7100,371
484	7122,086
484,5	7156,171
484,9	7173,943
485,4	7203,629
485,8	7221,114
486,3	7238,114
486,7	7253,743
487,2	7262,571
487,6	7275,086
488,1	7274,057
488,5	7274,371
489	7284,914
489,4	7293,286
489,9	7289,971
490,4	7288,171
490,8	7281,829
491,3	7281,514
491,7	7274,686
492,2	7265,771
492,6	7243,514
493,1	7231,686
493,5	7209,686
494	7190
494,4	7170,057
494,9	7146,457
495,3	7122,543
495,8	7100,743
496,2	7068,4
496,7	7040,486
497,1	7008,771
497,6	6980,743
498	6950,714
498,5	6911,314
498,9	6871,743
499,4	6839,829
499,8	6815
500,3	6777,114
500,7	6734,029
501,2	6688,343
501,6	6645,857
502,1	6607,6
502,5	6561,943
503	6511,086
503,4	6469,629
503,9	6425,8
504,3	6389,514
504,8	6341,857
505,2	6299,057
505,7	6248,886
506,1	6203,286
506,6	6146,971
507	6096,229
507,5	6038,971
507,9	5990,029
508,4	5938,943
508,8	5889,057
509,3	5836,857
509,7	5791,657
510,2	5732,114
510,6	5679,914
511,1	5624,057
511,5	5564,229
512	5509,457
512,4	5456,486
512,9	5397,086
513,3	5351,114
513,8	5297,743
514,2	5245,629
514,7	5191
515,1	5138,286
515,6	5077,029
516	5022,371
516,5	4970,486
516,9	4917,286
517,4	4865,314
517,8	4813,286
518,3	4760,514
518,7	4712,4
519,2	4659,257
519,6	4607,457
520,1	4554,029
520,5	4499,343
521	4442,229
521,4	4388,943
521,9	4336
522,3	4289,971
522,8	4237,571
523,2	4190,286
523,7	4142,371
524,1	4097,714
524,6	4048,629
525	4003,229
525,5	3953,171
525,9	3908,543
526,4	3858,171
526,8	3811,743
527,3	3770,2
527,7	3727,6
528,2	3684,771
528,6	3640,771
529,1	3597,286
529,5	3554,543
530	3514,029
530,4	3471
530,9	3431,514
531,3	3389,114
531,8	3348,343
532,2	3311,143
532,6	3274,857
533,1	3234,143
533,5	3194,2
534	3159,2
534,4	3122,829
534,9	3088,457
535,3	3046,886
535,8	3008,057
536,2	2977,029
536,7	2946,571
537,1	2907,2
537,6	2872,171
538	2842,229
538,5	2815,457
538,9	2784,686
539,4	2753,514
539,8	2718,714
540,3	2694,086
540,7	2663
541,2	2623,657
541,6	2592,571
542,1	2570,086
542,5	2538
543	2508,114
543,4	2478,686
543,9	2453,829
544,3	2436,257
544,8	2407,314
545,2	2379,2
545,7	2358,229
546,1	2338,971
546,5	2316,543
547	2292,886
547,4	2268,657
547,9	2250,057
548,3	2227,543
548,8	2207,086
549,2	2185,029
549,7	2164
550,1	2148,514
550,6	2129,029
551	2111,886
551,5	2088,314
551,9	2066,171
552,4	2048,457
552,8	2023,8
553,3	1997,429
553,7	1973,886
554,2	1950,8
554,6	1938,629
555,1	1927,429
555,5	1901,486
555,9	1890,743
556,4	1880,886
556,8	1867,4
557,3	1852,8
557,7	1834,543
558,2	1813,914
558,6	1805,914
559,1	1785,829
559,5	1762,886
560	1744,657
560,4	1733,2
560,9	1720,2
561,3	1705,714
561,8	1685,257
562,2	1674,8
562,7	1662,771
563,1	1658,829
563,6	1636,371
564	1620,571
564,4	1602,143
564,9	1596,771
565,3	1579,571
565,8	1567,714
566,2	1549,514
566,7	1536,314
567,1	1528,114
567,6	1522,886
568	1508,657
568,5	1497,029
568,9	1483,4
569,4	1473,714
569,8	1469,2
570,3	1453,771
570,7	1438,229
571,1	1428,743
571,6	1421,4
572	1419,714
572,5	1408,657
572,9	1398,914
573,4	1390,714
573,8	1380,686
574,3	1367,229
574,7	1360,371
575,2	1346,143
575,6	1330,257
576,1	1323,343
576,5	1313,886
576,9	1305,457
577,4	1295,629
577,8	1279,571
578,3	1271,143
578,7	1265,971
579,2	1251,086
579,6	1238,571
580,1	1225,286
580,5	1218,657
581	1214,886
581,4	1205,657
581,9	1198,6
582,3	1188,143
582,7	1186,629
583,2	1182,057
583,6	1176,657
584,1	1172,057
584,5	1166,229
585	1157,343
585,4	1149,486
585,9	1137,257
586,3	1131,286
586,8	1122,286
587,2	1111,4
587,6	1105,371
588,1	1101,771
588,5	1094,571
589	1090,4
589,4	1080,686
589,9	1068,086
590,3	1062,314
590,8	1057,543
591,2	1048,486
591,7	1049,257
592,1	1043,171
592,5	1043,514
593	1038,971
593,4	1028,114
593,9	1014,943
594,3	1009,029
594,8	996,429
595,2	988,571
595,7	978,457
596,1	973,571
596,6	972,143
597	970
597,4	966,686
597,9	966,657
598,3	965,114
598,8	963,686
599,2	960,829
599,7	954,6
600,1	943,857
600,6	934,029
601	928,857
601,4	927,6
601,9	921,857
602,3	914,086
602,8	912,257
603,2	909,657
603,7	908,629
604,1	903,971
604,6	892,943
605	878,171
605,4	876,486
605,9	868,629
606,3	861,629
606,8	858,257
607,2	848,857
607,7	841,229
608,1	847,6
608,6	845,229
609	841,743
609,4	842,743
609,9	836,714
610,3	834,914
610,8	834,286
611,2	829,086
611,7	817,857
612,1	811,086
612,6	806,257
613	803,6
613,4	799,029
613,9	792,429
614,3	782,114
614,8	784,257
615,2	777,171
615,7	773,343
616,1	770,8
616,6	764,543
617	757,514
617,4	753,4
617,9	746,886
618,3	744,971
618,8	739,771
619,2	731,514
619,7	729,714
620,1	729,2
620,5	731,229
621	725,057
621,4	724,314
621,9	716,914
622,3	714,429
622,8	708,514
623,2	699,314
623,6	692,143
624,1	688,914
624,5	681,257
625	681,914
625,4	675,086
625,9	671,114
626,3	670
626,8	662,429
627,2	662,371
627,6	656,486
628,1	651,343
628,5	651,114
629	643,857
629,4	640,429
629,9	640,057
630,3	629,171
630,7	625,086
631,2	621,686
631,6	616,543
632,1	612,629
632,5	607,057
633	603,914
633,4	602,971
633,8	603,086
634,3	597,086
634,7	591,829
635,2	587,143
635,6	588,2
636,1	582,457
636,5	576,229
636,9	566,2
637,4	560,914
637,8	557,457
638,3	555,771
638,7	550,429
639,2	546,2
639,6	546,429
640	545
640,5	545,943
640,9	541,857
641,4	542,429
641,8	539,629
642,2	533,686
642,7	533,314
643,1	534,2
643,6	530,286
644	528,714
644,5	524,743
644,9	521,8
645,3	521,857
645,8	512,971
646,2	512,571
646,7	508,029
647,1	502,229
647,6	500,371
648	498,314
648,4	496,029
648,9	493,257
649,3	485,171
649,8	482,543
650,2	482,943
650,6	477,543
651,1	472,057
651,5	475,143
652	472,114
652,4	465,057
652,9	464,943
653,3	459,714
653,7	459,914
654,2	457,343
654,6	445,857
655,1	447
655,5	453,2
655,9	445,829
656,4	445,829
656,8	442,143
657,3	440,943
657,7	444,8
658,2	441,971
658,6	434,886
659	435,829
659,5	427,257
659,9	422,629
660,4	417,914
660,8	408,714
661,2	402,743
661,7	399,743
662,1	393,486
662,6	393,086
663	393,857
663,4	391,971
663,9	391,257
664,3	388,514
664,8	384,171
665,2	381,714
665,6	382,314
666,1	376,371
666,5	373,086
667	370,771
667,4	368,486
667,9	368,514
668,3	362,686
668,7	357,971
669,2	356,514
669,6	356,714
670,1	355,6
670,5	353,286
670,9	350,743
671,4	354,171
671,8	353,286
672,3	356,314
672,7	353,2
673,1	345,6
673,6	343,743
674	345,714
674,5	342,371
674,9	334,714
675,3	323,914
675,8	324,171
676,2	326,057
676,7	320,886
677,1	312,686
677,5	310,086
678	310,543
678,4	313,114
678,9	308,543
679,3	303,057
679,7	302,229
680,2	297,371
680,6	290,514
681,1	288,143
681,5	288,114
681,9	285,629
682,4	286,143
682,8	287,286
683,3	293,171
683,7	299,171
684,1	299,029
684,6	292,457
685	286,057
685,5	282,829
685,9	277,743
686,3	269,714
686,8	261,4
687,2	260,943
687,7	256,486
688,1	256,714
688,5	258,086
689	259,171
689,4	258,6
689,9	261,2
690,3	256,686
690,7	259,086
691,2	260
691,6	257,143
692	256
692,5	254,343
692,9	250,629
693,4	246,914
693,8	244,886
694,2	242,829
694,7	240,686
695,1	237,057
695,6	235,971
696	236,229
696,4	235,8
696,9	229,314
697,3	225,743
697,8	223,114
698,2	220,343
698,6	221,6
699,1	216,914
699,5	222,171
699,9	222,2
700,4	216,8
700,8	219,771
701,3	220,714
701,7	215,371
702,1	214,571
702,6	210,886
703	212,429
703,5	213,686
703,9	209,543
704,3	205,2
704,8	205,543
705,2	206,971
705,6	204,629
706,1	199,457
706,5	197,657
707	196,343
707,4	196,743
707,8	193,371
708,3	193,857
708,7	189,429
709,2	189,686
709,6	189,629
710	191,229
710,5	191,2
710,9	191,543
711,3	188,371
711,8	188,743
712,2	189,543
712,7	191,4
713,1	186,943
713,5	185,486
714	186,514
714,4	183,314
714,8	182,429
715,3	180,429
715,7	176,343
716,2	172,886
716,6	171,686
717	165,743
717,5	162,743
717,9	163,4
718,3	160,657
718,8	160,943
719,2	160,886
719,7	158,314
720,1	161,486
720,5	164,114
721	157,429
721,4	158,6
721,8	160,286
722,3	157,229
722,7	162,257
723,2	157,114
723,6	152,771
724	154,543
724,5	149,886
724,9	146,543
725,3	143,714
725,8	132,571
726,2	131,371
726,7	128,971
727,1	127,371
727,5	127,571
728	122,943
728,4	126,6
728,8	131,029
729,3	131,743
729,7	134,571
730,1	130,943
730,6	132,914
731	127,914
731,5	127,314
731,9	127,143
732,3	125,343
732,8	122,886
733,2	127,857
733,6	124,971
734,1	129,457
734,5	126,629
734,9	126,314
735,4	128,4
735,8	122,2
736,3	122,4
736,7	124,914
737,1	123,914
737,6	124,114
738	117,943
738,4	115,4
738,9	122,229
739,3	119,171
739,7	116,6
740,2	118,4
740,6	120,4
741,1	126,571
741,5	121,2
741,9	118,629
742,4	120,371
742,8	120,029
743,2	117,429
743,7	111,571
744,1	104,971
744,5	107,2
745	104,571
745,4	97,514
745,8	94,286
746,3	96,143
746,7	98,543
747,2	99,2
747,6	104,829
748	111,657
748,5	118,314
748,9	115,486
749,3	111,829
749,8	109,857
750,2	109,114
750,6	102,257
751,1	101,571
751,5	95,4
751,9	96,343
752,4	98,714
752,8	101,029
753,3	101,229
753,7	103,6
754,1	97,857
754,6	96,914
755	94,143
755,4	90,514
755,9	89,314
756,3	85
756,7	83,371
757,2	85,714
757,6	86,629
758	91,371
758,5	90,4
758,9	87,571
759,3	94,771
759,8	92,571
760,2	91,629
760,6	89,8
761,1	86,514
761,5	87,143
761,9	86,971
762,4	81,486
762,8	82,714
763,3	77,029
763,7	80,114
764,1	81,743
764,6	81,6
765	84,457
765,4	86,971
765,9	85,314
766,3	86,629
766,7	83,829
767,2	77,486
767,6	79,8
768	79,457
768,5	75,629
768,9	74,943
769,3	75
769,8	73,057
770,2	76,371
770,6	73,657
771,1	74,971
771,5	77,571
771,9	82,143
772,4	83,543
772,8	84,943
773,2	86,543
773,7	86,114
774,1	80,171
774,5	74,714
775	68,029
775,4	67,086
775,8	64
776,3	63,286
776,7	62,657
777,1	65,114
777,6	68,486
778	71,314
778,4	68,371
778,9	75,371
779,3	76,086
779,7	75,114
780,2	72,686
780,6	72,371
781	71,514
781,5	71,286
781,9	63,886
782,3	61,686
782,8	67,143
783,2	69,4
783,6	74,857
784,1	71,971
784,5	68,829
784,9	70,171
785,4	73,8
785,8	68,429
786,2	67,057
786,7	63,514
787,1	65,343
787,5	70,029
788	69,943
788,4	66,714
788,8	63,429
789,3	58,314
789,7	59,114
790,1	58,2
790,6	59,486
791	56,057
791,4	58,029
791,9	59,6
792,3	60,857
792,7	60,657
793,2	58,4
793,6	54,8
794	58,457
794,5	53,829
794,9	56,8
795,3	59,829
795,8	56,057
796,2	58,314
796,6	59,543
797,1	56,514
797,5	58,257
797,9	53,686
798,4	50,371
798,8	50,4
799,2	49,457
799,7	50,657
800,1	52,486
800,5	49,343
801	50,6
801,4	50,829
801,8	47,857
802,2	48,543
802,7	42,886
803,1	44,314
803,5	46,629
804	46,829
804,4	47,314
804,8	47,543
805,3	49,743
805,7	52,257
806,1	49,257
806,6	51,686
807	50,314
807,4	47,229
807,9	45,171
808,3	41,457
808,7	42,543
809,2	43,171
809,6	43,8
810	45,257
810,4	48,143
810,9	49,086
811,3	52,629
811,7	49,657
812,2	50,743
812,6	46,486
813	48,6
813,5	48,6
813,9	48,486
814,3	42,4
814,8	43,857
815,2	40,2
815,6	40,514
816,1	41,514
816,5	41,914
816,9	43,686
817,3	46,514
817,8	48,943
818,2	50,6
818,6	47,057
819,1	39,743
819,5	35,886
819,9	37,114
820,4	35,057
820,8	32,086
821,2	26,971
821,7	33
822,1	37,629
822,5	44,343
822,9	44,343
823,4	46,629
823,8	49,971
824,2	56,686
824,7	47,686
825,1	41,914
825,5	35,6
826	31,771
826,4	30,514
826,8	24,629
827,3	25,2
827,7	28,257
828,1	29
828,5	28,571
829	23,4
829,4	21,543
829,8	21,2
830,3	19,371
830,7	19,8
831,1	21,8
831,6	21,4
832	28,114
832,4	30,657
832,8	34,886
833,3	34,886
833,7	32,257
834,1	29,686
834,6	30,514
835	30,6
835,4	30,429
835,8	25,886
836,3	22,657
836,7	26,457
837,1	26,514
837,6	26,543
838	22,686
838,4	20,086
838,9	19,286
839,3	19,429
839,7	18,543
840,1	15,914
840,6	18,057
841	21,743
841,4	27,629
841,9	31,829
842,3	29,457
842,7	29,114
843,1	33,8
843,6	36,714
844	37,686
844,4	35,514
844,9	33,943
845,3	37,8
845,7	35,714
846,2	30,714
846,6	24,486
847	24,657
847,4	22,6
847,9	24,743
848,3	25,286
848,7	22,743
849,2	27,914
849,6	26,457
850	24,4
850,4	24,829
850,9	21,057
851,3	21,057
851,7	23,171
852,2	19,314
852,6	22,086
853	19,257
853,4	18,571
853,9	17,486
854,3	18,629
854,7	22,686
855,2	26,086
855,6	26,543
856	29,257
856,4	26,829
856,9	26,057
857,3	21,743
857,7	24,8
858,2	26,714
858,6	26,514
859	25,486
859,4	25,829
859,9	26,6
860,3	29,429
860,7	24,829
861,1	22,857
861,6	19,486
862	20,343
862,4	20,686
862,9	23,029
863,3	22,514
863,7	23,486
864,1	24,543
864,6	29,286
865	28,286
865,4	30,514
865,9	29,771
866,3	22,543
866,7	19,771
867,1	14,657
867,6	12,2
868	10,971
868,4	5,743
868,8	3,486
869,3	8,457
869,7	11,571
870,1	9,257
870,6	6,971
871	-6,457
871,4	-0,486
871,8	1,4
872,3	3,6
872,7	1,8
873,1	8,771
873,5	11,6
874	23,571
874,4	20,571
874,8	18
875,3	15,914
875,7	14,257
876,1	14,286
876,5	11,086
877	11,229
877,4	8,6
877,8	12,943
878,2	16,343
878,7	19,886
879,1	18,514
879,5	21,371
879,9	25,629
880,4	28,029
880,8	25,943
881,2	23
881,7	18,229
882,1	17,343
882,5	14,457
882,9	15,286
883,4	15,629
883,8	17,4
884,2	15,714
884,6	17,543
885,1	16,629
885,5	19,029
885,9	15,943
886,3	18,057
886,8	11,029
887,2	10,6
887,6	4,143
888	3,257
888,5	1,943
888,9	1,057
889,3	-4
889,8	2,6
890,2	2,543
890,6	7,086
891	7,457
891,5	8,6
891,9	11,829
892,3	12,914
892,7	10,286
893,2	11,371
893,6	12,571
894	16,114
894,4	13,943
894,9	12,743
895,3	13,114
895,7	16,029
896,1	13,971
896,6	13,2
897	12,8
897,4	20,486
897,8	22,457
898,3	24,771
898,7	22,971
899,1	22,657
899,5	21,086
900	15,571
900,4	11,114
900,8	4,086
901,2	0,743
901,7	-1,343
902,1	3,2
902,5	6,743
902,9	8,171
903,4	9,2
903,8	14,857
904,2	16,6
904,6	15,229
905,1	12,543
905,5	15,657
905,9	19,829
906,3	19,171
906,8	17,343
907,2	16,2
907,6	17,629
908	23,343
908,5	17,2
908,9	12,171
909,3	8,629
909,7	9,257
910,2	7,057
910,6	10,914
911	6,4
911,4	7,314
911,9	6,486
912,3	8,714
912,7	7,4
913,1	12,886
913,6	9,457
914	6,629
914,4	4,029
914,8	6,8
915,3	3,829
915,7	3,829
916,1	-0,857
916,5	0,657
916,9	1,743
917,4	4,829
917,8	7,543
918,2	6,314
918,6	5,714
919,1	8,286
919,5	5,629
919,9	4,743
920,3	3,143
920,8	0,343
921,2	2,8
921,6	-0,143
922	-2,743
922,5	-3,343
922,9	0,2
923,3	1,229
923,7	1,829
924,2	-1,429
924,6	1,429
925	4,886
925,4	6,971
925,8	5,429
926,3	7,857
926,7	5,8
927,1	10,571
927,5	10,943
928	9,514
928,4	5,943
928,8	9,171
929,2	7,171
929,7	8
930,1	7,543
930,5	9,114
930,9	10,971
931,3	13,543
931,8	11,657
932,2	13,543
932,6	13,743
933	8,229
933,5	8,029
933,9	3,286
934,3	4,371
934,7	1,2
935,2	-2,629
935,6	-2,343
936	1,086
936,4	4,429
936,8	9,571
937,3	10,371
937,7	11,114
938,1	16,8
938,5	14,229
939	16,429
939,4	11,686
939,8	9,229
940,2	5,6
940,6	10,514
941,1	4,943
941,5	7,743
941,9	5,114
942,3	4,057
942,8	6,143
943,2	9,771
943,6	1,971
944	5,743
944,4	8,629
944,9	8
945,3	8,886
945,7	5,943
946,1	1,743
946,6	1,886
947	-3,371
947,4	-3,514
947,8	-1,914
948,2	-2,486
948,7	-2,429
949,1	2,571
949,5	7,486
949,9	11,914
950,3	10,657
950,8	11,171
951,2	14,114
951,6	12,971
952	14,143
952,5	8,829
952,9	7,286
953,3	7,086
953,7	7,743
954,1	8,257
954,6	7,343
955	7,486
955,4	11,657
955,8	15,886
956,2	14,429
956,7	14,714
957,1	9,371
957,5	14,514
957,9	9,886
958,3	8,286
958,8	5,2
959,2	8,086
959,6	10,2
960	10,6
960,5	11,029
960,9	14,857
961,3	14,086
961,7	13,257
962,1	8,971
962,6	7,514
963	7,029
963,4	3,029
963,8	3,229
964,2	6,571
964,7	4,829
965,1	7,714
965,5	4,343
965,9	5,571
966,3	6,486
966,8	6,629
967,2	3,686
967,6	2,314
968	-1,686
968,4	-0,2
968,9	3,371
969,3	6,8
969,7	2,486
970,1	2,286
970,5	5,743
971	10,771
971,4	13,086
971,8	12,571
972,2	12,629
972,6	12,543
973,1	12,343
973,5	14,714
973,9	14,086
974,3	11,829
974,7	14,029
975,2	14,314
975,6	15,4
976	20,743
976,4	15,743
976,8	14,914
977,3	12,8
977,7	9,114
978,1	8,286
978,5	5,429
978,9	-2,314
979,4	-2,486
979,8	-4,457
980,2	-6,2
980,6	-11,086
981	-10,971
981,5	-8,314
981,9	-4,857
982,3	-1,943
982,7	0,171
983,1	3
983,6	9,057
984	7,057
984,4	8,171
984,8	8,429
985,2	6,429
985,6	2,286
986,1	9,057
986,5	9,286
986,9	8,829
987,3	14
987,7	13,4
988,2	12,8
988,6	17,657
989	12,743
989,4	9,029
989,8	7,429
990,3	-1
990,7	-3,343
991,1	0,029
991,5	-1,143
991,9	-2,343
992,3	2,943
992,8	6,286
993,2	6,571
993,6	10,6
994	10,829
994,4	10,457
994,9	10,086
995,3	3,743
995,7	0,629
996,1	2,6
996,5	2,743
996,9	-0,714
997,4	-0,371
997,8	-3,771
998,2	-4,343
998,6	-4,657
999	-3,4
999,5	-2,629
999,9	0,714
1000,3	-1,343
1000,7	0,657
1001,1	3,029
1001,5	6,914
1002	9,686
1002,4	7,857
1002,8	5,943
1003,2	10
1003,6	13,629
1004	17,629
1004,5	13,486
1004,9	9,571
1005,3	6,971
1005,7	8,629
1006,1	5,114
1006,6	3,714
1007	-3,171
1007,4	-7,257
1007,8	-8,4
1008,2	-10,2
1008,6	-7,2
1009,1	-4,943
1009,5	-3,914
1009,9	1,829
1010,3	5,314
1010,7	8,486
1011,1	13,057
1011,6	5,429
1012	8,229
1012,4	7,714
1012,8	4,714
1013,2	10,971
1013,6	10,229
1014,1	11,2
1014,5	16,771
1014,9	13,457
1015,3	12,914
1015,7	14,543
1016,1	9,657
1016,6	10,829
1017	10,457
1017,4	9,2
1017,8	9,086
1018,2	11,571
1018,6	8,057
1019,1	8,371
1019,5	8
1019,9	2,171
1020,3	2,4
1020,7	4,314
1021,1	-2
1021,6	0,371
1022	2,429
1022,4	1,543
1022,8	10,914
1023,2	8,457
1023,6	5,029
1024,1	12,743
1024,5	12,057
1024,9	7,457
1025,3	7,2
1025,7	2,971
1026,1	6,286
1026,6	8,314
1027	4,571
1027,4	8,771
1027,8	14,114
1028,2	11,429
1028,6	20,6
1029	14,371
1029,5	20,629
1029,9	17,571
1030,3	17,286
1030,7	14,143
1031,1	16,714
1031,5	6,8
1032	9,857
1032,4	7,914
1032,8	15,086
1033,2	15,657
1033,6	14,314
1034	14,229
1034,4	15,457
1034,9	19,886
1035,3	13,857
1035,7	11,743
1036,1	3,4
1036,5	1,514
1036,9	1,514
1037,4	1,057
1037,8	-2,943
1038,2	-3,629
1038,6	-4,686
1039	3,743
1039,4	10,286
1039,8	6,8
1040,3	8,4
1040,7	7,171
1041,1	11,343
1041,5	10,229
1041,9	3,657
1042,3	-0,286
1042,7	1,429
1043,2	2,371
1043,6	0,143
1044	-6,629
1044,4	-6,086
1044,8	-1,829
1045,2	1,4
1045,6	3,686
1046,1	-0,286
1046,5	0,714
1046,9	2,171
1047,3	0,571
1047,7	2,171
1048,1	0,943
1048,5	-3,371
1049	3,086
1049,4	7,857
1049,8	9,857
1050,2	11,057
1050,6	13,2
1051	14,686
1051,4	17,257
1051,9	13,086
1052,3	18,571
1052,7	16,971
1053,1	17,143
1053,5	18,543
1053,9	15,686
1054,3	17,886
1054,8	21,343
1055,2	14,429
1055,6	21,657
1056	20,914
1056,4	15,657
1056,8	15,8
1057,2	13,543
1057,6	8,571
1058,1	9,114
1058,5	0,286
1058,9	3,8
1059,3	6,171
1059,7	5,486
1060,1	2,171
1060,5	2,086
1061	2,286
1061,4	4,4
1061,8	1,743
1062,2	-0,286
1062,6	6,171
1063	11,743
1063,4	11,914
1063,8	8,714
1064,3	6,914
1064,7	8,029
1065,1	4,114
1065,5	-4,857
1065,9	-10,543
1066,3	-9,171
1066,7	-7,343
1067,1	-9,314
1067,6	-9,829
1068	-13,086
1068,4	-9,171
1068,8	-1,771
1069,2	-1,914
1069,6	-2,371
1070	4,686
1070,4	5,029
1070,9	10,829
1071,3	9,829
1071,7	3,914
1072,1	3,343
1072,5	0,886
1072,9	0,2
1073,3	2,6
1073,7	-1,514
1074,2	2,2
1074,6	8,229
1075	5,657
1075,4	6,686
1075,8	6,257
1076,2	2,229
1076,6	8,629
1077	7
1077,5	8,657
1077,9	8,971
1078,3	10,829
1078,7	9,486
1079,1	7,771
1079,5	5,057
1079,9	4,029
1080,3	1,029
1080,7	3
1081,2	4,429
1081,6	5
1082	4,143
1082,4	6,914
1082,8	9,371
1083,2	6,914
1083,6	7,6
1084	5,943
1084,5	4,314
1084,9	3,571
1085,3	-6,657
1085,7	-9
1086,1	-6,629
1086,5	-6,943
1086,9	-4,629
1087,3	-6,086
1087,7	-3,457
1088,2	6,257
1088,6	1,229
1089	-0,886
1089,4	-2,8
1089,8	-4,086
1090,2	0,343
1090,6	1,057
1091	0,286
1091,4	8,114
1091,9	9,229
1092,3	12,971
1092,7	13,371
1093,1	11,6
1093,5	11,543
1093,9	12,171
1094,3	13,314
1094,7	11,8
1095,1	11,257
1095,5	13
1096	10,771
1096,4	10,086
1096,8	7,057
1097,2	3,343
1097,6	8,486
1098	7,314
1098,4	7,314
1098,8	12,114
1099,2	18,886
1099,6	19,114
1100,1	16,829
1100,5	10,629
1100,9	9,314
1101,3	7,571
1101,7	5,086
1102,1	0,286
1102,5	1,886
1102,9	2,743
1103,3	8,086
1103,7	8,829
1104,2	7,571
1104,6	5,771
1105	3,314
1105,4	-0,714
1105,8	-0,714
1106,2	-4,6
1106,6	-5,257
1107	-4,914
1107,4	-4,6
1107,8	-4,12
1108,3	-0,15
