Data from Subt2_126.txt Node
Date: Sat Aug 26 18:25:23 MSK 2023
User: vat
Spectrometer: MAYP114033
Trigger mode: 0
Integration Time (sec): 1,000000E0
Scans to average: 5
Electric dark correction enabled: true
Nonlinearity correction enabled: false
Boxcar width: 3
XAxis mode: Wavelengths
Number of Pixels in Spectrum: 2068
>>>>>Begin Spectral Data<<<<<
199,4	-0,95
199,9	0,9
200,4	-1,6
200,8	-0,557
201,3	-1,271
201,8	-0,871
202,2	-2,957
202,7	1,329
203,2	1,186
203,6	2,014
204,1	-0,043
204,6	0,843
205	1,214
205,5	4,357
206	1,757
206,4	1,786
206,9	3,729
207,4	4,843
207,8	4,271
208,3	4,129
208,8	4,157
209,2	4,586
209,7	5,1
210,2	5,357
210,6	4,7
211,1	5,643
211,5	0,5
212	1,557
212,5	-0,443
212,9	-5,186
213,4	-5,814
213,9	-6,014
214,3	-4,643
214,8	1,157
215,3	-3,186
215,7	-3,357
216,2	2,129
216,7	4,9
217,1	2,7
217,6	1,929
218,1	0,557
218,5	-2,443
219	-6,129
219,5	-11,243
219,9	-15,586
220,4	-7,557
220,9	-5,671
221,3	-2,586
221,8	1,3
222,3	8,186
222,7	13,1
223,2	13,786
223,6	8,671
224,1	5,386
224,6	4,043
225	3,357
225,5	-0,157
226	-2,671
226,4	-1,243
226,9	1,357
227,4	0,214
227,8	-7,1
228,3	-8,014
228,8	-5,614
229,2	0,014
229,7	0,471
230,2	-1,586
230,6	1,9
231,1	11,757
231,5	16,043
232	12,186
232,5	7,757
232,9	5,329
233,4	8,329
233,9	4,214
234,3	0,129
234,8	-1,443
235,3	0,671
235,7	2,757
236,2	5,386
236,7	0,557
237,1	4,957
237,6	1,671
238,1	1,386
238,5	-2,614
239	-3,471
239,4	-2,357
239,9	-2,614
240,4	-3,643
240,8	1,329
241,3	-3,929
241,8	-2,557
242,2	-2,643
242,7	-10,414
243,2	-9,614
243,6	-16,1
244,1	-15,529
244,6	-7,9
245	-8,357
245,5	-10,671
245,9	-7,014
246,4	-7,5
246,9	-0,386
247,3	0,671
247,8	-2,329
248,3	-0,214
248,7	2,243
249,2	2,1
249,7	0,471
250,1	-0,757
250,6	0,014
251	4,986
251,5	6,329
252	2,9
252,4	7,586
252,9	8,814
253,4	9,1
253,8	-0,957
254,3	-2,814
254,8	-5,443
255,2	-8,214
255,7	-13,557
256,1	-10,9
256,6	-11,757
257,1	-4,043
257,5	-10,529
258	-13,271
258,5	-9,529
258,9	-9,843
259,4	-14,586
259,9	-12,014
260,3	-15,129
260,8	-12,071
261,2	-6,843
261,7	-11,757
262,2	-13,929
262,6	-9,786
263,1	-8,214
263,6	-7,186
264	-5,243
264,5	-1,443
264,9	2,471
265,4	5,929
265,9	4,586
266,3	3,729
266,8	5,443
267,3	2,9
267,7	-2,129
268,2	-1,957
268,7	-0,329
269,1	0,1
269,6	-3,243
270	-3,186
270,5	-2,157
271	-3,871
271,4	-3,586
271,9	-10,1
272,4	-7,871
272,8	-8,643
273,3	-10,414
273,7	-11,986
274,2	-9,786
274,7	-8,843
275,1	-1,786
275,6	-3,129
276,1	-2,1
276,5	3,1
277	4,214
277,4	6,014
277,9	8,014
278,4	10,643
278,8	11,7
279,3	12,043
279,8	7,357
280,2	11,329
280,7	12,3
281,1	7,014
281,6	3,1
282,1	3,014
282,5	2,871
283	3,386
283,4	0,757
283,9	-0,214
284,4	6,5
284,8	8,129
285,3	5,329
285,8	6,643
286,2	1,557
286,7	-0,586
287,1	-2,471
287,6	-5,443
288,1	-9,671
288,5	-4,9
289	-5,9
289,5	-2,557
289,9	-4,386
290,4	-5,186
290,8	-3,843
291,3	-3,414
291,8	-4,3
292,2	-6,643
292,7	-0,957
293,1	-0,7
293,6	4,071
294,1	1,614
294,5	4,1
295	2,557
295,5	2,014
295,9	-3,186
296,4	-7,529
296,8	-9,843
297,3	-8,129
297,8	-13,586
298,2	-17,129
298,7	-9,471
299,1	-7,986
299,6	-2,386
300,1	-0,986
300,5	-3,329
301	4,5
301,5	9,414
301,9	5,471
302,4	3,243
302,8	4,014
303,3	-4,957
303,8	-7,957
304,2	-11,129
304,7	-12,214
305,1	-15,471
305,6	-14,471
306,1	-6,3
306,5	1,243
307	9,986
307,4	15,614
307,9	15,757
308,4	17,471
308,8	15,671
309,3	8,071
309,8	8,529
310,2	6,357
310,7	-2,557
311,1	-5,129
311,6	-4,586
312,1	-1,757
312,5	0,9
313	0,243
313,4	-1,7
313,9	3,729
314,4	4,186
314,8	-0,071
315,3	-1,814
315,7	-7,814
316,2	-9,986
316,7	-12,786
317,1	-14,3
317,6	-12,586
318	-5,671
318,5	-5,329
319	-0,786
319,4	-2,186
319,9	5,929
320,3	10,129
320,8	8,243
321,3	10,871
321,7	13,986
322,2	11,986
322,6	17,614
323,1	9,557
323,6	6,214
324	2,786
324,5	-2,757
324,9	-4,357
325,4	-1,071
325,9	-0,843
326,3	2,786
326,8	5,614
327,2	9,157
327,7	6,5
328,2	6,957
328,6	3,643
329,1	-1,471
329,5	-1,929
330	-7,986
330,5	-4,529
330,9	-0,129
331,4	0,614
331,8	-0,929
332,3	3,671
332,8	6,557
333,2	8,929
333,7	5,529
334,1	5,843
334,6	1,986
335,1	-0,386
335,5	-1,014
336	-6,329
336,4	-6,443
336,9	-1,814
337,4	-2,014
337,8	1,186
338,3	5,671
338,7	7,671
339,2	9,471
339,7	12,414
340,1	7,729
340,6	5,586
341	4,471
341,5	5,529
342	-5,071
342,4	-5,386
342,9	-4,814
343,3	-4,243
343,8	-5,671
344,2	-7,243
344,7	-4,986
345,2	0,786
345,6	-2,071
346,1	-0,814
346,5	-1,843
347	-3,614
347,5	-4,614
347,9	-2,843
348,4	-0,614
348,8	4,329
349,3	2,157
349,8	7,157
350,2	15,529
350,7	15,5
351,1	13,586
351,6	18,271
352	18,614
352,5	20,929
353	28,443
353,4	30,186
353,9	40,7
354,3	46,929
354,8	54,014
355,3	71,214
355,7	89,014
356,2	99,843
356,6	119,471
357,1	143,243
357,5	172,271
358	203,757
358,5	235,329
358,9	270,1
359,4	316,471
359,8	360,529
360,3	418,814
360,8	479,157
361,2	547,043
361,7	622,957
362,1	711,329
362,6	803,329
363	900,614
363,5	1001,329
364	1118,271
364,4	1229,814
364,9	1343,7
365,3	1451,757
365,8	1547,357
366,3	1650,786
366,7	1738,071
367,2	1810,843
367,6	1874,129
368,1	1924,529
368,5	1957,214
369	1979,471
369,5	1987,071
369,9	1974,329
370,4	1940,671
370,8	1899,729
371,3	1834,929
371,7	1767,271
372,2	1689,414
372,7	1603,471
373,1	1513,929
373,6	1429,186
374	1339,7
374,5	1254,157
374,9	1165,186
375,4	1089,386
375,9	1009,9
376,3	934,957
376,8	855,643
377,2	787,414
377,7	725,7
378,2	666,786
378,6	608,214
379,1	552,5
379,5	508,1
380	472,071
380,4	429,871
380,9	388,957
381,4	355,157
381,8	331,357
382,3	308,557
382,7	286,614
383,2	265,129
383,6	247,157
384,1	236,3
384,6	224,329
385	206,071
385,5	191,043
385,9	175,329
386,4	160,386
386,8	154,529
387,3	144,243
387,7	135,3
388,2	123,757
388,7	118,614
389,1	110,157
389,6	106,071
390	93,929
390,5	89,1
390,9	81,643
391,4	76,671
391,9	70,443
392,3	69,986
392,8	63,814
393,2	56,357
393,7	51,9
394,1	48,071
394,6	47,129
395,1	49,471
395,5	43,3
396	42,871
396,4	46,329
396,9	41,386
397,3	47,357
397,8	47,3
398,2	40,214
398,7	39,871
399,2	39,271
399,6	39,529
400,1	39,757
400,5	31,414
401	30,929
401,4	28,043
401,9	32,7
402,4	34,1
402,8	30,3
403,3	36,529
403,7	36,529
404,2	37,843
404,6	40,929
405,1	38,929
405,5	35,9
406	38,043
406,5	34,986
406,9	41,386
407,4	41,3
407,8	48,329
408,3	53,157
408,7	56,729
409,2	65,671
409,6	68,557
410,1	73,329
410,6	78,271
411	80,157
411,5	81,729
411,9	90,1
412,4	94,614
412,8	103,5
413,3	108,5
413,7	116,757
414,2	124,557
414,7	134,757
415,1	148,271
415,6	156,7
416	167,443
416,5	176,471
416,9	188,614
417,4	201,271
417,8	220,814
418,3	229,586
418,8	244,557
419,2	256,471
419,7	271,129
420,1	285,271
420,6	301,757
421	309,443
421,5	326,986
421,9	338,357
422,4	357,243
422,8	380,557
423,3	398,243
423,8	413,214
424,2	434,014
424,7	452,9
425,1	478,671
425,6	503,243
426	520,786
426,5	550,329
426,9	584,529
427,4	613,757
427,9	638,757
428,3	674,329
428,8	705,1
429,2	739,329
429,7	776,186
430,1	812,014
430,6	853,414
431	895,843
431,5	934,929
431,9	982,871
432,4	1034,786
432,8	1085,243
433,3	1138,157
433,8	1196,386
434,2	1263,129
434,7	1330,186
435,1	1391,986
435,6	1463,386
436	1533,014
436,5	1608,529
436,9	1682,129
437,4	1759,843
437,8	1840,614
438,3	1932,271
438,8	2020,9
439,2	2115,729
439,7	2214,957
440,1	2316,014
440,6	2427,871
441	2531,271
441,5	2643,471
441,9	2764,557
442,4	2879,329
442,8	3000,157
443,3	3125,243
443,7	3250,871
444,2	3391,957
444,7	3530,9
445,1	3668,643
445,6	3820,5
446	3967,043
446,5	4119,443
446,9	4273,386
447,4	4439,443
447,8	4610,357
448,3	4776,271
448,7	4944,157
449,2	5128,7
449,6	5313,929
450,1	5499,271
450,6	5683,071
451	5868,786
451,5	6075,586
451,9	6286,471
452,4	6494,071
452,8	6700,071
453,3	6912,7
453,7	7130,5
454,2	7351,1
454,6	7560,471
455,1	7770,014
455,5	7986,186
456	8207,757
456,4	8435,643
456,9	8661,586
457,3	8897,071
457,8	9135,529
458,3	9386,557
458,7	9632,157
459,2	9892,071
459,6	10137,186
460,1	10392,471
460,5	10631,186
461	10893,757
461,4	11139,357
461,9	11395,071
462,3	11648,329
462,8	11915,5
463,2	12171,929
463,7	12441,986
464,1	12687,071
464,6	12956,043
465	13210,071
465,5	13455,043
466	13701,843
466,4	13943,329
466,9	14197,986
467,3	14449,929
467,8	14694,357
468,2	14940,529
468,7	15187,729
469,1	15436,329
469,6	15682,614
470	15914,414
470,5	16148,529
470,9	16366,871
471,4	16591,9
471,8	16806,757
472,3	17022,614
472,7	17242,786
473,2	17458,1
473,6	17660,443
474,1	17871,557
474,5	18080,071
475	18292,814
475,4	18485,843
475,9	18669,129
476,4	18847,671
476,8	19036,414
477,3	19206,414
477,7	19377,443
478,2	19530,786
478,6	19683,014
479,1	19836,957
479,5	19984,671
480	20115,186
480,4	20256,3
480,9	20369,843
481,3	20489,129
481,8	20616,043
482,2	20725,129
482,7	20827,529
483,1	20932,243
483,6	21025,729
484	21112,071
484,5	21201,529
484,9	21263,014
485,4	21331,071
485,8	21378,929
486,3	21425,529
486,7	21457,129
487,2	21500,043
487,6	21534,3
488,1	21548,9
488,5	21564,386
489	21587,729
489,4	21612,186
489,9	21625,786
490,4	21617,129
490,8	21598,5
491,3	21593,729
491,7	21573,329
492,2	21544,557
492,6	21503,243
493,1	21450,043
493,5	21394,414
494	21341,986
494,4	21291,329
494,9	21223,843
495,3	21164,271
495,8	21092,1
496,2	21038,957
496,7	20974,843
497,1	20906,186
497,6	20829,557
498	20756,7
498,5	20668,814
498,9	20573,1
499,4	20481,214
499,8	20391,414
500,3	20286,329
500,7	20186,186
501,2	20078,957
501,6	19966,529
502,1	19862,671
502,5	19744,7
503	19622,729
503,4	19499,3
503,9	19372,214
504,3	19246,643
504,8	19119,443
505,2	18997,3
505,7	18861,814
506,1	18736,471
506,6	18612,329
507	18476,814
507,5	18342,614
507,9	18209,814
508,4	18058,214
508,8	17906,643
509,3	17758,757
509,7	17616,414
510,2	17468,414
510,6	17313,414
511,1	17168,414
511,5	17022,986
512	16885,643
512,4	16738,357
512,9	16575,471
513,3	16424,671
513,8	16273,643
514,2	16109,814
514,7	15950,129
515,1	15790,729
515,6	15636,3
516	15485,443
516,5	15339,586
516,9	15191,643
517,4	15042,214
517,8	14892,871
518,3	14739,071
518,7	14586,014
519,2	14435,786
519,6	14268,843
520,1	14115,071
520,5	13968,814
521	13812,129
521,4	13664,214
521,9	13512,414
522,3	13362,929
522,8	13222,443
523,2	13069,357
523,7	12920,3
524,1	12791,757
524,6	12653,986
525	12509,786
525,5	12377,186
525,9	12236,957
526,4	12106,214
526,8	11971,357
527,3	11833,1
527,7	11696,1
528,2	11563,329
528,6	11428,271
529,1	11300,129
529,5	11171,557
530	11038,757
530,4	10911,814
530,9	10790,243
531,3	10675,157
531,8	10556,5
532,2	10435,214
532,6	10315,871
533,1	10198,386
533,5	10071,557
534	9956,186
534,4	9838,014
534,9	9725,071
535,3	9614,9
535,8	9504,643
536,2	9398,129
536,7	9304,071
537,1	9194,729
537,6	9093,329
538	8989,357
538,5	8884,357
538,9	8785,929
539,4	8687,443
539,8	8584,529
540,3	8486,5
540,7	8391,386
541,2	8292,586
541,6	8203,757
542,1	8100,1
542,5	8006,843
543	7916,7
543,4	7826,014
543,9	7737,871
544,3	7656,357
544,8	7570,7
545,2	7490,586
545,7	7416,614
546,1	7342,414
546,5	7273,7
547	7192,329
547,4	7115,586
547,9	7034,214
548,3	6971,529
548,8	6896,586
549,2	6818,186
549,7	6742,157
550,1	6674,529
550,6	6601,414
551	6537,386
551,5	6463,071
551,9	6390,357
552,4	6319,557
552,8	6254,186
553,3	6188,557
553,7	6128,671
554,2	6064,157
554,6	6007,157
555,1	5955,443
555,5	5897,9
555,9	5846,186
556,4	5787,471
556,8	5722,471
557,3	5669,329
557,7	5611,843
558,2	5548,843
558,6	5509,071
559,1	5448,471
559,5	5398,529
560	5354,586
560,4	5300,786
560,9	5250,786
561,3	5200,614
561,8	5145,529
562,2	5096,357
562,7	5045,729
563,1	5004,757
563,6	4960,986
564	4915,471
564,4	4868,443
564,9	4823,271
565,3	4785,043
565,8	4748,014
566,2	4704,357
566,7	4663,157
567,1	4621,414
567,6	4585,729
568	4538,471
568,5	4494,786
568,9	4446,586
569,4	4401,1
569,8	4362,986
570,3	4322,614
570,7	4277,271
571,1	4246,7
571,6	4209,643
572	4179,1
572,5	4143,586
572,9	4103,586
573,4	4070,871
573,8	4044,957
574,3	4006,357
574,7	3971,129
575,2	3940,843
575,6	3904,529
576,1	3875,043
576,5	3842,129
576,9	3801,986
577,4	3778,386
577,8	3741,9
578,3	3710,614
578,7	3681,5
579,2	3648,7
579,6	3617,243
580,1	3586,957
580,5	3548,443
581	3527,986
581,4	3497,243
581,9	3460,5
582,3	3435,529
582,7	3405,814
583,2	3377,929
583,6	3351,243
584,1	3312,843
584,5	3281,043
585	3254,929
585,4	3221,986
585,9	3201,414
586,3	3183,9
586,8	3160,671
587,2	3143,471
587,6	3123,9
588,1	3108,614
588,5	3087,957
589	3062,014
589,4	3036,071
589,9	3012,3
590,3	2988,557
590,8	2964,3
591,2	2942,814
591,7	2926,129
592,1	2900,414
592,5	2880,129
593	2857,986
593,4	2837,243
593,9	2813,271
594,3	2789,329
594,8	2762,414
595,2	2745,986
595,7	2724,614
596,1	2703,186
596,6	2682,986
597	2665,5
597,4	2648,3
597,9	2638,3
598,3	2623,529
598,8	2608,586
599,2	2590,843
599,7	2572,843
600,1	2550,671
600,6	2535,871
601	2513,729
601,4	2497,129
601,9	2482,214
602,3	2464,243
602,8	2447,071
603,2	2436,157
603,7	2419,843
604,1	2403,786
604,6	2386,757
605	2369,443
605,4	2358,871
605,9	2340,843
606,3	2319,614
606,8	2302,386
607,2	2284,786
607,7	2262,671
608,1	2242,443
608,6	2227,329
609	2224,071
609,4	2217,786
609,9	2198,586
610,3	2186,586
610,8	2170,814
611,2	2156,643
611,7	2140,843
612,1	2119,529
612,6	2101,786
613	2091,843
613,4	2072,471
613,9	2063,9
614,3	2054,929
614,8	2039,957
615,2	2024,957
615,7	2011,071
616,1	1995,729
616,6	1980,9
617	1966,043
617,4	1947,986
617,9	1939,243
618,3	1927,843
618,8	1914,414
619,2	1897,986
619,7	1884,614
620,1	1865,586
620,5	1854,5
621	1837,871
621,4	1823,986
621,9	1811,243
622,3	1803,5
622,8	1794,214
623,2	1784,986
623,6	1768,357
624,1	1755,871
624,5	1744,871
625	1734,614
625,4	1721,529
625,9	1709,929
626,3	1701,614
626,8	1691,157
627,2	1681,871
627,6	1661,729
628,1	1648,043
628,5	1637,786
629	1623,929
629,4	1610,957
629,9	1600,786
630,3	1583,3
630,7	1572,757
631,2	1562,757
631,6	1551,529
632,1	1542,471
632,5	1533,357
633	1521,671
633,4	1507,7
633,8	1502,414
634,3	1485,043
634,7	1471,671
635,2	1456,214
635,6	1444,757
636,1	1437,357
636,5	1429,357
636,9	1413,7
637,4	1409,986
637,8	1395,986
638,3	1386,957
638,7	1372,157
639,2	1360,586
639,6	1357,671
640	1352,129
640,5	1339,386
640,9	1330,7
641,4	1327,471
641,8	1323,957
642,2	1317,357
642,7	1306,614
643,1	1304,129
643,6	1296,9
644	1292,986
644,5	1286,671
644,9	1276,586
645,3	1265,671
645,8	1247,957
646,2	1237,871
646,7	1233,5
647,1	1216,386
647,6	1200,957
648	1195,443
648,4	1182,414
648,9	1180,529
649,3	1168,186
649,8	1161,7
650,2	1161,614
650,6	1154,471
651,1	1143,671
651,5	1145,043
652	1137,786
652,4	1126,814
652,9	1118,957
653,3	1107,271
653,7	1103,986
654,2	1098,443
654,6	1086,157
655,1	1079,929
655,5	1079,414
655,9	1068,1
656,4	1062,157
656,8	1053,243
657,3	1045,043
657,7	1038,757
658,2	1030,014
658,6	1018,757
659	1012,757
659,5	1006,186
659,9	998,671
660,4	992,471
660,8	982,071
661,2	974,157
661,7	966,557
662,1	960,586
662,6	954,557
663	948,814
663,4	937,1
663,9	932,329
664,3	926,329
664,8	918,757
665,2	906,843
665,6	902,157
666,1	895,957
666,5	890,557
667	883,071
667,4	877,386
667,9	872,471
668,3	866,157
668,7	858,643
669,2	852,986
669,6	853,271
670,1	847,757
670,5	837,929
670,9	831,414
671,4	827,7
671,8	821,529
672,3	820,7
672,7	812,214
673,1	807,471
673,6	802,643
674	800,7
674,5	790,014
674,9	781,071
675,3	768,614
675,8	763,7
676,2	757,443
676,7	749,843
677,1	744,043
677,5	742,557
678	740,843
678,4	739,043
678,9	731,1
679,3	722,1
679,7	721,357
680,2	712,329
680,6	708,729
681,1	701,9
681,5	698,643
681,9	695,014
682,4	696,043
682,8	694,986
683,3	697,557
683,7	696,671
684,1	692,5
684,6	683,814
685	675,186
685,5	668,271
685,9	657,986
686,3	643,071
686,8	634,9
687,2	633,329
687,7	623,586
688,1	619,386
688,5	614,843
689	612,5
689,4	608,443
689,9	602,329
690,3	593,529
690,7	594,357
691,2	591,471
691,6	582,9
692	576,043
692,5	577,357
692,9	574,271
693,4	572,414
693,8	567,386
694,2	564,129
694,7	561,986
695,1	560,329
695,6	557,929
696	553,986
696,4	548,5
696,9	539,443
697,3	533,243
697,8	532,443
698,2	521,957
698,6	518,586
699,1	513,071
699,5	511,871
699,9	512,586
700,4	509,7
700,8	506,843
701,3	510,529
701,7	503,471
702,1	500,386
702,6	494,9
703	493,7
703,5	490,643
703,9	485,614
704,3	481,5
704,8	475,3
705,2	471,529
705,6	466,271
706,1	460,243
706,5	458,186
707	454,986
707,4	451,443
707,8	448,271
708,3	447,614
708,7	447,129
709,2	442,157
709,6	431,557
710	431,414
710,5	426,614
710,9	423,843
711,3	419,586
711,8	419,3
712,2	421,129
712,7	421,929
713,1	418,071
713,5	416,357
714	415,386
714,4	408,586
714,8	405,3
715,3	398,643
715,7	398,243
716,2	392,586
716,6	390,929
717	387,329
717,5	385,071
717,9	379,643
718,3	375,1
718,8	371,7
719,2	369,329
719,7	361,329
720,1	361,586
720,5	365,071
721	359,129
721,4	356,586
721,8	355,129
722,3	352,3
722,7	355,757
723,2	346,3
723,6	332,9
724	329,329
724,5	328,871
724,9	325,157
725,3	322,014
725,8	316,414
726,2	315,586
726,7	317,871
727,1	319,043
727,5	315,386
728	309,186
728,4	306,986
728,8	303,386
729,3	300,957
729,7	298,529
730,1	294,7
730,6	295,157
731	294,757
731,5	292,443
731,9	291,586
732,3	291,529
732,8	292,1
733,2	292,3
733,6	286,757
734,1	287,014
734,5	283,586
734,9	282,3
735,4	280,157
735,8	274,557
736,3	276,986
736,7	273,614
737,1	274,5
737,6	274,1
738	273,014
738,4	271,443
738,9	271,643
739,3	265,757
739,7	266,014
740,2	259,214
740,6	259,357
741,1	261,471
741,5	256,329
741,9	253,929
742,4	251,186
742,8	251,671
743,2	253,986
743,7	247,814
744,1	240,243
744,5	240,186
745	238,614
745,4	235,814
745,8	232,614
746,3	226,214
746,7	225,3
747,2	226,729
747,6	231,129
748	232,357
748,5	239,1
748,9	236,271
749,3	237,157
749,8	239,614
750,2	236,557
750,6	228,986
751,1	229,443
751,5	220,529
751,9	222,243
752,4	222,386
752,8	219,871
753,3	218,586
753,7	222,5
754,1	210,757
754,6	207,529
755	203,7
755,4	201,186
755,9	193,1
756,3	187,071
756,7	183,757
757,2	190,529
757,6	192,9
758	192,529
758,5	191,129
758,9	195,214
759,3	199,214
759,8	196,671
760,2	193,614
760,6	190,043
761,1	187,757
761,5	184,357
761,9	181,157
762,4	174,557
762,8	174,814
763,3	173,529
763,7	171,557
764,1	169,071
764,6	169,043
765	168,357
765,4	174,443
765,9	173,271
766,3	175,986
766,7	177,643
767,2	178,386
767,6	182,986
768	187,643
768,5	186,414
768,9	181,5
769,3	175,586
769,8	172,271
770,2	172,271
770,6	167,3
771,1	167,014
771,5	163,071
771,9	167,3
772,4	166,614
772,8	166,814
773,2	166,443
773,7	165,814
774,1	160,814
774,5	153,643
775	147,929
775,4	148,157
775,8	144,7
776,3	144,786
776,7	143,9
777,1	144,214
777,6	152,414
778	156,643
778,4	157,386
778,9	159,014
779,3	156,186
779,7	156,186
780,2	156,243
780,6	155,1
781	149,186
781,5	142,814
781,9	139,7
782,3	138,529
782,8	134,643
783,2	128,529
783,6	128,814
784,1	127,586
784,5	129,3
784,9	132,1
785,4	135,329
785,8	137,3
786,2	142,814
786,7	138,957
787,1	137,786
787,5	138,157
788	135,443
788,4	129,1
788,8	124,986
789,3	118,5
789,7	120,729
790,1	122,329
790,6	125,671
791	122,7
791,4	124,043
791,9	125,186
792,3	123,871
792,7	118,643
793,2	116,329
793,6	110,443
794	111,871
794,5	106,3
794,9	103,729
795,3	104,643
795,8	108,186
796,2	110,071
796,6	111,986
797,1	111,243
797,5	107,614
797,9	104,929
798,4	101,757
798,8	97,814
799,2	95,757
799,7	97,357
800,1	97,957
800,5	104,329
801	107,643
801,4	106,9
801,8	101,357
802,2	100,871
802,7	95,271
803,1	93,757
803,5	89,271
804	84,5
804,4	90,1
804,8	94,214
805,3	92,814
805,7	93,014
806,1	87,614
806,6	87,9
807	90,986
807,4	86,129
807,9	82,271
808,3	81,814
808,7	81,643
809,2	85,529
809,6	92,5
810	92,214
810,4	89,729
810,9	89,5
811,3	90,357
811,7	91,471
812,2	96,843
812,6	87,471
813	91,586
813,5	93,586
813,9	97,329
814,3	93,786
814,8	90,414
815,2	80,671
815,6	80,557
816,1	76,729
816,5	75,386
816,9	72,614
817,3	74,557
817,8	82,757
818,2	83,5
818,6	84,329
819,1	79,5
819,5	77,929
819,9	76,386
820,4	74,814
820,8	65,186
821,2	66,071
821,7	67,386
822,1	73,357
822,5	80,414
822,9	78,843
823,4	78,1
823,8	78,271
824,2	78,243
824,7	75,843
825,1	64,586
825,5	57,443
826	52,957
826,4	50,986
826,8	51,843
827,3	51,557
827,7	48,929
828,1	55,843
828,5	56,786
829	58,729
829,4	59,729
829,8	54,729
830,3	51,729
830,7	51,7
831,1	51,614
831,6	49,586
832	49,3
832,4	47,157
832,8	52,671
833,3	52,814
833,7	49,329
834,1	45,386
834,6	42,071
835	46,957
835,4	53,643
835,8	46,3
836,3	46,414
836,7	50,1
837,1	50,814
837,6	56,557
838	52,3
838,4	48,443
838,9	55,071
839,3	51,529
839,7	53,3
840,1	50,043
840,6	43,814
841	47,443
841,4	48,186
841,9	43,586
842,3	43,214
842,7	43,129
843,1	45,986
843,6	50,1
844	47,1
844,4	43,929
844,9	46,586
845,3	49,671
845,7	49,357
846,2	47,414
846,6	46,386
847	46,557
847,4	46,414
847,9	43,814
848,3	43,443
848,7	43,729
849,2	41,871
849,6	37,386
850	39,014
850,4	36,271
850,9	38,586
851,3	39,271
851,7	37,586
852,2	42,957
852,6	49,014
853	46,414
853,4	45,357
853,9	42,671
854,3	42,843
854,7	44,043
855,2	43,3
855,6	40,443
856	41,271
856,4	45,843
856,9	43,357
857,3	42,957
857,7	42,129
858,2	42,757
858,6	39,929
859	39,729
859,4	36,586
859,9	36,5
860,3	30,7
860,7	31,243
861,1	29,814
861,6	30,443
862	30,129
862,4	29,986
862,9	33,071
863,3	34,757
863,7	31,043
864,1	29,443
864,6	28,414
865	26,871
865,4	26,414
865,9	25,929
866,3	27,386
866,7	30,614
867,1	27,043
867,6	28,557
868	29,1
868,4	28,843
868,8	24,271
869,3	23,243
869,7	24,129
870,1	22,243
870,6	21,929
871	-0,471
871,4	3,986
871,8	6,529
872,3	8,814
872,7	8,9
873,1	13,671
873,5	14,9
874	33,271
874,4	25,929
874,8	21,671
875,3	20,1
875,7	15,757
876,1	15,843
876,5	15,129
877	13,671
877,4	15,157
877,8	18,557
878,2	24,043
878,7	27,757
879,1	27,3
879,5	27,157
879,9	33,471
880,4	37,871
880,8	37,414
881,2	30,957
881,7	25,957
882,1	26,443
882,5	21,9
882,9	19,014
883,4	11,529
883,8	12,214
884,2	13,5
884,6	13,043
885,1	13,3
885,5	16,329
885,9	19,186
886,3	24,671
886,8	27,529
887,2	29,786
887,6	29,843
888	30,1
888,5	32,357
888,9	29,643
889,3	26,243
889,8	20,729
890,2	15,014
890,6	12,986
891	11,071
891,5	8,871
891,9	6,814
892,3	9,9
892,7	13,157
893,2	17,671
893,6	21,157
894	22,1
894,4	21,329
894,9	25,129
895,3	24,243
895,7	26,1
896,1	21,814
896,6	22,157
897	19,214
897,4	24,271
897,8	24,186
898,3	26,043
898,7	17,357
899,1	17,386
899,5	15,814
900	12,129
900,4	3,357
900,8	0,986
901,2	-3,357
901,7	0,729
902,1	5,643
902,5	8,271
902,9	10,271
903,4	15,757
903,8	16,529
904,2	18,3
904,6	22,214
905,1	19,843
905,5	20,243
905,9	25,786
906,3	24,957
906,8	26,186
907,2	25,443
907,6	22,014
908	22,786
908,5	17,271
908,9	12,986
909,3	11,386
909,7	7,757
910,2	10,386
910,6	17,614
911	16,243
911,4	20,643
911,9	18,586
912,3	20,814
912,7	23,986
913,1	22,643
913,6	15,1
914	14,443
914,4	13,129
914,8	18,129
915,3	11,043
915,7	8,814
916,1	9,643
916,5	13,529
916,9	12,043
917,4	9,129
917,8	7,357
918,2	8,471
918,6	7,529
919,1	5,5
919,5	4,243
919,9	4,071
920,3	3,671
920,8	0,7
921,2	4,9
921,6	3,643
922	4,757
922,5	6,414
922,9	9,414
923,3	12,129
923,7	12,9
924,2	11,443
924,6	11,614
925	11,129
925,4	8,986
925,8	7,557
926,3	5,757
926,7	4,643
927,1	5,3
927,5	6,929
928	2,271
928,4	-0,814
928,8	-1,529
929,2	-2,7
929,7	-0,729
930,1	0,614
930,5	0,157
930,9	3,986
931,3	4,643
931,8	6,557
932,2	8,871
932,6	7,214
933	-0,786
933,5	0,1
933,9	3,757
934,3	4,3
934,7	-2,071
935,2	-3,243
935,6	0,529
936	6,471
936,4	6,129
936,8	5,014
937,3	5,043
937,7	10,814
938,1	12,271
938,5	7,129
939	6,614
939,4	4,529
939,8	1,414
940,2	-1,586
940,6	0,929
941,1	-2,643
941,5	3,614
941,9	-0,129
942,3	0,957
942,8	3,643
943,2	7,043
943,6	-1,186
944	1,529
944,4	-0,929
944,9	3,071
945,3	5,386
945,7	-0,271
946,1	-2,986
946,6	-1,243
947	-3,729
947,4	-0,1
947,8	-4,614
948,2	-10,186
948,7	-8,214
949,1	-9,671
949,5	-5,3
949,9	-4,443
950,3	-7,271
950,8	-6,643
951,2	-4,071
951,6	-8,071
952	-3,443
952,5	-6,929
952,9	-10,271
953,3	-13,929
953,7	-10,214
954,1	-6,443
954,6	-2,643
955	-1,7
955,4	-1,386
955,8	8,643
956,2	11,043
956,7	15,871
957,1	10,957
957,5	15,9
957,9	15,643
958,3	12,443
958,8	12,157
959,2	14,329
959,6	10,357
960	8,871
960,5	6,471
960,9	5,929
961,3	7,443
961,7	1,986
962,1	-2,729
962,6	-0,729
963	4,871
963,4	-0,786
963,8	-4,814
964,2	-3,243
964,7	-4,814
965,1	-0,386
965,5	-2,014
965,9	-5,643
966,3	0,814
966,8	4,214
967,2	4,3
967,6	5,3
968	2,1
968,4	2,757
968,9	2,271
969,3	2,814
969,7	1,729
970,1	3,557
970,5	0,557
971	3,157
971,4	0,986
971,8	1,129
972,2	1,157
972,6	-1,014
973,1	-1,014
973,5	4,471
973,9	3,786
974,3	5,129
974,7	10,414
975,2	11,729
975,6	11,871
976	13,5
976,4	9,986
976,8	8,271
977,3	0,757
977,7	-2,443
978,1	-6,643
978,5	-5,214
978,9	-10,986
979,4	-11,929
979,8	-11,957
980,2	-5,214
980,6	-7,871
981	-8,129
981,5	-2,814
981,9	2,243
982,3	3,729
982,7	3,414
983,1	0,443
983,6	4,071
984	4,871
984,4	0,329
984,8	-3,586
985,2	-2,7
985,6	-4,614
986,1	-0,671
986,5	0,043
986,9	-7,186
987,3	-6,357
987,7	-5,443
988,2	-7,671
988,6	-5,243
989	-10,1
989,4	-10,871
989,8	-6,414
990,3	-9,7
990,7	-11,929
991,1	-9,357
991,5	-10,814
991,9	-7,443
992,3	-7,614
992,8	-2,557
993,2	-2,3
993,6	-1,014
994	2,7
994,4	3,843
994,9	0,7
995,3	1,757
995,7	0,586
996,1	0,014
996,5	1,843
996,9	-4,786
997,4	-0,157
997,8	-0,614
998,2	-6,071
998,6	-15,986
999	-15,529
999,5	-19,7
999,9	-15,557
1000,3	-23,214
1000,7	-19,9
1001,1	-17,986
1001,5	-5,786
1002	-2,786
1002,4	4,7
1002,8	4,643
1003,2	8,729
1003,6	10,986
1004	11,386
1004,5	5,529
1004,9	4,671
1005,3	-3,186
1005,7	-0,786
1006,1	-3,443
1006,6	-5,757
1007	0,129
1007,4	0,043
1007,8	-1,729
1008,2	0,957
1008,6	0,814
1009,1	5,786
1009,5	7,957
1009,9	3,129
1010,3	2,586
1010,7	4,3
1011,1	3,014
1011,6	-1,814
1012	0,129
1012,4	-2,271
1012,8	-2,271
1013,2	2,814
1013,6	2,643
1014,1	5,471
1014,5	9,643
1014,9	5,957
1015,3	3,671
1015,7	0,471
1016,1	-4,9
1016,6	-4,7
1017	-0,5
1017,4	-3,5
1017,8	-6,471
1018,2	-1,414
1018,6	-2,614
1019,1	1,814
1019,5	-1,557
1019,9	-8,443
1020,3	-4,214
1020,7	2,671
1021,1	-1,443
1021,6	2,843
1022	4,243
1022,4	9,157
1022,8	13,557
1023,2	7,243
1023,6	4,843
1024,1	11,957
1024,5	15,7
1024,9	9,157
1025,3	1,014
1025,7	-0,443
1026,1	5,7
1026,6	3,471
1027	1,3
1027,4	0,357
1027,8	4,129
1028,2	12,1
1028,6	18,3
1029	18,1
1029,5	19,557
1029,9	15,529
1030,3	11,243
1030,7	11,9
1031,1	11,214
1031,5	2,7
1032	-2,357
1032,4	-3,557
1032,8	-3,386
1033,2	-1,471
1033,6	-2,557
1034	-4,3
1034,4	-2,557
1034,9	0,1
1035,3	-4,214
1035,7	0,357
1036,1	-2,929
1036,5	-4,214
1036,9	-0,614
1037,4	-0,614
1037,8	-1,871
1038,2	1,529
1038,6	-1,3
1039	2,986
1039,4	9,871
1039,8	1,414
1040,3	0,557
1040,7	1,414
1041,1	5,471
1041,5	9,386
1041,9	7,443
1042,3	5,157
1042,7	12,7
1043,2	10,157
1043,6	4,043
1044	2,557
1044,4	-0,7
1044,8	-2,443
1045,2	-5,357
1045,6	-4,929
1046,1	-4,5
1046,5	-2,529
1046,9	-6,5
1047,3	-8,014
1047,7	-8,443
1048,1	-11,043
1048,5	-13,614
1049	-8,357
1049,4	-4,871
1049,8	-2,871
1050,2	-1,7
1050,6	6,729
1051	6,557
1051,4	9,071
1051,9	5,357
1052,3	9,843
1052,7	6,729
1053,1	2,186
1053,5	-1,586
1053,9	-2,643
1054,3	-5,9
1054,8	-0,557
1055,2	-3,671
1055,6	3,3
1056	6,814
1056,4	6,986
1056,8	9,014
1057,2	5,586
1057,6	-0,586
1058,1	-3,671
1058,5	-13,586
1058,9	-11,7
1059,3	-11,043
1059,7	-12,671
1060,1	-9,471
1060,5	-6,186
1061	-3,014
1061,4	0,529
1061,8	0,929
1062,2	-1,329
1062,6	3,5
1063	6,129
1063,4	7,643
1063,8	2,529
1064,3	1,586
1064,7	-2,243
1065,1	-3,414
1065,5	-6,671
1065,9	-9,014
1066,3	-11,157
1066,7	-10,5
1067,1	-8,957
1067,6	-3,643
1068	-7,786
1068,4	-4,786
1068,8	-2,357
1069,2	0,186
1069,6	1,843
1070	6,5
1070,4	5,7
1070,9	7,1
1071,3	4,757
1071,7	2,386
1072,1	0,329
1072,5	0,186
1072,9	-4,529
1073,3	-6,9
1073,7	-4,186
1074,2	-5,1
1074,6	-2,014
1075	-2,871
1075,4	-1,871
1075,8	0,386
1076,2	1,129
1076,6	2,271
1077	3,1
1077,5	1,3
1077,9	-1,471
1078,3	-1,957
1078,7	-3,814
1079,1	-5,443
1079,5	-7,5
1079,9	-6,671
1080,3	-9,071
1080,7	-5,014
1081,2	0,043
1081,6	3,9
1082	3,157
1082,4	7,529
1082,8	6,843
1083,2	8,929
1083,6	7,757
1084	3,557
1084,5	3,1
1084,9	1,471
1085,3	-6,757
1085,7	-7,414
1086,1	-8,843
1086,5	-7,614
1086,9	-5,386
1087,3	-6,843
1087,7	-5,671
1088,2	-2,986
1088,6	-0,7
1089	2,786
1089,4	-0,214
1089,8	-2,443
1090,2	-8,443
1090,6	-8,357
1091	-4,3
1091,4	-6,786
1091,9	-6,443
1092,3	-3,9
1092,7	-5,986
1093,1	3,729
1093,5	4,214
1093,9	2,129
1094,3	5,986
1094,7	2,129
1095,1	0,7
1095,5	2,5
1096	-4,071
1096,4	-0,386
1096,8	-0,786
1097,2	-0,9
1097,6	5,129
1098	7,186
1098,4	9,329
1098,8	11,243
1099,2	14,671
1099,6	14,386
1100,1	9,786
1100,5	4,9
1100,9	1,9
1101,3	3,586
1101,7	2,357
1102,1	-2,929
1102,5	-0,1
1102,9	4,186
1103,3	5,129
1103,7	8,757
1104,2	5,471
1104,6	6,786
1105	6,129
1105,4	4,843
1105,8	2,614
1106,2	2,1
1106,6	0,443
1107	0,414
1107,4	0,433
1107,8	0,46
1108,3	0,2
