Data from Subt2_303.txt Node
Date: Sat Aug 26 19:13:23 MSK 2023
User: vat
Spectrometer: MAYP114033
Trigger mode: 0
Integration Time (sec): 1,000000E0
Scans to average: 5
Electric dark correction enabled: true
Nonlinearity correction enabled: false
Boxcar width: 3
XAxis mode: Wavelengths
Number of Pixels in Spectrum: 2068
>>>>>Begin Spectral Data<<<<<
199,4	0,067
199,9	1,107
200,4	-1,167
200,8	0,724
201,3	0,895
201,8	1,095
202,2	1,324
202,7	5,552
203,2	4,695
203,6	6,581
204,1	5,152
204,6	6,238
205	8,61
205,5	6,695
206	3,438
206,4	3,381
206,9	5,324
207,4	8,181
207,8	6,267
208,3	7,381
208,8	8,01
209,2	9,952
209,7	10,61
210,2	10,838
210,6	8,752
211,1	10,781
211,5	5,61
212	9,495
212,5	5,495
212,9	5,524
213,4	6,21
213,9	2,495
214,3	3,124
214,8	8,01
215,3	6,152
215,7	8,981
216,2	11,41
216,7	11,352
217,1	13,552
217,6	15,638
218,1	12,267
218,5	10,01
219	4,924
219,5	1,867
219,9	0,295
220,4	9,01
220,9	7,467
221,3	8,01
221,8	11,324
222,3	15,895
222,7	19,695
223,2	19,924
223,6	10,952
224,1	6,695
224,6	10,752
225	9,067
225,5	9,867
226	7,638
226,4	7,81
226,9	9,867
227,4	13,581
227,8	3,695
228,3	5,124
228,8	4,267
229,2	7,952
229,7	10,467
230,2	10,867
230,6	12,067
231,1	20,038
231,5	20,124
232	20,524
232,5	15,867
232,9	14,038
233,4	15,352
233,9	13,295
234,3	11,552
234,8	10,867
235,3	6,152
235,7	9,981
236,2	10,152
236,7	5,924
237,1	6,581
237,6	4,124
238,1	5,524
238,5	7,181
239	4,295
239,4	8,095
239,9	12,467
240,4	14,695
240,8	21,695
241,3	16,495
241,8	18,952
242,2	18,981
242,7	12,467
243,2	11,638
243,6	5,752
244,1	5,124
244,6	9,781
245	7,438
245,5	7,21
245,9	7,181
246,4	6,781
246,9	10,267
247,3	10,095
247,8	9,21
248,3	16,952
248,7	15,838
249,2	19,952
249,7	21,238
250,1	21,581
250,6	18,552
251	20,381
251,5	13,152
252	14,21
252,4	10,295
252,9	8,124
253,4	5,352
253,8	5,238
254,3	5,952
254,8	8,867
255,2	8,41
255,7	10,724
256,1	11,295
256,6	16,01
257,1	17,895
257,5	13,981
258	13,181
258,5	15,295
258,9	13,267
259,4	12,01
259,9	11,381
260,3	3,038
260,8	1,324
261,2	-0,59
261,7	1,667
262,2	0,295
262,6	1,324
263,1	3,21
263,6	10,638
264	13,581
264,5	20,695
264,9	15,724
265,4	22,181
265,9	18,752
266,3	18,181
266,8	17,438
267,3	19,267
267,7	14,067
268,2	14,695
268,7	10,21
269,1	13,152
269,6	9,752
270	14,238
270,5	10,067
271	10,724
271,4	13,095
271,9	5,924
272,4	7,981
272,8	9,695
273,3	0,21
273,7	4,181
274,2	5,41
274,7	2,124
275,1	11,752
275,6	10,695
276,1	6,038
276,5	15,324
277	14,524
277,4	14,61
277,9	17,41
278,4	14,981
278,8	14,267
279,3	18,238
279,8	13,838
280,2	13,524
280,7	12,295
281,1	11,267
281,6	10,81
282,1	14,981
282,5	14,467
283	16,067
283,4	15,895
283,9	16,381
284,4	20,895
284,8	21,267
285,3	18,838
285,8	18,895
286,2	14,667
286,7	13,81
287,1	9,352
287,6	8,467
288,1	11,095
288,5	11,438
289	11,238
289,5	14,095
289,9	12,695
290,4	19,981
290,8	16,181
291,3	13,552
291,8	17,838
292,2	15,524
292,7	20,238
293,1	21,438
293,6	19,41
294,1	21,581
294,5	25,724
295	22,438
295,5	24,267
295,9	20,381
296,4	17,838
296,8	13,695
297,3	15,552
297,8	10,324
298,2	8,552
298,7	12,524
299,1	13,352
299,6	14,61
300,1	18,895
300,5	18,781
301	20,552
301,5	24,495
301,9	18,581
302,4	18,41
302,8	22,552
303,3	20,267
303,8	15,124
304,2	16,638
304,7	12,152
305,1	12,438
305,6	14,781
306,1	17,41
306,5	17,21
307	22,695
307,4	22,238
307,9	22,152
308,4	22,41
308,8	14,524
309,3	10,667
309,8	10,724
310,2	12,238
310,7	9,61
311,1	8,752
311,6	9,01
312,1	13,324
312,5	13,981
313	16,467
313,4	12,724
313,9	11,838
314,4	13,467
314,8	9,752
315,3	7,495
315,7	3,495
316,2	0,524
316,7	0,295
317,1	6,095
317,6	4,41
318	11,867
318,5	15,667
319	19,295
319,4	22,038
319,9	23,981
320,3	22,752
320,8	20,695
321,3	18,895
321,7	20,095
322,2	16,01
322,6	14,381
323,1	7,638
323,6	3,01
324	1,924
324,5	-0,476
324,9	0,01
325,4	1,095
325,9	3,467
326,3	9,552
326,8	12,324
327,2	12,124
327,7	16,124
328,2	14,21
328,6	15,095
329,1	11,981
329,5	8,61
330	7,295
330,5	10,667
330,9	7,524
331,4	5,124
331,8	3,381
332,3	3,267
332,8	5,381
333,2	7,924
333,7	11,724
334,1	15,438
334,6	13,924
335,1	17,438
335,5	18,152
336	14,981
336,4	14,01
336,9	16,381
337,4	17,638
337,8	21,038
338,3	18,495
338,7	18,467
339,2	19,924
339,7	22,295
340,1	18,667
340,6	16,181
341	14,324
341,5	14,352
342	12,295
342,4	8,638
342,9	2,324
343,3	0,238
343,8	-3,505
344,2	-1,476
344,7	6,181
345,2	7,552
345,6	13,552
346,1	19,524
346,5	15,667
347	17,381
347,5	12,724
347,9	11,638
348,4	14,295
348,8	14,152
349,3	12,124
349,8	19,181
350,2	24,667
350,7	28,067
351,1	27,867
351,6	31,067
352	34,895
352,5	40,352
353	47,61
353,4	53,124
353,9	63,61
354,3	76,838
354,8	85,41
355,3	100,038
355,7	120,724
356,2	140,21
356,6	160,295
357,1	185,867
357,5	211,952
358	248,81
358,5	287,067
358,9	327,781
359,4	382,352
359,8	438,124
360,3	504,667
360,8	572,238
361,2	654,524
361,7	744,067
362,1	843,781
362,6	941,095
363	1053,267
363,5	1174,295
364	1306,667
364,4	1432,438
364,9	1560,01
365,3	1686,638
365,8	1805,752
366,3	1922,61
366,7	2023,324
367,2	2117,667
367,6	2190,352
368,1	2250,381
368,5	2289,695
369	2316,524
369,5	2320,41
369,9	2303,581
370,4	2265,438
370,8	2221,81
371,3	2154,81
371,7	2081,581
372,2	1994,752
372,7	1901,267
373,1	1802,581
373,6	1695,067
374	1590,838
374,5	1489,952
374,9	1384,524
375,4	1284,524
375,9	1189,038
376,3	1098,924
376,8	1016,238
377,2	933,924
377,7	857,61
378,2	790,752
378,6	726,067
379,1	667,895
379,5	619,095
380	569,438
380,4	524,895
380,9	483,495
381,4	442,238
381,8	411,152
382,3	383,952
382,7	350,381
383,2	331,381
383,6	306,038
384,1	285,524
384,6	270,838
385	252,352
385,5	233,095
385,9	219,181
386,4	193,21
386,8	182,667
387,3	171,295
387,7	161,038
388,2	152,124
388,7	141,895
389,1	134,381
389,6	132,924
390	124,838
390,5	120,838
390,9	111,695
391,4	101,924
391,9	96,438
392,3	91,638
392,8	86,381
393,2	80,21
393,7	74,438
394,1	67,124
394,6	65,838
395,1	65,352
395,5	59,41
396	57,352
396,4	57,981
396,9	52,81
397,3	58,238
397,8	57,21
398,2	54,295
398,7	59,581
399,2	55,724
399,6	57,21
400,1	58,352
400,5	50,438
401	50,095
401,4	45,467
401,9	45,781
402,4	53,01
402,8	48,124
403,3	53,952
403,7	52,638
404,2	58,152
404,6	61,552
405,1	54,295
405,5	48,838
406	50,924
406,5	43,124
406,9	46,667
407,4	41,495
407,8	41,924
408,3	46,095
408,7	45,752
409,2	48,667
409,6	54,752
410,1	56,352
410,6	60,552
411	62,21
411,5	60,181
411,9	65,581
412,4	64,781
412,8	61,838
413,3	66,495
413,7	68,838
414,2	68,038
414,7	79,181
415,1	84,81
415,6	86,924
416	91,952
416,5	91,838
416,9	88,695
417,4	92,81
417,8	95,495
418,3	93,867
418,8	96,867
419,2	95,038
419,7	96,21
420,1	98,867
420,6	99,552
421	89,695
421,5	92,181
421,9	92,352
422,4	98,124
422,8	99,238
423,3	97,781
423,8	96,667
424,2	100,695
424,7	97,438
425,1	100,924
425,6	101,124
426	97,61
426,5	103,124
426,9	106,438
427,4	104,467
427,9	102,095
428,3	99,552
428,8	98,667
429,2	98,467
429,7	92,695
430,1	89,581
430,6	90,581
431	91,152
431,5	94,61
431,9	94,324
432,4	96,581
432,8	101,524
433,3	106,781
433,8	111,495
434,2	118,41
434,7	118,438
435,1	117,895
435,6	125,41
436	128,61
436,5	132,552
436,9	131,267
437,4	128,867
437,8	134,524
438,3	141,667
438,8	141,21
439,2	145,124
439,7	150,467
440,1	158,952
440,6	175,067
441	173,438
441,5	179,324
441,9	187,981
442,4	189,152
442,8	196,267
443,3	204,781
443,7	208,752
444,2	221,295
444,7	229,124
445,1	238,352
445,6	249,981
446	257,324
446,5	259,724
446,9	262,724
447,4	267,724
447,8	276,152
448,3	286,438
448,7	296,667
449,2	307,838
449,6	324,21
450,1	336,581
450,6	353,752
451	367,952
451,5	379,181
451,9	399,152
452,4	411,838
452,8	424,581
453,3	446,867
453,7	459,438
454,2	475,238
454,6	492,981
455,1	505,438
455,5	520,495
456	543,724
456,4	549,352
456,9	567,438
457,3	584,41
457,8	595,61
458,3	614,324
458,7	633,495
459,2	648,21
459,6	672,495
460,1	695,667
460,5	716,41
461	743,867
461,4	759,495
461,9	777,238
462,3	799,895
462,8	826,524
463,2	843,067
463,7	865,295
464,1	892,181
464,6	924,495
465	954,638
465,5	978,724
466	999,038
466,4	1027,952
466,9	1054,924
467,3	1074,61
467,8	1100,724
468,2	1128,238
468,7	1153,981
469,1	1183,552
469,6	1207,552
470	1235,81
470,5	1264,952
470,9	1285,181
471,4	1310,638
471,8	1337,438
472,3	1363,552
472,7	1395,981
473,2	1415,038
473,6	1438,781
474,1	1471,238
474,5	1494,552
475	1521,924
475,4	1549,895
475,9	1569,695
476,4	1604,41
476,8	1633,952
477,3	1653,724
477,7	1685,895
478,2	1711,981
478,6	1732,467
479,1	1756,438
479,5	1776,267
480	1794,695
480,4	1822,352
480,9	1837,524
481,3	1860,095
481,8	1885,41
482,2	1904,981
482,7	1926,952
483,1	1955,295
483,6	1968,295
484	1985,895
484,5	2005,667
484,9	2017,381
485,4	2037,781
485,8	2053,124
486,3	2073,267
486,7	2097,581
487,2	2116,038
487,6	2127,124
488,1	2150,152
488,5	2164,638
489	2184,467
489,4	2193,952
489,9	2203,267
490,4	2220,924
490,8	2235,067
491,3	2245,552
491,7	2254,61
492,2	2267,981
492,6	2277,095
493,1	2286,895
493,5	2290,152
494	2299,781
494,4	2302,495
494,9	2312,41
495,3	2312,438
495,8	2312,724
496,2	2320,295
496,7	2318,21
497,1	2320,552
497,6	2327,524
498	2334,21
498,5	2343,638
498,9	2352,495
499,4	2353,181
499,8	2370,524
500,3	2370,638
500,7	2370,524
501,2	2369,781
501,6	2360,124
502,1	2358,61
502,5	2362,981
503	2360,895
503,4	2365,038
503,9	2365,467
504,3	2369,638
504,8	2375,324
505,2	2378,295
505,7	2378,41
506,1	2384,181
506,6	2382,267
507	2385,695
507,5	2388,81
507,9	2389,495
508,4	2385,038
508,8	2381,467
509,3	2371,038
509,7	2371,638
510,2	2369,838
510,6	2363,238
511,1	2359,61
511,5	2358,295
512	2361,095
512,4	2366,781
512,9	2363,181
513,3	2365,438
513,8	2361,238
514,2	2361,867
514,7	2361,267
515,1	2357,724
515,6	2351,867
516	2350,638
516,5	2346,638
516,9	2354,667
517,4	2360,352
517,8	2365,01
518,3	2364,695
518,7	2363,438
519,2	2367,781
519,6	2372,324
520,1	2365,438
520,5	2360,095
521	2354,867
521,4	2355,01
521,9	2356,267
522,3	2354,095
522,8	2343,267
523,2	2340,552
523,7	2339,267
524,1	2345,438
524,6	2341,638
525	2336,981
525,5	2331,924
525,9	2338,981
526,4	2343,067
526,8	2338,724
527,3	2337,438
527,7	2337,667
528,2	2341,724
528,6	2341,552
529,1	2340,895
529,5	2345,838
530	2351,895
530,4	2351,352
530,9	2356,41
531,3	2357,41
531,8	2366,81
532,2	2369,867
532,6	2363,067
533,1	2358,524
533,5	2356,01
534	2355,152
534,4	2354,81
534,9	2352,552
535,3	2348,724
535,8	2350,61
536,2	2356,924
536,7	2359,667
537,1	2360,981
537,6	2366,038
538	2368,981
538,5	2375,267
538,9	2376,152
539,4	2379,324
539,8	2379,981
540,3	2383,181
540,7	2383,152
541,2	2383,838
541,6	2389,781
542,1	2398,295
542,5	2397,952
543	2399,181
543,4	2402,152
543,9	2404,895
544,3	2407,381
544,8	2404,152
545,2	2403,581
545,7	2410,952
546,1	2420,495
546,5	2426,324
547	2430,467
547,4	2431,324
547,9	2429,238
548,3	2430,438
548,8	2435,124
549,2	2431,581
549,7	2431,038
550,1	2439,067
550,6	2440,752
551	2451,867
551,5	2451,095
551,9	2445,552
552,4	2455,495
552,8	2458,981
553,3	2453,61
553,7	2459,895
554,2	2460,267
554,6	2470,752
555,1	2479,41
555,5	2474,81
555,9	2478,038
556,4	2480,095
556,8	2478,81
557,3	2483,238
557,7	2486,61
558,2	2492,295
558,6	2498,552
559,1	2502,638
559,5	2505,181
560	2520,038
560,4	2521,781
560,9	2520,01
561,3	2515,124
561,8	2517,038
562,2	2514,581
562,7	2520,181
563,1	2522,067
563,6	2519,438
564	2523,181
564,4	2526,267
564,9	2522,495
565,3	2522,467
565,8	2526,61
566,2	2522,695
566,7	2528,952
567,1	2535,781
567,6	2538,038
568	2544,924
568,5	2550,267
568,9	2545,41
569,4	2544,324
569,8	2542,724
570,3	2538,495
570,7	2536,838
571,1	2534,495
571,6	2532,581
572	2537,295
572,5	2535,295
572,9	2534,095
573,4	2529,952
573,8	2536,038
574,3	2536,352
574,7	2537,81
575,2	2533,095
575,6	2533,695
576,1	2534,924
576,5	2540,067
576,9	2529,638
577,4	2525,924
577,8	2520,067
578,3	2520,581
578,7	2519,581
579,2	2519,181
579,6	2515,038
580,1	2515,067
580,5	2515,638
581	2517,41
581,4	2510,695
581,9	2502,238
582,3	2496,781
582,7	2490,524
583,2	2488,838
583,6	2484,038
584,1	2483,21
584,5	2476,81
585	2473,924
585,4	2467,238
585,9	2457,724
586,3	2460,295
586,8	2461,438
587,2	2455,81
587,6	2459,324
588,1	2463,295
588,5	2461,295
589	2472,952
589,4	2463,952
589,9	2456,352
590,3	2450,067
590,8	2445,21
591,2	2440,81
591,7	2440,924
592,1	2431,181
592,5	2431,152
593	2425,124
593,4	2421,667
593,9	2413,152
594,3	2408,467
594,8	2397,524
595,2	2390,867
595,7	2381,638
596,1	2376,495
596,6	2374,181
597	2373,695
597,4	2367,724
597,9	2365,124
598,3	2368,695
598,8	2364,524
599,2	2365,295
599,7	2361,81
600,1	2359,21
600,6	2355,438
601	2359,552
601,4	2354,81
601,9	2355,152
602,3	2349,095
602,8	2342,952
603,2	2337,981
603,7	2335,724
604,1	2323,981
604,6	2311,581
605	2296,267
605,4	2293,181
605,9	2279,038
606,3	2269,667
606,8	2258,21
607,2	2254,124
607,7	2247,324
608,1	2245,952
608,6	2238,638
609	2241,638
609,4	2237,867
609,9	2236,21
610,3	2227,752
610,8	2222,238
611,2	2215,952
611,7	2207,381
612,1	2201,352
612,6	2196,21
613	2183,724
613,4	2175,667
613,9	2171,895
614,3	2161,095
614,8	2157,124
615,2	2143,381
615,7	2133,124
616,1	2128,41
616,6	2120,067
617	2107,41
617,4	2103,724
617,9	2096,981
618,3	2092,61
618,8	2092,552
619,2	2081,381
619,7	2077,61
620,1	2070,667
620,5	2065,124
621	2053,81
621,4	2049,81
621,9	2032,61
622,3	2024,695
622,8	2015,352
623,2	2007,181
623,6	1992,524
624,1	1988,667
624,5	1976,61
625	1980,295
625,4	1976,01
625,9	1965,924
626,3	1953,495
626,8	1949,552
627,2	1939,781
627,6	1931,381
628,1	1910,01
628,5	1901,667
629	1890,01
629,4	1887,381
629,9	1874,952
630,3	1855,781
630,7	1846,352
631,2	1843,952
631,6	1834,667
632,1	1825,21
632,5	1814,638
633	1812,438
633,4	1806,095
633,8	1797,752
634,3	1785,981
634,7	1773,124
635,2	1766,638
635,6	1757,581
636,1	1746,895
636,5	1737,638
636,9	1722,524
637,4	1715,724
637,8	1706,667
638,3	1693,924
638,7	1686,952
639,2	1671,695
639,6	1668,467
640	1663,295
640,5	1650,667
640,9	1641,095
641,4	1642,352
641,8	1633,81
642,2	1629,467
642,7	1621,895
643,1	1622,095
643,6	1618,838
644	1618,667
644,5	1609,781
644,9	1603,238
645,3	1598,21
645,8	1582,124
646,2	1573,267
646,7	1562,81
647,1	1554,095
647,6	1546,667
648	1542,238
648,4	1533,495
648,9	1531,238
649,3	1519,21
649,8	1516,81
650,2	1505,81
650,6	1496,067
651,1	1483,41
651,5	1482,552
652	1475,924
652,4	1469,781
652,9	1460,61
653,3	1454,124
653,7	1448,324
654,2	1437,438
654,6	1420,695
655,1	1414,581
655,5	1410,667
655,9	1400,324
656,4	1394,352
656,8	1387,324
657,3	1387,467
657,7	1383,181
658,2	1377,495
658,6	1365,267
659	1362,267
659,5	1350,41
659,9	1342,581
660,4	1337,581
660,8	1326,81
661,2	1312,295
661,7	1309,581
662,1	1299,552
662,6	1294,21
663	1283,981
663,4	1272,552
663,9	1269,095
664,3	1268,324
664,8	1253,295
665,2	1240,61
665,6	1232,324
666,1	1228,267
666,5	1222,095
667	1210,981
667,4	1202,724
667,9	1197,01
668,3	1196,152
668,7	1187,981
669,2	1182,324
669,6	1171,552
670,1	1163,695
670,5	1154,752
670,9	1151,838
671,4	1142,038
671,8	1137,981
672,3	1130,467
672,7	1126,352
673,1	1116,724
673,6	1112,238
674	1105,781
674,5	1100,581
674,9	1093,438
675,3	1080,181
675,8	1071,981
676,2	1065,381
676,7	1055,61
677,1	1045,752
677,5	1040,781
678	1035,667
678,4	1035,752
678,9	1030,438
679,3	1033,324
679,7	1029,952
680,2	1021,867
680,6	1008,124
681,1	1000,352
681,5	996,895
681,9	992,467
682,4	981,724
682,8	980,524
683,3	978,981
683,7	978,295
684,1	970,581
684,6	961,067
685	947,438
685,5	938,01
685,9	922,067
686,3	912,01
686,8	906,61
687,2	901,924
687,7	888,895
688,1	886,638
688,5	888,238
689	890,267
689,4	887,21
689,9	878,495
690,3	871,495
690,7	875,638
691,2	870,81
691,6	862,438
692	852,924
692,5	844,895
692,9	839,838
693,4	837,524
693,8	825,352
694,2	821,752
694,7	817,695
695,1	810,952
695,6	808,381
696	809,41
696,4	804,352
696,9	801,41
697,3	788,552
697,8	783,324
698,2	779,295
698,6	780,41
699,1	777,067
699,5	778,181
699,9	775,038
700,4	771,438
700,8	766,781
701,3	768,895
701,7	755,01
702,1	745,01
702,6	733,01
703	726,838
703,5	726,152
703,9	717,438
704,3	709,781
704,8	707,638
705,2	704,267
705,6	700,438
706,1	697,095
706,5	692,61
707	693,267
707,4	691,638
707,8	686,981
708,3	683,295
708,7	681,324
709,2	679,267
709,6	672,895
710	671,238
710,5	660,752
710,9	658,181
711,3	650,524
711,8	646,038
712,2	639,752
712,7	638,038
713,1	632,267
713,5	630,924
714	627,867
714,4	626,61
714,8	618,667
715,3	615,381
715,7	613,324
716,2	607,438
716,6	606,41
717	594,01
717,5	584,238
717,9	585,895
718,3	578,21
718,8	573,152
719,2	569,81
719,7	560,924
720,1	567,467
720,5	572,324
721	562,724
721,4	560,295
721,8	560,838
722,3	550,667
722,7	548,952
723,2	535,81
723,6	522,867
724	519,295
724,5	512,467
724,9	503,552
725,3	503,124
725,8	498,067
726,2	501,295
726,7	501,724
727,1	500,724
727,5	500,981
728	493,81
728,4	492,895
728,8	491,41
729,3	484,152
729,7	479,152
730,1	478,067
730,6	476,495
731	479,038
731,5	475,781
731,9	468,724
732,3	471,438
732,8	472,267
733,2	470,095
733,6	467,695
734,1	465,724
734,5	462,267
734,9	461,581
735,4	456,924
735,8	451,467
736,3	448,495
736,7	446,181
737,1	441,038
737,6	438,638
738	434,781
738,4	432,238
738,9	432,952
739,3	422,124
739,7	418,781
740,2	414,524
740,6	416,495
741,1	418,924
741,5	413,638
741,9	412,752
742,4	418,952
742,8	420,352
743,2	419,952
743,7	411,267
744,1	406,267
744,5	402,41
745	397,667
745,4	391,267
745,8	384,781
746,3	381,581
746,7	378,81
747,2	375,867
747,6	378,981
748	378,438
748,5	383,61
748,9	381,552
749,3	377,724
749,8	376,21
750,2	374,752
750,6	369,895
751,1	367,695
751,5	358,895
751,9	356,781
752,4	362,067
752,8	362,238
753,3	360,695
753,7	364,924
754,1	358,095
754,6	354,552
755	347,524
755,4	337,381
755,9	334,838
756,3	332,981
756,7	327,867
757,2	328,752
757,6	329,438
758	331,181
758,5	327,324
758,9	324,752
759,3	322,067
759,8	316,238
760,2	316,124
760,6	314,867
761,1	309,924
761,5	314,181
761,9	312,038
762,4	308,552
762,8	305,81
763,3	300,524
763,7	297,21
764,1	299,295
764,6	298,895
765	296,095
765,4	296,067
765,9	297,638
766,3	300,21
766,7	294,781
767,2	290,695
767,6	288,21
768	288,867
768,5	283,924
768,9	279,638
769,3	273,867
769,8	274,01
770,2	274,41
770,6	273,238
771,1	275,667
771,5	277,381
771,9	278,581
772,4	275,524
772,8	272,724
773,2	271,41
773,7	266,381
774,1	261,438
774,5	255,295
775	252,752
775,4	255,495
775,8	253,524
776,3	255,495
776,7	253,21
777,1	249,41
777,6	254,41
778	254,895
778,4	251,124
778,9	253,495
779,3	244,724
779,7	246,21
780,2	249,181
780,6	243,724
781	239,181
781,5	237,467
781,9	233,61
782,3	231,01
782,8	231,238
783,2	226,21
783,6	227,752
784,1	223,495
784,5	219,838
784,9	220,01
785,4	224,324
785,8	221,495
786,2	220,81
786,7	218,581
787,1	217,352
787,5	218,01
788	216,638
788,4	214,838
788,8	212,667
789,3	206,81
789,7	207,667
790,1	204,21
790,6	205,152
791	200,352
791,4	198,981
791,9	195,067
792,3	192,952
792,7	188,438
793,2	186,581
793,6	185,152
794	189,381
794,5	186,552
794,9	188,381
795,3	191,524
795,8	191,01
796,2	194,838
796,6	194,295
797,1	191,267
797,5	189,095
797,9	187,81
798,4	179,695
798,8	175,295
799,2	171,495
799,7	173,067
800,1	169,924
800,5	164,895
801	163,724
801,4	168,124
801,8	167,181
802,2	166,038
802,7	155,152
803,1	153,124
803,5	158,438
804	153,295
804,4	149,81
804,8	152,067
805,3	154,352
805,7	158,981
806,1	159,981
806,6	159,952
807	159,667
807,4	160,181
807,9	154,638
808,3	155,21
808,7	152,381
809,2	151,695
809,6	150,924
810	151,21
810,4	153,667
810,9	153,952
811,3	150,181
811,7	150,095
812,2	153,095
812,6	148,152
813	149,981
813,5	148,495
813,9	147,181
814,3	150,152
814,8	150,981
815,2	143,81
815,6	144,352
816,1	145,181
816,5	142,352
816,9	140,695
817,3	134,467
817,8	133,267
818,2	136,752
818,6	131,21
819,1	127,752
819,5	125,324
819,9	128,352
820,4	130,038
820,8	126,324
821,2	120,981
821,7	122,867
822,1	124,324
822,5	129,81
822,9	127,895
823,4	128,124
823,8	128,21
824,2	127,695
824,7	124,238
825,1	115,067
825,5	108,41
826	106,61
826,4	103,152
826,8	100,067
827,3	104,295
827,7	105,21
828,1	109,752
828,5	108,352
829	105,21
829,4	103,238
829,8	105,21
830,3	102,467
830,7	97,381
831,1	96,638
831,6	98,124
832	101,352
832,4	102,81
832,8	101,21
833,3	99,695
833,7	102,867
834,1	99,81
834,6	94,152
835	93,124
835,4	93,581
835,8	88,381
836,3	86,667
836,7	86,867
837,1	84,181
837,6	89,581
838	86,752
838,4	85,352
838,9	90,438
839,3	88,038
839,7	91,838
840,1	90,981
840,6	89,695
841	90,924
841,4	90,752
841,9	89,724
842,3	93,495
842,7	87,724
843,1	88,495
843,6	87,838
844	87,724
844,4	84,552
844,9	84,01
845,3	82,552
845,7	82,21
846,2	82,324
846,6	80,838
847	78,21
847,4	80,524
847,9	80,981
848,3	76,295
848,7	76,21
849,2	74,724
849,6	68,981
850	72,638
850,4	70,581
850,9	70,752
851,3	72,924
851,7	75,638
852,2	77,124
852,6	86,838
853	84,067
853,4	85,581
853,9	81,524
854,3	81,838
854,7	79,324
855,2	76,21
855,6	69,981
856	64,924
856,4	61,924
856,9	61,267
857,3	60,41
857,7	59,238
858,2	64,667
858,6	64,295
859	66,438
859,4	65,724
859,9	66,952
860,3	67,495
860,7	68,924
861,1	64,638
861,6	63,01
862	63,124
862,4	62,295
862,9	61,495
863,3	58,524
863,7	56,667
864,1	57,352
864,6	58,638
865	55,952
865,4	53,21
865,9	53,552
866,3	47,895
866,7	44,724
867,1	39,438
867,6	38,124
868	37,238
868,4	38,867
868,8	39,838
869,3	44,095
869,7	50,895
870,1	53,41
870,6	52,752
871	-19,219
871,4	-15,248
871,8	-14,819
872,3	-12,99
872,7	-18,848
873,1	-16,276
873,5	-15,676
874	56,41
874,4	53,695
874,8	48,952
875,3	46,952
875,7	45,467
876,1	43,81
876,5	43,038
877	43,438
877,4	40,495
877,8	46,41
878,2	51,495
878,7	56,01
879,1	55,238
879,5	58,267
879,9	59,152
880,4	61,667
880,8	54,238
881,2	46,038
881,7	42,952
882,1	42,095
882,5	39,467
882,9	38,152
883,4	34,238
883,8	39,238
884,2	39,781
884,6	38,152
885,1	40,467
885,5	39,41
885,9	42,638
886,3	42,838
886,8	39,638
887,2	39,21
887,6	38,895
888	37,952
888,5	36,61
888,9	32,838
889,3	30,638
889,8	28,295
890,2	30,352
890,6	27,152
891	25,61
891,5	27,095
891,9	28,038
892,3	33,781
892,7	34,381
893,2	37,438
893,6	44,295
894	45,295
894,4	44,01
894,9	45,124
895,3	40,495
895,7	44,381
896,1	39,238
896,6	37,295
897	39,581
897,4	44,752
897,8	44,838
898,3	47,01
898,7	43,438
899,1	45,524
899,5	43,067
900	34,381
900,4	31,01
900,8	26,181
901,2	23,752
901,7	21,124
902,1	22,867
902,5	25,524
902,9	25,181
903,4	27,181
903,8	26,752
904,2	24,438
904,6	28,352
905,1	28,267
905,5	26,724
905,9	30,752
906,3	27,752
906,8	31,695
907,2	37,352
907,6	35,952
908	34,01
908,5	32,181
908,9	30,638
909,3	26,467
909,7	26,067
910,2	24,81
910,6	27,695
911	23,695
911,4	28,095
911,9	26,295
912,3	26,895
912,7	30,924
913,1	31,152
913,6	25,467
914	29,152
914,4	24,838
914,8	30,01
915,3	29,781
915,7	21,181
916,1	20,867
916,5	21,095
916,9	19,695
917,4	22,467
917,8	24,324
918,2	24,295
918,6	24,895
919,1	23,552
919,5	25,867
919,9	25,895
920,3	23,467
920,8	18,324
921,2	18,695
921,6	21,295
922	21,067
922,5	18,552
922,9	16,781
923,3	13,352
923,7	14,924
924,2	13,21
924,6	13,124
925	16,381
925,4	17,152
925,8	18,724
926,3	19,61
926,7	18,267
927,1	19,667
927,5	20,067
928	14,81
928,4	15,324
928,8	16,038
929,2	14,638
929,7	15,295
930,1	16,724
930,5	13,038
930,9	18,381
931,3	18,295
931,8	18,352
932,2	25,067
932,6	24,181
933	18,124
933,5	21,381
933,9	22,152
934,3	21,81
934,7	19,838
935,2	18,295
935,6	19,21
936	25,295
936,4	27,581
936,8	26,095
937,3	26,181
937,7	29,181
938,1	33,21
938,5	28,81
939	26,067
939,4	23,067
939,8	17,124
940,2	15,581
940,6	17,752
941,1	11,581
941,5	20,438
941,9	20,781
942,3	23,295
942,8	23,438
943,2	26,638
943,6	22,495
944	26,552
944,4	21,038
944,9	19,667
945,3	18,467
945,7	17,867
946,1	9,41
946,6	10,381
947	3,352
947,4	5,41
947,8	8,495
948,2	7,01
948,7	12,638
949,1	17,238
949,5	20,267
949,9	23,438
950,3	23,667
950,8	23,924
951,2	21,838
951,6	18,61
952	21,981
952,5	13,895
952,9	13,124
953,3	10,981
953,7	10,41
954,1	15,667
954,6	15,781
955	16,295
955,4	16,324
955,8	18,495
956,2	16,41
956,7	13,01
957,1	6,838
957,5	9,695
957,9	10,867
958,3	14,267
958,8	15,381
959,2	20,21
959,6	25,524
960	26,924
960,5	28,038
960,9	24,781
961,3	21,638
961,7	17,724
962,1	17,895
962,6	17,781
963	19,181
963,4	10,524
963,8	11,952
964,2	15,295
964,7	15,038
965,1	14,581
965,5	10,752
965,9	8,152
966,3	15,295
966,8	11,81
967,2	9,295
967,6	6,581
968	2,924
968,4	4,21
968,9	6,381
969,3	7,381
969,7	8,61
970,1	13,81
970,5	17,81
971	18,352
971,4	20,152
971,8	17,495
972,2	16,352
972,6	16,295
973,1	15,324
973,5	15,981
973,9	18,667
974,3	18,295
974,7	21,895
975,2	22,381
975,6	21,752
976	16,781
976,4	14,067
976,8	11,067
977,3	5,81
977,7	5,21
978,1	2,41
978,5	3,181
978,9	2,267
979,4	1,638
979,8	-0,362
980,2	4,152
980,6	-1,99
981	1,81
981,5	0,381
981,9	2,981
982,3	4,61
982,7	10,181
983,1	5,01
983,6	14,724
984	16,152
984,4	15,924
984,8	16,438
985,2	19,41
985,6	14,467
986,1	19,41
986,5	16,067
986,9	8,381
987,3	13,781
987,7	13,21
988,2	11,295
988,6	15,581
989	15,238
989,4	11,667
989,8	15,838
990,3	11,952
990,7	13,01
991,1	13,438
991,5	13,067
991,9	16,41
992,3	23,61
992,8	25,381
993,2	24,095
993,6	27,324
994	27,552
994,4	28,981
994,9	24,61
995,3	20,895
995,7	18,352
996,1	16,981
996,5	13,552
996,9	10,467
997,4	11,01
997,8	6,61
998,2	4,924
998,6	-1,048
999	-0,105
999,5	-0,79
999,9	0,152
1000,3	-1,876
1000,7	2,838
1001,1	3,581
1001,5	9,867
1002	14,838
1002,4	14,238
1002,8	13,952
1003,2	11,124
1003,6	14,381
1004	18,667
1004,5	14,581
1004,9	12,267
1005,3	10,724
1005,7	10,438
1006,1	11,01
1006,6	10,238
1007	9,381
1007,4	9,495
1007,8	7,21
1008,2	5,724
1008,6	7,495
1009,1	7,924
1009,5	6,01
1009,9	3,667
1010,3	8,324
1010,7	12,181
1011,1	12,781
1011,6	12,267
1012	13,838
1012,4	13,61
1012,8	13,295
1013,2	14,495
1013,6	13,924
1014,1	17,752
1014,5	17,838
1014,9	18,038
1015,3	13,695
1015,7	15,724
1016,1	12,924
1016,6	13,01
1017	16,238
1017,4	18,038
1017,8	15,924
1018,2	24,495
1018,6	17,21
1019,1	17,781
1019,5	17,838
1019,9	14,552
1020,3	14,524
1020,7	16,552
1021,1	12,181
1021,6	15,981
1022	21,238
1022,4	22,638
1022,8	25,552
1023,2	23,21
1023,6	20,952
1024,1	29,695
1024,5	30,41
1024,9	23,638
1025,3	20,124
1025,7	19,81
1026,1	22,152
1026,6	22,352
1027	13,095
1027,4	18,495
1027,8	19,524
1028,2	17,067
1028,6	17,095
1029	14,61
1029,5	15,81
1029,9	16,581
1030,3	12,267
1030,7	13,152
1031,1	17,524
1031,5	10,524
1032	8,038
1032,4	9,295
1032,8	10,867
1033,2	10,61
1033,6	6,381
1034	3,181
1034,4	6,495
1034,9	9,867
1035,3	8,41
1035,7	13,038
1036,1	12,438
1036,5	12,895
1036,9	14,01
1037,4	15,838
1037,8	10,152
1038,2	8,295
1038,6	2,581
1039	6,01
1039,4	11,238
1039,8	9,952
1040,3	10,581
1040,7	15,981
1041,1	17,638
1041,5	16,01
1041,9	9,81
1042,3	5,152
1042,7	10,152
1043,2	7,181
1043,6	4,124
1044	3,124
1044,4	6,467
1044,8	10,667
1045,2	13,467
1045,6	10,381
1046,1	16,01
1046,5	15,552
1046,9	13,981
1047,3	12,895
1047,7	11,724
1048,1	8,724
1048,5	7,752
1049	6,124
1049,4	14,067
1049,8	21,238
1050,2	24,524
1050,6	27,324
1051	28,752
1051,4	26,695
1051,9	24,867
1052,3	27,495
1052,7	22,467
1053,1	16,924
1053,5	17,295
1053,9	19,724
1054,3	21,124
1054,8	23,581
1055,2	21,781
1055,6	27,781
1056	32,095
1056,4	31,324
1056,8	32,952
1057,2	33,381
1057,6	29,152
1058,1	23,81
1058,5	14,552
1058,9	10,895
1059,3	15,81
1059,7	11,324
1060,1	11,438
1060,5	14,438
1061	14,781
1061,4	18,752
1061,8	22,695
1062,2	16,552
1062,6	20,067
1063	20,095
1063,4	20,124
1063,8	20,238
1064,3	14,467
1064,7	12,238
1065,1	10,638
1065,5	5,152
1065,9	6,352
1066,3	4,981
1066,7	1,838
1067,1	2,467
1067,6	4,21
1068	0,895
1068,4	5,381
1068,8	5,581
1069,2	5,695
1069,6	7,752
1070	15,467
1070,4	7,524
1070,9	7,895
1071,3	3,981
1071,7	4,581
1072,1	4,238
1072,5	1,181
1072,9	-0,333
1073,3	6,124
1073,7	6,181
1074,2	10,267
1074,6	10,238
1075	7,695
1075,4	15,61
1075,8	17,838
1076,2	16,467
1076,6	19,295
1077	15,352
1077,5	16,61
1077,9	17,324
1078,3	12,81
1078,7	8,581
1079,1	10,724
1079,5	11,238
1079,9	15,381
1080,3	11,638
1080,7	11,924
1081,2	20,467
1081,6	18,838
1082	19,638
1082,4	22,41
1082,8	20,752
1083,2	21,667
1083,6	24,01
1084	16,524
1084,5	16,124
1084,9	10,524
1085,3	2,01
1085,7	0,124
1086,1	-0,619
1086,5	-0,59
1086,9	5,324
1087,3	6,981
1087,7	8,381
1088,2	16,667
1088,6	18,21
1089	20,638
1089,4	19,524
1089,8	14,124
1090,2	14,381
1090,6	14,838
1091	15,924
1091,4	15,21
1091,9	13,61
1092,3	14,724
1092,7	10,695
1093,1	11,438
1093,5	10,724
1093,9	6,095
1094,3	11,552
1094,7	12,238
1095,1	15,981
1095,5	18,667
1096	13,41
1096,4	15,095
1096,8	16,181
1097,2	13,41
1097,6	18,81
1098	12,952
1098,4	13,81
1098,8	21,495
1099,2	25,781
1099,6	24,01
1100,1	23,752
1100,5	16,267
1100,9	15,952
1101,3	17,981
1101,7	14,952
1102,1	10,467
1102,5	12,524
1102,9	11,81
1103,3	15,81
1103,7	17,752
1104,2	13,924
1104,6	16,267
1105	13,781
1105,4	13,067
1105,8	10,381
1106,2	6,295
1106,6	3,724
1107	3,752
1107,4	-0,133
1107,8	1,667
1108,3	-1,033
