Data from Subt2_137.txt Node
Date: Sat Aug 26 18:28:03 MSK 2023
User: vat
Spectrometer: MAYP114033
Trigger mode: 0
Integration Time (sec): 1,000000E0
Scans to average: 5
Electric dark correction enabled: true
Nonlinearity correction enabled: false
Boxcar width: 3
XAxis mode: Wavelengths
Number of Pixels in Spectrum: 2068
>>>>>Begin Spectral Data<<<<<
199,4	0,5
199,9	0,42
200,4	0,633
200,8	1,586
201,3	1,471
201,8	4,3
202,2	1,843
202,7	5,157
203,2	4,329
203,6	1,529
204,1	2,529
204,6	1,386
205	-0,986
205,5	3,071
206	0,557
206,4	3,014
206,9	1,414
207,4	-0,157
207,8	0,871
208,3	2,757
208,8	0,814
209,2	3,529
209,7	3,614
210,2	9,7
210,6	6,529
211,1	6,471
211,5	3,586
212	2,414
212,5	-1,957
212,9	-3,843
213,4	-7,014
213,9	-7,9
214,3	-5,814
214,8	-1,7
215,3	-2,757
215,7	2,5
216,2	1,986
216,7	3,243
217,1	3,871
217,6	5,757
218,1	2,7
218,5	1,557
219	-4,243
219,5	-4,729
219,9	-5,643
220,4	-1,729
220,9	-5,386
221,3	-4,9
221,8	0,329
222,3	4,871
222,7	9,386
223,2	10,186
223,6	9,129
224,1	6,129
224,6	4,329
225	-0,871
225,5	-2,586
226	-6,214
226,4	-7,271
226,9	-6,386
227,4	-2,929
227,8	-6,157
228,3	-2,3
228,8	-4,7
229,2	-4,071
229,7	-2,929
230,2	-3,614
230,6	-3,271
231,1	4,929
231,5	5,471
232	7,329
232,5	6,071
232,9	8,186
233,4	11,529
233,9	9,5
234,3	4,3
234,8	5,586
235,3	2,929
235,7	4,786
236,2	3,071
236,7	1,9
237,1	5,529
237,6	2,129
238,1	-4,129
238,5	-5,529
239	-5,386
239,4	-3,7
239,9	-4,986
240,4	-5,871
240,8	-0,614
241,3	2,814
241,8	4,643
242,2	1,3
242,7	-1,214
243,2	-0,9
243,6	-1,214
244,1	0,3
244,6	2,271
245	3,129
245,5	7,071
245,9	4,471
246,4	5,671
246,9	5,814
247,3	6,586
247,8	5,357
248,3	7,671
248,7	4,5
249,2	9,071
249,7	4,357
250,1	4,186
250,6	-0,443
251	1,357
251,5	1,071
252	2,214
252,4	-1,843
252,9	-2,043
253,4	-5,871
253,8	-5,414
254,3	-7,414
254,8	-7,157
255,2	-11,214
255,7	-8,843
256,1	-6,871
256,6	-3,271
257,1	-0,1
257,5	-2,129
258	-4,443
258,5	2,843
258,9	3,357
259,4	3,843
259,9	1,186
260,3	-3,071
260,8	-0,386
261,2	-1,843
261,7	-7,986
262,2	-13,071
262,6	-15,557
263,1	-11,329
263,6	-10,014
264	-7,1
264,5	-1,329
264,9	2,414
265,4	11,186
265,9	10,243
266,3	9,814
266,8	14,586
267,3	8,557
267,7	3,271
268,2	1,729
268,7	-2,414
269,1	-4,586
269,6	-10,014
270	-10,757
270,5	-9,843
271	-9,957
271,4	-7,871
271,9	-13,786
272,4	-6,386
272,8	-2,757
273,3	-7,5
273,7	-4,786
274,2	-3,271
274,7	-8,186
275,1	-0,614
275,6	-4,157
276,1	-6,814
276,5	-3,7
277	-5,243
277,4	-5,357
277,9	-1,9
278,4	-3,329
278,8	3,443
279,3	6,386
279,8	9,471
280,2	10,014
280,7	10,757
281,1	7,843
281,6	8,9
282,1	3,214
282,5	2,129
283	-2,814
283,4	-4,814
283,9	-2,471
284,4	4,671
284,8	2,214
285,3	1,557
285,8	2,157
286,2	2,243
286,7	3,871
287,1	0,957
287,6	-3,014
288,1	-4,643
288,5	-2,357
289	-1,386
289,5	-2,186
289,9	-4,757
290,4	-2,043
290,8	-3,271
291,3	1,871
291,8	5,3
292,2	3,3
292,7	5,129
293,1	4,814
293,6	5,443
294,1	8,729
294,5	7,071
295	1,957
295,5	0,814
295,9	2,214
296,4	3,643
296,8	-2,157
297,3	-3,643
297,8	-8,386
298,2	-11,214
298,7	-4,5
299,1	-7,186
299,6	-10,7
300,1	-8,129
300,5	-5,671
301	-0,786
301,5	6,357
301,9	-1,557
302,4	-1,157
302,8	3,3
303,3	3,329
303,8	-3,243
304,2	-4,586
304,7	-8,243
305,1	-8,786
305,6	-8,243
306,1	-4,643
306,5	-0,5
307	8,929
307,4	10,443
307,9	9,529
308,4	11,786
308,8	8,386
309,3	7,414
309,8	0,414
310,2	-2,7
310,7	-6,043
311,1	-5,157
311,6	-0,957
312,1	4,271
312,5	3,014
313	6,529
313,4	3,7
313,9	7,586
314,4	6,757
314,8	-0,757
315,3	-0,871
315,7	-5,214
316,2	-6,271
316,7	-3,3
317,1	-2,386
317,6	-2,729
318	3,529
318,5	-1,386
319	-0,329
319,4	0,386
319,9	1,471
320,3	-1,043
320,8	-1,757
321,3	-2,471
321,7	2,186
322,2	1,214
322,6	5,043
323,1	-1,014
323,6	-1,871
324	1,329
324,5	-0,786
324,9	0,243
325,4	2,357
325,9	0,1
326,3	4,243
326,8	5,757
327,2	-0,186
327,7	-0,186
328,2	-5,414
328,6	0,1
329,1	-4,186
329,5	-5,014
330	-7,271
330,5	-1,414
330,9	2,786
331,4	5,271
331,8	2,357
332,3	5,386
332,8	5,414
333,2	6,386
333,7	6,271
334,1	4,329
334,6	-0,557
335,1	-6,843
335,5	-8,386
336	-13,071
336,4	-11,586
336,9	-3,7
337,4	-1,614
337,8	2,9
338,3	7,671
338,7	11,186
339,2	13,986
339,7	16,014
340,1	4,986
340,6	3,671
341	5,586
341,5	7,357
342	5,643
342,4	6,643
342,9	5,871
343,3	9,1
343,8	3,586
344,2	4,043
344,7	6,871
345,2	4,3
345,6	4,214
346,1	5,043
346,5	1,814
347	4,329
347,5	1,157
347,9	-0,786
348,4	1,614
348,8	2,757
349,3	1,671
349,8	4,9
350,2	13,129
350,7	12,414
351,1	13,786
351,6	17,1
352	17,414
352,5	21,157
353	28,357
353,4	26,214
353,9	34,557
354,3	43,357
354,8	50,757
355,3	67,871
355,7	82,3
356,2	94,386
356,6	114,7
357,1	138,557
357,5	164,529
358	191,7
358,5	216,529
358,9	246,871
359,4	285,643
359,8	325,786
360,3	374,243
360,8	420,443
361,2	477,614
361,7	545,671
362,1	625,071
362,6	702,1
363	787,3
363,5	877,1
364	977,014
364,4	1076,643
364,9	1176,7
365,3	1268,843
365,8	1363,529
366,3	1453,129
366,7	1528,786
367,2	1598,471
367,6	1655,557
368,1	1700,643
368,5	1733,586
369	1746,529
369,5	1751,414
369,9	1742,529
370,4	1712,557
370,8	1677,271
371,3	1622,786
371,7	1566,871
372,2	1505,671
372,7	1434,643
373,1	1356,3
373,6	1278,157
374	1201,186
374,5	1124,443
374,9	1043,729
375,4	966,471
375,9	893,843
376,3	825,186
376,8	757,9
377,2	699,443
377,7	643,986
378,2	586,243
378,6	541,243
379,1	491,157
379,5	454,329
380	418,157
380,4	374,671
380,9	344,9
381,4	316,871
381,8	290,986
382,3	270,786
382,7	252,586
383,2	236,329
383,6	223,129
384,1	208,214
384,6	198,1
385	184,1
385,5	170,957
385,9	155,386
386,4	146,471
386,8	138,3
387,3	126,157
387,7	116,557
388,2	111,157
388,7	105,014
389,1	97,186
389,6	89,357
390	84,071
390,5	77,614
390,9	74,671
391,4	67,329
391,9	63,9
392,3	61,929
392,8	54,271
393,2	43,386
393,7	42,129
394,1	35,814
394,6	32,9
395,1	30,443
395,5	27,043
396	29,1
396,4	34,3
396,9	36,043
397,3	42,786
397,8	43,7
398,2	39,871
398,7	40,043
399,2	40,529
399,6	40,1
400,1	35,186
400,5	25,671
401	23,871
401,4	21,443
401,9	22,243
402,4	24,786
402,8	20,071
403,3	25,329
403,7	29,214
404,2	32,843
404,6	41,729
405,1	40,614
405,5	35,243
406	39,186
406,5	35,643
406,9	38,014
407,4	36,014
407,8	36,614
408,3	45,243
408,7	48,643
409,2	55,757
409,6	65,243
410,1	70,186
410,6	82,186
411	85,071
411,5	85,843
411,9	95,557
412,4	99,243
412,8	103,814
413,3	109,443
413,7	106,243
414,2	108,186
414,7	117,5
415,1	128,5
415,6	138,3
416	139,757
416,5	145,986
416,9	154,929
417,4	169,957
417,8	180,643
418,3	186,357
418,8	199,214
419,2	213,243
419,7	224,7
420,1	237,786
420,6	248,5
421	254,357
421,5	269,386
421,9	279,786
422,4	292,186
422,8	306,443
423,3	319,014
423,8	331,414
424,2	347,329
424,7	361,7
425,1	372,814
425,6	395,243
426	410,986
426,5	432,757
426,9	456,443
427,4	477,043
427,9	496,9
428,3	522,043
428,8	543,843
429,2	571,729
429,7	599,786
430,1	625,929
430,6	655,614
431	686,986
431,5	723,7
431,9	757,271
432,4	795,214
432,8	831,957
433,3	875,843
433,8	922,586
434,2	968,357
434,7	1016,043
435,1	1067,871
435,6	1116,7
436	1169,814
436,5	1225,186
436,9	1277,757
437,4	1342,414
437,8	1405,7
438,3	1465,357
438,8	1534,7
439,2	1607,129
439,7	1682,671
440,1	1761,5
440,6	1838,157
441	1910,243
441,5	1997,043
441,9	2085,014
442,4	2174,471
442,8	2257,014
443,3	2354,014
443,7	2449,529
444,2	2558,414
444,7	2662,271
445,1	2767,214
445,6	2874,757
446	2994,529
446,5	3107,7
446,9	3221,529
447,4	3343,757
447,8	3469,386
448,3	3599,757
448,7	3733,414
449,2	3864,443
449,6	4001,614
450,1	4139,529
450,6	4285,157
451	4423,3
451,5	4571,671
451,9	4722,7
452,4	4887,414
452,8	5042,586
453,3	5206,786
453,7	5363,3
454,2	5531,129
454,6	5693,186
455,1	5860,5
455,5	6018,929
456	6192,1
456,4	6366,071
456,9	6540,443
457,3	6725,271
457,8	6899,014
458,3	7075,529
458,7	7266,7
459,2	7451,671
459,6	7641,643
460,1	7837,614
460,5	8022,071
461	8220,214
461,4	8415,471
461,9	8594,729
462,3	8784,757
462,8	8974,786
463,2	9165,157
463,7	9361,871
464,1	9556,5
464,6	9749,214
465	9952,014
465,5	10146,271
466	10336,129
466,4	10517,929
466,9	10707,3
467,3	10890,643
467,8	11076,5
468,2	11267,957
468,7	11448,614
469,1	11633,386
469,6	11827,414
470	12008,443
470,5	12189,843
470,9	12361,357
471,4	12533,329
471,8	12708,386
472,3	12869,957
472,7	13035,671
473,2	13191,843
473,6	13351,986
474,1	13515,957
474,5	13668,7
475	13821,014
475,4	13973,757
475,9	14116,071
476,4	14261,786
476,8	14406,129
477,3	14535,729
477,7	14665,443
478,2	14783,529
478,6	14911,014
479,1	15017,929
479,5	15132,157
480	15232,529
480,4	15351,129
480,9	15430,5
481,3	15522,129
481,8	15605,557
482,2	15686,271
482,7	15756,186
483,1	15827,443
483,6	15887,7
484	15964,243
484,5	16031,443
484,9	16084,471
485,4	16133,929
485,8	16175,014
486,3	16217,414
486,7	16245,443
487,2	16274,014
487,6	16295,5
488,1	16316,929
488,5	16338,586
489	16354,186
489,4	16359,557
489,9	16355,043
490,4	16355,129
490,8	16349,471
491,3	16336,1
491,7	16313,1
492,2	16293,386
492,6	16262,1
493,1	16237,929
493,5	16183,5
494	16147,243
494,4	16110,871
494,9	16075,986
495,3	16033,614
495,8	15978,643
496,2	15930,129
496,7	15887,643
497,1	15836,529
497,6	15774,186
498	15706,329
498,5	15639,186
498,9	15573,329
499,4	15509,729
499,8	15431,871
500,3	15351,7
500,7	15271,671
501,2	15194,071
501,6	15099,586
502,1	15024,414
502,5	14938,243
503	14855,386
503,4	14767,929
503,9	14678,443
504,3	14587,929
504,8	14495,786
505,2	14399,729
505,7	14290,357
506,1	14195,386
506,6	14077,757
507	13977,129
507,5	13865,9
507,9	13766,071
508,4	13657,843
508,8	13546,443
509,3	13432,986
509,7	13338,757
510,2	13224,129
510,6	13109,957
511,1	12995,014
511,5	12883,471
512	12767,357
512,4	12661,871
512,9	12538,414
513,3	12425,986
513,8	12306,843
514,2	12188,243
514,7	12069,671
515,1	11950,871
515,6	11824,786
516	11702,071
516,5	11568,7
516,9	11458,357
517,4	11347,357
517,8	11227,186
518,3	11120,329
518,7	11001,671
519,2	10891,471
519,6	10782,014
520,1	10661,843
520,5	10542,986
521	10419,386
521,4	10297,786
521,9	10197,729
522,3	10083,786
522,8	9970,329
523,2	9863,529
523,7	9748,843
524,1	9641,443
524,6	9529,757
525	9411,157
525,5	9307,957
525,9	9210,9
526,4	9107,129
526,8	9003,986
527,3	8915,214
527,7	8821,929
528,2	8726,414
528,6	8624,214
529,1	8523,271
529,5	8422,271
530	8327,329
530,4	8224,671
530,9	8129,014
531,3	8032,129
531,8	7946,071
532,2	7852,786
532,6	7764,5
533,1	7672,014
533,5	7587,357
534	7497,386
534,4	7410,443
534,9	7320,643
535,3	7232,271
535,8	7148,443
536,2	7070,3
536,7	6989,957
537,1	6913,529
537,6	6836,729
538	6763,271
538,5	6696,1
538,9	6616,129
539,4	6549,671
539,8	6468,157
540,3	6402,414
540,7	6334,3
541,2	6256,443
541,6	6181,129
542,1	6110,129
542,5	6034,671
543	5973,9
543,4	5902,786
543,9	5825,9
544,3	5761,929
544,8	5700,871
545,2	5643,871
545,7	5586,9
546,1	5526,929
546,5	5471,9
547	5417,214
547,4	5363,729
547,9	5297,957
548,3	5246,786
548,8	5188,529
549,2	5131,214
549,7	5060,5
550,1	5009,386
550,6	4950,157
551	4910,414
551,5	4854,1
551,9	4803,271
552,4	4754,786
552,8	4717,1
553,3	4663,129
553,7	4618,757
554,2	4569,186
554,6	4522,671
555,1	4478,1
555,5	4433,586
555,9	4389,071
556,4	4348,014
556,8	4302,071
557,3	4256,843
557,7	4220,957
558,2	4182,157
558,6	4144,186
559,1	4102,271
559,5	4065,614
560	4035,929
560,4	3998,357
560,9	3957,643
561,3	3920,043
561,8	3877,757
562,2	3841,7
562,7	3803,729
563,1	3765,043
563,6	3721,3
564	3687,243
564,4	3648,814
564,9	3617,843
565,3	3586,329
565,8	3556,7
566,2	3523,671
566,7	3503,214
567,1	3467,814
567,6	3439,929
568	3411,414
568,5	3380,386
568,9	3347,843
569,4	3321,986
569,8	3296,929
570,3	3269,5
570,7	3237,586
571,1	3203,9
571,6	3182,5
572	3162,843
572,5	3129,757
572,9	3097,557
573,4	3077,043
573,8	3054,471
574,3	3031,3
574,7	3002,414
575,2	2968,986
575,6	2947,071
576,1	2925,014
576,5	2896,757
576,9	2866,957
577,4	2840,7
577,8	2816,557
578,3	2796,614
578,7	2767,414
579,2	2746,271
579,6	2718,414
580,1	2697,643
580,5	2684,5
581	2662,986
581,4	2642,014
581,9	2625,671
582,3	2598,043
582,7	2580,414
583,2	2562,929
583,6	2536,3
584,1	2514,443
584,5	2490,9
585	2468,5
585,4	2444,443
585,9	2423,529
586,3	2401,757
586,8	2387,814
587,2	2367,243
587,6	2353,329
588,1	2342,871
588,5	2330,214
589	2313,214
589,4	2292,729
589,9	2269,014
590,3	2253,843
590,8	2233,329
591,2	2212,071
591,7	2203,757
592,1	2188,814
592,5	2176,414
593	2164,757
593,4	2146,443
593,9	2126,014
594,3	2107,786
594,8	2084,614
595,2	2065,186
595,7	2050,014
596,1	2037,329
596,6	2027,9
597	2020,1
597,4	2010,814
597,9	1998,814
598,3	1992,586
598,8	1982,986
599,2	1964,843
599,7	1948,471
600,1	1928,443
600,6	1918,557
601	1902,529
601,4	1897,014
601,9	1881,9
602,3	1867,186
602,8	1858,9
603,2	1857,243
603,7	1837,529
604,1	1831,243
604,6	1811,814
605	1801,671
605,4	1794,671
605,9	1779,043
606,3	1759,671
606,8	1743,814
607,2	1727,671
607,7	1711,014
608,1	1699,471
608,6	1685,443
609	1680,757
609,4	1673,871
609,9	1667,843
610,3	1658,214
610,8	1647,986
611,2	1636,471
611,7	1623,757
612,1	1602,757
612,6	1596,329
613	1584,671
613,4	1569,129
613,9	1561,271
614,3	1550,186
614,8	1543,871
615,2	1536,586
615,7	1523,357
616,1	1513,929
616,6	1506,214
617	1492,843
617,4	1486,3
617,9	1477,071
618,3	1467,243
618,8	1457,843
619,2	1444,871
619,7	1439,1
620,1	1427,186
620,5	1419,586
621	1401,157
621,4	1394,757
621,9	1384,814
622,3	1381,843
622,8	1370,386
623,2	1362,643
623,6	1349,243
624,1	1351,043
624,5	1341,071
625	1332,414
625,4	1317,757
625,9	1308,7
626,3	1302,129
626,8	1288,243
627,2	1273,557
627,6	1259,329
628,1	1244,3
628,5	1240,757
629	1229,729
629,4	1222,814
629,9	1220,643
630,3	1209,529
630,7	1202,471
631,2	1197,186
631,6	1190,129
632,1	1182,386
632,5	1173,329
633	1165,529
633,4	1161,186
633,8	1155,043
634,3	1149,929
634,7	1140,157
635,2	1129,186
635,6	1117,929
636,1	1107,214
636,5	1096,757
636,9	1085,1
637,4	1073,843
637,8	1057,071
638,3	1049,671
638,7	1045,414
639,2	1035,929
639,6	1029,243
640	1021,443
640,5	1016,9
640,9	1015,071
641,4	1009,071
641,8	999,7
642,2	994,729
642,7	992,843
643,1	990,9
643,6	984,329
644	980,357
644,5	974,7
644,9	971,957
645,3	965,557
645,8	952,929
646,2	946,529
646,7	940,671
647,1	931,5
647,6	927,414
648	923,1
648,4	914,529
648,9	914,243
649,3	907,214
649,8	901,871
650,2	897,3
650,6	892,214
651,1	882,7
651,5	883,786
652	878,357
652,4	869,214
652,9	859,786
653,3	853,386
653,7	848,557
654,2	843,871
654,6	831,443
655,1	826,871
655,5	830,671
655,9	826,814
656,4	825,471
656,8	816,614
657,3	812,414
657,7	809,243
658,2	797,957
658,6	785,5
659	781,186
659,5	769,643
659,9	767,957
660,4	760,014
660,8	751,043
661,2	743,671
661,7	742,186
662,1	736,157
662,6	736,757
663	728,614
663,4	724,729
663,9	723,043
664,3	720,329
664,8	712,214
665,2	705,1
665,6	698,557
666,1	699,7
666,5	693,9
667	690,186
667,4	685,757
667,9	683,3
668,3	680,3
668,7	672,557
669,2	667,243
669,6	663,643
670,1	654,1
670,5	650,443
670,9	646,043
671,4	644,157
671,8	643,271
672,3	636,614
672,7	636,729
673,1	631,986
673,6	626,157
674	623,186
674,5	612,586
674,9	602,557
675,3	595,243
675,8	584,986
676,2	581,014
676,7	574,671
677,1	566,586
677,5	561,7
678	562,071
678,4	557,814
678,9	554,014
679,3	552,443
679,7	551,471
680,2	544,7
680,6	541,7
681,1	535,414
681,5	535,271
681,9	533,271
682,4	530,643
682,8	527,386
683,3	530,814
683,7	533,043
684,1	532,814
684,6	524,529
685	517,186
685,5	512,986
685,9	503,729
686,3	494,586
686,8	487,729
687,2	482,271
687,7	481,414
688,1	474,5
688,5	471,843
689	471,014
689,4	471,786
689,9	473,986
690,3	467,586
690,7	463,414
691,2	464,329
691,6	460,214
692	459,243
692,5	454,729
692,9	445,9
693,4	442,014
693,8	436,529
694,2	432,529
694,7	429,129
695,1	424,386
695,6	422,843
696	420,071
696,4	420,243
696,9	412,929
697,3	410,614
697,8	409,414
698,2	405,157
698,6	403,414
699,1	399,014
699,5	399,471
699,9	403,071
700,4	399,9
700,8	400,043
701,3	400,157
701,7	391,614
702,1	387,214
702,6	378,329
703	372,986
703,5	370,557
703,9	362,557
704,3	362,614
704,8	362,243
705,2	358,3
705,6	360,386
706,1	360,1
706,5	356,957
707	354,814
707,4	351,157
707,8	346,186
708,3	351,014
708,7	347,186
709,2	345,9
709,6	342,557
710	346,043
710,5	337,071
710,9	335,071
711,3	331,9
711,8	332,614
712,2	330,3
712,7	329,614
713,1	322,843
713,5	327,043
714	330,557
714,4	325,986
714,8	319,7
715,3	314,557
715,7	316,329
716,2	312,614
716,6	309,243
717	299,586
717,5	292,643
717,9	292,329
718,3	291,129
718,8	282,643
719,2	280,386
719,7	277,843
720,1	281,586
720,5	287,357
721	282,757
721,4	285,557
721,8	288,786
722,3	286,929
722,7	289,986
723,2	285,043
723,6	275,243
724	272,643
724,5	263,014
724,9	254,1
725,3	253,243
725,8	245,186
726,2	240,957
726,7	242,414
727,1	243,414
727,5	246,271
728	249,329
728,4	244,1
728,8	242,7
729,3	243,214
729,7	241,157
730,1	238,757
730,6	234,7
731	230,1
731,5	229,814
731,9	225,271
732,3	225,614
732,8	224,957
733,2	224,157
733,6	221,957
734,1	224,157
734,5	219,529
734,9	226,786
735,4	225,414
735,8	221,871
736,3	220,814
736,7	221,929
737,1	218,271
737,6	217,557
738	209,614
738,4	205,557
738,9	205,157
739,3	203,7
739,7	199,729
740,2	198,043
740,6	202,986
741,1	206,443
741,5	201,129
741,9	199,471
742,4	201,271
742,8	198,843
743,2	199,757
743,7	189,214
744,1	184,071
744,5	185,529
745	183,471
745,4	175,7
745,8	176,843
746,3	176,471
746,7	183,443
747,2	185,3
747,6	188,157
748	192,443
748,5	195,786
748,9	188,929
749,3	182,014
749,8	179,986
750,2	176,471
750,6	167,414
751,1	165,243
751,5	162,586
751,9	168,071
752,4	170,329
752,8	167,243
753,3	167,3
753,7	174,871
754,1	169,529
754,6	166,671
755	162,529
755,4	160,271
755,9	158,071
756,3	151,5
756,7	145,843
757,2	146,7
757,6	148,386
758	148,843
758,5	150,671
758,9	151,329
759,3	153,529
759,8	153,729
760,2	153,471
760,6	150,414
761,1	149,986
761,5	149,271
761,9	147,671
762,4	148,671
762,8	147,529
763,3	144,529
763,7	145,3
764,1	145,643
764,6	143,014
765	146,929
765,4	147,643
765,9	147,757
766,3	149,3
766,7	144,643
767,2	143,386
767,6	145,243
768	140,729
768,5	135,157
768,9	131,271
769,3	128,243
769,8	127,871
770,2	127,5
770,6	124,071
771,1	123,671
771,5	122,386
771,9	126,843
772,4	126,9
772,8	127,729
773,2	126,386
773,7	125,5
774,1	123,9
774,5	120,9
775	115,671
775,4	115,443
775,8	112,043
776,3	111,043
776,7	109,071
777,1	107,071
777,6	113,3
778	117,071
778,4	115,186
778,9	119,671
779,3	117,186
779,7	118,843
780,2	121,729
780,6	120,729
781	113,5
781,5	114,843
781,9	112,614
782,3	111,243
782,8	107,614
783,2	105,557
783,6	107,386
784,1	108,5
784,5	105,529
784,9	100,786
785,4	102,214
785,8	106,071
786,2	106,357
786,7	100,386
787,1	100,929
787,5	102,357
788	105,186
788,4	103,786
788,8	99,986
789,3	96,643
789,7	99,214
790,1	101,414
790,6	104,5
791	100,871
791,4	101,871
791,9	101,129
792,3	96,7
792,7	95,986
793,2	90,043
793,6	84,529
794	90,157
794,5	87,529
794,9	90,443
795,3	93,043
795,8	94,5
796,2	99,186
796,6	98,414
797,1	96,5
797,5	95,614
797,9	89,929
798,4	89,386
798,8	85,214
799,2	79,071
799,7	85,414
800,1	80,014
800,5	83,586
801	89,414
801,4	88,729
801,8	88,157
802,2	90,214
802,7	78,786
803,1	81,814
803,5	80,443
804	72,957
804,4	73,729
804,8	74,186
805,3	73,071
805,7	78,471
806,1	74,129
806,6	78,186
807	79,186
807,4	80,729
807,9	72,471
808,3	70,786
808,7	69,529
809,2	71,043
809,6	66,071
810	65,671
810,4	59,643
810,9	64,357
811,3	68,329
811,7	68,329
812,2	73,214
812,6	70,186
813	74,529
813,5	77,043
813,9	77,871
814,3	76,043
814,8	72,843
815,2	67,129
815,6	68,5
816,1	66,786
816,5	65,957
816,9	63,871
817,3	64,529
817,8	70,129
818,2	71,357
818,6	66,014
819,1	62,071
819,5	61,014
819,9	62,9
820,4	59,729
820,8	51,814
821,2	46,729
821,7	50,957
822,1	54,729
822,5	62,729
822,9	60,014
823,4	55,671
823,8	59,843
824,2	66,729
824,7	61,757
825,1	56,243
825,5	46,986
826	43,929
826,4	47,786
826,8	43,243
827,3	42,043
827,7	41,271
828,1	40,586
828,5	40,129
829	37,671
829,4	36,757
829,8	37,014
830,3	32,643
830,7	34,014
831,1	34,7
831,6	38,357
832	41,329
832,4	42,186
832,8	43,443
833,3	44,443
833,7	44,7
834,1	47,129
834,6	44,7
835	46,214
835,4	41,786
835,8	38,071
836,3	36,129
836,7	36,986
837,1	32,643
837,6	37,957
838	37,414
838,4	40,1
838,9	40,614
839,3	41,529
839,7	39,614
840,1	37,1
840,6	32,1
841	32,014
841,4	33,871
841,9	34,5
842,3	33,757
842,7	37,071
843,1	37,729
843,6	35,871
844	37,614
844,4	39,557
844,9	42,643
845,3	43,814
845,7	41,929
846,2	45,471
846,6	45,129
847	44,071
847,4	39,071
847,9	38,214
848,3	37,1
848,7	35,043
849,2	32,071
849,6	27,5
850	31,586
850,4	35,186
850,9	34,157
851,3	37,357
851,7	36,1
852,2	32,986
852,6	38,5
853	35,757
853,4	28,1
853,9	26,957
854,3	22,071
854,7	26,614
855,2	27,043
855,6	27,214
856	17,7
856,4	19,214
856,9	17,443
857,3	18,043
857,7	16,929
858,2	24,843
858,6	24,043
859	29,929
859,4	32,3
859,9	32,471
860,3	31,243
860,7	30,814
861,1	27,814
861,6	26,957
862	26,186
862,4	24,957
862,9	24,386
863,3	24,9
863,7	22,014
864,1	22,414
864,6	21,186
865	20,786
865,4	23,757
865,9	27,386
866,3	22,529
866,7	21,357
867,1	15,129
867,6	13,586
868	13,557
868,4	5,529
868,8	4,243
869,3	6,386
869,7	13,329
870,1	17,1
870,6	18,5
871	23,157
871,4	35,5
871,8	33,357
872,3	37,071
872,7	36,729
873,1	32,529
873,5	33,957
874	28,871
874,4	25,586
874,8	24,357
875,3	24,271
875,7	18,329
876,1	25,814
876,5	24,271
877	23,957
877,4	16,129
877,8	16,786
878,2	18,243
878,7	21,757
879,1	17,129
879,5	19,329
879,9	19,843
880,4	22,214
880,8	24,529
881,2	21,986
881,7	17,586
882,1	18,471
882,5	16,557
882,9	13,157
883,4	9,214
883,8	11,5
884,2	11,529
884,6	8,843
885,1	8,271
885,5	8,5
885,9	9,9
886,3	17,243
886,8	11,814
887,2	9,9
887,6	12,586
888	9,271
888,5	10,071
888,9	11,871
889,3	5,043
889,8	5,243
890,2	7,9
890,6	7,014
891	12,386
891,5	11,443
891,9	10,443
892,3	16,5
892,7	20,529
893,2	21,214
893,6	24,386
894	25,843
894,4	21,729
894,9	21,243
895,3	20,643
895,7	18,929
896,1	15,186
896,6	10,643
897	10,329
897,4	18,471
897,8	19,129
898,3	17,3
898,7	15,357
899,1	14,814
899,5	16,071
900	10,214
900,4	4,186
900,8	0,929
901,2	-0,014
901,7	0,1
902,1	5,157
902,5	10,843
902,9	12,843
903,4	16,871
903,8	20,557
904,2	19,643
904,6	15,814
905,1	12,014
905,5	6,929
905,9	7,957
906,3	9,271
906,8	13,271
907,2	15,414
907,6	21,443
908	25,186
908,5	25,1
908,9	19,557
909,3	15,214
909,7	11,843
910,2	12,986
910,6	15,757
911	11,271
911,4	13,3
911,9	16,5
912,3	14,814
912,7	12,243
913,1	11,557
913,6	7,014
914	11,786
914,4	7,757
914,8	9,129
915,3	8,157
915,7	9,3
916,1	4,9
916,5	3,586
916,9	-0,586
917,4	2,157
917,8	0,357
918,2	-0,529
918,6	-3,671
919,1	-2,071
919,5	-2,414
919,9	-3,871
920,3	-6,386
920,8	-8,9
921,2	-6,7
921,6	-5,157
922	-1,643
922,5	-1,214
922,9	1,643
923,3	-0,786
923,7	2,814
924,2	-2,1
924,6	0,386
925	0,129
925,4	0,929
925,8	-1,5
926,3	1,271
926,7	-1,214
927,1	3,157
927,5	4,357
928	0,671
928,4	-1,129
928,8	-2,386
929,2	-1,9
929,7	4,986
930,1	7,071
930,5	2,1
930,9	5,843
931,3	7,643
931,8	14,243
932,2	15,414
932,6	11,471
933	6,786
933,5	10,529
933,9	9,9
934,3	6,843
934,7	0,557
935,2	5,071
935,6	5,329
936	7,586
936,4	6,586
936,8	8,614
937,3	8,529
937,7	11,757
938,1	8,929
938,5	4,014
939	8,814
939,4	11,671
939,8	8,1
940,2	6,757
940,6	5,7
941,1	4,929
941,5	9,557
941,9	5,1
942,3	1,7
942,8	3,471
943,2	6,557
943,6	6,043
944	6,157
944,4	6,586
944,9	3,271
945,3	2,471
945,7	-5,443
946,1	-5,729
946,6	-4,5
947	-8,671
947,4	-5,386
947,8	-0,843
948,2	-2,271
948,7	4,471
949,1	3,729
949,5	5,757
949,9	9,529
950,3	6,214
950,8	4,586
951,2	3,243
951,6	0,214
952	2,7
952,5	-5,7
952,9	-6,414
953,3	-7,871
953,7	-10,157
954,1	-4,929
954,6	-1,443
955	-2,329
955,4	1,757
955,8	9,043
956,2	6,186
956,7	11,614
957,1	9,329
957,5	11,5
957,9	12,186
958,3	8,043
958,8	1,3
959,2	7,157
959,6	7,814
960	4,843
960,5	4,586
960,9	6,843
961,3	7,9
961,7	7,129
962,1	4,3
962,6	3,214
963	9,243
963,4	2,986
963,8	0,7
964,2	4,014
964,7	4,986
965,1	6,786
965,5	5,929
965,9	0,529
966,3	2,7
966,8	3,729
967,2	1,214
967,6	-2,7
968	-4,186
968,4	-4,729
968,9	-3,471
969,3	-0,157
969,7	-6,5
970,1	-2,871
970,5	1,214
971	6,043
971,4	5,586
971,8	6,5
972,2	6,014
972,6	11,243
973,1	10,7
973,5	10,9
973,9	8,1
974,3	8,071
974,7	11,386
975,2	12,386
975,6	10,986
976	14,471
976,4	9,729
976,8	6,643
977,3	6,129
977,7	2,729
978,1	2,414
978,5	1,986
978,9	-3,671
979,4	-3,529
979,8	-2,471
980,2	0,043
980,6	-1,243
981	-0,871
981,5	-5,329
981,9	-8,071
982,3	-6,529
982,7	-7,1
983,1	-10,1
983,6	-9,471
984	-12,414
984,4	-6,157
984,8	-2,643
985,2	-0,471
985,6	-1,5
986,1	1,986
986,5	4,957
986,9	1,043
987,3	2,014
987,7	4,757
988,2	2,1
988,6	3,929
989	-0,843
989,4	-4,7
989,8	-1,214
990,3	-4,957
990,7	-8,557
991,1	-7,843
991,5	-6,557
991,9	-2,614
992,3	1,414
992,8	3,329
993,2	4,043
993,6	7,7
994	9,843
994,4	8,357
994,9	7,729
995,3	4,357
995,7	1,729
996,1	-0,1
996,5	-0,614
996,9	-2,5
997,4	-0,586
997,8	-4,071
998,2	-5,1
998,6	-8,471
999	-4,986
999,5	-7,271
999,9	-10,7
1000,3	-13,929
1000,7	-10,443
1001,1	-9,957
1001,5	-3,671
1002	-1,871
1002,4	-1,843
1002,8	0,843
1003,2	2,729
1003,6	4,529
1004	10,157
1004,5	3,443
1004,9	2,671
1005,3	1,843
1005,7	3,043
1006,1	-0,471
1006,6	-5,357
1007	-10,329
1007,4	-7,157
1007,8	-7,871
1008,2	-9,586
1008,6	-8,129
1009,1	-3,157
1009,5	-2,157
1009,9	2,9
1010,3	4,957
1010,7	2,7
1011,1	4,557
1011,6	0,386
1012	2,186
1012,4	0,643
1012,8	-5,014
1013,2	-0,157
1013,6	3,386
1014,1	3,814
1014,5	7,1
1014,9	2,557
1015,3	3,443
1015,7	6,986
1016,1	2,814
1016,6	-0,814
1017	0,043
1017,4	-0,414
1017,8	0,557
1018,2	1,1
1018,6	-1,614
1019,1	-3,5
1019,5	-3,871
1019,9	-2,586
1020,3	-0,7
1020,7	2,986
1021,1	2,671
1021,6	2,014
1022	2,414
1022,4	5,786
1022,8	7,471
1023,2	5,443
1023,6	3,271
1024,1	8,014
1024,5	7,643
1024,9	6,5
1025,3	8,929
1025,7	2,586
1026,1	5,386
1026,6	4,129
1027	4,186
1027,4	7,471
1027,8	8,9
1028,2	1,329
1028,6	7,9
1029	5,729
1029,5	10,414
1029,9	3,9
1030,3	-1,643
1030,7	-2,186
1031,1	2,986
1031,5	-3,786
1032	-4,529
1032,4	-9,386
1032,8	-4,586
1033,2	-1,786
1033,6	0,643
1034	-0,929
1034,4	-0,129
1034,9	-0,1
1035,3	-6,843
1035,7	-9,586
1036,1	-9,186
1036,5	-15,786
1036,9	-17,329
1037,4	-13,614
1037,8	-14,1
1038,2	-11,7
1038,6	-6,357
1039	-2,529
1039,4	6,243
1039,8	2,386
1040,3	2,014
1040,7	-3,043
1041,1	0,643
1041,5	-5,3
1041,9	-11,186
1042,3	-15,871
1042,7	-11,614
1043,2	-12,986
1043,6	-9,071
1044	-9,043
1044,4	-5,9
1044,8	-2,1
1045,2	-4,9
1045,6	-3,957
1046,1	-5,386
1046,5	-7,043
1046,9	-9,586
1047,3	-11,671
1047,7	-12,014
1048,1	-7,729
1048,5	-6,843
1049	-0,414
1049,4	7,529
1049,8	9,643
1050,2	10,186
1050,6	17,5
1051	17,614
1051,4	16,786
1051,9	8,386
1052,3	11,357
1052,7	12,814
1053,1	11,129
1053,5	5,9
1053,9	6,614
1054,3	6,471
1054,8	17,757
1055,2	13,586
1055,6	12,357
1056	12,671
1056,4	10,7
1056,8	8,414
1057,2	6,871
1057,6	-1,043
1058,1	-5,557
1058,5	-6,529
1058,9	-3,214
1059,3	-3,014
1059,7	-4,957
1060,1	-4,271
1060,5	-4,786
1061	-1,071
1061,4	-1,129
1061,8	2,614
1062,2	3,129
1062,6	7,129
1063	9,671
1063,4	11,614
1063,8	7,957
1064,3	6,557
1064,7	0,786
1065,1	-3,243
1065,5	-10,814
1065,9	-13,586
1066,3	-16,043
1066,7	-18,186
1067,1	-17,071
1067,6	-13,586
1068	-10,586
1068,4	-4,671
1068,8	-0,271
1069,2	-0,671
1069,6	2,414
1070	1,814
1070,4	-1,843
1070,9	-4,443
1071,3	-5,271
1071,7	-7,357
1072,1	-7,3
1072,5	-9,071
1072,9	-7,9
1073,3	-5,414
1073,7	-5,7
1074,2	-4,329
1074,6	-4,386
1075	-2,957
1075,4	-3,129
1075,8	-3,071
1076,2	-5,1
1076,6	-2,271
1077	-3,3
1077,5	-3,7
1077,9	-3,843
1078,3	-2,014
1078,7	-1,443
1079,1	-0,471
1079,5	-2,386
1079,9	-2,186
1080,3	-3,271
1080,7	-1,129
1081,2	0,843
1081,6	2,729
1082	2,186
1082,4	4,243
1082,8	6,443
1083,2	6,014
1083,6	7,271
1084	4,186
1084,5	0,9
1084,9	-1,9
1085,3	-4,357
1085,7	-4,757
1086,1	-3,014
1086,5	-5,757
1086,9	-1,529
1087,3	-0,929
1087,7	-0,157
1088,2	3,329
1088,6	1,043
1089	0,986
1089,4	2,043
1089,8	-2,3
1090,2	-1,214
1090,6	-2,986
1091	-2,814
1091,4	-1,271
1091,9	-1,529
1092,3	-1,186
1092,7	3,414
1093,1	2,786
1093,5	4,157
1093,9	1,843
1094,3	7,186
1094,7	6,386
1095,1	7,757
1095,5	4,929
1096	2,5
1096,4	6,329
1096,8	6,614
1097,2	0,614
1097,6	3,786
1098	3,129
1098,4	6,671
1098,8	11,243
1099,2	13,414
1099,6	12,043
1100,1	11,471
1100,5	6,843
1100,9	5,443
1101,3	2,071
1101,7	0,1
1102,1	-6,186
1102,5	-4,386
1102,9	-3,5
1103,3	1,786
1103,7	3,529
1104,2	3,7
1104,6	4,586
1105	4,671
1105,4	6,929
1105,8	6,214
1106,2	2,586
1106,6	0,329
1107	0,529
1107,4	-0,2
1107,8	2,86
1108,3	-0,65
