Data from Subt2_306.txt Node
Date: Sat Aug 26 19:14:23 MSK 2023
User: vat
Spectrometer: MAYP114033
Trigger mode: 0
Integration Time (sec): 1,000000E0
Scans to average: 5
Electric dark correction enabled: true
Nonlinearity correction enabled: false
Boxcar width: 3
XAxis mode: Wavelengths
Number of Pixels in Spectrum: 2068
>>>>>Begin Spectral Data<<<<<
199,4	0,817
199,9	0,747
200,4	-0,267
200,8	0,095
201,3	-2,248
201,8	-2,019
202,2	-2,276
202,7	2,21
203,2	3,267
203,6	3,21
204,1	0,981
204,6	3,21
205	5,981
205,5	6,095
206	5,267
206,4	6,638
206,9	5,552
207,4	12,895
207,8	10,752
208,3	10,81
208,8	10,495
209,2	11,238
209,7	10,638
210,2	15,81
210,6	11,952
211,1	14,981
211,5	9,838
212	10,724
212,5	8,238
212,9	6,552
213,4	3,61
213,9	4,181
214,3	7,752
214,8	13,038
215,3	13,838
215,7	12,524
216,2	17,181
216,7	17,695
217,1	12,152
217,6	13,095
218,1	12,924
218,5	13,095
219	9,752
219,5	9,638
219,9	8,21
220,4	22,61
220,9	16,581
221,3	14,01
221,8	15,895
222,3	22,524
222,7	20,981
223,2	22,438
223,6	10,667
224,1	11,952
224,6	14,724
225	7,181
225,5	4,552
226	1,267
226,4	5,867
226,9	8,61
227,4	7,352
227,8	4,467
228,3	9,01
228,8	11,124
229,2	14,095
229,7	8,952
230,2	7,924
230,6	14,781
231,1	17,867
231,5	18,095
232	17,581
232,5	11,581
232,9	13,895
233,4	17,667
233,9	12,324
234,3	12,695
234,8	15,752
235,3	12,152
235,7	16,752
236,2	15,838
236,7	13,867
237,1	18,352
237,6	15,467
238,1	12,952
238,5	12,638
239	13,295
239,4	14,467
239,9	11,381
240,4	8,867
240,8	12,124
241,3	8,952
241,8	9,238
242,2	10,638
242,7	8,638
243,2	14,867
243,6	13,267
244,1	13,295
244,6	18,867
245	20,952
245,5	21,01
245,9	17,838
246,4	11,067
246,9	12,41
247,3	8,41
247,8	5,667
248,3	8,238
248,7	7,324
249,2	9,238
249,7	9,581
250,1	9,61
250,6	11,295
251	12,267
251,5	9,581
252	5,838
252,4	9,124
252,9	12,067
253,4	6,038
253,8	3,095
254,3	5,867
254,8	6,838
255,2	4,038
255,7	0,324
256,1	3,038
256,6	8,695
257,1	13,01
257,5	3,181
258	1,01
258,5	6,495
258,9	9,01
259,4	5,581
259,9	7,352
260,3	2,324
260,8	8,724
261,2	11,152
261,7	13,124
262,2	12,524
262,6	10,381
263,1	11,324
263,6	15,295
264	18,267
264,5	18,981
264,9	16,352
265,4	13,581
265,9	15,038
266,3	13,352
266,8	16,752
267,3	14,495
267,7	11,924
268,2	12,095
268,7	13,724
269,1	13,381
269,6	9,495
270	6,267
270,5	2,41
271	4,238
271,4	3,21
271,9	-1,048
272,4	2,21
272,8	6,981
273,3	1,238
273,7	8,124
274,2	5,981
274,7	5,067
275,1	13,781
275,6	11,495
276,1	5,81
276,5	15,838
277	12,095
277,4	17,524
277,9	21,267
278,4	17,495
278,8	17,238
279,3	24,524
279,8	21,295
280,2	23,552
280,7	20,695
281,1	16,724
281,6	16,524
282,1	18,324
282,5	15,038
283	12,781
283,4	9,724
283,9	10,124
284,4	14,381
284,8	17,181
285,3	15,295
285,8	15,781
286,2	14,838
286,7	13,952
287,1	11,924
287,6	9,438
288,1	4,21
288,5	4,324
289	2,781
289,5	3,067
289,9	4,438
290,4	10,924
290,8	10,81
291,3	14,181
291,8	18,81
292,2	16,867
292,7	22,81
293,1	20,667
293,6	17,81
294,1	16,752
294,5	15,238
295	12,981
295,5	16,21
295,9	13,867
296,4	13,667
296,8	13,095
297,3	13,295
297,8	8,41
298,2	4,21
298,7	4,952
299,1	1,467
299,6	-1,248
300,1	0,581
300,5	4,924
301	11,581
301,5	17,552
301,9	16,495
302,4	15,724
302,8	19,752
303,3	15,095
303,8	8,152
304,2	8,781
304,7	2,352
305,1	-1,162
305,6	-0,248
306,1	5,495
306,5	8,667
307	16,067
307,4	15,781
307,9	16,067
308,4	14,295
308,8	8,752
309,3	4,067
309,8	3,067
310,2	1,381
310,7	-1,105
311,1	-1,333
311,6	2,924
312,1	8,467
312,5	8,352
313	6,838
313,4	5,581
313,9	6,095
314,4	9,781
314,8	6,01
315,3	7,838
315,7	4,667
316,2	2,924
316,7	1,467
317,1	5,895
317,6	3,61
318	9,352
318,5	6,895
319	9,267
319,4	13,124
319,9	19,524
320,3	15,667
320,8	14,267
321,3	16,724
321,7	20,238
322,2	23,752
322,6	22,667
323,1	18,467
323,6	19,495
324	19,01
324,5	14,152
324,9	13,267
325,4	10,038
325,9	9,552
326,3	9,924
326,8	12,981
327,2	11,352
327,7	10,924
328,2	11,267
328,6	16,638
329,1	14,467
329,5	13,724
330	9,81
330,5	12,867
330,9	15,324
331,4	14,267
331,8	5,01
332,3	11,981
332,8	16,638
333,2	16,524
333,7	18,352
334,1	19,038
334,6	16,924
335,1	17,352
335,5	15,752
336	9,695
336,4	11,581
336,9	14,695
337,4	16,695
337,8	17,581
338,3	23,381
338,7	19,695
339,2	17,267
339,7	19,724
340,1	15,724
340,6	10,781
341	11,238
341,5	11,01
342	7,381
342,4	7,267
342,9	4,381
343,3	3,838
343,8	7,267
344,2	7,81
344,7	13,438
345,2	13,467
345,6	15,895
346,1	16,438
346,5	13,61
347	7,067
347,5	9,01
347,9	5,01
348,4	10,295
348,8	13,524
349,3	14,952
349,8	21,752
350,2	32,381
350,7	29,067
351,1	28,667
351,6	31,267
352	36,295
352,5	42,238
353	49,81
353,4	50,124
353,9	61,238
354,3	72,695
354,8	83,667
355,3	98,41
355,7	112,267
356,2	128,667
356,6	154,381
357,1	178,724
357,5	206,381
358	242,895
358,5	278,924
358,9	321,61
359,4	367,181
359,8	419,495
360,3	486,21
360,8	553,41
361,2	620,724
361,7	701,152
362,1	794,895
362,6	896,81
363	998,152
363,5	1107,095
364	1233,61
364,4	1357,581
364,9	1484,752
365,3	1607,552
365,8	1721,81
366,3	1830,238
366,7	1926,352
367,2	2010,81
367,6	2080,838
368,1	2129,152
368,5	2158,81
369	2175,467
369,5	2181,838
369,9	2167,581
370,4	2127,838
370,8	2081,952
371,3	2026,352
371,7	1954,61
372,2	1872,724
372,7	1784,752
373,1	1689,495
373,6	1592,981
374	1496,838
374,5	1394,095
374,9	1300,581
375,4	1209,01
375,9	1120,124
376,3	1033,695
376,8	952,781
377,2	874,438
377,7	803,524
378,2	734,124
378,6	674,495
379,1	615,952
379,5	568,124
380	529,267
380,4	489,924
380,9	452,838
381,4	419,381
381,8	388,295
382,3	363,495
382,7	335,095
383,2	304,781
383,6	281,838
384,1	262,381
384,6	245,295
385	225,41
385,5	210,724
385,9	193,524
386,4	185,324
386,8	173,267
387,3	158,61
387,7	149,324
388,2	146,867
388,7	134,21
389,1	130,61
389,6	119,724
390	113,41
390,5	115,638
390,9	110,752
391,4	103,524
391,9	97,124
392,3	94,781
392,8	87,524
393,2	81,495
393,7	71,381
394,1	65,752
394,6	60,01
395,1	62,238
395,5	54,895
396	53,981
396,4	56,667
396,9	56,638
397,3	60,438
397,8	66,238
398,2	62,238
398,7	62,41
399,2	61,838
399,6	58,695
400,1	55,324
400,5	47,41
401	38,667
401,4	35,552
401,9	39,695
402,4	41,095
402,8	36,438
403,3	41,61
403,7	42,924
404,2	46,467
404,6	49,352
405,1	44,01
405,5	41,895
406	44,438
406,5	40,981
406,9	42,352
407,4	38,667
407,8	38,352
408,3	39,124
408,7	35,267
409,2	40,638
409,6	45,038
410,1	47,038
410,6	52,981
411	52,81
411,5	56,952
411,9	64,295
412,4	61,238
412,8	60,324
413,3	59,524
413,7	59,095
414,2	61,61
414,7	68,21
415,1	73,267
415,6	79,552
416	79,952
416,5	79,41
416,9	82,295
417,4	85,295
417,8	90,067
418,3	91,295
418,8	94,667
419,2	100,238
419,7	105,21
420,1	107,952
420,6	108,095
421	100,21
421,5	98,038
421,9	93,095
422,4	92,495
422,8	98,324
423,3	95,352
423,8	94,21
424,2	93,181
424,7	91,781
425,1	95,152
425,6	97,924
426	92,695
426,5	96,181
426,9	99,724
427,4	99,152
427,9	97,61
428,3	97,267
428,8	92,238
429,2	93,495
429,7	91,467
430,1	90,324
430,6	95,552
431	95,095
431,5	94,152
431,9	90,324
432,4	91,552
432,8	95,181
433,3	95,038
433,8	90,095
434,2	97,067
434,7	98,638
435,1	107,01
435,6	108,21
436	109,752
436,5	116,181
436,9	120,152
437,4	120,324
437,8	125,267
438,3	130,695
438,8	133,81
439,2	135,61
439,7	141,552
440,1	149,467
440,6	161,895
441	165,324
441,5	169,438
441,9	179,381
442,4	182,438
442,8	187,381
443,3	193,467
443,7	194,467
444,2	201,952
444,7	207,838
445,1	210,638
445,6	221,295
446	228,724
446,5	234,067
446,9	238,952
447,4	246,952
447,8	256,981
448,3	269,81
448,7	277,838
449,2	286,867
449,6	301,724
450,1	316,41
450,6	333,067
451	346,495
451,5	360,21
451,9	380,638
452,4	398,61
452,8	411,495
453,3	430,038
453,7	439,524
454,2	455,581
454,6	467,152
455,1	476,695
455,5	485,724
456	506,552
456,4	517,21
456,9	538,952
457,3	553,81
457,8	566,324
458,3	589,124
458,7	607,438
459,2	622,124
459,6	641,752
460,1	659,524
460,5	675,495
461	704,952
461,4	717,295
461,9	737,238
462,3	755,81
462,8	779,867
463,2	792,695
463,7	817,152
464,1	838,667
464,6	868,381
465	894,638
465,5	921,01
466	944,438
466,4	974,381
466,9	1000,952
467,3	1023,495
467,8	1043,238
468,2	1064,924
468,7	1089,038
469,1	1116,067
469,6	1141,21
470	1165,41
470,5	1190,41
470,9	1215,41
471,4	1241,981
471,8	1261,952
472,3	1285,781
472,7	1309,752
473,2	1330,867
473,6	1354,467
474,1	1384,81
474,5	1408,667
475	1439,095
475,4	1458,724
475,9	1488,752
476,4	1519,895
476,8	1548,01
477,3	1568,152
477,7	1599,467
478,2	1624,267
478,6	1647,352
479,1	1663,295
479,5	1681,495
480	1698,295
480,4	1725,867
480,9	1745,924
481,3	1763,41
481,8	1790,152
482,2	1808,724
482,7	1830,61
483,1	1849,867
483,6	1862,381
484	1876,295
484,5	1894,238
484,9	1909,381
485,4	1931,895
485,8	1943,21
486,3	1966,724
486,7	1981,667
487,2	1995,152
487,6	2010,438
488,1	2019,21
488,5	2029,152
489	2049,524
489,4	2058,152
489,9	2068,352
490,4	2081,952
490,8	2092,181
491,3	2109,895
491,7	2121,695
492,2	2133,952
492,6	2145,438
493,1	2162,581
493,5	2173,124
494	2181,495
494,4	2189,41
494,9	2196,01
495,3	2202,638
495,8	2202,667
496,2	2205,067
496,7	2206,124
497,1	2217,867
497,6	2221,61
498	2232,152
498,5	2236,61
498,9	2239,61
499,4	2242,095
499,8	2252,838
500,3	2254,838
500,7	2253,238
501,2	2251,752
501,6	2246,981
502,1	2255,895
502,5	2262,581
503	2261,352
503,4	2256,867
503,9	2258,324
504,3	2259,952
504,8	2262,924
505,2	2255,552
505,7	2249,01
506,1	2250,724
506,6	2250,124
507	2251,552
507,5	2248,267
507,9	2249,152
508,4	2251,838
508,8	2252,552
509,3	2244,924
509,7	2242,752
510,2	2243,81
510,6	2240,695
511,1	2241,21
511,5	2238,495
512	2233,752
512,4	2236,895
512,9	2236,438
513,3	2234,895
513,8	2237,324
514,2	2233,324
514,7	2234,267
515,1	2243,924
515,6	2241,01
516	2233,381
516,5	2231,952
516,9	2228,781
517,4	2225,867
517,8	2228,667
518,3	2222,752
518,7	2219,695
519,2	2221,752
519,6	2222,295
520,1	2225,41
520,5	2225,724
521	2220,381
521,4	2219,324
521,9	2223,895
522,3	2226,924
522,8	2219,295
523,2	2216,667
523,7	2216,781
524,1	2215,752
524,6	2209,324
525	2207,952
525,5	2208,981
525,9	2213,981
526,4	2209,495
526,8	2206,495
527,3	2208,095
527,7	2216,21
528,2	2216,838
528,6	2217,781
529,1	2213,41
529,5	2223,267
530	2226,667
530,4	2232,21
530,9	2236,352
531,3	2238,838
531,8	2234,638
532,2	2242,352
532,6	2240,152
533,1	2237,495
533,5	2234,21
534	2224,552
534,4	2222,724
534,9	2233,381
535,3	2234,752
535,8	2230,381
536,2	2235,724
536,7	2239,238
537,1	2244,638
537,6	2248,467
538	2245,495
538,5	2247,438
538,9	2250,01
539,4	2256,267
539,8	2257,267
540,3	2261,81
540,7	2259,095
541,2	2261,067
541,6	2261,124
542,1	2267,752
542,5	2268,867
543	2270,095
543,4	2268,324
543,9	2274,495
544,3	2283,152
544,8	2278,41
545,2	2279,61
545,7	2279,438
546,1	2289,267
546,5	2299,295
547	2303,981
547,4	2302,638
547,9	2312,295
548,3	2318,838
548,8	2331,152
549,2	2328,524
549,7	2325,781
550,1	2330,381
550,6	2335,324
551	2339,467
551,5	2342,724
551,9	2331,41
552,4	2339,438
552,8	2347,295
553,3	2346,438
553,7	2343,924
554,2	2350,267
554,6	2356,124
555,1	2367,781
555,5	2365,981
555,9	2372,638
556,4	2372,21
556,8	2377,038
557,3	2376,81
557,7	2378,152
558,2	2378,381
558,6	2385,038
559,1	2381,981
559,5	2381,724
560	2381,581
560,4	2386,181
560,9	2381,524
561,3	2382,267
561,8	2380,21
562,2	2378,81
562,7	2383,267
563,1	2393,381
563,6	2386,981
564	2396,095
564,4	2395,724
564,9	2398,638
565,3	2403,752
565,8	2406,21
566,2	2405,581
566,7	2412,295
567,1	2410,952
567,6	2413,067
568	2412,981
568,5	2415,838
568,9	2417,152
569,4	2417,438
569,8	2421,61
570,3	2417,81
570,7	2417,838
571,1	2421,638
571,6	2420,067
572	2424,981
572,5	2423,495
572,9	2416,467
573,4	2425,81
573,8	2429,638
574,3	2424,41
574,7	2422,01
575,2	2414,524
575,6	2412,581
576,1	2416,581
576,5	2413,838
576,9	2405,267
577,4	2403,152
577,8	2397,21
578,3	2397,324
578,7	2395,467
579,2	2395,41
579,6	2382,838
580,1	2383,981
580,5	2382,181
581	2387,81
581,4	2384,124
581,9	2379,581
582,3	2373,667
582,7	2372,41
583,2	2366,81
583,6	2363,81
584,1	2360,867
584,5	2358,324
585	2355,067
585,4	2344,352
585,9	2338,638
586,3	2344,067
586,8	2346,41
587,2	2336,067
587,6	2336,352
588,1	2336,81
588,5	2337,724
589	2341,067
589,4	2329,924
589,9	2321,552
590,3	2321,01
590,8	2313,981
591,2	2309,61
591,7	2311,495
592,1	2311,295
592,5	2310,981
593	2305,181
593,4	2301,695
593,9	2297,924
594,3	2291,952
594,8	2281,324
595,2	2272,21
595,7	2267,638
596,1	2263,381
596,6	2259,41
597	2260,667
597,4	2257,381
597,9	2260,638
598,3	2260,867
598,8	2255,81
599,2	2252,21
599,7	2247,038
600,1	2242,61
600,6	2238,895
601	2229,524
601,4	2229,524
601,9	2226,067
602,3	2219,524
602,8	2217,781
603,2	2205,124
603,7	2200,524
604,1	2202,124
604,6	2189,495
605	2181,638
605,4	2179,581
605,9	2172,381
606,3	2165,01
606,8	2156,124
607,2	2142,895
607,7	2137,01
608,1	2134,267
608,6	2129,581
609	2129,438
609,4	2130,952
609,9	2124,067
610,3	2121,667
610,8	2114,724
611,2	2104,667
611,7	2095,21
612,1	2079,81
612,6	2070,381
613	2068,495
613,4	2058,267
613,9	2048,124
614,3	2038,038
614,8	2037,324
615,2	2030,038
615,7	2024,01
616,1	2018,61
616,6	2012,467
617	2005,124
617,4	2003,781
617,9	1997,695
618,3	1994,438
618,8	1987,438
619,2	1976,381
619,7	1975,01
620,1	1968,41
620,5	1961,838
621	1950,581
621,4	1943,467
621,9	1935,752
622,3	1930,61
622,8	1911,352
623,2	1907,01
623,6	1901,267
624,1	1893,438
624,5	1885,181
625	1886,667
625,4	1874,867
625,9	1873,067
626,3	1862,352
626,8	1849,524
627,2	1845,038
627,6	1828,295
628,1	1809,038
628,5	1810,838
629	1798,095
629,4	1792,638
629,9	1788,581
630,3	1776,581
630,7	1775,095
631,2	1771,495
631,6	1753,552
632,1	1746,924
632,5	1739,638
633	1729,895
633,4	1715,095
633,8	1705,838
634,3	1692,524
634,7	1687,295
635,2	1675,695
635,6	1662,667
636,1	1655,61
636,5	1645,581
636,9	1636,752
637,4	1631,381
637,8	1614,952
638,3	1608,552
638,7	1601,752
639,2	1590,752
639,6	1590,724
640	1586,724
640,5	1578,924
640,9	1578,324
641,4	1573,352
641,8	1568,352
642,2	1560,524
642,7	1555,724
643,1	1551,495
643,6	1540,61
644	1530,467
644,5	1527,267
644,9	1514,867
645,3	1508,038
645,8	1498,495
646,2	1490,952
646,7	1486,81
647,1	1483,21
647,6	1476,524
648	1477,067
648,4	1467,381
648,9	1464,038
649,3	1450,438
649,8	1445,095
650,2	1439,324
650,6	1429,038
651,1	1415,152
651,5	1414,552
652	1407,01
652,4	1399,181
652,9	1393,181
653,3	1381,724
653,7	1375,381
654,2	1371,067
654,6	1356,981
655,1	1350,724
655,5	1350,581
655,9	1342,038
656,4	1338,267
656,8	1331,838
657,3	1325,667
657,7	1323,695
658,2	1313,067
658,6	1300,667
659	1292,552
659,5	1283,81
659,9	1277,638
660,4	1269,238
660,8	1259,952
661,2	1248,181
661,7	1243,324
662,1	1237,981
662,6	1227,095
663	1217,095
663,4	1213,352
663,9	1208,638
664,3	1201,01
664,8	1189,752
665,2	1178,381
665,6	1171,41
666,1	1168,752
666,5	1161,724
667	1150,667
667,4	1145,324
667,9	1141,352
668,3	1136,067
668,7	1133,324
669,2	1127,238
669,6	1114,038
670,1	1110,067
670,5	1102,61
670,9	1093,867
671,4	1086,524
671,8	1078,81
672,3	1072,067
672,7	1071,695
673,1	1064,124
673,6	1058,667
674	1053,038
674,5	1047,695
674,9	1037,181
675,3	1022,724
675,8	1016,552
676,2	1007,295
676,7	999,667
677,1	994,438
677,5	988,324
678	988,781
678,4	984,581
678,9	973,295
679,3	966,267
679,7	960,752
680,2	947,495
680,6	936,524
681,1	929,038
681,5	928,895
681,9	926,552
682,4	925,81
682,8	922,61
683,3	924,495
683,7	922,124
684,1	915,467
684,6	904,324
685	900,952
685,5	891,01
685,9	880,895
686,3	875,752
686,8	869,41
687,2	867,41
687,7	858,352
688,1	849,324
688,5	848,181
689	850,895
689,4	840,867
689,9	841,581
690,3	831,867
690,7	832,981
691,2	830,61
691,6	823,067
692	813,581
692,5	813,724
692,9	809,581
693,4	802,095
693,8	795,552
694,2	787,324
694,7	778,695
695,1	773,952
695,6	768,152
696	759,21
696,4	760,867
696,9	751,61
697,3	748,695
697,8	746,552
698,2	742,752
698,6	741,324
699,1	739,181
699,5	730,41
699,9	726,41
700,4	716,867
700,8	716,438
701,3	714,695
701,7	703,267
702,1	692,867
702,6	691,438
703	692,038
703,5	688,638
703,9	682,381
704,3	673,524
704,8	668,867
705,2	667,667
705,6	664,638
706,1	659,667
706,5	657,552
707	657,438
707,4	656,21
707,8	655,21
708,3	652,524
708,7	646,267
709,2	643,638
709,6	637,695
710	636,038
710,5	630,124
710,9	623,924
711,3	615,267
711,8	613,038
712,2	607,752
712,7	603,352
713,1	596,438
713,5	594,867
714	594,924
714,4	589,724
714,8	583,295
715,3	578,324
715,7	579,067
716,2	570,981
716,6	567,81
717	560,295
717,5	560,752
717,9	559,495
718,3	552,581
718,8	547,438
719,2	543,524
719,7	537,267
720,1	533,21
720,5	535,61
721	528,238
721,4	529,438
721,8	527,981
722,3	525,095
722,7	524,524
723,2	519,067
723,6	504,038
724	500,752
724,5	497,381
724,9	492,781
725,3	488,21
725,8	481,924
726,2	479,181
726,7	478,181
727,1	479,038
727,5	474,295
728	469,81
728,4	469,438
728,8	463,838
729,3	462,495
729,7	458,981
730,1	454,581
730,6	452,324
731	449,324
731,5	441,667
731,9	438,152
732,3	436,181
732,8	440,067
733,2	434,41
733,6	431,067
734,1	425,781
734,5	428,524
734,9	432,667
735,4	432,581
735,8	424,552
736,3	425,524
736,7	421,038
737,1	421,61
737,6	418,467
738	409,324
738,4	407,381
738,9	406,952
739,3	406,438
739,7	405,324
740,2	399,067
740,6	403,038
741,1	406,324
741,5	398,495
741,9	399,781
742,4	398,181
742,8	399,267
743,2	399,638
743,7	387,095
744,1	382,581
744,5	382,352
745	375,895
745,4	371,124
745,8	368,352
746,3	370,238
746,7	371,895
747,2	368,438
747,6	373,095
748	374,152
748,5	374,41
748,9	370,41
749,3	366,41
749,8	365,381
750,2	362,752
750,6	352,781
751,1	350,467
751,5	343,981
751,9	341,952
752,4	340,781
752,8	337,438
753,3	335,238
753,7	337,381
754,1	330,724
754,6	325,152
755	320,295
755,4	314,067
755,9	313,752
756,3	311,695
756,7	305,752
757,2	308,667
757,6	313,695
758	315,867
758,5	312,867
758,9	312,867
759,3	313,467
759,8	315,238
760,2	314,295
760,6	309,41
761,1	302,467
761,5	299,324
761,9	292,952
762,4	285,352
762,8	282,124
763,3	277,524
763,7	274,181
764,1	278,695
764,6	279,667
765	280,467
765,4	281,467
765,9	278,867
766,3	280,667
766,7	278,152
767,2	271,924
767,6	276,352
768	268,581
768,5	267,067
768,9	267,21
769,3	265,267
769,8	264,21
770,2	266,267
770,6	262,067
771,1	269,524
771,5	268,41
771,9	268,638
772,4	268,552
772,8	272,867
773,2	271,324
773,7	267,61
774,1	259,724
774,5	255,752
775	250,552
775,4	247,01
775,8	240,524
776,3	243,838
776,7	241,324
777,1	244,381
777,6	247,552
778	249,438
778,4	247,324
778,9	248,581
779,3	237,267
779,7	240,724
780,2	237,181
780,6	232,952
781	228,267
781,5	224,438
781,9	221,524
782,3	222,295
782,8	214,324
783,2	212,581
783,6	216,238
784,1	217,152
784,5	212,238
784,9	209,924
785,4	212,924
785,8	216,524
786,2	216,01
786,7	211,552
787,1	207,61
787,5	211,724
788	206,267
788,4	203,324
788,8	197,667
789,3	194,838
789,7	194,038
790,1	192,61
790,6	192,438
791	193,524
791,4	192,638
791,9	191,067
792,3	186,295
792,7	187,467
793,2	182,61
793,6	175,01
794	176,867
794,5	173,381
794,9	177,581
795,3	177,324
795,8	175,867
796,2	180,695
796,6	180,895
797,1	177,181
797,5	176,667
797,9	173,781
798,4	174,781
798,8	171,438
799,2	168,067
799,7	173,295
800,1	171,01
800,5	171,838
801	169,21
801,4	167,181
801,8	163,495
802,2	162,924
802,7	153,838
803,1	153,295
803,5	148,381
804	146,81
804,4	145,124
804,8	150,267
805,3	152,295
805,7	151,495
806,1	151,381
806,6	152,467
807	152,152
807,4	153,038
807,9	143,667
808,3	139,724
808,7	140,352
809,2	146,152
809,6	146,352
810	144,181
810,4	140,438
810,9	140,752
811,3	143,438
811,7	139,238
812,2	137,352
812,6	135,01
813	137,267
813,5	142,21
813,9	142,038
814,3	135,867
814,8	142,438
815,2	134,124
815,6	133,095
816,1	131,095
816,5	125,352
816,9	125,095
817,3	123,667
817,8	124,667
818,2	129,238
818,6	124,581
819,1	122,181
819,5	121,238
819,9	122,095
820,4	123,61
820,8	118,41
821,2	111,752
821,7	114,781
822,1	118,552
822,5	121,895
822,9	121,381
823,4	115,838
823,8	118,81
824,2	120,981
824,7	117,61
825,1	109,867
825,5	105,81
826	98,781
826,4	100,01
826,8	96,895
827,3	97,181
827,7	95,524
828,1	97,981
828,5	96,838
829	98,667
829,4	100,381
829,8	97,352
830,3	95,01
830,7	100,152
831,1	97,581
831,6	97,181
832	97,238
832,4	93,781
832,8	94,467
833,3	95,238
833,7	85,124
834,1	86,41
834,6	82,438
835	81,124
835,4	83,038
835,8	77,467
836,3	76,581
836,7	81,495
837,1	81,181
837,6	86,581
838	89,381
838,4	89,867
838,9	90,352
839,3	86,324
839,7	89,038
840,1	84,181
840,6	83,181
841	83,352
841,4	82,067
841,9	84,095
842,3	84,495
842,7	80,267
843,1	80,381
843,6	80,952
844	74,867
844,4	75,924
844,9	76,724
845,3	77,581
845,7	77,381
846,2	75,267
846,6	69,324
847	72,981
847,4	74,152
847,9	71,524
848,3	73,238
848,7	73,81
849,2	76,267
849,6	75,752
850	78,695
850,4	75,61
850,9	75,41
851,3	73,552
851,7	73,124
852,2	70,867
852,6	76,867
853	75,238
853,4	72,638
853,9	71,752
854,3	69,01
854,7	69,552
855,2	74,038
855,6	72,21
856	64,238
856,4	64,095
856,9	62,781
857,3	65,524
857,7	66,895
858,2	67,752
858,6	65,81
859	71,124
859,4	73,152
859,9	71,61
860,3	68,01
860,7	62,495
861,1	60,324
861,6	58,724
862	57,095
862,4	55,895
862,9	61,181
863,3	62,438
863,7	62,267
864,1	61,324
864,6	57,895
865	57,581
865,4	59,01
865,9	61,638
866,3	57,524
866,7	55,124
867,1	51,924
867,6	54,724
868	52,324
868,4	47,552
868,8	42,267
869,3	42,067
869,7	48,381
870,1	48,267
870,6	44,724
871	-24,733
871,4	-18,733
871,8	-21,933
872,3	-17,962
872,7	-21,162
873,1	-19,562
873,5	-19,048
874	50,467
874,4	48,467
874,8	48,124
875,3	46,381
875,7	45,352
876,1	45,238
876,5	45,667
877	46,352
877,4	40,781
877,8	43,524
878,2	47,181
878,7	48,181
879,1	45,638
879,5	44,752
879,9	46,638
880,4	49,695
880,8	44,952
881,2	38,781
881,7	40,067
882,1	41,438
882,5	43,181
882,9	39,01
883,4	38,695
883,8	41,752
884,2	43,467
884,6	39,752
885,1	43,152
885,5	42,438
885,9	43,038
886,3	42,81
886,8	43,095
887,2	40,895
887,6	43,438
888	36,838
888,5	35,438
888,9	32,524
889,3	28,324
889,8	27,867
890,2	33,095
890,6	25,838
891	30,552
891,5	32,467
891,9	36,524
892,3	40,495
892,7	41,952
893,2	40,924
893,6	44,667
894	42,181
894,4	40,924
894,9	36,81
895,3	34,695
895,7	34,581
896,1	32,924
896,6	35,781
897	38,952
897,4	42,01
897,8	44,41
898,3	48,095
898,7	42,352
899,1	43,524
899,5	38,352
900	33,61
900,4	29,667
900,8	25,21
901,2	19,238
901,7	24,524
902,1	24,524
902,5	29,895
902,9	25,752
903,4	29,581
903,8	35,467
904,2	35,524
904,6	34,952
905,1	32,552
905,5	28,295
905,9	32,01
906,3	31,01
906,8	31,695
907,2	32,124
907,6	31,638
908	31,095
908,5	28,924
908,9	25,667
909,3	21,667
909,7	16,667
910,2	16,781
910,6	19,324
911	15,781
911,4	22,01
911,9	25,838
912,3	25,895
912,7	32,124
913,1	33,552
913,6	26,095
914	29,638
914,4	21,01
914,8	22,695
915,3	19,524
915,7	17,581
916,1	16,438
916,5	19,067
916,9	18,324
917,4	25,667
917,8	25,552
918,2	26,21
918,6	18,981
919,1	20,924
919,5	25,01
919,9	27,21
920,3	24,41
920,8	19,695
921,2	23,981
921,6	27,781
922	26,095
922,5	23,61
922,9	23,952
923,3	23,438
923,7	26,838
924,2	24,381
924,6	28,352
925	29,752
925,4	25,752
925,8	23,581
926,3	23,981
926,7	23,152
927,1	20,352
927,5	20,495
928	16,038
928,4	16,095
928,8	15,581
929,2	13,581
929,7	16,41
930,1	19,581
930,5	14,01
930,9	17,924
931,3	19,838
931,8	21,61
932,2	24,238
932,6	21,267
933	17,267
933,5	21,638
933,9	23,438
934,3	23,21
934,7	19,552
935,2	21,438
935,6	23,095
936	31,095
936,4	28,667
936,8	28,895
937,3	25,467
937,7	26,038
938,1	25,924
938,5	22,638
939	22,552
939,4	26,895
939,8	21,552
940,2	24,124
940,6	26,01
941,1	24,41
941,5	28,01
941,9	23,01
942,3	19,981
942,8	25,095
943,2	26,124
943,6	23,81
944	24,81
944,4	20,752
944,9	19,952
945,3	21,152
945,7	15,01
946,1	11,124
946,6	12,81
947	13,038
947,4	16,924
947,8	18,724
948,2	15,324
948,7	20,495
949,1	24,352
949,5	25,81
949,9	28,867
950,3	30,038
950,8	26,724
951,2	29,724
951,6	23,524
952	25,638
952,5	20,924
952,9	16,21
953,3	11,01
953,7	12,038
954,1	11,495
954,6	18,095
955	16,81
955,4	17,695
955,8	17,581
956,2	20,095
956,7	22,695
957,1	18,838
957,5	17,952
957,9	18,238
958,3	18,695
958,8	19,81
959,2	22,552
959,6	23,952
960	25,095
960,5	24,41
960,9	24,752
961,3	22,41
961,7	17,695
962,1	12,067
962,6	11,695
963	13,781
963,4	8,524
963,8	11,152
964,2	14,981
964,7	19,324
965,1	22,867
965,5	23,952
965,9	21,781
966,3	24,781
966,8	19,124
967,2	19,552
967,6	19,495
968	15,038
968,4	13,152
968,9	16,124
969,3	23,41
969,7	22,81
970,1	24,981
970,5	25,21
971	31,752
971,4	30,21
971,8	29,324
972,2	24,867
972,6	24,267
973,1	19,838
973,5	16,41
973,9	13,638
974,3	14,467
974,7	15,095
975,2	14,267
975,6	15,581
976	17,895
976,4	14,952
976,8	16,867
977,3	17,41
977,7	13,352
978,1	10,067
978,5	7,895
978,9	5,067
979,4	7,638
979,8	3,238
980,2	1,267
980,6	1,724
981	8,695
981,5	14,095
981,9	15,524
982,3	18,81
982,7	21,895
983,1	20,867
983,6	23,438
984	24,238
984,4	24,324
984,8	27,438
985,2	25,381
985,6	21,552
986,1	22,295
986,5	24,552
986,9	16,895
987,3	17,581
987,7	16,381
988,2	15,695
988,6	18,181
989	18,495
989,4	12,924
989,8	15,352
990,3	9,61
990,7	6,724
991,1	9,01
991,5	10,924
991,9	14,438
992,3	16,238
992,8	17,295
993,2	20,238
993,6	22,21
994	24,581
994,4	22,838
994,9	18,152
995,3	19,495
995,7	14,581
996,1	14,181
996,5	11,924
996,9	5,981
997,4	4,638
997,8	2,752
998,2	-0,676
998,6	-5,162
999	-2,562
999,5	-4,248
999,9	-2,59
1000,3	-1,733
1000,7	0,638
1001,1	-0,219
1001,5	9,895
1002	9,01
1002,4	15,152
1002,8	15,381
1003,2	16,438
1003,6	22,21
1004	27,124
1004,5	21,038
1004,9	24,295
1005,3	17,238
1005,7	20,61
1006,1	18,267
1006,6	13,838
1007	13,924
1007,4	16,181
1007,8	9,867
1008,2	11,267
1008,6	10,352
1009,1	10,381
1009,5	8,467
1009,9	7,638
1010,3	10,181
1010,7	11,124
1011,1	13,381
1011,6	13,781
1012	17,238
1012,4	15,895
1012,8	10,524
1013,2	13,895
1013,6	14,695
1014,1	17,695
1014,5	15,781
1014,9	11,838
1015,3	13,667
1015,7	15,724
1016,1	7,295
1016,6	7,038
1017	6,724
1017,4	6,752
1017,8	9,352
1018,2	10,21
1018,6	8,552
1019,1	8,952
1019,5	11,381
1019,9	9,581
1020,3	10,381
1020,7	10,41
1021,1	11,895
1021,6	15,867
1022	17,895
1022,4	17,638
1022,8	19,524
1023,2	18,581
1023,6	18,667
1024,1	22,524
1024,5	21,41
1024,9	20,61
1025,3	19,552
1025,7	16,067
1026,1	16,295
1026,6	17,867
1027	14,21
1027,4	17,724
1027,8	19,238
1028,2	18,181
1028,6	22,352
1029	22,895
1029,5	23,81
1029,9	23,095
1030,3	19,81
1030,7	23,752
1031,1	27,61
1031,5	23,581
1032	20,41
1032,4	17,667
1032,8	16,61
1033,2	16,695
1033,6	13,724
1034	8,667
1034,4	8,552
1034,9	10,667
1035,3	8,81
1035,7	13,781
1036,1	17,352
1036,5	14,038
1036,9	14,81
1037,4	17,552
1037,8	15,752
1038,2	16,495
1038,6	12,352
1039	10,638
1039,4	18,867
1039,8	12,524
1040,3	12,552
1040,7	14,981
1041,1	16,981
1041,5	20,724
1041,9	18,667
1042,3	15,01
1042,7	23,724
1043,2	20,524
1043,6	16,495
1044	13,552
1044,4	9,61
1044,8	12,267
1045,2	10,038
1045,6	11,124
1046,1	12,638
1046,5	17,695
1046,9	19,038
1047,3	17,924
1047,7	17,381
1048,1	17,552
1048,5	19,295
1049	22,124
1049,4	23,295
1049,8	23,981
1050,2	24,724
1050,6	26,81
1051	25,752
1051,4	19,838
1051,9	17,21
1052,3	21,238
1052,7	21,524
1053,1	20,924
1053,5	18,781
1053,9	19,181
1054,3	22,038
1054,8	28,324
1055,2	24,524
1055,6	26,752
1056	28,095
1056,4	23,895
1056,8	27,952
1057,2	23,21
1057,6	15,067
1058,1	11,038
1058,5	11,495
1058,9	15,61
1059,3	21,295
1059,7	17,352
1060,1	22,867
1060,5	23,524
1061	27,981
1061,4	23,981
1061,8	24,81
1062,2	18,524
1062,6	19,238
1063	22,638
1063,4	25,695
1063,8	21,238
1064,3	18,067
1064,7	12,067
1065,1	17,667
1065,5	14,495
1065,9	6,667
1066,3	5,352
1066,7	7,552
1067,1	9,495
1067,6	12,61
1068	9,181
1068,4	10,752
1068,8	13,695
1069,2	12,581
1069,6	11,095
1070	16,81
1070,4	13,895
1070,9	14,01
1071,3	18,267
1071,7	16,01
1072,1	14,667
1072,5	13,267
1072,9	7,21
1073,3	8,552
1073,7	9,267
1074,2	10,124
1074,6	10,61
1075	10,838
1075,4	10,895
1075,8	13,467
1076,2	12,352
1076,6	13,867
1077	11,124
1077,5	16,352
1077,9	16,724
1078,3	14,752
1078,7	11,952
1079,1	13,81
1079,5	14,581
1079,9	12,352
1080,3	8,01
1080,7	8,895
1081,2	18,952
1081,6	19,381
1082	17,81
1082,4	19,295
1082,8	18,895
1083,2	18,61
1083,6	15,981
1084	9,41
1084,5	11,324
1084,9	9,01
1085,3	2,267
1085,7	5,724
1086,1	3,981
1086,5	9,267
1086,9	10,581
1087,3	10,638
1087,7	12,095
1088,2	12,695
1088,6	13,524
1089	16,524
1089,4	15,61
1089,8	15,381
1090,2	11,267
1090,6	13,867
1091	19,924
1091,4	18,867
1091,9	14,838
1092,3	16,267
1092,7	13,752
1093,1	19,952
1093,5	19,267
1093,9	15,81
1094,3	18,295
1094,7	21,552
1095,1	20,667
1095,5	23,295
1096	17,038
1096,4	17,867
1096,8	16,838
1097,2	7,152
1097,6	8,752
1098	7,295
1098,4	9,01
1098,8	14,467
1099,2	15,495
1099,6	16,724
1100,1	23,924
1100,5	20,667
1100,9	21,924
1101,3	20,01
1101,7	17,981
1102,1	15,038
1102,5	16,981
1102,9	17,01
1103,3	20,638
1103,7	18,838
1104,2	16,524
1104,6	16,924
1105	13,495
1105,4	13,124
1105,8	9,438
1106,2	5,038
1106,6	2,952
1107	3,324
1107,4	1,667
1107,8	4,707
1108,3	-0,083
