Data from Subt2_037.txt Node
Date: Sat Aug 26 16:23:54 MSK 2023
User: vat
Spectrometer: MAYP114033
Trigger mode: 0
Integration Time (sec): 1,000000E0
Scans to average: 5
Electric dark correction enabled: true
Nonlinearity correction enabled: false
Boxcar width: 3
XAxis mode: Wavelengths
Number of Pixels in Spectrum: 2068
>>>>>Begin Spectral Data<<<<<
199,4	-0,433
199,9	0,007
200,4	-0,2
200,8	-2,376
201,3	1,681
201,8	2,938
202,2	4,824
202,7	4,71
203,2	5,481
203,6	5,71
204,1	10,595
204,6	6,452
205	6,938
205,5	4,024
206	6,224
206,4	3,795
206,9	2,252
207,4	1,795
207,8	0,91
208,3	0,138
208,8	2,367
209,2	4,681
209,7	6,31
210,2	12,338
210,6	12,938
211,1	14,395
211,5	12,595
212	7,881
212,5	2,824
212,9	3,938
213,4	0,252
213,9	-1,833
214,3	1,138
214,8	3,024
215,3	4,481
215,7	3,567
216,2	5,881
216,7	2,338
217,1	1,538
217,6	-3,548
218,1	-4,433
218,5	2,081
219	10,995
219,5	5,91
219,9	8,167
220,4	9,195
220,9	10,367
221,3	10,795
221,8	2,652
222,3	-3,405
222,7	-3,662
223,2	-1,376
223,6	-5,576
224,1	-5,148
224,6	-6,433
225	-4,09
225,5	2,681
226	3,367
226,4	3,51
226,9	6,224
227,4	10,795
227,8	11,938
228,3	17,11
228,8	11,052
229,2	13,138
229,7	10,252
230,2	14,281
230,6	7,195
231,1	6,681
231,5	8,024
232	14,967
232,5	14,938
232,9	16,167
233,4	14,481
233,9	17,681
234,3	19,624
234,8	15,738
235,3	12,081
235,7	14,967
236,2	15,824
236,7	14,624
237,1	11,681
237,6	9,824
238,1	9,024
238,5	3,881
239	-0,948
239,4	2,167
239,9	1,938
240,4	5,395
240,8	6,852
241,3	5,938
241,8	6,824
242,2	5,795
242,7	2,452
243,2	2,595
243,6	3,51
244,1	1,938
244,6	0,338
245	-1,176
245,5	1,967
245,9	1,081
246,4	0,452
246,9	-0,119
247,3	0,224
247,8	-0,519
248,3	4,71
248,7	9,481
249,2	6,852
249,7	8,395
250,1	5,538
250,6	5,395
251	9,252
251,5	2,91
252	-0,633
252,4	1,138
252,9	-2,233
253,4	-1,09
253,8	-1,119
254,3	-0,776
254,8	3,224
255,2	2,538
255,7	3,938
256,1	7,681
256,6	6,31
257,1	10,167
257,5	12,052
258	9,595
258,5	10,795
258,9	10,195
259,4	9,452
259,9	11,852
260,3	9,881
260,8	6,338
261,2	8,424
261,7	6,252
262,2	6,367
262,6	4,338
263,1	3,767
263,6	3,395
264	3,91
264,5	5,452
264,9	6,595
265,4	9,51
265,9	12,71
266,3	11,538
266,8	12,281
267,3	16,481
267,7	12,338
268,2	10,595
268,7	3,567
269,1	3,452
269,6	6,51
270	7,11
270,5	4,11
271	6,224
271,4	5,452
271,9	12,567
272,4	13,224
272,8	8,938
273,3	4,481
273,7	3,338
274,2	4,424
274,7	5,795
275,1	-0,376
275,6	-0,805
276,1	2,195
276,5	8,281
277	14,967
277,4	13,338
277,9	14,567
278,4	21,338
278,8	26,195
279,3	24,367
279,8	25,967
280,2	19,367
280,7	20,995
281,1	20,624
281,6	16,881
282,1	10,995
282,5	14,567
283	6,595
283,4	6,31
283,9	-1,233
284,4	-4,462
284,8	-2,148
285,3	-3,862
285,8	-8,948
286,2	-8,29
286,7	-9,89
287,1	-4,319
287,6	-1,662
288,1	-2,833
288,5	1,281
289	5,367
289,5	6,71
289,9	8,967
290,4	12,11
290,8	18,767
291,3	15,338
291,8	11,481
292,2	12,195
292,7	15,367
293,1	15,624
293,6	14,31
294,1	4,338
294,5	9,138
295	7,338
295,5	6,652
295,9	9,338
296,4	8,652
296,8	5,995
297,3	11,567
297,8	10,767
298,2	12,938
298,7	11,11
299,1	9,852
299,6	8,452
300,1	12,11
300,5	11,795
301	12,024
301,5	11,938
301,9	12,195
302,4	6,51
302,8	8,852
303,3	5,595
303,8	3,995
304,2	3,824
304,7	3,595
305,1	5,31
305,6	3,967
306,1	1,138
306,5	0,795
307	-2,49
307,4	-5,205
307,9	-2,405
308,4	-2,833
308,8	1,795
309,3	1,452
309,8	4,252
310,2	7,167
310,7	12,338
311,1	5,024
311,6	7,167
312,1	9,824
312,5	12,281
313	9,138
313,4	12,652
313,9	17,567
314,4	18,481
314,8	16,767
315,3	12,938
315,7	14,281
316,2	14,195
316,7	14,71
317,1	6,424
317,6	9,967
318	8,424
318,5	9,538
319	8,338
319,4	8,481
319,9	4,081
320,3	4,424
320,8	5,024
321,3	1,338
321,7	0,195
322,2	2,738
322,6	-0,833
323,1	-0,976
323,6	-1,719
324	0,51
324,5	0,91
324,9	3,338
325,4	1,338
325,9	9,852
326,3	13,395
326,8	15,567
327,2	14,51
327,7	19,052
328,2	16,738
328,6	18,281
329,1	15,195
329,5	10,967
330	9,995
330,5	9,081
330,9	8,595
331,4	4,024
331,8	5,195
332,3	6,767
332,8	7,538
333,2	3,995
333,7	3,881
334,1	5,767
334,6	8,281
335,1	8,195
335,5	4,795
336	1,081
336,4	3,795
336,9	7,795
337,4	7,252
337,8	9,481
338,3	8,224
338,7	9,081
339,2	13,595
339,7	14,538
340,1	14,881
340,6	11,167
341	15,31
341,5	19,281
342	18,881
342,4	16,452
342,9	10,195
343,3	7,738
343,8	14,395
344,2	12,567
344,7	7,081
345,2	10,024
345,6	13,31
346,1	23,367
346,5	26,081
347	25,167
347,5	19,452
347,9	20,995
348,4	19,452
348,8	17,538
349,3	12,652
349,8	8,481
350,2	6,11
350,7	12,852
351,1	16,738
351,6	21,252
352	33,824
352,5	42,71
353	52,767
353,4	67,138
353,9	78,967
354,3	94,081
354,8	105,71
355,3	121,71
355,7	142,138
356,2	167,567
356,6	197,595
357,1	233,138
357,5	268,395
358	321,024
358,5	376,281
358,9	440,224
359,4	510,395
359,8	580,538
360,3	667,538
360,8	768,338
361,2	874,51
361,7	990,024
362,1	1124,71
362,6	1274,367
363	1437,624
363,5	1606,31
364	1773,567
364,4	1953,681
364,9	2132,052
365,3	2301,452
365,8	2462,71
366,3	2611,71
366,7	2751,024
367,2	2871,795
367,6	2971,538
368,1	3045,395
368,5	3098,681
369	3122,252
369,5	3125,995
369,9	3096,11
370,4	3044,052
370,8	2967,995
371,3	2884,452
371,7	2767,338
372,2	2644,938
372,7	2510,481
373,1	2375,795
373,6	2239,881
374	2098,567
374,5	1951,11
374,9	1821,195
375,4	1690,224
375,9	1566,51
376,3	1444,31
376,8	1333,024
377,2	1230,281
377,7	1130,852
378,2	1039,995
378,6	956,71
379,1	877,51
379,5	801,738
380	737,11
380,4	673,31
380,9	622,481
381,4	574,11
381,8	524,31
382,3	486,195
382,7	451,538
383,2	416,652
383,6	387,538
384,1	361,424
384,6	329,938
385	310,91
385,5	288,595
385,9	270,538
386,4	254,024
386,8	244,252
387,3	226,567
387,7	215,424
388,2	200,395
388,7	184,024
389,1	168,824
389,6	155,452
390	139,252
390,5	127,938
390,9	124,367
391,4	121,167
391,9	116,424
392,3	109,424
392,8	105,281
393,2	97,91
393,7	95,881
394,1	89,338
394,6	80,795
395,1	77,595
395,5	82,195
396	80,767
396,4	81,367
396,9	77,081
397,3	69,681
397,8	66,367
398,2	60,51
398,7	49,395
399,2	46,081
399,6	43,595
400,1	35,738
400,5	38,852
401	39,024
401,4	44,252
401,9	49,938
402,4	48,938
402,8	47,824
403,3	52,138
403,7	52,195
404,2	58,452
404,6	51,71
405,1	48,195
405,5	47,91
406	50,195
406,5	52,31
406,9	49,852
407,4	47,195
407,8	53,195
408,3	57,91
408,7	63,652
409,2	66,938
409,6	71,167
410,1	81,224
410,6	89,281
411	96,824
411,5	103,081
411,9	103,367
412,4	112,31
412,8	122,852
413,3	130,224
413,7	138,51
414,2	149,91
414,7	165,281
415,1	180,51
415,6	190,595
416	205,081
416,5	216,138
416,9	229,738
417,4	240,367
417,8	252,538
418,3	271,424
418,8	284,138
419,2	297,481
419,7	315,652
420,1	327,738
420,6	343,138
421	355,824
421,5	367,167
421,9	386,738
422,4	404,424
422,8	424,081
423,3	448,367
423,8	477,852
424,2	505,195
424,7	530,91
425,1	554,681
425,6	587,852
426	619,91
426,5	649,881
426,9	678,881
427,4	710,567
427,9	746,595
428,3	789,138
428,8	826,938
429,2	862,11
429,7	900,167
430,1	947,11
430,6	993,738
431	1043,91
431,5	1096,624
431,9	1150,624
432,4	1209,738
432,8	1280,767
433,3	1338,252
433,8	1410,11
434,2	1484,852
434,7	1557,881
435,1	1635,195
435,6	1721,452
436	1798,995
436,5	1889,224
436,9	1976,91
437,4	2068,595
437,8	2167,252
438,3	2269,252
438,8	2372,738
439,2	2487,538
439,7	2607,881
440,1	2724,681
440,6	2855,367
441	2976,395
441,5	3104,424
441,9	3237,567
442,4	3381,71
442,8	3526,11
443,3	3680,795
443,7	3825,424
444,2	3994,767
444,7	4158,138
445,1	4329,824
445,6	4494,052
446	4665,595
446,5	4842,71
446,9	5032,652
447,4	5224,652
447,8	5423,195
448,3	5617,881
448,7	5824,595
449,2	6034,738
449,6	6244,852
450,1	6463,052
450,6	6676,195
451	6895,424
451,5	7124,224
451,9	7358,167
452,4	7598,881
452,8	7847,452
453,3	8091,338
453,7	8343,452
454,2	8599,795
454,6	8863,11
455,1	9128,338
455,5	9390,852
456	9657,738
456,4	9932,281
456,9	10200,452
457,3	10490,052
457,8	10777,681
458,3	11051,452
458,7	11342,195
459,2	11635,367
459,6	11923,224
460,1	12225,824
460,5	12511,224
461	12800,938
461,4	13113,652
461,9	13401,367
462,3	13690,767
462,8	13990,138
463,2	14294,195
463,7	14588,224
464,1	14886,252
464,6	15164,452
465	15469,767
465,5	15759,967
466	16061,51
466,4	16343,824
466,9	16635,11
467,3	16921,938
467,8	17236,081
468,2	17518,71
468,7	17820,452
469,1	18093,681
469,6	18383,71
470	18664,11
470,5	18935,167
470,9	19190,052
471,4	19457,11
471,8	19708,538
472,3	19961,167
472,7	20207,31
473,2	20457,795
473,6	20702,71
474,1	20932,681
474,5	21162,367
475	21406,338
475,4	21637,71
475,9	21865,995
476,4	22088,767
476,8	22309,71
477,3	22522,881
477,7	22726,938
478,2	22911,481
478,6	23104,795
479,1	23281,052
479,5	23447,624
480	23606,481
480,4	23769,881
480,9	23921,938
481,3	24043,852
481,8	24160,595
482,2	24276,652
482,7	24387,71
483,1	24506,538
483,6	24593,795
484	24694,367
484,5	24797,281
484,9	24889,767
485,4	24967,052
485,8	25035,595
486,3	25080,51
486,7	25136,424
487,2	25177,252
487,6	25212,281
488,1	25254,767
488,5	25274,595
489	25292,138
489,4	25305,195
489,9	25312,11
490,4	25298,167
490,8	25280,452
491,3	25238,995
491,7	25211,052
492,2	25172,824
492,6	25120,881
493,1	25061,252
493,5	24999,167
494	24949,795
494,4	24878,795
494,9	24801,938
495,3	24722,11
495,8	24654,167
496,2	24572,967
496,7	24496,224
497,1	24402,538
497,6	24314,738
498	24227,938
498,5	24124,281
498,9	24019,681
499,4	23914,11
499,8	23791,195
500,3	23678,11
500,7	23570,195
501,2	23442,224
501,6	23329,738
502,1	23197,167
502,5	23066,338
503	22940,91
503,4	22793,31
503,9	22653,167
504,3	22503,538
504,8	22351,338
505,2	22206,167
505,7	22057,11
506,1	21900,024
506,6	21742,795
507	21569,767
507,5	21418,424
507,9	21254,395
508,4	21094,424
508,8	20925,195
509,3	20747,538
509,7	20583,367
510,2	20422,252
510,6	20247,252
511,1	20081,481
511,5	19895,567
512	19726,652
512,4	19548,224
512,9	19363,681
513,3	19185,881
513,8	18994,738
514,2	18814,538
514,7	18625,024
515,1	18438,052
515,6	18264,938
516	18091,738
516,5	17906,338
516,9	17725,681
517,4	17538,024
517,8	17365,852
518,3	17178,51
518,7	16996,681
519,2	16816,51
519,6	16627,167
520,1	16457,424
520,5	16278,138
521	16093,167
521,4	15920,738
521,9	15748,224
522,3	15565,71
522,8	15401,938
523,2	15231,538
523,7	15067,967
524,1	14908,567
524,6	14734,51
525	14577,452
525,5	14425,738
525,9	14258,652
526,4	14100,138
526,8	13941,71
527,3	13780,881
527,7	13640,281
528,2	13476,738
528,6	13326,652
529,1	13178,195
529,5	13021,795
530	12871,138
530,4	12731,424
530,9	12576,081
531,3	12444,252
531,8	12299,567
532,2	12163,195
532,6	12028,852
533,1	11886,452
533,5	11733,767
534	11602,852
534,4	11461,052
534,9	11334,881
535,3	11204,424
535,8	11080,767
536,2	10951,338
536,7	10835,967
537,1	10706,538
537,6	10586,081
538	10461,252
538,5	10333,538
538,9	10214,538
539,4	10102,167
539,8	9988,11
540,3	9878,624
540,7	9766,31
541,2	9650,052
541,6	9552,538
542,1	9445,081
542,5	9328,424
543	9228,052
543,4	9137,31
543,9	9039,281
544,3	8939,424
544,8	8840,852
545,2	8732,852
545,7	8650,11
546,1	8554,881
546,5	8460,852
547	8368,624
547,4	8274,624
547,9	8179,938
548,3	8102,881
548,8	8012,681
549,2	7928,424
549,7	7831,538
550,1	7746,595
550,6	7662,824
551	7591,938
551,5	7519,481
551,9	7446,481
552,4	7368,938
552,8	7298,624
553,3	7225,538
553,7	7159,31
554,2	7083,938
554,6	7004,052
555,1	6932,452
555,5	6865,281
555,9	6796,881
556,4	6731,538
556,8	6669,138
557,3	6598,281
557,7	6537,881
558,2	6471,995
558,6	6415,338
559,1	6356,081
559,5	6294,795
560	6230,024
560,4	6173,195
560,9	6115,481
561,3	6060,395
561,8	6002,338
562,2	5938,967
562,7	5883,767
563,1	5831,481
563,6	5776,424
564	5725,681
564,4	5678,281
564,9	5617,081
565,3	5573,11
565,8	5521,11
566,2	5469,738
566,7	5420,367
567,1	5367,024
567,6	5315,452
568	5274,795
568,5	5225,652
568,9	5176,967
569,4	5131,452
569,8	5083,995
570,3	5040,852
570,7	4990,424
571,1	4940,967
571,6	4899,138
572	4862,052
572,5	4824,967
572,9	4783,367
573,4	4742,052
573,8	4707,481
574,3	4671,224
574,7	4633,624
575,2	4595,024
575,6	4549,395
576,1	4510,538
576,5	4472,995
576,9	4437,138
577,4	4393,738
577,8	4351,31
578,3	4310,995
578,7	4277,51
579,2	4246,91
579,6	4211,138
580,1	4172,51
580,5	4140,91
581	4117,71
581,4	4086,91
581,9	4051,481
582,3	4011,995
582,7	3980,024
583,2	3952,652
583,6	3918,452
584,1	3873,452
584,5	3837,995
585	3808,481
585,4	3774,681
585,9	3745,881
586,3	3711,624
586,8	3684,852
587,2	3660,481
587,6	3631,452
588,1	3601,91
588,5	3580,967
589	3546,31
589,4	3512,195
589,9	3486,424
590,3	3459,11
590,8	3427,738
591,2	3399,852
591,7	3371,938
592,1	3348,795
592,5	3327,167
593	3298,824
593,4	3272,51
593,9	3255,881
594,3	3228,624
594,8	3203,852
595,2	3182,081
595,7	3164,281
596,1	3142,081
596,6	3125,424
597	3104,967
597,4	3085,824
597,9	3067,31
598,3	3045,567
598,8	3017,167
599,2	2997,595
599,7	2973,481
600,1	2950,567
600,6	2935,195
601	2915,024
601,4	2896,91
601,9	2878,681
602,3	2865,281
602,8	2845,31
603,2	2827,224
603,7	2806,195
604,1	2792,795
604,6	2770,71
605	2750,852
605,4	2729,967
605,9	2714,395
606,3	2695,281
606,8	2674,481
607,2	2649,852
607,7	2630,138
608,1	2614,024
608,6	2593,624
609	2575,538
609,4	2553,881
609,9	2541,367
610,3	2523,91
610,8	2504,338
611,2	2493,024
611,7	2478,538
612,1	2458,31
612,6	2443,567
613	2427,995
613,4	2410,195
613,9	2402,11
614,3	2381,31
614,8	2358,481
615,2	2345,024
615,7	2335,052
616,1	2314,852
616,6	2301,91
617	2283,052
617,4	2266,31
617,9	2254,138
618,3	2241,081
618,8	2219,852
619,2	2205,024
619,7	2189,224
620,1	2171,91
620,5	2159,71
621	2147,167
621,4	2128,11
621,9	2116,995
622,3	2106,824
622,8	2086,91
623,2	2075,595
623,6	2059,595
624,1	2043,052
624,5	2030,652
625	2005,91
625,4	1988,224
625,9	1981,538
626,3	1962,167
626,8	1951,595
627,2	1938,738
627,6	1924,052
628,1	1915,11
628,5	1899,795
629	1886,538
629,4	1875,967
629,9	1858,138
630,3	1840,767
630,7	1829,252
631,2	1813,624
631,6	1801,938
632,1	1786,081
632,5	1764,738
633	1749,738
633,4	1731,681
633,8	1714,624
634,3	1705,795
634,7	1694,281
635,2	1678,995
635,6	1679,995
636,1	1673,567
636,5	1666,91
636,9	1655,652
637,4	1646,967
637,8	1633,195
638,3	1622,281
638,7	1605,681
639,2	1592,338
639,6	1580,11
640	1572,481
640,5	1559,967
640,9	1551,624
641,4	1542,138
641,8	1533,281
642,2	1530,11
642,7	1524,824
643,1	1517,052
643,6	1504,738
644	1498,852
644,5	1493,395
644,9	1478,424
645,3	1460,538
645,8	1446,31
646,2	1437,767
646,7	1429,395
647,1	1414,881
647,6	1397,281
648	1388,424
648,4	1378,052
648,9	1370,11
649,3	1353,681
649,8	1346,852
650,2	1340,424
650,6	1336,31
651,1	1338,681
651,5	1330,31
652	1323,11
652,4	1316,624
652,9	1302,424
653,3	1293,995
653,7	1281,224
654,2	1265,995
654,6	1259,51
655,1	1248,881
655,5	1241,824
655,9	1239,595
656,4	1229,938
656,8	1224,081
657,3	1209,281
657,7	1197,624
658,2	1192,224
658,6	1180,367
659	1167,995
659,5	1153,767
659,9	1147,824
660,4	1146,11
660,8	1137,995
661,2	1125,11
661,7	1115,367
662,1	1110,167
662,6	1107,081
663	1104,052
663,4	1096,367
663,9	1091,338
664,3	1089,567
664,8	1087,595
665,2	1075,452
665,6	1066,395
666,1	1053,11
666,5	1038,738
667	1030,881
667,4	1023,795
667,9	1011,281
668,3	1006,252
668,7	995,767
669,2	989,31
669,6	986,452
670,1	978,824
670,5	964,538
670,9	960,567
671,4	950,452
671,8	949,367
672,3	942,938
672,7	933,795
673,1	924,138
673,6	920,51
674	913,481
674,5	910,71
674,9	898,51
675,3	889,195
675,8	881,881
676,2	883,367
676,7	877,995
677,1	870,567
677,5	862,138
678	859,71
678,4	855,167
678,9	853,738
679,3	841,91
679,7	832,367
680,2	828,538
680,6	822,852
681,1	813,195
681,5	811,338
681,9	797,795
682,4	792,881
682,8	788,024
683,3	780,595
683,7	775,967
684,1	771,252
684,6	760,452
685	759,024
685,5	750,481
685,9	746,452
686,3	741,995
686,8	735,938
687,2	735,852
687,7	731,995
688,1	732,138
688,5	730,995
689	721,767
689,4	716,51
689,9	714,31
690,3	707,595
690,7	699,938
691,2	693,167
691,6	685,624
692	685,11
692,5	677,795
692,9	667,967
693,4	660,91
693,8	657,852
694,2	647,795
694,7	648,795
695,1	643,224
695,6	636,91
696	637,281
696,4	629,367
696,9	624,31
697,3	622,624
697,8	610,538
698,2	607,024
698,6	605,081
699,1	598,595
699,5	596,938
699,9	590,595
700,4	583,567
700,8	583,91
701,3	578,138
701,7	572,567
702,1	569,681
702,6	565,91
703	562,452
703,5	560,595
703,9	555,567
704,3	557,052
704,8	558,852
705,2	550,138
705,6	542,424
706,1	546,167
706,5	542,167
707	537,195
707,4	534,224
707,8	528,71
708,3	528,11
708,7	533,51
709,2	523,71
709,6	525,452
710	521,824
710,5	513,367
710,9	509,767
711,3	502,538
711,8	492,024
712,2	489,024
712,7	478,967
713,1	478,281
713,5	475,338
714	469,481
714,4	471,281
714,8	471,367
715,3	469,31
715,7	463,71
716,2	458,338
716,6	456,138
717	452,51
717,5	449,995
717,9	441,967
718,3	435,595
718,8	435,681
719,2	431,824
719,7	429,881
720,1	422,052
720,5	416,338
721	412,452
721,4	415,995
721,8	416,11
722,3	408,938
722,7	397,595
723,2	397,224
723,6	394,538
724	393,538
724,5	383,767
724,9	378,567
725,3	373,024
725,8	373,481
726,2	371,167
726,7	368,938
727,1	360,967
727,5	363,167
728	358,252
728,4	362,024
728,8	363,081
729,3	358,081
729,7	353,938
730,1	358,281
730,6	350,881
731	350,395
731,5	347,738
731,9	344,795
732,3	347,595
732,8	345,338
733,2	342,252
733,6	337,938
734,1	333,995
734,5	328,11
734,9	324,624
735,4	322,681
735,8	320,824
736,3	318,852
736,7	318,881
737,1	319,081
737,6	316,91
738	316,767
738,4	314,195
738,9	312,767
739,3	307,281
739,7	306,31
740,2	302,595
740,6	302,424
741,1	299,938
741,5	298,367
741,9	288,681
742,4	287,224
742,8	286,624
743,2	288,681
743,7	286,738
744,1	280,881
744,5	278,338
745	280,452
745,4	281,624
745,8	275,595
746,3	272,738
746,7	271,51
747,2	275,481
747,6	271,51
748	273,281
748,5	268,824
748,9	267,195
749,3	267,481
749,8	262,995
750,2	256,31
750,6	256,052
751,1	253,081
751,5	253,195
751,9	255,252
752,4	248,91
752,8	249,91
753,3	250,652
753,7	251,538
754,1	248,424
754,6	246,195
755	243,338
755,4	241,367
755,9	238,995
756,3	235,424
756,7	231,338
757,2	231,51
757,6	233,938
758	234,024
758,5	231,424
758,9	229,567
759,3	224,481
759,8	228,567
760,2	229,738
760,6	222,452
761,1	219,224
761,5	219,624
761,9	222,052
762,4	224,795
762,8	222,167
763,3	215,11
763,7	213,081
764,1	210,11
764,6	208,424
765	203,281
765,4	202,91
765,9	194,51
766,3	196,11
766,7	195,51
767,2	196,795
767,6	193,652
768	195,595
768,5	190,024
768,9	187,595
769,3	186,967
769,8	191,195
770,2	190,281
770,6	187,738
771,1	187,481
771,5	191,31
771,9	193,424
772,4	196,71
772,8	191,395
773,2	191,767
773,7	195,967
774,1	195,51
774,5	194,795
775	192,995
775,4	184,824
775,8	187,852
776,3	184,167
776,7	183,595
777,1	181,967
777,6	175,967
778	178,795
778,4	178,938
778,9	175,052
779,3	174,881
779,7	171,995
780,2	170,424
780,6	169,31
781	165,081
781,5	167,367
781,9	163,681
782,3	160,338
782,8	156,338
783,2	154,167
783,6	156,652
784,1	157,595
784,5	151,652
784,9	153,824
785,4	151,995
785,8	148,024
786,2	145,652
786,7	143,11
787,1	139,652
787,5	140,881
788	133,738
788,4	132,938
788,8	137,852
789,3	139,91
789,7	141,967
790,1	145,281
790,6	148,081
791	151,252
791,4	150,424
791,9	149,795
792,3	143,367
792,7	145,538
793,2	135,824
793,6	132,138
794	131,052
794,5	130,567
794,9	129,567
795,3	130,567
795,8	126,052
796,2	128,652
796,6	124,938
797,1	121,167
797,5	118,795
797,9	118,31
798,4	117,71
798,8	115,71
799,2	114,424
799,7	117,938
800,1	120,481
800,5	122,652
801	122,652
801,4	117,71
801,8	115,338
802,2	115,167
802,7	113,31
803,1	113,081
803,5	114,938
804	110,51
804,4	110,681
804,8	110,624
805,3	110,452
805,7	108,452
806,1	109,652
806,6	106,481
807	107,624
807,4	107,738
807,9	111,052
808,3	108,824
808,7	106,71
809,2	105,395
809,6	102,024
810	99,995
810,4	101,767
810,9	96,224
811,3	96,824
811,7	94,024
812,2	92,424
812,6	97,567
813	97,538
813,5	95,852
813,9	98,367
814,3	96,967
814,8	100,567
815,2	99,167
815,6	88,624
816,1	87,652
816,5	86,681
816,9	85,91
817,3	86,367
817,8	91,338
818,2	86,738
818,6	91,481
819,1	94,824
819,5	96,081
819,9	89,767
820,4	94,052
820,8	81,538
821,2	88,967
821,7	91,738
822,1	88,767
822,5	87,71
822,9	94,767
823,4	87,538
823,8	97,652
824,2	92,91
824,7	94,31
825,1	96,367
825,5	97,795
826	97,31
826,4	96,424
826,8	88,995
827,3	90,852
827,7	86,71
828,1	86,481
828,5	84,995
829	81,367
829,4	82,281
829,8	82,024
830,3	79,081
830,7	77,252
831,1	70,71
831,6	66,024
832	60,195
832,4	60,881
832,8	62,081
833,3	58,252
833,7	59,481
834,1	61,024
834,6	62,538
835	69,338
835,4	74,424
835,8	67,195
836,3	69,852
836,7	63,595
837,1	61,538
837,6	61,995
838	57,652
838,4	49,967
838,9	58,652
839,3	61,452
839,7	65,538
840,1	63,624
840,6	65,31
841	65,367
841,4	64,824
841,9	60,395
842,3	58,252
842,7	58,91
843,1	61,11
843,6	63,31
844	63,852
844,4	66,738
844,9	63,652
845,3	60,11
845,7	59,081
846,2	55,51
846,6	46,367
847	46,852
847,4	43,51
847,9	45,452
848,3	47,967
848,7	47,281
849,2	52,71
849,6	56,995
850	54,395
850,4	56,11
850,9	53,024
851,3	52,338
851,7	51,767
852,2	48,71
852,6	47,481
853	46,824
853,4	47,024
853,9	49,938
854,3	50,538
854,7	47,195
855,2	44,652
855,6	44,31
856	40,795
856,4	40,052
856,9	33,938
857,3	32,824
857,7	35,481
858,2	36,138
858,6	38,138
859	39,195
859,4	40,852
859,9	44,51
860,3	44,367
860,7	46,424
861,1	50,11
861,6	46,167
862	49,71
862,4	44,681
862,9	44,195
863,3	39,567
863,7	35,624
864,1	31,681
864,6	29,452
865	25,824
865,4	24,881
865,9	22,824
866,3	24,51
866,7	23,852
867,1	27,424
867,6	28,424
868	29,367
868,4	29,595
868,8	35,367
869,3	34,624
869,7	30,138
870,1	29,881
870,6	30,652
871	41,538
871,4	39,91
871,8	32,281
872,3	34,452
872,7	38,052
873,1	35,595
873,5	35,538
874	28,967
874,4	27,595
874,8	29,567
875,3	27,824
875,7	29,281
876,1	26,538
876,5	28,51
877	22,424
877,4	26,338
877,8	27,767
878,2	28,51
878,7	28,081
879,1	29,881
879,5	28,767
879,9	29,91
880,4	26,567
880,8	29,995
881,2	29,567
881,7	28,624
882,1	29,395
882,5	30,938
882,9	31,024
883,4	36,767
883,8	32,995
884,2	33,595
884,6	32,081
885,1	34,424
885,5	32,652
885,9	35,138
886,3	33,081
886,8	30,995
887,2	26,367
887,6	27,71
888	20,967
888,5	19,195
888,9	20,024
889,3	12,824
889,8	11,995
890,2	13,024
890,6	12,91
891	16,224
891,5	18,024
891,9	13,881
892,3	19,624
892,7	24,681
893,2	27,481
893,6	26,11
894	23,538
894,4	25,081
894,9	26,738
895,3	26,567
895,7	29,167
896,1	25,852
896,6	26,31
897	27,51
897,4	20,595
897,8	21,652
898,3	26,195
898,7	20,51
899,1	21,824
899,5	21,224
900	20,281
900,4	21,91
900,8	20,395
901,2	14,338
901,7	16,824
902,1	17,567
902,5	18,424
902,9	20,967
903,4	25,252
903,8	17,31
904,2	19,595
904,6	13,767
905,1	14,795
905,5	11,767
905,9	10,452
906,3	6,51
906,8	15,652
907,2	9,795
907,6	14,481
908	12,595
908,5	16,081
908,9	11,71
909,3	10,538
909,7	5,138
910,2	6,11
910,6	7,281
911	8,338
911,4	8,452
911,9	10,881
912,3	11,224
912,7	14,852
913,1	13,052
913,6	11,51
914	7,795
914,4	5,281
914,8	8,252
915,3	7,31
915,7	1,11
916,1	3,31
916,5	1,138
916,9	3,31
917,4	4,367
917,8	1,024
918,2	-0,062
918,6	2,91
919,1	6,824
919,5	9,052
919,9	10,138
920,3	9,167
920,8	9,338
921,2	13,595
921,6	16,167
922	10,681
922,5	10,767
922,9	10,652
923,3	14,852
923,7	14,252
924,2	12,567
924,6	9,624
925	8,995
925,4	9,024
925,8	5,31
926,3	4,852
926,7	7,738
927,1	8,195
927,5	10,167
928	11,852
928,4	9,881
928,8	12,395
929,2	10,71
929,7	8,652
930,1	6,395
930,5	3,71
930,9	7,224
931,3	10,195
931,8	9,767
932,2	8,51
932,6	10,967
933	6,224
933,5	7,281
933,9	4,652
934,3	-1,033
934,7	0,281
935,2	3,024
935,6	1,938
936	6,167
936,4	8,11
936,8	7,51
937,3	15,395
937,7	12,795
938,1	8,967
938,5	6,852
939	12,052
939,4	10,024
939,8	12,024
940,2	6,51
940,6	6,91
941,1	11,767
941,5	14,824
941,9	11,824
942,3	8,51
942,8	8,567
943,2	8,224
943,6	8,938
944	7,624
944,4	3,71
944,9	0,91
945,3	6,367
945,7	9,252
946,1	10,624
946,6	10,624
947	7,338
947,4	7,424
947,8	11,967
948,2	8,881
948,7	7,824
949,1	3,024
949,5	3,652
949,9	5,11
950,3	6,567
950,8	1,881
951,2	5,11
951,6	1,281
952	0,595
952,5	-0,119
952,9	-2,119
953,3	-3,062
953,7	1,852
954,1	-1,862
954,6	1,967
955	4,881
955,4	2,824
955,8	6,652
956,2	8,595
956,7	10,71
957,1	11,081
957,5	4,367
957,9	3,224
958,3	6,538
958,8	12,167
959,2	8,481
959,6	4,281
960	3,995
960,5	4,738
960,9	7,51
961,3	9,281
961,7	-2,205
962,1	0,938
962,6	-1,348
963	1,767
963,4	5,195
963,8	5,51
964,2	2,967
964,7	4,995
965,1	4,481
965,5	6,91
965,9	5,252
966,3	5,452
966,8	7,967
967,2	8,967
967,6	8,852
968	9,138
968,4	10,767
968,9	18,138
969,3	15,024
969,7	7,767
970,1	4,738
970,5	9,281
971	1,11
971,4	3,224
971,8	-5,319
972,2	1,424
972,6	4,767
973,1	6,995
973,5	6,338
973,9	12,567
974,3	4,167
974,7	2,824
975,2	-1,89
975,6	-6,462
976	-5,633
976,4	-9,49
976,8	-9,748
977,3	-3,89
977,7	-2,69
978,1	-3,519
978,5	0,11
978,9	-0,49
979,4	0,024
979,8	3,024
980,2	-0,833
980,6	1,538
981	5,452
981,5	6,824
981,9	8,51
982,3	5,995
982,7	3,081
983,1	5,481
983,6	5,995
984	3,938
984,4	5,767
984,8	2,652
985,2	2,852
985,6	7,024
986,1	8,052
986,5	1,852
986,9	1,481
987,3	-1,376
987,7	2,624
988,2	7,767
988,6	3,967
989	1,11
989,4	8,31
989,8	3,767
990,3	5,081
990,7	0,481
991,1	-5,662
991,5	-7,919
991,9	-2,233
992,3	-6,376
992,8	2,081
993,2	5,824
993,6	8,024
994	10,11
994,4	11,91
994,9	12,395
995,3	14,624
995,7	12,024
996,1	9,024
996,5	9,424
996,9	10,367
997,4	10,395
997,8	8,71
998,2	10,367
998,6	7,995
999	3,881
999,5	4,71
999,9	4,852
1000,3	8,31
1000,7	6,338
1001,1	3,624
1001,5	2,567
1002	4,224
1002,4	2,652
1002,8	5,91
1003,2	6,31
1003,6	9,452
1004	10,281
1004,5	9,71
1004,9	9,824
1005,3	4,167
1005,7	-1,576
1006,1	-7,605
1006,6	-9,919
1007	-12,148
1007,4	-8,548
1007,8	-6,576
1008,2	-4,633
1008,6	-3,519
1009,1	-3,033
1009,5	1,052
1009,9	6,395
1010,3	7,738
1010,7	11,052
1011,1	17,31
1011,6	17,738
1012	18,481
1012,4	18,252
1012,8	11,424
1013,2	8,738
1013,6	3,11
1014,1	-0,005
1014,5	2,795
1014,9	5,967
1015,3	-2,49
1015,7	-2,576
1016,1	-5,833
1016,6	-4,605
1017	-6,862
1017,4	-8,005
1017,8	-7,462
1018,2	-7,919
1018,6	-2,462
1019,1	-0,919
1019,5	-3,433
1019,9	3,395
1020,3	3,852
1020,7	0,595
1021,1	6,967
1021,6	-0,148
1022	-1,805
1022,4	3,452
1022,8	-1,633
1023,2	-1,262
1023,6	-2,633
1024,1	-3,348
1024,5	2,852
1024,9	9,595
1025,3	10,595
1025,7	14,624
1026,1	14,967
1026,6	20,338
1027	17,31
1027,4	13,852
1027,8	12,595
1028,2	10,767
1028,6	9,024
1029	3,538
1029,5	3,195
1029,9	2,71
1030,3	8,91
1030,7	6,367
1031,1	2,11
1031,5	-5,919
1032	-0,319
1032,4	-1,29
1032,8	1,681
1033,2	0,424
1033,6	2,452
1034	3,681
1034,4	12,71
1034,9	8,024
1035,3	7,824
1035,7	6,481
1036,1	5,252
1036,5	-0,205
1036,9	1,452
1037,4	-0,776
1037,8	2,681
1038,2	-3,148
1038,6	-2,919
1039	-9,262
1039,4	-4,005
1039,8	-9,062
1040,3	-9,776
1040,7	-16,319
1041,1	-10,119
1041,5	-14,319
1041,9	-10,376
1042,3	-11,262
1042,7	-5,69
1043,2	-6,49
1043,6	2,252
1044	0,195
1044,4	2,881
1044,8	2,167
1045,2	0,167
1045,6	-0,948
1046,1	1,795
1046,5	0,481
1046,9	3,71
1047,3	2,91
1047,7	3,367
1048,1	4,024
1048,5	5,052
1049	8,938
1049,4	7,538
1049,8	2,595
1050,2	7,281
1050,6	10,967
1051	14,367
1051,4	14,367
1051,9	14,338
1052,3	12,538
1052,7	14,281
1053,1	9,91
1053,5	6,395
1053,9	2,995
1054,3	2,738
1054,8	3,481
1055,2	5,138
1055,6	4,252
1056	5,424
1056,4	5,51
1056,8	7,024
1057,2	8,424
1057,6	-0,69
1058,1	-0,462
1058,5	-0,148
1058,9	2,224
1059,3	6,195
1059,7	-1,319
1060,1	-4,348
1060,5	-4,233
1061	-4,319
1061,4	3,281
1061,8	-4,176
1062,2	-6,49
1062,6	-2,69
1063	-4,376
1063,4	0,738
1063,8	0,052
1064,3	-6,205
1064,7	-5,576
1065,1	-5,976
1065,5	-0,033
1065,9	1,424
1066,3	-3,405
1066,7	-1,976
1067,1	-2,605
1067,6	6,195
1068	4,252
1068,4	6,481
1068,8	7,881
1069,2	10,595
1069,6	9,881
1070	14,052
1070,4	7,424
1070,9	7,024
1071,3	0,252
1071,7	-0,29
1072,1	3,367
1072,5	3,71
1072,9	-0,176
1073,3	1,767
1073,7	4,91
1074,2	8,424
1074,6	9,51
1075	6,338
1075,4	7,795
1075,8	7,995
1076,2	8,11
1076,6	7,138
1077	2,91
1077,5	6,252
1077,9	7,338
1078,3	4,052
1078,7	4,995
1079,1	10,167
1079,5	10,224
1079,9	17,224
1080,3	12,281
1080,7	14,567
1081,2	15,138
1081,6	17,052
1082	14,395
1082,4	12,738
1082,8	6,424
1083,2	2,71
1083,6	-1,148
1084	-5,148
1084,5	-6,976
1084,9	-9,776
1085,3	-10,319
1085,7	-14,062
1086,1	-12,376
1086,5	-9,205
1086,9	-3,89
1087,3	-2,09
1087,7	2,767
1088,2	-0,89
1088,6	5,424
1089	6,024
1089,4	2,91
1089,8	3,31
1090,2	0,967
1090,6	-5,919
1091	3,767
1091,4	4,424
1091,9	7,852
1092,3	4,595
1092,7	1,224
1093,1	-3,462
1093,5	-5,319
1093,9	-11,49
1094,3	-12,148
1094,7	-14,176
1095,1	-11,976
1095,5	-8,148
1096	-5,862
1096,4	1,395
1096,8	3,195
1097,2	5,024
1097,6	6,995
1098	8,081
1098,4	7,481
1098,8	10,452
1099,2	7,738
1099,6	9,052
1100,1	6,624
1100,5	8,452
1100,9	8,738
1101,3	4,767
1101,7	6,852
1102,1	7,338
1102,5	6,824
1102,9	5,052
1103,3	-2,29
1103,7	-0,348
1104,2	3,852
1104,6	4,31
1105	3,71
1105,4	2,338
1105,8	4,281
1106,2	8,681
1106,6	5,081
1107	3,452
1107,4	-0,4
1107,8	-0,513
1108,3	0,367
