Data from Subt2_097.txt Node
Date: Sat Aug 26 16:44:34 MSK 2023
User: vat
Spectrometer: MAYP114033
Trigger mode: 0
Integration Time (sec): 1,000000E0
Scans to average: 5
Electric dark correction enabled: true
Nonlinearity correction enabled: false
Boxcar width: 3
XAxis mode: Wavelengths
Number of Pixels in Spectrum: 2068
>>>>>Begin Spectral Data<<<<<
199,4	-0,683
199,9	-0,613
200,4	-1,433
200,8	0,667
201,3	1,781
201,8	4,895
202,2	5,638
202,7	6,61
203,2	6,895
203,6	10,352
204,1	8,352
204,6	10,01
205	10,438
205,5	9,838
206	9,638
206,4	10,495
206,9	8,638
207,4	13,495
207,8	10,124
208,3	8,981
208,8	9,638
209,2	13,095
209,7	13,524
210,2	18,438
210,6	14,895
211,1	14,124
211,5	11,81
212	9,495
212,5	5,952
212,9	7,467
213,4	4,21
213,9	-0,362
214,3	6,352
214,8	9,838
215,3	7,981
215,7	6,467
216,2	3,552
216,7	-0,905
217,1	3,181
217,6	1,181
218,1	0,524
218,5	6,238
219	15,381
219,5	15,295
219,9	17,152
220,4	19,752
220,9	18,41
221,3	15,238
221,8	10,41
222,3	0,867
222,7	0,838
223,2	3,781
223,6	-1,076
224,1	-0,676
224,6	0,981
225	5,724
225,5	14,924
226	14,41
226,4	12,981
226,9	14,867
227,4	14,781
227,8	14,267
228,3	18,152
228,8	6,295
229,2	9,467
229,7	9,495
230,2	10,61
230,6	8,038
231,1	8,152
231,5	9,552
232	17,495
232,5	17,524
232,9	16,295
233,4	16,781
233,9	20,667
234,3	21,152
234,8	16,752
235,3	14,381
235,7	13,867
236,2	12,895
236,7	13,352
237,1	8,495
237,6	7,352
238,1	6,295
238,5	7,352
239	7,752
239,4	12,752
239,9	9,01
240,4	11,238
240,8	13,352
241,3	9,61
241,8	10,638
242,2	6,152
242,7	4,867
243,2	4,895
243,6	3,438
244,1	2,81
244,6	3,438
245	-1,305
245,5	0,095
245,9	-0,533
246,4	0,667
246,9	1,438
247,3	2,867
247,8	4,752
248,3	11,695
248,7	19,952
249,2	12,495
249,7	10,667
250,1	12,981
250,6	10,724
251	8,667
251,5	2,638
252	-3,248
252,4	5,01
252,9	6,267
253,4	6,095
253,8	7,21
254,3	9,524
254,8	12,038
255,2	11,038
255,7	13,752
256,1	18,152
256,6	17,867
257,1	19,067
257,5	20,61
258	18,352
258,5	20,752
258,9	18,124
259,4	18,581
259,9	19,581
260,3	20,552
260,8	20,581
261,2	24,324
261,7	24,41
262,2	21,01
262,6	22,667
263,1	18,095
263,6	16,581
264	15,41
264,5	17,724
264,9	14,152
265,4	17,495
265,9	15,724
266,3	21,238
266,8	19,238
267,3	22,21
267,7	17,038
268,2	18,638
268,7	14,381
269,1	9,924
269,6	10,667
270	16,552
270,5	13,895
271	14,01
271,4	8,752
271,9	14,181
272,4	13,181
272,8	7,838
273,3	4,124
273,7	0,438
274,2	-0,905
274,7	4,038
275,1	-4,533
275,6	0,581
276,1	4,124
276,5	5,981
277	11,124
277,4	12,495
277,9	11,352
278,4	18,867
278,8	19,581
279,3	16,381
279,8	15,552
280,2	11,267
280,7	8,238
281,1	9,81
281,6	7,181
282,1	3,952
282,5	8,41
283	8,495
283,4	8,81
283,9	10,867
284,4	8,095
284,8	13,781
285,3	11,067
285,8	4,067
286,2	-0,79
286,7	-0,533
287,1	0,267
287,6	4,61
288,1	0,838
288,5	8,21
289	12,81
289,5	14,324
289,9	17,095
290,4	17,838
290,8	18,695
291,3	16,61
291,8	14,267
292,2	13,21
292,7	14,181
293,1	13,638
293,6	11,667
294,1	4,981
294,5	10,981
295	9,581
295,5	12,124
295,9	14,238
296,4	16,838
296,8	18,238
297,3	23,752
297,8	22,238
298,2	23,838
298,7	23,124
299,1	25,352
299,6	21,981
300,1	20,381
300,5	23,381
301	19,667
301,5	17,895
301,9	17,267
302,4	12,524
302,8	13,01
303,3	15,152
303,8	11,381
304,2	11,152
304,7	10,924
305,1	13,695
305,6	14,095
306,1	13,124
306,5	14,238
307	14,495
307,4	10,381
307,9	7,638
308,4	7,495
308,8	13,41
309,3	13,01
309,8	16,867
310,2	11,467
310,7	20,981
311,1	21,238
311,6	19,467
312,1	16,781
312,5	18,467
313	15,038
313,4	18,838
313,9	16,895
314,4	18,952
314,8	19,81
315,3	15,838
315,7	15,438
316,2	9,867
316,7	11,81
317,1	8,21
317,6	6,724
318	6,381
318,5	9,495
319	7,781
319,4	15,295
319,9	10,467
320,3	13,295
320,8	14,467
321,3	11,581
321,7	12,952
322,2	14,324
322,6	6,695
323,1	9,667
323,6	7,41
324	6,238
324,5	5,867
324,9	4,467
325,4	9,952
325,9	17,581
326,3	20,924
326,8	22,638
327,2	27,952
327,7	28,752
328,2	26,667
328,6	22,438
329,1	23,21
329,5	21,095
330	21,21
330,5	15,981
330,9	16,867
331,4	11,095
331,8	12,667
332,3	12,238
332,8	8,724
333,2	6,552
333,7	8,381
334,1	6,838
334,6	16,381
335,1	17,238
335,5	14,695
336	14,352
336,4	15,124
336,9	19,838
337,4	23,524
337,8	20,81
338,3	18,267
338,7	17,981
339,2	22,152
339,7	19,295
340,1	14,467
340,6	11,752
341	15,41
341,5	17,038
342	17,038
342,4	17,41
342,9	16,781
343,3	20,152
343,8	23,181
344,2	22,267
344,7	23,324
345,2	21,695
345,6	24,438
346,1	34,238
346,5	31,895
347	31,895
347,5	26,581
347,9	24,581
348,4	26,81
348,8	23,81
349,3	19,41
349,8	19,752
350,2	20,467
350,7	25,095
351,1	26,81
351,6	33,924
352	39,867
352,5	43,152
353	52,838
353,4	61,124
353,9	75,21
354,3	90,838
354,8	99,324
355,3	121,352
355,7	143,838
356,2	166,724
356,6	197,01
357,1	223,324
357,5	251,752
358	296,61
358,5	343,381
358,9	398,61
359,4	457,952
359,8	523,867
360,3	604,352
360,8	698,152
361,2	792,467
361,7	894,524
362,1	1016,695
362,6	1147,524
363	1287,724
363,5	1434,895
364	1589,61
364,4	1749,781
364,9	1908,61
365,3	2060,152
365,8	2211,352
366,3	2353,095
366,7	2482,895
367,2	2592,581
367,6	2685,81
368,1	2761,695
368,5	2809,981
369	2835,467
369,5	2832,267
369,9	2803,924
370,4	2762,352
370,8	2693,838
371,3	2620,724
371,7	2525,895
372,2	2419,867
372,7	2303,095
373,1	2192,752
373,6	2062,667
374	1934,581
374,5	1801,695
374,9	1677,61
375,4	1558,238
375,9	1447,752
376,3	1325,41
376,8	1225,095
377,2	1135,238
377,7	1038,638
378,2	954,038
378,6	872,381
379,1	798,638
379,5	737,895
380	680,638
380,4	626,838
380,9	582,952
381,4	534,638
381,8	494,752
382,3	455,467
382,7	419,438
383,2	381,867
383,6	350,324
384,1	321,724
384,6	298,552
385	277,095
385,5	260,352
385,9	247,438
386,4	237,41
386,8	229,067
387,3	214,524
387,7	206,238
388,2	190,552
388,7	181,038
389,1	164,524
389,6	150,61
390	132,524
390,5	121,352
390,9	112,695
391,4	113,381
391,9	102,838
392,3	96,781
392,8	93,181
393,2	88,381
393,7	89,438
394,1	88,21
394,6	77,667
395,1	79,438
395,5	81,038
396	78,438
396,4	78,981
396,9	74,324
397,3	64,581
397,8	62,667
398,2	52,124
398,7	43,581
399,2	36,695
399,6	36,267
400,1	28,067
400,5	29,21
401	30,867
401,4	37,095
401,9	43,467
402,4	45,724
402,8	42,095
403,3	44,524
403,7	45,181
404,2	45,581
404,6	39,124
405,1	35,124
405,5	33,095
406	31,61
406,5	31,724
406,9	29,61
407,4	31,038
407,8	32,038
408,3	33,895
408,7	39,238
409,2	42,752
409,6	44,238
410,1	49,638
410,6	44,724
411	50,267
411,5	50,752
411,9	47,095
412,4	49,924
412,8	54,324
413,3	53,752
413,7	59,381
414,2	62,724
414,7	68,238
415,1	72,21
415,6	78,21
416	82,924
416,5	85,267
416,9	86,495
417,4	88,438
417,8	86,467
418,3	92,295
418,8	84,61
419,2	79,895
419,7	83,781
420,1	83,238
420,6	81,438
421	85,267
421,5	79,381
421,9	85,352
422,4	88,867
422,8	90,295
423,3	91,038
423,8	92,638
424,2	90,381
424,7	96,152
425,1	95,838
425,6	97,467
426	91,095
426,5	92,124
426,9	91,21
427,4	88,61
427,9	81,352
428,3	80,695
428,8	81,124
429,2	83,924
429,7	81,067
430,1	82,324
430,6	82,838
431	85,152
431,5	83,01
431,9	76,81
432,4	77,61
432,8	79,695
433,3	75,438
433,8	80,267
434,2	81,095
434,7	80,495
435,1	83,324
435,6	87,81
436	87,695
436,5	96,324
436,9	102,038
437,4	107,124
437,8	112,095
438,3	117,695
438,8	114,924
439,2	120,952
439,7	118,438
440,1	117,895
440,6	119,838
441	119,781
441,5	123,438
441,9	132,495
442,4	138,895
442,8	146,781
443,3	144,981
443,7	148,724
444,2	156,267
444,7	163,124
445,1	166,41
445,6	173,067
446	180,638
446,5	193,124
446,9	206,01
447,4	216,867
447,8	223,067
448,3	232,667
448,7	237,267
449,2	242,467
449,6	250,667
450,1	258,495
450,6	268,152
451	277,01
451,5	284,924
451,9	291,781
452,4	303,895
452,8	313,752
453,3	316,924
453,7	325,295
454,2	336,181
454,6	345,895
455,1	354,61
455,5	366,867
456	377,752
456,4	393,238
456,9	404,895
457,3	420,01
457,8	435,152
458,3	456,238
458,7	471,352
459,2	485,095
459,6	503,581
460,1	517,295
460,5	529,124
461	542,895
461,4	555,21
461,9	566,038
462,3	581,867
462,8	595,867
463,2	615,495
463,7	632,238
464,1	649,238
464,6	666,352
465	688,495
465,5	707,21
466	725,838
466,4	743,095
466,9	768,095
467,3	782,695
467,8	809,038
468,2	827,41
468,7	850,552
469,1	871,895
469,6	892,495
470	911,21
470,5	940,981
470,9	956,152
471,4	974,752
471,8	989,467
472,3	1003,667
472,7	1026,438
473,2	1039,21
473,6	1058,867
474,1	1077,095
474,5	1095,667
475	1122,552
475,4	1143,467
475,9	1162,924
476,4	1183,838
476,8	1196,21
477,3	1219,495
477,7	1243,381
478,2	1258,038
478,6	1281,981
479,1	1297,152
479,5	1316,724
480	1340,581
480,4	1352,21
480,9	1367,41
481,3	1384,267
481,8	1400,352
482,2	1414,038
482,7	1428,724
483,1	1448,952
483,6	1467,095
484	1479,667
484,5	1499,21
484,9	1509,41
485,4	1531,781
485,8	1552,01
486,3	1558,81
486,7	1575,981
487,2	1594,581
487,6	1603,095
488,1	1622,295
488,5	1630,124
489	1640,552
489,4	1650,695
489,9	1660,067
490,4	1668,267
490,8	1682,81
491,3	1690,152
491,7	1700,724
492,2	1707,267
492,6	1723,295
493,1	1732,352
493,5	1737,41
494	1748,067
494,4	1755,067
494,9	1763,067
495,3	1777,181
495,8	1785,095
496,2	1797,181
496,7	1811,581
497,1	1814,238
497,6	1824,324
498	1831,267
498,5	1838,61
498,9	1840,695
499,4	1846,038
499,8	1848,181
500,3	1855,952
500,7	1856,381
501,2	1862,581
501,6	1865,238
502,1	1875,038
502,5	1873,981
503	1880,295
503,4	1887,324
503,9	1904,352
504,3	1912,61
504,8	1916,181
505,2	1915,381
505,7	1926,038
506,1	1935,095
506,6	1937,61
507	1937,01
507,5	1939,124
507,9	1946,295
508,4	1953,267
508,8	1954,495
509,3	1961,467
509,7	1965,324
510,2	1967,695
510,6	1970,581
511,1	1978,61
511,5	1984,438
512	1991,067
512,4	1992,952
512,9	2000,067
513,3	2013,581
513,8	2017,495
514,2	2020,495
514,7	2026,01
515,1	2033,838
515,6	2030,524
516	2031,21
516,5	2030,095
516,9	2037,924
517,4	2039,495
517,8	2041,867
518,3	2044,067
518,7	2054,952
519,2	2059,552
519,6	2064,41
520,1	2072,267
520,5	2080,067
521	2087,095
521,4	2092,895
521,9	2098,181
522,3	2106,952
522,8	2113,21
523,2	2116,41
523,7	2121,752
524,1	2128,267
524,6	2125,667
525	2135,352
525,5	2141,124
525,9	2141,867
526,4	2146,781
526,8	2148,695
527,3	2157,467
527,7	2175,267
528,2	2184,667
528,6	2192,267
529,1	2199,01
529,5	2205,152
530	2216,581
530,4	2220,41
530,9	2225,01
531,3	2227,181
531,8	2236,495
532,2	2246,552
532,6	2257,667
533,1	2261,924
533,5	2271,181
534	2282,752
534,4	2296,41
534,9	2308,381
535,3	2317,867
535,8	2323,181
536,2	2332,581
536,7	2337,295
537,1	2339,638
537,6	2337,61
538	2340,895
538,5	2346,867
538,9	2357,581
539,4	2365,695
539,8	2370,21
540,3	2376,152
540,7	2386,752
541,2	2392,695
541,6	2400,581
542,1	2408,124
542,5	2413,01
543	2425,781
543,4	2440,638
543,9	2445,667
544,3	2452,267
544,8	2461,895
545,2	2461,467
545,7	2469,495
546,1	2476,238
546,5	2479,895
547	2492,067
547,4	2494,867
547,9	2503,095
548,3	2515,067
548,8	2517,495
549,2	2529,01
549,7	2538,124
550,1	2544,324
550,6	2554,124
551	2560,924
551,5	2569,438
551,9	2583,638
552,4	2584,895
552,8	2588,781
553,3	2596,124
553,7	2604,038
554,2	2608,495
554,6	2612,752
555,1	2615,752
555,5	2620,667
555,9	2625,067
556,4	2630,267
556,8	2634,095
557,3	2637,181
557,7	2641,295
558,2	2650,01
558,6	2655,238
559,1	2659,152
559,5	2661,238
560	2669,467
560,4	2678,352
560,9	2682,952
561,3	2686,438
561,8	2700,467
562,2	2709,01
562,7	2716,41
563,1	2714,381
563,6	2718,61
564	2727,238
564,4	2734,095
564,9	2726,238
565,3	2729,438
565,8	2730,952
566,2	2742,038
566,7	2740,352
567,1	2741,01
567,6	2742,61
568	2750,267
568,5	2750,867
568,9	2749,267
569,4	2746,095
569,8	2748,21
570,3	2753,095
570,7	2754,21
571,1	2753,552
571,6	2756,267
572	2763,838
572,5	2767,438
572,9	2774,067
573,4	2771,295
573,8	2773,781
574,3	2775,552
574,7	2775,781
575,2	2775,695
575,6	2775,838
576,1	2779,038
576,5	2777,352
576,9	2772,181
577,4	2773,581
577,8	2772,752
578,3	2769,952
578,7	2765,324
579,2	2760,181
579,6	2762,581
580,1	2763,467
580,5	2757,752
581	2757,724
581,4	2758,581
581,9	2756,038
582,3	2751,838
582,7	2748,61
583,2	2745,295
583,6	2741,067
584,1	2733,381
584,5	2728,152
585	2731,61
585,4	2727,924
585,9	2726,61
586,3	2724,324
586,8	2721,038
587,2	2719,267
587,6	2713,295
588,1	2704,638
588,5	2701,61
589	2693,267
589,4	2688,638
589,9	2689,181
590,3	2686,295
590,8	2691,238
591,2	2690,495
591,7	2685,81
592,1	2682,381
592,5	2680,038
593	2676,295
593,4	2670,01
593,9	2654,581
594,3	2649,667
594,8	2642,981
595,2	2644,295
595,7	2640,038
596,1	2633,181
596,6	2639,924
597	2639,581
597,4	2633,61
597,9	2627,981
598,3	2622,01
598,8	2612,981
599,2	2612,352
599,7	2601,124
600,1	2592,038
600,6	2589,895
601	2587,152
601,4	2579,552
601,9	2575,324
602,3	2566,324
602,8	2556,095
603,2	2552,324
603,7	2544,038
604,1	2537,695
604,6	2528,295
605	2517,295
605,4	2512,324
605,9	2502,01
606,3	2498,295
606,8	2484,924
607,2	2479,552
607,7	2474,438
608,1	2475,495
608,6	2467,267
609	2465,067
609,4	2453,324
609,9	2455,324
610,3	2446,952
610,8	2442,038
611,2	2429,238
611,7	2418,41
612,1	2408,152
612,6	2403,981
613	2393,152
613,4	2381,867
613,9	2371,524
614,3	2366,01
614,8	2354,238
615,2	2347,695
615,7	2335,181
616,1	2324,781
616,6	2313,152
617	2305,838
617,4	2296,61
617,9	2296,524
618,3	2291,095
618,8	2282,524
619,2	2277,067
619,7	2272,752
620,1	2258,21
620,5	2247,438
621	2233,41
621,4	2219,638
621,9	2214,038
622,3	2204,467
622,8	2190,495
623,2	2183,61
623,6	2173,295
624,1	2162,467
624,5	2157,067
625	2141,038
625,4	2128,181
625,9	2124,21
626,3	2111,981
626,8	2106,81
627,2	2103,324
627,6	2082,181
628,1	2076,924
628,5	2067,781
629	2059,01
629,4	2051,381
629,9	2041,267
630,3	2027,152
630,7	2030,324
631,2	2020,067
631,6	2009,924
632,1	1992,524
632,5	1986,181
633	1964,952
633,4	1955,295
633,8	1934,781
634,3	1922,495
634,7	1913,638
635,2	1911,638
635,6	1901,41
636,1	1901,124
636,5	1887,838
636,9	1882,724
637,4	1876,41
637,8	1863,067
638,3	1846,181
638,7	1835,438
639,2	1826,581
639,6	1816,952
640	1806,838
640,5	1797,038
640,9	1790,752
641,4	1784,438
641,8	1771,21
642,2	1759,867
642,7	1751,352
643,1	1746,181
643,6	1734,267
644	1723,352
644,5	1715,038
644,9	1709,238
645,3	1699,552
645,8	1697,495
646,2	1689,752
646,7	1679,924
647,1	1677,181
647,6	1669,124
648	1656,752
648,4	1651,067
648,9	1640,981
649,3	1627,981
649,8	1625,181
650,2	1611,838
650,6	1601,952
651,1	1599,667
651,5	1590,867
652	1580,981
652,4	1572,81
652,9	1563,01
653,3	1553,895
653,7	1545,324
654,2	1535,724
654,6	1524,067
655,1	1511,01
655,5	1506,581
655,9	1497,581
656,4	1491,067
656,8	1483,581
657,3	1472,924
657,7	1461,21
658,2	1457,067
658,6	1442,352
659	1432,095
659,5	1426,21
659,9	1416,41
660,4	1403,552
660,8	1402,41
661,2	1389,924
661,7	1380,952
662,1	1372,61
662,6	1359,152
663	1353,61
663,4	1347,667
663,9	1336,324
664,3	1333,095
664,8	1330,267
665,2	1318,01
665,6	1308,01
666,1	1294,952
666,5	1288,324
667	1278,952
667,4	1271,324
667,9	1256,295
668,3	1250,781
668,7	1246,61
669,2	1240,638
669,6	1231,467
670,1	1227,667
670,5	1213,01
670,9	1213,524
671,4	1207,21
671,8	1197,352
672,3	1189,295
672,7	1180,238
673,1	1166,81
673,6	1160,067
674	1151,124
674,5	1143,581
674,9	1136,41
675,3	1124,924
675,8	1119,581
676,2	1117,124
676,7	1112,638
677,1	1101,181
677,5	1092,267
678	1087,381
678,4	1086,295
678,9	1073,552
679,3	1061,781
679,7	1054,381
680,2	1050,724
680,6	1043,438
681,1	1029,724
681,5	1028,381
681,9	1023,981
682,4	1022,524
682,8	1016,895
683,3	1004,667
683,7	999,41
684,1	997,61
684,6	984,81
685	982,324
685,5	969,867
685,9	960,667
686,3	956,552
686,8	954,724
687,2	947,838
687,7	939,781
688,1	930,781
688,5	925,838
689	925,924
689,4	921,124
689,9	912,695
690,3	910,295
690,7	906,181
691,2	901,895
691,6	899,724
692	890,952
692,5	884,981
692,9	874,495
693,4	865,238
693,8	861,152
694,2	853,81
694,7	846,41
695,1	834,467
695,6	830,467
696	825,324
696,4	818,324
696,9	812,124
697,3	804,524
697,8	797,495
698,2	796,552
698,6	788,038
699,1	781,695
699,5	777,095
699,9	769,838
700,4	767,895
700,8	767,095
701,3	758,124
701,7	753,581
702,1	752,152
702,6	746,581
703	740,552
703,5	733,124
703,9	724,838
704,3	724,495
704,8	722,552
705,2	717,61
705,6	709,952
706,1	712,038
706,5	714,895
707	708,724
707,4	706,324
707,8	698,067
708,3	690,867
708,7	695,21
709,2	683,181
709,6	672,181
710	669,695
710,5	661,324
710,9	656,581
711,3	656,01
711,8	646,038
712,2	648,21
712,7	645,752
713,1	639,552
713,5	634,295
714	631,381
714,4	623,267
714,8	620,81
715,3	614,838
715,7	607,267
716,2	601,067
716,6	601,381
717	598,752
717,5	595,152
717,9	589,752
718,3	583,352
718,8	582,181
719,2	580,181
719,7	576,324
720,1	566,067
720,5	566,752
721	560,61
721,4	559,438
721,8	554,581
722,3	547,467
722,7	534,952
723,2	533,095
723,6	526,01
724	526,524
724,5	520,038
724,9	512,324
725,3	511,781
725,8	511,781
726,2	506,581
726,7	502,038
727,1	494,61
727,5	486,838
728	488,581
728,4	484,552
728,8	484,638
729,3	482,667
729,7	477,724
730,1	476,61
730,6	477,724
731	477,01
731,5	476,581
731,9	477,924
732,3	478,952
732,8	480,21
733,2	478,952
733,6	477,667
734,1	474,752
734,5	465,552
734,9	453,695
735,4	449,867
735,8	443,352
736,3	436,295
736,7	434,581
737,1	426,752
737,6	425,352
738	425,41
738,4	421,01
738,9	421,267
739,3	417,552
739,7	412,352
740,2	412,095
740,6	412,467
741,1	406,781
741,5	406,61
741,9	398,724
742,4	401,467
742,8	400,924
743,2	397,952
743,7	399,781
744,1	397,552
744,5	395,41
745	393,038
745,4	389,524
745,8	386,295
746,3	387,924
746,7	377,552
747,2	378,552
747,6	373,495
748	378,381
748,5	372,495
748,9	366,381
749,3	360,667
749,8	356,638
750,2	354,095
750,6	348,781
751,1	345,838
751,5	342,21
751,9	340,981
752,4	333,324
752,8	332,41
753,3	325,381
753,7	326,552
754,1	321,21
754,6	325,01
755	320,124
755,4	320,41
755,9	321,524
756,3	322,095
756,7	318,01
757,2	316,981
757,6	312,581
758	310,838
758,5	310,952
758,9	309,067
759,3	305,038
759,8	308,381
760,2	308,381
760,6	306,724
761,1	304,552
761,5	305,495
761,9	302,81
762,4	299,895
762,8	296,352
763,3	289,752
763,7	285,267
764,1	284,21
764,6	278,152
765	274,352
765,4	276,238
765,9	268,724
766,3	263,467
766,7	265,981
767,2	266,238
767,6	261,952
768	262,267
768,5	259,124
768,9	257,638
769,3	263,21
769,8	260,695
770,2	261,295
770,6	260,667
771,1	260,438
771,5	261,21
771,9	262,81
772,4	262,867
772,8	257,238
773,2	255,867
773,7	258,81
774,1	257,667
774,5	257,238
775	252,638
775,4	243,638
775,8	246,238
776,3	242,21
776,7	241,238
777,1	244,01
777,6	237,924
778	238,01
778,4	237,152
778,9	233,381
779,3	234,638
779,7	231,095
780,2	223,581
780,6	226,952
781	223,552
781,5	224,21
781,9	226,095
782,3	222,324
782,8	220,181
783,2	216,038
783,6	208,524
784,1	210,324
784,5	209,581
784,9	203,838
785,4	200,981
785,8	195,895
786,2	195,267
786,7	194,038
787,1	193,438
787,5	192,895
788	188,181
788,4	185,438
788,8	184,01
789,3	186,724
789,7	190,01
790,1	189,21
790,6	186,352
791	188,867
791,4	186,695
791,9	187,295
792,3	183,438
792,7	182,724
793,2	176,067
793,6	175,781
794	175,838
794,5	175,267
794,9	179,495
795,3	178,952
795,8	173,581
796,2	176,267
796,6	170,295
797,1	165,552
797,5	165,495
797,9	158,667
798,4	157,352
798,8	155,124
799,2	157,924
799,7	164,724
800,1	165,695
800,5	164,638
801	165,267
801,4	161,724
801,8	162,238
802,2	155,952
802,7	151,152
803,1	148,752
803,5	150,61
804	152,267
804,4	150,867
804,8	156,01
805,3	150,81
805,7	147,895
806,1	149,381
806,6	147,981
807	144,21
807,4	142,324
807,9	138,267
808,3	139,352
808,7	141,867
809,2	138,21
809,6	135,867
810	131,981
810,4	133,41
810,9	126,01
811,3	129,181
811,7	124,181
812,2	129,095
812,6	128,438
813	129,895
813,5	128,61
813,9	132,724
814,3	127,01
814,8	128,952
815,2	118,095
815,6	116,495
816,1	119,152
816,5	116,467
816,9	118,095
817,3	121,038
817,8	122,638
818,2	123,581
818,6	121,838
819,1	115,381
819,5	114,724
819,9	109,524
820,4	108,01
820,8	98,638
821,2	101,21
821,7	101,324
822,1	104,467
822,5	104,867
822,9	106,867
823,4	105,552
823,8	109,752
824,2	108,81
824,7	111,438
825,1	109,638
825,5	114,438
826	110,752
826,4	114,495
826,8	112,752
827,3	113,381
827,7	110,352
828,1	112,067
828,5	108,152
829	107,895
829,4	104,81
829,8	102,638
830,3	103,724
830,7	102,552
831,1	100,381
831,6	96,152
832	90,067
832,4	86,295
832,8	88,81
833,3	81,724
833,7	83,21
834,1	81,867
834,6	79,21
835	84,324
835,4	88,724
835,8	83,324
836,3	82,952
836,7	76,181
837,1	72,981
837,6	73,124
838	67,61
838,4	60,667
838,9	66,438
839,3	69,552
839,7	73,752
840,1	71,81
840,6	71,838
841	75,752
841,4	75,01
841,9	72,152
842,3	71,524
842,7	68,01
843,1	70,924
843,6	76,124
844	76,895
844,4	78,324
844,9	78,352
845,3	73,838
845,7	75,81
846,2	74,695
846,6	71,581
847	71,695
847,4	71,01
847,9	70,438
848,3	76,381
848,7	77,81
849,2	76,924
849,6	77,324
850	75,467
850,4	77,381
850,9	77,867
851,3	73,038
851,7	73,352
852,2	70,038
852,6	71,895
853	75,495
853,4	76,01
853,9	71,467
854,3	70,667
854,7	65,781
855,2	70,067
855,6	63,867
856	58,724
856,4	55,495
856,9	54,295
857,3	55,952
857,7	60,352
858,2	60,067
858,6	66,067
859	63,381
859,4	64,095
859,9	67,467
860,3	65,752
860,7	62,038
861,1	61,552
861,6	59,952
862	63,324
862,4	63,21
862,9	64,038
863,3	62,495
863,7	59,552
864,1	59,981
864,6	53,438
865	51,295
865,4	50,352
865,9	45,181
866,3	50,267
866,7	55,61
867,1	53,952
867,6	56,81
868	56,381
868,4	55,695
868,8	59,724
869,3	55,695
869,7	48,867
870,1	52,524
870,6	48,638
871	64,524
871,4	64,01
871,8	63,238
872,3	63,581
872,7	62,267
873,1	58,152
873,5	59,41
874	45,038
874,4	43,067
874,8	43,61
875,3	41,867
875,7	44,124
876,1	44,295
876,5	47,638
877	45,895
877,4	46,838
877,8	48,895
878,2	49,324
878,7	49,01
879,1	47,41
879,5	42,981
879,9	42,01
880,4	40,324
880,8	34,838
881,2	39,867
881,7	45,552
882,1	43,638
882,5	45,81
882,9	43,952
883,4	47,867
883,8	48,152
884,2	39,924
884,6	35,581
885,1	39,724
885,5	42,438
885,9	48,581
886,3	43,952
886,8	42,438
887,2	46,752
887,6	45,295
888	42,924
888,5	44,667
888,9	39,495
889,3	39,181
889,8	41,61
890,2	38,124
890,6	37,067
891	37,124
891,5	32,695
891,9	36,41
892,3	35,552
892,7	37,524
893,2	37,924
893,6	34,667
894	31,638
894,4	29,495
894,9	25,61
895,3	27,438
895,7	23,381
896,1	26,295
896,6	31,581
897	36,638
897,4	36,324
897,8	40,61
898,3	45,895
898,7	45,124
899,1	41,895
899,5	39,295
900	35,81
900,4	37,838
900,8	36,324
901,2	30,124
901,7	26,924
902,1	29,124
902,5	30,552
902,9	32,181
903,4	35,438
903,8	28,324
904,2	34,81
904,6	34,181
905,1	33,295
905,5	25,924
905,9	26,124
906,3	20,381
906,8	26,781
907,2	20,095
907,6	26,552
908	24,838
908,5	32,581
908,9	29,238
909,3	27,952
909,7	24,781
910,2	25,61
910,6	26,21
911	29,038
911,4	26,324
911,9	26,638
912,3	28,61
912,7	29,924
913,1	30,295
913,6	28,552
914	24,952
914,4	23,724
914,8	23,895
915,3	21,752
915,7	18,724
916,1	18,067
916,5	14,41
916,9	15,61
917,4	15,61
917,8	16,381
918,2	15,152
918,6	17,181
919,1	20,238
919,5	27,352
919,9	27,895
920,3	29,752
920,8	27,124
921,2	31,21
921,6	28,324
922	23,838
922,5	21,01
922,9	17,752
923,3	20,552
923,7	20,781
924,2	16,524
924,6	18,181
925	17,981
925,4	17,752
925,8	20,324
926,3	20,752
926,7	25,495
927,1	29,895
927,5	31,838
928	32,81
928,4	32,552
928,8	39,152
929,2	37,01
929,7	32,438
930,1	31,81
930,5	32,152
930,9	35,61
931,3	32,552
931,8	24,724
932,2	22,924
932,6	25,895
933	23,41
933,5	22,981
933,9	20,638
934,3	23,01
934,7	26,81
935,2	28,495
935,6	25,895
936	26,01
936,4	23,952
936,8	21,838
937,3	22,781
937,7	22,667
938,1	17,124
938,5	17,81
939	18,924
939,4	19,295
939,8	21,295
940,2	19,295
940,6	14,695
941,1	21,352
941,5	21,467
941,9	21,181
942,3	20,381
942,8	18,095
943,2	16,524
943,6	17,638
944	11,067
944,4	7,667
944,9	6,352
945,3	4,924
945,7	3,895
946,1	5,952
946,6	6,267
947	10,781
947,4	13,095
947,8	14,667
948,2	12,552
948,7	15,467
949,1	11,552
949,5	11,724
949,9	13,467
950,3	13,524
950,8	9,81
951,2	15,724
951,6	15,724
952	19,581
952,5	19,067
952,9	13,895
953,3	10,838
953,7	13,81
954,1	12,438
954,6	14,895
955	14,41
955,4	12,752
955,8	17,124
956,2	16,181
956,7	16,295
957,1	14,638
957,5	8,495
957,9	8,324
958,3	9,067
958,8	6,01
959,2	11,038
959,6	12,352
960	13,695
960,5	12,952
960,9	10,552
961,3	13,352
961,7	8,724
962,1	4,552
962,6	3,21
963	1,238
963,4	5,524
963,8	5,495
964,2	0,21
964,7	5,61
965,1	7,124
965,5	4,495
965,9	8,867
966,3	8,267
966,8	11,01
967,2	15,524
967,6	15,895
968	19,095
968,4	25,038
968,9	26,381
969,3	24,467
969,7	19,21
970,1	18,781
970,5	22,124
971	18,01
971,4	15,524
971,8	12,867
972,2	15,238
972,6	20,267
973,1	21,181
973,5	19,867
973,9	22,524
974,3	18,524
974,7	14,61
975,2	16,038
975,6	9,41
976	9,038
976,4	6,238
976,8	4,267
977,3	6,581
977,7	7,724
978,1	2,41
978,5	5,41
978,9	2,838
979,4	2,238
979,8	0,295
980,2	0,552
980,6	5,552
981	10,067
981,5	14,781
981,9	14,667
982,3	16,124
982,7	21,067
983,1	23,867
983,6	20,924
984	21,095
984,4	18,067
984,8	22,924
985,2	24,181
985,6	26,067
986,1	22,238
986,5	20,524
986,9	21,724
987,3	21,352
987,7	15,867
988,2	14,838
988,6	11,752
989	11,295
989,4	14,867
989,8	8,095
990,3	7,667
990,7	8,467
991,1	3,524
991,5	2,267
991,9	7,781
992,3	7,352
992,8	15,61
993,2	20,724
993,6	20,552
994	24,495
994,4	22,238
994,9	18,838
995,3	15,638
995,7	9,638
996,1	5,61
996,5	6,952
996,9	0,981
997,4	4,61
997,8	6,495
998,2	6,067
998,6	10,781
999	11,295
999,5	7,638
999,9	17,352
1000,3	18,581
1000,7	13,552
1001,1	13,81
1001,5	7,924
1002	5,267
1002,4	8,581
1002,8	8,695
1003,2	8,01
1003,6	11,238
1004	9,01
1004,5	9,667
1004,9	9,638
1005,3	3,867
1005,7	-3,39
1006,1	-7,419
1006,6	-6,448
1007	-2,762
1007,4	0,581
1007,8	0,981
1008,2	5,124
1008,6	6,295
1009,1	7,952
1009,5	9,867
1009,9	15,295
1010,3	18,152
1010,7	22,124
1011,1	25,667
1011,6	27,038
1012	25,381
1012,4	24,61
1012,8	10,295
1013,2	6,552
1013,6	5,324
1014,1	6,124
1014,5	9,095
1014,9	12,981
1015,3	12,61
1015,7	18,352
1016,1	18,695
1016,6	18,152
1017	11,038
1017,4	3,667
1017,8	4,752
1018,2	-1,276
1018,6	3,124
1019,1	1,667
1019,5	2,324
1019,9	11,295
1020,3	15,21
1020,7	12,524
1021,1	16,438
1021,6	10,067
1022	7,981
1022,4	11,524
1022,8	7,81
1023,2	6,952
1023,6	6,181
1024,1	11,981
1024,5	16,324
1024,9	20,581
1025,3	17,324
1025,7	17,81
1026,1	22,981
1026,6	26,267
1027	19,667
1027,4	19,581
1027,8	13,495
1028,2	13,61
1028,6	16,667
1029	11,41
1029,5	10,61
1029,9	11,61
1030,3	14,124
1030,7	17,924
1031,1	14,667
1031,5	9,467
1032	11,752
1032,4	11,438
1032,8	7,924
1033,2	6,952
1033,6	9,352
1034	8,695
1034,4	17,067
1034,9	11,581
1035,3	12,124
1035,7	16,638
1036,1	18,41
1036,5	11,552
1036,9	11,895
1037,4	6,267
1037,8	10,352
1038,2	4,381
1038,6	0,381
1039	-2,562
1039,4	2,695
1039,8	4,152
1040,3	3,895
1040,7	3,124
1041,1	9,924
1041,5	12,152
1041,9	10,781
1042,3	15,152
1042,7	16,638
1043,2	16,924
1043,6	22,724
1044	17,752
1044,4	13,981
1044,8	14,61
1045,2	12,038
1045,6	13,41
1046,1	15,552
1046,5	13,181
1046,9	16,81
1047,3	17,267
1047,7	16,552
1048,1	12,01
1048,5	9,495
1049	8,095
1049,4	4,152
1049,8	2,267
1050,2	4,238
1050,6	6,867
1051	13,21
1051,4	13,41
1051,9	14,695
1052,3	14,895
1052,7	16,952
1053,1	19,295
1053,5	16,067
1053,9	10,324
1054,3	8,181
1054,8	13,21
1055,2	16,152
1055,6	11,952
1056	10,895
1056,4	15,324
1056,8	18,324
1057,2	23,952
1057,6	13,124
1058,1	18,181
1058,5	19,324
1058,9	19,952
1059,3	22,838
1059,7	17,724
1060,1	10,467
1060,5	6,124
1061	-1,962
1061,4	2,067
1061,8	2,581
1062,2	-2,162
1062,6	1,724
1063	2,81
1063,4	9,695
1063,8	11,267
1064,3	7,152
1064,7	7,552
1065,1	7,238
1065,5	9,238
1065,9	13,981
1066,3	12,867
1066,7	12,724
1067,1	16,552
1067,6	18,895
1068	13,352
1068,4	11,495
1068,8	11,838
1069,2	12,724
1069,6	14,095
1070	14,581
1070,4	8,724
1070,9	11,152
1071,3	13,467
1071,7	14,581
1072,1	18,981
1072,5	21,438
1072,9	22,01
1073,3	24,552
1073,7	24,638
1074,2	22,924
1074,6	21,552
1075	13,124
1075,4	9,838
1075,8	8,495
1076,2	6,867
1076,6	9,152
1077	8,867
1077,5	9,295
1077,9	13,238
1078,3	11,438
1078,7	6,495
1079,1	10,438
1079,5	9,952
1079,9	14,41
1080,3	13,581
1080,7	15,981
1081,2	19,438
1081,6	24,781
1082	21,067
1082,4	23,524
1082,8	16,867
1083,2	14,267
1083,6	11,238
1084	9,952
1084,5	7,895
1084,9	9,067
1085,3	9,238
1085,7	9,667
1086,1	7,152
1086,5	10,438
1086,9	8,724
1087,3	11,581
1087,7	14,295
1088,2	11,352
1088,6	15,267
1089	16,21
1089,4	13,924
1089,8	19,152
1090,2	18,267
1090,6	14,095
1091	18,438
1091,4	18,324
1091,9	24,181
1092,3	22,695
1092,7	17,867
1093,1	14,552
1093,5	15,124
1093,9	15,467
1094,3	17,067
1094,7	11,152
1095,1	5,524
1095,5	7,924
1096	3,638
1096,4	6,267
1096,8	1,495
1097,2	-4,39
1097,6	1,21
1098	8,21
1098,4	10,581
1098,8	15,038
1099,2	11,524
1099,6	15,667
1100,1	19,981
1100,5	15,81
1100,9	15,924
1101,3	12,295
1101,7	14,267
1102,1	17,695
1102,5	14,952
1102,9	9,81
1103,3	7,667
1103,7	7,324
1104,2	12,381
1104,6	13,638
1105	12,867
1105,4	14,21
1105,8	15,267
1106,2	17,267
1106,6	15,095
1107	8,552
1107,4	5,467
1107,8	3,387
1108,3	-0,433
