Data from Subt2_164.txt Node
Date: Sat Aug 26 18:34:28 MSK 2023
User: vat
Spectrometer: MAYP114033
Trigger mode: 0
Integration Time (sec): 1,000000E0
Scans to average: 5
Electric dark correction enabled: true
Nonlinearity correction enabled: false
Boxcar width: 3
XAxis mode: Wavelengths
Number of Pixels in Spectrum: 2068
>>>>>Begin Spectral Data<<<<<
199,4	-1,15
199,9	1,1
200,4	0,3
200,8	-2,786
201,3	-4,414
201,8	-1,529
202,2	-6,3
202,7	-0,271
203,2	-2,414
203,6	-1,814
204,1	0,186
204,6	-0,043
205	-2,814
205,5	0,586
206	-4,3
206,4	-3,157
206,9	-8,3
207,4	-5,9
207,8	-3,214
208,3	-5,3
208,8	-4,671
209,2	-7,786
209,7	-6,3
210,2	-1,557
210,6	-4,3
211,1	-5,386
211,5	-6,929
212	-7,586
212,5	-3,529
212,9	-7,871
213,4	-9,557
213,9	-9,843
214,3	-6,957
214,8	-2,386
215,3	-0,871
215,7	-2,357
216,2	-2,157
216,7	1,014
217,1	0,357
217,6	1,1
218,1	-1,643
218,5	-1,757
219	-5,929
219,5	-1,929
219,9	-6,329
220,4	3,671
220,9	-1,043
221,3	0,843
221,8	0,929
222,3	3,614
222,7	6,957
223,2	9,471
223,6	0,243
224,1	3,586
224,6	-0,414
225	-4,071
225,5	-3,586
226	-4,814
226,4	-5,7
226,9	-3,643
227,4	-6,471
227,8	-5,814
228,3	-3,1
228,8	-4,586
229,2	-7,3
229,7	-9,129
230,2	-6,929
230,6	-1,986
231,1	3,871
231,5	3,014
232	5,643
232,5	3,414
232,9	7,757
233,4	5,786
233,9	0,643
234,3	-3,1
234,8	1,757
235,3	0,243
235,7	2,9
236,2	2,757
236,7	3,986
237,1	5,614
237,6	4,586
238,1	0,071
238,5	-0,757
239	-0,214
239,4	1,729
239,9	-1,071
240,4	2,329
240,8	3,529
241,3	3,671
241,8	4,871
242,2	2,557
242,7	0,214
243,2	-1,729
243,6	-9,586
244,1	-7,443
244,6	-3,643
245	-3,443
245,5	-3,843
245,9	-7,671
246,4	-3,014
246,9	1,814
247,3	2,9
247,8	3,071
248,3	5,814
248,7	7,929
249,2	15,071
249,7	10,443
250,1	10,671
250,6	6,814
251	3,9
251,5	-1,5
252	-2,3
252,4	-4,9
252,9	-8,443
253,4	-11,014
253,8	-10,843
254,3	-10,757
254,8	-5,643
255,2	-6,5
255,7	-9,729
256,1	-1,071
256,6	2,929
257,1	3,671
257,5	0,671
258	-0,614
258,5	-0,671
258,9	2,214
259,4	-1,671
259,9	1,986
260,3	1,014
260,8	0,443
261,2	0,7
261,7	-0,071
262,2	-6,129
262,6	-8,129
263,1	-12,214
263,6	-10,357
264	-6,186
264,5	-7,186
264,9	-10,557
265,4	-4,786
265,9	-2,529
266,3	2,814
266,8	5,386
267,3	4,986
267,7	4,271
268,2	5,957
268,7	9,414
269,1	6,414
269,6	-4,3
270	-4,3
270,5	-3,3
271	-4,157
271,4	-0,329
271,9	-6,414
272,4	0,614
272,8	4,586
273,3	-0,3
273,7	0,786
274,2	0,614
274,7	-0,529
275,1	1,386
275,6	-1,786
276,1	-1,843
276,5	1,043
277	-1,271
277,4	-1,671
277,9	1,557
278,4	3,214
278,8	8,7
279,3	9,529
279,8	9,529
280,2	9,5
280,7	16,157
281,1	11,529
281,6	11,214
282,1	9,357
282,5	9,471
283	7,929
283,4	4,671
283,9	-0,986
284,4	6,243
284,8	1,7
285,3	-4,5
285,8	-4,329
286,2	-4,243
286,7	1,729
287,1	1,557
287,6	-4,671
288,1	-4,929
288,5	1,843
289	-1,1
289,5	-1,357
289,9	-6,9
290,4	-3,014
290,8	-4,329
291,3	0,929
291,8	-4,529
292,2	-2,529
292,7	-1,557
293,1	3,014
293,6	4,329
294,1	4,329
294,5	1,329
295	5,786
295,5	3,471
295,9	6,843
296,4	4,129
296,8	1,357
297,3	0,9
297,8	-1,957
298,2	-5,357
298,7	0,786
299,1	-1,443
299,6	-3,614
300,1	-2,071
300,5	2,557
301	7,5
301,5	9,957
301,9	1,529
302,4	0,757
302,8	4,443
303,3	2,614
303,8	-1,157
304,2	-1,986
304,7	-2,757
305,1	-1,443
305,6	-3,186
306,1	0,843
306,5	2,043
307	7,7
307,4	11,271
307,9	12,957
308,4	15,357
308,8	12,243
309,3	5,186
309,8	4,786
310,2	1,9
310,7	-3,729
311,1	-6,871
311,6	-8,557
312,1	-3,471
312,5	0,9
313	0,986
313,4	0,586
313,9	1,929
314,4	0,5
314,8	1,957
315,3	0,186
315,7	-7,186
316,2	-7,986
316,7	-8,471
317,1	-4,271
317,6	-1,157
318	3,214
318,5	5,014
319	10,814
319,4	9,814
319,9	14,929
320,3	13,871
320,8	12,614
321,3	10,443
321,7	12,043
322,2	6,957
322,6	7,643
323,1	5,557
323,6	5,186
324	3,129
324,5	2,1
324,9	1,614
325,4	2,386
325,9	2,529
326,3	-1,043
326,8	-3,757
327,2	-1,271
327,7	-3,214
328,2	-5,557
328,6	-3,129
329,1	-2,043
329,5	-2,357
330	-2,357
330,5	-3,3
330,9	0,386
331,4	-1,214
331,8	0,957
332,3	0,186
332,8	1,357
333,2	5,643
333,7	6,3
334,1	5,671
334,6	4,529
335,1	-2,043
335,5	-3,329
336	-5,5
336,4	-8,157
336,9	-3,129
337,4	-2,929
337,8	-0,243
338,3	2,729
338,7	5,871
339,2	6,529
339,7	8,843
340,1	4,443
340,6	1,843
341	-0,957
341,5	0,014
342	-1,757
342,4	-2,7
342,9	-6,814
343,3	-4,186
343,8	-3,014
344,2	-3,5
344,7	1,529
345,2	1,414
345,6	0,557
346,1	5,271
346,5	-3,157
347	-4,243
347,5	-5,614
347,9	-6,5
348,4	-6,043
348,8	-1,9
349,3	-3,986
349,8	1,414
350,2	7,414
350,7	9,3
351,1	8,557
351,6	10,671
352	10,071
352,5	12,614
353	19,729
353,4	23,5
353,9	35,671
354,3	41,357
354,8	46,3
355,3	61,157
355,7	72,043
356,2	83,271
356,6	94,871
357,1	109,7
357,5	131,071
358	155,7
358,5	176,929
358,9	206,1
359,4	240,329
359,8	275,329
360,3	322,671
360,8	365,614
361,2	417,557
361,7	471,1
362,1	534,071
362,6	600,614
363	673,786
363,5	744,586
364	832,786
364,4	913,329
364,9	1000,529
365,3	1079,386
365,8	1156,414
366,3	1230,7
366,7	1295,814
367,2	1347,071
367,6	1394,9
368,1	1430,471
368,5	1458,957
369	1469,5
369,5	1472,871
369,9	1461,529
370,4	1443,386
370,8	1411,243
371,3	1370,729
371,7	1321,386
372,2	1264,986
372,7	1201,186
373,1	1139,671
373,6	1071,357
374	1004,586
374,5	936,3
374,9	867,7
375,4	804,729
375,9	745,671
376,3	685,157
376,8	625,5
377,2	579,129
377,7	531,929
378,2	487,443
378,6	448,843
379,1	410,386
379,5	378,957
380	356,014
380,4	325,729
380,9	300,214
381,4	270,157
381,8	251,471
382,3	234,443
382,7	212,871
383,2	194,614
383,6	176,757
384,1	162,957
384,6	160,043
385	142,3
385,5	129,643
385,9	118,757
386,4	108,071
386,8	97,986
387,3	88,386
387,7	79,129
388,2	74,9
388,7	70,157
389,1	66,557
389,6	61,5
390	58,043
390,5	56,614
390,9	52,814
391,4	54,357
391,9	49,529
392,3	51,071
392,8	43,014
393,2	41,529
393,7	38,414
394,1	35,014
394,6	28,214
395,1	27,329
395,5	20,671
396	26,129
396,4	27,443
396,9	25,957
397,3	29,986
397,8	32,557
398,2	27,1
398,7	34,329
399,2	32,729
399,6	29,386
400,1	27,414
400,5	23,643
401	20,071
401,4	21,014
401,9	21,329
402,4	20,671
402,8	20,386
403,3	25,614
403,7	25,3
404,2	29,414
404,6	34,043
405,1	27,529
405,5	24,471
406	24,786
406,5	23,014
406,9	20,471
407,4	15,986
407,8	18,729
408,3	19,929
408,7	23,9
409,2	28,529
409,6	30,843
410,1	34,614
410,6	41,757
411	39,071
411,5	42,529
411,9	44,7
412,4	43,814
412,8	44,986
413,3	47,3
413,7	46,614
414,2	49,329
414,7	58,043
415,1	63,5
415,6	70,7
416	75,186
416,5	82,357
416,9	85,1
417,4	87,529
417,8	89,843
418,3	94,214
418,8	99,529
419,2	101,7
419,7	103,443
420,1	106,186
420,6	113,957
421	108,3
421,5	113,1
421,9	112,471
422,4	114,5
422,8	114,186
423,3	124,329
423,8	122,871
424,2	128,271
424,7	128,329
425,1	129,929
425,6	132,3
426	137,729
426,5	134,443
426,9	143,9
427,4	147,186
427,9	146,9
428,3	152,557
428,8	158,929
429,2	164,386
429,7	171,243
430,1	168,814
430,6	173,243
431	181,043
431,5	191,071
431,9	190,557
432,4	196,129
432,8	202,529
433,3	213,929
433,8	224,3
434,2	234,043
434,7	238,814
435,1	251,243
435,6	265,043
436	277,986
436,5	291,871
436,9	303,357
437,4	314,157
437,8	326,557
438,3	345,071
438,8	354,786
439,2	368,557
439,7	382,071
440,1	400,929
440,6	422,186
441	436,043
441,5	456,043
441,9	478,329
442,4	491,443
442,8	511,071
443,3	531,729
443,7	552,043
444,2	578,671
444,7	599,357
445,1	624,871
445,6	651,243
446	677,757
446,5	699,757
446,9	721,386
447,4	744,9
447,8	774,671
448,3	803,414
448,7	836,757
449,2	865,186
449,6	897,986
450,1	932,043
450,6	972,757
451	1002,671
451,5	1030,729
451,9	1065,957
452,4	1105,9
452,8	1146,071
453,3	1190,986
453,7	1218,271
454,2	1255,986
454,6	1296,986
455,1	1332,357
455,5	1360,671
456	1401,614
456,4	1429,043
456,9	1477,386
457,3	1514,329
457,8	1553,757
458,3	1598,757
458,7	1643,729
459,2	1684,471
459,6	1732,614
460,1	1777,443
460,5	1824,014
461	1873,329
461,4	1918,243
461,9	1966,7
462,3	2014,757
462,8	2060,586
463,2	2103,786
463,7	2156,271
464,1	2204,357
464,6	2251,557
465	2299,557
465,5	2342,214
466	2392,3
466,4	2442,129
466,9	2490,071
467,3	2535,414
467,8	2578,757
468,2	2631,243
468,7	2681,586
469,1	2725,214
469,6	2769,271
470	2816,157
470,5	2859,957
470,9	2901,986
471,4	2938,5
471,8	2975,814
472,3	3017,557
472,7	3055,186
473,2	3086,329
473,6	3123,786
474,1	3173,643
474,5	3219,671
475	3257,5
475,4	3299,157
475,9	3345,843
476,4	3390,186
476,8	3428,071
477,3	3458,643
477,7	3497,386
478,2	3529,986
478,6	3560,557
479,1	3586,9
479,5	3614,7
480	3641,814
480,4	3671,071
480,9	3687,186
481,3	3714,586
481,8	3739,671
482,2	3755,614
482,7	3779,957
483,1	3803,386
483,6	3820,7
484	3834,214
484,5	3854,557
484,9	3862,214
485,4	3881,043
485,8	3889,586
486,3	3906,357
486,7	3915,243
487,2	3931,443
487,6	3937,357
488,1	3944,271
488,5	3950,329
489	3962,443
489,4	3965,3
489,9	3958,586
490,4	3955,757
490,8	3959,643
491,3	3963,043
491,7	3959,014
492,2	3953,043
492,6	3946,986
493,1	3948,157
493,5	3934,957
494	3923,014
494,4	3915,843
494,9	3906,471
495,3	3897,757
495,8	3876,386
496,2	3870,9
496,7	3861,357
497,1	3849,671
497,6	3837,586
498	3829,214
498,5	3807,614
498,9	3791,329
499,4	3771,243
499,8	3762,586
500,3	3744,586
500,7	3721,529
501,2	3695,986
501,6	3675,071
502,1	3664,443
502,5	3643,9
503	3615,9
503,4	3588,471
503,9	3564,271
504,3	3537,643
504,8	3511,957
505,2	3481,7
505,7	3455,9
506,1	3435,957
506,6	3407,1
507	3383,271
507,5	3356,529
507,9	3328,7
508,4	3301,786
508,8	3271,614
509,3	3237,643
509,7	3218,443
510,2	3190,357
510,6	3160,557
511,1	3138,243
511,5	3112,071
512	3082,929
512,4	3057,329
512,9	3025,643
513,3	2995,757
513,8	2968,786
514,2	2937,643
514,7	2906,1
515,1	2877,1
515,6	2849,329
516	2813,043
516,5	2785,5
516,9	2756,529
517,4	2726,614
517,8	2701,271
518,3	2672,214
518,7	2643,414
519,2	2619,186
519,6	2590,071
520,1	2563,014
520,5	2533,986
521	2499,871
521,4	2474,557
521,9	2446,357
522,3	2418,929
522,8	2386,9
523,2	2355,786
523,7	2329,9
524,1	2305,214
524,6	2277,814
525	2251,757
525,5	2226,9
525,9	2206,271
526,4	2181,157
526,8	2152,357
527,3	2128,986
527,7	2103,643
528,2	2077,014
528,6	2044,357
529,1	2020,129
529,5	2003,157
530	1982,871
530,4	1958,271
530,9	1939,871
531,3	1918,557
531,8	1902,129
532,2	1873,529
532,6	1845,729
533,1	1816,186
533,5	1789,014
534	1763,186
534,4	1738,043
534,9	1717,3
535,3	1700,129
535,8	1677,614
536,2	1664,729
536,7	1650,071
537,1	1629,129
537,6	1609,443
538	1591,414
538,5	1575,157
538,9	1555,386
539,4	1537,729
539,8	1520,014
540,3	1504,671
540,7	1485,729
541,2	1469,529
541,6	1452,386
542,1	1440,329
542,5	1420,386
543	1403,271
543,4	1382,214
543,9	1374,757
544,3	1364,157
544,8	1343,329
545,2	1330,357
545,7	1319,671
546,1	1308,214
546,5	1301,9
547	1283,529
547,4	1264,1
547,9	1255,7
548,3	1243,357
548,8	1229,329
549,2	1211,929
549,7	1198,1
550,1	1184,671
550,6	1168,529
551	1158,071
551,5	1139,5
551,9	1131,5
552,4	1120,9
552,8	1108,9
553,3	1100,9
553,7	1094,243
554,2	1083,043
554,6	1080,957
555,1	1068,014
555,5	1059,043
555,9	1049,9
556,4	1035,329
556,8	1018,814
557,3	1008,671
557,7	997,186
558,2	983,843
558,6	975,843
559,1	963,186
559,5	955,643
560	953,443
560,4	946,043
560,9	931,9
561,3	922,529
561,8	914,157
562,2	908,386
562,7	905,071
563,1	897,443
563,6	884,129
564	879,5
564,4	872,871
564,9	860,986
565,3	851,671
565,8	842,729
566,2	837,586
566,7	834,414
567,1	830,386
567,6	824,386
568	821,7
568,5	815,7
568,9	806,671
569,4	797,014
569,8	785,271
570,3	777,3
570,7	767,786
571,1	763,443
571,6	756,9
572	757,871
572,5	752,929
572,9	751,957
573,4	742,957
573,8	745,271
574,3	731,129
574,7	723,929
575,2	713,557
575,6	707,357
576,1	703,3
576,5	702,529
576,9	689,071
577,4	686,471
577,8	682,5
578,3	675,814
578,7	671,243
579,2	667,929
579,6	657,443
580,1	653,1
580,5	652,329
581	643,557
581,4	635,471
581,9	631,3
582,3	624,671
582,7	624,357
583,2	622,329
583,6	613,986
584,1	614,043
584,5	612,643
585	608,386
585,4	594,671
585,9	586,071
586,3	584,671
586,8	584,157
587,2	581,586
587,6	584,957
588,1	581,786
588,5	582,5
589	578,1
589,4	566,329
589,9	563,271
590,3	556,586
590,8	546,157
591,2	540,443
591,7	540,1
592,1	544,3
592,5	548,014
593	537,186
593,4	533,557
593,9	528,357
594,3	523,929
594,8	516,529
595,2	510,557
595,7	504,9
596,1	502,557
596,6	501,957
597	497,871
597,4	497,043
597,9	496,643
598,3	493,814
598,8	494,614
599,2	495,071
599,7	490,529
600,1	485,157
600,6	482,929
601	480,7
601,4	482,471
601,9	478,329
602,3	474,386
602,8	470,957
603,2	473,5
603,7	465,586
604,1	464,843
604,6	455,7
605	450,1
605,4	452,757
605,9	446,271
606,3	435,7
606,8	432,7
607,2	425,043
607,7	419,357
608,1	416,957
608,6	414,214
609	419,329
609,4	424,671
609,9	423,614
610,3	421,929
610,8	422,786
611,2	423,243
611,7	417,329
612,1	409,071
612,6	405,729
613	406,243
613,4	405,129
613,9	400,386
614,3	394,729
614,8	397,643
615,2	393,471
615,7	391,557
616,1	388,014
616,6	382,214
617	380,586
617,4	381,271
617,9	376,643
618,3	377,757
618,8	380,786
619,2	376,214
619,7	379,386
620,1	377,929
620,5	375,986
621	370,329
621,4	370,071
621,9	362,5
622,3	362,7
622,8	355,757
623,2	356,643
623,6	350,043
624,1	354,243
624,5	352,271
625	351,586
625,4	350,157
625,9	352,443
626,3	348,414
626,8	348,3
627,2	343,957
627,6	336,614
628,1	333,843
628,5	333,529
629	326,671
629,4	321,729
629,9	325,043
630,3	314,3
630,7	318,5
631,2	315,729
631,6	312,929
632,1	318,214
632,5	316,557
633	309,986
633,4	314,7
633,8	311,157
634,3	308,1
634,7	305,043
635,2	293,471
635,6	292,329
636,1	291,643
636,5	286,214
636,9	286,529
637,4	284,7
637,8	277,671
638,3	275,014
638,7	272,557
639,2	267,157
639,6	267,843
640	258,071
640,5	256,786
640,9	260,243
641,4	266,1
641,8	266,586
642,2	265,929
642,7	268,357
643,1	276,5
643,6	274,357
644	272,843
644,5	272,471
644,9	268,729
645,3	269,586
645,8	261,329
646,2	256,814
646,7	258,443
647,1	258,814
647,6	256,1
648	258,471
648,4	255,957
648,9	259,671
649,3	258,1
649,8	255,1
650,2	253,014
650,6	252,014
651,1	249,929
651,5	254,014
652	248,957
652,4	241,586
652,9	239,129
653,3	238,443
653,7	233,529
654,2	229,471
654,6	221,557
655,1	222,157
655,5	228,271
655,9	225,243
656,4	225,729
656,8	224,614
657,3	225,157
657,7	227,614
658,2	228,129
658,6	223,586
659	222,157
659,5	214,129
659,9	214,7
660,4	215,414
660,8	212,757
661,2	208,9
661,7	208,1
662,1	210,5
662,6	209,814
663	207,071
663,4	203,529
663,9	199,3
664,3	197,871
664,8	196,014
665,2	191,271
665,6	189,471
666,1	186,843
666,5	184,043
667	183,357
667,4	178,929
667,9	177,271
668,3	174,557
668,7	176,614
669,2	178,214
669,6	177,871
670,1	180,957
670,5	182,214
670,9	178,671
671,4	178,529
671,8	177,414
672,3	179,586
672,7	182,871
673,1	176,9
673,6	176,186
674	180,186
674,5	182,443
674,9	176,786
675,3	176,957
675,8	173,957
676,2	172,586
676,7	168,929
677,1	169,586
677,5	166,9
678	170,357
678,4	168,071
678,9	165,043
679,3	165,443
679,7	165,529
680,2	157,586
680,6	157,186
681,1	152,329
681,5	150,757
681,9	151,586
682,4	156,157
682,8	157,7
683,3	158,871
683,7	153,643
684,1	156,557
684,6	151,557
685	148,7
685,5	142,557
685,9	135,929
686,3	139,186
686,8	138,7
687,2	138,271
687,7	137,443
688,1	132,929
688,5	129,871
689	132,614
689,4	124,843
689,9	124,529
690,3	118,157
690,7	117,243
691,2	124,871
691,6	127,271
692	122,157
692,5	124,043
692,9	126,1
693,4	126,729
693,8	125,186
694,2	119,5
694,7	113,957
695,1	118,186
695,6	119,5
696	119,5
696,4	122,157
696,9	117,586
697,3	114,957
697,8	116,643
698,2	111,986
698,6	111,957
699,1	108,271
699,5	108,814
699,9	110,786
700,4	110,786
700,8	109,814
701,3	111,757
701,7	109,129
702,1	106,414
702,6	101,814
703	103,529
703,5	101,871
703,9	102,1
704,3	105,129
704,8	101,271
705,2	105,214
705,6	106,471
706,1	106,671
706,5	104,329
707	104,957
707,4	102,814
707,8	101,643
708,3	99,129
708,7	98,214
709,2	99,271
709,6	100,5
710	104,1
710,5	96,357
710,9	100,557
711,3	101,329
711,8	101,614
712,2	99,986
712,7	97,586
713,1	93,071
713,5	102,643
714	102,814
714,4	100,186
714,8	97,986
715,3	94,843
715,7	99,157
716,2	95,729
716,6	91,243
717	86,1
717,5	85,671
717,9	88,243
718,3	89,214
718,8	85,843
719,2	85,871
719,7	84,529
720,1	88,5
720,5	89,929
721	85,814
721,4	84,643
721,8	88,986
722,3	83,043
722,7	84,671
723,2	79,957
723,6	75,157
724	74,443
724,5	73,357
724,9	69,414
725,3	70,9
725,8	66,643
726,2	66,071
726,7	69,1
727,1	66,586
727,5	66,443
728	64,814
728,4	68,9
728,8	68,7
729,3	64,7
729,7	62,357
730,1	67,014
730,6	68,186
731	67,614
731,5	63,871
731,9	66,786
732,3	72,9
732,8	77,129
733,2	73,414
733,6	71,443
734,1	70,843
734,5	72,757
734,9	70,071
735,4	70,871
735,8	65,986
736,3	69,243
736,7	66,614
737,1	66,357
737,6	65,757
738	66,157
738,4	61,357
738,9	62,186
739,3	59,729
739,7	62,871
740,2	62,671
740,6	64,871
741,1	69,271
741,5	64,471
741,9	66,129
742,4	70,986
742,8	69,986
743,2	70,471
743,7	66,271
744,1	57,157
744,5	59,386
745	53,671
745,4	48,557
745,8	49,071
746,3	48,243
746,7	46,071
747,2	51,9
747,6	55,586
748	62,386
748,5	60,814
748,9	57,471
749,3	58,129
749,8	60,3
750,2	58,843
750,6	52,129
751,1	46,643
751,5	46,214
751,9	50,1
752,4	49,043
752,8	49,357
753,3	49,557
753,7	56,986
754,1	52,9
754,6	49,443
755	45,443
755,4	44,643
755,9	45,386
756,3	39,729
756,7	40,214
757,2	46,986
757,6	54,729
758	55,186
758,5	55,557
758,9	56,5
759,3	61,557
759,8	60,043
760,2	57,557
760,6	51,157
761,1	52,214
761,5	51,214
761,9	48,757
762,4	45,043
762,8	42,586
763,3	40,614
763,7	43,7
764,1	44,643
764,6	45,329
765	46,529
765,4	45,1
765,9	48,271
766,3	50,414
766,7	48,414
767,2	43,329
767,6	43,129
768	39,729
768,5	40,157
768,9	36,186
769,3	35,986
769,8	36,471
770,2	38,7
770,6	38,729
771,1	41,071
771,5	43,814
771,9	46,5
772,4	45,643
772,8	44,014
773,2	43,5
773,7	43,414
774,1	41,957
774,5	38,043
775	34,471
775,4	35,729
775,8	35,586
776,3	33,7
776,7	31,014
777,1	31,043
777,6	33,129
778	38,614
778,4	37,414
778,9	39,157
779,3	41,643
779,7	44,957
780,2	44,386
780,6	40,957
781	34,871
781,5	32,357
781,9	28,757
782,3	29,157
782,8	25,786
783,2	25,9
783,6	32,7
784,1	29,5
784,5	28,3
784,9	30,614
785,4	32,329
785,8	36,071
786,2	38,614
786,7	34,957
787,1	36,329
787,5	37,129
788	36,414
788,4	35,186
788,8	31,5
789,3	25,586
789,7	25,9
790,1	24,586
790,6	27,614
791	24,3
791,4	22,986
791,9	22,3
792,3	22,586
792,7	24,071
793,2	23,957
793,6	23,014
794	27,1
794,5	23,3
794,9	25,757
795,3	29,643
795,8	29,271
796,2	34,929
796,6	33,271
797,1	28,386
797,5	27,729
797,9	20,071
798,4	18,443
798,8	15,929
799,2	12,729
799,7	17,986
800,1	15,643
800,5	18,729
801	27,186
801,4	22,643
801,8	20,557
802,2	20,529
802,7	17,529
803,1	21,529
803,5	21,9
804	19,186
804,4	24,757
804,8	27,443
805,3	28,557
805,7	30,014
806,1	29,7
806,6	31,5
807	33,586
807,4	29,129
807,9	23,9
808,3	21,786
808,7	19,443
809,2	22,814
809,6	22,5
810	19,557
810,4	19,186
810,9	24,129
811,3	26,929
811,7	24,386
812,2	26,614
812,6	23,957
813	25,329
813,5	32,671
813,9	34,214
814,3	35,157
814,8	34,014
815,2	30,471
815,6	28,843
816,1	31,3
816,5	27,271
816,9	23,671
817,3	21,357
817,8	28,329
818,2	28,329
818,6	28,557
819,1	24,814
819,5	22,786
819,9	25,814
820,4	24,414
820,8	17,586
821,2	11,271
821,7	14,814
822,1	17,214
822,5	22,614
822,9	17,214
823,4	16,586
823,8	22,614
824,2	30,3
824,7	26,757
825,1	19,214
825,5	13,3
826	15,1
826,4	13,443
826,8	5,071
827,3	3,7
827,7	0,786
828,1	5,614
828,5	7,757
829	4,9
829,4	5,957
829,8	6,071
830,3	1,157
830,7	-0,386
831,1	0,557
831,6	-2,3
832	2,986
832,4	5,586
832,8	8,214
833,3	12,529
833,7	15,843
834,1	14,414
834,6	14,929
835	14,414
835,4	13,386
835,8	4,7
836,3	3,329
836,7	4,7
837,1	5,271
837,6	10,214
838	9,129
838,4	12,186
838,9	21,271
839,3	16,814
839,7	16,671
840,1	8,786
840,6	-0,157
841	1,614
841,4	-3,186
841,9	-3,186
842,3	1,214
842,7	1,386
843,1	9,3
843,6	17,014
844	15,5
844,4	17,157
844,9	20,186
845,3	16,843
845,7	17,157
846,2	12,471
846,6	8,414
847	7,614
847,4	9,586
847,9	6,214
848,3	9,586
848,7	11,014
849,2	14,5
849,6	10,843
850	14,357
850,4	11,129
850,9	13,671
851,3	14,957
851,7	16,414
852,2	13,786
852,6	17,271
853	12,243
853,4	14,214
853,9	7,5
854,3	3,157
854,7	1,586
855,2	5,243
855,6	7,557
856	8,243
856,4	3,186
856,9	3,5
857,3	9,929
857,7	9,386
858,2	14,786
858,6	13,357
859	15,814
859,4	18,643
859,9	23,757
860,3	16,814
860,7	17,3
861,1	11,843
861,6	7,986
862	6,214
862,4	4,7
862,9	3,957
863,3	8,071
863,7	7,957
864,1	9,957
864,6	14,443
865	13,471
865,4	18,929
865,9	20,443
866,3	14,271
866,7	14,014
867,1	10,443
867,6	9,871
868	7,614
868,4	3,043
868,8	2,871
869,3	7,043
869,7	9,386
870,1	9,071
870,6	7,7
871	-2,071
871,4	4,529
871,8	0,671
872,3	2,414
872,7	1,529
873,1	1,814
873,5	5,671
874	21,757
874,4	14,786
874,8	13,071
875,3	11,386
875,7	8,386
876,1	8,271
876,5	4,271
877	-0,186
877,4	-0,643
877,8	3,529
878,2	9,471
878,7	9,729
879,1	8,814
879,5	11,871
879,9	14,986
880,4	20,129
880,8	14,957
881,2	9,9
881,7	9,557
882,1	10,329
882,5	9,129
882,9	6,671
883,4	0,9
883,8	5,329
884,2	0,786
884,6	-0,614
885,1	-0,129
885,5	-4,414
885,9	-2,386
886,3	-1,357
886,8	-5,214
887,2	-0,443
887,6	-1,529
888	-1,986
888,5	6,386
888,9	4,1
889,3	4,214
889,8	7,357
890,2	4,5
890,6	5,414
891	4,929
891,5	-0,9
891,9	0,271
892,3	0,443
892,7	0,7
893,2	4,071
893,6	1,786
894	4,871
894,4	5,443
894,9	3,757
895,3	4,643
895,7	6,5
896,1	4,071
896,6	9,186
897	6,557
897,4	10,671
897,8	15,843
898,3	17,871
898,7	17,529
899,1	17,014
899,5	13,643
900	10,071
900,4	4,729
900,8	-3,071
901,2	-6,186
901,7	-8,3
902,1	-6,7
902,5	-4,786
902,9	-5,471
903,4	-2,214
903,8	2,729
904,2	-0,414
904,6	-0,386
905,1	0,843
905,5	2,471
905,9	9,671
906,3	10,071
906,8	10,329
907,2	13,957
907,6	17,671
908	20,3
908,5	16,729
908,9	11,7
909,3	11,986
909,7	10,929
910,2	14,271
910,6	15,5
911	8,329
911,4	12,671
911,9	13,186
912,3	9,871
912,7	12,986
913,1	7,7
913,6	2,957
914	4,671
914,4	-2,386
914,8	0,271
915,3	-2,157
915,7	-7,386
916,1	-2,186
916,5	-0,5
916,9	0,271
917,4	3,757
917,8	5,471
918,2	1,957
918,6	-0,471
919,1	-0,329
919,5	-0,557
919,9	1,871
920,3	1,5
920,8	-1,3
921,2	3,443
921,6	8,414
922	5,7
922,5	2,529
922,9	3,557
923,3	2,5
923,7	1,7
924,2	0,871
924,6	0,214
925	-0,814
925,4	-0,614
925,8	-4,757
926,3	-4,3
926,7	-3,5
927,1	-1,271
927,5	1,671
928	2,529
928,4	-0,157
928,8	3,3
929,2	2,557
929,7	2,529
930,1	3,843
930,5	-2,214
930,9	-0,871
931,3	4,529
931,8	4,157
932,2	6,014
932,6	5,643
933	-0,157
933,5	3,843
933,9	0,814
934,3	-0,243
934,7	-3,271
935,2	-3,271
935,6	-2,814
936	0,757
936,4	-1,614
936,8	1,157
937,3	-0,586
937,7	0,957
938,1	3,671
938,5	-1,157
939	0,529
939,4	1,929
939,8	-0,786
940,2	0,186
940,6	0,614
941,1	-3,671
941,5	3,129
941,9	-3,3
942,3	-3,557
942,8	-0,214
943,2	-0,243
943,6	-2,529
944	-1,643
944,4	-2,071
944,9	2,814
945,3	3,443
945,7	-1,786
946,1	-2,3
946,6	-2,757
947	-1,186
947,4	2,043
947,8	-0,586
948,2	-3,043
948,7	-1,957
949,1	-2,871
949,5	2,386
949,9	-1,671
950,3	-5,214
950,8	-2,214
951,2	-1,9
951,6	-3,186
952	0,9
952,5	-6,386
952,9	-3,471
953,3	-6,586
953,7	-8,386
954,1	-6,186
954,6	-1,329
955	-0,786
955,4	0,986
955,8	0,529
956,2	2,957
956,7	4,414
957,1	0,557
957,5	-0,071
957,9	1,986
958,3	0,729
958,8	4,529
959,2	3,814
959,6	2,929
960	5,157
960,5	7,529
960,9	4,214
961,3	2,957
961,7	-0,671
962,1	0,186
962,6	1,043
963	1,243
963,4	-4,5
963,8	-3,471
964,2	1,329
964,7	3,271
965,1	5,557
965,5	2,871
965,9	-1,443
966,3	0,1
966,8	-2,814
967,2	-2,214
967,6	-1,786
968	-9,071
968,4	-3,843
968,9	-1,243
969,3	4,414
969,7	4,329
970,1	3,071
970,5	-0,786
971	7,043
971,4	5,529
971,8	6,929
972,2	4,529
972,6	4,529
973,1	4,529
973,5	7,271
973,9	4,557
974,3	2,957
974,7	4,614
975,2	2,843
975,6	1,757
976	2,614
976,4	-2,1
976,8	-5,814
977,3	-4,129
977,7	-7,814
978,1	-7,529
978,5	-6,757
978,9	-9,814
979,4	-8,614
979,8	-5,757
980,2	-7,757
980,6	-11,786
981	-9,329
981,5	-7,929
981,9	-8,671
982,3	-5,186
982,7	-1,786
983,1	-5,186
983,6	-0,414
984	-1,643
984,4	-0,843
984,8	2,814
985,2	3,014
985,6	-5,843
986,1	-0,529
986,5	1,329
986,9	-2,071
987,3	-2,014
987,7	-2,329
988,2	-4,729
988,6	2,643
989	1,414
989,4	-0,557
989,8	-0,214
990,3	-2,643
990,7	-5,557
991,1	-4,129
991,5	-5,329
991,9	-2,043
992,3	0,443
992,8	-0,557
993,2	1,357
993,6	8,414
994	10,929
994,4	11,643
994,9	10,414
995,3	10,786
995,7	14,414
996,1	12,3
996,5	6,186
996,9	0,843
997,4	1,1
997,8	-5,214
998,2	-8,957
998,6	-17,043
999	-19,3
999,5	-19,643
999,9	-18,757
1000,3	-20,929
1000,7	-18,271
1001,1	-16,271
1001,5	-11,986
1002	-2,929
1002,4	-0,786
1002,8	1,529
1003,2	6,043
1003,6	8,043
1004	10,5
1004,5	10,957
1004,9	11,471
1005,3	4,5
1005,7	2,9
1006,1	-3,557
1006,6	-2,586
1007	-3,014
1007,4	-2,214
1007,8	-7,471
1008,2	-3,671
1008,6	2,129
1009,1	3,071
1009,5	3,357
1009,9	4,414
1010,3	6,129
1010,7	7,757
1011,1	8,614
1011,6	4,929
1012	11,243
1012,4	8,3
1012,8	4,671
1013,2	5,471
1013,6	4,386
1014,1	5,957
1014,5	4,7
1014,9	0,729
1015,3	-0,414
1015,7	1,329
1016,1	-0,414
1016,6	-2,957
1017	2,186
1017,4	3,814
1017,8	0,386
1018,2	4,3
1018,6	-2,471
1019,1	-3,014
1019,5	-0,329
1019,9	-10,014
1020,3	-8,614
1020,7	-2,729
1021,1	-7,557
1021,6	-3,443
1022	-0,5
1022,4	0,471
1022,8	5,357
1023,2	0,957
1023,6	-1,157
1024,1	9,186
1024,5	14,671
1024,9	10,757
1025,3	12,1
1025,7	15,043
1026,1	18,214
1026,6	16,643
1027	9,014
1027,4	6,957
1027,8	5,643
1028,2	-2,671
1028,6	-2,386
1029	-4,071
1029,5	-0,471
1029,9	0,671
1030,3	-1,586
1030,7	2,757
1031,1	8,643
1031,5	1,157
1032	-0,643
1032,4	-2,329
1032,8	-0,729
1033,2	2,243
1033,6	1,386
1034	0,129
1034,4	1,414
1034,9	2,1
1035,3	-2,386
1035,7	-4,214
1036,1	-6,1
1036,5	-6,843
1036,9	-5,643
1037,4	0,843
1037,8	-1,643
1038,2	-2,843
1038,6	-2,014
1039	4,157
1039,4	7,957
1039,8	0,3
1040,3	-5,129
1040,7	-3,729
1041,1	1,5
1041,5	0,529
1041,9	-4,414
1042,3	-4,9
1042,7	2,986
1043,2	5,414
1043,6	6,129
1044	3,786
1044,4	2,043
1044,8	2,014
1045,2	-2,014
1045,6	-5,243
1046,1	-7,671
1046,5	-5,414
1046,9	-6,843
1047,3	-6,014
1047,7	-9,129
1048,1	-10,1
1048,5	-7,043
1049	-5,729
1049,4	-1,643
1049,8	-0,071
1050,2	1,786
1050,6	7,929
1051	9,214
1051,4	6,614
1051,9	6,1
1052,3	11,957
1052,7	12,1
1053,1	7,814
1053,5	6,129
1053,9	2,929
1054,3	3,643
1054,8	8,529
1055,2	0,243
1055,6	2,757
1056	5,614
1056,4	3,129
1056,8	9,5
1057,2	7,271
1057,6	2,1
1058,1	-4,843
1058,5	-11,729
1058,9	-12,186
1059,3	-13,043
1059,7	-16,3
1060,1	-17,871
1060,5	-19,757
1061	-19,1
1061,4	-14,414
1061,8	-10,729
1062,2	-10,786
1062,6	-8,214
1063	-3,043
1063,4	0,243
1063,8	2,5
1064,3	-2,243
1064,7	-10,757
1065,1	-12,529
1065,5	-17,871
1065,9	-22,243
1066,3	-21,957
1066,7	-23,814
1067,1	-21,386
1067,6	-13,814
1068	-15,443
1068,4	-9,386
1068,8	-3,129
1069,2	-4,1
1069,6	-2,5
1070	5,386
1070,4	1,529
1070,9	2,414
1071,3	-1,957
1071,7	-5,986
1072,1	-6,957
1072,5	-7,5
1072,9	-14,843
1073,3	-11,729
1073,7	-8,986
1074,2	-7,386
1074,6	-6,129
1075	-3,529
1075,4	-0,414
1075,8	4,786
1076,2	3,786
1076,6	4,9
1077	2,243
1077,5	3,957
1077,9	-0,529
1078,3	-3,5
1078,7	-8,386
1079,1	-3,986
1079,5	-3,471
1079,9	-0,271
1080,3	-1,471
1080,7	4,843
1081,2	11,414
1081,6	10,471
1082	5,671
1082,4	6,271
1082,8	3,529
1083,2	1,729
1083,6	-1,586
1084	-8,3
1084,5	-5,043
1084,9	-6,529
1085,3	-10,071
1085,7	-6,186
1086,1	-5,729
1086,5	-1,7
1086,9	4,1
1087,3	2,271
1087,7	4,757
1088,2	7,243
1088,6	3,614
1089	4,3
1089,4	0,443
1089,8	-3,157
1090,2	-0,957
1090,6	-2,986
1091	-1,071
1091,4	1,957
1091,9	0,814
1092,3	2,014
1092,7	-0,729
1093,1	1,586
1093,5	4,643
1093,9	1,757
1094,3	5,7
1094,7	6,557
1095,1	6,071
1095,5	9,329
1096	4,814
1096,4	4,557
1096,8	3,014
1097,2	-1,671
1097,6	4,014
1098	1,671
1098,4	1,243
1098,8	0,871
1099,2	6,043
1099,6	7,329
1100,1	6,243
1100,5	-0,614
1100,9	1,529
1101,3	0,843
1101,7	-1,1
1102,1	-9,271
1102,5	-8,129
1102,9	-4,929
1103,3	-1,3
1103,7	0,757
1104,2	0,243
1104,6	4,7
1105	5,157
1105,4	4,157
1105,8	1,586
1106,2	-0,186
1106,6	-2,557
1107	-0,671
1107,4	-2,167
1107,8	0,02
1108,3	0,15
