Data from Subt2_165.txt Node
Date: Sat Aug 26 18:34:33 MSK 2023
User: vat
Spectrometer: MAYP114033
Trigger mode: 0
Integration Time (sec): 1,000000E0
Scans to average: 5
Electric dark correction enabled: true
Nonlinearity correction enabled: false
Boxcar width: 3
XAxis mode: Wavelengths
Number of Pixels in Spectrum: 2068
>>>>>Begin Spectral Data<<<<<
199,4	0,05
199,9	3,18
200,4	0,967
200,8	1,729
201,3	1,1
201,8	-0,014
202,2	-1,843
202,7	1,9
203,2	-1,014
203,6	2,7
204,1	0,3
204,6	-3,757
205	-2,671
205,5	0,586
206	-3,186
206,4	-0,957
206,9	-6,614
207,4	-4,7
207,8	-2,043
208,3	-2,9
208,8	-6,3
209,2	-3,757
209,7	-4,014
210,2	1,243
210,6	-1,471
211,1	2,129
211,5	-0,471
212	0,7
212,5	-0,129
212,9	-3,386
213,4	-4,729
213,9	-5,129
214,3	-4,1
214,8	-0,071
215,3	-2,129
215,7	-0,929
216,2	2,986
216,7	5,157
217,1	7,271
217,6	5,929
218,1	4,1
218,5	6,386
219	-1,5
219,5	-0,729
219,9	-5,3
220,4	0,671
220,9	-1,871
221,3	-1,586
221,8	-0,9
222,3	5,243
222,7	6,157
223,2	4,986
223,6	-1,357
224,1	-0,471
224,6	-0,157
225	-4,5
225,5	-5,557
226	-11,471
226,4	-5,643
226,9	-3,3
227,4	-4,357
227,8	-7,814
228,3	-5,671
228,8	-0,729
229,2	2,986
229,7	1,014
230,2	-0,214
230,6	6,7
231,1	12,157
231,5	11,729
232	7,9
232,5	5,843
232,9	7,329
233,4	10,929
233,9	7,1
234,3	5,843
234,8	10,471
235,3	10,071
235,7	11,671
236,2	9,529
236,7	1,929
237,1	3,471
237,6	0,671
238,1	-2,757
238,5	-6,443
239	-5,443
239,4	-2,586
239,9	-1,843
240,4	-5,014
240,8	-0,329
241,3	-4,157
241,8	-2,586
242,2	-4,5
242,7	-7,1
243,2	-5,043
243,6	-9,843
244,1	-10,843
244,6	-5,357
245	-3,814
245,5	-0,443
245,9	-2,414
246,4	-2,614
246,9	1,671
247,3	2,471
247,8	4,214
248,3	4,271
248,7	3,843
249,2	6,729
249,7	5,1
250,1	8,157
250,6	9,386
251	8,957
251,5	6,5
252	5,243
252,4	6,843
252,9	8,414
253,4	5,957
253,8	1,471
254,3	0,329
254,8	5,957
255,2	1,243
255,7	-4,129
256,1	0,614
256,6	1,929
257,1	2,643
257,5	-1,843
258	-7,986
258,5	-4,5
258,9	-2,929
259,4	-6,186
259,9	-8,157
260,3	-12,243
260,8	-9,986
261,2	-6,471
261,7	-7,786
262,2	-10,729
262,6	-10,357
263,1	-6,7
263,6	-1,871
264	3,729
264,5	6,814
264,9	5,386
265,4	7,386
265,9	6,186
266,3	9,671
266,8	10,014
267,3	3,843
267,7	-0,214
268,2	-1,471
268,7	1,671
269,1	2,071
269,6	-5,557
270	-2,786
270,5	-0,214
271	0,214
271,4	4,414
271,9	-1,843
272,4	-0,7
272,8	0,643
273,3	-4,386
273,7	-5,671
274,2	-5,471
274,7	-5,1
275,1	1,814
275,6	1,414
276,1	0,014
276,5	5,929
277	2,757
277,4	1,529
277,9	2,329
278,4	-0,1
278,8	0,557
279,3	1,729
279,8	-0,157
280,2	2,9
280,7	2,729
281,1	-2,214
281,6	-4,871
282,1	-5,957
282,5	-4,443
283	-4,5
283,4	-8,443
283,9	-3,814
284,4	2,471
284,8	6,357
285,3	3,786
285,8	4,471
286,2	2,786
286,7	4,043
287,1	-1,271
287,6	-4,529
288,1	-3,557
288,5	0,929
289	-3,3
289,5	-3,157
289,9	-2,786
290,4	1,071
290,8	1,9
291,3	0,443
291,8	0,643
292,2	3,871
292,7	7,129
293,1	8,614
293,6	8,243
294,1	7,557
294,5	3,014
295	2,557
295,5	-2,614
295,9	-7,614
296,4	-6,443
296,8	-10,386
297,3	-12,3
297,8	-10,9
298,2	-16,386
298,7	-10,014
299,1	-9,243
299,6	-12,129
300,1	-5,986
300,5	-4,5
301	-0,729
301,5	8,5
301,9	0,671
302,4	-1,043
302,8	-1,786
303,3	-9,3
303,8	-11,5
304,2	-14,329
304,7	-20,929
305,1	-22,129
305,6	-17,614
306,1	-7,214
306,5	-2,014
307	-0,214
307,4	4,1
307,9	5,7
308,4	8,957
308,8	3,671
309,3	-4,786
309,8	-6,986
310,2	-6,5
310,7	-13,557
311,1	-13,014
311,6	-8,757
312,1	-3,557
312,5	1,671
313	2,443
313,4	4,7
313,9	11,614
314,4	10,529
314,8	7,157
315,3	6,814
315,7	0,786
316,2	1,186
316,7	-1,814
317,1	0,814
317,6	2,329
318	7,814
318,5	2,757
319	5,814
319,4	4,9
319,9	11,814
320,3	8,786
320,8	7,186
321,3	6,014
321,7	10,814
322,2	9,357
322,6	12,929
323,1	7,757
323,6	6,986
324	5,071
324,5	1,529
324,9	0,386
325,4	-0,329
325,9	-2,7
326,3	-0,729
326,8	-0,129
327,2	-1,243
327,7	0,643
328,2	1,3
328,6	5,1
329,1	-1,557
329,5	-2,357
330	-3,529
330,5	0,757
330,9	2,557
331,4	4,586
331,8	3,843
332,3	9,557
332,8	7,643
333,2	5,586
333,7	7,586
334,1	8,729
334,6	2,157
335,1	-3,757
335,5	-0,929
336	1,386
336,4	7,957
336,9	10,814
337,4	13,557
337,8	14,871
338,3	20,329
338,7	19,814
339,2	14,729
339,7	11,1
340,1	3,214
340,6	-3,614
341	-5,386
341,5	-4,186
342	-5,729
342,4	-2,529
342,9	-6,529
343,3	-3,557
343,8	-2,529
344,2	0,729
344,7	2,929
345,2	2,071
345,6	3,386
346,1	6,5
346,5	0,9
347	-0,357
347,5	0,157
347,9	-1,071
348,4	-3,386
348,8	-3,786
349,3	-0,957
349,8	6,329
350,2	13,814
350,7	10,386
351,1	10,586
351,6	18,929
352	20,586
352,5	22,929
353	29,929
353,4	30,786
353,9	39,9
354,3	48,129
354,8	48,957
355,3	62,214
355,7	72,643
356,2	84,871
356,6	95,243
357,1	115,357
357,5	133,929
358	163,614
358,5	186,357
358,9	214,357
359,4	247,329
359,8	284,557
360,3	330,129
360,8	374,729
361,2	425,529
361,7	484,529
362,1	552,043
362,6	617,357
363	694,843
363,5	767,729
364	854,443
364,4	938,643
364,9	1022,557
365,3	1104,757
365,8	1184,986
366,3	1259,643
366,7	1329,043
367,2	1388,471
367,6	1435,243
368,1	1477,814
368,5	1501,7
369	1513,757
369,5	1519,9
369,9	1507,929
370,4	1479,043
370,8	1448,557
371,3	1402,214
371,7	1351,243
372,2	1293,9
372,7	1225,471
373,1	1159,9
373,6	1093,643
374	1026,643
374,5	954,614
374,9	888,643
375,4	823,929
375,9	764,957
376,3	708,414
376,8	654,414
377,2	602,271
377,7	553,157
378,2	506,271
378,6	466,243
379,1	423,729
379,5	389,843
380	359,243
380,4	326,471
380,9	301,557
381,4	276,129
381,8	255,7
382,3	241,757
382,7	219,643
383,2	203,614
383,6	186,014
384,1	172,414
384,6	163,929
385	150,671
385,5	140,071
385,9	132,243
386,4	120,529
386,8	116,186
387,3	107,129
387,7	97,9
388,2	92,957
388,7	81,471
389,1	74,129
389,6	71,471
390	63,957
390,5	65,557
390,9	66,129
391,4	61,529
391,9	57,929
392,3	59,471
392,8	51,814
393,2	45,586
393,7	40,986
394,1	27,871
394,6	26,5
395,1	29,271
395,5	24,7
396	25,586
396,4	29,586
396,9	24,471
397,3	34,1
397,8	34,414
398,2	30,471
398,7	30,929
399,2	29,643
399,6	28,871
400,1	29,957
400,5	21,414
401	16,757
401,4	14,871
401,9	13,643
402,4	17,157
402,8	12,729
403,3	16,271
403,7	17,471
404,2	21,186
404,6	24,214
405,1	18,814
405,5	16,071
406	20,586
406,5	16,1
406,9	19,3
407,4	17,614
407,8	21,5
408,3	31,957
408,7	29,071
409,2	31,986
409,6	36,329
410,1	37,814
410,6	41,786
411	44,871
411,5	43,614
411,9	50,871
412,4	49,843
412,8	52,443
413,3	55,929
413,7	56,443
414,2	51,929
414,7	58,043
415,1	63,7
415,6	71,643
416	75,043
416,5	77,871
416,9	80,671
417,4	86,7
417,8	90,1
418,3	94,814
418,8	96,214
419,2	100,243
419,7	106,3
420,1	110,329
420,6	114,214
421	110,986
421,5	114,043
421,9	115,814
422,4	117,929
422,8	117,957
423,3	124,671
423,8	125,043
424,2	129,157
424,7	129,7
425,1	135,5
425,6	140,443
426	144,786
426,5	144,443
426,9	157,129
427,4	160,471
427,9	159,443
428,3	163,729
428,8	165,786
429,2	167,557
429,7	175,014
430,1	171,014
430,6	176,043
431	185,586
431,5	191,3
431,9	192,614
432,4	200,529
432,8	207,643
433,3	216,9
433,8	224,443
434,2	234,843
434,7	244,471
435,1	258,271
435,6	268,757
436	278,757
436,5	293,071
436,9	306,529
437,4	314,729
437,8	327,1
438,3	341,471
438,8	353,271
439,2	364,271
439,7	378,414
440,1	394,043
440,6	415,871
441	429,157
441,5	449,043
441,9	469,586
442,4	488,729
442,8	505,729
443,3	525,071
443,7	543,614
444,2	570,586
444,7	592,9
445,1	620,329
445,6	648,443
446	674,586
446,5	700,5
446,9	721,586
447,4	745,357
447,8	774,986
448,3	802,129
448,7	831,1
449,2	865,986
449,6	900,729
450,1	937,586
450,6	977,757
451	1010,443
451,5	1044,9
451,9	1082,957
452,4	1120,671
452,8	1155,557
453,3	1195,843
453,7	1226,871
454,2	1267,043
454,6	1307,129
455,1	1341,014
455,5	1372,043
456	1411,729
456,4	1444,529
456,9	1487,529
457,3	1521,357
457,8	1555,871
458,3	1598,214
458,7	1642,843
459,2	1686,729
459,6	1732,186
460,1	1775,5
460,5	1821,3
461	1873,157
461,4	1917,529
461,9	1957,071
462,3	2005,386
462,8	2054,014
463,2	2093,1
463,7	2144,414
464,1	2189,671
464,6	2244,757
465	2297,014
465,5	2339,614
466	2390,243
466,4	2443,729
466,9	2491,386
467,3	2536,214
467,8	2578,586
468,2	2627,243
468,7	2676,414
469,1	2724,043
469,6	2769,3
470	2816,414
470,5	2863,443
470,9	2901,186
471,4	2942,529
471,8	2983,814
472,3	3023,3
472,7	3066,757
473,2	3099,757
473,6	3134,243
474,1	3183,186
474,5	3225,1
475	3265,7
475,4	3301,014
475,9	3340,557
476,4	3379,129
476,8	3420,957
477,3	3448,929
477,7	3486,643
478,2	3523,357
478,6	3555,643
479,1	3582,443
479,5	3611,957
480	3643,386
480,4	3675,7
480,9	3695,986
481,3	3713,471
481,8	3737,757
482,2	3755,671
482,7	3776,9
483,1	3793,129
483,6	3813,614
484	3833,043
484,5	3851,757
484,9	3865,614
485,4	3887,014
485,8	3897,1
486,3	3910,071
486,7	3916,986
487,2	3925,986
487,6	3935,671
488,1	3940,443
488,5	3938,557
489	3945,214
489,4	3951,5
489,9	3952,986
490,4	3954,7
490,8	3950,786
491,3	3954,957
491,7	3956,871
492,2	3960,443
492,6	3949,871
493,1	3948,614
493,5	3936,843
494	3924,129
494,4	3907,786
494,9	3898,7
495,3	3876,329
495,8	3865,014
496,2	3850,671
496,7	3841,871
497,1	3838,7
497,6	3829,757
498	3818,557
498,5	3808,871
498,9	3791,414
499,4	3772,043
499,8	3754,986
500,3	3736,986
500,7	3716,214
501,2	3690,986
501,6	3668,843
502,1	3645,443
502,5	3625,329
503	3599,614
503,4	3568,271
503,9	3548,471
504,3	3527,071
504,8	3502,386
505,2	3482,7
505,7	3454,186
506,1	3431,7
506,6	3404,271
507	3374,129
507,5	3345,386
507,9	3319,329
508,4	3287,186
508,8	3262,357
509,3	3235,443
509,7	3216,986
510,2	3190,786
510,6	3159,729
511,1	3129,186
511,5	3105,929
512	3076,786
512,4	3046,786
512,9	3015,643
513,3	2985,614
513,8	2961,129
514,2	2932,729
514,7	2904,386
515,1	2874,729
515,6	2845,357
516	2808,129
516,5	2783,929
516,9	2757,043
517,4	2731,529
517,8	2703,214
518,3	2671,9
518,7	2642,471
519,2	2616,7
519,6	2579,671
520,1	2550,386
520,5	2521,471
521	2485,557
521,4	2456,814
521,9	2431,243
522,3	2406,986
522,8	2381,471
523,2	2349,929
523,7	2319,986
524,1	2297,329
524,6	2271,157
525	2242,7
525,5	2214,014
525,9	2190,471
526,4	2162,129
526,8	2138,329
527,3	2114,243
527,7	2090,729
528,2	2065,843
528,6	2038,957
529,1	2010,9
529,5	1992,243
530	1969,871
530,4	1946,586
530,9	1925,214
531,3	1901,443
531,8	1885,7
532,2	1865,214
532,6	1840,614
533,1	1816,414
533,5	1788,614
534	1765,129
534,4	1746,614
534,9	1724,671
535,3	1703,786
535,8	1680,643
536,2	1665,471
536,7	1649,5
537,1	1630,071
537,6	1610,729
538	1592,586
538,5	1574,529
538,9	1556,014
539,4	1537,1
539,8	1517,614
540,3	1499,329
540,7	1479,414
541,2	1459,643
541,6	1445,243
542,1	1430,071
542,5	1412,7
543	1397,757
543,4	1377,243
543,9	1363,729
544,3	1348,929
544,8	1330,443
545,2	1316,986
545,7	1307,557
546,1	1300,871
546,5	1297,786
547	1283,414
547,4	1270,186
547,9	1261,157
548,3	1245,957
548,8	1228,643
549,2	1209,814
549,7	1192,357
550,1	1175,7
550,6	1165,271
551	1150,186
551,5	1141,271
551,9	1126,529
552,4	1116,9
552,8	1106,871
553,3	1097,243
553,7	1083,671
554,2	1074,7
554,6	1065,414
555,1	1060,929
555,5	1048,671
555,9	1038,071
556,4	1026,7
556,8	1014,957
557,3	1005,871
557,7	996,529
558,2	982,071
558,6	975,786
559,1	965,986
559,5	961,586
560	955,357
560,4	944,3
560,9	932,814
561,3	923,1
561,8	910,443
562,2	902,357
562,7	893,414
563,1	885,071
563,6	875,814
564	870,243
564,4	864,929
564,9	858,843
565,3	853,814
565,8	844,129
566,2	840,243
566,7	838,157
567,1	828,986
567,6	821,614
568	815,1
568,5	807,129
568,9	800,471
569,4	794,557
569,8	785,357
570,3	782,814
570,7	773,043
571,1	765,557
571,6	763,5
572	764,043
572,5	754,3
572,9	745,5
573,4	735,386
573,8	736,471
574,3	728,7
574,7	717,786
575,2	711,529
575,6	701,5
576,1	699,529
576,5	697,157
576,9	682,929
577,4	681,643
577,8	672,157
578,3	661,3
578,7	661,643
579,2	661,014
579,6	653,9
580,1	646,157
580,5	639,614
581	643,7
581,4	643,471
581,9	636,614
582,3	624,443
582,7	622,1
583,2	625,614
583,6	624,614
584,1	618,1
584,5	611,586
585	608,186
585,4	602,243
585,9	596,757
586,3	595,186
586,8	590,643
587,2	585,157
587,6	586,414
588,1	583,386
588,5	585,1
589	582,414
589,4	575,214
589,9	563,529
590,3	559,386
590,8	551,271
591,2	546,7
591,7	544,5
592,1	542,129
592,5	543,3
593	543,214
593,4	539,071
593,9	533,671
594,3	531,7
594,8	525,729
595,2	519,729
595,7	511,386
596,1	508,929
596,6	505,957
597	503,786
597,4	501,157
597,9	496,443
598,3	497,3
598,8	493,614
599,2	490,357
599,7	486,957
600,1	479,557
600,6	475,271
601	472,157
601,4	470,5
601,9	472,586
602,3	470,957
602,8	467,1
603,2	467,1
603,7	462,3
604,1	461,329
604,6	457,129
605	445,986
605,4	444,386
605,9	440,329
606,3	434,271
606,8	429,043
607,2	422,129
607,7	411,843
608,1	415,671
608,6	410,929
609	415,414
609,4	421,214
609,9	421,014
610,3	420,329
610,8	418,643
611,2	415,729
611,7	413,129
612,1	405,271
612,6	397,557
613	398,214
613,4	395,843
613,9	395,929
614,3	393,329
614,8	391,9
615,2	388,757
615,7	390,214
616,1	387,957
616,6	385,957
617	384,614
617,4	386,129
617,9	385,071
618,3	386,557
618,8	388,414
619,2	384,671
619,7	388,671
620,1	382,1
620,5	378,243
621	376,3
621,4	371,3
621,9	364,471
622,3	362,386
622,8	356,929
623,2	359,671
623,6	357,014
624,1	355,214
624,5	355,129
625	355,7
625,4	355,243
625,9	351,843
626,3	347,843
626,8	345,186
627,2	345,7
627,6	339,957
628,1	332,043
628,5	331,414
629	326,843
629,4	328,214
629,9	325,414
630,3	317,043
630,7	317,443
631,2	317,414
631,6	314,214
632,1	312,471
632,5	309,3
633	308,786
633,4	306,929
633,8	302,814
634,3	300,443
634,7	297,614
635,2	297,986
635,6	294,729
636,1	290,043
636,5	286,186
636,9	280,1
637,4	276,957
637,8	272,043
638,3	266,586
638,7	264,5
639,2	258,243
639,6	266,043
640	270,1
640,5	271,929
640,9	273,586
641,4	275,414
641,8	277,214
642,2	280,186
642,7	281,614
643,1	280,986
643,6	277,671
644	275,7
644,5	273,586
644,9	269,071
645,3	265,443
645,8	252,729
646,2	252,643
646,7	250,814
647,1	245,5
647,6	245,271
648	249,414
648,4	248,129
648,9	253,7
649,3	249,557
649,8	245,586
650,2	247,7
650,6	246,043
651,1	240,586
651,5	244,471
652	240,243
652,4	237,757
652,9	240,586
653,3	235,786
653,7	233,386
654,2	235,243
654,6	229,243
655,1	229,443
655,5	232,957
655,9	230,557
656,4	230,386
656,8	225,471
657,3	218,071
657,7	220,957
658,2	216,014
658,6	212,5
659	208,814
659,5	207,157
659,9	211,271
660,4	215,786
660,8	207,643
661,2	207,614
661,7	207,329
662,1	211,386
662,6	214,614
663	212,157
663,4	205,871
663,9	209,843
664,3	207,129
664,8	200,5
665,2	193,529
665,6	187,1
666,1	181,729
666,5	184,243
667	181,9
667,4	178,929
667,9	182,357
668,3	182,414
668,7	182,471
669,2	184,3
669,6	181,5
670,1	177,786
670,5	178,043
670,9	173,329
671,4	172,443
671,8	173,186
672,3	174,986
672,7	174,5
673,1	172,214
673,6	170,157
674	172,414
674,5	169,471
674,9	163,129
675,3	158,386
675,8	153,157
676,2	153,043
676,7	154,329
677,1	149,1
677,5	150,614
678	155,786
678,4	159,243
678,9	163,014
679,3	163,3
679,7	162,357
680,2	158,243
680,6	156,529
681,1	155,471
681,5	154,929
681,9	153,386
682,4	153,357
682,8	156,843
683,3	161,7
683,7	161,557
684,1	157,671
684,6	152,5
685	150,671
685,5	150,1
685,9	142,957
686,3	141,129
686,8	139,357
687,2	142,186
687,7	141,643
688,1	135,386
688,5	132,957
689	136,443
689,4	134,729
689,9	130,986
690,3	125,929
690,7	126,7
691,2	129,757
691,6	129,614
692	128,214
692,5	132,7
692,9	136,157
693,4	135,443
693,8	131,9
694,2	130,529
694,7	128,814
695,1	123,814
695,6	121,814
696	120,186
696,4	119,729
696,9	115,129
697,3	111,329
697,8	110,5
698,2	112,157
698,6	114,043
699,1	110,357
699,5	113,243
699,9	115,557
700,4	113,871
700,8	113,814
701,3	114,129
701,7	108,786
702,1	111,271
702,6	105,186
703	108,157
703,5	112,471
703,9	110,271
704,3	108,614
704,8	107,243
705,2	107,443
705,6	108,586
706,1	108,586
706,5	104,529
707	107,7
707,4	106,929
707,8	103,443
708,3	100,071
708,7	100,614
709,2	99,957
709,6	101,929
710	103,586
710,5	98,986
710,9	101,757
711,3	99,814
711,8	101,243
712,2	93,557
712,7	92,986
713,1	87,929
713,5	93,014
714	91,9
714,4	93,614
714,8	90,843
715,3	93,729
715,7	92,357
716,2	88,071
716,6	90,243
717	88,614
717,5	87,643
717,9	88,757
718,3	88,357
718,8	86,929
719,2	94,043
719,7	86,957
720,1	90,814
720,5	91,814
721	86,729
721,4	84,129
721,8	90,986
722,3	83,671
722,7	87,243
723,2	84,043
723,6	76,186
724	78,957
724,5	77,214
724,9	72,043
725,3	76,243
725,8	75,129
726,2	73,043
726,7	82,9
727,1	79,614
727,5	84,7
728	80,1
728,4	74,957
728,8	72,271
729,3	70,9
729,7	68,129
730,1	69,5
730,6	67,614
731	66,929
731,5	67,643
731,9	68,643
732,3	70,443
732,8	69,271
733,2	69,214
733,6	67,871
734,1	70,7
734,5	70,529
734,9	71,757
735,4	73,014
735,8	66,7
736,3	68,929
736,7	67,386
737,1	66,071
737,6	68,529
738	66,643
738,4	61,557
738,9	64,214
739,3	61,529
739,7	65,414
740,2	64,386
740,6	64,243
741,1	64,471
741,5	62,5
741,9	63,557
742,4	66,1
742,8	63,757
743,2	66,271
743,7	56,014
744,1	49,329
744,5	51,986
745	49,329
745,4	44,643
745,8	45,814
746,3	42,3
746,7	47,529
747,2	51,7
747,6	55,643
748	59,357
748,5	62,729
748,9	57,757
749,3	57,957
749,8	60,243
750,2	63,586
750,6	56,014
751,1	55,1
751,5	53,871
751,9	56,357
752,4	56,757
752,8	54,186
753,3	49,043
753,7	54,471
754,1	52,014
754,6	49,929
755	50,957
755,4	47,5
755,9	48,757
756,3	46,443
756,7	44,786
757,2	45,871
757,6	46,586
758	44,3
758,5	43,614
758,9	43,9
759,3	49,071
759,8	46,043
760,2	44,671
760,6	39,271
761,1	33,414
761,5	35,5
761,9	33,986
762,4	31,814
762,8	33,7
763,3	33,814
763,7	37,957
764,1	43,271
764,6	45,071
765	47,586
765,4	44,671
765,9	46,871
766,3	47,529
766,7	43,986
767,2	43,414
767,6	45,986
768	43,471
768,5	44,214
768,9	40,586
769,3	40,586
769,8	40,443
770,2	45,329
770,6	39,129
771,1	40,586
771,5	40,9
771,9	44,1
772,4	44,814
772,8	45,957
773,2	39,586
773,7	42,014
774,1	42,129
774,5	37,329
775	36,043
775,4	29,957
775,8	30,271
776,3	33,529
776,7	34,386
777,1	29,9
777,6	33,871
778	34,271
778,4	38,157
778,9	39,186
779,3	38,557
779,7	41,614
780,2	45,786
780,6	46,757
781	40,071
781,5	38,786
781,9	36,729
782,3	31,729
782,8	27,671
783,2	23,757
783,6	23,643
784,1	27,357
784,5	22,671
784,9	21,643
785,4	27,1
785,8	25,586
786,2	28,329
786,7	25,471
787,1	25,071
787,5	29,471
788	29,671
788,4	24,957
788,8	24,443
789,3	18,814
789,7	20,071
790,1	20,557
790,6	20,9
791	20,243
791,4	24,186
791,9	22,7
792,3	25,7
792,7	30,814
793,2	26,929
793,6	29,329
794	34,386
794,5	26,843
794,9	32,871
795,3	33,271
795,8	27,157
796,2	30,786
796,6	30,729
797,1	25,929
797,5	24,614
797,9	18,786
798,4	16,1
798,8	17,071
799,2	14,614
799,7	16,386
800,1	15,043
800,5	21,186
801	25,129
801,4	23,5
801,8	23,414
802,2	25,3
802,7	17,614
803,1	22,329
803,5	21,357
804	16,357
804,4	18,243
804,8	19,7
805,3	20,929
805,7	27,071
806,1	21,871
806,6	23,843
807	24,729
807,4	24,757
807,9	18,729
808,3	16,014
808,7	12,786
809,2	17,443
809,6	18,1
810	22,471
810,4	25,071
810,9	29,843
811,3	33,071
811,7	33,186
812,2	36,529
812,6	36,1
813	38,757
813,5	34,7
813,9	29,357
814,3	26,214
814,8	26,357
815,2	16,443
815,6	14,014
816,1	10,929
816,5	14,471
816,9	18,643
817,3	21,071
817,8	23,671
818,2	26,557
818,6	27,329
819,1	24,471
819,5	20,9
819,9	20,557
820,4	19,929
820,8	14,957
821,2	11,586
821,7	14,557
822,1	17,929
822,5	26,7
822,9	31,843
823,4	28,814
823,8	32,271
824,2	35,357
824,7	30,671
825,1	22,757
825,5	13,386
826	5,929
826,4	8,9
826,8	7,614
827,3	8,614
827,7	7,443
828,1	13,014
828,5	12,786
829	9,071
829,4	7,957
829,8	2,214
830,3	5,957
830,7	6,929
831,1	6,3
831,6	10,043
832	15,529
832,4	14,586
832,8	21,186
833,3	17,129
833,7	13,757
834,1	12,643
834,6	12,586
835	12,357
835,4	13,014
835,8	7,957
836,3	6,186
836,7	13,129
837,1	9,5
837,6	11,671
838	10,786
838,4	12,843
838,9	15,9
839,3	15,243
839,7	15,157
840,1	15,9
840,6	6,929
841	8,986
841,4	5,129
841,9	3,386
842,3	3,1
842,7	0,786
843,1	4,986
843,6	11,471
844	11,043
844,4	19,186
844,9	21,529
845,3	22,586
845,7	20,729
846,2	14,7
846,6	11,843
847	11,671
847,4	4,529
847,9	2,986
848,3	4,671
848,7	6,786
849,2	11,3
849,6	12,643
850	18,186
850,4	19,071
850,9	21,271
851,3	21,271
851,7	19,557
852,2	18,043
852,6	17,757
853	13,014
853,4	13,357
853,9	9,329
854,3	10,1
854,7	12,243
855,2	12,386
855,6	12,929
856	7,614
856,4	2,643
856,9	2,5
857,3	1,271
857,7	3,243
858,2	4,157
858,6	3,643
859	6,786
859,4	8,643
859,9	11,129
860,3	6,843
860,7	4,843
861,1	4,557
861,6	6,271
862	9,157
862,4	9,529
862,9	11,186
863,3	12,9
863,7	9,071
864,1	12,271
864,6	10,071
865	7,614
865,4	8,157
865,9	9,043
866,3	8,814
866,7	9,014
867,1	3,071
867,6	4,071
868	0,329
868,4	-0,129
868,8	-3,586
869,3	-2,957
869,7	3,414
870,1	4,129
870,6	5,557
871	-7,357
871,4	-3,814
871,8	-10,1
872,3	-8,414
872,7	-13,614
873,1	-14,957
873,5	-14,757
874	1,129
874,4	2,786
874,8	7,529
875,3	9,129
875,7	8,871
876,1	13,614
876,5	13,9
877	14,243
877,4	9,871
877,8	12,014
878,2	15,843
878,7	15,871
879,1	13,557
879,5	14,814
879,9	15,5
880,4	16,271
880,8	15,814
881,2	11,043
881,7	10,9
882,1	10,871
882,5	4,814
882,9	2,9
883,4	2,843
883,8	4,443
884,2	3,3
884,6	4,814
885,1	8,243
885,5	14,5
885,9	14,157
886,3	14,5
886,8	12,014
887,2	12,043
887,6	9,1
888	4,814
888,5	-0,7
888,9	0,043
889,3	-1,471
889,8	-0,186
890,2	0,814
890,6	0,129
891	-0,157
891,5	2,1
891,9	1,786
892,3	1,929
892,7	-0,214
893,2	1,157
893,6	3,014
894	7,671
894,4	7,329
894,9	7,871
895,3	7,243
895,7	11,471
896,1	8,643
896,6	8,7
897	9,729
897,4	16,671
897,8	16,757
898,3	19,129
898,7	14,729
899,1	16,871
899,5	19,214
900	11,614
900,4	3,786
900,8	1,357
901,2	-0,7
901,7	1,243
902,1	-1,071
902,5	-0,729
902,9	-2,786
903,4	2,557
903,8	4,7
904,2	1,671
904,6	2,071
905,1	3,014
905,5	2,243
905,9	8,5
906,3	7,1
906,8	10,157
907,2	14,443
907,6	14,3
908	14,443
908,5	11,729
908,9	7,729
909,3	1,529
909,7	1,586
910,2	-0,1
910,6	2,9
911	1,271
911,4	2,9
911,9	5,5
912,3	5,557
912,7	3,757
913,1	3,214
913,6	-1,757
914	-0,357
914,4	-3,357
914,8	-5,7
915,3	-3,243
915,7	-3,643
916,1	-5,129
916,5	0,1
916,9	-1,3
917,4	1,614
917,8	5,329
918,2	2,614
918,6	0,214
919,1	5,1
919,5	4,643
919,9	5,471
920,3	2,929
920,8	1,671
921,2	3,1
921,6	3,357
922	1,443
922,5	-2,843
922,9	-1,7
923,3	-2,014
923,7	-0,386
924,2	-2,729
924,6	-0,014
925	0,243
925,4	-1,729
925,8	-1,671
926,3	-0,9
926,7	-1,9
927,1	0,3
927,5	-0,7
928	-1,7
928,4	-0,843
928,8	0,843
929,2	0,386
929,7	0,643
930,1	1,557
930,5	-2,871
930,9	-0,814
931,3	0,043
931,8	-3,7
932,2	-0,1
932,6	0,814
933	-1,843
933,5	3,957
933,9	6,157
934,3	8,957
934,7	8,757
935,2	8,443
935,6	4,557
936	9,243
936,4	11,729
936,8	10,271
937,3	4,1
937,7	7,643
938,1	10,071
938,5	6,871
939	3,7
939,4	0,643
939,8	-4,271
940,2	-1,643
940,6	-2,329
941,1	-7,271
941,5	-1,129
941,9	-1,529
942,3	-1,843
942,8	3,071
943,2	6,3
943,6	1,5
944	2,186
944,4	1,071
944,9	-3,243
945,3	-6,614
945,7	-11,614
946,1	-15,186
946,6	-14,843
947	-17,843
947,4	-13,786
947,8	-4,414
948,2	-1,643
948,7	1,414
949,1	0,786
949,5	5,071
949,9	9,186
950,3	6,414
950,8	0,614
951,2	-2,757
951,6	-7,643
952	-0,129
952,5	-8,186
952,9	-9,5
953,3	-9,614
953,7	-10,671
954,1	-0,957
954,6	2,843
955	-1,929
955,4	2,186
955,8	8,929
956,2	8,786
956,7	14,186
957,1	7,614
957,5	7,929
957,9	10,186
958,3	11,214
958,8	7,357
959,2	9,186
959,6	8,986
960	6,071
960,5	7,557
960,9	5,957
961,3	3,186
961,7	0,129
962,1	-1,9
962,6	-2,243
963	1,271
963,4	-2,7
963,8	-2,786
964,2	0,157
964,7	2,386
965,1	2,214
965,5	0,843
965,9	1,386
966,3	3,957
966,8	3,414
967,2	2,586
967,6	-0,186
968	-2,271
968,4	0,386
968,9	2,529
969,3	1,729
969,7	1,157
970,1	2,671
970,5	3,7
971	7,843
971,4	4,871
971,8	3,843
972,2	7,843
972,6	5,929
973,1	6,9
973,5	7,9
973,9	6,3
974,3	6,986
974,7	9,386
975,2	9,5
975,6	10,586
976	11,843
976,4	7,5
976,8	9,043
977,3	7,214
977,7	4,729
978,1	2,7
978,5	2,557
978,9	-3,1
979,4	-1,643
979,8	-0,214
980,2	2,157
980,6	-1,671
981	-2,443
981,5	-0,929
981,9	2,157
982,3	1,814
982,7	-0,757
983,1	-4,843
983,6	-2,157
984	-0,986
984,4	-1,386
984,8	-1,329
985,2	-0,729
985,6	-3,929
986,1	0,043
986,5	0,1
986,9	-4,357
987,3	-0,957
987,7	1,3
988,2	1,643
988,6	3,786
989	-0,014
989,4	-1,329
989,8	-0,3
990,3	-3,671
990,7	-7,5
991,1	-3,471
991,5	-2,1
991,9	4,7
992,3	6,671
992,8	6,1
993,2	3,5
993,6	7,729
994	3,357
994,4	3,043
994,9	-1,071
995,3	-3,557
995,7	-0,757
996,1	3,071
996,5	1,757
996,9	-3,014
997,4	0,786
997,8	-2,357
998,2	-3,471
998,6	-10,071
999	-10,929
999,5	-16,671
999,9	-10,929
1000,3	-19,5
1000,7	-17,9
1001,1	-15,986
1001,5	-10,843
1002	-7,3
1002,4	0,529
1002,8	2,1
1003,2	7,929
1003,6	9,186
1004	15,214
1004,5	14,014
1004,9	11,071
1005,3	3,871
1005,7	0,7
1006,1	-3,986
1006,6	-1,929
1007	-6,786
1007,4	-4,986
1007,8	-6,443
1008,2	-4,214
1008,6	-2,786
1009,1	-0,014
1009,5	-0,786
1009,9	0,329
1010,3	2,7
1010,7	5,557
1011,1	7,871
1011,6	9,671
1012	11,271
1012,4	10,9
1012,8	7,186
1013,2	8,671
1013,6	6,243
1014,1	6,043
1014,5	4,786
1014,9	0,071
1015,3	1,329
1015,7	1,7
1016,1	-4,214
1016,6	-8,043
1017	-6,386
1017,4	-5,443
1017,8	-2,786
1018,2	-4,9
1018,6	-7,3
1019,1	-7,386
1019,5	-8,671
1019,9	-15,1
1020,3	-14,557
1020,7	-15,929
1021,1	-15,7
1021,6	-11,529
1022	-2,786
1022,4	3,957
1022,8	9,957
1023,2	7,386
1023,6	8,871
1024,1	12,957
1024,5	16,243
1024,9	6,186
1025,3	4,957
1025,7	4,557
1026,1	7,9
1026,6	5,471
1027	3,043
1027,4	2,129
1027,8	5,243
1028,2	1,3
1028,6	2,871
1029	4,557
1029,5	10,814
1029,9	8,214
1030,3	2,614
1030,7	7,843
1031,1	11,186
1031,5	4,9
1032	1,586
1032,4	-2,357
1032,8	0,586
1033,2	2,014
1033,6	-2,9
1034	-3,3
1034,4	-3,129
1034,9	-4,929
1035,3	-6,329
1035,7	-11,329
1036,1	-12,443
1036,5	-17,757
1036,9	-16,557
1037,4	-11,986
1037,8	-11,557
1038,2	-8,9
1038,6	-4,586
1039	3,7
1039,4	9,557
1039,8	4,357
1040,3	3,243
1040,7	5,729
1041,1	7,271
1041,5	6,1
1041,9	-3,643
1042,3	-2,414
1042,7	1,871
1043,2	1,957
1043,6	-2,071
1044	-2,1
1044,4	0,014
1044,8	1,757
1045,2	-0,129
1045,6	0,243
1046,1	-3,557
1046,5	-1,214
1046,9	-7,471
1047,3	-9,071
1047,7	-7,614
1048,1	-9,843
1048,5	-10,357
1049	-6,557
1049,4	-2,643
1049,8	0,014
1050,2	-1,243
1050,6	3,986
1051	5,529
1051,4	6,929
1051,9	7,586
1052,3	13,9
1052,7	13,786
1053,1	11,414
1053,5	8,871
1053,9	5,843
1054,3	3,986
1054,8	6,071
1055,2	-2,5
1055,6	2,7
1056	3,386
1056,4	0,014
1056,8	6,386
1057,2	4,157
1057,6	-1,243
1058,1	-7,414
1058,5	-15,3
1058,9	-12,957
1059,3	-10,157
1059,7	-13,1
1060,1	-10,243
1060,5	-6,871
1061	-1,586
1061,4	-2,5
1061,8	-1,957
1062,2	-5,7
1062,6	-5,357
1063	-2,614
1063,4	-5,757
1063,8	-10,443
1064,3	-10,929
1064,7	-9,214
1065,1	-11,529
1065,5	-14,643
1065,9	-17,1
1066,3	-14,9
1066,7	-14,3
1067,1	-8,843
1067,6	-4,586
1068	-2,186
1068,4	0,986
1068,8	3,9
1069,2	4,271
1069,6	5,357
1070	8,014
1070,4	2,443
1070,9	1,186
1071,3	1,5
1071,7	-5,3
1072,1	-4,414
1072,5	-3,157
1072,9	-4,1
1073,3	-3,986
1073,7	-0,729
1074,2	1,214
1074,6	7,3
1075	2,386
1075,4	3,643
1075,8	3,757
1076,2	3,1
1076,6	4,014
1077	0,557
1077,5	3,729
1077,9	9,671
1078,3	8,471
1078,7	5,9
1079,1	4,471
1079,5	1,557
1079,9	2,271
1080,3	-3,186
1080,7	-2,529
1081,2	4,157
1081,6	1,757
1082	-1,5
1082,4	8,357
1082,8	5,414
1083,2	6,214
1083,6	3,986
1084	-2,443
1084,5	3,5
1084,9	5,7
1085,3	-4,814
1085,7	1,5
1086,1	1,357
1086,5	0,757
1086,9	4,786
1087,3	2,443
1087,7	4,557
1088,2	6,443
1088,6	4,643
1089	3,1
1089,4	3,214
1089,8	3,586
1090,2	0,671
1090,6	-1,386
1091	2,671
1091,4	4,443
1091,9	2,986
1092,3	2,271
1092,7	-0,929
1093,1	3,614
1093,5	7,529
1093,9	-0,3
1094,3	1,671
1094,7	2,671
1095,1	4,671
1095,5	4,329
1096	-0,871
1096,4	-2,471
1096,8	-1,929
1097,2	-6,329
1097,6	-1,529
1098	-4,386
1098,4	-7,529
1098,8	-1,871
1099,2	1,843
1099,6	4,643
1100,1	4,986
1100,5	0,757
1100,9	4,843
1101,3	10,929
1101,7	8,157
1102,1	5,014
1102,5	8,271
1102,9	9,643
1103,3	14,386
1103,7	13,186
1104,2	9,7
1104,6	10,1
1105	9,7
1105,4	7,157
1105,8	5,014
1106,2	0,957
1106,6	-0,471
1107	0,329
1107,4	-0,5
1107,8	-0,34
1108,3	-0,25
