Data from Subt2_247.txt Node
Date: Sat Aug 26 18:58:23 MSK 2023
User: vat
Spectrometer: MAYP114033
Trigger mode: 0
Integration Time (sec): 1,000000E0
Scans to average: 5
Electric dark correction enabled: true
Nonlinearity correction enabled: false
Boxcar width: 3
XAxis mode: Wavelengths
Number of Pixels in Spectrum: 2068
>>>>>Begin Spectral Data<<<<<
199,4	-0,983
199,9	0,667
200,4	-0,633
200,8	-1,19
201,3	-1,79
201,8	0,438
202,2	-0,505
202,7	2,781
203,2	1,752
203,6	4,752
204,1	5,381
204,6	5,438
205	5,21
205,5	4,838
206	2,352
206,4	2,01
206,9	-2,848
207,4	-1,019
207,8	-0,448
208,3	0,067
208,8	5,124
209,2	6,61
209,7	11,01
210,2	11,867
210,6	10,01
211,1	10,695
211,5	5,438
212	4,467
212,5	4,61
212,9	-1,448
213,4	-2,219
213,9	-0,362
214,3	2,067
214,8	6,295
215,3	4,038
215,7	5,581
216,2	8,524
216,7	11,438
217,1	8,524
217,6	6,838
218,1	6,181
218,5	6,324
219	-2,962
219,5	-0,448
219,9	-1,305
220,4	6,495
220,9	4,41
221,3	3,295
221,8	2,895
222,3	10,552
222,7	10,067
223,2	12,381
223,6	4,467
224,1	5,81
224,6	7,467
225	4,267
225,5	2,61
226	-0,476
226,4	0,667
226,9	4,981
227,4	5,952
227,8	0,152
228,3	3,781
228,8	3,61
229,2	8,238
229,7	6,667
230,2	7,867
230,6	9,21
231,1	22,01
231,5	23,552
232	26,524
232,5	22,981
232,9	20,667
233,4	20,324
233,9	20,267
234,3	13,124
234,8	12,038
235,3	11,267
235,7	12,695
236,2	14,152
236,7	9,752
237,1	10,038
237,6	8,324
238,1	3,895
238,5	-3,248
239	-3,762
239,4	-0,076
239,9	0,124
240,4	-1,676
240,8	1,067
241,3	0,038
241,8	4,41
242,2	1,267
242,7	-6,762
243,2	-1,848
243,6	-3,39
244,1	-5,076
244,6	-0,733
245	-0,362
245,5	1,552
245,9	5,381
246,4	0,581
246,9	2,467
247,3	4,695
247,8	2,638
248,3	7,381
248,7	11,01
249,2	14,124
249,7	14,81
250,1	16,524
250,6	12,038
251	17,267
251,5	13,781
252	8,21
252,4	7,21
252,9	7,095
253,4	-1,562
253,8	-1,448
254,3	-2,105
254,8	0,21
255,2	3,21
255,7	2,095
256,1	6,952
256,6	15,981
257,1	19,61
257,5	15,095
258	13,581
258,5	13,695
258,9	13,895
259,4	9,981
259,9	7,752
260,3	9,21
260,8	8,81
261,2	6,124
261,7	7,352
262,2	5,01
262,6	2,152
263,1	7,238
263,6	6,295
264	11,724
264,5	13,895
264,9	16,095
265,4	18,267
265,9	17,267
266,3	13,352
266,8	15,724
267,3	12,41
267,7	10,095
268,2	4,924
268,7	8,267
269,1	11,381
269,6	9,867
270	7,352
270,5	4,438
271	5,981
271,4	6,981
271,9	-1,019
272,4	0,181
272,8	1,267
273,3	-0,562
273,7	3,495
274,2	4,952
274,7	4,524
275,1	9,438
275,6	12,095
276,1	5,638
276,5	8,438
277	6,752
277,4	5,181
277,9	7,124
278,4	8,781
278,8	6,152
279,3	12,924
279,8	13,124
280,2	15,552
280,7	18,895
281,1	18,467
281,6	15,295
282,1	15,238
282,5	12,295
283	10,524
283,4	8,352
283,9	5,838
284,4	14,01
284,8	13,838
285,3	14,438
285,8	15,381
286,2	14,581
286,7	15,552
287,1	12,267
287,6	2,981
288,1	1,638
288,5	1,724
289	1,124
289,5	2,752
289,9	2,61
290,4	7,895
290,8	6,124
291,3	10,295
291,8	9,61
292,2	9,752
292,7	10,695
293,1	10,467
293,6	12,552
294,1	13,21
294,5	12,324
295	13,638
295,5	15,352
295,9	16,067
296,4	16,667
296,8	13,638
297,3	16,038
297,8	8,867
298,2	1,952
298,7	4,152
299,1	4,238
299,6	1,724
300,1	1,752
300,5	3,067
301	9,238
301,5	17,952
301,9	15,152
302,4	10,581
302,8	13,238
303,3	11,324
303,8	6,495
304,2	9,41
304,7	7,467
305,1	5,524
305,6	7,638
306,1	9,038
306,5	12,438
307	15,352
307,4	16,895
307,9	16,152
308,4	15,952
308,8	12,267
309,3	9,867
309,8	5,924
310,2	4,495
310,7	0,295
311,1	0,21
311,6	2,41
312,1	10,495
312,5	16,038
313	17,152
313,4	19,867
313,9	22,81
314,4	23,524
314,8	20,238
315,3	15,867
315,7	7,638
316,2	6,41
316,7	0,295
317,1	-0,019
317,6	-1,305
318	5,01
318,5	3,038
319	3,924
319,4	6,981
319,9	15,324
320,3	15,067
320,8	10,81
321,3	11,695
321,7	14,667
322,2	15,067
322,6	14,724
323,1	11,61
323,6	7,238
324	12,152
324,5	4,038
324,9	6,61
325,4	10,152
325,9	10,981
326,3	11,924
326,8	15,752
327,2	13,295
327,7	17,752
328,2	12,981
328,6	12,152
329,1	8,095
329,5	8,438
330	5,61
330,5	9,867
330,9	8,724
331,4	10,381
331,8	9,295
332,3	10,381
332,8	12,067
333,2	12,21
333,7	11,152
334,1	12,867
334,6	11,924
335,1	7,552
335,5	10,981
336	8,924
336,4	12,581
336,9	17,21
337,4	19,352
337,8	18,667
338,3	21,495
338,7	18,067
339,2	20,638
339,7	24,352
340,1	16,495
340,6	12,667
341	13,524
341,5	14,81
342	14,352
342,4	7,467
342,9	-0,219
343,3	1,895
343,8	0,238
344,2	-0,276
344,7	3,752
345,2	4,295
345,6	7,267
346,1	9,095
346,5	7,667
347	8,895
347,5	9,581
347,9	10,581
348,4	10,467
348,8	12,41
349,3	14,238
349,8	12,438
350,2	20,495
350,7	16,552
351,1	15,124
351,6	19,41
352	21,01
352,5	24,724
353	34,41
353,4	34,467
353,9	43,467
354,3	51,438
354,8	58,381
355,3	72,238
355,7	86,638
356,2	103,81
356,6	125,295
357,1	150,638
357,5	178,524
358	212,238
358,5	242,524
358,9	282,895
359,4	324,467
359,8	368,41
360,3	428,352
360,8	485,21
361,2	547,267
361,7	627,124
362,1	708,724
362,6	798,41
363	892,638
363,5	984,01
364	1091,61
364,4	1203,41
364,9	1312,638
365,3	1415,752
365,8	1512,238
366,3	1606,295
366,7	1694,724
367,2	1769,295
367,6	1827,495
368,1	1871,667
368,5	1901,324
369	1915,867
369,5	1920,724
369,9	1907,038
370,4	1879,438
370,8	1843,01
371,3	1787,21
371,7	1726,638
372,2	1654,752
372,7	1578,61
373,1	1495,667
373,6	1407,438
374	1320,381
374,5	1232,781
374,9	1144,495
375,4	1066,524
375,9	987,038
376,3	909,495
376,8	835,038
377,2	767,21
377,7	704,467
378,2	649,152
378,6	595,124
379,1	541,781
379,5	505,781
380	471,895
380,4	431,438
380,9	395,724
381,4	361,324
381,8	336,181
382,3	317,381
382,7	288,61
383,2	264,324
383,6	248,067
384,1	231,952
384,6	218,724
385	199,667
385,5	180,438
385,9	166,524
386,4	153,524
386,8	142,952
387,3	133,524
387,7	123,81
388,2	116,095
388,7	109,495
389,1	103,867
389,6	98,41
390	90,667
390,5	88,552
390,9	86,181
391,4	83,667
391,9	80,81
392,3	75,41
392,8	66,724
393,2	59,352
393,7	53,695
394,1	48,467
394,6	45,467
395,1	39,952
395,5	41,752
396	41,724
396,4	41,381
396,9	40,01
397,3	39,067
397,8	40,495
398,2	40,638
398,7	35,152
399,2	36,01
399,6	40,924
400,1	39,638
400,5	36,152
401	34,667
401,4	31,41
401,9	33,838
402,4	32,467
402,8	26,895
403,3	28,381
403,7	27,524
404,2	31,152
404,6	35,867
405,1	31,695
405,5	32,41
406	33,781
406,5	29,152
406,9	33,01
407,4	25,01
407,8	27,381
408,3	30,495
408,7	28,181
409,2	27,238
409,6	32,667
410,1	32,924
410,6	41,638
411	39,324
411,5	40,524
411,9	46,152
412,4	49,467
412,8	55,638
413,3	55,552
413,7	53,552
414,2	57,295
414,7	62,381
415,1	70,267
415,6	77,581
416	75,21
416,5	81,324
416,9	82,781
417,4	82,495
417,8	85,181
418,3	86,152
418,8	86,067
419,2	85,81
419,7	88,352
420,1	92,01
420,6	93,324
421	95,524
421,5	94,581
421,9	95,695
422,4	95,467
422,8	93,495
423,3	88,952
423,8	89,581
424,2	86,01
424,7	86,324
425,1	84,352
425,6	89,438
426	89,495
426,5	95,924
426,9	100,924
427,4	100,752
427,9	94,952
428,3	97,124
428,8	93,981
429,2	93,238
429,7	87,724
430,1	84,524
430,6	85,924
431	90,638
431,5	90,61
431,9	88,038
432,4	91,81
432,8	97,781
433,3	103,181
433,8	104,895
434,2	110,552
434,7	115,152
435,1	123,724
435,6	127,352
436	128,495
436,5	129,695
436,9	129,124
437,4	131,524
437,8	135,552
438,3	138,838
438,8	142,552
439,2	150,924
439,7	159,695
440,1	170,952
440,6	179,81
441	183,324
441,5	192,895
441,9	202,067
442,4	203,095
442,8	210,21
443,3	219,067
443,7	224,381
444,2	239,381
444,7	248,01
445,1	257,352
445,6	271,124
446	279,61
446,5	287,924
446,9	293,695
447,4	301,324
447,8	313,152
448,3	325,267
448,7	334,867
449,2	350,495
449,6	368,467
450,1	382,981
450,6	395,952
451	411,724
451,5	426,495
451,9	451,038
452,4	468,21
452,8	481,21
453,3	504,924
453,7	519,181
454,2	537,381
454,6	557,81
455,1	571,638
455,5	580,838
456	598,981
456,4	611,724
456,9	636,21
457,3	652,467
457,8	668,01
458,3	687,924
458,7	715,495
459,2	739,524
459,6	766,695
460,1	788,324
460,5	806,581
461	834,152
461,4	858,381
461,9	881,838
462,3	906,295
462,8	928,895
463,2	950,781
463,7	981,381
464,1	1010,038
464,6	1042,752
465	1070,81
465,5	1098,181
466	1127,781
466,4	1155,638
466,9	1184,324
467,3	1213,752
467,8	1239,238
468,2	1268,267
468,7	1295,924
469,1	1329,438
469,6	1362,81
470	1394,067
470,5	1422,781
470,9	1449,581
471,4	1474,095
471,8	1503,238
472,3	1531,324
472,7	1563,524
473,2	1586,124
473,6	1610,381
474,1	1641,038
474,5	1677,295
475	1706,838
475,4	1733,552
475,9	1760,752
476,4	1793,324
476,8	1825,724
477,3	1851,324
477,7	1877,752
478,2	1907,21
478,6	1931,124
479,1	1954,981
479,5	1984,124
480	2005,381
480,4	2034,067
480,9	2058,01
481,3	2080,238
481,8	2109,724
482,2	2129,324
482,7	2157,952
483,1	2183,61
483,6	2205,924
484	2229,952
484,5	2254,924
484,9	2277,524
485,4	2305,324
485,8	2322,924
486,3	2343,838
486,7	2369,238
487,2	2387,295
487,6	2408,238
488,1	2416,61
488,5	2430,667
489	2449,467
489,4	2466,552
489,9	2476,038
490,4	2492,467
490,8	2506,124
491,3	2531,867
491,7	2548,152
492,2	2566,095
492,6	2578,467
493,1	2595,752
493,5	2601,295
494	2607,267
494,4	2618,638
494,9	2635,238
495,3	2645,552
495,8	2655,724
496,2	2666,21
496,7	2680,21
497,1	2699,61
497,6	2704,81
498	2715,067
498,5	2720,695
498,9	2732,581
499,4	2741,438
499,8	2757,124
500,3	2765,095
500,7	2773,495
501,2	2778,41
501,6	2781,895
502,1	2789,981
502,5	2794,781
503	2802,21
503,4	2806,152
503,9	2812,352
504,3	2826,438
504,8	2839,038
505,2	2844,952
505,7	2850,238
506,1	2862,667
506,6	2865,495
507	2872,01
507,5	2875,238
507,9	2881,61
508,4	2887,181
508,8	2896,81
509,3	2891,124
509,7	2906,667
510,2	2912,981
510,6	2915,781
511,1	2915,41
511,5	2919,438
512	2927,067
512,4	2936,724
512,9	2936,238
513,3	2947,152
513,8	2947,838
514,2	2956,495
514,7	2962,124
515,1	2963,695
515,6	2964,152
516	2966,067
516,5	2967,267
516,9	2975,381
517,4	2979,267
517,8	2984,952
518,3	2986,695
518,7	2992,238
519,2	3000,067
519,6	3008,924
520,1	3005,181
520,5	3010,067
521	3013,838
521,4	3025,152
521,9	3031,695
522,3	3038,695
522,8	3041,124
523,2	3058,952
523,7	3064,752
524,1	3066,324
524,6	3068,81
525	3075,638
525,5	3078,095
525,9	3085,038
526,4	3084,152
526,8	3088,467
527,3	3103,467
527,7	3106,724
528,2	3114,638
528,6	3119,581
529,1	3129,867
529,5	3141,381
530	3149,724
530,4	3150,267
530,9	3162,124
531,3	3164,638
531,8	3173,924
532,2	3177,067
532,6	3185,181
533,1	3191,638
533,5	3207,467
534	3212,238
534,4	3223,467
534,9	3235,581
535,3	3240,01
535,8	3244,61
536,2	3256,61
536,7	3259,924
537,1	3268,524
537,6	3278,152
538	3283,267
538,5	3295,867
538,9	3301,067
539,4	3310,952
539,8	3315,638
540,3	3322,81
540,7	3330,467
541,2	3339,01
541,6	3342,067
542,1	3349,352
542,5	3353,324
543	3364,638
543,4	3374,667
543,9	3382,924
544,3	3390,781
544,8	3400,952
545,2	3409,152
545,7	3422,438
546,1	3433,267
546,5	3441,238
547	3452,638
547,4	3462,638
547,9	3470,181
548,3	3481,924
548,8	3487,81
549,2	3490,81
549,7	3499,81
550,1	3511,01
550,6	3515,238
551	3522,267
551,5	3531,295
551,9	3531,81
552,4	3538,924
552,8	3543,038
553,3	3539,324
553,7	3542,295
554,2	3550,838
554,6	3558,895
555,1	3572,895
555,5	3579,152
555,9	3587,295
556,4	3592,952
556,8	3605,381
557,3	3609,781
557,7	3615,352
558,2	3617,495
558,6	3628,81
559,1	3633,21
559,5	3645,067
560	3648,41
560,4	3654,981
560,9	3655,895
561,3	3667,352
561,8	3669,752
562,2	3676,81
562,7	3676,524
563,1	3686,01
563,6	3691,952
564	3702,61
564,4	3699,552
564,9	3704,981
565,3	3709,095
565,8	3712,21
566,2	3716,81
566,7	3722,838
567,1	3719,981
567,6	3723,295
568	3723,638
568,5	3727,781
568,9	3734,41
569,4	3736,352
569,8	3738,867
570,3	3743,238
570,7	3743,667
571,1	3749,295
571,6	3755,124
572	3754,524
572,5	3747,781
572,9	3744,724
573,4	3748,21
573,8	3754,581
574,3	3753,61
574,7	3751,01
575,2	3748,067
575,6	3748,895
576,1	3752,267
576,5	3754,952
576,9	3748,038
577,4	3747,41
577,8	3740,01
578,3	3735,267
578,7	3736,438
579,2	3737,781
579,6	3727,838
580,1	3720,667
580,5	3714,981
581	3714,524
581,4	3716,952
581,9	3703,41
582,3	3688,667
582,7	3690,21
583,2	3691,81
583,6	3690,924
584,1	3688,381
584,5	3678,067
585	3686,267
585,4	3673,781
585,9	3662,667
586,3	3661,095
586,8	3654,21
587,2	3644,381
587,6	3644,524
588,1	3635,981
588,5	3638,752
589	3637,381
589,4	3629,552
589,9	3622,752
590,3	3612,524
590,8	3608,152
591,2	3604,238
591,7	3603,524
592,1	3599,981
592,5	3599,01
593	3590,952
593,4	3584,724
593,9	3574,267
594,3	3559,924
594,8	3552,667
595,2	3542,667
595,7	3530,01
596,1	3524,267
596,6	3526,324
597	3520,124
597,4	3515,124
597,9	3506,467
598,3	3500,295
598,8	3500,124
599,2	3498,295
599,7	3493,61
600,1	3487,638
600,6	3485,81
601	3480,524
601,4	3476,267
601,9	3463,667
602,3	3448,381
602,8	3437,41
603,2	3429,81
603,7	3423,581
604,1	3413,41
604,6	3401,495
605	3388,61
605,4	3387,295
605,9	3375,467
606,3	3365,495
606,8	3349,495
607,2	3336,01
607,7	3328,152
608,1	3322,495
608,6	3312,867
609	3308,895
609,4	3296,352
609,9	3287,267
610,3	3284,524
610,8	3269,067
611,2	3257,124
611,7	3240,01
612,1	3224,352
612,6	3220,524
613	3209,752
613,4	3194,552
613,9	3184,038
614,3	3169,838
614,8	3167,524
615,2	3151,781
615,7	3135,067
616,1	3124,695
616,6	3109,41
617	3092,695
617,4	3082,095
617,9	3061,324
618,3	3056,067
618,8	3049,467
619,2	3036,752
619,7	3031,067
620,1	3024,752
620,5	3017,895
621	3008,838
621,4	2992,867
621,9	2977,41
622,3	2968,667
622,8	2950,895
623,2	2936,667
623,6	2917,638
624,1	2905,952
624,5	2895,438
625	2889,01
625,4	2872,152
625,9	2865,81
626,3	2854,41
626,8	2843,267
627,2	2825,352
627,6	2808,352
628,1	2782,752
628,5	2773,21
629	2753,61
629,4	2737,067
629,9	2724,152
630,3	2706,781
630,7	2688,095
631,2	2678,638
631,6	2666,667
632,1	2655,838
632,5	2642,324
633	2632,667
633,4	2624,981
633,8	2617,552
634,3	2603,667
634,7	2582,81
635,2	2565,21
635,6	2549,467
636,1	2529,867
636,5	2512,638
636,9	2494,952
637,4	2478,352
637,8	2465,01
638,3	2450,352
638,7	2440,581
639,2	2424,752
639,6	2413,81
640	2407,352
640,5	2394,724
640,9	2381,41
641,4	2375,524
641,8	2369,01
642,2	2364,381
642,7	2357,867
643,1	2349,038
643,6	2339,324
644	2331,067
644,5	2318,638
644,9	2304,295
645,3	2293,981
645,8	2275,838
646,2	2261,152
646,7	2250,41
647,1	2237,038
647,6	2227,81
648	2213,981
648,4	2196,267
648,9	2185,981
649,3	2172,124
649,8	2165,695
650,2	2157,981
650,6	2146,152
651,1	2136,781
651,5	2127,895
652	2117,781
652,4	2104,352
652,9	2084,438
653,3	2069,724
653,7	2052,867
654,2	2043,41
654,6	2027,667
655,1	2019,181
655,5	2011,981
655,9	2005,267
656,4	1994,01
656,8	1987,61
657,3	1970,438
657,7	1965,895
658,2	1948,01
658,6	1932,638
659	1919,124
659,5	1905,981
659,9	1891,552
660,4	1882,724
660,8	1861,181
661,2	1850,181
661,7	1839,267
662,1	1826,467
662,6	1815,952
663	1804,352
663,4	1793,438
663,9	1785,21
664,3	1773,152
664,8	1760,724
665,2	1752,467
665,6	1740,01
666,1	1726,152
666,5	1711,01
667	1705,552
667,4	1694,581
667,9	1685,067
668,3	1673,238
668,7	1666,067
669,2	1656,41
669,6	1652,067
670,1	1636,838
670,5	1625,267
670,9	1617,21
671,4	1607,81
671,8	1599,324
672,3	1595,638
672,7	1582,238
673,1	1568,867
673,6	1561,438
674	1549,895
674,5	1539,352
674,9	1521,952
675,3	1504,638
675,8	1494,067
676,2	1484,581
676,7	1474,438
677,1	1463,21
677,5	1454,638
678	1450,781
678,4	1444,724
678,9	1436,038
679,3	1430,81
679,7	1423,695
680,2	1411,667
680,6	1401,181
681,1	1394,495
681,5	1384,095
681,9	1373,524
682,4	1366,095
682,8	1355,952
683,3	1352,152
683,7	1346,695
684,1	1336,695
684,6	1325,81
685	1315,781
685,5	1301,867
685,9	1285,838
686,3	1271,838
686,8	1260,067
687,2	1250,21
687,7	1240,752
688,1	1234,438
688,5	1230,067
689	1227,981
689,4	1223,41
689,9	1215,095
690,3	1204,181
690,7	1200,695
691,2	1196,61
691,6	1185,952
692	1177,41
692,5	1169,467
692,9	1163,41
693,4	1156,295
693,8	1147,267
694,2	1134,867
694,7	1126,21
695,1	1120,267
695,6	1114,41
696	1107,01
696,4	1099,038
696,9	1088,467
697,3	1077,467
697,8	1073,467
698,2	1061,467
698,6	1058,61
699,1	1047,21
699,5	1040,752
699,9	1036,095
700,4	1032,867
700,8	1028,41
701,3	1022,752
701,7	1005,038
702,1	999,181
702,6	994,867
703	985,981
703,5	976,638
703,9	967,895
704,3	964,924
704,8	965,067
705,2	958,295
705,6	948,81
706,1	943,524
706,5	936,924
707	927,924
707,4	924,752
707,8	912,981
708,3	908,81
708,7	902,01
709,2	896,838
709,6	892,095
710	893,238
710,5	883,01
710,9	881,381
711,3	871,752
711,8	868,267
712,2	864,181
712,7	855,381
713,1	843,324
713,5	840,438
714	835,238
714,4	829,152
714,8	820,61
715,3	810,952
715,7	807,467
716,2	801,238
716,6	790,524
717	781,667
717,5	774,981
717,9	769,81
718,3	762,81
718,8	760,61
719,2	759,124
719,7	757,61
720,1	756,41
720,5	756,01
721	747,095
721,4	743,695
721,8	740,152
722,3	729,124
722,7	726,867
723,2	717,952
723,6	704,01
724	697,381
724,5	689,524
724,9	680,695
725,3	677,81
725,8	661,981
726,2	654,381
726,7	656,695
727,1	652,81
727,5	652,81
728	646,267
728,4	643,981
728,8	643,124
729,3	638,924
729,7	628,524
730,1	628,095
730,6	622,552
731	616,895
731,5	613,067
731,9	609,752
732,3	608,21
732,8	608,724
733,2	602,638
733,6	595,381
734,1	593,152
734,5	585,667
734,9	584,21
735,4	584,152
735,8	577,324
736,3	577,038
736,7	571,752
737,1	568,295
737,6	567,524
738	562,781
738,4	553,381
738,9	554,981
739,3	552,695
739,7	557,41
740,2	554,01
740,6	552,21
741,1	555,324
741,5	550,381
741,9	547,667
742,4	543,267
742,8	536,381
743,2	533,867
743,7	527,838
744,1	514,495
744,5	514,895
745	507,152
745,4	501,324
745,8	498,667
746,3	495,924
746,7	488,21
747,2	490,495
747,6	493,352
748	493,895
748,5	492,895
748,9	487,867
749,3	481,495
749,8	483,495
750,2	475,267
750,6	467,495
751,1	465,552
751,5	460,61
751,9	459,895
752,4	461,895
752,8	458,781
753,3	456,781
753,7	453,867
754,1	444,552
754,6	439,752
755	431,21
755,4	422,952
755,9	417,952
756,3	414,352
756,7	410,295
757,2	412,781
757,6	413,467
758	413,552
758,5	407,552
758,9	408,952
759,3	407,238
759,8	402,438
760,2	395,124
760,6	390,752
761,1	387,467
761,5	391,752
761,9	383,924
762,4	380,152
762,8	382,124
763,3	380,752
763,7	376,81
764,1	375,724
764,6	371,695
765	370,352
765,4	369,324
765,9	365,238
766,3	362,81
766,7	360,524
767,2	355,724
767,6	358,581
768	355,867
768,5	355,667
768,9	350,781
769,3	348,467
769,8	349,952
770,2	350,695
770,6	340,238
771,1	338,581
771,5	332,438
771,9	334,21
772,4	335,81
772,8	330,724
773,2	329,724
773,7	325,981
774,1	320,981
774,5	315,781
775	309,21
775,4	306,552
775,8	305,981
776,3	302,81
776,7	304,61
777,1	304,095
777,6	307,038
778	307,238
778,4	300,61
778,9	297,01
779,3	295,324
779,7	298,21
780,2	301,238
780,6	300,952
781	296,238
781,5	293,152
781,9	293,381
782,3	285,495
782,8	279,295
783,2	269,552
783,6	263,695
784,1	261,895
784,5	261,438
784,9	253,924
785,4	256,667
785,8	254,295
786,2	257,581
786,7	262,895
787,1	256,952
787,5	256,581
788	262,61
788,4	262,152
788,8	260,581
789,3	253,838
789,7	251,295
790,1	253,724
790,6	253,867
791	243,41
791,4	243,21
791,9	239,038
792,3	237,81
792,7	232,238
793,2	228,21
793,6	224,667
794	228,924
794,5	224,952
794,9	226,752
795,3	228,095
795,8	227,495
796,2	227,467
796,6	227,181
797,1	220,352
797,5	217,581
797,9	213,324
798,4	210,41
798,8	205,352
799,2	202,61
799,7	199,952
800,1	202,095
800,5	200,095
801	204,524
801,4	198,581
801,8	194,352
802,2	196,438
802,7	194,381
803,1	189,467
803,5	192,952
804	186,867
804,4	189,867
804,8	194,895
805,3	196,581
805,7	196,781
806,1	201,352
806,6	197,667
807	195,124
807,4	191,381
807,9	183,381
808,3	175,038
808,7	171,695
809,2	166,838
809,6	166,267
810	167,952
810,4	165,581
810,9	172,124
811,3	174,352
811,7	171,152
812,2	177,838
812,6	172,952
813	171,01
813,5	177,21
813,9	169,41
814,3	168,581
814,8	168,124
815,2	158,438
815,6	156,524
816,1	156,752
816,5	151,838
816,9	156,124
817,3	151,324
817,8	156,552
818,2	158,41
818,6	160,61
819,1	158,895
819,5	156,238
819,9	154,267
820,4	156,524
820,8	147,952
821,2	142,867
821,7	140,667
822,1	140,038
822,5	145,352
822,9	141,067
823,4	140,01
823,8	142,81
824,2	143,752
824,7	141,581
825,1	137,152
825,5	130,295
826	129,61
826,4	126,467
826,8	120,41
827,3	121,352
827,7	116,781
828,1	113,124
828,5	112,924
829	109,667
829,4	107,038
829,8	108,81
830,3	105,267
830,7	103,295
831,1	105,295
831,6	102,981
832	104,41
832,4	106,895
832,8	107,924
833,3	105,581
833,7	104,752
834,1	106,124
834,6	108,895
835	111,324
835,4	109,124
835,8	102,352
836,3	101,895
836,7	109,381
837,1	105,495
837,6	103,695
838	99,324
838,4	101,038
838,9	106,21
839,3	105,867
839,7	103,41
840,1	99,381
840,6	97,295
841	99,067
841,4	94,181
841,9	91,81
842,3	89,324
842,7	84,695
843,1	87,238
843,6	86,41
844	85,21
844,4	89,381
844,9	91,61
845,3	93,981
845,7	93,867
846,2	92,695
846,6	91,838
847	91,838
847,4	90,952
847,9	90,61
848,3	91,038
848,7	90,695
849,2	89,895
849,6	88,867
850	88,781
850,4	85,924
850,9	84,81
851,3	85,381
851,7	89,495
852,2	89,838
852,6	92,381
853	91,752
853,4	89,81
853,9	88,952
854,3	85,038
854,7	81,638
855,2	77,295
855,6	73,667
856	68,552
856,4	67,61
856,9	60,695
857,3	59,524
857,7	60,781
858,2	70,467
858,6	70,524
859	71,41
859,4	73,438
859,9	72,752
860,3	70,038
860,7	67,924
861,1	66,267
861,6	62,981
862	64,981
862,4	61,381
862,9	65,752
863,3	67,21
863,7	64,81
864,1	60,01
864,6	59,695
865	54,638
865,4	56,61
865,9	58,838
866,3	59,467
866,7	59,61
867,1	57,181
867,6	61,952
868	63,695
868,4	63,838
868,8	61,952
869,3	60,638
869,7	64,038
870,1	60,867
870,6	55,552
871	-16,619
871,4	-11,362
871,8	-17,048
872,3	-16,419
872,7	-18,619
873,1	-14,99
873,5	-10,59
874	61,238
874,4	58,295
874,8	59,295
875,3	61,352
875,7	59,295
876,1	59,181
876,5	56,352
877	53,152
877,4	45,524
877,8	48,238
878,2	49,038
878,7	50,295
879,1	52,295
879,5	51,324
879,9	53,381
880,4	55,781
880,8	52,924
881,2	49,667
881,7	45,61
882,1	45,124
882,5	40,867
882,9	41,067
883,4	36,895
883,8	36,467
884,2	35,438
884,6	35,324
885,1	34,924
885,5	39,095
885,9	38,324
886,3	44,381
886,8	43,724
887,2	40,152
887,6	39,01
888	38,495
888,5	40,467
888,9	38,895
889,3	31,352
889,8	29,695
890,2	33,752
890,6	32,41
891	30,667
891,5	25,21
891,9	25,867
892,3	32,038
892,7	38,667
893,2	39,838
893,6	44,924
894	46,924
894,4	46,638
894,9	46,752
895,3	46,038
895,7	40,581
896,1	36,61
896,6	35,352
897	35,867
897,4	40,267
897,8	40,095
898,3	41,61
898,7	41,895
899,1	37,41
899,5	31,924
900	24,238
900,4	25,467
900,8	22,952
901,2	20,01
901,7	18,867
902,1	22,781
902,5	30,41
902,9	33,781
903,4	28,067
903,8	30,124
904,2	27,695
904,6	29,838
905,1	30,724
905,5	24,381
905,9	24,81
906,3	30,695
906,8	30,667
907,2	31,781
907,6	28,838
908	31,41
908,5	30,152
908,9	27,324
909,3	22,181
909,7	23,981
910,2	26,952
910,6	32,552
911	26,381
911,4	29,01
911,9	28,552
912,3	26,895
912,7	27,181
913,1	24,867
913,6	17,667
914	21,895
914,4	24,124
914,8	26,01
915,3	26,495
915,7	26,581
916,1	22,695
916,5	28,41
916,9	25,581
917,4	19,124
917,8	22,638
918,2	19,495
918,6	16,495
919,1	20,21
919,5	20,667
919,9	20,124
920,3	23,924
920,8	22,095
921,2	28,724
921,6	27,238
922	27,952
922,5	26,81
922,9	29,552
923,3	29,752
923,7	24,867
924,2	21,867
924,6	23,952
925	23,267
925,4	18,181
925,8	19,152
926,3	19,552
926,7	23,152
927,1	21,724
927,5	23,038
928	22,61
928,4	22,924
928,8	23,381
929,2	22,267
929,7	22,41
930,1	24,295
930,5	21,81
930,9	24,552
931,3	29,752
931,8	26,095
932,2	24,952
932,6	23,152
933	16,181
933,5	16,752
933,9	14,752
934,3	10,381
934,7	7,752
935,2	10,238
935,6	11,01
936	18,324
936,4	18,838
936,8	15,638
937,3	16,267
937,7	18,752
938,1	18,952
938,5	15,124
939	16,467
939,4	15,895
939,8	19,067
940,2	21,267
940,6	22,867
941,1	19,752
941,5	23,838
941,9	17,238
942,3	17,867
942,8	16,381
943,2	13,495
943,6	5,41
944	5,952
944,4	2,267
944,9	2,895
945,3	0,838
945,7	-2,105
946,1	-3,962
946,6	2,238
947	1,952
947,4	6,924
947,8	8,752
948,2	6,324
948,7	10,152
949,1	14,81
949,5	18,724
949,9	19,781
950,3	17,524
950,8	16,467
951,2	17,41
951,6	15,152
952	15,838
952,5	10,895
952,9	10,238
953,3	12,124
953,7	12,381
954,1	14,295
954,6	13,438
955	14,324
955,4	13,524
955,8	15,667
956,2	12,895
956,7	15,895
957,1	14,295
957,5	17,895
957,9	14,41
958,3	15,667
958,8	11,838
959,2	14,695
959,6	16,01
960	13,781
960,5	18,524
960,9	21,038
961,3	17,695
961,7	21,667
962,1	19,21
962,6	18,495
963	19,324
963,4	11,124
963,8	8,41
964,2	8,695
964,7	4,781
965,1	9,067
965,5	7,752
965,9	7,924
966,3	9,667
966,8	8,895
967,2	13,352
967,6	12,324
968	5,324
968,4	7,124
968,9	10,21
969,3	8,467
969,7	7,152
970,1	7,01
970,5	11,695
971	14,724
971,4	10,438
971,8	9,124
972,2	8,267
972,6	8,638
973,1	9,21
973,5	8,867
973,9	10,552
974,3	12,124
974,7	16,381
975,2	17,781
975,6	17,724
976	20,238
976,4	15,581
976,8	12,295
977,3	11,724
977,7	5,695
978,1	4,895
978,5	4,067
978,9	-0,933
979,4	-0,19
979,8	-1,248
980,2	-1,705
980,6	-1,562
981	3,752
981,5	5,438
981,9	4,838
982,3	6,067
982,7	8,295
983,1	6,552
983,6	12,438
984	10,21
984,4	11,124
984,8	11,295
985,2	15,21
985,6	12,924
986,1	14,61
986,5	9,438
986,9	3,752
987,3	6,495
987,7	7,095
988,2	1,781
988,6	3,638
989	3,81
989,4	5,095
989,8	7,152
990,3	2,667
990,7	4,324
991,1	6,495
991,5	10,181
991,9	12,781
992,3	13,467
992,8	16,038
993,2	12,981
993,6	13,838
994	18,295
994,4	15,524
994,9	14,01
995,3	11,038
995,7	10,81
996,1	13,752
996,5	10,781
996,9	2,295
997,4	2,152
997,8	-0,19
998,2	0,381
998,6	-5,448
999	-5,333
999,5	-5,619
999,9	-2,562
1000,3	-4,276
1000,7	-1,848
1001,1	0,495
1001,5	8,41
1002	13,381
1002,4	16,61
1002,8	16,067
1003,2	20,952
1003,6	22,61
1004	22,495
1004,5	20,181
1004,9	18,924
1005,3	15,181
1005,7	19,667
1006,1	15,21
1006,6	11,467
1007	8,724
1007,4	6,41
1007,8	1,352
1008,2	-0,333
1008,6	-4,133
1009,1	-1,533
1009,5	-2,133
1009,9	1,095
1010,3	-1,162
1010,7	1,21
1011,1	3,381
1011,6	5,61
1012	6,381
1012,4	4,724
1012,8	0,81
1013,2	6,867
1013,6	8,381
1014,1	11,81
1014,5	12,238
1014,9	11,152
1015,3	11,352
1015,7	18,21
1016,1	15,21
1016,6	13,01
1017	13,181
1017,4	8,21
1017,8	7,124
1018,2	12,895
1018,6	6,638
1019,1	6,352
1019,5	9,467
1019,9	4,552
1020,3	10,895
1020,7	12,781
1021,1	10,524
1021,6	12,438
1022	16,238
1022,4	13,438
1022,8	15,524
1023,2	12,038
1023,6	11,067
1024,1	14,438
1024,5	13,581
1024,9	8,181
1025,3	7,952
1025,7	7,438
1026,1	11,924
1026,6	10,867
1027	9,524
1027,4	12,467
1027,8	14,924
1028,2	14,038
1028,6	16,238
1029	12,267
1029,5	15,867
1029,9	10,61
1030,3	4,21
1030,7	4,381
1031,1	9,152
1031,5	4,895
1032	6,324
1032,4	3,981
1032,8	7,438
1033,2	12,381
1033,6	12,067
1034	7,467
1034,4	9,867
1034,9	6,495
1035,3	5,067
1035,7	7,752
1036,1	5,038
1036,5	3,124
1036,9	3,695
1037,4	2,752
1037,8	-2,019
1038,2	-3,59
1038,6	-3,59
1039	2,667
1039,4	6,524
1039,8	4,438
1040,3	3,295
1040,7	7,438
1041,1	12,124
1041,5	10,267
1041,9	5,495
1042,3	4,895
1042,7	8,124
1043,2	9,124
1043,6	11,181
1044	8,581
1044,4	11,267
1044,8	14,324
1045,2	12,752
1045,6	12,21
1046,1	13,352
1046,5	10,324
1046,9	8,981
1047,3	7,838
1047,7	4,41
1048,1	6,267
1048,5	9,21
1049	13,867
1049,4	22,124
1049,8	23,152
1050,2	23,124
1050,6	27,638
1051	24,181
1051,4	24,352
1051,9	22,267
1052,3	25,381
1052,7	27,495
1053,1	27,095
1053,5	27,695
1053,9	28,438
1054,3	29,924
1054,8	34,495
1055,2	31,21
1055,6	33,638
1056	32,181
1056,4	33,267
1056,8	33,61
1057,2	29,552
1057,6	20,61
1058,1	16,552
1058,5	9,238
1058,9	9,752
1059,3	7,495
1059,7	13,81
1060,1	14,038
1060,5	16,238
1061	14,295
1061,4	12,438
1061,8	16,924
1062,2	14,581
1062,6	9,467
1063	8,638
1063,4	9,81
1063,8	10,61
1064,3	11,21
1064,7	6,838
1065,1	6,638
1065,5	3,038
1065,9	4,295
1066,3	-0,619
1066,7	-2,733
1067,1	-4,39
1067,6	1,152
1068	-3,333
1068,4	1,124
1068,8	-1,305
1069,2	5,867
1069,6	6,467
1070	14,352
1070,4	7,781
1070,9	8,752
1071,3	8,01
1071,7	8,981
1072,1	6,267
1072,5	4,467
1072,9	1,438
1073,3	1,61
1073,7	2,067
1074,2	2,838
1074,6	5,638
1075	3,295
1075,4	6,581
1075,8	9,752
1076,2	8,752
1076,6	12,638
1077	8,867
1077,5	9,238
1077,9	10,667
1078,3	10,667
1078,7	8,695
1079,1	8,41
1079,5	8,21
1079,9	12,067
1080,3	10,324
1080,7	10,724
1081,2	14,638
1081,6	14,152
1082	15,981
1082,4	17,924
1082,8	20,21
1083,2	19,838
1083,6	20,438
1084	15,067
1084,5	18,552
1084,9	15,381
1085,3	6,467
1085,7	6,752
1086,1	7,667
1086,5	5,352
1086,9	10,181
1087,3	6,467
1087,7	8,238
1088,2	13,152
1088,6	8,124
1089	4,752
1089,4	5,724
1089,8	4,324
1090,2	4,124
1090,6	5,181
1091	6,724
1091,4	9,067
1091,9	12,552
1092,3	13,41
1092,7	12,495
1093,1	18,267
1093,5	17,61
1093,9	17,924
1094,3	19,61
1094,7	15,638
1095,1	21,095
1095,5	21,781
1096	14,838
1096,4	15,152
1096,8	15,324
1097,2	13,581
1097,6	16,895
1098	12,438
1098,4	12,181
1098,8	14,438
1099,2	18,752
1099,6	16,21
1100,1	12,695
1100,5	12,981
1100,9	11,067
1101,3	10,781
1101,7	7,781
1102,1	3,467
1102,5	6,095
1102,9	12,295
1103,3	13,381
1103,7	14,752
1104,2	15,438
1104,6	17,752
1105	14,324
1105,4	11,695
1105,8	6,352
1106,2	2,981
1106,6	1,124
1107	-1,305
1107,4	-3,3
1107,8	-0,493
1108,3	-0,183
