Data from Subt2_282.txt Node
Date: Sat Aug 26 19:07:03 MSK 2023
User: vat
Spectrometer: MAYP114033
Trigger mode: 0
Integration Time (sec): 1,000000E0
Scans to average: 5
Electric dark correction enabled: true
Nonlinearity correction enabled: false
Boxcar width: 3
XAxis mode: Wavelengths
Number of Pixels in Spectrum: 2068
>>>>>Begin Spectral Data<<<<<
199,4	0,317
199,9	6,407
200,4	4,267
200,8	7,538
201,3	5,338
201,8	9,71
202,2	9,11
202,7	13,138
203,2	6,281
203,6	5,767
204,1	0,795
204,6	3,167
205	-0,833
205,5	2,91
206	1,824
206,4	4,881
206,9	3,452
207,4	4,595
207,8	6,595
208,3	8,081
208,8	6,624
209,2	4,795
209,7	4,338
210,2	8,995
210,6	10,11
211,1	4,652
211,5	2,11
212	-0,148
212,5	0,824
212,9	-0,919
213,4	-1,09
213,9	-4,805
214,3	1,624
214,8	6,767
215,3	7,595
215,7	9,481
216,2	12,395
216,7	13,91
217,1	15,281
217,6	13,052
218,1	10,224
218,5	7,652
219	-0,176
219,5	-2,719
219,9	-7,69
220,4	1,624
220,9	0,024
221,3	0,281
221,8	6,652
222,3	12,767
222,7	19,338
223,2	22,795
223,6	14,795
224,1	18,024
224,6	19,481
225	12,024
225,5	9,938
226	5,081
226,4	4,224
226,9	7,31
227,4	4,452
227,8	-3,205
228,3	0,367
228,8	-1,005
229,2	0,11
229,7	0,31
230,2	0,481
230,6	5,71
231,1	15,738
231,5	19,024
232	21,224
232,5	19,424
232,9	21,367
233,4	21,881
233,9	17,31
234,3	14,252
234,8	10,824
235,3	9,052
235,7	11,252
236,2	8,824
236,7	4,452
237,1	7,338
237,6	6,652
238,1	6,51
238,5	4,367
239	5,081
239,4	9,11
239,9	9,31
240,4	5,595
240,8	10,995
241,3	7,424
241,8	12,195
242,2	11,052
242,7	5,052
243,2	3,538
243,6	1,481
244,1	-4,462
244,6	1,195
245	1,824
245,5	-1,29
245,9	-0,776
246,4	3,167
246,9	8,167
247,3	10,31
247,8	9,31
248,3	12,595
248,7	18,252
249,2	22,167
249,7	17,71
250,1	15,11
250,6	11,31
251	17,367
251,5	13,338
252	9,081
252,4	8,081
252,9	9,252
253,4	7,71
253,8	8,167
254,3	-0,919
254,8	-1,376
255,2	-2,976
255,7	-7,462
256,1	-4,176
256,6	-0,205
257,1	-0,09
257,5	-0,862
258	-1,805
258,5	0,367
258,9	4,167
259,4	2,367
259,9	2,167
260,3	0,967
260,8	6,367
261,2	6,738
261,7	9,424
262,2	6,91
262,6	3,31
263,1	8,767
263,6	13,881
264	11,795
264,5	13,51
264,9	9,081
265,4	12,195
265,9	11,681
266,3	6,881
266,8	8,681
267,3	4,852
267,7	3,795
268,2	6,51
268,7	7,452
269,1	11,024
269,6	11,481
270	9,024
270,5	14,338
271	15,624
271,4	14,938
271,9	7,538
272,4	10,138
272,8	7,424
273,3	4,767
273,7	7,681
274,2	4,024
274,7	5,738
275,1	9,31
275,6	9,967
276,1	8,967
276,5	15,052
277	10,71
277,4	12,052
277,9	14,367
278,4	15,995
278,8	15,224
279,3	17,881
279,8	13,338
280,2	15,024
280,7	18,967
281,1	13,252
281,6	15,852
282,1	11,881
282,5	8,967
283	6,252
283,4	2,567
283,9	1,824
284,4	7,252
284,8	6,824
285,3	8,31
285,8	9,967
286,2	11,71
286,7	16,395
287,1	12,224
287,6	6,252
288,1	2,081
288,5	4,224
289	5,681
289,5	6,91
289,9	4,224
290,4	7,395
290,8	8,367
291,3	9,967
291,8	9,652
292,2	8,338
292,7	9,824
293,1	9,224
293,6	9,995
294,1	11,767
294,5	12,795
295	11,395
295,5	9,224
295,9	9,138
296,4	6,881
296,8	4,767
297,3	7,081
297,8	2,052
298,2	1,452
298,7	6,681
299,1	5,31
299,6	6,138
300,1	7,652
300,5	6,081
301	11,367
301,5	16,11
301,9	12,881
302,4	8,424
302,8	12,538
303,3	9,51
303,8	5,852
304,2	5,167
304,7	4,395
305,1	1,624
305,6	6,938
306,1	12,252
306,5	12,795
307	17,052
307,4	20,852
307,9	20,195
308,4	22,795
308,8	16,224
309,3	11,481
309,8	12,595
310,2	12,138
310,7	6,31
311,1	6,138
311,6	5,424
312,1	12,281
312,5	11,052
313	14,224
313,4	12,338
313,9	13,024
314,4	10,252
314,8	8,881
315,3	8,024
315,7	3,624
316,2	-1,89
316,7	0,538
317,1	6,31
317,6	7,881
318	11,595
318,5	5,567
319	3,967
319,4	9,424
319,9	11,11
320,3	10,681
320,8	7,367
321,3	10,595
321,7	16,11
322,2	17,967
322,6	14,795
323,1	10,024
323,6	8,138
324	8,595
324,5	2,052
324,9	1,452
325,4	5,338
325,9	6,91
326,3	10,224
326,8	8,024
327,2	7,081
327,7	8,024
328,2	8,167
328,6	7,681
329,1	2,795
329,5	1,681
330	2,338
330,5	9,824
330,9	15,252
331,4	14,624
331,8	15,31
332,3	18,795
332,8	18,424
333,2	16,967
333,7	14,167
334,1	11,767
334,6	13,252
335,1	9,624
335,5	11,824
336	6,995
336,4	9,081
336,9	15,91
337,4	15,281
337,8	14,167
338,3	20,281
338,7	18,938
339,2	22,024
339,7	25,852
340,1	18,652
340,6	18,681
341	20,138
341,5	14,138
342	10,367
342,4	10,71
342,9	5,967
343,3	6,938
343,8	4,167
344,2	1,31
344,7	10,652
345,2	10,795
345,6	11,881
346,1	13,367
346,5	6,624
347	6,852
347,5	6,31
347,9	4,624
348,4	7,367
348,8	6,967
349,3	7,995
349,8	14,824
350,2	20,281
350,7	18,852
351,1	16,224
351,6	16,995
352	17,967
352,5	18,967
353	26,224
353,4	28,481
353,9	37,424
354,3	46,052
354,8	53,395
355,3	69,91
355,7	85,452
356,2	95,567
356,6	111,51
357,1	130,138
357,5	148,567
358	175,367
358,5	197,452
358,9	225,081
359,4	258,224
359,8	292,281
360,3	340,281
360,8	387,738
361,2	440,595
361,7	503,167
362,1	571,824
362,6	645,338
363	724,167
363,5	804,767
364	896,11
364,4	988,681
364,9	1082,567
365,3	1166,224
365,8	1246,738
366,3	1325,681
366,7	1392,824
367,2	1452,281
367,6	1498,738
368,1	1531,91
368,5	1556,281
369	1572,91
369,5	1575,767
369,9	1562,452
370,4	1541,738
370,8	1509,624
371,3	1462,738
371,7	1413,995
372,2	1351,71
372,7	1285,738
373,1	1221,252
373,6	1147,824
374	1074,767
374,5	1002,367
374,9	933,338
375,4	866,738
375,9	804,052
376,3	740,938
376,8	680,195
377,2	626,938
377,7	579,281
378,2	527,224
378,6	485,567
379,1	442,681
379,5	412,367
380	385,138
380,4	354,795
380,9	326,252
381,4	302,795
381,8	283,195
382,3	270,052
382,7	247,995
383,2	227,224
383,6	210,995
384,1	199,538
384,6	191,11
385	172,024
385,5	158,995
385,9	147,31
386,4	136,538
386,8	130,51
387,3	118,138
387,7	107,824
388,2	105,395
388,7	93,881
389,1	87,71
389,6	82,024
390	73,338
390,5	72,881
390,9	70,624
391,4	64,595
391,9	63,281
392,3	62,424
392,8	55,452
393,2	51,995
393,7	49,595
394,1	43,138
394,6	42,224
395,1	40,052
395,5	36,595
396	39,224
396,4	36,681
396,9	32,252
397,3	40,081
397,8	38,052
398,2	38,567
398,7	40,167
399,2	41,824
399,6	44,11
400,1	42,51
400,5	31,71
401	32,224
401,4	28,452
401,9	28,824
402,4	30,424
402,8	28,252
403,3	32,081
403,7	30,395
404,2	32,824
404,6	37,081
405,1	35,881
405,5	28,938
406	30,938
406,5	27,938
406,9	34,024
407,4	29,424
407,8	25,91
408,3	24,281
408,7	29,167
409,2	32,424
409,6	35,738
410,1	35,395
410,6	41,167
411	43,767
411,5	45,081
411,9	44,767
412,4	42,424
412,8	45,967
413,3	47,138
413,7	46,138
414,2	45,824
414,7	50,995
415,1	56,51
415,6	62,91
416	64,595
416,5	67,91
416,9	69,738
417,4	75,624
417,8	79,738
418,3	81,31
418,8	80,652
419,2	78,738
419,7	79,652
420,1	86,652
420,6	84,567
421	80,51
421,5	80,824
421,9	80,624
422,4	82,195
422,8	82,195
423,3	75,481
423,8	74,824
424,2	73,338
424,7	69,024
425,1	68,081
425,6	69,081
426	66,967
426,5	69,252
426,9	70,338
427,4	65,481
427,9	61,652
428,3	58,995
428,8	55,224
429,2	55,31
429,7	49,452
430,1	42,424
430,6	47,052
431	48,338
431,5	50,224
431,9	47,51
432,4	47,167
432,8	50,624
433,3	54,624
433,8	50,624
434,2	49,31
434,7	46,652
435,1	47,424
435,6	42,31
436	40,595
436,5	42,567
436,9	39,052
437,4	39,881
437,8	42,081
438,3	45,567
438,8	47,481
439,2	47,595
439,7	45,881
440,1	47,824
440,6	51,224
441	50,595
441,5	51,024
441,9	55,51
442,4	51,938
442,8	51,852
443,3	56,424
443,7	54,538
444,2	55,881
444,7	55,967
445,1	55,452
445,6	58,852
446	62,824
446,5	60,11
446,9	57,281
447,4	57,595
447,8	59,281
448,3	61,024
448,7	62,195
449,2	63,71
449,6	70,195
450,1	71,738
450,6	77,51
451	75,195
451,5	77,367
451,9	85,995
452,4	88,681
452,8	91,824
453,3	102,224
453,7	103,024
454,2	108,338
454,6	114,995
455,1	115,738
455,5	117,224
456	123,167
456,4	122,624
456,9	125,567
457,3	130,395
457,8	129,281
458,3	135,052
458,7	138,452
459,2	136,852
459,6	142,424
460,1	148,252
460,5	144,681
461	154,31
461,4	154,452
461,9	158,767
462,3	166,51
462,8	171,767
463,2	171,824
463,7	183,081
464,1	187,481
464,6	193,652
465	200,567
465,5	206,567
466	214,195
466,4	224,481
466,9	237,167
467,3	242,91
467,8	251,595
468,2	257,71
468,7	261,195
469,1	269,11
469,6	272,681
470	274,367
470,5	277,967
470,9	283,31
471,4	289,052
471,8	297,852
472,3	304,738
472,7	312,452
473,2	313,795
473,6	316,91
474,1	327,138
474,5	336,538
475	341,367
475,4	349,681
475,9	356,71
476,4	366,51
476,8	379,538
477,3	378,767
477,7	386,824
478,2	396,367
478,6	396,91
479,1	403,195
479,5	408,824
480	409,338
480,4	420,224
480,9	420,252
481,3	418,395
481,8	422,967
482,2	418,881
482,7	428,138
483,1	436,281
483,6	437,681
484	441,824
484,5	452,767
484,9	458,567
485,4	474,481
485,8	478,081
486,3	480,91
486,7	486,595
487,2	496,395
487,6	495,367
488,1	494,224
488,5	493,624
489	496,738
489,4	505,081
489,9	506,624
490,4	507,624
490,8	513,538
491,3	525,424
491,7	530,938
492,2	534,738
492,6	533,138
493,1	538,881
493,5	542,424
494	544,195
494,4	542,395
494,9	542,081
495,3	550,452
495,8	554,681
496,2	558,652
496,7	554,91
497,1	562,452
497,6	566,195
498	571,538
498,5	571,024
498,9	573,252
499,4	574,052
499,8	583,11
500,3	582,224
500,7	583,567
501,2	584,995
501,6	578,681
502,1	582,224
502,5	586,424
503	585,795
503,4	585,424
503,9	584,795
504,3	591,452
504,8	598,452
505,2	602,281
505,7	600,995
506,1	609,481
506,6	613,081
507	615,367
507,5	614,767
507,9	616,738
508,4	614,795
508,8	622,052
509,3	616,652
509,7	622,338
510,2	628,91
510,6	625,367
511,1	625,338
511,5	631,31
512	627,567
512,4	631,195
512,9	634,71
513,3	637,424
513,8	642,024
514,2	643,567
514,7	641,224
515,1	648,51
515,6	648,395
516	648,024
516,5	652,367
516,9	655,824
517,4	663,538
517,8	673,224
518,3	675,224
518,7	679,424
519,2	678,681
519,6	679,967
520,1	684,424
520,5	687,938
521	684,167
521,4	688,024
521,9	693,424
522,3	699,595
522,8	699,938
523,2	702,652
523,7	702,195
524,1	707,367
524,6	709,967
525	711,452
525,5	712,595
525,9	720,338
526,4	723,795
526,8	728,795
527,3	734,252
527,7	737,938
528,2	744,224
528,6	747,767
529,1	749,024
529,5	754,281
530	757,71
530,4	760,71
530,9	767,967
531,3	769,881
531,8	773,567
532,2	773,538
532,6	773,367
533,1	771,281
533,5	773,138
534	769,595
534,4	770,31
534,9	775,452
535,3	780,767
535,8	783,767
536,2	792,252
536,7	794,452
537,1	800,595
537,6	808,195
538	810,767
538,5	817,081
538,9	817,395
539,4	826,681
539,8	832,224
540,3	831,224
540,7	836,024
541,2	836,652
541,6	836,224
542,1	848,024
542,5	846,995
543	848,681
543,4	850,738
543,9	852,481
544,3	859,738
544,8	863,681
545,2	866,681
545,7	870,852
546,1	878,081
546,5	887,852
547	890,167
547,4	895,481
547,9	900,91
548,3	902,852
548,8	906,567
549,2	904,995
549,7	907,881
550,1	917,71
550,6	922,881
551	924,71
551,5	926,138
551,9	931,995
552,4	940,881
552,8	943,767
553,3	942,052
553,7	942,224
554,2	947,138
554,6	949,767
555,1	951,167
555,5	954,51
555,9	958,51
556,4	959,367
556,8	957,852
557,3	964,567
557,7	968,738
558,2	971,51
558,6	971,824
559,1	968,51
559,5	971,138
560	980,967
560,4	977,224
560,9	979,167
561,3	979,995
561,8	980,995
562,2	990,081
562,7	991,995
563,1	991,338
563,6	993,252
564	996,452
564,4	994,395
564,9	994,367
565,3	994,024
565,8	995,71
566,2	998,51
566,7	1007,224
567,1	1010,595
567,6	1018,11
568	1023,624
568,5	1027,052
568,9	1029,31
569,4	1030,881
569,8	1030,652
570,3	1030,31
570,7	1026,452
571,1	1032,081
571,6	1037,224
572	1042,624
572,5	1046,024
572,9	1042,881
573,4	1046,424
573,8	1053,395
574,3	1046,567
574,7	1039,738
575,2	1037,567
575,6	1034,367
576,1	1037,367
576,5	1041,51
576,9	1037,081
577,4	1039,11
577,8	1038,567
578,3	1037,51
578,7	1039,51
579,2	1040,538
579,6	1030,91
580,1	1029,367
580,5	1031,738
581	1032,167
581,4	1037,024
581,9	1033,195
582,3	1032,967
582,7	1037,138
583,2	1038,224
583,6	1035,452
584,1	1037,538
584,5	1030,138
585	1031,281
585,4	1018,795
585,9	1017,567
586,3	1020,51
586,8	1021,481
587,2	1017,595
587,6	1021,281
588,1	1025,738
588,5	1032,595
589	1034,852
589,4	1027,31
589,9	1019,595
590,3	1015,167
590,8	1013,31
591,2	1012,138
591,7	1019,395
592,1	1011,167
592,5	1017,052
593	1021,967
593,4	1022,367
593,9	1014,595
594,3	1001,281
594,8	991,452
595,2	992,567
595,7	988,481
596,1	982,738
596,6	982,624
597	986,024
597,4	994,31
597,9	994,881
598,3	995,281
598,8	993,881
599,2	993,71
599,7	996,681
600,1	993,767
600,6	984,424
601	984,052
601,4	985,624
601,9	985,938
602,3	984,11
602,8	976,595
603,2	973,71
603,7	975,281
604,1	976,595
604,6	973,481
605	962,767
605,4	961,281
605,9	960,31
606,3	954,824
606,8	947,995
607,2	939,824
607,7	928,967
608,1	937,11
608,6	933,338
609	938,852
609,4	941,938
609,9	944,138
610,3	943,395
610,8	948,395
611,2	938,538
611,7	936,052
612,1	925,938
612,6	922,138
613	919,424
613,4	913,995
613,9	906,824
614,3	905,252
614,8	901,452
615,2	895,024
615,7	897,71
616,1	898,995
616,6	891,595
617	887,595
617,4	887,138
617,9	891,395
618,3	892,71
618,8	888,881
619,2	879,595
619,7	883,452
620,1	877,367
620,5	876,51
621	864,51
621,4	859,452
621,9	854,11
622,3	849,567
622,8	843,51
623,2	844,138
623,6	833,881
624,1	835,795
624,5	833,938
625	831,395
625,4	829,738
625,9	829,367
626,3	822,795
626,8	822,367
627,2	817,71
627,6	805,081
628,1	796,138
628,5	793,767
629	784,824
629,4	781,452
629,9	775,424
630,3	766,452
630,7	771,138
631,2	768,395
631,6	762,338
632,1	761,424
632,5	763,681
633	757,452
633,4	756,138
633,8	753,51
634,3	754,224
634,7	750,681
635,2	746,795
635,6	741,538
636,1	742,652
636,5	738,395
636,9	731,652
637,4	722,452
637,8	718,081
638,3	708,681
638,7	701,681
639,2	694,167
639,6	692,024
640	686,624
640,5	683,024
640,9	680,424
641,4	681,338
641,8	679,024
642,2	679,052
642,7	676,338
643,1	679,224
643,6	675,824
644	673,681
644,5	673,052
644,9	672,281
645,3	665,052
645,8	666,252
646,2	659,31
646,7	658,252
647,1	657,795
647,6	655,138
648	651,824
648,4	649,624
648,9	641,881
649,3	638,538
649,8	638,624
650,2	634,138
650,6	628,452
651,1	621,938
651,5	623,224
652	619,824
652,4	615,024
652,9	611,967
653,3	606,252
653,7	600,938
654,2	598,252
654,6	590,024
655,1	591,652
655,5	596,624
655,9	586,31
656,4	584,624
656,8	581,195
657,3	582,481
657,7	583,424
658,2	576,967
658,6	566,852
659	564,824
659,5	558,138
659,9	557,252
660,4	553,138
660,8	545,738
661,2	537,481
661,7	537,595
662,1	539,281
662,6	540,938
663	540,11
663,4	535,395
663,9	535,024
664,3	533,195
664,8	529,11
665,2	520,995
665,6	512,567
666,1	503,11
666,5	500,052
667	494,567
667,4	490,852
667,9	485,452
668,3	483,167
668,7	481,595
669,2	484,481
669,6	484,195
670,1	483,252
670,5	486,195
670,9	482,367
671,4	480,795
671,8	484,11
672,3	482,967
672,7	478,195
673,1	472,395
673,6	462,738
674	464,481
674,5	459,481
674,9	449,052
675,3	441,481
675,8	437,081
676,2	437,195
676,7	433,481
677,1	429,052
677,5	427,195
678	426,395
678,4	430,338
678,9	428,51
679,3	424,738
679,7	427,595
680,2	421,681
680,6	414,967
681,1	415,652
681,5	409,51
681,9	410,881
682,4	408,31
682,8	407,252
683,3	408,624
683,7	411,824
684,1	407,71
684,6	402,424
685	395,167
685,5	391,881
685,9	384,938
686,3	379,281
686,8	377,995
687,2	373,795
687,7	371,738
688,1	368,51
688,5	368,91
689	369,195
689,4	367,91
689,9	363,967
690,3	360,424
690,7	360,767
691,2	357,424
691,6	355,824
692	353,481
692,5	353,567
692,9	352,538
693,4	354,595
693,8	351,081
694,2	352,395
694,7	348,224
695,1	345,795
695,6	344,481
696	344,481
696,4	339,652
696,9	333,538
697,3	329,31
697,8	328,138
698,2	326,738
698,6	325,795
699,1	319,624
699,5	315,195
699,9	316,767
700,4	311,795
700,8	309,595
701,3	306,424
701,7	300,767
702,1	304,424
702,6	302,567
703	300,938
703,5	301,081
703,9	296,967
704,3	297,167
704,8	293,738
705,2	287,367
705,6	291,395
706,1	290,395
706,5	288,738
707	290,71
707,4	292,538
707,8	291,052
708,3	292,367
708,7	286,138
709,2	283,881
709,6	280,91
710	279,967
710,5	271,538
710,9	272,624
711,3	265,852
711,8	266,367
712,2	265,452
712,7	267,338
713,1	266,938
713,5	269,624
714	266,738
714,4	267,681
714,8	267,081
715,3	262,681
715,7	261,252
716,2	257,71
716,6	256,767
717	251,967
717,5	250,024
717,9	253,195
718,3	250,052
718,8	246,338
719,2	244,252
719,7	237,938
720,1	240,195
720,5	242,567
721	233,395
721,4	235,224
721,8	239,852
722,3	237,395
722,7	241,795
723,2	236,652
723,6	226,852
724	226,51
724,5	223,452
724,9	215,681
725,3	213,624
725,8	209,11
726,2	209,852
726,7	213,11
727,1	213,195
727,5	211,624
728	209,795
728,4	210,51
728,8	207,424
729,3	203,738
729,7	199,252
730,1	198,795
730,6	200,824
731	197,652
731,5	193,824
731,9	193,91
732,3	198,11
732,8	202,595
733,2	202,281
733,6	198,852
734,1	202,081
734,5	201,967
734,9	200,195
735,4	197,852
735,8	191,424
736,3	193,024
736,7	192,624
737,1	191,052
737,6	191,538
738	189,967
738,4	186,052
738,9	188,395
739,3	182,195
739,7	180,31
740,2	177,71
740,6	179,567
741,1	180,71
741,5	177,338
741,9	175,224
742,4	180,395
742,8	180,681
743,2	181,538
743,7	175,481
744,1	172,11
744,5	169,852
745	166,538
745,4	159,338
745,8	155,652
746,3	158,652
746,7	156,452
747,2	157,224
747,6	165,624
748	171,738
748,5	173,11
748,9	172,167
749,3	166,338
749,8	168,795
750,2	163,281
750,6	156,595
751,1	150,652
751,5	147,081
751,9	149,938
752,4	150,881
752,8	148,91
753,3	150,31
753,7	149,681
754,1	147,367
754,6	145,624
755	140,395
755,4	135,31
755,9	133,738
756,3	132,424
756,7	130,424
757,2	131,71
757,6	132,852
758	130,538
758,5	128,767
758,9	127,881
759,3	130,51
759,8	134,224
760,2	134,252
760,6	128,91
761,1	132,595
761,5	136,252
761,9	136,252
762,4	131,052
762,8	130,195
763,3	123,71
763,7	128,624
764,1	126,767
764,6	127,452
765	126,338
765,4	131,167
765,9	129,395
766,3	136,338
766,7	134,795
767,2	128,881
767,6	129,624
768	126,481
768,5	121,91
768,9	120,167
769,3	115,224
769,8	109,395
770,2	111,824
770,6	106,624
771,1	109,252
771,5	110,11
771,9	110,652
772,4	112,224
772,8	113,51
773,2	112,595
773,7	113,395
774,1	112,052
774,5	108,338
775	108,824
775,4	109,881
775,8	109,967
776,3	116,995
776,7	114,452
777,1	109,281
777,6	113,224
778	111,595
778,4	107,995
778,9	108,567
779,3	100,052
779,7	100,138
780,2	108,138
780,6	102,852
781	98,938
781,5	95,652
781,9	92,195
782,3	91,995
782,8	91,195
783,2	90,167
783,6	97,31
784,1	95,681
784,5	97,11
784,9	97,967
785,4	104,767
785,8	104,367
786,2	101,167
786,7	97,624
787,1	98,024
787,5	96,624
788	101,052
788,4	96,595
788,8	97,338
789,3	92,595
789,7	88,681
790,1	90,281
790,6	93,995
791	86,195
791,4	87,681
791,9	85,138
792,3	84,51
792,7	88,224
793,2	86,224
793,6	84,195
794	90,224
794,5	84,652
794,9	85,938
795,3	89,51
795,8	89,367
796,2	93,481
796,6	92,824
797,1	89,167
797,5	85,11
797,9	83,538
798,4	77,881
798,8	72,852
799,2	68,624
799,7	69,995
800,1	69,452
800,5	79,31
801	83,252
801,4	83,452
801,8	81,367
802,2	83,138
802,7	79,31
803,1	79,824
803,5	74,91
804	69,195
804,4	73,367
804,8	76,967
805,3	73,395
805,7	76,624
806,1	76,91
806,6	75,567
807	75,081
807,4	72,138
807,9	65,51
808,3	68,881
808,7	65,424
809,2	64,081
809,6	67,567
810	69,224
810,4	67,624
810,9	72,138
811,3	71,567
811,7	71,367
812,2	77,567
812,6	71,995
813	73,595
813,5	78,338
813,9	74,881
814,3	70,567
814,8	69,938
815,2	59,881
815,6	61,51
816,1	60,852
816,5	57,138
816,9	58,91
817,3	59,51
817,8	62,652
818,2	65,538
818,6	62,71
819,1	60,252
819,5	60,024
819,9	61,224
820,4	61,595
820,8	57,31
821,2	51,424
821,7	54,424
822,1	55,138
822,5	58,938
822,9	58,938
823,4	59,081
823,8	63,424
824,2	67,11
824,7	62,538
825,1	59,481
825,5	52,281
826	48,195
826,4	47,424
826,8	41,938
827,3	43,938
827,7	44,31
828,1	43,91
828,5	46,424
829	44,252
829,4	41,881
829,8	38,424
830,3	39,852
830,7	39,138
831,1	41,995
831,6	39,052
832	40,138
832,4	40,795
832,8	45,252
833,3	42,167
833,7	40,538
834,1	35,31
834,6	38,824
835	40,91
835,4	42,652
835,8	39,881
836,3	39,595
836,7	45,138
837,1	47,995
837,6	46,31
838	45,795
838,4	43,71
838,9	43,11
839,3	43,052
839,7	45,252
840,1	40,424
840,6	37,338
841	35,967
841,4	37,481
841,9	40,567
842,3	37,167
842,7	33,367
843,1	36,938
843,6	42,31
844	45,281
844,4	47,11
844,9	47,081
845,3	51,424
845,7	50,024
846,2	46,51
846,6	40,681
847	37,881
847,4	36,195
847,9	33,138
848,3	30,767
848,7	31,681
849,2	30,538
849,6	32,167
850	34,624
850,4	34,567
850,9	39,967
851,3	40,71
851,7	38,681
852,2	42,452
852,6	49,995
853	49,567
853,4	47,567
853,9	39,481
854,3	34,995
854,7	35,538
855,2	31,595
855,6	24,195
856	22,738
856,4	16,71
856,9	18,881
857,3	21,138
857,7	22,824
858,2	27,995
858,6	26,71
859	29,138
859,4	33,881
859,9	33,595
860,3	31,824
860,7	30,652
861,1	32,024
861,6	31,31
862	29,31
862,4	28,938
862,9	33,252
863,3	37,024
863,7	37,395
864,1	35,881
864,6	35,967
865	33,338
865,4	37,424
865,9	38,538
866,3	32,51
866,7	29,252
867,1	23,624
867,6	25,31
868	26,795
868,4	22,224
868,8	19,538
869,3	25,681
869,7	30,881
870,1	33,481
870,6	32,195
871	37,367
871,4	41,338
871,8	39,138
872,3	38,31
872,7	37,31
873,1	37,71
873,5	35,595
874	30,138
874,4	24,052
874,8	22,11
875,3	17,538
875,7	16,167
876,1	18,395
876,5	20,024
877	16,595
877,4	16,138
877,8	19,424
878,2	27,595
878,7	24,195
879,1	20,424
879,5	23,31
879,9	27,081
880,4	27,71
880,8	29,995
881,2	24,167
881,7	24,081
882,1	27,195
882,5	24,567
882,9	22,081
883,4	26,824
883,8	23,824
884,2	27,167
884,6	27,51
885,1	22,367
885,5	25,538
885,9	26,995
886,3	26,167
886,8	23,71
887,2	20,595
887,6	21,281
888	23,738
888,5	21,11
888,9	21,167
889,3	14,367
889,8	15,738
890,2	14,881
890,6	11,024
891	13,11
891,5	13,567
891,9	15,024
892,3	20,91
892,7	20,824
893,2	20,481
893,6	24,138
894	25,652
894,4	24,224
894,9	19,024
895,3	18,681
895,7	21,795
896,1	23,652
896,6	24,567
897	24,338
897,4	29,681
897,8	40,252
898,3	42,681
898,7	38,081
899,1	37,538
899,5	36,71
900	29,51
900,4	23,395
900,8	12,767
901,2	8,995
901,7	9,31
902,1	9,938
902,5	10,852
902,9	15,338
903,4	18,195
903,8	22,681
904,2	21,567
904,6	22,167
905,1	20,481
905,5	17,995
905,9	18,738
906,3	17,795
906,8	22,052
907,2	25,052
907,6	24,852
908	25,11
908,5	24,195
908,9	21,795
909,3	22,51
909,7	15,995
910,2	15,795
910,6	20,052
911	14,424
911,4	14,338
911,9	13,967
912,3	10,367
912,7	14,195
913,1	12,824
913,6	5,338
914	8,452
914,4	9,91
914,8	10,51
915,3	10,195
915,7	11,567
916,1	11,424
916,5	14,681
916,9	18,938
917,4	21,538
917,8	23,338
918,2	20,452
918,6	14,052
919,1	15,71
919,5	17,195
919,9	16,938
920,3	13,71
920,8	10,91
921,2	12,795
921,6	15,767
922	14,995
922,5	14,052
922,9	11,167
923,3	12,567
923,7	12,452
924,2	14,567
924,6	11,967
925	11,367
925,4	9,624
925,8	13,052
926,3	10,51
926,7	7,481
927,1	8,081
927,5	11,11
928	10,024
928,4	9,652
928,8	7,195
929,2	7,167
929,7	11,395
930,1	11,424
930,5	8,138
930,9	8,51
931,3	11,024
931,8	12,252
932,2	12,367
932,6	13,281
933	8,881
933,5	11,938
933,9	14,424
934,3	12,367
934,7	8,367
935,2	14,052
935,6	11,881
936	16,852
936,4	14,052
936,8	14,767
937,3	16,681
937,7	22,767
938,1	24,91
938,5	22,824
939	23,91
939,4	26,881
939,8	23,11
940,2	21,052
940,6	18,424
941,1	11,995
941,5	15,71
941,9	12,138
942,3	11,881
942,8	15,71
943,2	19,481
943,6	16,881
944	17,852
944,4	21,31
944,9	19,824
945,3	17,51
945,7	8,767
946,1	4,481
946,6	5,71
947	5,51
947,4	5,624
947,8	8,538
948,2	7,167
948,7	10,395
949,1	7,081
949,5	9,71
949,9	13,252
950,3	10,052
950,8	11,767
951,2	11,738
951,6	10,452
952	15,881
952,5	10,995
952,9	6,452
953,3	5,652
953,7	2,167
954,1	5,767
954,6	9,538
955	9,395
955,4	12,338
955,8	13,281
956,2	12,624
956,7	14,11
957,1	9,738
957,5	11,91
957,9	15,681
958,3	12,538
958,8	15,31
959,2	19,938
959,6	23,424
960	24,681
960,5	29,024
960,9	25,967
961,3	24,995
961,7	19,938
962,1	14,624
962,6	13,51
963	12,91
963,4	-1,49
963,8	-2,548
964,2	3,052
964,7	5,338
965,1	10,624
965,5	10,338
965,9	11,367
966,3	22,795
966,8	24,595
967,2	20,624
967,6	19,967
968	11,167
968,4	9,652
968,9	9,024
969,3	7,11
969,7	3,424
970,1	4,424
970,5	2,767
971	9,995
971,4	8,252
971,8	5,252
972,2	6,167
972,6	6,795
973,1	12,281
973,5	16,71
973,9	17,367
974,3	17,738
974,7	23,881
975,2	21,852
975,6	22,424
976	19,881
976,4	17,395
976,8	14,252
977,3	12,71
977,7	9,652
978,1	7,081
978,5	1,052
978,9	-5,262
979,4	-9,948
979,8	-11,148
980,2	-11,576
980,6	-11,548
981	-4,719
981,5	-0,09
981,9	3,652
982,3	9,367
982,7	12,224
983,1	9,852
983,6	9,767
984	7,995
984,4	8,824
984,8	10,824
985,2	10,51
985,6	7,367
986,1	10,738
986,5	15,681
986,9	10,824
987,3	10,91
987,7	9,395
988,2	5,824
988,6	7,11
989	7,71
989,4	1,624
989,8	2,852
990,3	1,367
990,7	-0,205
991,1	3,452
991,5	5,824
991,9	8,967
992,3	15,852
992,8	18,995
993,2	19,395
993,6	19,167
994	22,795
994,4	21,395
994,9	19,852
995,3	15,167
995,7	10,624
996,1	10,567
996,5	11,024
996,9	1,367
997,4	6,681
997,8	1,538
998,2	0,424
998,6	-1,119
999	1,252
999,5	1,595
999,9	2,852
1000,3	-2,633
1000,7	2,595
1001,1	3,138
1001,5	7,252
1002	9,052
1002,4	14,195
1002,8	19,424
1003,2	22,51
1003,6	21,252
1004	26,281
1004,5	20,624
1004,9	17,852
1005,3	9,538
1005,7	8,738
1006,1	5,138
1006,6	2,681
1007	-1,09
1007,4	0,338
1007,8	-0,148
1008,2	-2,033
1008,6	-1,948
1009,1	0,624
1009,5	5,395
1009,9	4,71
1010,3	6,538
1010,7	6,767
1011,1	12,31
1011,6	11,195
1012	9,052
1012,4	4,91
1012,8	1,624
1013,2	8,567
1013,6	9,395
1014,1	8,91
1014,5	9,795
1014,9	8,11
1015,3	9,138
1015,7	12,567
1016,1	8,024
1016,6	11,424
1017	16,081
1017,4	16,11
1017,8	18,881
1018,2	22,91
1018,6	18,852
1019,1	16,31
1019,5	14,224
1019,9	10,824
1020,3	11,652
1020,7	10,91
1021,1	6,91
1021,6	8,824
1022	13,338
1022,4	12,538
1022,8	13,824
1023,2	12,452
1023,6	16,824
1024,1	23,624
1024,5	27,481
1024,9	24,281
1025,3	20,71
1025,7	17,224
1026,1	17,624
1026,6	14,738
1027	9,767
1027,4	12,052
1027,8	7,71
1028,2	5,652
1028,6	11,052
1029	8,938
1029,5	10,281
1029,9	6,881
1030,3	-2,148
1030,7	2,624
1031,1	8,71
1031,5	3,11
1032	5,338
1032,4	1,367
1032,8	5,024
1033,2	6,51
1033,6	3,51
1034	1,652
1034,4	2,195
1034,9	5,395
1035,3	6,338
1035,7	6,51
1036,1	6,052
1036,5	6,881
1036,9	8,452
1037,4	9,252
1037,8	5,767
1038,2	6,881
1038,6	7,281
1039	13,852
1039,4	19,681
1039,8	14,995
1040,3	17,452
1040,7	14,824
1041,1	17,395
1041,5	15,338
1041,9	11,281
1042,3	8,081
1042,7	14,71
1043,2	8,11
1043,6	10,338
1044	5,31
1044,4	10,31
1044,8	11,91
1045,2	8,338
1045,6	4,71
1046,1	8,595
1046,5	7,967
1046,9	9,481
1047,3	6,281
1047,7	2,31
1048,1	2,31
1048,5	1,824
1049	8,71
1049,4	14,91
1049,8	13,024
1050,2	12,167
1050,6	18,052
1051	23,738
1051,4	23,052
1051,9	14,367
1052,3	12,91
1052,7	14,224
1053,1	14,167
1053,5	14,938
1053,9	13,652
1054,3	14,995
1054,8	20,738
1055,2	17,452
1055,6	17,824
1056	15,71
1056,4	10,138
1056,8	7,91
1057,2	8,738
1057,6	5,452
1058,1	5,395
1058,5	4,91
1058,9	11,081
1059,3	16,224
1059,7	13,567
1060,1	14,481
1060,5	13,395
1061	15,081
1061,4	12,538
1061,8	10,481
1062,2	5,967
1062,6	12,852
1063	13,11
1063,4	14,824
1063,8	11,138
1064,3	10,424
1064,7	7,824
1065,1	7,195
1065,5	1,395
1065,9	0,481
1066,3	0,024
1066,7	-0,976
1067,1	1,424
1067,6	7,824
1068	6,081
1068,4	6,281
1068,8	8,424
1069,2	12,367
1069,6	14,31
1070	16,595
1070,4	12,281
1070,9	15,567
1071,3	16,681
1071,7	11,424
1072,1	7,824
1072,5	6,424
1072,9	3,424
1073,3	0,881
1073,7	1,652
1074,2	1,367
1074,6	5,652
1075	3,91
1075,4	4,224
1075,8	9,824
1076,2	8,738
1076,6	9,281
1077	11,824
1077,5	9,795
1077,9	8,738
1078,3	8,395
1078,7	4,881
1079,1	10,938
1079,5	8,51
1079,9	5,452
1080,3	4,538
1080,7	7,567
1081,2	11,224
1081,6	10,652
1082	5,31
1082,4	9,795
1082,8	14,424
1083,2	16,338
1083,6	18,224
1084	16,881
1084,5	15,281
1084,9	14,824
1085,3	11,195
1085,7	13,395
1086,1	9,081
1086,5	8,71
1086,9	7,681
1087,3	4,595
1087,7	5,224
1088,2	5,681
1088,6	-2,719
1089	7,11
1089,4	4,881
1089,8	6,31
1090,2	10,652
1090,6	11,224
1091	15,224
1091,4	19,052
1091,9	11,567
1092,3	11,281
1092,7	8,852
1093,1	11,052
1093,5	11,281
1093,9	6,452
1094,3	11,395
1094,7	9,91
1095,1	11,995
1095,5	12,595
1096	8,652
1096,4	7,252
1096,8	7,938
1097,2	3,938
1097,6	8,824
1098	8,452
1098,4	11,167
1098,8	16,081
1099,2	22,052
1099,6	23,224
1100,1	21,595
1100,5	18,195
1100,9	17,595
1101,3	14,71
1101,7	11,367
1102,1	4,91
1102,5	5,024
1102,9	6,881
1103,3	14,195
1103,7	15,652
1104,2	16,567
1104,6	17,252
1105	20,31
1105,4	19,081
1105,8	15,167
1106,2	7,824
1106,6	4,395
1107	3,395
1107,4	2,567
1107,8	0,367
1108,3	-0,433
