Data from Subt2_175.txt Node
Date: Sat Aug 26 18:38:13 MSK 2023
User: vat
Spectrometer: MAYP114033
Trigger mode: 0
Integration Time (sec): 1,000000E0
Scans to average: 5
Electric dark correction enabled: true
Nonlinearity correction enabled: false
Boxcar width: 3
XAxis mode: Wavelengths
Number of Pixels in Spectrum: 2068
>>>>>Begin Spectral Data<<<<<
199,4	-0,717
199,9	0,093
200,4	-2,667
200,8	0,562
201,3	0,048
201,8	1,333
202,2	-1,181
202,7	2,505
203,2	0,762
203,6	2,448
204,1	-1,495
204,6	-1,552
205	-3,695
205,5	-2,495
206	-5,438
206,4	-3,524
206,9	-3,667
207,4	2,276
207,8	2,333
208,3	3,133
208,8	4,648
209,2	6,248
209,7	6,648
210,2	9,562
210,6	3,99
211,1	6,848
211,5	2,676
212	5,048
212,5	0,276
212,9	-1,695
213,4	-2,038
213,9	-4,467
214,3	-5,152
214,8	1,476
215,3	-1,667
215,7	3,219
216,2	5,39
216,7	4,419
217,1	8,19
217,6	10,59
218,1	6,59
218,5	3,819
219	-4,752
219,5	-4,695
219,9	-7,724
220,4	-1,381
220,9	-4,895
221,3	-2,895
221,8	1,505
222,3	10,99
222,7	13,99
223,2	15,819
223,6	8,448
224,1	8,39
224,6	9,905
225	3,562
225,5	1,476
226	-0,352
226,4	0,705
226,9	1,59
227,4	2,705
227,8	-4,552
228,3	2,476
228,8	1,762
229,2	5,59
229,7	4,876
230,2	8,39
230,6	6,676
231,1	15,476
231,5	12,648
232	13,905
232,5	8,476
232,9	10,39
233,4	6,876
233,9	2,219
234,3	1,848
234,8	2,819
235,3	0,362
235,7	0,076
236,2	-0,924
236,7	-3,152
237,1	5,905
237,6	-0,638
238,1	-2,752
238,5	-6,695
239	-8,381
239,4	-5,581
239,9	-5,038
240,4	-8,438
240,8	1,962
241,3	0,219
241,8	3,59
242,2	3,848
242,7	1,448
243,2	5,39
243,6	0,39
244,1	-1,438
244,6	3,933
245	1,19
245,5	3,219
245,9	-1,124
246,4	-5,238
246,9	-1,295
247,3	-4,981
247,8	-1,552
248,3	4,476
248,7	4,762
249,2	8,819
249,7	11,99
250,1	13,219
250,6	9,562
251	8,276
251,5	8,333
252	4,79
252,4	5,39
252,9	2,076
253,4	-2,324
253,8	1,648
254,3	-0,724
254,8	-1,495
255,2	-2,124
255,7	-2,581
256,1	0,648
256,6	4,448
257,1	6,219
257,5	4,562
258	2,648
258,5	6,505
258,9	7,619
259,4	6,59
259,9	9,676
260,3	4,019
260,8	-2,524
261,2	-2,324
261,7	-1,981
262,2	-9,81
262,6	-11,981
263,1	-14,524
263,6	-8,324
264	0,162
264,5	4,619
264,9	4,162
265,4	12,276
265,9	9,876
266,3	9,99
266,8	10,705
267,3	10,676
267,7	8,419
268,2	7,562
268,7	6,905
269,1	10,419
269,6	8,248
270	6,962
270,5	4,848
271	3,533
271,4	7,905
271,9	3,076
272,4	8,076
272,8	11,676
273,3	5,762
273,7	7,733
274,2	9,505
274,7	6,705
275,1	9,419
275,6	8,048
276,1	2,276
276,5	6,448
277	3,619
277,4	2,476
277,9	3,162
278,4	4,905
278,8	3,59
279,3	6,933
279,8	5,876
280,2	10,333
280,7	14,19
281,1	9,762
281,6	7,733
282,1	8,848
282,5	7,905
283	7,448
283,4	5,276
283,9	0,362
284,4	8,676
284,8	10,076
285,3	6,333
285,8	6,619
286,2	1,876
286,7	2,019
287,1	0,19
287,6	-7,752
288,1	-8,952
288,5	-4,21
289	-3,524
289,5	4,562
289,9	1,733
290,4	4,933
290,8	5,505
291,3	4,333
291,8	2,076
292,2	1,819
292,7	1,448
293,1	0,876
293,6	3,762
294,1	6,305
294,5	11,819
295	13,962
295,5	13,876
295,9	12,505
296,4	15,905
296,8	12,676
297,3	13,962
297,8	6,076
298,2	3,619
298,7	10,333
299,1	12,762
299,6	8,476
300,1	11,048
300,5	11,048
301	14,848
301,5	16,533
301,9	11,219
302,4	4,762
302,8	8,676
303,3	5,962
303,8	1,362
304,2	-0,752
304,7	-3,124
305,1	-6,181
305,6	-3,324
306,1	-1,21
306,5	0,59
307	7,648
307,4	14,819
307,9	12,705
308,4	9,505
308,8	6,905
309,3	2,162
309,8	-0,324
310,2	-3,438
310,7	-8,695
311,1	-4,038
311,6	2,305
312,1	7,248
312,5	10,848
313	15,19
313,4	12,962
313,9	13,619
314,4	13,219
314,8	10,962
315,3	6,933
315,7	2,876
316,2	-1,381
316,7	-3,724
317,1	0,962
317,6	-2,01
318	7,19
318,5	6,733
319	7,619
319,4	10,333
319,9	15,876
320,3	14,019
320,8	14,476
321,3	8,219
321,7	13,419
322,2	13,305
322,6	11,876
323,1	9,362
323,6	4,505
324	2,048
324,5	0,333
324,9	-2,924
325,4	-3,152
325,9	-3,352
326,3	-2,152
326,8	1,819
327,2	0,79
327,7	0,19
328,2	-1,781
328,6	-0,61
329,1	-2,838
329,5	-5,038
330	-10,181
330,5	-2,381
330,9	-0,124
331,4	4,533
331,8	1,59
332,3	7,39
332,8	10,819
333,2	11,619
333,7	9,705
334,1	8,162
334,6	6,733
335,1	5,019
335,5	0,048
336	-3,095
336,4	0,276
336,9	2,962
337,4	5,105
337,8	2,733
338,3	5,19
338,7	6,933
339,2	6,676
339,7	9,705
340,1	2,39
340,6	-2,895
341	-0,781
341,5	6,048
342	7,648
342,4	7,505
342,9	1,819
343,3	2,248
343,8	8,476
344,2	8,533
344,7	10,79
345,2	7,676
345,6	5,79
346,1	5,476
346,5	5,648
347	4,505
347,5	3,162
347,9	0,905
348,4	3,448
348,8	8,876
349,3	9,79
349,8	16,848
350,2	20,819
350,7	19,362
351,1	21,219
351,6	23,99
352	29,048
352,5	37,19
353	45,448
353,4	49,333
353,9	66,676
354,3	76,905
354,8	87,505
355,3	104,276
355,7	126,105
356,2	140,562
356,6	169,619
357,1	199,076
357,5	232,562
358	272,848
358,5	314,19
358,9	362,305
359,4	421,105
359,8	481,848
360,3	552,362
360,8	629,133
361,2	718,99
361,7	818,419
362,1	930,533
362,6	1051,676
363	1181,676
363,5	1314,133
364	1463,39
364,4	1607,019
364,9	1756,59
365,3	1897,99
365,8	2030,048
366,3	2155,79
366,7	2275,933
367,2	2376,105
367,6	2452,39
368,1	2520,448
368,5	2561,133
369	2584,162
369,5	2589,448
369,9	2569,305
370,4	2532,705
370,8	2488,476
371,3	2411,505
371,7	2332,876
372,2	2237,876
372,7	2131,019
373,1	2022,248
373,6	1900,276
374	1788,733
374,5	1668,533
374,9	1550,505
375,4	1442,533
375,9	1337,362
376,3	1233,362
376,8	1137,048
377,2	1043,276
377,7	959,933
378,2	878,362
378,6	805,562
379,1	736,133
379,5	676,962
380	625,448
380,4	568,276
380,9	522,848
381,4	482,505
381,8	443,362
382,3	412,448
382,7	377,933
383,2	350,162
383,6	326,762
384,1	304,905
384,6	283,733
385	264,933
385,5	244,019
385,9	229,362
386,4	211,333
386,8	197,162
387,3	182,933
387,7	169,762
388,2	159,705
388,7	149,248
389,1	137,162
389,6	127,933
390	119,533
390,5	110,933
390,9	107,133
391,4	99,676
391,9	92,562
392,3	91,305
392,8	84,362
393,2	76,819
393,7	74,448
394,1	70,562
394,6	66,762
395,1	69,876
395,5	64,276
396	69,505
396,4	71,876
396,9	65,762
397,3	65,99
397,8	65,305
398,2	62,533
398,7	62,333
399,2	54,905
399,6	54,705
400,1	54,59
400,5	48,305
401	46,305
401,4	37,305
401,9	37,248
402,4	38,505
402,8	32,905
403,3	39,962
403,7	41,362
404,2	45,133
404,6	55,962
405,1	53,333
405,5	51,019
406	55,276
406,5	52,39
406,9	54,59
407,4	54,105
407,8	53,162
408,3	58,419
408,7	61,276
409,2	68,505
409,6	74,933
410,1	78,419
410,6	81,133
411	87,276
411,5	92,99
411,9	101,162
412,4	105,019
412,8	111,39
413,3	118,59
413,7	127,876
414,2	132,248
414,7	140,876
415,1	154,133
415,6	163,162
416	170,105
416,5	179,476
416,9	190,848
417,4	201,162
417,8	216,162
418,3	223,619
418,8	235,876
419,2	247,476
419,7	256,848
420,1	268,819
420,6	281,762
421	288,133
421,5	304,962
421,9	321,819
422,4	337,276
422,8	355,676
423,3	370,448
423,8	386,219
424,2	402,276
424,7	418,248
425,1	436,819
425,6	457,305
426	475,162
426,5	499,705
426,9	523,248
427,4	547,59
427,9	568,79
428,3	593,962
428,8	620,133
429,2	649,39
429,7	677,505
430,1	707,962
430,6	745,133
431	784,876
431,5	818,933
431,9	854,533
432,4	896,105
432,8	940,562
433,3	986,048
433,8	1030,933
434,2	1080,562
434,7	1140,448
435,1	1197,505
435,6	1255,305
436	1309,79
436,5	1372,562
436,9	1435,933
437,4	1495,99
437,8	1548,848
438,3	1617,705
438,8	1687,362
439,2	1767,533
439,7	1843,162
440,1	1924,533
440,6	2016,162
441	2109,133
441,5	2203,076
441,9	2301,048
442,4	2390,762
442,8	2495,105
443,3	2600,19
443,7	2704,562
444,2	2811,419
444,7	2920,276
445,1	3037,933
445,6	3163,505
446	3284,048
446,5	3404,219
446,9	3524,019
447,4	3663,19
447,8	3802,733
448,3	3943,105
448,7	4079,019
449,2	4224,705
449,6	4379,276
450,1	4532,905
450,6	4685,219
451	4844,048
451,5	5003,676
451,9	5165,39
452,4	5333,59
452,8	5501,076
453,3	5678,419
453,7	5848,362
454,2	6017,79
454,6	6195,79
455,1	6384,648
455,5	6561,59
456	6751,819
456,4	6931,105
456,9	7133,648
457,3	7334,333
457,8	7533,19
458,3	7732,105
458,7	7938,533
459,2	8149,362
459,6	8364,105
460,1	8569,933
460,5	8774,619
461	8990,79
461,4	9198,876
461,9	9409,848
462,3	9613,019
462,8	9829,562
463,2	10036,676
463,7	10259,59
464,1	10464,962
464,6	10689,305
465	10907,705
465,5	11123,876
466	11340,019
466,4	11550,219
466,9	11761,39
467,3	11978,533
467,8	12190,362
468,2	12397,648
468,7	12607,562
469,1	12825,962
469,6	13045,705
470	13252,99
470,5	13457,962
470,9	13648,59
471,4	13840,99
471,8	14032,19
472,3	14215,419
472,7	14408,448
473,2	14598,562
473,6	14783,79
474,1	14972,819
474,5	15166,39
475	15350,276
475,4	15522,962
475,9	15691,105
476,4	15856,019
476,8	16017,162
477,3	16174,048
477,7	16320,133
478,2	16459,276
478,6	16600,562
479,1	16723,848
479,5	16850,705
480	16972,848
480,4	17087,533
480,9	17194,105
481,3	17308,733
481,8	17414,676
482,2	17512,619
482,7	17603,162
483,1	17697,248
483,6	17786,133
484	17857,648
484,5	17928,733
484,9	17992,59
485,4	18060,39
485,8	18104,419
486,3	18141,762
486,7	18180,819
487,2	18229,962
487,6	18257,248
488,1	18271,419
488,5	18287,505
489	18303,648
489,4	18319,676
489,9	18321,933
490,4	18320,048
490,8	18307,733
491,3	18313,962
491,7	18296,39
492,2	18283,619
492,6	18250,048
493,1	18218,276
493,5	18173,733
494	18131,248
494,4	18068,676
494,9	18015,362
495,3	17962,362
495,8	17901,19
496,2	17839,305
496,7	17773,562
497,1	17711,448
497,6	17641,562
498	17585,39
498,5	17505,305
498,9	17434,305
499,4	17343,962
499,8	17276,59
500,3	17192,876
500,7	17112,505
501,2	17011,076
501,6	16921,79
502,1	16810,476
502,5	16722,733
503	16618,619
503,4	16512,933
503,9	16400,476
504,3	16292,39
504,8	16172,99
505,2	16074,133
505,7	15957,762
506,1	15839,362
506,6	15712,476
507	15597,562
507,5	15471,133
507,9	15353,562
508,4	15224,19
508,8	15101,562
509,3	14973,39
509,7	14851,819
510,2	14718,99
510,6	14580,305
511,1	14449,419
511,5	14328,533
512	14183,448
512,4	14049,248
512,9	13918,105
513,3	13782,305
513,8	13653,79
514,2	13520,762
514,7	13377,248
515,1	13256,876
515,6	13129,505
516	12995,162
516,5	12875,448
516,9	12758,733
517,4	12621,762
517,8	12505,19
518,3	12372,362
518,7	12243,076
519,2	12123,676
519,6	11982,876
520,1	11841,933
520,5	11726,533
521	11583,705
521,4	11466,648
521,9	11330,562
522,3	11194,276
522,8	11073,39
523,2	10952,39
523,7	10815,933
524,1	10696,562
524,6	10568,819
525	10459,905
525,5	10339,562
525,9	10229,276
526,4	10111,819
526,8	10010,305
527,3	9916,39
527,7	9810,362
528,2	9698,448
528,6	9593,905
529,1	9483,248
529,5	9382,448
530	9274,676
530,4	9158,448
530,9	9052,848
531,3	8944,648
531,8	8854,619
532,2	8756,648
532,6	8659,19
533,1	8562,419
533,5	8469,048
534	8383,276
534,4	8301,819
534,9	8209,876
535,3	8124,676
535,8	8034,076
536,2	7942,562
536,7	7853,048
537,1	7759,819
537,6	7677,848
538	7593,048
538,5	7512,59
538,9	7430,733
539,4	7360,876
539,8	7284,648
540,3	7211,362
540,7	7129,476
541,2	7045,305
541,6	6972,076
542,1	6905,248
542,5	6830,676
543	6759,476
543,4	6687,305
543,9	6623,562
544,3	6562,305
544,8	6485,562
545,2	6415,505
545,7	6351,962
546,1	6291,133
546,5	6232,276
547	6165,19
547,4	6099,705
547,9	6041,19
548,3	5987,248
548,8	5929,819
549,2	5870,733
549,7	5810,648
550,1	5754,99
550,6	5707,59
551	5659,248
551,5	5605,448
551,9	5555,048
552,4	5503,99
552,8	5454,419
553,3	5407,505
553,7	5359,105
554,2	5310,476
554,6	5258,076
555,1	5214,076
555,5	5167,019
555,9	5122,505
556,4	5073,733
556,8	5023,819
557,3	4977,419
557,7	4937,219
558,2	4891,419
558,6	4855,448
559,1	4815,276
559,5	4774,648
560	4741,619
560,4	4703,048
560,9	4668,048
561,3	4631,19
561,8	4591,733
562,2	4551,819
562,7	4516,59
563,1	4485,076
563,6	4449,276
564	4411,933
564,4	4372,448
564,9	4334,59
565,3	4306,676
565,8	4272,362
566,2	4236,59
566,7	4206,876
567,1	4186,476
567,6	4160,419
568	4130,419
568,5	4093,705
568,9	4070,105
569,4	4037,962
569,8	4013,476
570,3	3978,59
570,7	3944,048
571,1	3919,39
571,6	3896,333
572	3877,905
572,5	3852,333
572,9	3815,219
573,4	3784,933
573,8	3765,133
574,3	3731,819
574,7	3701,905
575,2	3659,933
575,6	3629,733
576,1	3606,248
576,5	3588,19
576,9	3552,476
577,4	3527,762
577,8	3499,105
578,3	3479,305
578,7	3455,79
579,2	3431,905
579,6	3395,848
580,1	3375,59
580,5	3361,333
581	3337,533
581,4	3313,133
581,9	3288,305
582,3	3267,848
582,7	3249,733
583,2	3229,762
583,6	3201,705
584,1	3182,933
584,5	3160,705
585	3143,39
585,4	3112,648
585,9	3092,819
586,3	3075,648
586,8	3056,933
587,2	3035,362
587,6	3015,505
588,1	2996,733
588,5	2985,076
589	2968,819
589,4	2945,676
589,9	2925,305
590,3	2908,533
590,8	2897,99
591,2	2882,362
591,7	2867,99
592,1	2852,419
592,5	2838,133
593	2823,362
593,4	2805,676
593,9	2783,59
594,3	2764,933
594,8	2743,79
595,2	2720,505
595,7	2701,219
596,1	2685,019
596,6	2675,248
597	2659,819
597,4	2648,076
597,9	2640,99
598,3	2629,419
598,8	2613,533
599,2	2599,619
599,7	2581,762
600,1	2565,019
600,6	2546,476
601	2528,39
601,4	2522,133
601,9	2517,39
602,3	2499,79
602,8	2487,99
603,2	2471,962
603,7	2460,876
604,1	2449,105
604,6	2425,676
605	2403,048
605,4	2397,19
605,9	2378,562
606,3	2364,019
606,8	2347,19
607,2	2331,533
607,7	2314,333
608,1	2305,59
608,6	2282,676
609	2273,676
609,4	2267,076
609,9	2256,162
610,3	2248,962
610,8	2240,733
611,2	2227,019
611,7	2215,848
612,1	2202,562
612,6	2185,219
613	2172,762
613,4	2153,762
613,9	2140,962
614,3	2128,305
614,8	2120,39
615,2	2102,733
615,7	2097,333
616,1	2083,39
616,6	2068,19
617	2053,562
617,4	2046,162
617,9	2034,276
618,3	2029,733
618,8	2011,962
619,2	2000,105
619,7	1995,476
620,1	1988,276
620,5	1977,362
621	1958,733
621,4	1951,219
621,9	1945,505
622,3	1935,105
622,8	1924,533
623,2	1906,876
623,6	1889,762
624,1	1881,905
624,5	1863,762
625	1855,419
625,4	1841,933
625,9	1826,248
626,3	1811,733
626,8	1798,162
627,2	1788,99
627,6	1773,162
628,1	1753,162
628,5	1742,19
629	1732,448
629,4	1730,562
629,9	1721,305
630,3	1708,448
630,7	1703,019
631,2	1696,705
631,6	1689,419
632,1	1677,962
632,5	1659,933
633	1653,733
633,4	1637,79
633,8	1625,162
634,3	1613,105
634,7	1600,048
635,2	1584,162
635,6	1580,505
636,1	1566,019
636,5	1558,248
636,9	1545,105
637,4	1534,105
637,8	1521,305
638,3	1514,533
638,7	1501,79
639,2	1489,59
639,6	1481,762
640	1473,162
640,5	1462,048
640,9	1451,219
641,4	1438,79
641,8	1434,219
642,2	1425,305
642,7	1419,476
643,1	1416,648
643,6	1407,648
644	1404,59
644,5	1398,476
644,9	1388,362
645,3	1382,733
645,8	1370,876
646,2	1359,105
646,7	1352,162
647,1	1339,848
647,6	1333,39
648	1326,819
648,4	1316,362
648,9	1307,962
649,3	1299,99
649,8	1294,79
650,2	1292,276
650,6	1283,59
651,1	1271,248
651,5	1271,276
652	1265,59
652,4	1251,99
652,9	1244,048
653,3	1235,476
653,7	1223,962
654,2	1218,019
654,6	1198,39
655,1	1189,562
655,5	1192,648
655,9	1183,305
656,4	1172,39
656,8	1169,876
657,3	1165,133
657,7	1161,99
658,2	1154,676
658,6	1138,39
659	1130,648
659,5	1118,705
659,9	1109,419
660,4	1099,133
660,8	1088,733
661,2	1078,79
661,7	1075,619
662,1	1067,219
662,6	1061,162
663	1054,276
663,4	1045,419
663,9	1039,419
664,3	1034,876
664,8	1023,333
665,2	1012,076
665,6	1009,419
666,1	1003,048
666,5	995,933
667	986,819
667,4	976,333
667,9	974,305
668,3	970,076
668,7	960,79
669,2	953,962
669,6	950,448
670,1	948,362
670,5	939,562
670,9	928,39
671,4	920,819
671,8	918,933
672,3	913,362
672,7	902,905
673,1	891,162
673,6	888,876
674	887,219
674,5	881,562
674,9	865,533
675,3	856,305
675,8	852,676
676,2	853,99
676,7	846,962
677,1	839,219
677,5	833,762
678	833,448
678,4	828,019
678,9	824,248
679,3	814,162
679,7	811,99
680,2	800,676
680,6	792,362
681,1	785,248
681,5	781,133
681,9	772,905
682,4	767,533
682,8	761,533
683,3	762,505
683,7	759,648
684,1	759,133
684,6	744,476
685	737,419
685,5	732,562
685,9	723,962
686,3	713,39
686,8	706,133
687,2	695,505
687,7	698,248
688,1	691,762
688,5	686,762
689	686,99
689,4	684,562
689,9	675,848
690,3	669,533
690,7	666,162
691,2	663,905
691,6	658,676
692	651,762
692,5	650,105
692,9	649,133
693,4	645,448
693,8	636,848
694,2	632,79
694,7	626,048
695,1	619,733
695,6	612,505
696	611,619
696,4	608,562
696,9	605,105
697,3	594,248
697,8	592,305
698,2	585,648
698,6	581,162
699,1	575,019
699,5	571,105
699,9	564,99
700,4	560,248
700,8	555,162
701,3	554,79
701,7	549,105
702,1	543,962
702,6	540,99
703	541,076
703,5	540,648
703,9	537,848
704,3	534,448
704,8	529,676
705,2	524,933
705,6	518,019
706,1	510,905
706,5	512,476
707	511,133
707,4	506,219
707,8	505,39
708,3	506,876
708,7	504,248
709,2	500,648
709,6	495,105
710	489,105
710,5	481,276
710,9	475,562
711,3	468,79
711,8	468,276
712,2	471,476
712,7	463,476
713,1	458,619
713,5	460,076
714	459,733
714,4	452,362
714,8	448,305
715,3	439,162
715,7	437,505
716,2	435,162
716,6	431,39
717	419,733
717,5	422,562
717,9	416,648
718,3	412,648
718,8	408,333
719,2	405,99
719,7	401,505
720,1	405,933
720,5	404,733
721	403,676
721,4	400,819
721,8	404,505
722,3	397,905
722,7	400,448
723,2	394,505
723,6	381,705
724	375,762
724,5	370,019
724,9	366,105
725,3	366,248
725,8	357,562
726,2	352,019
726,7	354,762
727,1	354,648
727,5	354,848
728	348,705
728,4	345,505
728,8	337,362
729,3	335,248
729,7	329,19
730,1	327,19
730,6	327,819
731	323,648
731,5	322,419
731,9	325,99
732,3	328,39
732,8	331,419
733,2	329,362
733,6	323,076
734,1	322,248
734,5	317,705
734,9	316,848
735,4	316,019
735,8	306,79
736,3	305,333
736,7	303,476
737,1	300,333
737,6	297,905
738	298,619
738,4	297,162
738,9	302,705
739,3	297,705
739,7	299,505
740,2	297,562
740,6	299,305
741,1	298,933
741,5	292,248
741,9	287,819
742,4	291,248
742,8	286,933
743,2	285,819
743,7	279,333
744,1	270,133
744,5	268,448
745	266,248
745,4	259,276
745,8	259,79
746,3	260,276
746,7	256,99
747,2	254,79
747,6	261,733
748	263,905
748,5	267,448
748,9	263,505
749,3	257,762
749,8	259,533
750,2	264,705
750,6	254,076
751,1	250,733
751,5	244,762
751,9	246,59
752,4	249,733
752,8	250,505
753,3	245,448
753,7	246,419
754,1	242,819
754,6	238,476
755	230,419
755,4	223,562
755,9	220,219
756,3	218,733
756,7	217,19
757,2	214,105
757,6	218,476
758	219,162
758,5	219,533
758,9	218,848
759,3	217,79
759,8	213,79
760,2	217,848
760,6	213,562
761,1	212,648
761,5	210,733
761,9	205,59
762,4	201,905
762,8	205,133
763,3	199,39
763,7	201,99
764,1	204,562
764,6	201,305
765	204,305
765,4	205,219
765,9	204,962
766,3	207,962
766,7	201,276
767,2	196,876
767,6	200,848
768	198,705
768,5	196,19
768,9	193,419
769,3	189,476
769,8	190,562
770,2	192,733
770,6	190,676
771,1	190,99
771,5	189,019
771,9	188,39
772,4	187,362
772,8	186,162
773,2	186,419
773,7	184,333
774,1	180,448
774,5	178,305
775	175,505
775,4	175,819
775,8	174,19
776,3	172,448
776,7	172,648
777,1	175,305
777,6	178,619
778	181,19
778,4	176,105
778,9	178,133
779,3	173,505
779,7	171,876
780,2	169,562
780,6	165,39
781	156,733
781,5	155,419
781,9	150,905
782,3	150,276
782,8	150,619
783,2	147,419
783,6	146,562
784,1	149,533
784,5	148,533
784,9	147,933
785,4	148,676
785,8	145,248
786,2	146,905
786,7	145,99
787,1	144,048
787,5	146,448
788	146,019
788,4	147,333
788,8	148,476
789,3	144,99
789,7	145,39
790,1	145,876
790,6	148,305
791	141,305
791,4	133,905
791,9	128,933
792,3	127,362
792,7	125,99
793,2	118,733
793,6	116,876
794	124,248
794,5	125,305
794,9	129,733
795,3	132,219
795,8	131,533
796,2	141,562
796,6	136,648
797,1	131,619
797,5	128,248
797,9	122,419
798,4	118,333
798,8	114,819
799,2	107,105
799,7	109,476
800,1	112,305
800,5	115,562
801	117,733
801,4	117,762
801,8	118,276
802,2	115,619
802,7	110,99
803,1	104,276
803,5	102,305
804	95,333
804,4	92,505
804,8	92,876
805,3	96,219
805,7	94,962
806,1	98,762
806,6	100,19
807	103,105
807,4	106,305
807,9	95,848
808,3	96,305
808,7	98,276
809,2	100,933
809,6	99,105
810	96,819
810,4	96,105
810,9	105,219
811,3	102,59
811,7	102,362
812,2	104,19
812,6	100,848
813	106,733
813,5	104,705
813,9	99,705
814,3	97,733
814,8	93,762
815,2	84,762
815,6	88,362
816,1	87,448
816,5	87,476
816,9	93,276
817,3	92,933
817,8	97,876
818,2	99,648
818,6	93,79
819,1	89,448
819,5	84,19
819,9	83,19
820,4	84,105
820,8	76,848
821,2	74,305
821,7	75,248
822,1	78,333
822,5	89,076
822,9	87,419
823,4	85,476
823,8	85,419
824,2	88,762
824,7	86,676
825,1	79,19
825,5	68,533
826	64,562
826,4	63,648
826,8	63,333
827,3	62,076
827,7	61,133
828,1	63,933
828,5	64,105
829	61,648
829,4	62,905
829,8	59,933
830,3	59,933
830,7	61,905
831,1	63,476
831,6	62,848
832	64,305
832,4	63,276
832,8	69,562
833,3	64,476
833,7	59,248
834,1	55,905
834,6	55,619
835	59,133
835,4	60,219
835,8	55,248
836,3	57,048
836,7	60,933
837,1	63,162
837,6	66,419
838	61,762
838,4	61,676
838,9	64,562
839,3	61,876
839,7	64,333
840,1	59,562
840,6	54,962
841	56,562
841,4	55,448
841,9	54,048
842,3	56,59
842,7	52,733
843,1	54,762
843,6	58,848
844	59,162
844,4	60,762
844,9	61,59
845,3	62,019
845,7	61,39
846,2	56,305
846,6	55,99
847	55,962
847,4	54,819
847,9	52,305
848,3	47,733
848,7	49,248
849,2	51,819
849,6	44,79
850	45,19
850,4	44,676
850,9	46,905
851,3	49,019
851,7	48,048
852,2	46,476
852,6	52,048
853	52,762
853,4	48,619
853,9	42,333
854,3	42,419
854,7	42,533
855,2	41,133
855,6	40,676
856	35,733
856,4	35,048
856,9	35,448
857,3	35,905
857,7	36,848
858,2	43,448
858,6	38,905
859	39,019
859,4	39,648
859,9	40,162
860,3	35,448
860,7	32,905
861,1	30,905
861,6	32,448
862	35,19
862,4	37,419
862,9	37,733
863,3	42,19
863,7	42,362
864,1	41,905
864,6	42,133
865	41,476
865,4	41,219
865,9	44,419
866,3	40,076
866,7	37,105
867,1	35,276
867,6	33,59
868	31,59
868,4	29,448
868,8	29,533
869,3	29,933
869,7	38,333
870,1	39,162
870,6	40,276
871	48,476
871,4	51,79
871,8	48,105
872,3	52,619
872,7	46,133
873,1	45,79
873,5	44,762
874	36,933
874,4	36,19
874,8	33,162
875,3	28,99
875,7	26,59
876,1	26,419
876,5	26,162
877	24,99
877,4	19,219
877,8	26,39
878,2	33,419
878,7	38,962
879,1	39,533
879,5	39,276
879,9	39,476
880,4	40,39
880,8	35,362
881,2	28,562
881,7	24,848
882,1	24,105
882,5	24,305
882,9	21,162
883,4	20,762
883,8	25,448
884,2	25,133
884,6	23,019
885,1	23,162
885,5	24,219
885,9	25,19
886,3	26,533
886,8	19,905
887,2	18,59
887,6	17,476
888	15,448
888,5	12,105
888,9	14,762
889,3	11,819
889,8	13,162
890,2	16,962
890,6	15,533
891	19,962
891,5	19,676
891,9	15,276
892,3	18,848
892,7	24,648
893,2	23,676
893,6	27,905
894	25,705
894,4	28,39
894,9	31,048
895,3	28,648
895,7	23,076
896,1	19,276
896,6	19,648
897	20,105
897,4	23,733
897,8	27,305
898,3	27,819
898,7	26,762
899,1	31,476
899,5	29,076
900	22,533
900,4	18,133
900,8	12,248
901,2	9,076
901,7	8,648
902,1	3,219
902,5	7,448
902,9	7,962
903,4	11,048
903,8	13,59
904,2	14,962
904,6	17,619
905,1	18,39
905,5	17,505
905,9	21,962
906,3	17,419
906,8	19,248
907,2	20,59
907,6	20,448
908	23,219
908,5	20,019
908,9	17,533
909,3	15,933
909,7	12,648
910,2	10,99
910,6	13,733
911	8,819
911,4	13,133
911,9	12,79
912,3	12,648
912,7	13,505
913,1	16,99
913,6	7,19
914	10,019
914,4	4,848
914,8	6,019
915,3	5,819
915,7	6,476
916,1	4,019
916,5	14,105
916,9	11,448
917,4	10,505
917,8	9,019
918,2	5,305
918,6	1,933
919,1	0,133
919,5	-1,981
919,9	4,133
920,3	5,905
920,8	6,19
921,2	12,59
921,6	16,333
922	19,762
922,5	18,59
922,9	17,448
923,3	17,876
923,7	19,819
924,2	17,39
924,6	17,448
925	16,562
925,4	12,419
925,8	11,276
926,3	8,39
926,7	3,79
927,1	5,676
927,5	6,362
928	3,133
928,4	-0,067
928,8	1,79
929,2	6,648
929,7	11,562
930,1	11,705
930,5	4,933
930,9	10,619
931,3	17,076
931,8	13,79
932,2	8,076
932,6	1,276
933	-6,524
933,5	0,705
933,9	0,848
934,3	0,562
934,7	-1,638
935,2	-0,867
935,6	3,105
936	9,019
936,4	5,848
936,8	2,105
937,3	1,505
937,7	3,533
938,1	8,362
938,5	6,162
939	6,59
939,4	5,39
939,8	5,39
940,2	6,819
940,6	7,448
941,1	1,448
941,5	5,219
941,9	1,305
942,3	7,133
942,8	6,876
943,2	5,733
943,6	1,848
944	4,933
944,4	2,048
944,9	3,562
945,3	-0,067
945,7	-1,838
946,1	-6,124
946,6	-5,695
947	-7,095
947,4	-3,61
947,8	-0,038
948,2	0,219
948,7	1,819
949,1	2,59
949,5	7,39
949,9	10,705
950,3	11,905
950,8	10,248
951,2	5,99
951,6	-1,01
952	3,133
952,5	-0,124
952,9	-2,181
953,3	-4,438
953,7	-4,095
954,1	-0,981
954,6	5,933
955	8,133
955,4	9,133
955,8	10,848
956,2	10,819
956,7	10,476
957,1	9,333
957,5	15,162
957,9	11,448
958,3	11,362
958,8	13,448
959,2	10,876
959,6	14,59
960	15,562
960,5	13,133
960,9	15,105
961,3	11,362
961,7	8,133
962,1	8,819
962,6	8,19
963	7,076
963,4	2,619
963,8	2,248
964,2	5,276
964,7	3,362
965,1	10,362
965,5	7,905
965,9	4,79
966,3	8,676
966,8	6,876
967,2	5,305
967,6	9,648
968	3,076
968,4	3,305
968,9	6,219
969,3	7,276
969,7	8,79
970,1	10,133
970,5	8,962
971	13,219
971,4	15,533
971,8	19,076
972,2	16,619
972,6	13,19
973,1	15,933
973,5	16,59
973,9	14,333
974,3	14,219
974,7	17,705
975,2	19,648
975,6	23,733
976	23,39
976,4	17,79
976,8	17,476
977,3	13,362
977,7	6,362
978,1	3,448
978,5	-2,238
978,9	-4,267
979,4	-2,038
979,8	-3,895
980,2	-0,924
980,6	-6,267
981	-3,781
981,5	-0,495
981,9	-2,152
982,3	-0,524
982,7	1,962
983,1	0,448
983,6	5,333
984	4,39
984,4	8,133
984,8	9,79
985,2	7,99
985,6	6,762
986,1	9,448
986,5	13,79
986,9	9,019
987,3	4,648
987,7	3,848
988,2	3,333
988,6	2,533
989	-2,067
989,4	-6,667
989,8	-3,152
990,3	-3,238
990,7	-1,695
991,1	3,048
991,5	5,39
991,9	9,762
992,3	12,933
992,8	10,505
993,2	8,819
993,6	9,162
994	9,99
994,4	9,905
994,9	9,562
995,3	5,933
995,7	6,133
996,1	9,105
996,5	6,819
996,9	1,705
997,4	1,305
997,8	-8,124
998,2	-9,667
998,6	-13,724
999	-13,238
999,5	-10,524
999,9	-10,61
1000,3	-13,552
1000,7	-6,867
1001,1	-4,152
1001,5	3,276
1002	2,676
1002,4	-1,038
1002,8	0,848
1003,2	3,362
1003,6	5,048
1004	6,276
1004,5	2,048
1004,9	5,219
1005,3	3,419
1005,7	4,419
1006,1	2,762
1006,6	1,962
1007	0,533
1007,4	-2,524
1007,8	-3,581
1008,2	-3,038
1008,6	-1,924
1009,1	0,419
1009,5	-1,781
1009,9	-0,152
1010,3	6,533
1010,7	4,619
1011,1	6,533
1011,6	1,676
1012	2,133
1012,4	2,248
1012,8	1,876
1013,2	3,819
1013,6	9,105
1014,1	10,105
1014,5	13,133
1014,9	10,733
1015,3	10,133
1015,7	11,248
1016,1	8,39
1016,6	2,733
1017	4,019
1017,4	3,076
1017,8	2,962
1018,2	6,162
1018,6	0,562
1019,1	-2,638
1019,5	-2,295
1019,9	-3,724
1020,3	-3,695
1020,7	-0,324
1021,1	-3,095
1021,6	-0,124
1022	5,476
1022,4	8,848
1022,8	8,562
1023,2	8,362
1023,6	4,762
1024,1	9,105
1024,5	9,248
1024,9	5,419
1025,3	-0,01
1025,7	-0,524
1026,1	6,076
1026,6	9,59
1027	6,705
1027,4	10,305
1027,8	7,076
1028,2	8,105
1028,6	11,962
1029	4,962
1029,5	4,676
1029,9	5,876
1030,3	3,133
1030,7	8,362
1031,1	9,448
1031,5	5,705
1032	4,19
1032,4	-0,324
1032,8	-2,124
1033,2	-2,324
1033,6	-5,267
1034	-5,895
1034,4	-2,924
1034,9	0,362
1035,3	-0,867
1035,7	1,676
1036,1	-1,324
1036,5	-2,381
1036,9	0,562
1037,4	1,905
1037,8	-4,41
1038,2	-1,81
1038,6	-4,381
1039	-2,924
1039,4	1,648
1039,8	-2,667
1040,3	-2,638
1040,7	-1,181
1041,1	1,333
1041,5	0,705
1041,9	1,362
1042,3	1,39
1042,7	4,819
1043,2	1,419
1043,6	3,762
1044	0,276
1044,4	0,79
1044,8	3,048
1045,2	0,79
1045,6	-3,552
1046,1	-4,438
1046,5	-4,495
1046,9	-6,895
1047,3	-5,981
1047,7	-7,438
1048,1	-8,638
1048,5	-7,124
1049	-2,952
1049,4	-1,467
1049,8	3,905
1050,2	4,448
1050,6	10,048
1051	16,133
1051,4	17,79
1051,9	16,219
1052,3	22,733
1052,7	24,533
1053,1	27,248
1053,5	26,019
1053,9	17,648
1054,3	14,39
1054,8	17,362
1055,2	15,505
1055,6	16,533
1056	14,448
1056,4	8,705
1056,8	16,619
1057,2	18,819
1057,6	12,648
1058,1	4,533
1058,5	-1,981
1058,9	1,762
1059,3	4,505
1059,7	0,905
1060,1	1,876
1060,5	7,676
1061	14,733
1061,4	16,19
1061,8	14,59
1062,2	15,105
1062,6	14,59
1063	17,133
1063,4	13,59
1063,8	9,39
1064,3	5,505
1064,7	1,105
1065,1	-3,124
1065,5	-3,581
1065,9	-5,724
1066,3	-9,552
1066,7	-10,981
1067,1	-7,981
1067,6	-5,41
1068	-1,752
1068,4	-1,638
1068,8	1,162
1069,2	8,648
1069,6	8,533
1070	12,305
1070,4	6,448
1070,9	2,105
1071,3	1,619
1071,7	-4,238
1072,1	-9,667
1072,5	-10,895
1072,9	-12,467
1073,3	-7,41
1073,7	-4,781
1074,2	-1,524
1074,6	0,762
1075	1,762
1075,4	4,562
1075,8	4,876
1076,2	5,448
1076,6	6,79
1077	4,733
1077,5	5,705
1077,9	4,133
1078,3	2,933
1078,7	2,819
1079,1	-0,352
1079,5	-1,41
1079,9	0,762
1080,3	1,162
1080,7	6,905
1081,2	12,876
1081,6	12,076
1082	12,848
1082,4	16,619
1082,8	13,276
1083,2	9,619
1083,6	5,333
1084	0,448
1084,5	1,162
1084,9	-1,752
1085,3	-9,295
1085,7	-8,438
1086,1	-5,981
1086,5	-4,838
1086,9	-7,01
1087,3	-4,638
1087,7	0,733
1088,2	5,305
1088,6	3,476
1089	5,619
1089,4	5,505
1089,8	7,79
1090,2	3,133
1090,6	1,333
1091	0,305
1091,4	2,876
1091,9	0,705
1092,3	2,848
1092,7	0,819
1093,1	5,105
1093,5	4,448
1093,9	3,933
1094,3	7,733
1094,7	5,848
1095,1	7,79
1095,5	11,333
1096	5,762
1096,4	8,248
1096,8	6,248
1097,2	2,676
1097,6	6,848
1098	4,105
1098,4	4,19
1098,8	5,79
1099,2	10,905
1099,6	14,019
1100,1	13,876
1100,5	10,733
1100,9	9,133
1101,3	8,048
1101,7	8,848
1102,1	1,562
1102,5	4,305
1102,9	5,048
1103,3	9,133
1103,7	9,219
1104,2	9,19
1104,6	10,333
1105	11,476
1105,4	7,819
1105,8	5,762
1106,2	2,019
1106,6	1,648
1107	1,533
1107,4	0,267
1107,8	-0,187
1108,3	-0,067
