Data from Subt2_142.txt Node
Date: Sat Aug 26 18:29:18 MSK 2023
User: vat
Spectrometer: MAYP114033
Trigger mode: 0
Integration Time (sec): 1,000000E0
Scans to average: 5
Electric dark correction enabled: true
Nonlinearity correction enabled: false
Boxcar width: 3
XAxis mode: Wavelengths
Number of Pixels in Spectrum: 2068
>>>>>Begin Spectral Data<<<<<
199,4	-0,283
199,9	0,687
200,4	0,533
200,8	1,538
201,3	-0,062
201,8	0,081
202,2	-3,119
202,7	0,052
203,2	-0,919
203,6	-3,176
204,1	-5,09
204,6	-3,29
205	-3,205
205,5	2,338
206	0,167
206,4	-1,319
206,9	-1,748
207,4	-0,319
207,8	-1,005
208,3	-0,205
208,8	-4,119
209,2	0,395
209,7	3,424
210,2	8,767
210,6	6,338
211,1	8,252
211,5	6,31
212	6,024
212,5	2,167
212,9	-1,062
213,4	-1,748
213,9	-1,862
214,3	-3,233
214,8	-2,948
215,3	-3,119
215,7	-3,69
216,2	-1,376
216,7	-3,576
217,1	-5,662
217,6	-4,405
218,1	-6,033
218,5	-1,805
219	-7,405
219,5	-9,148
219,9	-7,919
220,4	1,195
220,9	-1,49
221,3	-0,005
221,8	-4,605
222,3	0,767
222,7	4,595
223,2	1,224
223,6	-4,948
224,1	-0,948
224,6	0,081
225	-0,29
225,5	-0,69
226	-4,005
226,4	-2,319
226,9	-3,005
227,4	-6,633
227,8	-8,948
228,3	-8,033
228,8	-6,348
229,2	-5,062
229,7	-2,519
230,2	2,852
230,6	4,167
231,1	11,395
231,5	12,595
232	11,995
232,5	10,224
232,9	11,252
233,4	8,681
233,9	6,738
234,3	-0,176
234,8	0,967
235,3	-0,205
235,7	1,91
236,2	1,081
236,7	0,395
237,1	2,024
237,6	3,767
238,1	-3,062
238,5	-8,576
239	-10,919
239,4	-10,148
239,9	-12,348
240,4	-12,69
240,8	-13,148
241,3	-13,119
241,8	-13,005
242,2	-9,319
242,7	-13,519
243,2	-10,833
243,6	-12,205
244,1	-10,376
244,6	1,881
245	9,995
245,5	10,452
245,9	11,224
246,4	10,938
246,9	13,652
247,3	12,052
247,8	7,824
248,3	5,424
248,7	1,51
249,2	2,995
249,7	2,31
250,1	3,281
250,6	2,652
251	3,967
251,5	5,252
252	5,338
252,4	6,652
252,9	4,681
253,4	0,767
253,8	-0,262
254,3	-4,376
254,8	-5,033
255,2	-4,719
255,7	-6,29
256,1	-3,576
256,6	0,052
257,1	2,338
257,5	0,71
258	-0,148
258,5	0,567
258,9	0,51
259,4	-3,862
259,9	-5,919
260,3	-9,748
260,8	-12,348
261,2	-15,948
261,7	-11,605
262,2	-16,862
262,6	-15,462
263,1	-13,976
263,6	-13,376
264	-7,262
264,5	-1,776
264,9	-3,033
265,4	1,252
265,9	2,024
266,3	3,881
266,8	9,452
267,3	9,11
267,7	5,71
268,2	2,681
268,7	4,567
269,1	5,652
269,6	3,652
270	6,081
270,5	3,367
271	3,938
271,4	2,11
271,9	-0,719
272,4	-0,89
272,8	-0,462
273,3	-6,748
273,7	-6,205
274,2	-6,062
274,7	-6,29
275,1	-2,948
275,6	1,767
276,1	-2,233
276,5	0,538
277	3,567
277,4	4,738
277,9	7,081
278,4	5,138
278,8	1,652
279,3	4,081
279,8	5,024
280,2	4,224
280,7	5,252
281,1	2,91
281,6	4,938
282,1	3,481
282,5	2,481
283	4,538
283,4	3,681
283,9	3,424
284,4	7,195
284,8	5,795
285,3	6,824
285,8	6,938
286,2	-0,09
286,7	-4,462
287,1	-6,776
287,6	-8,29
288,1	-12,605
288,5	-7,919
289	-4,462
289,5	1,795
289,9	1,881
290,4	8,538
290,8	8,852
291,3	12,538
291,8	9,595
292,2	5,138
292,7	4,624
293,1	3,852
293,6	-2,89
294,1	-6,862
294,5	-6,09
295	-4,919
295,5	-3,433
295,9	-4,89
296,4	2,31
296,8	0,995
297,3	4,367
297,8	-1,376
298,2	-8,833
298,7	-8,405
299,1	-9,576
299,6	-13,319
300,1	-10,262
300,5	-8,462
301	0,71
301,5	6,91
301,9	5,024
302,4	2,138
302,8	2,738
303,3	2,11
303,8	-2,662
304,2	-9,29
304,7	-10,062
305,1	-8,748
305,6	-5,033
306,1	2,595
306,5	5,652
307	10,852
307,4	14,395
307,9	12,538
308,4	14,224
308,8	11,281
309,3	2,91
309,8	-0,09
310,2	-0,119
310,7	-3,433
311,1	-5,376
311,6	-7,405
312,1	-4,233
312,5	-2,576
313	0,281
313,4	-2,605
313,9	-3,405
314,4	-2,862
314,8	-6,576
315,3	-6,833
315,7	-10,576
316,2	-12,576
316,7	-12,89
317,1	-5,519
317,6	-2,805
318	5,452
318,5	3,252
319	9,881
319,4	9,824
319,9	11,824
320,3	10,824
320,8	11,281
321,3	9,881
321,7	13,881
322,2	8,567
322,6	10,281
323,1	12,71
323,6	5,452
324	4,424
324,5	2,995
324,9	0,652
325,4	-1,09
325,9	-2,519
326,3	-6,205
326,8	1,395
327,2	-1,862
327,7	1,538
328,2	3,595
328,6	6,481
329,1	5,195
329,5	6,51
330	4,567
330,5	9,481
330,9	5,195
331,4	1,91
331,8	2,081
332,3	2,681
332,8	1,71
333,2	0,738
333,7	0,967
334,1	1,281
334,6	-1,033
335,1	-6,462
335,5	-5,833
336	-3,748
336,4	-7,776
336,9	-5,776
337,4	-2,605
337,8	-1,919
338,3	3,852
338,7	2,738
339,2	-0,062
339,7	5,567
340,1	0,138
340,6	-2,519
341	-4,519
341,5	-2,69
342	-4,319
342,4	-4,005
342,9	-9,148
343,3	-6,519
343,8	-6,776
344,2	-0,719
344,7	2,767
345,2	1,567
345,6	2,795
346,1	9,481
346,5	4,395
347	2,367
347,5	-2,319
347,9	-4,405
348,4	-2,119
348,8	-2,405
349,3	-2,49
349,8	-0,548
350,2	5,71
350,7	6,967
351,1	7,11
351,6	9,167
352	10,195
352,5	10,852
353	18,91
353,4	21,11
353,9	30,995
354,3	36,052
354,8	46,31
355,3	63,138
355,7	77,224
356,2	92,51
356,6	110,995
357,1	128,51
357,5	154,681
358	179,052
358,5	200,024
358,9	227,795
359,4	259,995
359,8	299,195
360,3	348,195
360,8	391,538
361,2	446,167
361,7	507,51
362,1	578,824
362,6	653,91
363	730,11
363,5	810,281
364	904,167
364,4	998,224
364,9	1093,081
365,3	1180,224
365,8	1262,652
366,3	1341,338
366,7	1411,652
367,2	1472,195
367,6	1519,538
368,1	1559,91
368,5	1586,024
369	1600,167
369,5	1605,338
369,9	1593,51
370,4	1565,767
370,8	1531,281
371,3	1481,967
371,7	1429,652
372,2	1368,081
372,7	1304,081
373,1	1237,167
373,6	1164,91
374	1093,852
374,5	1023,138
374,9	949,91
375,4	885,395
375,9	816,567
376,3	753,967
376,8	694,738
377,2	637,567
377,7	581,967
378,2	535,052
378,6	490,938
379,1	446,824
379,5	410,138
380	382,681
380,4	351,995
380,9	324,395
381,4	294,195
381,8	268,167
382,3	253,51
382,7	231,91
383,2	213,481
383,6	196,567
384,1	187,138
384,6	180,767
385	168,967
385,5	155,595
385,9	143,852
386,4	131,681
386,8	127,967
387,3	115,452
387,7	104,338
388,2	99,481
388,7	88,852
389,1	83,395
389,6	77,51
390	68,71
390,5	65,738
390,9	62,624
391,4	56,481
391,9	53,481
392,3	53,395
392,8	46,824
393,2	43,052
393,7	40,081
394,1	39,738
394,6	37,51
395,1	36,252
395,5	31,167
396	37,138
396,4	34,995
396,9	36,395
397,3	39,31
397,8	40,195
398,2	41,081
398,7	42,167
399,2	39,938
399,6	41,481
400,1	37,624
400,5	23,081
401	21,967
401,4	16,538
401,9	18,71
402,4	19,31
402,8	14,224
403,3	22,338
403,7	24,881
404,2	30,31
404,6	35,967
405,1	35,367
405,5	31,052
406	36,452
406,5	30,452
406,9	36,424
407,4	36,395
407,8	38,024
408,3	40,881
408,7	45,938
409,2	51,367
409,6	59,367
410,1	69,938
410,6	74,567
411	79,367
411,5	84,681
411,9	92,138
412,4	94,538
412,8	97,681
413,3	97,195
413,7	95,624
414,2	97,31
414,7	104,31
415,1	113,681
415,6	119,595
416	125,938
416,5	131,824
416,9	138,71
417,4	151,51
417,8	160,567
418,3	168,767
418,8	182,395
419,2	195,224
419,7	204,31
420,1	219,367
420,6	228,567
421	233,652
421,5	246,967
421,9	256,138
422,4	267,367
422,8	280,681
423,3	293,281
423,8	302,367
424,2	314,481
424,7	319,738
425,1	333,052
425,6	348,224
426	364,824
426,5	382,824
426,9	402,024
427,4	424,081
427,9	443,995
428,3	463,052
428,8	480,567
429,2	499,081
429,7	522,91
430,1	549,367
430,6	574,367
431	602,11
431,5	632,51
431,9	659,881
432,4	696,424
432,8	731,395
433,3	769,11
433,8	806,767
434,2	846,081
434,7	888,795
435,1	935,595
435,6	981,681
436	1024,738
436,5	1077,995
436,9	1129,938
437,4	1181,938
437,8	1236,967
438,3	1290,138
438,8	1345,081
439,2	1408,967
439,7	1470,51
440,1	1536,167
440,6	1611,595
441	1675,567
441,5	1753,252
441,9	1839,31
442,4	1909,881
442,8	1983,681
443,3	2064,481
443,7	2141,681
444,2	2236,995
444,7	2327,252
445,1	2414,852
445,6	2515,852
446	2614,052
446,5	2713,052
446,9	2816,138
447,4	2917,224
447,8	3020,367
448,3	3133,138
448,7	3250,881
449,2	3370,281
449,6	3496,138
450,1	3618,481
450,6	3748,852
451	3880,224
451,5	4009,424
451,9	4138,138
452,4	4270,538
452,8	4398,424
453,3	4537,681
453,7	4679,881
454,2	4818,652
454,6	4963,567
455,1	5105,31
455,5	5252,452
456	5412,538
456,4	5563,51
456,9	5711,624
457,3	5871,11
457,8	6026,31
458,3	6199,71
458,7	6366,024
459,2	6528,767
459,6	6692,738
460,1	6864,795
460,5	7023,11
461	7191,681
461,4	7350,738
461,9	7506,681
462,3	7670,824
462,8	7841,967
463,2	8004,395
463,7	8183,567
464,1	8349,195
464,6	8516,024
465	8692,538
465,5	8861,881
466	9029,195
466,4	9191,567
466,9	9361,281
467,3	9527,567
467,8	9695,052
468,2	9861,11
468,7	10015,024
469,1	10180,51
469,6	10345,995
470	10495,452
470,5	10655,51
470,9	10803,024
471,4	10943,052
471,8	11094,995
472,3	11240,252
472,7	11387,71
473,2	11526,51
473,6	11655,881
474,1	11796,795
474,5	11936,281
475	12070,167
475,4	12195,824
475,9	12324,652
476,4	12445,824
476,8	12573,567
477,3	12685,024
477,7	12811,052
478,2	12919,967
478,6	13019,024
479,1	13109,281
479,5	13216,595
480	13304,624
480,4	13403,138
480,9	13474,938
481,3	13560,481
481,8	13646,31
482,2	13720,91
482,7	13789,424
483,1	13859,852
483,6	13920,31
484	13983,967
484,5	14032,31
484,9	14080,71
485,4	14127,995
485,8	14157,652
486,3	14198,081
486,7	14222,71
487,2	14247,281
487,6	14263,167
488,1	14275,024
488,5	14284,681
489	14293,395
489,4	14295,681
489,9	14289,338
490,4	14282,224
490,8	14279,967
491,3	14273,681
491,7	14262,91
492,2	14250,252
492,6	14224,338
493,1	14207,538
493,5	14167,595
494	14130,31
494,4	14088,338
494,9	14046,967
495,3	14009,652
495,8	13963,11
496,2	13919,538
496,7	13870,424
497,1	13836,738
497,6	13783,224
498	13726,224
498,5	13661,795
498,9	13604,967
499,4	13539,252
499,8	13492,138
500,3	13421,567
500,7	13356,338
501,2	13286,481
501,6	13221,138
502,1	13149,424
502,5	13080,252
503	12994,481
503,4	12909,738
503,9	12825,767
504,3	12751,31
504,8	12664,652
505,2	12573,338
505,7	12480,595
506,1	12404,995
506,6	12311,11
507	12229,11
507,5	12130,738
507,9	12038,195
508,4	11944,538
508,8	11854,71
509,3	11746,767
509,7	11648,424
510,2	11548,595
510,6	11441,595
511,1	11349,024
511,5	11251,11
512	11142,91
512,4	11038,967
512,9	10935,738
513,3	10838,967
513,8	10734,424
514,2	10627,11
514,7	10515,681
515,1	10421,281
515,6	10324,567
516	10228,367
516,5	10118,938
516,9	10016,824
517,4	9912,91
517,8	9821,652
518,3	9713,138
518,7	9610,281
519,2	9504,51
519,6	9400,281
520,1	9307,338
520,5	9205,995
521	9095,995
521,4	8989,624
521,9	8897,338
522,3	8802,367
522,8	8704,767
523,2	8607,252
523,7	8509,852
524,1	8418,024
524,6	8330,167
525	8227,938
525,5	8130,195
525,9	8036,452
526,4	7946,138
526,8	7860,138
527,3	7768,481
527,7	7681,138
528,2	7595,51
528,6	7511,652
529,1	7434,367
529,5	7349,567
530	7259,338
530,4	7173,567
530,9	7087,652
531,3	6998,195
531,8	6922,51
532,2	6837,767
532,6	6758,767
533,1	6680,738
533,5	6605,338
534	6521,91
534,4	6454,081
534,9	6376,424
535,3	6307,052
535,8	6233,338
536,2	6164,738
536,7	6102,852
537,1	6040,024
537,6	5972,938
538	5906,995
538,5	5837,481
538,9	5769,567
539,4	5702,138
539,8	5637,424
540,3	5581,995
540,7	5513,824
541,2	5442,338
541,6	5371,91
542,1	5318,424
542,5	5256,395
543	5190,31
543,4	5121,338
543,9	5067,767
544,3	5022,795
544,8	4969,538
545,2	4908,138
545,7	4856,167
546,1	4808,767
546,5	4767,652
547	4717,195
547,4	4660,024
547,9	4611,11
548,3	4567,281
548,8	4523,567
549,2	4470,167
549,7	4418,51
550,1	4375,51
550,6	4330,767
551	4287,481
551,5	4239,195
551,9	4188,767
552,4	4145,052
552,8	4096,281
553,3	4053,281
553,7	4012,31
554,2	3977,567
554,6	3940,367
555,1	3912,481
555,5	3877,51
555,9	3845,51
556,4	3799,31
556,8	3758,852
557,3	3716,595
557,7	3679,938
558,2	3635,167
558,6	3606,71
559,1	3566,11
559,5	3536,281
560	3504,681
560,4	3472,995
560,9	3438,31
561,3	3406,767
561,8	3369,824
562,2	3344,252
562,7	3314,681
563,1	3287,367
563,6	3251,395
564	3222,595
564,4	3191,995
564,9	3161,395
565,3	3130,624
565,8	3103,195
566,2	3074,967
566,7	3055,567
567,1	3025,624
567,6	3000,538
568	2978,452
568,5	2946,91
568,9	2921,024
569,4	2895,11
569,8	2864,567
570,3	2842,538
570,7	2814,224
571,1	2788,767
571,6	2769,852
572	2749,224
572,5	2729,081
572,9	2711,024
573,4	2685,967
573,8	2667,995
574,3	2638,252
574,7	2615,824
575,2	2589,481
575,6	2564,595
576,1	2540,538
576,5	2525,538
576,9	2499,167
577,4	2484,595
577,8	2464,224
578,3	2444,11
578,7	2419,51
579,2	2403,91
579,6	2381,167
580,1	2361,252
580,5	2336,852
581	2315,195
581,4	2293,195
581,9	2275,71
582,3	2251,881
582,7	2233,881
583,2	2214,938
583,6	2198,938
584,1	2179,567
584,5	2165,881
585	2144,452
585,4	2125,652
585,9	2104,281
586,3	2092,395
586,8	2076,681
587,2	2061,11
587,6	2045,052
588,1	2040,252
588,5	2026,481
589	2014,395
589,4	1999,767
589,9	1985,538
590,3	1974,11
590,8	1954,452
591,2	1933,71
591,7	1924,652
592,1	1908,052
592,5	1896,967
593	1878,881
593,4	1867,852
593,9	1858,795
594,3	1844,481
594,8	1827,595
595,2	1815,624
595,7	1801,767
596,1	1793,881
596,6	1777,91
597	1763,652
597,4	1758,138
597,9	1746,395
598,3	1734,567
598,8	1719,481
599,2	1708,71
599,7	1698,738
600,1	1689,281
600,6	1677,995
601	1664,852
601,4	1658,481
601,9	1650,71
602,3	1635,767
602,8	1625,652
603,2	1613,224
603,7	1597,338
604,1	1587,195
604,6	1575,938
605	1563,138
605,4	1554,452
605,9	1538,595
606,3	1530,024
606,8	1520,024
607,2	1506,91
607,7	1488,967
608,1	1482,024
608,6	1477,824
609	1473,938
609,4	1463,338
609,9	1451,338
610,3	1444,938
610,8	1442,338
611,2	1431,967
611,7	1418,395
612,1	1407,938
612,6	1403,767
613	1397,681
613,4	1387,195
613,9	1374,595
614,3	1362,31
614,8	1354,452
615,2	1345,424
615,7	1331,567
616,1	1319,138
616,6	1308,567
617	1300,624
617,4	1295,424
617,9	1284,681
618,3	1275,681
618,8	1272,052
619,2	1265,395
619,7	1264,138
620,1	1256,71
620,5	1249,081
621	1238,11
621,4	1231,281
621,9	1222,424
622,3	1214,567
622,8	1201,138
623,2	1188,138
623,6	1175,967
624,1	1171,881
624,5	1158,795
625	1150,395
625,4	1145,395
625,9	1139,452
626,3	1134,395
626,8	1124,081
627,2	1115,338
627,6	1102,852
628,1	1089,081
628,5	1081,395
629	1071,11
629,4	1064,052
629,9	1064,024
630,3	1052,681
630,7	1052,395
631,2	1052,767
631,6	1041,681
632,1	1034,281
632,5	1028,424
633	1015,881
633,4	1011,424
633,8	1003,595
634,3	995,395
634,7	991,424
635,2	986,481
635,6	979,995
636,1	972,938
636,5	963,567
636,9	955,91
637,4	946,51
637,8	937,367
638,3	925,538
638,7	916,481
639,2	905,795
639,6	900,824
640	894,481
640,5	890,338
640,9	885,052
641,4	885,51
641,8	884,052
642,2	883,51
642,7	879,91
643,1	881,252
643,6	874,367
644	871,424
644,5	866,452
644,9	855,281
645,3	851,967
645,8	840,91
646,2	832,881
646,7	824,767
647,1	815,538
647,6	810,138
648	810,281
648,4	800,367
648,9	800,567
649,3	791,424
649,8	789,11
650,2	784,967
650,6	782,367
651,1	777,852
651,5	778,795
652	773,11
652,4	766,824
652,9	762,51
653,3	758,881
653,7	752,367
654,2	743,767
654,6	730,681
655,1	726,424
655,5	732,567
655,9	725,852
656,4	719,51
656,8	712,081
657,3	708,224
657,7	713,538
658,2	708,51
658,6	695,367
659	691,71
659,5	683,795
659,9	675,795
660,4	671,652
660,8	662,252
661,2	655,138
661,7	653,452
662,1	652,31
662,6	650,31
663	651,738
663,4	646,195
663,9	639,795
664,3	635,995
664,8	627,081
665,2	613,624
665,6	608,995
666,1	603,052
666,5	600,567
667	595,681
667,4	587,767
667,9	585,767
668,3	583,081
668,7	575,538
669,2	572,11
669,6	568,481
670,1	565,567
670,5	566,624
670,9	558,91
671,4	559,738
671,8	562,024
672,3	559,967
672,7	554,024
673,1	548,538
673,6	541,824
674	543,11
674,5	532,538
674,9	523,681
675,3	517,31
675,8	513,681
676,2	510,51
676,7	504,481
677,1	499,624
677,5	501,595
678	504,167
678,4	505,31
678,9	500,138
679,3	498,052
679,7	497,424
680,2	489,167
680,6	481,395
681,1	473,91
681,5	465,538
681,9	466,51
682,4	467,452
682,8	467,938
683,3	468,767
683,7	472,281
684,1	469,881
684,6	463,024
685	456,824
685,5	451,595
685,9	441,481
686,3	431,195
686,8	424,738
687,2	423,138
687,7	421,281
688,1	412,281
688,5	405,738
689	408,31
689,4	410,252
689,9	410,681
690,3	404,052
690,7	403,852
691,2	408,367
691,6	407,567
692	403,767
692,5	400,31
692,9	393,281
693,4	393,11
693,8	387,938
694,2	381,995
694,7	375,71
695,1	371,424
695,6	371,538
696	369,452
696,4	364,395
696,9	358,995
697,3	353,052
697,8	351,51
698,2	346,567
698,6	345,852
699,1	344,738
699,5	346,338
699,9	348,138
700,4	350,167
700,8	347,195
701,3	347,11
701,7	342,424
702,1	335,681
702,6	328,881
703	329,767
703,5	327,738
703,9	328,681
704,3	328,338
704,8	325,51
705,2	322,91
705,6	325,424
706,1	321,31
706,5	320,167
707	315,995
707,4	313,081
707,8	308,767
708,3	308,081
708,7	304,881
709,2	299,938
709,6	294,167
710	296,367
710,5	289,795
710,9	289,595
711,3	286,681
711,8	283,338
712,2	283,567
712,7	283,452
713,1	278,767
713,5	277,624
714	277,452
714,4	278,081
714,8	278,881
715,3	273,995
715,7	274,052
716,2	269,395
716,6	270,738
717	264,824
717,5	263,224
717,9	265,252
718,3	263,91
718,8	258,138
719,2	257,938
719,7	253,052
720,1	251,681
720,5	251,195
721	240,91
721,4	243,167
721,8	246,138
722,3	243,51
722,7	248,71
723,2	242,538
723,6	233,052
724	232,538
724,5	228,367
724,9	222,795
725,3	219,738
725,8	216,938
726,2	223,795
726,7	224,938
727,1	221,881
727,5	220,567
728	217,767
728,4	215,738
728,8	209,538
729,3	207,624
729,7	202,51
730,1	204,052
730,6	202,852
731	204,567
731,5	204,11
731,9	203,995
732,3	200,795
732,8	208,51
733,2	205,567
733,6	203,595
734,1	202,252
734,5	203,11
734,9	203,824
735,4	203,11
735,8	191,795
736,3	194,538
736,7	192,452
737,1	190,824
737,6	188,624
738	185,624
738,4	183,167
738,9	188,167
739,3	188,738
739,7	187,224
740,2	181,852
740,6	182,938
741,1	184,995
741,5	178,967
741,9	179,052
742,4	174,367
742,8	170,938
743,2	173,224
743,7	164,367
744,1	154,71
744,5	155,224
745	152,852
745,4	147,881
745,8	150,567
746,3	150,51
746,7	151,481
747,2	153,681
747,6	157,795
748	161,338
748,5	164,338
748,9	156,224
749,3	152,338
749,8	156,852
750,2	161,338
750,6	157,824
751,1	153,195
751,5	155,11
751,9	162,167
752,4	162,995
752,8	160,167
753,3	155,481
753,7	157,424
754,1	155,081
754,6	148,224
755	143,538
755,4	141,938
755,9	141,881
756,3	140,281
756,7	138,367
757,2	136,424
757,6	137,424
758	139,595
758,5	138,852
758,9	133,395
759,3	135,367
759,8	132,224
760,2	133,652
760,6	131,424
761,1	131,738
761,5	131,424
761,9	132,938
762,4	126,081
762,8	125,767
763,3	122,938
763,7	125,452
764,1	122,481
764,6	121,738
765	125,995
765,4	128,395
765,9	127,224
766,3	129,395
766,7	123,51
767,2	119,767
767,6	122,167
768	118,195
768,5	117,824
768,9	118,195
769,3	115,167
769,8	115,995
770,2	116,281
770,6	108,395
771,1	113,824
771,5	113,881
771,9	113,367
772,4	114,367
772,8	112,138
773,2	114,481
773,7	116,652
774,1	110,424
774,5	105,367
775	106,224
775,4	104,738
775,8	103,652
776,3	102,395
776,7	102,367
777,1	103,395
777,6	108,195
778	109,767
778,4	107,51
778,9	110,224
779,3	107,195
779,7	104,567
780,2	103,338
780,6	103,195
781	97,881
781,5	99,367
781,9	98,481
782,3	99,624
782,8	101,338
783,2	94,91
783,6	95,281
784,1	93,481
784,5	87,51
784,9	87,91
785,4	86,738
785,8	86,224
786,2	88,252
786,7	86,195
787,1	86,938
787,5	89,795
788	86,967
788,4	85,91
788,8	83,795
789,3	82,138
789,7	81,31
790,1	80,795
790,6	84,595
791	82,938
791,4	86,738
791,9	87,395
792,3	87,71
792,7	90,395
793,2	88,024
793,6	85,824
794	87,081
794,5	81,881
794,9	83,767
795,3	87,681
795,8	81,795
796,2	83,452
796,6	83,081
797,1	80,081
797,5	73,424
797,9	69,738
798,4	63,938
798,8	66,281
799,2	63,938
799,7	62,71
800,1	62,224
800,5	69,795
801	71,281
801,4	70,395
801,8	66,624
802,2	67,081
802,7	63,881
803,1	65,71
803,5	66,51
804	66,71
804,4	68,852
804,8	70,738
805,3	72,338
805,7	70,795
806,1	71,881
806,6	70,595
807	67,31
807,4	63,338
807,9	58,224
808,3	56,338
808,7	57,538
809,2	57,881
809,6	57,081
810	51,652
810,4	57,281
810,9	59,252
811,3	62,852
811,7	63,71
812,2	63,967
812,6	63,452
813	72,167
813,5	69,167
813,9	68,967
814,3	63,281
814,8	63,967
815,2	59,881
815,6	56,395
816,1	56,795
816,5	55,195
816,9	59,881
817,3	60,052
817,8	61,91
818,2	62,91
818,6	61,367
819,1	55,624
819,5	54,081
819,9	50,795
820,4	54,91
820,8	47,367
821,2	44,424
821,7	47,224
822,1	49,51
822,5	54,024
822,9	50,367
823,4	47,567
823,8	54,395
824,2	57,767
824,7	57,538
825,1	51,624
825,5	43,681
826	40,71
826,4	39,624
826,8	32,138
827,3	32,938
827,7	29,795
828,1	34,052
828,5	35,881
829	37,481
829,4	39,11
829,8	40,595
830,3	37,224
830,7	34,852
831,1	35,31
831,6	36,138
832	39,081
832,4	35,795
832,8	39,681
833,3	37,081
833,7	36,681
834,1	31,595
834,6	31,51
835	32,881
835,4	37,224
835,8	33,252
836,3	33,281
836,7	35,738
837,1	39,367
837,6	41,367
838	34,967
838,4	30,195
838,9	29,195
839,3	28,91
839,7	29,824
840,1	25,824
840,6	23,052
841	26,224
841,4	28,881
841,9	28,938
842,3	28,824
842,7	30,31
843,1	32,91
843,6	35,51
844	37,024
844,4	32,738
844,9	35,738
845,3	35,195
845,7	36,795
846,2	34,252
846,6	31,252
847	32,167
847,4	37,481
847,9	33,71
848,3	34,538
848,7	30,91
849,2	31,51
849,6	30,452
850	31,395
850,4	29,052
850,9	32,567
851,3	37,252
851,7	37,167
852,2	37,424
852,6	43,195
853	41,081
853,4	37,624
853,9	34,538
854,3	30,395
854,7	31,995
855,2	29,91
855,6	24,567
856	24,31
856,4	23,995
856,9	22,995
857,3	22,281
857,7	23,738
858,2	28,938
858,6	28,881
859	29,71
859,4	30,395
859,9	30,881
860,3	29,024
860,7	27,338
861,1	25,91
861,6	23,567
862	20,538
862,4	20,481
862,9	21,767
863,3	22,995
863,7	20,024
864,1	17,11
864,6	16,91
865	15,795
865,4	13,681
865,9	12,195
866,3	10,91
866,7	12,195
867,1	13,252
867,6	14,652
868	14,481
868,4	13,281
868,8	15,138
869,3	12,995
869,7	17,538
870,1	14,881
870,6	16,024
871	-57,89
871,4	-49,262
871,8	-53,233
872,3	-44,976
872,7	-49,176
873,1	-48,176
873,5	-46,948
874	27,31
874,4	19,91
874,8	19,652
875,3	14,967
875,7	13,881
876,1	16,252
876,5	10,71
877	10,195
877,4	9,738
877,8	11,51
878,2	18,167
878,7	20,795
879,1	20,795
879,5	25,024
879,9	30,224
880,4	30,538
880,8	31,767
881,2	25,281
881,7	22,367
882,1	22,338
882,5	19,91
882,9	11,51
883,4	8,91
883,8	9,424
884,2	9,367
884,6	4,71
885,1	5,424
885,5	10,138
885,9	11,167
886,3	18,252
886,8	16,052
887,2	13,738
887,6	16,624
888	15,852
888,5	12,167
888,9	14,567
889,3	8,91
889,8	7,481
890,2	9,938
890,6	8,167
891	8,11
891,5	9,71
891,9	9,081
892,3	14,624
892,7	15,281
893,2	16,795
893,6	19,138
894	19,738
894,4	15,738
894,9	17,91
895,3	14,452
895,7	16,481
896,1	9,281
896,6	10,252
897	14,024
897,4	21,567
897,8	22,71
898,3	22,481
898,7	17,852
899,1	22,367
899,5	22,91
900	12,252
900,4	5,71
900,8	0,367
901,2	-3,348
901,7	-4,09
902,1	-3,376
902,5	-3,29
902,9	2,052
903,4	5,567
903,8	7,567
904,2	11,31
904,6	15,967
905,1	16,881
905,5	14,052
905,9	16,11
906,3	15,881
906,8	17,938
907,2	18,024
907,6	18,338
908	18,252
908,5	19,11
908,9	12,167
909,3	10,052
909,7	10,824
910,2	8,024
910,6	10,738
911	6,91
911,4	9,91
911,9	12,081
912,3	13,595
912,7	13,481
913,1	21,167
913,6	16,681
914	18,995
914,4	13,91
914,8	18,31
915,3	17,424
915,7	16,395
916,1	10,024
916,5	9,538
916,9	7,995
917,4	8,91
917,8	5,91
918,2	0,224
918,6	-4,833
919,1	-3,49
919,5	0,567
919,9	2,281
920,3	2,367
920,8	0,91
921,2	7,281
921,6	7,624
922	8,967
922,5	3,71
922,9	2,452
923,3	-0,033
923,7	2,795
924,2	-0,062
924,6	1,395
925	2,567
925,4	3,995
925,8	6,167
926,3	10,167
926,7	7,31
927,1	8,338
927,5	8,824
928	3,681
928,4	3,481
928,8	3,11
929,2	-1,262
929,7	2,824
930,1	4,395
930,5	2,052
930,9	7,824
931,3	3,138
931,8	1,367
932,2	1,681
932,6	-3,548
933	-8,033
933,5	-3,633
933,9	-8,09
934,3	-5,119
934,7	-6,09
935,2	-3,176
935,6	-0,833
936	0,681
936,4	-0,062
936,8	1,595
937,3	0,195
937,7	6,595
938,1	9,224
938,5	7,481
939	9,881
939,4	10,395
939,8	11,081
940,2	14,452
940,6	11,167
941,1	10,167
941,5	15,967
941,9	10,881
942,3	6,91
942,8	9,71
943,2	10,824
943,6	4,567
944	5,452
944,4	-1,462
944,9	-0,662
945,3	-0,948
945,7	-11,062
946,1	-12,662
946,6	-8,776
947	-12,319
947,4	-5,262
947,8	-5,69
948,2	-4,805
948,7	-1,062
949,1	-1,348
949,5	2,31
949,9	2,167
950,3	-0,005
950,8	3,252
951,2	6,081
951,6	5,024
952	10,595
952,5	7,652
952,9	9,338
953,3	6,452
953,7	0,195
954,1	0,71
954,6	4,681
955	-0,148
955,4	-2,119
955,8	-2,719
956,2	-0,49
956,7	3,738
957,1	-0,405
957,5	2,081
957,9	4,538
958,3	4,338
958,8	9,224
959,2	8,995
959,6	12,195
960	14,624
960,5	12,395
960,9	10,767
961,3	8,595
961,7	2,195
962,1	-0,176
962,6	1,624
963	-2,062
963,4	-8,576
963,8	-8,005
964,2	-3,805
964,7	-3,405
965,1	1,681
965,5	-0,833
965,9	1,995
966,3	8,538
966,8	9,167
967,2	6,71
967,6	7,71
968	1,338
968,4	2,538
968,9	4,024
969,3	8,738
969,7	6,995
970,1	10,91
970,5	10,395
971	15,681
971,4	15,91
971,8	13,367
972,2	9,367
972,6	6,567
973,1	2,71
973,5	5,052
973,9	3,395
974,3	-0,633
974,7	4,852
975,2	4,995
975,6	3,967
976	7,195
976,4	1,881
976,8	-1,69
977,3	0,052
977,7	-0,576
978,1	-4,805
978,5	-6,948
978,9	-10,233
979,4	-9,519
979,8	-5,348
980,2	-2,948
980,6	-10,662
981	-2,919
981,5	0,338
981,9	0,938
982,3	3,881
982,7	1,852
983,1	-5,89
983,6	-2,405
984	-8,319
984,4	-7,233
984,8	-7,376
985,2	-8,462
985,6	-10,748
986,1	-4,29
986,5	-3,033
986,9	-7,09
987,3	-2,29
987,7	-0,719
988,2	0,881
988,6	2,338
989	-0,862
989,4	1,024
989,8	2,224
990,3	-1,948
990,7	-2,605
991,1	-3,005
991,5	2,567
991,9	5,195
992,3	6,11
992,8	9,824
993,2	8,624
993,6	9,395
994	10,224
994,4	7,195
994,9	6,424
995,3	2,024
995,7	-0,233
996,1	0,652
996,5	-1,776
996,9	-4,319
997,4	-3,49
997,8	-8,548
998,2	-6,49
998,6	-13,548
999	-14,49
999,5	-14,433
999,9	-12,319
1000,3	-14,89
1000,7	-8,205
1001,1	-8,833
1001,5	1,081
1002	6,681
1002,4	7,624
1002,8	6,824
1003,2	8,138
1003,6	7,795
1004	8,71
1004,5	2,71
1004,9	-1,09
1005,3	-4,176
1005,7	-4,205
1006,1	-8,005
1006,6	-11,948
1007	-15,405
1007,4	-13,49
1007,8	-12,433
1008,2	-12,948
1008,6	-11,462
1009,1	-9,205
1009,5	-5,176
1009,9	-1,205
1010,3	4,481
1010,7	2,195
1011,1	5,71
1011,6	3,795
1012	6,138
1012,4	4,081
1012,8	2,795
1013,2	3,824
1013,6	8,167
1014,1	10,938
1014,5	10,767
1014,9	6,567
1015,3	7,31
1015,7	10,081
1016,1	5,51
1016,6	2,224
1017	-1,748
1017,4	-1,033
1017,8	-3,462
1018,2	-0,405
1018,6	-3,462
1019,1	-7,233
1019,5	-7,005
1019,9	-5,205
1020,3	-3,833
1020,7	3,281
1021,1	-0,633
1021,6	0,052
1022	7,91
1022,4	5,424
1022,8	4,624
1023,2	2,51
1023,6	1,538
1024,1	5,967
1024,5	4,31
1024,9	-3,462
1025,3	-3,548
1025,7	0,024
1026,1	4,367
1026,6	1,367
1027	-0,748
1027,4	2,281
1027,8	5,652
1028,2	2,681
1028,6	2,538
1029	-1,176
1029,5	2,167
1029,9	2,824
1030,3	-1,119
1030,7	0,967
1031,1	11,081
1031,5	6,824
1032	9,167
1032,4	6,938
1032,8	7,567
1033,2	9,795
1033,6	5,595
1034	0,538
1034,4	0,795
1034,9	-0,09
1035,3	-2,405
1035,7	-2,29
1036,1	-6,833
1036,5	-5,805
1036,9	-5,376
1037,4	-1,348
1037,8	-6,805
1038,2	-5,09
1038,6	-7,662
1039	2,738
1039,4	5,824
1039,8	2,881
1040,3	1,081
1040,7	7,052
1041,1	8,338
1041,5	9,052
1041,9	0,652
1042,3	1,538
1042,7	3,995
1043,2	5,281
1043,6	3,31
1044	4,795
1044,4	4,652
1044,8	6,224
1045,2	1,367
1045,6	3,595
1046,1	-0,633
1046,5	-2,348
1046,9	-2,662
1047,3	-5,976
1047,7	-3,69
1048,1	-6,662
1048,5	-8,119
1049	-4,319
1049,4	-5,29
1049,8	-6,09
1050,2	-2,405
1050,6	2,624
1051	8,795
1051,4	9,424
1051,9	3,481
1052,3	11,024
1052,7	10,481
1053,1	6,424
1053,5	-2,262
1053,9	-6,862
1054,3	-10,09
1054,8	-2,605
1055,2	-1,205
1055,6	2,138
1056	6,281
1056,4	8,681
1056,8	15,138
1057,2	17,081
1057,6	11,681
1058,1	2,567
1058,5	-3,719
1058,9	-2,148
1059,3	-3,433
1059,7	-6,033
1060,1	-2,348
1060,5	-2,976
1061	1,081
1061,4	3,167
1061,8	1,567
1062,2	1,995
1062,6	4,367
1063	3,481
1063,4	5,681
1063,8	1,71
1064,3	1,367
1064,7	1,452
1065,1	2,452
1065,5	-2,405
1065,9	-7,062
1066,3	-4,919
1066,7	-3,376
1067,1	-9,862
1067,6	-9,262
1068	-14,948
1068,4	-15,548
1068,8	-12,776
1069,2	-16,376
1069,6	-16,948
1070	-7,833
1070,4	-9,519
1070,9	-7,376
1071,3	-6,49
1071,7	-9,119
1072,1	-6,29
1072,5	-10,405
1072,9	-11,519
1073,3	-10,119
1073,7	-10,919
1074,2	-7,605
1074,6	-5,719
1075	-5,862
1075,4	-2,976
1075,8	0,395
1076,2	0,881
1076,6	8,481
1077	5,31
1077,5	8,081
1077,9	5,167
1078,3	8,081
1078,7	2,881
1079,1	-1,49
1079,5	-5,205
1079,9	-0,89
1080,3	1,252
1080,7	4,738
1081,2	7,538
1081,6	7,138
1082	5,51
1082,4	9,71
1082,8	10,967
1083,2	6,338
1083,6	6,395
1084	2,767
1084,5	4,595
1084,9	7,852
1085,3	0,281
1085,7	1,91
1086,1	4,11
1086,5	4,081
1086,9	5,195
1087,3	7,367
1087,7	6,652
1088,2	8,052
1088,6	1,795
1089	2,024
1089,4	1,652
1089,8	4,281
1090,2	3,595
1090,6	7,424
1091	8,995
1091,4	11,138
1091,9	7,795
1092,3	5,338
1092,7	-0,462
1093,1	3,767
1093,5	1,938
1093,9	3,624
1094,3	5,852
1094,7	7,824
1095,1	8,138
1095,5	11,024
1096	4,281
1096,4	3,052
1096,8	-0,262
1097,2	-2,49
1097,6	0,052
1098	1,252
1098,4	5,281
1098,8	7,138
1099,2	12,31
1099,6	14,452
1100,1	9,995
1100,5	6,081
1100,9	3,967
1101,3	-0,605
1101,7	-4,719
1102,1	-7,262
1102,5	-6,005
1102,9	-0,119
1103,3	1,567
1103,7	4,481
1104,2	5,995
1104,6	9,995
1105	6,338
1105,4	4,567
1105,8	1,71
1106,2	0,281
1106,6	-0,348
1107	-1,233
1107,4	-2,8
1107,8	-0,633
1108,3	-0,533
