Data from Subt2_038.txt Node
Date: Sat Aug 26 16:23:59 MSK 2023
User: vat
Spectrometer: MAYP114033
Trigger mode: 0
Integration Time (sec): 1,000000E0
Scans to average: 5
Electric dark correction enabled: true
Nonlinearity correction enabled: false
Boxcar width: 3
XAxis mode: Wavelengths
Number of Pixels in Spectrum: 2068
>>>>>Begin Spectral Data<<<<<
199,4	-0,65
199,9	-4,94
200,4	-7
200,8	-6,443
201,3	-5,214
201,8	-5,157
202,2	-3,043
202,7	-0,814
203,2	2,786
203,6	5,129
204,1	4,671
204,6	7,671
205	10,271
205,5	6,729
206	4,643
206,4	5,7
206,9	6,557
207,4	8,757
207,8	5,157
208,3	3,129
208,8	6,7
209,2	10,271
209,7	11,271
210,2	15,9
210,6	15,443
211,1	14,586
211,5	13,386
212	8,271
212,5	3,557
212,9	-0,129
213,4	-3,014
213,9	-3,586
214,3	-1,243
214,8	2,929
215,3	6,986
215,7	6,471
216,2	13,557
216,7	11,1
217,1	10,471
217,6	7,9
218,1	4,814
218,5	2,729
219	12,614
219,5	8,986
219,9	11,386
220,4	10,729
220,9	14,214
221,3	14,443
221,8	14,271
222,3	6,529
222,7	2,243
223,2	2,357
223,6	3,843
224,1	3,157
224,6	3,586
225	3,757
225,5	9,643
226	11,471
226,4	11,986
226,9	11,814
227,4	12,529
227,8	13,786
228,3	17,757
228,8	13,186
229,2	12,214
229,7	9,871
230,2	12,957
230,6	8,929
231,1	10,9
231,5	11,271
232	15,186
232,5	18,814
232,9	16,729
233,4	16,957
233,9	19,614
234,3	18,071
234,8	18,614
235,3	15,614
235,7	17,014
236,2	16,643
236,7	11,843
237,1	7,757
237,6	6,271
238,1	7,271
238,5	4,329
239	0,786
239,4	3,871
239,9	5,1
240,4	7,871
240,8	8,357
241,3	1,7
241,8	4,043
242,2	1,9
242,7	2,9
243,2	2,5
243,6	3,186
244,1	1,929
244,6	0,729
245	1,014
245,5	3,443
245,9	-1,129
246,4	-5,471
246,9	-6,443
247,3	-9,643
247,8	-7,014
248,3	-4,043
248,7	0,729
249,2	1,643
249,7	3,814
250,1	2,243
250,6	5,843
251	10,3
251,5	4,357
252	0,357
252,4	0,671
252,9	2,471
253,4	2,643
253,8	1,243
254,3	-2,414
254,8	0,5
255,2	-1,443
255,7	1,357
256,1	0,157
256,6	0,871
257,1	3,243
257,5	6,1
258	5,614
258,5	7,3
258,9	9,129
259,4	13,671
259,9	19,271
260,3	17,643
260,8	16,329
261,2	19,5
261,7	22,3
262,2	18,271
262,6	14,214
263,1	7,557
263,6	10,7
264	9,243
264,5	8,757
264,9	3,671
265,4	5,329
265,9	7,014
266,3	8,957
266,8	1,986
267,3	5,557
267,7	4,529
268,2	3,9
268,7	3,786
269,1	2,957
269,6	5,529
270	13,243
270,5	9,7
271	6,757
271,4	3,929
271,9	3,043
272,4	4,386
272,8	-0,814
273,3	-2,757
273,7	-4,243
274,2	-4,557
274,7	-0,929
275,1	0,1
275,6	-0,586
276,1	3,9
276,5	5,357
277	8,329
277,4	11,129
277,9	12,414
278,4	14,271
278,8	21,471
279,3	21,814
279,8	19,929
280,2	18,414
280,7	15,443
281,1	18,214
281,6	19,214
282,1	14,443
282,5	13,843
283	13,129
283,4	11,1
283,9	9,671
284,4	7,157
284,8	2,271
285,3	-3,129
285,8	-6,471
286,2	-7,071
286,7	-3,071
287,1	-4,614
287,6	-4,043
288,1	-3,814
288,5	-2,414
289	-2,271
289,5	-4,986
289,9	-11,071
290,4	-7,643
290,8	-4,329
291,3	-5,157
291,8	-7,214
292,2	-3,871
292,7	0,786
293,1	2,729
293,6	6,643
294,1	-0,757
294,5	2,271
295	5,443
295,5	9,814
295,9	9,586
296,4	12,414
296,8	5,9
297,3	13,414
297,8	10,871
298,2	10,843
298,7	4,329
299,1	5,557
299,6	4,643
300,1	8,329
300,5	6,786
301	11,1
301,5	12,586
301,9	11,471
302,4	6,5
302,8	5,129
303,3	7,9
303,8	2,1
304,2	2,843
304,7	3,871
305,1	7,271
305,6	6,129
306,1	7,157
306,5	3,3
307	4,7
307,4	-0,243
307,9	0,7
308,4	0,586
308,8	9,043
309,3	9,386
309,8	13,986
310,2	13,757
310,7	23,386
311,1	19,614
311,6	19,529
312,1	17,929
312,5	17,014
313	12,043
313,4	14,5
313,9	11,271
314,4	9,529
314,8	10,7
315,3	8,243
315,7	10,757
316,2	8,414
316,7	9,671
317,1	5,157
317,6	8,414
318	6,814
318,5	7,186
319	7,386
319,4	13,071
319,9	11,357
320,3	12,414
320,8	12,671
321,3	11,614
321,7	9,586
322,2	10,329
322,6	4,214
323,1	3,186
323,6	0,586
324	0,871
324,5	0,014
324,9	2,186
325,4	3,3
325,9	7,386
326,3	8,271
326,8	10,043
327,2	9,214
327,7	12,014
328,2	13,1
328,6	11,186
329,1	9,7
329,5	11,5
330	11,071
330,5	13,129
330,9	14,871
331,4	10,186
331,8	13,414
332,3	19,871
332,8	19,9
333,2	18,386
333,7	17,186
334,1	18,214
334,6	22,843
335,1	18,614
335,5	16,9
336	12,7
336,4	14,157
336,9	15,757
337,4	11,614
337,8	11,871
338,3	13,014
338,7	11,3
339,2	17,786
339,7	18,071
340,1	17,871
340,6	18,957
341	21,871
341,5	20,929
342	20,414
342,4	14,214
342,9	8,386
343,3	7,071
343,8	9,3
344,2	7,557
344,7	8,9
345,2	2,186
345,6	4,186
346,1	13,757
346,5	15,3
347	11,986
347,5	5,586
347,9	6,214
348,4	11,186
348,8	14,3
349,3	10,214
349,8	12,5
350,2	16,386
350,7	20,786
351,1	23,014
351,6	30,471
352	38,986
352,5	49,1
353	58,586
353,4	68,043
353,9	87,214
354,3	106,243
354,8	121,986
355,3	142,843
355,7	169,357
356,2	193,271
356,6	228,5
357,1	265,414
357,5	306,3
358	363,671
358,5	424,271
358,9	495,271
359,4	580,443
359,8	668,186
360,3	767,5
360,8	879,529
361,2	1003,329
361,7	1140,929
362,1	1295,586
362,6	1464,071
363	1646,614
363,5	1842,557
364	2046,414
364,4	2254,014
364,9	2462,814
365,3	2663,014
365,8	2856,7
366,3	3041,471
366,7	3203,7
367,2	3351,214
367,6	3470,614
368,1	3564,643
368,5	3628,871
369	3659,814
369,5	3666,671
369,9	3639,529
370,4	3575,186
370,8	3491,557
371,3	3384,671
371,7	3260,271
372,2	3121,1
372,7	2957,1
373,1	2797,3
373,6	2635,529
374	2464,443
374,5	2300,157
374,9	2140,786
375,4	1983,786
375,9	1842,729
376,3	1698,129
376,8	1567,071
377,2	1449,729
377,7	1329,9
378,2	1215,729
378,6	1117,043
379,1	1023,871
379,5	942,329
380	867,814
380,4	794,443
380,9	730,529
381,4	675,986
381,8	620,757
382,3	567,614
382,7	519,957
383,2	477,414
383,6	439,5
384,1	409,786
384,6	373,1
385	344,957
385,5	321,071
385,9	307,957
386,4	286,529
386,8	271,443
387,3	252,3
387,7	244,157
388,2	230,957
388,7	216,871
389,1	198,329
389,6	186,386
390	171,586
390,5	159,443
390,9	149,7
391,4	142,986
391,9	132,814
392,3	118,614
392,8	112,557
393,2	104,529
393,7	100,043
394,1	91,471
394,6	83,7
395,1	81,1
395,5	80,643
396	76,471
396,4	74,071
396,9	71,3
397,3	66,129
397,8	62,843
398,2	62,3
398,7	59,443
399,2	53,214
399,6	54,843
400,1	49,357
400,5	50,3
401	51,557
401,4	47,471
401,9	50,186
402,4	52,214
402,8	51,871
403,3	51,243
403,7	51,271
404,2	51,814
404,6	51,614
405,1	48,9
405,5	48,386
406	46,414
406,5	49,357
406,9	52,414
407,4	56,414
407,8	64,471
408,3	68,643
408,7	77,071
409,2	81,1
409,6	88,271
410,1	93,843
410,6	96,071
411	99,443
411,5	106,929
411,9	108,643
412,4	120,786
412,8	127,5
413,3	133,671
413,7	142,929
414,2	154,843
414,7	169,586
415,1	180,357
415,6	192,043
416	205,871
416,5	218,643
416,9	230,7
417,4	239,586
417,8	248,129
418,3	264,386
418,8	272,243
419,2	287,786
419,7	305,7
420,1	319,871
420,6	338,843
421	356,271
421,5	372,757
421,9	397,129
422,4	414,186
422,8	434,557
423,3	460,443
423,8	486,871
424,2	514,557
424,7	541,5
425,1	563,1
425,6	597,843
426	628,9
426,5	657,557
426,9	688,471
427,4	722,014
427,9	755,214
428,3	795,557
428,8	828,843
429,2	864,243
429,7	901,557
430,1	946,843
430,6	989,671
431	1044,557
431,5	1096,757
431,9	1153,671
432,4	1215,586
432,8	1286,414
433,3	1348,271
433,8	1421,271
434,2	1491,157
434,7	1560,329
435,1	1638,014
435,6	1719,986
436	1800,271
436,5	1891,814
436,9	1977,443
437,4	2075,471
437,8	2176,643
438,3	2282,7
438,8	2383,814
439,2	2495,414
439,7	2603,214
440,1	2723,271
440,6	2847,1
441	2973,9
441,5	3099,071
441,9	3237,757
442,4	3383,614
442,8	3533,957
443,3	3689,643
443,7	3839,014
444,2	4001,529
444,7	4164,014
445,1	4328,557
445,6	4494,957
446	4672,729
446,5	4847,471
446,9	5039,157
447,4	5230,471
447,8	5424,443
448,3	5634,786
448,7	5841,3
449,2	6046,786
449,6	6255,671
450,1	6468,671
450,6	6684,5
451	6903,729
451,5	7128,243
451,9	7359,986
452,4	7599,529
452,8	7847,614
453,3	8089,471
453,7	8342,414
454,2	8605,329
454,6	8873,529
455,1	9136,129
455,5	9397,814
456	9662,214
456,4	9931,471
456,9	10206,843
457,3	10491,043
457,8	10755,443
458,3	11046,243
458,7	11336,214
459,2	11634,643
459,6	11930,329
460,1	12218,843
460,5	12506,329
461	12805,014
461,4	13099,471
461,9	13392,386
462,3	13683,014
462,8	13983,3
463,2	14274,557
463,7	14574,929
464,1	14875,614
464,6	15160,214
465	15453,243
465,5	15753,5
466	16051,814
466,4	16353,586
466,9	16651,157
467,3	16937,843
467,8	17237,871
468,2	17533,214
468,7	17809,929
469,1	18087,643
469,6	18372,871
470	18635,814
470,5	18909,043
470,9	19182,329
471,4	19442,729
471,8	19703,329
472,3	19949,471
472,7	20202,843
473,2	20453,557
473,6	20687,643
474,1	20905,529
474,5	21141,786
475	21376,1
475,4	21615,386
475,9	21835,1
476,4	22059,386
476,8	22281,043
477,3	22486,329
477,7	22698,871
478,2	22901,586
478,6	23087,786
479,1	23259,329
479,5	23428,843
480	23589,7
480,4	23754,414
480,9	23888,586
481,3	24019,471
481,8	24140,357
482,2	24262,929
482,7	24377,9
483,1	24492,643
483,6	24597,3
484	24695,614
484,5	24781,843
484,9	24873,471
485,4	24944,529
485,8	25014,786
486,3	25068,843
486,7	25125,386
487,2	25156,5
487,6	25190,586
488,1	25217,557
488,5	25247,157
489	25245,9
489,4	25259,043
489,9	25253,729
490,4	25250,471
490,8	25242,243
491,3	25223,757
491,7	25186,129
492,2	25156,871
492,6	25119,186
493,1	25060,357
493,5	25003,471
494	24943,3
494,4	24852,014
494,9	24793,786
495,3	24730,271
495,8	24648,386
496,2	24570,157
496,7	24488,3
497,1	24398,786
497,6	24313,443
498	24210,9
498,5	24098,014
498,9	23972,957
499,4	23878,3
499,8	23761,757
500,3	23642,671
500,7	23537,129
501,2	23427,7
501,6	23306,386
502,1	23188,157
502,5	23036,643
503	22920,271
503,4	22787,3
503,9	22652,729
504,3	22503,186
504,8	22357,814
505,2	22213,157
505,7	22066,7
506,1	21900,329
506,6	21728,871
507	21565,157
507,5	21403,5
507,9	21235,186
508,4	21058,329
508,8	20895,071
509,3	20716,643
509,7	20556,9
510,2	20371,271
510,6	20181,043
511,1	20011,214
511,5	19836,986
512	19664,3
512,4	19500,043
512,9	19313,671
513,3	19148,357
513,8	18979,814
514,2	18793,786
514,7	18619,586
515,1	18437,757
515,6	18256,7
516	18079,271
516,5	17904,3
516,9	17724,843
517,4	17560,357
517,8	17375,814
518,3	17188,1
518,7	17003,271
519,2	16822,1
519,6	16630,757
520,1	16442,471
520,5	16251,786
521	16065,929
521,4	15898,929
521,9	15726,757
522,3	15554,9
522,8	15394,557
523,2	15230,814
523,7	15068,414
524,1	14919,186
524,6	14753,843
525	14599,243
525,5	14444,157
525,9	14269,871
526,4	14108,471
526,8	13945,043
527,3	13788,414
527,7	13636,214
528,2	13468,586
528,6	13314,7
529,1	13168,157
529,5	13018,929
530	12881,5
530,4	12733,786
530,9	12573,357
531,3	12431,157
531,8	12289,129
532,2	12145,5
532,6	12014,329
533,1	11862,614
533,5	11723,529
534	11600,986
534,4	11475,3
534,9	11345,443
535,3	11222,557
535,8	11088,586
536,2	10957,471
536,7	10831,929
537,1	10703,9
537,6	10582,357
538	10456,186
538,5	10333,557
538,9	10217,986
539,4	10108,357
539,8	9991,643
540,3	9876,214
540,7	9753,871
541,2	9649,014
541,6	9549,014
542,1	9444,186
542,5	9340,043
543	9236,3
543,4	9140,757
543,9	9040,729
544,3	8934,329
544,8	8826,671
545,2	8731,786
545,7	8639,214
546,1	8545,986
546,5	8453,5
547	8366,9
547,4	8276,243
547,9	8187,643
548,3	8094,5
548,8	8004,5
549,2	7926,729
549,7	7841,1
550,1	7761,557
550,6	7676,7
551	7603,043
551,5	7523,586
551,9	7447,1
552,4	7365,414
552,8	7289,186
553,3	7213,329
553,7	7146,586
554,2	7069,529
554,6	6992,214
555,1	6924,214
555,5	6860,186
555,9	6796,986
556,4	6725,929
556,8	6657,929
557,3	6589,329
557,7	6533,471
558,2	6471,3
558,6	6407,414
559,1	6339,614
559,5	6280,671
560	6224,214
560,4	6162,243
560,9	6103,386
561,3	6046,757
561,8	5993,529
562,2	5936,043
562,7	5885,529
563,1	5833,929
563,6	5784,786
564	5729,871
564,4	5675,243
564,9	5617,671
565,3	5573,614
565,8	5524,529
566,2	5474,071
566,7	5423,814
567,1	5380,157
567,6	5327,243
568	5287,129
568,5	5238,643
568,9	5186,471
569,4	5139,471
569,8	5094,157
570,3	5047,071
570,7	5006,843
571,1	4956,814
571,6	4909,414
572	4873,243
572,5	4822,3
572,9	4790,5
573,4	4747,614
573,8	4700,071
574,3	4660,843
574,7	4625,586
575,2	4576,014
575,6	4544,014
576,1	4496,071
576,5	4456,214
576,9	4422,414
577,4	4382,043
577,8	4342,471
578,3	4307,7
578,7	4272,443
579,2	4240,129
579,6	4209,129
580,1	4176,814
580,5	4143,814
581	4110,271
581,4	4087,3
581,9	4053,986
582,3	4015,5
582,7	3982,014
583,2	3949,043
583,6	3915,757
584,1	3879,786
584,5	3842,957
585	3810,5
585,4	3781,729
585,9	3751,043
586,3	3722,1
586,8	3687,014
587,2	3657,243
587,6	3628,643
588,1	3603,557
588,5	3570,929
589	3539,157
589,4	3507,5
589,9	3484,843
590,3	3459,071
590,8	3426,329
591,2	3397,271
591,7	3377,357
592,1	3351,243
592,5	3335,5
593	3308,243
593,4	3286,1
593,9	3259,757
594,3	3234,929
594,8	3209,614
595,2	3193,643
595,7	3167,586
596,1	3152,471
596,6	3137,3
597	3124,529
597,4	3104,586
597,9	3076,929
598,3	3055,729
598,8	3029,271
599,2	2998,7
599,7	2971,357
600,1	2949,3
600,6	2929,014
601	2913,643
601,4	2894,1
601,9	2875,329
602,3	2865,929
602,8	2847,071
603,2	2832,357
603,7	2814,786
604,1	2799,243
604,6	2768,986
605	2751,814
605,4	2730,471
605,9	2710,7
606,3	2683,471
606,8	2657,3
607,2	2634,529
607,7	2629,814
608,1	2614,157
608,6	2592,929
609	2576,243
609,4	2563,786
609,9	2556,129
610,3	2538,5
610,8	2522,757
611,2	2498,671
611,7	2482,043
612,1	2462,757
612,6	2447,071
613	2428,671
613,4	2412,729
613,9	2388,186
614,3	2377,5
614,8	2359,671
615,2	2350,414
615,7	2328,5
616,1	2306,5
616,6	2292,7
617	2272,329
617,4	2254,871
617,9	2241,043
618,3	2224,414
618,8	2211,129
619,2	2203,071
619,7	2193,557
620,1	2183,5
620,5	2173,271
621	2158,271
621,4	2139,014
621,9	2123,129
622,3	2107,957
622,8	2086,014
623,2	2068,471
623,6	2049,5
624,1	2039,757
624,5	2026,871
625	2008,271
625,4	1991,729
625,9	1977,214
626,3	1965,986
626,8	1951,7
627,2	1929,243
627,6	1911,586
628,1	1901,586
628,5	1888,157
629	1881,386
629,4	1866,043
629,9	1853,443
630,3	1844,186
630,7	1835,957
631,2	1824,843
631,6	1812,329
632,1	1793,414
632,5	1783,557
633	1765,243
633,4	1747,529
633,8	1726,386
634,3	1716,757
634,7	1701,843
635,2	1694,843
635,6	1680,471
636,1	1676,786
636,5	1673,786
636,9	1668,071
637,4	1654,529
637,8	1642,586
638,3	1622,043
638,7	1611,014
639,2	1594,243
639,6	1577,414
640	1562,957
640,5	1548,071
640,9	1534,843
641,4	1526,357
641,8	1517,186
642,2	1509,071
642,7	1500,129
643,1	1496,786
643,6	1487,471
644	1483,243
644,5	1476,929
644,9	1465,729
645,3	1454,814
645,8	1447,586
646,2	1436,729
646,7	1428,129
647,1	1415,443
647,6	1399,414
648	1391,214
648,4	1382,786
648,9	1374,957
649,3	1362,814
649,8	1351,243
650,2	1341,614
650,6	1340,386
651,1	1336,643
651,5	1327,357
652	1313,7
652,4	1305,357
652,9	1299,271
653,3	1292,443
653,7	1279,443
654,2	1267,614
654,6	1255,071
655,1	1244,329
655,5	1235,414
655,9	1224,557
656,4	1215,671
656,8	1206,9
657,3	1193,129
657,7	1184,5
658,2	1181,043
658,6	1168,186
659	1160,729
659,5	1154,529
659,9	1150,871
660,4	1145,386
660,8	1145,014
661,2	1133,957
661,7	1134,614
662,1	1126,357
662,6	1118,843
663	1109,043
663,4	1105,386
663,9	1095,643
664,3	1090,957
664,8	1077,929
665,2	1072,671
665,6	1062,729
666,1	1052,1
666,5	1041,643
667	1024,843
667,4	1016,243
667,9	1010,386
668,3	999,871
668,7	991,586
669,2	987,214
669,6	978,7
670,1	979,671
670,5	970,614
670,9	966,443
671,4	956,957
671,8	949,9
672,3	942,443
672,7	933,157
673,1	925,3
673,6	918,729
674	914,471
674,5	912,671
674,9	907,529
675,3	900,871
675,8	898,3
676,2	896,329
676,7	890,557
677,1	879,329
677,5	874,443
678	869,214
678,4	861,214
678,9	856,271
679,3	843,529
679,7	839,443
680,2	834,814
680,6	823,643
681,1	811,357
681,5	809,271
681,9	799,329
682,4	796,814
682,8	787,9
683,3	778,557
683,7	776,271
684,1	773,214
684,6	766,729
685	764,443
685,5	757,443
685,9	754,186
686,3	748,729
686,8	745,443
687,2	743,643
687,7	736,7
688,1	730,586
688,5	727,129
689	721,643
689,4	719,786
689,9	711,986
690,3	706,957
690,7	699,443
691,2	695,129
691,6	686,329
692	680,786
692,5	673,414
692,9	667,871
693,4	658,671
693,8	656,843
694,2	648,614
694,7	647,529
695,1	643,871
695,6	637,986
696	631,614
696,4	628,243
696,9	626,129
697,3	622,786
697,8	617,243
698,2	610,443
698,6	610,243
699,1	606,729
699,5	603,357
699,9	597,5
700,4	591,871
700,8	590,271
701,3	586,929
701,7	578,471
702,1	579,757
702,6	575,7
703	566,7
703,5	564,814
703,9	557,471
704,3	556,929
704,8	558,271
705,2	548,357
705,6	538,471
706,1	544,729
706,5	540,814
707	535,7
707,4	535,071
707,8	527,1
708,3	524,043
708,7	527,071
709,2	516,357
709,6	511,357
710	506,5
710,5	500,471
710,9	494,186
711,3	489,386
711,8	486,214
712,2	484,614
712,7	481,757
713,1	479,357
713,5	470,7
714	470,957
714,4	466,414
714,8	462,071
715,3	457,214
715,7	450,043
716,2	448,671
716,6	447,586
717	444,043
717,5	447,129
717,9	438,729
718,3	439,529
718,8	441,1
719,2	436,243
719,7	434,871
720,1	431,186
720,5	424,786
721	422,329
721,4	419,643
721,8	415,357
722,3	412,843
722,7	402,386
723,2	400,071
723,6	398,786
724	397,929
724,5	388,929
724,9	387,157
725,3	380,929
725,8	378,729
726,2	374,471
726,7	367,757
727,1	362,957
727,5	363,014
728	357,529
728,4	358,414
728,8	360,214
729,3	356,929
729,7	359,843
730,1	360,243
730,6	353,529
731	354,271
731,5	351,757
731,9	349,843
732,3	352,5
732,8	347,157
733,2	342,557
733,6	342,386
734,1	337,529
734,5	332,643
734,9	330,671
735,4	325,329
735,8	324,614
736,3	324,557
736,7	326,614
737,1	326,871
737,6	326,757
738	321,243
738,4	322,014
738,9	320,814
739,3	315,243
739,7	308,7
740,2	307,443
740,6	307,7
741,1	304,786
741,5	298,614
741,9	292,529
742,4	293,757
742,8	295,7
743,2	292,9
743,7	289,729
744,1	285,843
744,5	286,271
745	287,3
745,4	284,129
745,8	280,5
746,3	278,043
746,7	277,1
747,2	290,471
747,6	284,043
748	279,814
748,5	276,843
748,9	275,357
749,3	275,443
749,8	269,014
750,2	257,243
750,6	260,757
751,1	260,5
751,5	259,214
751,9	256,386
752,4	253,186
752,8	250,786
753,3	247,786
753,7	246,3
754,1	244,757
754,6	245,071
755	243,9
755,4	242,357
755,9	244,414
756,3	241,786
756,7	235,129
757,2	228,9
757,6	226,671
758	221,014
758,5	218,129
758,9	217,186
759,3	213,7
759,8	216,871
760,2	222,9
760,6	222,557
761,1	223,186
761,5	224,957
761,9	222,386
762,4	222,957
762,8	218,643
763,3	212,357
763,7	207,357
764,1	202,986
764,6	200,471
765	198,186
765,4	200,9
765,9	198,986
766,3	197,414
766,7	202,671
767,2	206,271
767,6	202,7
768	202,414
768,5	197,557
768,9	192,929
769,3	193,843
769,8	189,9
770,2	191,357
770,6	189,1
771,1	190,529
771,5	190,871
771,9	191,614
772,4	196,186
772,8	195,871
773,2	192,871
773,7	192,929
774,1	192,871
774,5	191,929
775	190,7
775,4	183,3
775,8	181,843
776,3	178,1
776,7	177,3
777,1	170,929
777,6	167,386
778	169,986
778,4	169,3
778,9	165,843
779,3	166,814
779,7	164,557
780,2	162,5
780,6	167,129
781	165,843
781,5	165,129
781,9	165,986
782,3	163,443
782,8	162,214
783,2	164,071
783,6	156,214
784,1	155,671
784,5	153,7
784,9	151,671
785,4	151,729
785,8	144,957
786,2	145,043
786,7	142,986
787,1	140,3
787,5	141,443
788	140,386
788,4	138,5
788,8	143,7
789,3	141,129
789,7	143,129
790,1	142,786
790,6	141,243
791	141,386
791,4	140,243
791,9	141,043
792,3	142,9
792,7	146,471
793,2	143,414
793,6	143,757
794	142,014
794,5	140,986
794,9	141,757
795,3	136,329
795,8	131,557
796,2	134,471
796,6	128,014
797,1	124,471
797,5	124,443
797,9	120,414
798,4	122,043
798,8	123,586
799,2	122,757
799,7	127,186
800,1	128,557
800,5	126,071
801	126,557
801,4	121,786
801,8	117,814
802,2	115,329
802,7	110,871
803,1	108,5
803,5	110,814
804	106,929
804,4	108,214
804,8	109,643
805,3	103,357
805,7	104,271
806,1	111,986
806,6	109,757
807	110,614
807,4	106,643
807,9	106,929
808,3	108,443
808,7	105,729
809,2	100,243
809,6	97,814
810	100,671
810,4	102,586
810,9	99,443
811,3	100,614
811,7	104,014
812,2	104,843
812,6	106,214
813	103,214
813,5	104,814
813,9	103,929
814,3	100,614
814,8	97,5
815,2	92,1
815,6	87,843
816,1	87,7
816,5	85,729
816,9	86,1
817,3	88,3
817,8	90,357
818,2	87,329
818,6	89,986
819,1	90,329
819,5	92,786
819,9	90,814
820,4	91,471
820,8	87,843
821,2	93,871
821,7	95,129
822,1	91,043
822,5	86,929
822,9	90,214
823,4	87,729
823,8	89,643
824,2	87,043
824,7	87,843
825,1	86,671
825,5	95,214
826	90,357
826,4	93,014
826,8	94,529
827,3	91,814
827,7	90,843
828,1	90,5
828,5	85,1
829	82,729
829,4	83,614
829,8	76,043
830,3	76,614
830,7	71,243
831,1	69,843
831,6	65,014
832	65,157
832,4	61,671
832,8	62,443
833,3	57,414
833,7	60,871
834,1	61,957
834,6	59,1
835	63,5
835,4	64,271
835,8	60,214
836,3	59,757
836,7	55,614
837,1	56,643
837,6	58,929
838	54,3
838,4	50,9
838,9	58,957
839,3	63,3
839,7	60,186
840,1	54,043
840,6	55,929
841	56,071
841,4	57,186
841,9	51,357
842,3	51,014
842,7	53,357
843,1	59,957
843,6	60,414
844	58,243
844,4	55,929
844,9	58,186
845,3	57,557
845,7	59,7
846,2	60,443
846,6	55,243
847	59,043
847,4	61,357
847,9	60,071
848,3	58,071
848,7	55,729
849,2	52,3
849,6	52,671
850	48,843
850,4	45,729
850,9	44,071
851,3	44,414
851,7	48,329
852,2	44,529
852,6	43,957
853	49,871
853,4	54,357
853,9	56,214
854,3	55,129
854,7	48,271
855,2	49,186
855,6	47,7
856	41,329
856,4	37,529
856,9	30,129
857,3	29,014
857,7	35,329
858,2	34,014
858,6	39,214
859	37,186
859,4	34,386
859,9	39,1
860,3	43,557
860,7	38,529
861,1	40,357
861,6	36,957
862	38,214
862,4	41,471
862,9	42,643
863,3	37,214
863,7	36,414
864,1	33,871
864,6	33,1
865	35,357
865,4	27,7
865,9	21,671
866,3	22,986
866,7	22,986
867,1	27,271
867,6	30,957
868	28,871
868,4	30,757
868,8	36,071
869,3	33,271
869,7	32,129
870,1	33,814
870,6	27,529
871	29,214
871,4	28,871
871,8	26,671
872,3	30,329
872,7	33,329
873,1	32,957
873,5	34,614
874	32,786
874,4	34,871
874,8	35,5
875,3	33,7
875,7	27,986
876,1	23,643
876,5	27,529
877	28,471
877,4	31,5
877,8	33,043
878,2	32,471
878,7	39,671
879,1	41,729
879,5	39,186
879,9	37,271
880,4	30,786
880,8	30,614
881,2	32,471
881,7	30,529
882,1	30,529
882,5	26,3
882,9	25,957
883,4	35,357
883,8	32,5
884,2	28,071
884,6	24,014
885,1	23,357
885,5	29,043
885,9	31,1
886,3	23,986
886,8	21,5
887,2	22,757
887,6	20,929
888	17,9
888,5	18,9
888,9	14,1
889,3	11,071
889,8	15,843
890,2	11,471
890,6	16,357
891	18,957
891,5	14,929
891,9	21,329
892,3	24,9
892,7	23,243
893,2	30,471
893,6	26,329
894	24,843
894,4	27,243
894,9	24,557
895,3	25,043
895,7	23,671
896,1	24,129
896,6	24,471
897	26,357
897,4	19,071
897,8	20,329
898,3	23,529
898,7	23,986
899,1	20,529
899,5	17,557
900	15,071
900,4	15,986
900,8	15,243
901,2	13,157
901,7	13,3
902,1	14,529
902,5	21,757
902,9	22,614
903,4	28,814
903,8	23,071
904,2	25,3
904,6	21,214
905,1	23,871
905,5	18,671
905,9	17,386
906,3	15,043
906,8	18,471
907,2	13,129
907,6	17,471
908	14,243
908,5	18,671
908,9	20,557
909,3	21,1
909,7	23,214
910,2	24,786
910,6	23,729
911	23,871
911,4	21,214
911,9	19,729
912,3	15,043
912,7	16,014
913,1	11,071
913,6	14,7
914	14,214
914,4	14,814
914,8	14,957
915,3	15,271
915,7	10,1
916,1	10,357
916,5	7,5
916,9	2,529
917,4	2,414
917,8	1,157
918,2	-0,443
918,6	0,471
919,1	4,014
919,5	3,586
919,9	7,1
920,3	6,671
920,8	8,186
921,2	15,3
921,6	15,443
922	12,129
922,5	14,729
922,9	11,586
923,3	13,9
923,7	9,471
924,2	2,186
924,6	4,329
925	6,3
925,4	4,957
925,8	5,1
926,3	2,071
926,7	3,929
927,1	5,843
927,5	5,243
928	4,214
928,4	4,529
928,8	13,814
929,2	15,757
929,7	13,329
930,1	13,929
930,5	10,1
930,9	16,043
931,3	12,9
931,8	4,157
932,2	1,129
932,6	7,414
933	1,957
933,5	3,129
933,9	-2,757
934,3	-0,986
934,7	3,643
935,2	3,414
935,6	2,529
936	7,729
936,4	10,929
936,8	12,271
937,3	12,386
937,7	10,557
938,1	11,071
938,5	7,986
939	11,757
939,4	8,471
939,8	10,871
940,2	8,271
940,6	8,386
941,1	11,614
941,5	12,957
941,9	12,5
942,3	10,843
942,8	11,614
943,2	11,357
943,6	12,843
944	7,386
944,4	4,557
944,9	5,271
945,3	9,157
945,7	6,614
946,1	7,214
946,6	5,243
947	7,671
947,4	9,129
947,8	6,271
948,2	4,214
948,7	3,014
949,1	2,243
949,5	4,043
949,9	5,929
950,3	7,414
950,8	7,671
951,2	8,671
951,6	13,957
952	14,471
952,5	12,471
952,9	9,186
953,3	4,986
953,7	8,671
954,1	7,529
954,6	3,9
955	2,957
955,4	0,729
955,8	5,071
956,2	7,786
956,7	4,186
957,1	4,557
957,5	4,471
957,9	5,643
958,3	6,471
958,8	5,957
959,2	8,186
959,6	10,986
960	9,843
960,5	9,043
960,9	10,529
961,3	11,3
961,7	8,186
962,1	2,043
962,6	-3,043
963	3,671
963,4	3,843
963,8	5,7
964,2	6,071
964,7	8,729
965,1	12,5
965,5	16,757
965,9	11,957
966,3	12,3
966,8	13,643
967,2	14,014
967,6	10,9
968	9,5
968,4	7,357
968,9	11,729
969,3	11,3
969,7	6,957
970,1	4,9
970,5	8,443
971	6,129
971,4	9,786
971,8	3,9
972,2	3,7
972,6	1,643
973,1	7,5
973,5	7,7
973,9	8,843
974,3	1,1
974,7	1,014
975,2	-3,386
975,6	-8,729
976	-11,271
976,4	-15,957
976,8	-12,214
977,3	-8,186
977,7	-6,986
978,1	-3,1
978,5	2,614
978,9	0,214
979,4	2,614
979,8	6,1
980,2	2,757
980,6	4,071
981	7,671
981,5	10,186
981,9	8,243
982,3	5,986
982,7	1,729
983,1	9,814
983,6	6,729
984	7,786
984,4	5,214
984,8	6,043
985,2	5,414
985,6	9,129
986,1	4,986
986,5	3,329
986,9	-3,957
987,3	-4,071
987,7	-3,957
988,2	0,1
988,6	-5,957
989	-4,671
989,4	-0,471
989,8	0,071
990,3	0,3
990,7	-1,329
991,1	-4,357
991,5	-5,243
991,9	-5,329
992,3	-5,386
992,8	2,643
993,2	6,7
993,6	13,157
994	15,443
994,4	19,757
994,9	17,643
995,3	14,557
995,7	10,957
996,1	7,529
996,5	4,529
996,9	3,443
997,4	2,471
997,8	1,357
998,2	3,443
998,6	1,643
999	3,071
999,5	0,271
999,9	2,071
1000,3	1,957
1000,7	-2,871
1001,1	-3,329
1001,5	-3,986
1002	-5,014
1002,4	-0,557
1002,8	1,871
1003,2	6,529
1003,6	14,129
1004	15,986
1004,5	17,043
1004,9	18,271
1005,3	11,243
1005,7	7,614
1006,1	3,586
1006,6	-0,386
1007	-1,614
1007,4	-3,929
1007,8	-9,443
1008,2	-6,129
1008,6	-8,5
1009,1	-12,786
1009,5	-0,729
1009,9	4,9
1010,3	12,043
1010,7	18,014
1011,1	24,271
1011,6	24,7
1012	27,529
1012,4	19,9
1012,8	10,871
1013,2	6,614
1013,6	4,986
1014,1	0,643
1014,5	4,1
1014,9	7,386
1015,3	6,929
1015,7	7,443
1016,1	7,329
1016,6	10,986
1017	11,471
1017,4	9,329
1017,8	5,443
1018,2	0,529
1018,6	3,614
1019,1	-2,357
1019,5	-3,471
1019,9	-2,557
1020,3	-3,071
1020,7	-2,329
1021,1	3,271
1021,6	2,129
1022	1,5
1022,4	2,386
1022,8	-0,214
1023,2	2,9
1023,6	3,1
1024,1	1,986
1024,5	1,757
1024,9	10,329
1025,3	9,929
1025,7	14,986
1026,1	14,5
1026,6	14,071
1027	11,043
1027,4	14,557
1027,8	13,071
1028,2	11,3
1028,6	9,471
1029	6,729
1029,5	11,643
1029,9	10,586
1030,3	10,386
1030,7	5,386
1031,1	4,986
1031,5	-1,014
1032	-0,071
1032,4	-6,986
1032,8	-0,843
1033,2	-3,271
1033,6	1,986
1034	-3,871
1034,4	3,7
1034,9	1,843
1035,3	10,071
1035,7	6,071
1036,1	9,9
1036,5	6,7
1036,9	15,186
1037,4	12,357
1037,8	16,986
1038,2	7,671
1038,6	4,557
1039	-0,757
1039,4	-0,786
1039,8	-4,329
1040,3	-5,843
1040,7	-10,3
1041,1	-6,3
1041,5	-10,643
1041,9	-11,671
1042,3	-13,814
1042,7	-11,414
1043,2	-9,871
1043,6	-6,557
1044	-8,414
1044,4	-4,529
1044,8	-6,014
1045,2	-0,3
1045,6	0,443
1046,1	2,7
1046,5	4,757
1046,9	4,557
1047,3	7,643
1047,7	8,5
1048,1	7,414
1048,5	1,9
1049	2,614
1049,4	-4,1
1049,8	-1,329
1050,2	2,957
1050,6	11,643
1051	9,386
1051,4	14,5
1051,9	13,814
1052,3	12,386
1052,7	9,157
1053,1	4,7
1053,5	-1,471
1053,9	-0,329
1054,3	-4,643
1054,8	-4,014
1055,2	3,9
1055,6	5,357
1056	4,957
1056,4	3,671
1056,8	6,7
1057,2	9,7
1057,6	4,186
1058,1	0,557
1058,5	-0,329
1058,9	1,443
1059,3	4,471
1059,7	-1,386
1060,1	-4,757
1060,5	-6,357
1061	-5,1
1061,4	-1,986
1061,8	-2,871
1062,2	-4,557
1062,6	-3,014
1063	-4,357
1063,4	1,414
1063,8	0,843
1064,3	-5,557
1064,7	-6,557
1065,1	-7,071
1065,5	-4,929
1065,9	-2,586
1066,3	-6,129
1066,7	-5,443
1067,1	-1,157
1067,6	-1,186
1068	0,214
1068,4	2,3
1068,8	5,957
1069,2	4,843
1069,6	3,843
1070	4,357
1070,4	6,643
1070,9	6,7
1071,3	3,014
1071,7	1,443
1072,1	6,1
1072,5	7,5
1072,9	10,157
1073,3	9,414
1073,7	8,529
1074,2	13,329
1074,6	11,557
1075	9,243
1075,4	8,014
1075,8	8,843
1076,2	6,586
1076,6	4,814
1077	-1,529
1077,5	-0,214
1077,9	1,243
1078,3	1,471
1078,7	-0,814
1079,1	5,186
1079,5	3,414
1079,9	7,186
1080,3	8,271
1080,7	13,129
1081,2	13,157
1081,6	14,014
1082	12,843
1082,4	15,357
1082,8	13,014
1083,2	8,529
1083,6	7,729
1084	4,7
1084,5	-2,1
1084,9	-4,814
1085,3	-2,271
1085,7	-5,443
1086,1	-9,3
1086,5	-11,386
1086,9	-8,3
1087,3	-4,186
1087,7	-0,386
1088,2	-1,871
1088,6	0,014
1089	4,757
1089,4	2,586
1089,8	2,329
1090,2	3,9
1090,6	-0,3
1091	-2,1
1091,4	-0,157
1091,9	2,129
1092,3	-0,129
1092,7	-4,186
1093,1	-5,1
1093,5	-5,729
1093,9	-2,643
1094,3	-2,814
1094,7	-4,786
1095,1	-8,071
1095,5	-5,786
1096	-8,957
1096,4	-5,1
1096,8	-7,7
1097,2	-5,814
1097,6	-3,786
1098	1,414
1098,4	2,9
1098,8	5,671
1099,2	0,586
1099,6	1,071
1100,1	-3,5
1100,5	-0,7
1100,9	-3,871
1101,3	-7,071
1101,7	-3,9
1102,1	-1,786
1102,5	-2,043
1102,9	0,414
1103,3	-4,043
1103,7	-4,071
1104,2	-2,357
1104,6	-3,814
1105	-2,529
1105,4	-0,129
1105,8	0,614
1106,2	1,557
1106,6	3,214
1107	3,786
1107,4	2,4
1107,8	0,98
1108,3	-0,05
