Data from Subt2_098.txt Node
Date: Sat Aug 26 16:44:39 MSK 2023
User: vat
Spectrometer: MAYP114033
Trigger mode: 0
Integration Time (sec): 1,000000E0
Scans to average: 5
Electric dark correction enabled: true
Nonlinearity correction enabled: false
Boxcar width: 3
XAxis mode: Wavelengths
Number of Pixels in Spectrum: 2068
>>>>>Begin Spectral Data<<<<<
199,4	-1,183
199,9	-2,533
200,4	-5,6
200,8	-6,39
201,3	-6,305
201,8	-5,076
202,2	-3,962
202,7	-1,705
203,2	0,524
203,6	4,152
204,1	6,41
204,6	8,181
205	12,038
205,5	13,181
206	12,752
206,4	15,267
206,9	14,181
207,4	14,295
207,8	10,295
208,3	8,238
208,8	7,695
209,2	9,267
209,7	6,324
210,2	14,838
210,6	16,267
211,1	18,41
211,5	18,038
212	16,124
212,5	14,238
212,9	15,752
213,4	9,61
213,9	8,181
214,3	11,21
214,8	13,181
215,3	9,552
215,7	9,238
216,2	9,352
216,7	6,152
217,1	6,295
217,6	5,667
218,1	2,438
218,5	8,695
219	12,895
219,5	10,981
219,9	10,381
220,4	7,952
220,9	5,295
221,3	6,838
221,8	0,581
222,3	-3,105
222,7	-4,533
223,2	-1,933
223,6	-2,476
224,1	-2,79
224,6	-5,962
225	-2,562
225,5	2,095
226	3,581
226,4	4,152
226,9	4,838
227,4	6,352
227,8	11,438
228,3	12,067
228,8	11,581
229,2	13,695
229,7	11,467
230,2	13,981
230,6	13,781
231,1	14,067
231,5	18,781
232	22,038
232,5	22,81
232,9	26,581
233,4	28,324
233,9	31,381
234,3	29,724
234,8	25,467
235,3	19,667
235,7	22,581
236,2	22,581
236,7	20,067
237,1	15,667
237,6	13,21
238,1	14,581
238,5	15,895
239	11,924
239,4	11,952
239,9	12,752
240,4	15,867
240,8	14,095
241,3	12,895
241,8	10,667
242,2	9,41
242,7	5,752
243,2	6,638
243,6	4,095
244,1	7,01
244,6	4,695
245	4,324
245,5	1,438
245,9	3,181
246,4	1,724
246,9	1,038
247,3	-1,819
247,8	3,01
248,3	3,181
248,7	11,524
249,2	10,952
249,7	11,81
250,1	14,781
250,6	17,724
251	15,61
251,5	14,181
252	10,752
252,4	10,552
252,9	10,667
253,4	9,238
253,8	7,667
254,3	3,552
254,8	8,352
255,2	5,524
255,7	9,41
256,1	6,152
256,6	8,924
257,1	12,41
257,5	21,695
258	17,438
258,5	19,352
258,9	16,295
259,4	24,152
259,9	25,781
260,3	19,667
260,8	16,324
261,2	18,61
261,7	19,981
262,2	20,638
262,6	17,581
263,1	12,695
263,6	19,01
264	16,495
264,5	15,038
264,9	9,581
265,4	6,895
265,9	9,781
266,3	12,21
266,8	10,267
267,3	10,152
267,7	10,495
268,2	14,981
268,7	14,495
269,1	7,981
269,6	7,352
270	11,638
270,5	16,981
271	16,038
271,4	12,152
271,9	12,152
272,4	11,667
272,8	7,324
273,3	0,724
273,7	-2,648
274,2	-2,505
274,7	2,838
275,1	5,867
275,6	10,038
276,1	15,581
276,5	17,895
277	17,61
277,4	17,695
277,9	12,095
278,4	13,552
278,8	12,324
279,3	9,552
279,8	12,838
280,2	10,752
280,7	11,01
281,1	12,724
281,6	12,781
282,1	12,295
282,5	15,952
283	13,695
283,4	14,81
283,9	13,781
284,4	17,152
284,8	16,124
285,3	14,724
285,8	10,438
286,2	6,895
286,7	8,095
287,1	12,724
287,6	10,724
288,1	11,41
288,5	13,752
289	16,638
289,5	14,495
289,9	14,724
290,4	9,01
290,8	15,752
291,3	11,81
291,8	11,181
292,2	13,238
292,7	19,61
293,1	18,381
293,6	23,895
294,1	14,41
294,5	22,581
295	19,41
295,5	18,867
295,9	19,952
296,4	21,81
296,8	18,867
297,3	24,552
297,8	19,41
298,2	19,552
298,7	13,524
299,1	11,667
299,6	11,467
300,1	12,124
300,5	10,838
301	13,581
301,5	14,695
301,9	15,81
302,4	15,752
302,8	14,581
303,3	16,324
303,8	12,838
304,2	8,495
304,7	10,924
305,1	15,181
305,6	12,981
306,1	13,295
306,5	9,324
307	8,781
307,4	8,095
307,9	9,752
308,4	9,981
308,8	11,924
309,3	12,352
309,8	14,038
310,2	13,21
310,7	19,438
311,1	15,638
311,6	14,067
312,1	14,924
312,5	14,667
313	14,724
313,4	18,467
313,9	18,724
314,4	21,324
314,8	20,61
315,3	18,552
315,7	18,095
316,2	14,324
316,7	13,295
317,1	11,295
317,6	8,752
318	10,324
318,5	20,552
319	21,981
319,4	24,552
319,9	25,01
320,3	24,81
320,8	25,924
321,3	22,095
321,7	11,238
322,2	10,467
322,6	13,067
323,1	16,152
323,6	15,667
324	18,238
324,5	18,695
324,9	18,924
325,4	20,952
325,9	22,067
326,3	26,438
326,8	30,038
327,2	26,152
327,7	27,152
328,2	24,867
328,6	23,981
329,1	23,41
329,5	16,781
330	13,238
330,5	14,867
330,9	12,152
331,4	9,61
331,8	10,41
332,3	9,524
332,8	8,695
333,2	6,867
333,7	5,61
334,1	9,352
334,6	16,781
335,1	16,067
335,5	17,352
336	16,752
336,4	17,895
336,9	21,352
337,4	22,781
337,8	22,638
338,3	20,667
338,7	17,895
339,2	21,41
339,7	25,038
340,1	23,21
340,6	18,61
341	21,524
341,5	26,381
342	24,495
342,4	21,41
342,9	14,41
343,3	17,038
343,8	22,667
344,2	21,61
344,7	14,667
345,2	15,21
345,6	15,724
346,1	25,695
346,5	28,295
347	28,295
347,5	25,41
347,9	27,41
348,4	33,838
348,8	33,838
349,3	28,838
349,8	24,895
350,2	20,724
350,7	26,067
351,1	27,067
351,6	24,181
352	35,295
352,5	39,81
353	46,81
353,4	56,267
353,9	61,238
354,3	79,038
354,8	91,324
355,3	102,238
355,7	121,21
356,2	142,752
356,6	172,638
357,1	203,695
357,5	238,724
358	287,781
358,5	341,181
358,9	396,581
359,4	460,41
359,8	527,867
360,3	604,495
360,8	688,61
361,2	777,752
361,7	871,095
362,1	985,41
362,6	1108,81
363	1242,41
363,5	1387,324
364	1529,267
364,4	1677,467
364,9	1830,724
365,3	1973,695
365,8	2109,152
366,3	2246,295
366,7	2365,124
367,2	2470,238
367,6	2563,01
368,1	2632,924
368,5	2676,381
369	2702,381
369,5	2696,781
369,9	2679,667
370,4	2638,495
370,8	2574,467
371,3	2501,495
371,7	2415,695
372,2	2315,067
372,7	2204,324
373,1	2088,124
373,6	1970,324
374	1846,838
374,5	1719,838
374,9	1598,152
375,4	1486,524
375,9	1372,124
376,3	1260,552
376,8	1164,21
377,2	1077,781
377,7	992,467
378,2	914,181
378,6	839,352
379,1	774,638
379,5	711,524
380	652,924
380,4	594,81
380,9	546,867
381,4	508,467
381,8	468,295
382,3	432,152
382,7	398,152
383,2	366,038
383,6	343,181
384,1	319,524
384,6	287,295
385	267,952
385,5	250,467
385,9	237,524
386,4	222,067
386,8	209,352
387,3	194,467
387,7	189,667
388,2	174,124
388,7	158,695
389,1	146,981
389,6	137,01
390	124,695
390,5	117,267
390,9	109,61
391,4	106,238
391,9	103,381
392,3	93,41
392,8	92,981
393,2	86,495
393,7	84,038
394,1	80,495
394,6	72,381
395,1	74,267
395,5	74,81
396	69,524
396,4	69,524
396,9	63,581
397,3	57,21
397,8	57,867
398,2	50,267
398,7	47,352
399,2	43,381
399,6	42,724
400,1	35,581
400,5	34,752
401	34,61
401,4	36,838
401,9	40,038
402,4	44,01
402,8	39,324
403,3	44,581
403,7	46,181
404,2	46,067
404,6	43,038
405,1	41,21
405,5	34,552
406	36,752
406,5	36,61
406,9	34,067
407,4	34,01
407,8	34,552
408,3	33,524
408,7	40,495
409,2	37,81
409,6	38,324
410,1	43,324
410,6	46,61
411	51,352
411,5	50,981
411,9	50,667
412,4	55,152
412,8	60,01
413,3	60,581
413,7	63,21
414,2	65,238
414,7	71,038
415,1	66,638
415,6	74,152
416	75,895
416,5	76,695
416,9	75,495
417,4	77,324
417,8	77,81
418,3	86,152
418,8	80,238
419,2	80,21
419,7	88,752
420,1	85,781
420,6	85,21
421	86,01
421,5	83,638
421,9	88,067
422,4	90,752
422,8	84,61
423,3	87,324
423,8	89,81
424,2	92,324
424,7	96,152
425,1	92,752
425,6	94,181
426	97,552
426,5	99,495
426,9	97,038
427,4	96,238
427,9	89,952
428,3	90,01
428,8	89,838
429,2	83,267
429,7	80,495
430,1	81,752
430,6	77,067
431	79,238
431,5	81,752
431,9	80,267
432,4	81,667
432,8	85,724
433,3	83,267
433,8	89,495
434,2	88,838
434,7	85,524
435,1	85,552
435,6	91,038
436	92,324
436,5	95,438
436,9	96,724
437,4	102,01
437,8	109,352
438,3	114,352
438,8	113,552
439,2	114,724
439,7	114,524
440,1	116,695
440,6	124,524
441	126,381
441,5	129,895
441,9	137,124
442,4	143,724
442,8	152,781
443,3	158,124
443,7	156,924
444,2	164,181
444,7	171,495
445,1	175,495
445,6	184,438
446	192,324
446,5	198,067
446,9	208,524
447,4	214,267
447,8	217,038
448,3	226,438
448,7	225,981
449,2	230,438
449,6	239,752
450,1	249,638
450,6	255,41
451	266,381
451,5	276,524
451,9	289,467
452,4	301,124
452,8	309,638
453,3	315,524
453,7	330,695
454,2	339,238
454,6	347,267
455,1	353,895
455,5	366,495
456	380,61
456,4	390,867
456,9	402,095
457,3	417,524
457,8	433,324
458,3	450,781
458,7	465,124
459,2	477,067
459,6	498,752
460,1	514,267
460,5	527,667
461	537,495
461,4	556,067
461,9	570,838
462,3	589,438
462,8	603,21
463,2	618,181
463,7	635,067
464,1	656,81
464,6	672,41
465	691,295
465,5	707,181
466	723,581
466,4	740,667
466,9	763,21
467,3	780,324
467,8	800,667
468,2	817,181
468,7	837,438
469,1	858,352
469,6	879,781
470	896,524
470,5	918,238
470,9	936,667
471,4	957,524
471,8	979,552
472,3	993,752
472,7	1017,381
473,2	1033,924
473,6	1048,324
474,1	1062,095
474,5	1082,267
475	1099,981
475,4	1120,267
475,9	1143,038
476,4	1162,381
476,8	1186,467
477,3	1215,724
477,7	1231,981
478,2	1249,667
478,6	1275,695
479,1	1284,81
479,5	1305,781
480	1324,61
480,4	1336,181
480,9	1356,41
481,3	1372,467
481,8	1388,324
482,2	1405,095
482,7	1419,752
483,1	1435,124
483,6	1449,581
484	1461,381
484,5	1479,067
484,9	1492,724
485,4	1510,467
485,8	1523,21
486,3	1533,924
486,7	1546,695
487,2	1565,238
487,6	1575,41
488,1	1589,238
488,5	1603,067
489	1617,895
489,4	1632,238
489,9	1651,638
490,4	1661,495
490,8	1671,238
491,3	1681,724
491,7	1689,867
492,2	1706,238
492,6	1713,295
493,1	1715,181
493,5	1718,495
494	1728,381
494,4	1734,81
494,9	1744,238
495,3	1748,667
495,8	1763,952
496,2	1777,467
496,7	1789,038
497,1	1797,581
497,6	1801,581
498	1806,152
498,5	1811,095
498,9	1809,41
499,4	1810,238
499,8	1814,381
500,3	1819,838
500,7	1827,095
501,2	1837,467
501,6	1844,952
502,1	1860,667
502,5	1869,181
503	1877,81
503,4	1879,867
503,9	1890,495
504,3	1889,61
504,8	1894,467
505,2	1892,895
505,7	1905,638
506,1	1908,752
506,6	1916,381
507	1920,438
507,5	1928,41
507,9	1930,581
508,4	1940,324
508,8	1938,495
509,3	1946,695
509,7	1948,267
510,2	1952,01
510,6	1960,638
511,1	1970,61
511,5	1974,038
512	1980,667
512,4	1986,524
512,9	1994,495
513,3	2002,752
513,8	1999,724
514,2	2001,238
514,7	2001,724
515,1	2004,581
515,6	2004,581
516	2016,638
516,5	2015,781
516,9	2022,038
517,4	2027,067
517,8	2031,981
518,3	2037,267
518,7	2039,752
519,2	2040,81
519,6	2048,781
520,1	2057,524
520,5	2059,895
521	2066,781
521,4	2072,495
521,9	2086,781
522,3	2092,781
522,8	2101,724
523,2	2110,267
523,7	2116,581
524,1	2125,638
524,6	2128,038
525	2132,752
525,5	2138,324
525,9	2137,152
526,4	2136,352
526,8	2147,524
527,3	2154,981
527,7	2159,924
528,2	2161,752
528,6	2167,724
529,1	2175,724
529,5	2182,438
530	2188,21
530,4	2191,267
530,9	2200,695
531,3	2208,495
531,8	2218,924
532,2	2224,924
532,6	2237,21
533,1	2236,581
533,5	2245,124
534	2256,981
534,4	2267,581
534,9	2273,638
535,3	2282,838
535,8	2290,638
536,2	2303,438
536,7	2306,581
537,1	2307,695
537,6	2309,81
538	2314,21
538,5	2321,152
538,9	2331,124
539,4	2340,638
539,8	2351,038
540,3	2359,667
540,7	2371,724
541,2	2378,495
541,6	2390,638
542,1	2393,438
542,5	2393,267
543	2394,495
543,4	2408,981
543,9	2404,781
544,3	2412,21
544,8	2414,381
545,2	2421,495
545,7	2436,581
546,1	2452,095
546,5	2455,324
547	2473,924
547,4	2480,01
547,9	2485,695
548,3	2487,638
548,8	2493,467
549,2	2494,438
549,7	2504,524
550,1	2508,61
550,6	2516,324
551	2530,01
551,5	2545,438
551,9	2555,381
552,4	2563,781
552,8	2562,381
553,3	2568,552
553,7	2569,81
554,2	2571,752
554,6	2569,524
555,1	2570,152
555,5	2574,181
555,9	2582,781
556,4	2591,438
556,8	2600,181
557,3	2604,038
557,7	2610,952
558,2	2613,352
558,6	2620,724
559,1	2626,981
559,5	2627,81
560	2631,467
560,4	2641,352
560,9	2649,352
561,3	2661,724
561,8	2675,495
562,2	2677,667
562,7	2686,752
563,1	2698,638
563,6	2699,267
564	2706,21
564,4	2712,552
564,9	2712,781
565,3	2721,581
565,8	2728,038
566,2	2733,181
566,7	2736,152
567,1	2737,495
567,6	2737,381
568	2740,695
568,5	2742,41
568,9	2737,752
569,4	2730,981
569,8	2732,238
570,3	2731,552
570,7	2733,752
571,1	2728,867
571,6	2731,667
572	2738,667
572,5	2743,152
572,9	2747,667
573,4	2746,067
573,8	2744,952
574,3	2746,781
574,7	2748,552
575,2	2747,067
575,6	2750,467
576,1	2745,352
576,5	2749,581
576,9	2747,581
577,4	2747,095
577,8	2742,152
578,3	2734,81
578,7	2729,781
579,2	2734,095
579,6	2734,038
580,1	2738,895
580,5	2733,495
581	2732,267
581,4	2737,81
581,9	2736,238
582,3	2728,181
582,7	2724,667
583,2	2711,838
583,6	2712,781
584,1	2704,181
584,5	2703,238
585	2703,867
585,4	2703,152
585,9	2698,838
586,3	2699,724
586,8	2693,467
587,2	2691,552
587,6	2681,981
588,1	2679,038
588,5	2671,981
589	2669,01
589,4	2667,067
589,9	2667,495
590,3	2666,01
590,8	2664,381
591,2	2650,581
591,7	2654,981
592,1	2650,095
592,5	2640,01
593	2633,352
593,4	2628,838
593,9	2617,41
594,3	2619,381
594,8	2608,867
595,2	2609,924
595,7	2614,152
596,1	2614,895
596,6	2613,067
597	2611,438
597,4	2608,695
597,9	2604,924
598,3	2598,21
598,8	2587,952
599,2	2578,324
599,7	2569,181
600,1	2568,867
600,6	2562,067
601	2559,095
601,4	2554,152
601,9	2543,638
602,3	2540,781
602,8	2537,838
603,2	2531,01
603,7	2525,352
604,1	2518,581
604,6	2506,952
605	2504,238
605,4	2496,467
605,9	2490,467
606,3	2482,667
606,8	2470,524
607,2	2466,924
607,7	2462,981
608,1	2457,41
608,6	2453,781
609	2448,638
609,4	2441,81
609,9	2439,267
610,3	2423,124
610,8	2419,21
611,2	2406,467
611,7	2400,952
612,1	2384,067
612,6	2378,867
613	2371,01
613,4	2361,724
613,9	2348,781
614,3	2344,095
614,8	2322,781
615,2	2324,152
615,7	2310,01
616,1	2300,952
616,6	2298,238
617	2289,438
617,4	2282,895
617,9	2276,524
618,3	2262,952
618,8	2253,067
619,2	2243,038
619,7	2235,152
620,1	2222,467
620,5	2214,152
621	2205,724
621,4	2198,752
621,9	2193,981
622,3	2186,267
622,8	2173,038
623,2	2171,038
623,6	2159,038
624,1	2157,524
624,5	2146,895
625	2128,124
625,4	2119,781
625,9	2110,781
626,3	2095,81
626,8	2088,667
627,2	2072,781
627,6	2060,438
628,1	2060,381
628,5	2046,124
629	2038,01
629,4	2026,324
629,9	2009,895
630,3	2000,695
630,7	1997,324
631,2	1983,81
631,6	1980,095
632,1	1971,21
632,5	1963,038
633	1955,467
633,4	1943,124
633,8	1922,895
634,3	1913,181
634,7	1906,324
635,2	1892,21
635,6	1881,41
636,1	1872,867
636,5	1866,495
636,9	1858,781
637,4	1850,067
637,8	1832,267
638,3	1822,895
638,7	1813,21
639,2	1802,695
639,6	1790,695
640	1779,21
640,5	1769,838
640,9	1763,752
641,4	1755,638
641,8	1744,61
642,2	1740,495
642,7	1731,438
643,1	1732,324
643,6	1721,295
644	1717,952
644,5	1711,895
644,9	1706,267
645,3	1698,467
645,8	1689,981
646,2	1678,152
646,7	1668,095
647,1	1652,41
647,6	1637,895
648	1630,41
648,4	1615,524
648,9	1608,038
649,3	1599,152
649,8	1597,61
650,2	1589,895
650,6	1588,61
651,1	1580,495
651,5	1575,01
652	1565,667
652,4	1549,152
652,9	1539,867
653,3	1527,695
653,7	1514,152
654,2	1509,267
654,6	1500,438
655,1	1486,095
655,5	1479,581
655,9	1468,952
656,4	1463,552
656,8	1453,552
657,3	1437,381
657,7	1427,295
658,2	1422,467
658,6	1415,467
659	1404,895
659,5	1395,867
659,9	1392,124
660,4	1388,038
660,8	1385,495
661,2	1379,095
661,7	1371,324
662,1	1360,838
662,6	1348,467
663	1339,095
663,4	1330,067
663,9	1317,895
664,3	1312,838
664,8	1308,667
665,2	1308,352
665,6	1305,467
666,1	1300,095
666,5	1290,01
667	1279,781
667,4	1270,581
667,9	1259,752
668,3	1247,667
668,7	1238,524
669,2	1222,61
669,6	1213,781
670,1	1207,267
670,5	1196,752
670,9	1190,895
671,4	1183,781
671,8	1175,152
672,3	1173,61
672,7	1169,152
673,1	1157,467
673,6	1146,038
674	1135,21
674,5	1128,952
674,9	1122,667
675,3	1112,752
675,8	1106,295
676,2	1102,152
676,7	1101,21
677,1	1098,381
677,5	1089,438
678	1079,752
678,4	1075,124
678,9	1065,41
679,3	1059,552
679,7	1052,638
680,2	1045,638
680,6	1037,324
681,1	1029,552
681,5	1021,21
681,9	1013,524
682,4	1003,21
682,8	998,41
683,3	987,581
683,7	982,724
684,1	974,181
684,6	971,352
685	966,781
685,5	964,838
685,9	955,524
686,3	950,524
686,8	942,924
687,2	943,952
687,7	936,495
688,1	933,238
688,5	927,552
689	917,924
689,4	917,924
689,9	913,895
690,3	906,838
690,7	896,552
691,2	889,238
691,6	886,352
692	880,438
692,5	868,152
692,9	861,181
693,4	855,981
693,8	852,238
694,2	841,41
694,7	834,01
695,1	832,124
695,6	824,81
696	818,895
696,4	809,895
696,9	801,524
697,3	799,095
697,8	790,495
698,2	784,952
698,6	783,067
699,1	776,295
699,5	772,752
699,9	772,552
700,4	764,952
700,8	767,238
701,3	760,924
701,7	751,924
702,1	746,381
702,6	742,952
703	728,381
703,5	727,238
703,9	715,952
704,3	713,667
704,8	714,21
705,2	710,467
705,6	699,752
706,1	705,324
706,5	702,952
707	696,381
707,4	694,752
707,8	690,067
708,3	684,838
708,7	687,181
709,2	675,81
709,6	668,838
710	666,952
710,5	661,152
710,9	654,438
711,3	650,41
711,8	646,124
712,2	647,838
712,7	642,838
713,1	632,61
713,5	626,124
714	625,01
714,4	622,352
714,8	615,867
715,3	613,067
715,7	602,981
716,2	601,238
716,6	597,924
717	593,095
717,5	589,638
717,9	582,124
718,3	573,895
718,8	574,981
719,2	574,381
719,7	570,495
720,1	557,695
720,5	552,038
721	548,581
721,4	548,038
721,8	546,81
722,3	538,238
722,7	527,638
723,2	530,867
723,6	526,381
724	524,438
724,5	518,867
724,9	506,667
725,3	500,324
725,8	498,238
726,2	493,124
726,7	489,238
727,1	479,124
727,5	473,495
728	476,01
728,4	479,581
728,8	480,752
729,3	477,924
729,7	475,952
730,1	476,41
730,6	475,181
731	473,41
731,5	466,381
731,9	463,724
732,3	460,61
732,8	463,324
733,2	459,095
733,6	457,41
734,1	453,067
734,5	449,524
734,9	443,067
735,4	446,124
735,8	432,867
736,3	435,752
736,7	432,61
737,1	427,638
737,6	425,267
738	420,724
738,4	413,667
738,9	418,467
739,3	412,752
739,7	407,038
740,2	409,752
740,6	407,324
741,1	406,667
741,5	402,524
741,9	392,324
742,4	389,352
742,8	392,952
743,2	388,838
743,7	389,981
744,1	388,438
744,5	387,524
745	388,781
745,4	385,895
745,8	381,124
746,3	376,952
746,7	373,21
747,2	374,095
747,6	369,638
748	367,438
748,5	363,238
748,9	358,41
749,3	359,752
749,8	353,067
750,2	350,895
750,6	347,81
751,1	345,41
751,5	344,638
751,9	345,667
752,4	339,81
752,8	339,752
753,3	337,438
753,7	338,467
754,1	337,61
754,6	334,381
755	331,924
755,4	329,981
755,9	332,01
756,3	324,552
756,7	321,495
757,2	318,838
757,6	317,067
758	309,181
758,5	308,152
758,9	301,924
759,3	298,952
759,8	297,895
760,2	295,581
760,6	297,238
761,1	298,752
761,5	294,895
761,9	293,095
762,4	291,781
762,8	290,267
763,3	285,781
763,7	281,324
764,1	276,295
764,6	275,295
765	271,61
765,4	272,152
765,9	264,238
766,3	261,038
766,7	259,838
767,2	260,81
767,6	258,867
768	262,038
768,5	258,295
768,9	261,181
769,3	260,981
769,8	264,581
770,2	265,867
770,6	258,981
771,1	255,295
771,5	256,238
771,9	254,467
772,4	260,324
772,8	254,41
773,2	248,267
773,7	254,181
774,1	255,067
774,5	253,638
775	246,81
775,4	241,381
775,8	239,21
776,3	235,81
776,7	236,381
777,1	234,952
777,6	231,581
778	236,895
778,4	234,152
778,9	231,895
779,3	233,124
779,7	227,067
780,2	222,952
780,6	226,638
781	221,952
781,5	220,495
781,9	221,41
782,3	218,581
782,8	217,152
783,2	214,724
783,6	207,067
784,1	208,41
784,5	207,295
784,9	201,381
785,4	200,181
785,8	193,638
786,2	191,095
786,7	193,324
787,1	190,295
787,5	185,067
788	185,467
788,4	185,952
788,8	187,695
789,3	191,067
789,7	186,724
790,1	187,295
790,6	193,867
791	194,267
791,4	191,61
791,9	191,981
792,3	188,467
792,7	190,095
793,2	183,21
793,6	176,581
794	174,895
794,5	173,352
794,9	172,895
795,3	172,752
795,8	168,381
796,2	171,467
796,6	165,895
797,1	161,21
797,5	162,01
797,9	164,01
798,4	161,467
798,8	160,838
799,2	158,495
799,7	166,781
800,1	168,381
800,5	165,352
801	160,695
801,4	156,01
801,8	153,352
802,2	152,981
802,7	148,21
803,1	147,381
803,5	148,495
804	145,095
804,4	144,238
804,8	146,124
805,3	141,038
805,7	141,238
806,1	144,41
806,6	145,267
807	146,838
807,4	144,695
807,9	142,952
808,3	142,524
808,7	138,752
809,2	132,667
809,6	130,895
810	129,181
810,4	132,352
810,9	127,752
811,3	128,181
811,7	126,181
812,2	129,438
812,6	127,524
813	127,581
813,5	126,724
813,9	129,01
814,3	126,695
814,8	131,095
815,2	127,124
815,6	124,438
816,1	121,724
816,5	118,695
816,9	119,552
817,3	119,981
817,8	120,638
818,2	116,981
818,6	116,21
819,1	116,438
819,5	118,267
819,9	115,152
820,4	118,581
820,8	110,81
821,2	114,81
821,7	114,438
822,1	115,267
822,5	111,724
822,9	117,752
823,4	116,152
823,8	133,781
824,2	130,038
824,7	131,381
825,1	129,638
825,5	134,695
826	133,067
826,4	140,467
826,8	126,781
827,3	129,438
827,7	129,152
828,1	130,895
828,5	127,181
829	119,267
829,4	108,581
829,8	101,924
830,3	98,667
830,7	94,838
831,1	92,752
831,6	89,838
832	88,495
832,4	88,067
832,8	88,524
833,3	85,638
833,7	86,924
834,1	84,495
834,6	84,067
835	88,038
835,4	88,61
835,8	87,181
836,3	87,181
836,7	78,61
837,1	75,21
837,6	76,81
838	72,695
838,4	68,124
838,9	70,038
839,3	70,895
839,7	74,581
840,1	74,638
840,6	73,381
841	73,695
841,4	73,467
841,9	73,61
842,3	76,552
842,7	78,238
843,1	80,295
843,6	85,781
844	85,981
844,4	89,924
844,9	89,267
845,3	82,895
845,7	83,81
846,2	83,381
846,6	75,381
847	75,181
847,4	69,667
847,9	68,81
848,3	72,752
848,7	70,438
849,2	68,924
849,6	69,552
850	72,152
850,4	74,01
850,9	69,267
851,3	66,638
851,7	68,21
852,2	63,81
852,6	63,438
853	60,981
853,4	66,438
853,9	69,752
854,3	66,61
854,7	62,838
855,2	66,695
855,6	65,152
856	63,124
856,4	55,095
856,9	53,781
857,3	53,667
857,7	56,695
858,2	54,552
858,6	59,638
859	57,667
859,4	61,01
859,9	61,61
860,3	63,381
860,7	62,838
861,1	67,038
861,6	66,638
862	66,924
862,4	66,438
862,9	67,895
863,3	66,952
863,7	62,181
864,1	58,324
864,6	53,524
865	51,724
865,4	45,724
865,9	40,352
866,3	43,467
866,7	48,467
867,1	51,552
867,6	48,638
868	48,038
868,4	49,21
868,8	53,095
869,3	49,867
869,7	44,41
870,1	42,438
870,6	43,295
871	60,552
871,4	60,552
871,8	57,61
872,3	55,924
872,7	57,152
873,1	55,781
873,5	54,295
874	40,981
874,4	41,181
874,8	39,124
875,3	40,61
875,7	35,581
876,1	34,324
876,5	39,895
877	37,01
877,4	36,552
877,8	41,952
878,2	39,895
878,7	47,21
879,1	46,895
879,5	42,952
879,9	42,152
880,4	41,581
880,8	41,124
881,2	45,895
881,7	46,552
882,1	47,495
882,5	47,552
882,9	47,924
883,4	52,038
883,8	48,124
884,2	44,495
884,6	44,21
885,1	47,61
885,5	50,981
885,9	58,867
886,3	56,41
886,8	55,867
887,2	53,495
887,6	48,752
888	46,067
888,5	45,752
888,9	37,895
889,3	32,467
889,8	32,867
890,2	31,438
890,6	32,21
891	28,267
891,5	24,324
891,9	26,438
892,3	27,61
892,7	29,552
893,2	33,638
893,6	33,467
894	36,038
894,4	34,981
894,9	31,124
895,3	30,552
895,7	27,095
896,1	23,81
896,6	26,181
897	25,352
897,4	23,295
897,8	25,867
898,3	35,552
898,7	35,381
899,1	38,438
899,5	34,124
900	33,238
900,4	36,867
900,8	42,438
901,2	35,61
901,7	35,752
902,1	31,01
902,5	31,41
902,9	36,752
903,4	37,61
903,8	26,724
904,2	30,695
904,6	26,21
905,1	32,552
905,5	30,41
905,9	25,838
906,3	21,752
906,8	24,295
907,2	18,238
907,6	23,295
908	19,038
908,5	23,81
908,9	23,152
909,3	27,067
909,7	28,352
910,2	28,895
910,6	28,124
911	31,152
911,4	24,924
911,9	26,038
912,3	20,152
912,7	18,724
913,1	14,838
913,6	15,781
914	11,152
914,4	13,495
914,8	11,01
915,3	14,81
915,7	11,524
916,1	11,267
916,5	9,61
916,9	8,152
917,4	8,495
917,8	5,981
918,2	7,295
918,6	9,781
919,1	16,152
919,5	21,295
919,9	25,924
920,3	24,895
920,8	26,924
921,2	31,267
921,6	35,038
922	33,067
922,5	31,667
922,9	30,181
923,3	34,895
923,7	33,524
924,2	25,124
924,6	22,924
925	22,467
925,4	18,952
925,8	15,981
926,3	15,324
926,7	17,695
927,1	20,267
927,5	18,067
928	15,838
928,4	13,838
928,8	20,724
929,2	19,581
929,7	15,61
930,1	12,295
930,5	10,352
930,9	16,781
931,3	21,238
931,8	15,638
932,2	12,752
932,6	16,524
933	13,524
933,5	14,21
933,9	7,724
934,3	5,01
934,7	12,952
935,2	16,324
935,6	13,181
936	17,41
936,4	18,581
936,8	22,467
937,3	22,438
937,7	18,895
938,1	16,495
938,5	19,324
939	20,467
939,4	21,124
939,8	22,552
940,2	20,667
940,6	14,524
941,1	19,152
941,5	16,61
941,9	17,467
942,3	16,781
942,8	10,924
943,2	10,61
943,6	14,267
944	9,495
944,4	12,067
944,9	10,581
945,3	12,638
945,7	16,838
946,1	19,038
946,6	17,21
947	17,61
947,4	16,124
947,8	17,838
948,2	16,124
948,7	15,667
949,1	16,267
949,5	16,895
949,9	19,21
950,3	20,495
950,8	19,524
951,2	18,838
951,6	24,01
952	23,781
952,5	22,952
952,9	18,295
953,3	14,581
953,7	11,81
954,1	14,552
954,6	10,752
955	11,724
955,4	9,495
955,8	15,267
956,2	15,552
956,7	18,495
957,1	13,781
957,5	8,067
957,9	8,895
958,3	10,724
958,8	7,524
959,2	9,581
959,6	11,467
960	15,495
960,5	17,552
960,9	12,01
961,3	14,924
961,7	10,638
962,1	10,924
962,6	5,581
963	5,181
963,4	6,638
963,8	13,667
964,2	10,324
964,7	13,438
965,1	12,867
965,5	14,581
965,9	13,238
966,3	12,181
966,8	10,095
967,2	12,552
967,6	13,781
968	18,952
968,4	20,924
968,9	26,124
969,3	24,667
969,7	22,324
970,1	20,667
970,5	20,752
971	14,81
971,4	15,781
971,8	14,152
972,2	15,21
972,6	19,038
973,1	21,095
973,5	18,067
973,9	18,152
974,3	14,352
974,7	12,524
975,2	11,324
975,6	2,638
976	4,381
976,4	5,61
976,8	4,495
977,3	4,41
977,7	-0,076
978,1	1,924
978,5	8,038
978,9	4,524
979,4	2,952
979,8	6,552
980,2	4,524
980,6	10,438
981	11,667
981,5	7,438
981,9	6,495
982,3	2,552
982,7	3,867
983,1	8,038
983,6	8,41
984	10,152
984,4	14,01
984,8	16,838
985,2	23,524
985,6	20,838
986,1	21,381
986,5	12,695
986,9	8,267
987,3	5,21
987,7	4,724
988,2	8,352
988,6	10,724
989	12,667
989,4	20,095
989,8	20,095
990,3	22,61
990,7	17,695
991,1	13,352
991,5	11,952
991,9	14,924
992,3	12,695
992,8	20,667
993,2	21,295
993,6	21,895
994	22,41
994,4	21,838
994,9	17,81
995,3	17,495
995,7	11,295
996,1	11,324
996,5	13,981
996,9	12,352
997,4	11,295
997,8	8,41
998,2	8,638
998,6	6,924
999	2,381
999,5	3,638
999,9	1,695
1000,3	3,352
1000,7	4,467
1001,1	4,724
1001,5	3,667
1002	6,895
1002,4	3,667
1002,8	7,41
1003,2	5,552
1003,6	10,01
1004	10,838
1004,5	12,381
1004,9	17,181
1005,3	13,752
1005,7	14,124
1006,1	14,467
1006,6	11,324
1007	11,438
1007,4	12,724
1007,8	7,524
1008,2	11,495
1008,6	7,524
1009,1	5,667
1009,5	11,981
1009,9	14,667
1010,3	15,238
1010,7	14,21
1011,1	21,81
1011,6	22,552
1012	25,838
1012,4	20,267
1012,8	12,552
1013,2	14,581
1013,6	17,495
1014,1	14,181
1014,5	15,524
1014,9	14,552
1015,3	13,381
1015,7	17,095
1016,1	14,981
1016,6	18,524
1017	18,324
1017,4	13,638
1017,8	13,41
1018,2	10,124
1018,6	12,124
1019,1	13,01
1019,5	9,067
1019,9	11,152
1020,3	15,581
1020,7	14,895
1021,1	20,552
1021,6	16,667
1022	12,467
1022,4	15,41
1022,8	7,895
1023,2	8,41
1023,6	6,324
1024,1	3,181
1024,5	5,981
1024,9	10,067
1025,3	10,61
1025,7	16,124
1026,1	19,381
1026,6	25,295
1027	22,41
1027,4	19,695
1027,8	16,81
1028,2	11,324
1028,6	11,124
1029	9,724
1029,5	9,552
1029,9	7,895
1030,3	14,181
1030,7	11,381
1031,1	13,381
1031,5	9,495
1032	9,724
1032,4	2,781
1032,8	6,152
1033,2	0,295
1033,6	7,467
1034	5,581
1034,4	12,724
1034,9	5,638
1035,3	14,295
1035,7	16,038
1036,1	19,152
1036,5	13,41
1036,9	15,267
1037,4	11,895
1037,8	14,295
1038,2	6,467
1038,6	4,181
1039	0,238
1039,4	3,724
1039,8	2,124
1040,3	-2,362
1040,7	-6,648
1041,1	-4,276
1041,5	-2,905
1041,9	-2,19
1042,3	-1,962
1042,7	0,752
1043,2	5,61
1043,6	18,924
1044	21,038
1044,4	16,981
1044,8	18,01
1045,2	22,724
1045,6	24,495
1046,1	24,867
1046,5	19,752
1046,9	18,724
1047,3	22,495
1047,7	20,524
1048,1	13,41
1048,5	10,81
1049	9,124
1049,4	7,324
1049,8	7,752
1050,2	9,838
1050,6	16,667
1051	19,752
1051,4	18,067
1051,9	20,81
1052,3	20,238
1052,7	22,495
1053,1	21,867
1053,5	16,01
1053,9	16,352
1054,3	14,495
1054,8	18,324
1055,2	23,467
1055,6	19,295
1056	20,295
1056,4	20,638
1056,8	17,21
1057,2	25,124
1057,6	16,095
1058,1	13,552
1058,5	14,667
1058,9	14,238
1059,3	19,438
1059,7	16,124
1060,1	11,552
1060,5	14,01
1061	13,524
1061,4	14,552
1061,8	10,667
1062,2	8,781
1062,6	12,61
1063	12,581
1063,4	12,667
1063,8	10,124
1064,3	6,21
1064,7	5,21
1065,1	5,752
1065,5	10,381
1065,9	9,352
1066,3	5,41
1066,7	8,695
1067,1	9,581
1067,6	13,467
1068	8,181
1068,4	8,61
1068,8	9,81
1069,2	13,152
1069,6	13,524
1070	14,724
1070,4	13,352
1070,9	16,552
1071,3	12,81
1071,7	10,038
1072,1	13,352
1072,5	14,067
1072,9	16,838
1073,3	16,667
1073,7	15,152
1074,2	14,924
1074,6	15,41
1075	12,21
1075,4	9,752
1075,8	9,095
1076,2	9,781
1076,6	9,524
1077	7,41
1077,5	10,724
1077,9	12,552
1078,3	10,495
1078,7	10,01
1079,1	16,467
1079,5	14,381
1079,9	20,238
1080,3	21,61
1080,7	19,324
1081,2	20,41
1081,6	23,667
1082	19,124
1082,4	19,667
1082,8	15,581
1083,2	6,895
1083,6	10,381
1084	7,924
1084,5	6,324
1084,9	2,695
1085,3	5,838
1085,7	4,524
1086,1	3,438
1086,5	0,981
1086,9	5,352
1087,3	5,295
1087,7	9,152
1088,2	9,324
1088,6	7,124
1089	14,41
1089,4	13,238
1089,8	13,552
1090,2	13,181
1090,6	10,124
1091	11,61
1091,4	16,781
1091,9	19,981
1092,3	17,21
1092,7	13,924
1093,1	12,181
1093,5	9,638
1093,9	11,124
1094,3	10,952
1094,7	5,21
1095,1	8,152
1095,5	12,267
1096	9,981
1096,4	17,895
1096,8	13,581
1097,2	10,667
1097,6	9,295
1098	11,61
1098,4	10,781
1098,8	12,21
1099,2	4,467
1099,6	3,638
1100,1	8,838
1100,5	11,638
1100,9	7,552
1101,3	4,981
1101,7	7,295
1102,1	11,667
1102,5	12,295
1102,9	5,181
1103,3	3,952
1103,7	6,924
1104,2	9,324
1104,6	9,267
1105	8,695
1105,4	7,181
1105,8	9,781
1106,2	10,067
1106,6	6,952
1107	4,095
1107,4	1,5
1107,8	-1,213
1108,3	0,917
