Data from Subt2_235.txt Node
Date: Sat Aug 26 18:54:33 MSK 2023
User: vat
Spectrometer: MAYP114033
Trigger mode: 0
Integration Time (sec): 1,000000E0
Scans to average: 5
Electric dark correction enabled: true
Nonlinearity correction enabled: false
Boxcar width: 3
XAxis mode: Wavelengths
Number of Pixels in Spectrum: 2068
>>>>>Begin Spectral Data<<<<<
199,4	-0,433
199,9	2,927
200,4	2,333
200,8	4,938
201,3	3,481
201,8	5,71
202,2	1,938
202,7	5,452
203,2	2,738
203,6	3,452
204,1	1,252
204,6	3,71
205	4,967
205,5	7,281
206	6,881
206,4	9,052
206,9	7,738
207,4	10,852
207,8	12,195
208,3	9,224
208,8	13,91
209,2	15,138
209,7	12,824
210,2	14,224
210,6	10,824
211,1	11,052
211,5	9,881
212	7,624
212,5	4,767
212,9	5,081
213,4	6,424
213,9	4,11
214,3	3,252
214,8	10,338
215,3	8,824
215,7	11,395
216,2	15,824
216,7	16,224
217,1	17,967
217,6	15,938
218,1	11,595
218,5	13,138
219	6,452
219,5	3,338
219,9	-2,319
220,4	3,824
220,9	3,995
221,3	-2,119
221,8	-1,919
222,3	3,338
222,7	3,71
223,2	4,481
223,6	-2,09
224,1	-0,576
224,6	7,195
225	3,967
225,5	2,938
226	1,052
226,4	3,338
226,9	7,367
227,4	7,595
227,8	1,338
228,3	3,424
228,8	5,452
229,2	7,11
229,7	5,395
230,2	4,91
230,6	9,595
231,1	14,081
231,5	15,11
232	10,252
232,5	9,624
232,9	13,452
233,4	13,395
233,9	9,024
234,3	7,31
234,8	4,71
235,3	6,767
235,7	6,938
236,2	7,795
236,7	2,367
237,1	4,424
237,6	0,967
238,1	0,967
238,5	-2,119
239	-3,833
239,4	-2,29
239,9	-3,462
240,4	-6,119
240,8	-0,462
241,3	-3,605
241,8	-3,348
242,2	-0,805
242,7	-4,462
243,2	-0,348
243,6	-4,319
244,1	-3,776
244,6	1,367
245	5,881
245,5	7,338
245,9	4,795
246,4	5,91
246,9	9,167
247,3	9,538
247,8	12,481
248,3	10,767
248,7	11,052
249,2	14,481
249,7	13,195
250,1	15,71
250,6	9,767
251	9,31
251,5	8,795
252	4,881
252,4	5,281
252,9	4,852
253,4	0,967
253,8	3,481
254,3	2,681
254,8	5,71
255,2	6,681
255,7	5,938
256,1	8,967
256,6	12,281
257,1	18,167
257,5	14,91
258	9,252
258,5	10,738
258,9	7,852
259,4	3,395
259,9	4,052
260,3	-1,233
260,8	-1,319
261,2	1,31
261,7	1,024
262,2	2,138
262,6	1,852
263,1	4,224
263,6	5,795
264	9,881
264,5	12,538
264,9	13,11
265,4	18,081
265,9	17,567
266,3	17,081
266,8	14,024
267,3	13,681
267,7	8,452
268,2	8,938
268,7	5,738
269,1	10,395
269,6	6,31
270	13,824
270,5	12,11
271	14,452
271,4	11,195
271,9	7,538
272,4	11,938
272,8	13,595
273,3	9,081
273,7	9,967
274,2	11,31
274,7	14,138
275,1	17,567
275,6	17,281
276,1	10,995
276,5	13,424
277	12,71
277,4	13,224
277,9	13,652
278,4	13,424
278,8	10,824
279,3	16,538
279,8	10,51
280,2	10,967
280,7	12,224
281,1	5,567
281,6	8,367
282,1	5,91
282,5	5,652
283	10,424
283,4	10,195
283,9	7,595
284,4	14,367
284,8	10,195
285,3	9,995
285,8	9,91
286,2	5,395
286,7	4,252
287,1	2,538
287,6	2,938
288,1	-0,919
288,5	-0,348
289	0,024
289,5	0,738
289,9	-1,862
290,4	4,281
290,8	1,624
291,3	6,767
291,8	8,767
292,2	4,567
292,7	10,052
293,1	12,195
293,6	8,652
294,1	11,595
294,5	12,795
295	9,424
295,5	9,881
295,9	7,081
296,4	6,538
296,8	7,195
297,3	5,595
297,8	2,167
298,2	3,224
298,7	9,652
299,1	9,024
299,6	5,738
300,1	6,824
300,5	5,338
301	8,652
301,5	15,681
301,9	9,395
302,4	8,624
302,8	9,91
303,3	8,31
303,8	7,395
304,2	4,281
304,7	-0,862
305,1	-1,976
305,6	4,395
306,1	13,967
306,5	12,681
307	17,024
307,4	21,081
307,9	19,338
308,4	18,252
308,8	7,024
309,3	-1,748
309,8	-1,976
310,2	-4,348
310,7	-5,233
311,1	-5,433
311,6	3,052
312,1	9,624
312,5	13,281
313	14,452
313,4	13,652
313,9	15,452
314,4	15,91
314,8	10,452
315,3	9,938
315,7	5,395
316,2	4,795
316,7	2,052
317,1	0,252
317,6	3,195
318	6,995
318,5	6,71
319	11,595
319,4	11,824
319,9	18,224
320,3	15,995
320,8	11,224
321,3	8,052
321,7	10,424
322,2	9,167
322,6	12,195
323,1	7,252
323,6	10,652
324	7,31
324,5	9,852
324,9	9,852
325,4	8,652
325,9	7,938
326,3	14,024
326,8	14,224
327,2	15,538
327,7	15,081
328,2	12,281
328,6	14,538
329,1	9,91
329,5	6,938
330	4,852
330,5	10,024
330,9	12,138
331,4	15,767
331,8	13,224
332,3	18,481
332,8	17,138
333,2	17,624
333,7	17,281
334,1	13,195
334,6	9,738
335,1	7,338
335,5	3,567
336	-0,119
336,4	3,395
336,9	8,767
337,4	10,995
337,8	11,281
338,3	15,91
338,7	18,281
339,2	24,452
339,7	23,681
340,1	18,881
340,6	17,395
341	16,681
341,5	16,11
342	14,767
342,4	8,338
342,9	8,31
343,3	7,252
343,8	8,624
344,2	6,767
344,7	10,538
345,2	11,995
345,6	19,51
346,1	21,224
346,5	18,51
347	15,767
347,5	20,252
347,9	18,881
348,4	15,652
348,8	13,167
349,3	10,338
349,8	14,281
350,2	23,11
350,7	17,995
351,1	17,281
351,6	25,167
352	27,281
352,5	30,738
353	37,424
353,4	37,624
353,9	50,167
354,3	64,681
354,8	71,281
355,3	86,51
355,7	104,138
356,2	119,51
356,6	141,167
357,1	160,852
357,5	180,881
358	211,767
358,5	242,452
358,9	280,31
359,4	320,224
359,8	368,252
360,3	426,195
360,8	484,681
361,2	547,452
361,7	624,424
362,1	708,024
362,6	800,281
363	894,681
363,5	994,338
364	1106,11
364,4	1214,795
364,9	1325,481
365,3	1428,252
365,8	1529,795
366,3	1625,995
366,7	1711,624
367,2	1790,824
367,6	1856,624
368,1	1906,938
368,5	1940,367
369	1955,51
369,5	1955,538
369,9	1943,567
370,4	1903,795
370,8	1862,31
371,3	1800,138
371,7	1732,91
372,2	1660,252
372,7	1582,681
373,1	1497,024
373,6	1414,11
374	1326,995
374,5	1240,824
374,9	1156,91
375,4	1072,652
375,9	992,252
376,3	913,481
376,8	836,081
377,2	767,138
377,7	703,138
378,2	641,224
378,6	586,138
379,1	533,11
379,5	493,452
380	459,167
380,4	420,367
380,9	384,881
381,4	355,71
381,8	332,595
382,3	311,71
382,7	289,024
383,2	263,595
383,6	242,652
384,1	227,138
384,6	211,567
385	196,167
385,5	179,852
385,9	161,081
386,4	149,681
386,8	143,824
387,3	133,481
387,7	122,795
388,2	115,195
388,7	105,452
389,1	102,595
389,6	100,91
390	94,995
390,5	90,767
390,9	91,652
391,4	85,395
391,9	82,481
392,3	81,338
392,8	70,71
393,2	57,967
393,7	53,681
394,1	42,51
394,6	38,824
395,1	39,652
395,5	33,224
396	37,224
396,4	43,195
396,9	41,71
397,3	47,31
397,8	49,652
398,2	47,481
398,7	52,195
399,2	49,767
399,6	47,538
400,1	47,938
400,5	40,624
401	35,91
401,4	33,167
401,9	29,367
402,4	28,51
402,8	27,138
403,3	28,481
403,7	28,395
404,2	33,167
404,6	36,424
405,1	34,881
405,5	35,824
406	36,167
406,5	33,167
406,9	36,31
407,4	32,481
407,8	29,11
408,3	29,595
408,7	25,138
409,2	30,395
409,6	30,395
410,1	31,852
410,6	36,367
411	40,567
411,5	43,11
411,9	48,281
412,4	45,138
412,8	50,452
413,3	54,052
413,7	51,91
414,2	51,338
414,7	56,595
415,1	63,967
415,6	70,652
416	69,11
416,5	71,481
416,9	77,567
417,4	82,967
417,8	85,195
418,3	88,338
418,8	88,652
419,2	95,567
419,7	94,738
420,1	95,767
420,6	97,052
421	93,767
421,5	88,624
421,9	92,938
422,4	95,31
422,8	96,452
423,3	98,795
423,8	100,31
424,2	98,367
424,7	101,738
425,1	103,052
425,6	101,967
426	102,052
426,5	101,395
426,9	101,081
427,4	103,452
427,9	96,595
428,3	93,567
428,8	91,738
429,2	92,567
429,7	90,31
430,1	91,767
430,6	96,281
431	104,252
431,5	108,51
431,9	109,367
432,4	114,738
432,8	118,452
433,3	119,595
433,8	122,195
434,2	126,824
434,7	131,195
435,1	135,281
435,6	137,367
436	143,481
436,5	149,967
436,9	148,967
437,4	151,081
437,8	153,481
438,3	163,852
438,8	171,624
439,2	177,652
439,7	185,081
440,1	197,452
440,6	214,281
441	219,224
441,5	223,91
441,9	230,881
442,4	233,852
442,8	242,824
443,3	255,538
443,7	260,052
444,2	274,852
444,7	288,395
445,1	302,824
445,6	318,281
446	326,681
446,5	334,081
446,9	342,967
447,4	355,367
447,8	365,081
448,3	379,795
448,7	395,681
449,2	415,767
449,6	436,395
450,1	454,424
450,6	476,767
451	498,195
451,5	515,167
451,9	536,595
452,4	558,281
452,8	576,081
453,3	602,595
453,7	617,71
454,2	641,367
454,6	662,91
455,1	679,252
455,5	692,224
456	716,452
456,4	731,995
456,9	755,967
457,3	779,138
457,8	797,195
458,3	827,995
458,7	859,052
459,2	882,167
459,6	912,052
460,1	938,738
460,5	960,11
461	997,052
461,4	1021,795
461,9	1051,395
462,3	1082,91
462,8	1115,938
463,2	1148,024
463,7	1181,367
464,1	1215,195
464,6	1246,138
465	1279,167
465,5	1311,281
466	1335,995
466,4	1366,338
466,9	1398,195
467,3	1424,738
467,8	1465,367
468,2	1496,538
468,7	1532,395
469,1	1571,938
469,6	1610,167
470	1648,538
470,5	1687,967
470,9	1714,395
471,4	1745,767
471,8	1781,652
472,3	1819,967
472,7	1855,595
473,2	1888,195
473,6	1920,824
474,1	1963,795
474,5	2002,881
475	2035,567
475,4	2068,452
475,9	2102,995
476,4	2135,624
476,8	2172,138
477,3	2200,481
477,7	2235,881
478,2	2269,652
478,6	2298,967
479,1	2326,824
479,5	2358,252
480	2385,538
480,4	2419,967
480,9	2451,11
481,3	2478,595
481,8	2511,538
482,2	2537,452
482,7	2569,51
483,1	2597,024
483,6	2621,338
484	2649,91
484,5	2682,967
484,9	2708,738
485,4	2740,252
485,8	2766,795
486,3	2794,595
486,7	2819,652
487,2	2837,252
487,6	2856,167
488,1	2877,395
488,5	2897,195
489	2921,338
489,4	2942,967
489,9	2960,31
490,4	2977,681
490,8	2997,395
491,3	3017,281
491,7	3038,881
492,2	3055,195
492,6	3071,052
493,1	3092,31
493,5	3106,567
494	3121,481
494,4	3135,167
494,9	3146,51
495,3	3159,052
495,8	3174,138
496,2	3185,252
496,7	3201,452
497,1	3216,71
497,6	3230,338
498	3244,081
498,5	3254,767
498,9	3262,052
499,4	3274,824
499,8	3293,652
500,3	3298,367
500,7	3302,738
501,2	3306,395
501,6	3318,081
502,1	3330,252
502,5	3344,167
503	3347,967
503,4	3356,595
503,9	3369,167
504,3	3387,595
504,8	3390,71
505,2	3395,995
505,7	3395,567
506,1	3405,881
506,6	3413,881
507	3418,567
507,5	3422,052
507,9	3430,31
508,4	3438,424
508,8	3444,252
509,3	3446,081
509,7	3452,395
510,2	3462,681
510,6	3462,91
511,1	3468,767
511,5	3467,738
512	3477,024
512,4	3484,081
512,9	3493,281
513,3	3494,624
513,8	3503,481
514,2	3510,224
514,7	3522,024
515,1	3531,995
515,6	3537,424
516	3529,195
516,5	3535,881
516,9	3541,567
517,4	3548,481
517,8	3557,681
518,3	3553,024
518,7	3556,738
519,2	3567,938
519,6	3571,481
520,1	3574,652
520,5	3581,31
521	3581,624
521,4	3592,767
521,9	3601,024
522,3	3612,024
522,8	3617,224
523,2	3626,452
523,7	3624,567
524,1	3633,567
524,6	3632,852
525	3633,338
525,5	3634,538
525,9	3636,738
526,4	3640,795
526,8	3650,138
527,3	3653,652
527,7	3662,538
528,2	3672,281
528,6	3678,967
529,1	3694,767
529,5	3704,252
530	3714,11
530,4	3721,195
530,9	3726,31
531,3	3737,452
531,8	3749,024
532,2	3754,338
532,6	3756,567
533,1	3758,167
533,5	3767,824
534	3779,081
534,4	3781,881
534,9	3787,51
535,3	3791,424
535,8	3799,71
536,2	3812,681
536,7	3821,995
537,1	3835,081
537,6	3843,024
538	3852,252
538,5	3868,224
538,9	3879,538
539,4	3887,995
539,8	3891,595
540,3	3906,052
540,7	3910,024
541,2	3914,652
541,6	3920,51
542,1	3928,195
542,5	3937,91
543	3952,224
543,4	3946,081
543,9	3962,824
544,3	3977,281
544,8	3980,452
545,2	3988,51
545,7	3998,995
546,1	4003,995
546,5	4017,995
547	4026,767
547,4	4026,738
547,9	4036,595
548,3	4046,167
548,8	4050,738
549,2	4055,795
549,7	4062,767
550,1	4070,595
550,6	4089,452
551	4098,31
551,5	4103,738
551,9	4109,767
552,4	4115,538
552,8	4119,938
553,3	4125,51
553,7	4125,51
554,2	4134,052
554,6	4140,767
555,1	4148,738
555,5	4154,995
555,9	4166,481
556,4	4170,424
556,8	4177,852
557,3	4183,767
557,7	4193,967
558,2	4197,224
558,6	4208,91
559,1	4207,795
559,5	4213,31
560	4223,938
560,4	4230,681
560,9	4235,052
561,3	4238,71
561,8	4245,338
562,2	4254,824
562,7	4261,652
563,1	4269,395
563,6	4276,767
564	4286,624
564,4	4298,881
564,9	4303,167
565,3	4301,881
565,8	4307,281
566,2	4307,224
566,7	4316,167
567,1	4316,367
567,6	4318,881
568	4312,767
568,5	4324,567
568,9	4324,367
569,4	4325,681
569,8	4311,852
570,3	4307,281
570,7	4297,995
571,1	4307,424
571,6	4307,11
572	4315,481
572,5	4310,51
572,9	4319,11
573,4	4323,567
573,8	4335,938
574,3	4329,424
574,7	4330,424
575,2	4322,995
575,6	4327,852
576,1	4331,052
576,5	4335,795
576,9	4332,652
577,4	4336,538
577,8	4326,338
578,3	4326,938
578,7	4323,424
579,2	4317,91
579,6	4307,052
580,1	4300,51
580,5	4296,91
581	4294,71
581,4	4288,138
581,9	4285,938
582,3	4275,538
582,7	4270,795
583,2	4263,767
583,6	4257,11
584,1	4251,024
584,5	4247,252
585	4241,195
585,4	4229,938
585,9	4220,167
586,3	4218,481
586,8	4214,624
587,2	4212,767
587,6	4212,538
588,1	4202,738
588,5	4201,252
589	4199,424
589,4	4190,538
589,9	4173,995
590,3	4167,452
590,8	4156,252
591,2	4146,681
591,7	4147,995
592,1	4143,224
592,5	4140,795
593	4139,11
593,4	4129,11
593,9	4115,995
594,3	4115,995
594,8	4102,167
595,2	4091,31
595,7	4084,31
596,1	4083,252
596,6	4081,967
597	4076,967
597,4	4069,824
597,9	4063,595
598,3	4063,938
598,8	4053,91
599,2	4038,31
599,7	4022,31
600,1	4019,852
600,6	4008,367
601	4002,967
601,4	3991,538
601,9	3992,824
602,3	3983,567
602,8	3976,224
603,2	3954,224
603,7	3945,824
604,1	3938,652
604,6	3927,881
605	3903,795
605,4	3904,995
605,9	3897,51
606,3	3890,052
606,8	3876,91
607,2	3853,824
607,7	3836,538
608,1	3824,738
608,6	3802,91
609	3798,938
609,4	3792,51
609,9	3778,252
610,3	3774,167
610,8	3764,91
611,2	3751,967
611,7	3747,224
612,1	3724,71
612,6	3714,767
613	3703,367
613,4	3688,652
613,9	3677,767
614,3	3675,052
614,8	3660,995
615,2	3655,11
615,7	3637,71
616,1	3627,252
616,6	3614,052
617	3595,738
617,4	3577,881
617,9	3565,338
618,3	3551,11
618,8	3542,081
619,2	3522,424
619,7	3509,481
620,1	3498,738
620,5	3482,538
621	3459,567
621,4	3441,167
621,9	3421,481
622,3	3413,081
622,8	3390,224
623,2	3376,91
623,6	3364,395
624,1	3351,167
624,5	3335,538
625	3325,452
625,4	3309,338
625,9	3300,652
626,3	3285,852
626,8	3265,51
627,2	3257,452
627,6	3238,91
628,1	3216,738
628,5	3205,252
629	3187,852
629,4	3170,024
629,9	3159,281
630,3	3130,481
630,7	3113,538
631,2	3103,824
631,6	3086,367
632,1	3069,11
632,5	3052,967
633	3032,167
633,4	3022,595
633,8	3012,167
634,3	2991,338
634,7	2975,081
635,2	2957,138
635,6	2938,881
636,1	2925,795
636,5	2909,824
636,9	2886,081
637,4	2877,767
637,8	2855,567
638,3	2846,195
638,7	2835,91
639,2	2816,252
639,6	2804,795
640	2803,967
640,5	2786,281
640,9	2780,395
641,4	2764,452
641,8	2749,652
642,2	2740,852
642,7	2734,967
643,1	2717,91
643,6	2704,652
644	2690,938
644,5	2683,652
644,9	2671,995
645,3	2659,824
645,8	2637,795
646,2	2620,281
646,7	2605,138
647,1	2586,338
647,6	2569,252
648	2555,881
648,4	2534,595
648,9	2520,31
649,3	2506,995
649,8	2498,91
650,2	2486,081
650,6	2477,652
651,1	2461,481
651,5	2460,538
652	2447,624
652,4	2431,824
652,9	2412,71
653,3	2401,481
653,7	2382,91
654,2	2375,052
654,6	2356,224
655,1	2345,481
655,5	2339,081
655,9	2327,052
656,4	2315,081
656,8	2303,624
657,3	2287,624
657,7	2276,967
658,2	2262,995
658,6	2241,281
659	2229,567
659,5	2209,567
659,9	2195,71
660,4	2181,195
660,8	2159,31
661,2	2144,424
661,7	2140,424
662,1	2121,938
662,6	2110,995
663	2097,795
663,4	2085,052
663,9	2078,624
664,3	2064,881
664,8	2042,995
665,2	2032,367
665,6	2022,367
666,1	2005,138
666,5	1993,881
667	1978,824
667,4	1961,567
667,9	1948,681
668,3	1935,052
668,7	1918,052
669,2	1912,71
669,6	1898,881
670,1	1890,624
670,5	1882,51
670,9	1874,252
671,4	1862,395
671,8	1858,338
672,3	1846,995
672,7	1836,995
673,1	1819,367
673,6	1807,595
674	1799,624
674,5	1791,224
674,9	1770,31
675,3	1756,624
675,8	1740,052
676,2	1731,51
676,7	1713,481
677,1	1701,31
677,5	1684,395
678	1673,967
678,4	1661,052
678,9	1650,995
679,3	1638,881
679,7	1637,795
680,2	1623,338
680,6	1615,11
681,1	1610,395
681,5	1603,481
681,9	1592,252
682,4	1584,881
682,8	1573,767
683,3	1570,995
683,7	1563,824
684,1	1552,424
684,6	1539,167
685	1528,967
685,5	1516,138
685,9	1503,995
686,3	1485,852
686,8	1477,567
687,2	1472,652
687,7	1459,481
688,1	1447,338
688,5	1438,252
689	1429,252
689,4	1417,338
689,9	1406,767
690,3	1384,281
690,7	1377,995
691,2	1376,624
691,6	1367,167
692	1359,338
692,5	1352,652
692,9	1342,91
693,4	1336,91
693,8	1327,767
694,2	1316,652
694,7	1310,195
695,1	1299,024
695,6	1296,967
696	1283,31
696,4	1281,195
696,9	1267,167
697,3	1257,538
697,8	1243,024
698,2	1235,052
698,6	1222,452
699,1	1213,652
699,5	1206,738
699,9	1204,281
700,4	1195,71
700,8	1192,71
701,3	1187,281
701,7	1179,681
702,1	1175,481
702,6	1163,024
703	1155,11
703,5	1147,195
703,9	1135,738
704,3	1127,767
704,8	1116,795
705,2	1109,424
705,6	1105,91
706,1	1097,71
706,5	1087,881
707	1087,281
707,4	1080,71
707,8	1077,11
708,3	1072,652
708,7	1062,567
709,2	1057,767
709,6	1051,767
710	1043,738
710,5	1032,024
710,9	1021,824
711,3	1009,452
711,8	1001,31
712,2	995,338
712,7	985,767
713,1	976,795
713,5	975,052
714	969,138
714,4	961,224
714,8	956,281
715,3	946,31
715,7	940,052
716,2	929,367
716,6	920,452
717	913,252
717,5	906,424
717,9	902,424
718,3	892,852
718,8	887,224
719,2	882,281
719,7	875,881
720,1	873,31
720,5	871,652
721	865,11
721,4	859,738
721,8	853,481
722,3	844,281
722,7	841,338
723,2	830,138
723,6	814,052
724	802,681
724,5	799,338
724,9	794,881
725,3	792,31
725,8	783,624
726,2	778,51
726,7	776,538
727,1	769,424
727,5	761,938
728	754,424
728,4	752,967
728,8	742,081
729,3	736,11
729,7	734,31
730,1	731,91
730,6	726,767
731	719,995
731,5	711,395
731,9	707,652
732,3	707,081
732,8	706,91
733,2	703,138
733,6	699,367
734,1	699,367
734,5	692,024
734,9	689,024
735,4	684,624
735,8	673,081
736,3	670,31
736,7	666,367
737,1	661,195
737,6	659,11
738	654,081
738,4	647,281
738,9	646,167
739,3	639,652
739,7	634,967
740,2	631,252
740,6	630,881
741,1	630,167
741,5	625,252
741,9	621,338
742,4	623,338
742,8	617,51
743,2	613,081
743,7	599,91
744,1	595,481
744,5	590,681
745	584,881
745,4	571,367
745,8	568,567
746,3	566,395
746,7	566,31
747,2	561,881
747,6	562,624
748	564,681
748,5	566,367
748,9	560,338
749,3	553,138
749,8	554,11
750,2	549,31
750,6	540,881
751,1	537,052
751,5	533,081
751,9	537,595
752,4	541,338
752,8	536,31
753,3	534,795
753,7	540,081
754,1	530,967
754,6	524,795
755	512,795
755,4	506,024
755,9	503,738
756,3	497,91
756,7	484,595
757,2	481,595
757,6	476,452
758	478,081
758,5	473,967
758,9	469,452
759,3	466,424
759,8	468,452
760,2	463,995
760,6	460,738
761,1	455,652
761,5	450,424
761,9	443,995
762,4	438,538
762,8	431,767
763,3	429,167
763,7	427,995
764,1	425,71
764,6	424,167
765	422,252
765,4	421,395
765,9	421,395
766,3	425,452
766,7	426,31
767,2	420,738
767,6	421,652
768	417,51
768,5	410,51
768,9	401,567
769,3	392,852
769,8	387,424
770,2	385,995
770,6	377,738
771,1	379,367
771,5	382,881
771,9	392,31
772,4	390,224
772,8	386,824
773,2	386,195
773,7	384,71
774,1	380,852
774,5	373,11
775	363,767
775,4	362,852
775,8	360,31
776,3	359,024
776,7	355,538
777,1	353,338
777,6	357,281
778	356,852
778,4	354,424
778,9	356,852
779,3	350,91
779,7	348,281
780,2	345,395
780,6	341,11
781	332,71
781,5	325,538
781,9	317,595
782,3	313,138
782,8	312,881
783,2	308,167
783,6	304,652
784,1	306,452
784,5	307,71
784,9	307,967
785,4	310,338
785,8	309,024
786,2	309,595
786,7	313,652
787,1	307,367
787,5	303,51
788	301,281
788,4	301,681
788,8	294,338
789,3	290,852
789,7	283,281
790,1	284,452
790,6	282,681
791	282,71
791,4	275,795
791,9	272,767
792,3	268,795
792,7	273,91
793,2	266,767
793,6	265,767
794	261,195
794,5	258,024
794,9	263,795
795,3	266,167
795,8	255,081
796,2	258,652
796,6	257,31
797,1	255,652
797,5	254,624
797,9	248,938
798,4	245,138
798,8	242,195
799,2	239,938
799,7	239,338
800,1	237,138
800,5	236,395
801	240,367
801,4	239,052
801,8	240,338
802,2	240,167
802,7	234,338
803,1	229,624
803,5	232,452
804	221,681
804,4	222,51
804,8	223,624
805,3	222,824
805,7	224,11
806,1	222,452
806,6	217,567
807	220,595
807,4	213,767
807,9	205,11
808,3	201,967
808,7	196,052
809,2	198,052
809,6	202,252
810	202,767
810,4	202,538
810,9	206,452
811,3	208,71
811,7	212,652
812,2	215,51
812,6	209,31
813	209,224
813,5	208,681
813,9	203,195
814,3	196,167
814,8	189,195
815,2	181,71
815,6	174,367
816,1	171,538
816,5	171,167
816,9	173,51
817,3	170,167
817,8	177,71
818,2	179,452
818,6	178,11
819,1	175,51
819,5	171,195
819,9	171,538
820,4	176,738
820,8	169,395
821,2	162,852
821,7	168,995
822,1	168,281
822,5	171,91
822,9	166,11
823,4	159,338
823,8	159,11
824,2	161,452
824,7	151,795
825,1	143,424
825,5	134,424
826	129,052
826,4	129,224
826,8	129,081
827,3	130,967
827,7	131,938
828,1	135,024
828,5	136,195
829	135,367
829,4	135,195
829,8	129,338
830,3	129,138
830,7	129,452
831,1	128,224
831,6	129,681
832	131,652
832,4	128,395
832,8	132,995
833,3	126,995
833,7	125,624
834,1	122,252
834,6	121,424
835	122,738
835,4	125,367
835,8	121,367
836,3	122,052
836,7	123,91
837,1	125,224
837,6	124,395
838	121,938
838,4	117,31
838,9	116,595
839,3	114,452
839,7	114,681
840,1	114,481
840,6	112,71
841	114,11
841,4	116,795
841,9	117,081
842,3	113,995
842,7	111,395
843,1	108,167
843,6	110,424
844	111,71
844,4	114,338
844,9	116,452
845,3	117,338
845,7	115,138
846,2	113,71
846,6	105,595
847	101,71
847,4	96,395
847,9	94,481
848,3	92,252
848,7	95,281
849,2	97,538
849,6	94,71
850	97,11
850,4	92,881
850,9	95,138
851,3	98,31
851,7	93,824
852,2	89,224
852,6	99,224
853	96,995
853,4	100,395
853,9	91,51
854,3	90,338
854,7	89,11
855,2	90,195
855,6	85,252
856	84,767
856,4	79,681
856,9	76,652
857,3	75,252
857,7	76,767
858,2	81,738
858,6	82,51
859	79,824
859,4	79,195
859,9	83,367
860,3	79,652
860,7	81,052
861,1	80,995
861,6	74,195
862	73,024
862,4	76,824
862,9	78,31
863,3	79,195
863,7	77,767
864,1	73,024
864,6	76,138
865	77,024
865,4	77,738
865,9	79,31
866,3	76,624
866,7	73,938
867,1	71,31
867,6	69,938
868	66,51
868,4	61,767
868,8	58,795
869,3	60,767
869,7	65,024
870,1	62,452
870,6	63,224
871	52,052
871,4	52,71
871,8	47,224
872,3	48,51
872,7	45,91
873,1	48,995
873,5	48,995
874	60,31
874,4	58,595
874,8	57,71
875,3	59,081
875,7	57,452
876,1	56,967
876,5	55,71
877	56,224
877,4	54,995
877,8	59,224
878,2	58,395
878,7	58,995
879,1	55,481
879,5	57,367
879,9	59,224
880,4	59,881
880,8	59,395
881,2	57,481
881,7	55,024
882,1	59,681
882,5	57,338
882,9	55,367
883,4	55,624
883,8	57,938
884,2	53,252
884,6	52,567
885,1	49,795
885,5	51,967
885,9	50,652
886,3	54,195
886,8	47,767
887,2	48,367
887,6	48,252
888	47,738
888,5	46,252
888,9	42,995
889,3	37,967
889,8	40,281
890,2	41,767
890,6	39,024
891	42,138
891,5	42,652
891,9	49,138
892,3	49,681
892,7	48,481
893,2	51,795
893,6	51,995
894	51,91
894,4	48,481
894,9	40,91
895,3	43,11
895,7	44,31
896,1	39,967
896,6	43,481
897	43,51
897,4	48,938
897,8	53,338
898,3	53,881
898,7	50,138
899,1	49,795
899,5	46,024
900	40,938
900,4	35,052
900,8	30,71
901,2	24,738
901,7	27,252
902,1	29,281
902,5	31,481
902,9	32,367
903,4	34,652
903,8	36,195
904,2	36,281
904,6	36,51
905,1	33,852
905,5	28,852
905,9	29,052
906,3	30,252
906,8	33,452
907,2	35,138
907,6	36,081
908	37,224
908,5	37,938
908,9	36,681
909,3	32,567
909,7	30,681
910,2	30,995
910,6	31,881
911	28,852
911,4	32,367
911,9	31,081
912,3	34,91
912,7	38,31
913,1	40,167
913,6	36,938
914	38,395
914,4	36,652
914,8	39,852
915,3	35,567
915,7	32,595
916,1	30,252
916,5	33,881
916,9	30,338
917,4	28,881
917,8	31,024
918,2	31,281
918,6	24,595
919,1	26,91
919,5	25,881
919,9	31,338
920,3	28,824
920,8	26,995
921,2	22,881
921,6	28,567
922	28,938
922,5	22,452
922,9	19,338
923,3	22,024
923,7	20,595
924,2	20,367
924,6	19,51
925	15,024
925,4	13,624
925,8	13,767
926,3	12,852
926,7	10,652
927,1	15,624
927,5	18,138
928	18,11
928,4	22,31
928,8	27,31
929,2	27,052
929,7	28,452
930,1	26,052
930,5	20,595
930,9	23,881
931,3	26,481
931,8	22,595
932,2	24,167
932,6	23,11
933	19,852
933,5	23,967
933,9	20,795
934,3	18,595
934,7	15,852
935,2	13,795
935,6	17,51
936	23,081
936,4	19,681
936,8	25,481
937,3	23,224
937,7	27,252
938,1	29,481
938,5	24,167
939	20,938
939,4	19,852
939,8	15,252
940,2	16,567
940,6	17,224
941,1	15,51
941,5	19,452
941,9	19,224
942,3	22,024
942,8	23,167
943,2	28,195
943,6	19,681
944	18,452
944,4	15,767
944,9	11,567
945,3	11,195
945,7	7,681
946,1	-0,176
946,6	2,424
947	1,424
947,4	5,967
947,8	11,681
948,2	8,167
948,7	9,224
949,1	8,738
949,5	15,052
949,9	20,31
950,3	13,967
950,8	12,624
951,2	14,424
951,6	10,795
952	14,795
952,5	9,024
952,9	6,538
953,3	6,881
953,7	6,367
954,1	12,224
954,6	17,995
955	19,795
955,4	18,024
955,8	19,424
956,2	16,852
956,7	22,395
957,1	13,624
957,5	13,91
957,9	11,91
958,3	13,881
958,8	15,224
959,2	23,852
959,6	23,424
960	27,595
960,5	24,938
960,9	25,167
961,3	24,567
961,7	17,481
962,1	14,91
962,6	12,224
963	10,338
963,4	7,881
963,8	8,481
964,2	11,224
964,7	15,71
965,1	15,367
965,5	12,595
965,9	15,138
966,3	18,424
966,8	16,424
967,2	18,91
967,6	18,138
968	14,395
968,4	14,424
968,9	14,995
969,3	16,481
969,7	13,738
970,1	11,51
970,5	9,224
971	16,367
971,4	18,938
971,8	19,481
972,2	18,595
972,6	20,538
973,1	16,11
973,5	16,31
973,9	14,538
974,3	14,567
974,7	13,91
975,2	14,824
975,6	14,738
976	17,51
976,4	17,11
976,8	12,967
977,3	8,395
977,7	2,281
978,1	-1,462
978,5	-2,662
978,9	-3,462
979,4	-2,233
979,8	-4,548
980,2	-5,548
980,6	-3,976
981	0,652
981,5	0,024
981,9	0,567
982,3	1,367
982,7	3,11
983,1	4,538
983,6	8,252
984	6,224
984,4	10,11
984,8	10,338
985,2	10,024
985,6	8,31
986,1	12,938
986,5	10,652
986,9	7,91
987,3	8,995
987,7	7,71
988,2	5,11
988,6	9,338
989	5,567
989,4	7,938
989,8	5,824
990,3	3,281
990,7	3,338
991,1	7,395
991,5	7,395
991,9	7,11
992,3	8,052
992,8	15,052
993,2	13,024
993,6	15,995
994	19,395
994,4	19,138
994,9	18,138
995,3	12,224
995,7	10,881
996,1	12,51
996,5	10,795
996,9	0,395
997,4	0,852
997,8	1,195
998,2	5,481
998,6	-4,262
999	-9,233
999,5	-10,633
999,9	-5,976
1000,3	-8,49
1000,7	-6,205
1001,1	-8,262
1001,5	2,852
1002	11,538
1002,4	15,652
1002,8	18,395
1003,2	15,681
1003,6	17,195
1004	23,738
1004,5	16,995
1004,9	15,138
1005,3	8,824
1005,7	4,852
1006,1	7,852
1006,6	5,481
1007	-1,262
1007,4	0,081
1007,8	4,738
1008,2	2,281
1008,6	5,167
1009,1	4,767
1009,5	8,367
1009,9	12,11
1010,3	15,652
1010,7	8,681
1011,1	14,51
1011,6	16,51
1012	20,681
1012,4	15,167
1012,8	13,281
1013,2	15,767
1013,6	16,167
1014,1	15,567
1014,5	13,338
1014,9	10,538
1015,3	11,481
1015,7	14,51
1016,1	9,195
1016,6	9,424
1017	12,195
1017,4	12,081
1017,8	11,138
1018,2	17,824
1018,6	10,367
1019,1	9,738
1019,5	10,138
1019,9	6,338
1020,3	5,424
1020,7	8,338
1021,1	4,281
1021,6	10,852
1022	14,167
1022,4	13,367
1022,8	15,252
1023,2	15,595
1023,6	14,024
1024,1	18,738
1024,5	20,424
1024,9	18,167
1025,3	21,767
1025,7	19,967
1026,1	22,11
1026,6	22,652
1027	16,938
1027,4	9,51
1027,8	8,881
1028,2	5,652
1028,6	8,224
1029	10,138
1029,5	13,852
1029,9	11,395
1030,3	17,11
1030,7	13,938
1031,1	15,195
1031,5	10,51
1032	6,681
1032,4	2,11
1032,8	6,395
1033,2	7,138
1033,6	10,367
1034	9,052
1034,4	9,11
1034,9	11,424
1035,3	8,795
1035,7	8,681
1036,1	6,967
1036,5	5,995
1036,9	6,167
1037,4	12,767
1037,8	11,367
1038,2	13,31
1038,6	14,852
1039	16,567
1039,4	22,481
1039,8	20,938
1040,3	21,338
1040,7	20,852
1041,1	23,995
1041,5	23,138
1041,9	18,852
1042,3	12,395
1042,7	14,024
1043,2	10,624
1043,6	8,681
1044	4,995
1044,4	4,281
1044,8	6,995
1045,2	8,624
1045,6	8,795
1046,1	5,595
1046,5	5,767
1046,9	5,881
1047,3	4,252
1047,7	4,681
1048,1	6,795
1048,5	8,538
1049	14,652
1049,4	17,938
1049,8	17,052
1050,2	19,024
1050,6	22,195
1051	22,938
1051,4	21,081
1051,9	18,31
1052,3	25,852
1052,7	24,167
1053,1	19,995
1053,5	20,252
1053,9	15,481
1054,3	18,967
1054,8	25,452
1055,2	22,51
1055,6	28,995
1056	30,938
1056,4	24,967
1056,8	28,967
1057,2	24,652
1057,6	17,424
1058,1	11,824
1058,5	7,595
1058,9	11,31
1059,3	14,967
1059,7	11,881
1060,1	14,138
1060,5	13,538
1061	13,138
1061,4	13,795
1061,8	11,91
1062,2	12,71
1062,6	14,395
1063	14,252
1063,4	12,652
1063,8	10,224
1064,3	7,938
1064,7	3,252
1065,1	-4,348
1065,5	-4,89
1065,9	-7,576
1066,3	-3,376
1066,7	-6,319
1067,1	-7,148
1067,6	-1,148
1068	0,081
1068,4	1,767
1068,8	4,424
1069,2	3,452
1069,6	8,481
1070	13,652
1070,4	8,91
1070,9	8,824
1071,3	8,081
1071,7	4,795
1072,1	5,652
1072,5	4,338
1072,9	1,967
1073,3	5,538
1073,7	10,995
1074,2	10,138
1074,6	13,138
1075	9,824
1075,4	10,624
1075,8	11,338
1076,2	10,31
1076,6	7,824
1077	8,967
1077,5	10,31
1077,9	11,767
1078,3	10,681
1078,7	9,852
1079,1	8,252
1079,5	10,138
1079,9	9,11
1080,3	7,538
1080,7	7,938
1081,2	11,938
1081,6	11,481
1082	9,224
1082,4	6,195
1082,8	11,252
1083,2	12,395
1083,6	16,138
1084	14,424
1084,5	17,995
1084,9	19,11
1085,3	17,795
1085,7	14,052
1086,1	14,052
1086,5	8,567
1086,9	9,224
1087,3	5,338
1087,7	5,795
1088,2	7,852
1088,6	8,024
1089	6,367
1089,4	7,852
1089,8	7,51
1090,2	5,71
1090,6	8,71
1091	9,367
1091,4	10,71
1091,9	10,795
1092,3	15,51
1092,7	14,567
1093,1	20,538
1093,5	18,71
1093,9	19,452
1094,3	20,252
1094,7	19,052
1095,1	15,795
1095,5	15,767
1096	10,281
1096,4	11,338
1096,8	10,052
1097,2	8,024
1097,6	13,281
1098	9,795
1098,4	12,652
1098,8	14,052
1099,2	18,081
1099,6	17,224
1100,1	15,31
1100,5	9,338
1100,9	12,081
1101,3	10,967
1101,7	12,967
1102,1	10,71
1102,5	15,224
1102,9	17,224
1103,3	24,11
1103,7	24,881
1104,2	22,91
1104,6	22,51
1105	18,31
1105,4	15,195
1105,8	12,71
1106,2	6,167
1106,6	3,624
1107	2,824
1107,4	0,8
1107,8	2,367
1108,3	-0,233
