Data from Subt2_249.txt Node
Date: Sat Aug 26 18:58:33 MSK 2023
User: vat
Spectrometer: MAYP114033
Trigger mode: 0
Integration Time (sec): 1,000000E0
Scans to average: 5
Electric dark correction enabled: true
Nonlinearity correction enabled: false
Boxcar width: 3
XAxis mode: Wavelengths
Number of Pixels in Spectrum: 2068
>>>>>Begin Spectral Data<<<<<
199,4	-0,083
199,9	2,927
200,4	1,4
200,8	2,995
201,3	4,195
201,8	6,938
202,2	6,281
202,7	10,367
203,2	9,224
203,6	6,595
204,1	2,595
204,6	1,224
205	0,967
205,5	1,567
206	-1,405
206,4	-1,376
206,9	-1,805
207,4	1,738
207,8	0,11
208,3	-2,462
208,8	-0,662
209,2	-0,119
209,7	1,681
210,2	6,395
210,6	6,224
211,1	10,195
211,5	8,681
212	8,938
212,5	8,281
212,9	5,51
213,4	7,452
213,9	5,824
214,3	2,71
214,8	5,567
215,3	2,938
215,7	4,71
216,2	8,995
216,7	5,71
217,1	6,881
217,6	9,338
218,1	7,71
218,5	4,538
219	-1,833
219,5	-1,09
219,9	0,31
220,4	5,567
220,9	2,338
221,3	1,738
221,8	6,91
222,3	10,824
222,7	12,281
223,2	11,51
223,6	3,281
224,1	6,052
224,6	11,481
225	10,452
225,5	11,367
226	7,91
226,4	6,995
226,9	10,795
227,4	11,11
227,8	-2,119
228,3	-1,233
228,8	0,567
229,2	-2,719
229,7	-3,319
230,2	-4,833
230,6	-2,405
231,1	11,567
231,5	12,024
232	13,11
232,5	13,452
232,9	16,052
233,4	18,967
233,9	13,767
234,3	7,367
234,8	6,167
235,3	3,252
235,7	5,91
236,2	4,395
236,7	5,967
237,1	10,71
237,6	10,11
238,1	10,91
238,5	7,938
239	4,11
239,4	5,71
239,9	2,395
240,4	-0,633
240,8	3,452
241,3	-0,033
241,8	2,481
242,2	4,481
242,7	2,052
243,2	1,91
243,6	2,881
244,1	2,595
244,6	9,11
245	8,052
245,5	12,538
245,9	12,51
246,4	13,452
246,9	12,081
247,3	12,938
247,8	10,995
248,3	11,167
248,7	7,538
249,2	7,138
249,7	6,567
250,1	9,881
250,6	7,081
251	7,281
251,5	11,995
252	13,967
252,4	18,795
252,9	16,852
253,4	14,795
253,8	15,31
254,3	14,852
254,8	15,881
255,2	10,11
255,7	5,481
256,1	10,395
256,6	13,995
257,1	18,281
257,5	15,452
258	11,652
258,5	13,738
258,9	14,624
259,4	10,967
259,9	6,738
260,3	-0,433
260,8	-0,376
261,2	-3,89
261,7	0,195
262,2	0,31
262,6	-1,233
263,1	5,195
263,6	8,195
264	15,51
264,5	23,795
264,9	22,995
265,4	24,652
265,9	25,967
266,3	22,767
266,8	23,624
267,3	17,424
267,7	11,538
268,2	11,195
268,7	8,424
269,1	8,081
269,6	3,195
270	7,738
270,5	4,167
271	5,738
271,4	3,138
271,9	3,167
272,4	4,852
272,8	7,681
273,3	1,024
273,7	5,567
274,2	5,367
274,7	8,224
275,1	10,424
275,6	12,995
276,1	9,338
276,5	15,624
277	13,195
277,4	12,91
277,9	10,767
278,4	11,91
278,8	10,395
279,3	15,395
279,8	11,281
280,2	15,252
280,7	17,252
281,1	18,081
281,6	18,367
282,1	17,852
282,5	16,081
283	17,195
283,4	13,967
283,9	15,824
284,4	19,31
284,8	17,252
285,3	17,31
285,8	17,538
286,2	15,395
286,7	16,338
287,1	9,338
287,6	5,452
288,1	1,338
288,5	1,567
289	1,681
289,5	3,024
289,9	-0,005
290,4	2,967
290,8	2,881
291,3	8,481
291,8	9,138
292,2	9,167
292,7	11,681
293,1	13,11
293,6	17,652
294,1	15,452
294,5	18,624
295	19,567
295,5	15,052
295,9	12,367
296,4	7,967
296,8	3,938
297,3	6,367
297,8	-2,462
298,2	-10,433
298,7	-1,862
299,1	-2,719
299,6	-1,119
300,1	1,452
300,5	5,281
301	10,824
301,5	20,624
301,9	17,967
302,4	13,538
302,8	13,567
303,3	12,052
303,8	7,281
304,2	4,367
304,7	0,024
305,1	-7,148
305,6	-2,233
306,1	7,595
306,5	9,624
307	11,167
307,4	16,652
307,9	14,081
308,4	14,995
308,8	11,367
309,3	8,424
309,8	5,052
310,2	7,71
310,7	0,738
311,1	2,452
311,6	7,652
312,1	14,481
312,5	12,367
313	12,824
313,4	11,51
313,9	15,567
314,4	16,538
314,8	12,338
315,3	9,338
315,7	1,338
316,2	-1,176
316,7	-5,833
317,1	-1,719
317,6	-0,005
318	7,338
318,5	6,881
319	13,195
319,4	15,852
319,9	23,71
320,3	17,224
320,8	12,167
321,3	9,481
321,7	10,452
322,2	8,081
322,6	8,881
323,1	3,538
323,6	4,967
324	6,681
324,5	5,31
324,9	2,938
325,4	5,195
325,9	2,395
326,3	1,624
326,8	2,767
327,2	2,681
327,7	1,481
328,2	1,91
328,6	2,452
329,1	1,51
329,5	2,71
330	1,938
330,5	2,767
330,9	5,452
331,4	7,681
331,8	6,938
332,3	10,424
332,8	11,681
333,2	8,367
333,7	10,595
334,1	9,51
334,6	5,424
335,1	5,681
335,5	5,538
336	-0,205
336,4	3,967
336,9	8,395
337,4	9,024
337,8	11,967
338,3	11,138
338,7	9,71
339,2	10,595
339,7	14,11
340,1	8,11
340,6	9,738
341	5,138
341,5	7,281
342	6,31
342,4	5,881
342,9	0,767
343,3	-1,405
343,8	-2,376
344,2	3,167
344,7	8,938
345,2	7,024
345,6	10,652
346,1	14,481
346,5	11,938
347	8,681
347,5	6,281
347,9	5,795
348,4	9,281
348,8	4,967
349,3	6,281
349,8	13,138
350,2	19,367
350,7	16,052
351,1	11,195
351,6	12,395
352	19,338
352,5	23,138
353	28,252
353,4	26,624
353,9	42,481
354,3	52,252
354,8	57,51
355,3	70,338
355,7	80,024
356,2	91,195
356,6	112,595
357,1	128,567
357,5	148,852
358	179,852
358,5	205,052
358,9	234,995
359,4	278,052
359,8	317,51
360,3	365,567
360,8	415,481
361,2	474,252
361,7	539,281
362,1	612,367
362,6	684,824
363	766,938
363,5	853,624
364	947,11
364,4	1038,595
364,9	1133,081
365,3	1223,795
365,8	1306,081
366,3	1384,652
366,7	1459,024
367,2	1526,595
367,6	1577,795
368,1	1620,881
368,5	1646,538
369	1658,224
369,5	1667,338
369,9	1650,367
370,4	1621,567
370,8	1590,767
371,3	1539,595
371,7	1486,967
372,2	1431,595
372,7	1359,795
373,1	1293,367
373,6	1217,595
374	1141,138
374,5	1069,138
374,9	994,852
375,4	924,538
375,9	854,338
376,3	788,252
376,8	726,052
377,2	668,281
377,7	608,024
378,2	555,881
378,6	507,195
379,1	466,624
379,5	428,567
380	399,967
380,4	363,795
380,9	339,395
381,4	314,31
381,8	297,195
382,3	278,138
382,7	258,281
383,2	235,281
383,6	218,595
384,1	204,424
384,6	190,881
385	171,367
385,5	153,852
385,9	137,824
386,4	130,595
386,8	124,481
387,3	114,31
387,7	108,652
388,2	104,652
388,7	100,081
389,1	97,738
389,6	92,738
390	87,31
390,5	84,595
390,9	80,995
391,4	72,424
391,9	68,681
392,3	64,881
392,8	56,767
393,2	53,252
393,7	49,995
394,1	44,738
394,6	42,31
395,1	43,31
395,5	39,195
396	40,881
396,4	42,424
396,9	39,681
397,3	42,224
397,8	48,91
398,2	46,881
398,7	46,681
399,2	48,767
399,6	44,281
400,1	47,624
400,5	41,167
401	34,224
401,4	28,71
401,9	32,624
402,4	32,081
402,8	28,481
403,3	31,195
403,7	31,767
404,2	35,881
404,6	41,938
405,1	35,395
405,5	31,624
406	31,938
406,5	21,595
406,9	25,824
407,4	20,767
407,8	20,567
408,3	25,71
408,7	27,052
409,2	34,795
409,6	43,395
410,1	44,452
410,6	52,481
411	52,338
411,5	53,195
411,9	55,338
412,4	55,424
412,8	57,367
413,3	57,195
413,7	55,195
414,2	55,881
414,7	59,31
415,1	66,71
415,6	66,91
416	67,738
416,5	72,452
416,9	78,224
417,4	85,795
417,8	93,281
418,3	92,938
418,8	97,167
419,2	97,424
419,7	100,252
420,1	99,881
420,6	99,624
421	90,624
421,5	93,281
421,9	91,567
422,4	95,367
422,8	91,595
423,3	88,052
423,8	85,024
424,2	87,167
424,7	85,195
425,1	85,538
425,6	87,624
426	88,167
426,5	94,31
426,9	102,681
427,4	105,995
427,9	99,652
428,3	103,281
428,8	100,967
429,2	101,224
429,7	96,481
430,1	89,31
430,6	90,624
431	93,624
431,5	96,138
431,9	93,367
432,4	97,538
432,8	100,852
433,3	106,738
433,8	106,51
434,2	114,824
434,7	115,938
435,1	122,11
435,6	124,538
436	133,281
436,5	136,824
436,9	138,424
437,4	141,595
437,8	143,967
438,3	144,795
438,8	147,31
439,2	148,424
439,7	152,795
440,1	160,395
440,6	170,195
441	171,681
441,5	182,824
441,9	191,224
442,4	194,795
442,8	199,224
443,3	209,852
443,7	214,167
444,2	229,824
444,7	236,224
445,1	249,567
445,6	264,11
446	277,624
446,5	286,138
446,9	289,967
447,4	300,567
447,8	313,395
448,3	322,395
448,7	330,852
449,2	344,595
449,6	359,91
450,1	377,224
450,6	393,881
451	410,081
451,5	428,395
451,9	449,795
452,4	464,395
452,8	479,338
453,3	501,681
453,7	512,024
454,2	527,995
454,6	540,995
455,1	554,51
455,5	568,938
456	596,31
456,4	606,681
456,9	629,738
457,3	650,967
457,8	664,624
458,3	686,052
458,7	708,224
459,2	722,395
459,6	749,252
460,1	774,195
460,5	787,938
461	819,738
461,4	839,767
461,9	863,195
462,3	891,338
462,8	917,881
463,2	937,71
463,7	972,281
464,1	999,31
464,6	1027,595
465	1056,995
465,5	1077,881
466	1099,281
466,4	1125,367
466,9	1156,538
467,3	1181,852
467,8	1214,081
468,2	1243,452
468,7	1273,281
469,1	1307,681
469,6	1342,995
470	1368,31
470,5	1396,967
470,9	1424,224
471,4	1450,167
471,8	1478,452
472,3	1506,052
472,7	1532,567
473,2	1561,624
473,6	1588,824
474,1	1618,738
474,5	1653,51
475	1686,938
475,4	1715,081
475,9	1745,595
476,4	1770,338
476,8	1803,71
477,3	1826,338
477,7	1853,595
478,2	1876,995
478,6	1900,51
479,1	1925,167
479,5	1952,852
480	1975,052
480,4	2010,024
480,9	2030,71
481,3	2054,738
481,8	2086,424
482,2	2107,452
482,7	2132,795
483,1	2157,624
483,6	2175,024
484	2194,424
484,5	2219,224
484,9	2231,852
485,4	2254,395
485,8	2271,281
486,3	2290,167
486,7	2311,824
487,2	2333,11
487,6	2350,538
488,1	2374,71
488,5	2391,024
489	2414,51
489,4	2437,852
489,9	2452,567
490,4	2475,452
490,8	2494,167
491,3	2509,91
491,7	2526,367
492,2	2535,538
492,6	2545,652
493,1	2559,195
493,5	2566,424
494	2573,995
494,4	2584,195
494,9	2596,624
495,3	2612,738
495,8	2622,538
496,2	2640,881
496,7	2647,938
497,1	2659,11
497,6	2671,624
498	2684,567
498,5	2696,71
498,9	2704,167
499,4	2702,31
499,8	2719,081
500,3	2735,795
500,7	2743,167
501,2	2747,624
501,6	2749,252
502,1	2762,224
502,5	2776,767
503	2783,481
503,4	2783,481
503,9	2784,052
504,3	2795,824
504,8	2802,367
505,2	2807,767
505,7	2810,024
506,1	2825,395
506,6	2830,452
507	2842,481
507,5	2842,138
507,9	2849,71
508,4	2849,738
508,8	2856,567
509,3	2849,595
509,7	2860,052
510,2	2866,481
510,6	2871,51
511,1	2872,71
511,5	2884,624
512	2887,852
512,4	2894,052
512,9	2892,624
513,3	2899,138
513,8	2906,852
514,2	2912,167
514,7	2909,367
515,1	2912,081
515,6	2913,138
516	2920,881
516,5	2923,767
516,9	2919,91
517,4	2928,51
517,8	2946,11
518,3	2954,481
518,7	2967,081
519,2	2968,795
519,6	2973,881
520,1	2988,052
520,5	2991,995
521	2986,91
521,4	2993,738
521,9	2997,31
522,3	3001,052
522,8	3007,024
523,2	3010,938
523,7	3017,224
524,1	3024,452
524,6	3026,624
525	3030,995
525,5	3037,881
525,9	3043,452
526,4	3044,738
526,8	3054,052
527,3	3062,681
527,7	3074,681
528,2	3081,281
528,6	3091,167
529,1	3099,51
529,5	3115,852
530	3115,538
530,4	3118,652
530,9	3122,281
531,3	3124,538
531,8	3135,452
532,2	3144,195
532,6	3144,424
533,1	3154,081
533,5	3162,995
534	3169,224
534,4	3181,567
534,9	3189,91
535,3	3194,71
535,8	3207,681
536,2	3223,31
536,7	3237,795
537,1	3248,995
537,6	3253,767
538	3256,31
538,5	3272,052
538,9	3272,652
539,4	3275,71
539,8	3276,224
540,3	3283,138
540,7	3297,338
541,2	3303,395
541,6	3302,538
542,1	3315,824
542,5	3320,624
543	3331,652
543,4	3336,367
543,9	3341,252
544,3	3349,052
544,8	3361,252
545,2	3371,938
545,7	3390,138
546,1	3397,767
546,5	3407,995
547	3417,424
547,4	3426,681
547,9	3424,738
548,3	3433,195
548,8	3433,738
549,2	3438,081
549,7	3449,795
550,1	3455,681
550,6	3469,624
551	3486,567
551,5	3490,138
551,9	3499,567
552,4	3509,338
552,8	3511,595
553,3	3521,681
553,7	3522,595
554,2	3526,795
554,6	3529,538
555,1	3533,967
555,5	3537,31
555,9	3548,538
556,4	3548,167
556,8	3555,481
557,3	3561,281
557,7	3571,452
558,2	3576,338
558,6	3590,595
559,1	3588,367
559,5	3595,424
560	3600,567
560,4	3606,938
560,9	3613,567
561,3	3619,167
561,8	3617,395
562,2	3626,852
562,7	3635,738
563,1	3641,995
563,6	3640,195
564	3644,795
564,4	3648,281
564,9	3656,395
565,3	3661,11
565,8	3660,024
566,2	3664,224
566,7	3675,252
567,1	3675,824
567,6	3683,11
568	3683,567
568,5	3686,652
568,9	3690,452
569,4	3695,281
569,8	3695,252
570,3	3701,052
570,7	3698,224
571,1	3703,567
571,6	3704,252
572	3714,852
572,5	3711,51
572,9	3709,967
573,4	3711,995
573,8	3715,567
574,3	3711,31
574,7	3713,367
575,2	3706,652
575,6	3705,71
576,1	3712,51
576,5	3712,481
576,9	3710,624
577,4	3706,11
577,8	3700,995
578,3	3697,338
578,7	3694,881
579,2	3689,624
579,6	3681,624
580,1	3673,452
580,5	3671,31
581	3672,91
581,4	3669,624
581,9	3666,652
582,3	3660,795
582,7	3653,824
583,2	3650,624
583,6	3650,452
584,1	3635,738
584,5	3628,138
585	3624,338
585,4	3613,252
585,9	3613,538
586,3	3610,052
586,8	3600,738
587,2	3600,395
587,6	3598,024
588,1	3596,452
588,5	3602,395
589	3601,052
589,4	3595,595
589,9	3591,795
590,3	3587,395
590,8	3581,567
591,2	3569,195
591,7	3561,681
592,1	3552,538
592,5	3545,281
593	3541,195
593,4	3535,567
593,9	3521,481
594,3	3517,852
594,8	3505,538
595,2	3497,652
595,7	3496,652
596,1	3482,624
596,6	3474,91
597	3475,281
597,4	3469,252
597,9	3466,224
598,3	3463,938
598,8	3456,395
599,2	3462,052
599,7	3458,91
600,1	3447,824
600,6	3440,738
601	3432,767
601,4	3431,538
601,9	3419,967
602,3	3409,138
602,8	3401,538
603,2	3400,224
603,7	3393,338
604,1	3386,252
604,6	3371,938
605	3364,452
605,4	3359,624
605,9	3352,395
606,3	3336,052
606,8	3326,995
607,2	3314,224
607,7	3297,052
608,1	3294,738
608,6	3283,538
609	3275,91
609,4	3271,681
609,9	3260,081
610,3	3254,224
610,8	3246,938
611,2	3232,31
611,7	3213,51
612,1	3195,767
612,6	3187,881
613	3176,052
613,4	3159,481
613,9	3151,995
614,3	3137,71
614,8	3130,91
615,2	3122,538
615,7	3110,052
616,1	3098,51
616,6	3088,938
617	3066,481
617,4	3056,052
617,9	3047,91
618,3	3037,281
618,8	3028,31
619,2	3015,881
619,7	3013,224
620,1	3007,538
620,5	2998,452
621	2984,11
621,4	2969,595
621,9	2951,71
622,3	2942,881
622,8	2917,881
623,2	2907,138
623,6	2890,567
624,1	2876,795
624,5	2862,252
625	2854,138
625,4	2844,167
625,9	2834,738
626,3	2822,31
626,8	2810,967
627,2	2799,11
627,6	2776,881
628,1	2755,738
628,5	2740,052
629	2719,824
629,4	2709,91
629,9	2694,024
630,3	2675,51
630,7	2672,024
631,2	2662,681
631,6	2646,881
632,1	2640,938
632,5	2623,567
633	2614,281
633,4	2602,252
633,8	2585,052
634,3	2569,052
634,7	2551,424
635,2	2534,824
635,6	2516,652
636,1	2502,138
636,5	2480,795
636,9	2470,11
637,4	2457,967
637,8	2443,424
638,3	2425,967
638,7	2410,938
639,2	2392,767
639,6	2392,424
640	2375,31
640,5	2365,652
640,9	2356,624
641,4	2345,281
641,8	2339,11
642,2	2330,795
642,7	2317,424
643,1	2313,024
643,6	2297,224
644	2292,995
644,5	2289,538
644,9	2280,567
645,3	2266,567
645,8	2251,367
646,2	2241,595
646,7	2231,281
647,1	2210,652
647,6	2200,795
648	2184,652
648,4	2175,881
648,9	2166,224
649,3	2150,767
649,8	2135,11
650,2	2125,31
650,6	2114,967
651,1	2102,224
651,5	2090,224
652	2077,795
652,4	2064,967
652,9	2064,91
653,3	2053,424
653,7	2032,681
654,2	2022,052
654,6	2007,081
655,1	1997,081
655,5	1992,652
655,9	1976,91
656,4	1970,538
656,8	1962,738
657,3	1954,795
657,7	1951,252
658,2	1936,252
658,6	1918,567
659	1906,624
659,5	1888,824
659,9	1878,195
660,4	1869,367
660,8	1851,081
661,2	1835,281
661,7	1821,852
662,1	1812,681
662,6	1802,795
663	1792,481
663,4	1775,281
663,9	1767,995
664,3	1767,167
664,8	1755,338
665,2	1740,424
665,6	1730,452
666,1	1722,681
666,5	1716,252
667	1705,91
667,4	1691,138
667,9	1683,11
668,3	1671,567
668,7	1660,738
669,2	1647,824
669,6	1638,852
670,1	1629,167
670,5	1618,767
670,9	1608,224
671,4	1602,681
671,8	1593,452
672,3	1583,881
672,7	1574,595
673,1	1558,567
673,6	1545,424
674	1539,51
674,5	1523,595
674,9	1508,281
675,3	1492,995
675,8	1482,31
676,2	1475,252
676,7	1464,938
677,1	1453,938
677,5	1446,367
678	1441,195
678,4	1432,938
678,9	1418,91
679,3	1406,71
679,7	1403,424
680,2	1387,224
680,6	1375,995
681,1	1366,91
681,5	1360,938
681,9	1353,081
682,4	1350,424
682,8	1343,71
683,3	1341,538
683,7	1335,624
684,1	1325,938
684,6	1312,767
685	1302,281
685,5	1291,395
685,9	1272,11
686,3	1258,424
686,8	1250,481
687,2	1244,681
687,7	1239,71
688,1	1228,967
688,5	1222,281
689	1220,567
689,4	1213,938
689,9	1204,995
690,3	1195,452
690,7	1186,567
691,2	1182,91
691,6	1171,681
692	1163,367
692,5	1159,938
692,9	1153,538
693,4	1143,595
693,8	1136,338
694,2	1126,395
694,7	1118,938
695,1	1109,024
695,6	1098,224
696	1093,31
696,4	1088,481
696,9	1079,024
697,3	1070,881
697,8	1064,681
698,2	1057,624
698,6	1051,767
699,1	1041,195
699,5	1035,11
699,9	1029,052
700,4	1022,767
700,8	1018,195
701,3	1016,252
701,7	1009,252
702,1	999,881
702,6	989,195
703	986,681
703,5	977,795
703,9	968,624
704,3	962,71
704,8	951,624
705,2	945,195
705,6	939,281
706,1	929,081
706,5	923,995
707	919,995
707,4	910,738
707,8	904,252
708,3	901,252
708,7	894,395
709,2	889,338
709,6	879,652
710	874,967
710,5	867,195
710,9	864,052
711,3	854,538
711,8	852,624
712,2	840,967
712,7	838,195
713,1	832,31
713,5	831,481
714	826,51
714,4	818,767
714,8	805,424
715,3	805,881
715,7	799,367
716,2	792,71
716,6	782,652
717	773,595
717,5	772,595
717,9	776,938
718,3	771,252
718,8	768,424
719,2	760,967
719,7	754,824
720,1	752,967
720,5	747,138
721	736,51
721,4	732,367
721,8	730,024
722,3	720,11
722,7	718,652
723,2	704,081
723,6	693,024
724	684,91
724,5	675,71
724,9	665,167
725,3	662,738
725,8	652,367
726,2	651,138
726,7	650,224
727,1	651,052
727,5	649,052
728	644,367
728,4	639,852
728,8	635,338
729,3	633,367
729,7	626,424
730,1	623,11
730,6	618,395
731	613,824
731,5	607,538
731,9	606,567
732,3	604,938
732,8	603,767
733,2	596,195
733,6	589,281
734,1	587,71
734,5	581,91
734,9	582,652
735,4	580,795
735,8	572,424
736,3	575,338
736,7	571,795
737,1	569,138
737,6	568,767
738	559,795
738,4	551,767
738,9	552,338
739,3	543,595
739,7	544,567
740,2	539,652
740,6	540,852
741,1	541,138
741,5	533,167
741,9	528,281
742,4	529,224
742,8	522,395
743,2	517,767
743,7	509,481
744,1	502,967
744,5	502,567
745	502,91
745,4	493,938
745,8	490,252
746,3	491,481
746,7	489,71
747,2	488,767
747,6	491,195
748	488,938
748,5	489,195
748,9	481,51
749,3	475,252
749,8	474,481
750,2	470,481
750,6	460,167
751,1	456,652
751,5	451,595
751,9	452,367
752,4	452,995
752,8	449,424
753,3	450,224
753,7	450,595
754,1	441,481
754,6	435,71
755	437,167
755,4	430,938
755,9	426,31
756,3	417,138
756,7	414,11
757,2	414,91
757,6	413,624
758	407,881
758,5	403,195
758,9	400,024
759,3	397,338
759,8	396,881
760,2	394,681
760,6	391,195
761,1	389,795
761,5	388,795
761,9	386,567
762,4	381,281
762,8	377,024
763,3	369,881
763,7	373,11
764,1	371,595
764,6	368,795
765	369,481
765,4	370,081
765,9	365,652
766,3	369,481
766,7	359,281
767,2	353,31
767,6	355,738
768	349,51
768,5	344,167
768,9	340,681
769,3	337,595
769,8	338,71
770,2	337,652
770,6	329,91
771,1	334,567
771,5	337,824
771,9	341,195
772,4	342,624
772,8	339,51
773,2	338,967
773,7	333,967
774,1	324,395
774,5	313,567
775	310,538
775,4	300,738
775,8	299,538
776,3	297,395
776,7	297,138
777,1	296,31
777,6	301,795
778	301,767
778,4	299,795
778,9	297,195
779,3	291,652
779,7	290,881
780,2	289,995
780,6	285,052
781	278,995
781,5	277,281
781,9	273,995
782,3	271,31
782,8	271,252
783,2	270,767
783,6	272,31
784,1	269,081
784,5	268,538
784,9	270,824
785,4	272,71
785,8	270,367
786,2	266,995
786,7	262,824
787,1	256,538
787,5	253,91
788	248,51
788,4	247,795
788,8	246,138
789,3	242,567
789,7	242,281
790,1	243,852
790,6	247,795
791	243,995
791,4	240,767
791,9	237,481
792,3	231,338
792,7	234,11
793,2	232,395
793,6	228,938
794	233,795
794,5	231,424
794,9	230,024
795,3	230,852
795,8	224,138
796,2	226,852
796,6	223,167
797,1	215,681
797,5	211,252
797,9	209,995
798,4	207,338
798,8	204,681
799,2	202,881
799,7	203,738
800,1	197,652
800,5	200,367
801	200,738
801,4	199,424
801,8	196,824
802,2	193,367
802,7	187,252
803,1	194,052
803,5	190,024
804	186,224
804,4	192,167
804,8	190,567
805,3	189,595
805,7	189,738
806,1	185,081
806,6	185,681
807	185,738
807,4	178,195
807,9	173,11
808,3	171,052
808,7	170,51
809,2	175,424
809,6	178,081
810	174,338
810,4	174,824
810,9	178,567
811,3	180,481
811,7	179,424
812,2	178,624
812,6	170,681
813	173,281
813,5	173,481
813,9	172,252
814,3	168,11
814,8	167,767
815,2	161,224
815,6	161,395
816,1	161,91
816,5	160,795
816,9	159,281
817,3	159,995
817,8	160,595
818,2	157,795
818,6	157,395
819,1	152,281
819,5	146,624
819,9	148,624
820,4	146,281
820,8	141,881
821,2	140,481
821,7	135,024
822,1	136,024
822,5	143,224
822,9	138,652
823,4	137,024
823,8	138,967
824,2	142,024
824,7	142,652
825,1	134,795
825,5	124,252
826	121,224
826,4	119,424
826,8	114,595
827,3	114,681
827,7	114,538
828,1	120,081
828,5	123,795
829	123,395
829,4	125,081
829,8	119,795
830,3	116,167
830,7	111,51
831,1	111,31
831,6	110,052
832	114,795
832,4	109,567
832,8	116,338
833,3	112,252
833,7	110,852
834,1	107,681
834,6	103,31
835	99,852
835,4	101,167
835,8	95,138
836,3	98,11
836,7	104,11
837,1	103,91
837,6	109,71
838	106,652
838,4	108,195
838,9	107,538
839,3	103,138
839,7	100,224
840,1	94,681
840,6	89,224
841	92,767
841,4	92,224
841,9	93,424
842,3	95,081
842,7	97,681
843,1	100,652
843,6	105,767
844	102,91
844,4	107,224
844,9	108,367
845,3	110,281
845,7	106,081
846,2	102,11
846,6	98,31
847	100,195
847,4	93,395
847,9	92,967
848,3	87,31
848,7	88,481
849,2	90,281
849,6	87,281
850	84,281
850,4	82,252
850,9	83,195
851,3	86,595
851,7	85,195
852,2	86,195
852,6	87,767
853	90,252
853,4	90,881
853,9	85,767
854,3	84,224
854,7	83,881
855,2	81,538
855,6	82,71
856	80,652
856,4	77,167
856,9	76,824
857,3	77,91
857,7	78,395
858,2	80,624
858,6	79,424
859	76,51
859,4	77,795
859,9	76,938
860,3	71,281
860,7	69,567
861,1	68,624
861,6	65,852
862	63,852
862,4	60,024
862,9	62,11
863,3	62,452
863,7	60,795
864,1	60,652
864,6	58,538
865	61,31
865,4	64,852
865,9	64,395
866,3	59,881
866,7	59,538
867,1	57,51
867,6	60,881
868	59,681
868,4	54,624
868,8	52,881
869,3	58,938
869,7	62,481
870,1	56,652
870,6	52,967
871	-22,948
871,4	-12,833
871,8	-13,433
872,3	-11,519
872,7	-16,405
873,1	-12,148
873,5	-11,233
874	60,995
874,4	56,167
874,8	53,252
875,3	49,681
875,7	48,567
876,1	51,367
876,5	50,395
877	50,567
877,4	46,681
877,8	49,281
878,2	53,938
878,7	57,424
879,1	54,71
879,5	57,081
879,9	56,167
880,4	56,881
880,8	57,252
881,2	51,71
881,7	46,852
882,1	47,71
882,5	40,71
882,9	41,767
883,4	44,881
883,8	45,538
884,2	45,195
884,6	45,852
885,1	44,452
885,5	48,167
885,9	48,71
886,3	46,595
886,8	45,195
887,2	41,338
887,6	41,481
888	39,538
888,5	43,51
888,9	43,738
889,3	38,167
889,8	37,938
890,2	40,452
890,6	38,967
891	41,767
891,5	35,567
891,9	33,795
892,3	39,681
892,7	38,995
893,2	39,652
893,6	42,91
894	40,538
894,4	40,167
894,9	38,51
895,3	34,995
895,7	36,481
896,1	34,052
896,6	34,367
897	37,767
897,4	43,024
897,8	47,91
898,3	47,681
898,7	45,081
899,1	45,824
899,5	46,367
900	41,281
900,4	35,138
900,8	27,024
901,2	29,224
901,7	31,738
902,1	33,481
902,5	29,995
902,9	27,452
903,4	32,995
903,8	37,881
904,2	35,881
904,6	34,138
905,1	36,681
905,5	36,081
905,9	42,595
906,3	42,395
906,8	42,738
907,2	44,224
907,6	42,081
908	39,795
908,5	41,11
908,9	37,538
909,3	32,795
909,7	32,767
910,2	34,624
910,6	38,195
911	32,024
911,4	36,852
911,9	31,138
912,3	30,367
912,7	33,681
913,1	29,881
913,6	26,367
914	30,938
914,4	19,681
914,8	24,852
915,3	23,081
915,7	15,624
916,1	16,338
916,5	16,995
916,9	15,367
917,4	21,795
917,8	26,395
918,2	23,195
918,6	21,224
919,1	21,938
919,5	24,367
919,9	23,567
920,3	25,624
920,8	22,738
921,2	27,31
921,6	30,338
922	31,852
922,5	27,395
922,9	27,91
923,3	23,567
923,7	20,795
924,2	17,424
924,6	20,595
925	19,967
925,4	21,938
925,8	24,538
926,3	28,338
926,7	28,081
927,1	35,738
927,5	36,395
928	31,995
928,4	29,395
928,8	30,738
929,2	26,567
929,7	24,567
930,1	23,652
930,5	19,024
930,9	23,424
931,3	25,995
931,8	24,967
932,2	27,624
932,6	28,738
933	18,938
933,5	19,052
933,9	15,567
934,3	17,71
934,7	12,195
935,2	12,767
935,6	14,367
936	25,395
936,4	29,91
936,8	30,224
937,3	24,967
937,7	29,967
938,1	27,452
938,5	21,024
939	18,624
939,4	14,452
939,8	12,595
940,2	13,367
940,6	11,452
941,1	10,51
941,5	17,881
941,9	14,138
942,3	12,281
942,8	17,681
943,2	19,881
943,6	19,31
944	17,767
944,4	15,824
944,9	14,624
945,3	18,538
945,7	11,367
946,1	3,624
946,6	-0,862
947	1,224
947,4	5,395
947,8	5,452
948,2	1,281
948,7	7,281
949,1	11,424
949,5	19,51
949,9	17,481
950,3	16,681
950,8	20,538
951,2	20,995
951,6	15,881
952	20,995
952,5	13,538
952,9	14,452
953,3	9,252
953,7	5,367
954,1	9,31
954,6	10,024
955	6,652
955,4	9,11
955,8	11,595
956,2	13,624
956,7	15,852
957,1	10,91
957,5	15,881
957,9	15,481
958,3	13,395
958,8	11,995
959,2	13,11
959,6	15,281
960	16,195
960,5	18,195
960,9	21,452
961,3	24,567
961,7	22,567
962,1	21,052
962,6	21,052
963	21,91
963,4	13,167
963,8	11,052
964,2	11,252
964,7	12,281
965,1	15,11
965,5	10,224
965,9	11,195
966,3	15,052
966,8	14,024
967,2	14,595
967,6	14,738
968	8,824
968,4	12,767
968,9	10,624
969,3	11,881
969,7	10,481
970,1	10,567
970,5	8,452
971	10,738
971,4	9,11
971,8	16,567
972,2	17,938
972,6	18,195
973,1	17,481
973,5	19,538
973,9	22,452
974,3	22,967
974,7	16,195
975,2	13,938
975,6	13,881
976	15,738
976,4	11,052
976,8	9,681
977,3	5,967
977,7	4,595
978,1	4,367
978,5	2,624
978,9	-2,89
979,4	1,367
979,8	-1,519
980,2	0,081
980,6	-2,433
981	-1,919
981,5	-2,948
981,9	-1,348
982,3	0,11
982,7	2,681
983,1	0,167
983,6	7,252
984	7,624
984,4	14,052
984,8	13,938
985,2	14,138
985,6	5,767
986,1	10,31
986,5	10,91
986,9	4,938
987,3	4,681
987,7	6,081
988,2	4,052
988,6	14,767
989	16,224
989,4	15,852
989,8	17,452
990,3	16,767
990,7	16,938
991,1	18,852
991,5	17,852
991,9	18,31
992,3	18,595
992,8	22,795
993,2	18,024
993,6	15,567
994	15,567
994,4	13,71
994,9	10,652
995,3	4,024
995,7	-0,119
996,1	4,31
996,5	4,081
996,9	1,967
997,4	2,595
997,8	0,567
998,2	0,31
998,6	-4,176
999	-7,862
999,5	-5,862
999,9	-7,833
1000,3	-6,719
1000,7	-5,09
1001,1	-1,205
1001,5	7,481
1002	9,395
1002,4	9,967
1002,8	15,167
1003,2	15,024
1003,6	14,738
1004	18,538
1004,5	14,71
1004,9	14,567
1005,3	9,824
1005,7	10,51
1006,1	8,481
1006,6	7,395
1007	4,195
1007,4	3,481
1007,8	5,538
1008,2	7,938
1008,6	5,767
1009,1	7,395
1009,5	8,795
1009,9	8,938
1010,3	10,71
1010,7	9,652
1011,1	10,595
1011,6	13,081
1012	12,11
1012,4	10,167
1012,8	8,71
1013,2	12,852
1013,6	14,51
1014,1	15,481
1014,5	13,938
1014,9	15,624
1015,3	19,052
1015,7	21,167
1016,1	18,824
1016,6	18,11
1017	19,024
1017,4	19,081
1017,8	18,081
1018,2	18,51
1018,6	13,367
1019,1	12,967
1019,5	10,71
1019,9	8,224
1020,3	7,995
1020,7	7,995
1021,1	4,652
1021,6	10,795
1022	13,224
1022,4	13,652
1022,8	18,052
1023,2	15,595
1023,6	12,881
1024,1	21,281
1024,5	19,91
1024,9	16,31
1025,3	14,252
1025,7	10,795
1026,1	16,51
1026,6	19,652
1027	18,224
1027,4	22,51
1027,8	22,538
1028,2	16,995
1028,6	23,567
1029	15,11
1029,5	14,938
1029,9	8,852
1030,3	2,995
1030,7	4,11
1031,1	14,452
1031,5	9,11
1032	10,624
1032,4	11,738
1032,8	11,081
1033,2	10,91
1033,6	8,567
1034	4,138
1034,4	5,538
1034,9	11,51
1035,3	5,652
1035,7	11,538
1036,1	10,081
1036,5	8,881
1036,9	11,11
1037,4	13,71
1037,8	6,252
1038,2	10,595
1038,6	7,938
1039	11,824
1039,4	18,881
1039,8	17,995
1040,3	16,338
1040,7	18,195
1041,1	17,424
1041,5	19,252
1041,9	15,052
1042,3	9,538
1042,7	11,595
1043,2	7,795
1043,6	6,452
1044	7,852
1044,4	7,538
1044,8	12,138
1045,2	18,024
1045,6	18,281
1046,1	20,91
1046,5	23,71
1046,9	20,338
1047,3	15,938
1047,7	13,881
1048,1	10,51
1048,5	7,338
1049	6,852
1049,4	12,567
1049,8	19,824
1050,2	23,824
1050,6	25,567
1051	29,995
1051,4	31,852
1051,9	30,995
1052,3	32,195
1052,7	29,738
1053,1	22,91
1053,5	22,767
1053,9	20,795
1054,3	20,252
1054,8	26,51
1055,2	20,138
1055,6	18,052
1056	22,652
1056,4	20,538
1056,8	18,967
1057,2	21,224
1057,6	14,338
1058,1	12,567
1058,5	9,595
1058,9	11,995
1059,3	14,652
1059,7	12,595
1060,1	12,167
1060,5	15,481
1061	21,738
1061,4	21,338
1061,8	22,795
1062,2	19,252
1062,6	22,31
1063	24,338
1063,4	22,424
1063,8	15,595
1064,3	14,538
1064,7	11,195
1065,1	9,595
1065,5	4,652
1065,9	-0,033
1066,3	-6,29
1066,7	-7,348
1067,1	-5,633
1067,6	-5,205
1068	-6,176
1068,4	-2,376
1068,8	1,195
1069,2	4,281
1069,6	4,71
1070	6,51
1070,4	7,367
1070,9	10,167
1071,3	7,995
1071,7	5,652
1072,1	9,624
1072,5	10,024
1072,9	10,338
1073,3	9,081
1073,7	8,538
1074,2	8,167
1074,6	8,138
1075	3,595
1075,4	4,681
1075,8	4,252
1076,2	5,024
1076,6	4,652
1077	3,167
1077,5	5,595
1077,9	7,481
1078,3	5,91
1078,7	7,452
1079,1	6,167
1079,5	7,881
1079,9	12,481
1080,3	13,595
1080,7	14,195
1081,2	18,024
1081,6	13,538
1082	15,338
1082,4	20,881
1082,8	15,167
1083,2	14,91
1083,6	16,367
1084	14,11
1084,5	22,11
1084,9	16,424
1085,3	9,252
1085,7	14,195
1086,1	13,11
1086,5	16,31
1086,9	22,71
1087,3	20,195
1087,7	22,11
1088,2	19,081
1088,6	18,967
1089	17,538
1089,4	10,71
1089,8	5,71
1090,2	-0,433
1090,6	-1,119
1091	6,395
1091,4	5,281
1091,9	4,167
1092,3	6,71
1092,7	4,51
1093,1	9,995
1093,5	13,738
1093,9	9,31
1094,3	10,938
1094,7	9,652
1095,1	9,167
1095,5	11,224
1096	4,91
1096,4	2,681
1096,8	4,395
1097,2	3,195
1097,6	8,91
1098	8,338
1098,4	11,767
1098,8	16,367
1099,2	22,967
1099,6	23,71
1100,1	18,967
1100,5	11,052
1100,9	9,367
1101,3	7,71
1101,7	5,252
1102,1	1,681
1102,5	0,938
1102,9	6,052
1103,3	11,881
1103,7	15,31
1104,2	11,052
1104,6	11,795
1105	6,195
1105,4	8,71
1105,8	5,567
1106,2	1,967
1106,6	-0,062
1107	1,31
1107,4	1,633
1107,8	5,607
1108,3	-0,133
