Data from Subt2_157.txt Node
Date: Sat Aug 26 18:33:08 MSK 2023
User: vat
Spectrometer: MAYP114033
Trigger mode: 0
Integration Time (sec): 1,000000E0
Scans to average: 5
Electric dark correction enabled: true
Nonlinearity correction enabled: false
Boxcar width: 3
XAxis mode: Wavelengths
Number of Pixels in Spectrum: 2068
>>>>>Begin Spectral Data<<<<<
199,4	-1,45
199,9	1,04
200,4	1,433
200,8	2,571
201,3	1,286
201,8	1,514
202,2	0,514
202,7	2,743
203,2	0,714
203,6	-2,543
204,1	-3,657
204,6	-5,886
205	-3,371
205,5	-1,857
206	-3,314
206,4	-3,629
206,9	-0
207,4	-1,514
207,8	1,2
208,3	1,571
208,8	0,371
209,2	4,314
209,7	6,571
210,2	6,771
210,6	8,514
211,1	13,257
211,5	8,743
212	7,057
212,5	3,514
212,9	-1,029
213,4	0,771
213,9	-5,4
214,3	-10,514
214,8	-5,457
215,3	-3,657
215,7	-2,457
216,2	4,686
216,7	3,714
217,1	6,971
217,6	13,714
218,1	10,6
218,5	7,143
219	-1,029
219,5	-2,657
219,9	-5,971
220,4	3,971
220,9	-0,457
221,3	-0,229
221,8	5,114
222,3	12,771
222,7	10,543
223,2	10,4
223,6	2,8
224,1	-2,086
224,6	-1,4
225	-7,286
225,5	-9,429
226	-7,457
226,4	-5,143
226,9	-7,086
227,4	-2,286
227,8	-5,571
228,3	-4,6
228,8	-2,486
229,2	-5,714
229,7	-7,4
230,2	-4,629
230,6	-1,886
231,1	7,543
231,5	12,829
232	8
232,5	9,371
232,9	8,029
233,4	7,086
233,9	-1,857
234,3	-10,543
234,8	-11,771
235,3	-2
235,7	0,971
236,2	2,914
236,7	1
237,1	8,314
237,6	8,543
238,1	5,2
238,5	-6,429
239	-7,657
239,4	-2,6
239,9	-5
240,4	-6,171
240,8	-4,4
241,3	-4,514
241,8	0,457
242,2	-3,057
242,7	-11,257
243,2	-6,829
243,6	-9,514
244,1	-4,743
244,6	-1,514
245	-0,343
245,5	-0,714
245,9	-1,229
246,4	-0,057
246,9	3,286
247,3	-2,2
247,8	-0,771
248,3	0,629
248,7	2,629
249,2	5,629
249,7	4,914
250,1	2,571
250,6	1,514
251	1,886
251,5	-0,743
252	-0,686
252,4	-0,8
252,9	-3,886
253,4	-7,914
253,8	-1,857
254,3	-5,343
254,8	-4,143
255,2	-6,486
255,7	-6,857
256,1	-2,629
256,6	4,771
257,1	4,371
257,5	3,6
258	-0,286
258,5	2,257
258,9	4,2
259,4	-0,114
259,9	-3,886
260,3	-10,8
260,8	-14,057
261,2	-8,314
261,7	-7,2
262,2	-11,6
262,6	-7,486
263,1	-3,257
263,6	-0,857
264	3,943
264,5	3,2
264,9	-2,571
265,4	1,971
265,9	-2
266,3	-1,486
266,8	1,6
267,3	-1,829
267,7	-3,086
268,2	-0,114
268,7	-0,314
269,1	2,714
269,6	0,629
270	0,857
270,5	0,857
271	0,8
271,4	0,629
271,9	-5,314
272,4	-2,857
272,8	-5,686
273,3	-13,114
273,7	-7,514
274,2	-8,486
274,7	-8,229
275,1	-4,657
275,6	-5,229
276,1	-5,514
276,5	1,429
277	0,314
277,4	2,343
277,9	0,857
278,4	3,886
278,8	4,2
279,3	7,229
279,8	6,829
280,2	8,314
280,7	7,714
281,1	8,343
281,6	5,457
282,1	2,143
282,5	2,286
283	1,057
283,4	-1,429
283,9	-1,2
284,4	4,657
284,8	7,771
285,3	6,571
285,8	7,314
286,2	4,629
286,7	4,343
287,1	1,686
287,6	-1,914
288,1	-8
288,5	-2,629
289	-6,371
289,5	-2,514
289,9	-1,343
290,4	1,8
290,8	5,257
291,3	9,686
291,8	8,914
292,2	12,6
292,7	13,714
293,1	10,486
293,6	12,514
294,1	10,486
294,5	9,257
295	8,143
295,5	3,971
295,9	1,457
296,4	4,829
296,8	0,6
297,3	-0,629
297,8	-2,829
298,2	-3,4
298,7	-0,486
299,1	-1,314
299,6	-6,829
300,1	-7,514
300,5	-6,171
301	-2,857
301,5	-2,029
301,9	-4,857
302,4	-5,6
302,8	-1,257
303,3	-0,229
303,8	-7,143
304,2	-9,657
304,7	-9,343
305,1	-10,2
305,6	-7,714
306,1	-2,343
306,5	-3,457
307	2,943
307,4	6,057
307,9	3,829
308,4	3,657
308,8	0,371
309,3	-5,486
309,8	-6,543
310,2	-4,629
310,7	-7,429
311,1	-10,571
311,6	-6,257
312,1	-1,943
312,5	2
313	6,686
313,4	-0,171
313,9	3,629
314,4	4,486
314,8	-1,2
315,3	-4,2
315,7	-11,8
316,2	-15,543
316,7	-12,771
317,1	-9,886
317,6	-7,457
318	1,714
318,5	-0,171
319	4,029
319,4	5,971
319,9	8,029
320,3	3,6
320,8	1,029
321,3	0,314
321,7	4,857
322,2	5,829
322,6	8,029
323,1	4,914
323,6	4,486
324	5,2
324,5	-0,457
324,9	-1,914
325,4	-4,314
325,9	-0,943
326,3	0,057
326,8	-0,4
327,2	-1,086
327,7	-1,343
328,2	-1,6
328,6	-0,171
329,1	-12,771
329,5	-9,886
330	-8,286
330,5	-3,657
330,9	-0,029
331,4	2,429
331,8	1,914
332,3	9,457
332,8	10,943
333,2	10,171
333,7	10,229
334,1	8,343
334,6	3,571
335,1	0,114
335,5	0,714
336	-6,2
336,4	-4,457
336,9	-2,771
337,4	-1,829
337,8	-0,857
338,3	0,514
338,7	-0,257
339,2	3,114
339,7	5,029
340,1	1,857
340,6	0,943
341	0,971
341,5	5,771
342	4,114
342,4	1,6
342,9	-3,514
343,3	-5,314
343,8	-3,714
344,2	-1,257
344,7	-1,143
345,2	-1,6
345,6	4,6
346,1	8,629
346,5	11,343
347	6,171
347,5	3,086
347,9	5,371
348,4	7,6
348,8	1,771
349,3	1,314
349,8	-1,086
350,2	9,8
350,7	9,486
351,1	8,914
351,6	10,4
352	17,543
352,5	21,086
353	31,486
353,4	30,514
353,9	39,057
354,3	45,743
354,8	50,829
355,3	63,171
355,7	77,029
356,2	86,486
356,6	101,429
357,1	123,143
357,5	144,371
358	176,971
358,5	198,743
358,9	231,086
359,4	268,829
359,8	313,971
360,3	363,371
360,8	412,571
361,2	468,971
361,7	537,143
362,1	609,686
362,6	687,971
363	767,571
363,5	852,4
364	950,114
364,4	1040,086
364,9	1135,143
365,3	1227,143
365,8	1314,829
366,3	1400,829
366,7	1473,686
367,2	1534,429
367,6	1586,771
368,1	1630,343
368,5	1654,371
369	1666,143
369,5	1667,171
369,9	1652,771
370,4	1631,257
370,8	1597,714
371,3	1549,029
371,7	1490,171
372,2	1423,629
372,7	1353,714
373,1	1284,086
373,6	1206
374	1130,829
374,5	1052,571
374,9	984,657
375,4	919,971
375,9	849,029
376,3	784,943
376,8	721,943
377,2	662,457
377,7	604,743
378,2	550,171
378,6	499,457
379,1	456,514
379,5	419,629
380	388,171
380,4	354,343
380,9	328,457
381,4	301,343
381,8	282,143
382,3	262,543
382,7	241,886
383,2	218,429
383,6	204,086
384,1	191,8
384,6	182,229
385	167,686
385,5	156,543
385,9	141,171
386,4	131,543
386,8	122,886
387,3	108,486
387,7	101,286
388,2	98,6
388,7	92,543
389,1	89
389,6	85,371
390	83,029
390,5	83,743
390,9	77,914
391,4	67,571
391,9	59,714
392,3	57,914
392,8	52
393,2	43,143
393,7	37,886
394,1	34,457
394,6	32,086
395,1	29,543
395,5	24,943
396	24,4
396,4	29,514
396,9	27,857
397,3	29,4
397,8	32,057
398,2	34,057
398,7	31,629
399,2	33,314
399,6	28
400,1	28,714
400,5	21,857
401	19,486
401,4	14,8
401,9	18,057
402,4	18,486
402,8	15,343
403,3	16
403,7	18,714
404,2	21,2
404,6	26,114
405,1	20,514
405,5	16,943
406	18,286
406,5	16,714
406,9	19,171
407,4	18,257
407,8	17,543
408,3	24,829
408,7	27,229
409,2	33,543
409,6	40,086
410,1	42,4
410,6	45
411	48,543
411,5	48,571
411,9	53,657
412,4	54,943
412,8	57,114
413,3	60,4
413,7	62,886
414,2	63,571
414,7	71,143
415,1	81,171
415,6	86,514
416	89,629
416,5	89,314
416,9	93,286
417,4	105,657
417,8	112,8
418,3	113,057
418,8	118,8
419,2	120,114
419,7	130,114
420,1	135,029
420,6	138,943
421	139,743
421,5	143,514
421,9	146,086
422,4	156,629
422,8	161
423,3	162,971
423,8	162,343
424,2	163,543
424,7	167,771
425,1	172,2
425,6	178,771
426	181,314
426,5	188,543
426,9	200,457
427,4	205,029
427,9	208,4
428,3	216
428,8	218,171
429,2	224,8
429,7	234,286
430,1	237,914
430,6	253,657
431	263,657
431,5	276,857
431,9	285,971
432,4	300,171
432,8	313,143
433,3	328,686
433,8	339,743
434,2	356
434,7	370,943
435,1	390,543
435,6	407,971
436	425,486
436,5	447,743
436,9	463,4
437,4	486,057
437,8	506,857
438,3	528,8
438,8	550,571
439,2	574,571
439,7	596,486
440,1	623,343
440,6	652,686
441	677,486
441,5	706,886
441,9	740,771
442,4	770,314
442,8	797,514
443,3	837,571
443,7	870,057
444,2	906,543
444,7	945,171
445,1	980,057
445,6	1017,857
446	1060,886
446,5	1091,886
446,9	1130,6
447,4	1168,314
447,8	1208,029
448,3	1252,286
448,7	1299,914
449,2	1348,457
449,6	1401,171
450,1	1448,257
450,6	1504,8
451	1559,657
451,5	1613,429
451,9	1671,029
452,4	1731
452,8	1786,286
453,3	1847,314
453,7	1905,286
454,2	1958,886
454,6	2022,229
455,1	2078,943
455,5	2127,514
456	2187,714
456,4	2247,943
456,9	2315,8
457,3	2385,486
457,8	2439,6
458,3	2505,486
458,7	2578,886
459,2	2650,971
459,6	2722,886
460,1	2791,743
460,5	2851,171
461	2932,029
461,4	2999,371
461,9	3069,629
462,3	3138,514
462,8	3206,057
463,2	3272,057
463,7	3351,371
464,1	3413,743
464,6	3495,886
465	3563
465,5	3634,371
466	3708,257
466,4	3774,857
466,9	3847,4
467,3	3921,171
467,8	3978,286
468,2	4047,371
468,7	4114,057
469,1	4188
469,6	4257,829
470	4327,629
470,5	4393,943
470,9	4464,486
471,4	4536,029
471,8	4603
472,3	4663,971
472,7	4725,686
473,2	4784,657
473,6	4845,771
474,1	4910,771
474,5	4965,457
475	5022,486
475,4	5083,114
475,9	5136,143
476,4	5186,4
476,8	5241,686
477,3	5289,2
477,7	5345,143
478,2	5396,2
478,6	5439,057
479,1	5491,771
479,5	5543,429
480	5584,943
480,4	5625,686
480,9	5657,829
481,3	5701,314
481,8	5740,686
482,2	5768,486
482,7	5796,686
483,1	5827,086
483,6	5853,371
484	5883,457
484,5	5901,171
484,9	5914,914
485,4	5941,657
485,8	5959,457
486,3	5979,114
486,7	5994,514
487,2	6005,4
487,6	6017,257
488,1	6028,457
488,5	6031,571
489	6032,971
489,4	6037,257
489,9	6037,429
490,4	6035,886
490,8	6033,429
491,3	6033,829
491,7	6034,486
492,2	6030,6
492,6	6026,143
493,1	6025,314
493,5	6009
494	5992,171
494,4	5975,571
494,9	5954,143
495,3	5943,771
495,8	5922,371
496,2	5896,314
496,7	5873,8
497,1	5853,543
497,6	5833,2
498	5817,514
498,5	5796,6
498,9	5768,114
499,4	5743,857
499,8	5729,514
500,3	5711,543
500,7	5677,943
501,2	5637,657
501,6	5595,971
502,1	5559,343
502,5	5524,657
503	5491,371
503,4	5453,657
503,9	5419,714
504,3	5393,143
504,8	5356,629
505,2	5326,714
505,7	5292,286
506,1	5255,971
506,6	5207,657
507	5163,4
507,5	5124,943
507,9	5086,571
508,4	5045,771
508,8	5007,086
509,3	4961,571
509,7	4928,343
510,2	4893,543
510,6	4848,857
511,1	4806,857
511,5	4761,914
512	4713,914
512,4	4671,714
512,9	4625,629
513,3	4583,429
513,8	4538,6
514,2	4493,4
514,7	4445,029
515,1	4401,829
515,6	4354,4
516	4308,371
516,5	4264,771
516,9	4222,686
517,4	4177,714
517,8	4142,257
518,3	4104,686
518,7	4059,457
519,2	4017,943
519,6	3969,143
520,1	3922,143
520,5	3884,571
521	3832,457
521,4	3787,029
521,9	3746,343
522,3	3704,6
522,8	3662,257
523,2	3625,771
523,7	3582,371
524,1	3542,171
524,6	3497,629
525	3459,657
525,5	3414
525,9	3376,857
526,4	3330,8
526,8	3288,543
527,3	3250,686
527,7	3211,171
528,2	3171,8
528,6	3138
529,1	3102,514
529,5	3069,4
530	3036,314
530,4	3000,743
530,9	2969,2
531,3	2939,943
531,8	2909,114
532,2	2872,6
532,6	2835,571
533,1	2800,857
533,5	2769,229
534	2737,686
534,4	2698,943
534,9	2663,914
535,3	2635,914
535,8	2604,371
536,2	2571,829
536,7	2540,457
537,1	2506,314
537,6	2483,229
538	2455,343
538,5	2426,429
538,9	2402,143
539,4	2382,171
539,8	2355,314
540,3	2331,086
540,7	2303,286
541,2	2270,486
541,6	2240,6
542,1	2214,086
542,5	2186,029
543	2162,2
543,4	2135,743
543,9	2111,629
544,3	2097,314
544,8	2078,314
545,2	2057,486
545,7	2038,057
546,1	2019,257
546,5	2001,229
547	1974,171
547,4	1950,171
547,9	1925,486
548,3	1904,171
548,8	1883,971
549,2	1860,229
549,7	1842,8
550,1	1830,371
550,6	1814,486
551	1798,914
551,5	1780,771
551,9	1754,114
552,4	1740,6
552,8	1718,314
553,3	1695,086
553,7	1673,486
554,2	1656,543
554,6	1642,143
555,1	1628,857
555,5	1608
555,9	1592,543
556,4	1576,6
556,8	1559,543
557,3	1549,857
557,7	1536,857
558,2	1524,371
558,6	1518,6
559,1	1505,429
559,5	1491,771
560	1483,4
560,4	1466,086
560,9	1450,257
561,3	1435,286
561,8	1420,229
562,2	1408,971
562,7	1399,886
563,1	1392,971
563,6	1375,571
564	1361,286
564,4	1348,657
564,9	1334,6
565,3	1326,257
565,8	1317,171
566,2	1300,829
566,7	1294,343
567,1	1284,314
567,6	1275,114
568	1261,286
568,5	1247
568,9	1232,914
569,4	1221,857
569,8	1214,086
570,3	1205,657
570,7	1192,429
571,1	1182,457
571,6	1172,286
572	1170,029
572,5	1159,343
572,9	1149,543
573,4	1136,171
573,8	1132,086
574,3	1123,4
574,7	1114,914
575,2	1100,086
575,6	1091
576,1	1082,514
576,5	1077,686
576,9	1066,914
577,4	1054,171
577,8	1041,714
578,3	1036,229
578,7	1025,257
579,2	1019,2
579,6	1006
580,1	993,571
580,5	995,4
581	992,857
581,4	979,029
581,9	970,143
582,3	958,114
582,7	955,486
583,2	950,743
583,6	937,6
584,1	927,4
584,5	923,8
585	919,286
585,4	909,943
585,9	897,114
586,3	893,657
586,8	893,229
587,2	885,057
587,6	881,686
588,1	882,857
588,5	879,086
589	879,314
589,4	870,429
589,9	861,114
590,3	859,171
590,8	851,886
591,2	845,171
591,7	840,457
592,1	833,2
592,5	834,057
593	824,914
593,4	820,514
593,9	809,286
594,3	801,629
594,8	792,343
595,2	786,514
595,7	780,914
596,1	777,657
596,6	769,371
597	766,143
597,4	762,686
597,9	759,686
598,3	759,829
598,8	752,2
599,2	753,086
599,7	750,143
600,1	747,486
600,6	740,171
601	735,4
601,4	732,886
601,9	731,514
602,3	726,371
602,8	718,686
603,2	715,286
603,7	710,286
604,1	704,429
604,6	695,2
605	680,857
605,4	673,714
605,9	667,2
606,3	659,743
606,8	656,629
607,2	652,8
607,7	648,029
608,1	650,657
608,6	651,429
609	654,457
609,4	653,4
609,9	652,229
610,3	647,829
610,8	638,4
611,2	633,257
611,7	624,914
612,1	616,371
612,6	613,657
613	609,914
613,4	607,543
613,9	605,6
614,3	599,6
614,8	596,114
615,2	592,371
615,7	588,257
616,1	582,4
616,6	576,429
617	575,257
617,4	574,371
617,9	572,2
618,3	567,743
618,8	563,8
619,2	557,057
619,7	555,514
620,1	551,086
620,5	550,743
621	542,286
621,4	541
621,9	534,886
622,3	535,543
622,8	529,6
623,2	529,771
623,6	524,029
624,1	523,657
624,5	522,914
625	526,886
625,4	521,229
625,9	520,886
626,3	516,143
626,8	508,914
627,2	507,914
627,6	497,743
628,1	489,429
628,5	490,657
629	484,371
629,4	481,429
629,9	481,857
630,3	474,086
630,7	473,829
631,2	469,886
631,6	461,943
632,1	460,457
632,5	458,029
633	453,2
633,4	451,8
633,8	451,086
634,3	447
634,7	444,314
635,2	437,8
635,6	434,914
636,1	431,114
636,5	425,371
636,9	421,286
637,4	420,457
637,8	415,4
638,3	413
638,7	407,686
639,2	403,343
639,6	409,857
640	409,171
640,5	403,943
640,9	402,486
641,4	401,229
641,8	399,629
642,2	400,543
642,7	396,457
643,1	396,743
643,6	396,657
644	394,686
644,5	399,143
644,9	397,857
645,3	394,886
645,8	384,514
646,2	378,714
646,7	377,4
647,1	377
647,6	375,571
648	376,229
648,4	373,286
648,9	376,029
649,3	373,829
649,8	375,829
650,2	372,114
650,6	367,143
651,1	361,6
651,5	362,571
652	356,571
652,4	350,6
652,9	344
653,3	341,657
653,7	336,029
654,2	333,257
654,6	325,8
655,1	329,829
655,5	332,943
655,9	325,771
656,4	322,029
656,8	322,2
657,3	322,114
657,7	328,143
658,2	321,714
658,6	318,314
659	322,857
659,5	319,2
659,9	315,514
660,4	315,286
660,8	306,686
661,2	305,657
661,7	308,714
662,1	305,943
662,6	308,171
663	309,286
663,4	301,8
663,9	303,229
664,3	302,429
664,8	291,486
665,2	287,571
665,6	284,086
666,1	279,229
666,5	279,571
667	275,171
667,4	269,543
667,9	271,114
668,3	269,543
668,7	266,857
669,2	269,686
669,6	267,971
670,1	269,943
670,5	269,857
670,9	266,029
671,4	266,057
671,8	266,886
672,3	265,629
672,7	264,314
673,1	260,429
673,6	260,886
674	261,886
674,5	257,714
674,9	251,229
675,3	243,943
675,8	246,229
676,2	243,743
676,7	239,286
677,1	236,686
677,5	236,429
678	239,171
678,4	240,4
678,9	236,686
679,3	236,2
679,7	235,971
680,2	227,914
680,6	224,457
681,1	223,257
681,5	223,857
681,9	225
682,4	224,371
682,8	226,171
683,3	232,829
683,7	233,829
684,1	230,886
684,6	224,171
685	213,543
685,5	208,371
685,9	201,943
686,3	196,457
686,8	195,943
687,2	195,171
687,7	197,143
688,1	196,457
688,5	198,429
689	196,543
689,4	196,914
689,9	190,943
690,3	186,943
690,7	184,4
691,2	191,286
691,6	187,943
692	186,971
692,5	186,314
692,9	189,086
693,4	187,429
693,8	185,829
694,2	180,371
694,7	177,971
695,1	176,257
695,6	176,343
696	175,286
696,4	174,629
696,9	172,486
697,3	168,086
697,8	168,829
698,2	164,629
698,6	166,143
699,1	162,543
699,5	165,829
699,9	164,571
700,4	162,771
700,8	162,486
701,3	169,343
701,7	163,029
702,1	162,371
702,6	160,486
703	163,086
703,5	161,743
703,9	159,257
704,3	156,6
704,8	158,971
705,2	158,371
705,6	155,314
706,1	150,829
706,5	152,343
707	153,971
707,4	156,314
707,8	149,914
708,3	147,286
708,7	145,914
709,2	144,686
709,6	143,914
710	143,829
710,5	137,257
710,9	138,686
711,3	139,286
711,8	143,829
712,2	144,829
712,7	144,057
713,1	142,743
713,5	144,857
714	147,2
714,4	147,343
714,8	142,343
715,3	138,257
715,7	135,114
716,2	131,543
716,6	128,8
717	126,886
717,5	121,943
717,9	122,343
718,3	122,286
718,8	125,8
719,2	129,971
719,7	128,343
720,1	126,543
720,5	134,886
721	132,514
721,4	136,429
721,8	135,2
722,3	125,914
722,7	129,543
723,2	123,429
723,6	111,857
724	109,857
724,5	104,486
724,9	101,086
725,3	106,457
725,8	103,429
726,2	107,914
726,7	105,714
727,1	105,829
727,5	103,714
728	99,429
728,4	95,4
728,8	91,457
729,3	87,771
729,7	91,429
730,1	89,6
730,6	91,457
731	92,343
731,5	93,229
731,9	92,8
732,3	94,057
732,8	95
733,2	95,4
733,6	94,257
734,1	96,171
734,5	96,686
734,9	96,657
735,4	99
735,8	91,571
736,3	98,514
736,7	97,914
737,1	95,657
737,6	92,571
738	95,257
738,4	89,286
738,9	91,8
739,3	86,171
739,7	87,029
740,2	86,657
740,6	88,543
741,1	89,686
741,5	85,857
741,9	89,457
742,4	90,171
742,8	88,371
743,2	89,314
743,7	83,714
744,1	78,6
744,5	79,514
745	76,086
745,4	70,857
745,8	69,543
746,3	66,743
746,7	67,743
747,2	66,543
747,6	71,086
748	75,257
748,5	81,343
748,9	77,886
749,3	79,457
749,8	81,257
750,2	81,857
750,6	78,314
751,1	77,029
751,5	69,857
751,9	75,086
752,4	77,4
752,8	74,229
753,3	73,771
753,7	78
754,1	74,257
754,6	72,343
755	70,571
755,4	64,571
755,9	65,743
756,3	64,029
756,7	62,457
757,2	62
757,6	69,314
758	69,943
758,5	71,114
758,9	71,429
759,3	71,714
759,8	70,4
760,2	70,229
760,6	63
761,1	56,457
761,5	56,914
761,9	54,229
762,4	52,943
762,8	51,057
763,3	50,543
763,7	52,457
764,1	57,457
764,6	60,457
765	62,571
765,4	61,743
765,9	65,829
766,3	67,171
766,7	64,286
767,2	60,943
767,6	62,657
768	63,057
768,5	64,743
768,9	61,486
769,3	57,857
769,8	57,714
770,2	60,114
770,6	54,171
771,1	51,171
771,5	49,057
771,9	50,943
772,4	55,629
772,8	57,657
773,2	58,371
773,7	56,629
774,1	58,6
774,5	53,8
775	51,514
775,4	53,4
775,8	51,743
776,3	49,771
776,7	52,771
777,1	51,029
777,6	58,314
778	59,514
778,4	53,686
778,9	56,571
779,3	56,771
779,7	56,943
780,2	60
780,6	57
781	53,086
781,5	54,686
781,9	53,4
782,3	49,343
782,8	48,771
783,2	44,171
783,6	47,486
784,1	46,086
784,5	41,8
784,9	38,171
785,4	43,743
785,8	42,886
786,2	44
786,7	42,314
787,1	43,6
787,5	46,6
788	50,714
788,4	47,229
788,8	46,4
789,3	45,371
789,7	46,543
790,1	48,571
790,6	49,143
791	44,943
791,4	45,429
791,9	41,714
792,3	38,686
792,7	39,6
793,2	35,943
793,6	35,514
794	37,343
794,5	35,571
794,9	40,514
795,3	45,829
795,8	42,829
796,2	45,743
796,6	45,114
797,1	42,6
797,5	42,114
797,9	36,686
798,4	30,571
798,8	27,943
799,2	24,857
799,7	25,143
800,1	22,943
800,5	20,429
801	23,514
801,4	25,343
801,8	25,457
802,2	26,286
802,7	23,514
803,1	27,857
803,5	31,657
804	29,829
804,4	26,943
804,8	30,571
805,3	29,486
805,7	33,057
806,1	27,286
806,6	30
807	31,429
807,4	33,743
807,9	27,857
808,3	28,286
808,7	27,743
809,2	35,429
809,6	35,543
810	32,6
810,4	30,8
810,9	32,029
811,3	38,114
811,7	36,486
812,2	38,857
812,6	34,029
813	38,514
813,5	42,314
813,9	42,371
814,3	35,743
814,8	33,629
815,2	25,114
815,6	23,371
816,1	20,771
816,5	18,914
816,9	21
817,3	20,657
817,8	26,2
818,2	31
818,6	28
819,1	30,314
819,5	27,514
819,9	27,143
820,4	26,114
820,8	20,286
821,2	15,943
821,7	21,486
822,1	20,686
822,5	28,2
822,9	26,143
823,4	29,6
823,8	33,029
824,2	38,686
824,7	33,286
825,1	27,771
825,5	20,343
826	17,257
826,4	12,314
826,8	10,143
827,3	6
827,7	5,914
828,1	9,543
828,5	10,886
829	8,314
829,4	11,171
829,8	6,257
830,3	1,943
830,7	7,314
831,1	6,657
831,6	6,971
832	11,629
832,4	11,829
832,8	16,829
833,3	22,714
833,7	19,314
834,1	19,114
834,6	20,571
835	21,429
835,4	24
835,8	18,029
836,3	14,343
836,7	19,657
837,1	20,086
837,6	21,457
838	20,029
838,4	20,886
838,9	23,171
839,3	20,771
839,7	16,371
840,1	12,829
840,6	9,457
841	10,114
841,4	7,457
841,9	9,743
842,3	12,343
842,7	12,486
843,1	14,657
843,6	17,857
844	20,743
844,4	21,2
844,9	23,686
845,3	26,943
845,7	27,143
846,2	22,629
846,6	17,714
847	14,743
847,4	15,286
847,9	13,971
848,3	9,714
848,7	7,686
849,2	13,286
849,6	11,486
850	16,714
850,4	12,314
850,9	12,6
851,3	16
851,7	17,943
852,2	15,514
852,6	19,6
853	15,314
853,4	18,314
853,9	16,771
854,3	15,429
854,7	18,714
855,2	18,943
855,6	18,857
856	18,629
856,4	16,486
856,9	14,914
857,3	14,8
857,7	16,229
858,2	21,057
858,6	20,514
859	19,657
859,4	21,171
859,9	20,314
860,3	17,571
860,7	12,686
861,1	10,457
861,6	11,143
862	12,857
862,4	10,314
862,9	12,343
863,3	15
863,7	14,114
864,1	14,2
864,6	11,886
865	9,486
865,4	12,286
865,9	17,686
866,3	10,286
866,7	9,229
867,1	3,771
867,6	2,114
868	2,857
868,4	-1,257
868,8	-4,8
869,3	1,486
869,7	6,571
870,1	7,514
870,6	7,029
871	-50,686
871,4	-43,2
871,8	-44,257
872,3	-44,171
872,7	-43,686
873,1	-43,229
873,5	-41
874	15,4
874,4	11,6
874,8	9,629
875,3	12,543
875,7	3,886
876,1	9,429
876,5	8,914
877	11,286
877,4	5,6
877,8	6,514
878,2	6,857
878,7	14,486
879,1	11,914
879,5	15,086
879,9	14,571
880,4	19,286
880,8	18,771
881,2	17,057
881,7	17,086
882,1	17,771
882,5	15,057
882,9	11,8
883,4	11,743
883,8	8,229
884,2	9,629
884,6	4,714
885,1	5,343
885,5	6,886
885,9	9,114
886,3	12,029
886,8	18,743
887,2	13,971
887,6	15,943
888	13,343
888,5	13,657
888,9	13,314
889,3	9,343
889,8	7,4
890,2	9,971
890,6	6,571
891	6,286
891,5	3,771
891,9	2,429
892,3	1,2
892,7	0,257
893,2	-2,886
893,6	1,543
894	4,114
894,4	1,514
894,9	2,886
895,3	4,457
895,7	4,4
896,1	5,857
896,6	6,514
897	5,257
897,4	11,886
897,8	14,114
898,3	13,743
898,7	12,029
899,1	8,029
899,5	3
900	-0,514
900,4	-2,6
900,8	-6,686
901,2	-8,314
901,7	-7,743
902,1	0
902,5	4,029
902,9	0,057
903,4	1,4
903,8	2,371
904,2	2,571
904,6	1,171
905,1	-5,029
905,5	-6,371
905,9	4,657
906,3	2,943
906,8	7,314
907,2	6,543
907,6	13,171
908	17,543
908,5	17,8
908,9	10,686
909,3	11,057
909,7	9,914
910,2	12,6
910,6	11,686
911	7,743
911,4	8,457
911,9	10,229
912,3	8,257
912,7	10,771
913,1	13,914
913,6	8,543
914	8,829
914,4	7,629
914,8	9,943
915,3	8,571
915,7	4,171
916,1	3,829
916,5	4,429
916,9	7,543
917,4	9,029
917,8	11,286
918,2	9,543
918,6	6,657
919,1	4,4
919,5	9,029
919,9	7,143
920,3	2,8
920,8	0,286
921,2	4,457
921,6	8,057
922	6,429
922,5	0
922,9	2,686
923,3	7,086
923,7	4,114
924,2	4,943
924,6	2,429
925	4,029
925,4	6,343
925,8	2,914
926,3	0,057
926,7	-2,571
927,1	-2,257
927,5	-0,114
928	-3,914
928,4	-6,657
928,8	-4,286
929,2	-5,6
929,7	-4,057
930,1	-3,429
930,5	-6,943
930,9	-0,457
931,3	3,8
931,8	6,514
932,2	11,486
932,6	12,886
933	4,971
933,5	5,829
933,9	2,514
934,3	4,114
934,7	-3,743
935,2	-3,371
935,6	-3,829
936	-1
936,4	0,743
936,8	0,971
937,3	-3,943
937,7	2,314
938,1	1,229
938,5	1,914
939	4,857
939,4	3,571
939,8	0,971
940,2	1,543
940,6	2,771
941,1	-0,971
941,5	1,971
941,9	-2,571
942,3	-0,314
942,8	2,229
943,2	2,314
943,6	-0,829
944	-0,914
944,4	-4,543
944,9	-1,143
945,3	-4,229
945,7	-8,429
946,1	-10,629
946,6	-15,429
947	-14,086
947,4	-8,371
947,8	-7,171
948,2	-3,543
948,7	0,314
949,1	2,686
949,5	9,971
949,9	14,171
950,3	8,571
950,8	6,286
951,2	3,571
951,6	1,6
952	5,143
952,5	-0,143
952,9	-4,686
953,3	-2,657
953,7	-4,2
954,1	0,4
954,6	1,343
955	3,371
955,4	7,686
955,8	13,829
956,2	11,086
956,7	16,486
957,1	5,829
957,5	9
957,9	5,4
958,3	-0,171
958,8	-3,257
959,2	0,657
959,6	-1,429
960	2,314
960,5	2,371
960,9	5
961,3	5,6
961,7	3,057
962,1	2,429
962,6	3,314
963	1,914
963,4	-2,829
963,8	-6,457
964,2	-0,829
964,7	0,771
965,1	0,429
965,5	0,029
965,9	3,829
966,3	8,829
966,8	5,457
967,2	1,629
967,6	1,343
968	-1,571
968,4	-5,571
968,9	-2,2
969,3	-1,429
969,7	-1,171
970,1	-2,086
970,5	-5,257
971	-0,657
971,4	2,4
971,8	1,429
972,2	1,943
972,6	5,8
973,1	7,257
973,5	11,086
973,9	9,657
974,3	11,486
974,7	10,771
975,2	7,629
975,6	4,314
976	7,4
976,4	3,943
976,8	7,229
977,3	2,743
977,7	-0,829
978,1	-4,971
978,5	-4,429
978,9	-10,086
979,4	-9,857
979,8	-16,314
980,2	-13,457
980,6	-13,657
981	-9,171
981,5	-7,057
981,9	-2,429
982,3	1,857
982,7	2,257
983,1	0,4
983,6	3,743
984	3,629
984,4	1,629
984,8	-0,429
985,2	-5,029
985,6	-5,457
986,1	-0,514
986,5	-0,057
986,9	-4,543
987,3	-0,771
987,7	0,143
988,2	0,086
988,6	2,229
989	-3,029
989,4	-3,4
989,8	-0,6
990,3	-0,571
990,7	-2,257
991,1	-0,743
991,5	3,057
991,9	7,143
992,3	8,829
992,8	9,571
993,2	6,543
993,6	11,314
994	14,571
994,4	13,886
994,9	9,743
995,3	6,057
995,7	3,286
996,1	3,029
996,5	0,314
996,9	-2
997,4	-0,943
997,8	-0,086
998,2	0,857
998,6	-3,029
999	-3,029
999,5	-4,314
999,9	-4,657
1000,3	-9,114
1000,7	-5,943
1001,1	-5,6
1001,5	2,514
1002	5,971
1002,4	6,2
1002,8	2,257
1003,2	4,343
1003,6	5,743
1004	6,286
1004,5	-0,829
1004,9	-2,4
1005,3	-6,343
1005,7	0,057
1006,1	-3,771
1006,6	-6,657
1007	-4,914
1007,4	-0,6
1007,8	-0,486
1008,2	-0,171
1008,6	-2,543
1009,1	-2,6
1009,5	-6,514
1009,9	-7,4
1010,3	-2,743
1010,7	-0,229
1011,1	1,6
1011,6	-1,4
1012	3,257
1012,4	2,743
1012,8	-0,171
1013,2	0,943
1013,6	-2,771
1014,1	1,286
1014,5	4,771
1014,9	4,971
1015,3	6,371
1015,7	8,314
1016,1	2,2
1016,6	1,486
1017	2,086
1017,4	1,229
1017,8	-1,486
1018,2	2,057
1018,6	-5,486
1019,1	-4,2
1019,5	-3,543
1019,9	-9,543
1020,3	-6,029
1020,7	-3,143
1021,1	-4,2
1021,6	2,657
1022	3,743
1022,4	3,6
1022,8	6,8
1023,2	1,314
1023,6	-2,657
1024,1	1,314
1024,5	-0,8
1024,9	-7,571
1025,3	-6,229
1025,7	-7,743
1026,1	-3,857
1026,6	0,086
1027	-3,114
1027,4	1,971
1027,8	8,057
1028,2	5,771
1028,6	10,8
1029	6,629
1029,5	5,086
1029,9	3
1030,3	-0,486
1030,7	-4,029
1031,1	0,743
1031,5	-5,886
1032	-5,143
1032,4	-6,829
1032,8	-1,771
1033,2	0,914
1033,6	1,743
1034	-2,686
1034,4	-2,143
1034,9	1,8
1035,3	0,657
1035,7	1,229
1036,1	-2,771
1036,5	1,486
1036,9	7,114
1037,4	13,886
1037,8	8,743
1038,2	11,229
1038,6	8,229
1039	13,971
1039,4	17,057
1039,8	5,743
1040,3	3,829
1040,7	6,714
1041,1	4,286
1041,5	6,886
1041,9	-0,886
1042,3	-5,629
1042,7	0,971
1043,2	-2,914
1043,6	-6,457
1044	-4,971
1044,4	-9,457
1044,8	-3,429
1045,2	-4,314
1045,6	-0,429
1046,1	-0,543
1046,5	1,114
1046,9	-2,429
1047,3	-3,114
1047,7	-0,829
1048,1	-4,486
1048,5	-6,543
1049	-4,114
1049,4	-2,457
1049,8	-2,429
1050,2	-1,629
1050,6	-6,743
1051	-3,2
1051,4	-6,429
1051,9	-4
1052,3	2,2
1052,7	3,6
1053,1	4,343
1053,5	5,457
1053,9	4,743
1054,3	2,457
1054,8	5,057
1055,2	0,657
1055,6	5,257
1056	5,2
1056,4	2,514
1056,8	5,886
1057,2	13,343
1057,6	7,343
1058,1	2,257
1058,5	-4,171
1058,9	-2
1059,3	-0,4
1059,7	-3,4
1060,1	-7,543
1060,5	-8,086
1061	-3,086
1061,4	-0,829
1061,8	-4,371
1062,2	-2,914
1062,6	0,4
1063	2,257
1063,4	2,886
1063,8	-2,914
1064,3	-6,714
1064,7	-5,143
1065,1	-5,743
1065,5	-9,486
1065,9	-14,457
1066,3	-16,514
1066,7	-11,686
1067,1	-11,343
1067,6	-8,6
1068	-14,8
1068,4	-14,457
1068,8	-12,457
1069,2	-8,914
1069,6	-8,971
1070	-7,314
1070,4	-12,571
1070,9	-9
1071,3	-9,114
1071,7	-7,257
1072,1	-10,657
1072,5	-15,886
1072,9	-12,086
1073,3	-7,543
1073,7	-7,714
1074,2	-3,857
1074,6	-2,486
1075	-0,857
1075,4	0,914
1075,8	1,114
1076,2	-0,343
1076,6	2,943
1077	1,057
1077,5	4,314
1077,9	4,171
1078,3	6,629
1078,7	6,029
1079,1	5,429
1079,5	0,886
1079,9	4,514
1080,3	-2,514
1080,7	-1,914
1081,2	3,257
1081,6	2,543
1082	3,6
1082,4	12,029
1082,8	8,914
1083,2	12,2
1083,6	12,086
1084	9,029
1084,5	11,029
1084,9	5,714
1085,3	-2,571
1085,7	-4,8
1086,1	-3,657
1086,5	-4,143
1086,9	-3,714
1087,3	-5,771
1087,7	-3,686
1088,2	-0,114
1088,6	-0,171
1089	-1,343
1089,4	-1,857
1089,8	-3,286
1090,2	-5,114
1090,6	-1,714
1091	0,457
1091,4	5,114
1091,9	5,8
1092,3	7,2
1092,7	5,143
1093,1	9,086
1093,5	4,743
1093,9	1,571
1094,3	-0,657
1094,7	0,171
1095,1	1,057
1095,5	3,571
1096	-0,657
1096,4	0,543
1096,8	0,857
1097,2	-1,086
1097,6	-0,914
1098	-0,6
1098,4	1,886
1098,8	0,4
1099,2	6,086
1099,6	5
1100,1	2,743
1100,5	-3,029
1100,9	-2,8
1101,3	-6,2
1101,7	-4,771
1102,1	-6,171
1102,5	-3,114
1102,9	0,743
1103,3	3,543
1103,7	1,4
1104,2	0,857
1104,6	3,771
1105	-0,629
1105,4	0,657
1105,8	-0,771
1106,2	-0,514
1106,6	-0,171
1107	0,571
1107,4	0,033
1107,8	3,36
1108,3	-0,25
