Data from Subt2_178.txt Node
Date: Sat Aug 26 18:39:23 MSK 2023
User: vat
Spectrometer: MAYP114033
Trigger mode: 0
Integration Time (sec): 1,000000E0
Scans to average: 5
Electric dark correction enabled: true
Nonlinearity correction enabled: false
Boxcar width: 3
XAxis mode: Wavelengths
Number of Pixels in Spectrum: 2068
>>>>>Begin Spectral Data<<<<<
199,4	-0,2
199,9	3,32
200,4	2,867
200,8	3,686
201,3	0,6
201,8	1,971
202,2	0,6
202,7	4,486
203,2	1,543
203,6	0,657
204,1	-2,429
204,6	-0,229
205	2,514
205,5	2,771
206	-0,571
206,4	0,429
206,9	1,286
207,4	5,6
207,8	6,4
208,3	4,057
208,8	4,571
209,2	5,486
209,7	6,171
210,2	7,943
210,6	3,886
211,1	4,457
211,5	0,2
212	0,371
212,5	-2,2
212,9	-4,114
213,4	-4,171
213,9	-6,4
214,3	-7,143
214,8	-2,886
215,3	-4,457
215,7	0,114
216,2	4,286
216,7	3,229
217,1	5,8
217,6	7,714
218,1	2,8
218,5	4,257
219	-6,114
219,5	-3,943
219,9	-4,514
220,4	4,343
220,9	3,143
221,3	6,371
221,8	6,971
222,3	15,657
222,7	13,171
223,2	10,943
223,6	4,086
224,1	5,657
224,6	9,057
225	8,257
225,5	9,2
226	6,971
226,4	6,886
226,9	6,314
227,4	3,629
227,8	-4,143
228,3	-3,457
228,8	-6
229,2	-6,2
229,7	-5,743
230,2	-3,229
230,6	1,486
231,1	9,086
231,5	10,914
232	13,086
232,5	11,229
232,9	16,714
233,4	16,086
233,9	11,629
234,3	7,543
234,8	5,343
235,3	6,114
235,7	7,829
236,2	6,714
236,7	3,771
237,1	7,2
237,6	5,971
238,1	8,457
238,5	3,257
239	5,257
239,4	6,057
239,9	7,714
240,4	6,029
240,8	7,8
241,3	2,086
241,8	3,257
242,2	0
242,7	-7,4
243,2	-7,171
243,6	-7,8
244,1	-6,171
244,6	-3,057
245	-0,971
245,5	1,971
245,9	6,857
246,4	5,086
246,9	6,314
247,3	7,314
247,8	9,057
248,3	8,829
248,7	8,114
249,2	5,457
249,7	7,457
250,1	11,914
250,6	6,4
251	3
251,5	0,714
252	1,714
252,4	7,457
252,9	5,257
253,4	0,286
253,8	0,514
254,3	3,286
254,8	3,714
255,2	2,343
255,7	-5,143
256,1	-2,686
256,6	-3,714
257,1	1,857
257,5	-3
258	-6,314
258,5	-3,914
258,9	1,514
259,4	-1,943
259,9	0,029
260,3	-4,171
260,8	-2,629
261,2	0,4
261,7	-3,543
262,2	-4,029
262,6	-5,4
263,1	-5,6
263,6	-2,457
264	2,343
264,5	7
264,9	3,171
265,4	-0,229
265,9	1,2
266,3	4,514
266,8	5,143
267,3	2,086
267,7	-0,714
268,2	0,429
268,7	3,171
269,1	4,6
269,6	1,2
270	3,714
270,5	2,257
271	4,057
271,4	5,029
271,9	-2,4
272,4	1,514
272,8	-4,057
273,3	-11,257
273,7	-7,457
274,2	-11,914
274,7	-12,543
275,1	-5,543
275,6	-3,829
276,1	-0,314
276,5	8,314
277	7,829
277,4	11,943
277,9	14,086
278,4	14,114
278,8	12,571
279,3	12,829
279,8	11,314
280,2	10,6
280,7	13,514
281,1	9,171
281,6	9,943
282,1	4,486
282,5	2,057
283	-2,086
283,4	-5,629
283,9	-9,457
284,4	-1,429
284,8	-1,829
285,3	-1,543
285,8	3,4
286,2	0,971
286,7	0,371
287,1	-3,971
287,6	-3,114
288,1	-5,6
288,5	-0,857
289	-3,457
289,5	0,257
289,9	0,543
290,4	9,171
290,8	7,514
291,3	7,143
291,8	8,229
292,2	1,886
292,7	6,543
293,1	11,114
293,6	6,371
294,1	3,914
294,5	9
295	5,971
295,5	9,657
295,9	9,714
296,4	8,743
296,8	6,8
297,3	6,229
297,8	-0,029
298,2	-4,314
298,7	0,029
299,1	-4,286
299,6	-8,114
300,1	-7,314
300,5	-2,4
301	2,114
301,5	8,829
301,9	7,543
302,4	4
302,8	8,629
303,3	8,429
303,8	1,543
304,2	0,714
304,7	-3,229
305,1	-3,914
305,6	-0,4
306,1	3,229
306,5	5,543
307	13,8
307,4	12,829
307,9	12,086
308,4	11,8
308,8	5,714
309,3	-3,286
309,8	-2,514
310,2	-6,771
310,7	-5,886
311,1	-5,486
311,6	-3,114
312,1	2,971
312,5	11,714
313	12,971
313,4	13,457
313,9	15,4
314,4	13,314
314,8	8
315,3	4,8
315,7	-1,629
316,2	-6,543
316,7	-4,029
317,1	-5,457
317,6	-3,229
318	3,514
318,5	5,057
319	5,114
319,4	7,657
319,9	8,057
320,3	11,514
320,8	10,314
321,3	10,543
321,7	8,571
322,2	10,657
322,6	13,714
323,1	11,657
323,6	4,429
324	3,171
324,5	-2,286
324,9	1,686
325,4	3,486
325,9	5,514
326,3	3,257
326,8	9,029
327,2	6,6
327,7	7,657
328,2	6,686
328,6	3,429
329,1	-4,886
329,5	-3,657
330	-9,8
330,5	-2,914
330,9	2,6
331,4	1,114
331,8	-1,657
332,3	1,457
332,8	-0,571
333,2	4,571
333,7	6,371
334,1	4,029
334,6	1,971
335,1	3,229
335,5	5,2
336	5,886
336,4	4,857
336,9	10,486
337,4	12,4
337,8	13,743
338,3	16,771
338,7	16,886
339,2	19,343
339,7	22,543
340,1	12,6
340,6	9,257
341	9,143
341,5	7,543
342	4,429
342,4	-1,429
342,9	-4,543
343,3	-4,114
343,8	-6,543
344,2	-5,114
344,7	1,4
345,2	2,257
345,6	5,886
346,1	5,171
346,5	1,943
347	0,257
347,5	-0,486
347,9	-1,971
348,4	-2,943
348,8	-0,057
349,3	1,886
349,8	6,343
350,2	15,514
350,7	16,229
351,1	16,286
351,6	22,657
352	28,057
352,5	33,629
353	43,429
353,4	48,571
353,9	58,229
354,3	70,229
354,8	82,8
355,3	101,057
355,7	125,714
356,2	149,314
356,6	178,514
357,1	213,629
357,5	251,057
358	294,457
358,5	336,686
358,9	388,486
359,4	450,686
359,8	515,829
360,3	601,429
360,8	683,629
361,2	781,057
361,7	896,2
362,1	1018,2
362,6	1149,829
363	1295,343
363,5	1438,914
364	1603,657
364,4	1766,343
364,9	1923,457
365,3	2083,229
365,8	2232,829
366,3	2369,914
366,7	2496,2
367,2	2607,943
367,6	2699,314
368,1	2774
368,5	2817,429
369	2840,914
369,5	2855,686
369,9	2834,971
370,4	2786,314
370,8	2727,486
371,3	2645,886
371,7	2553,171
372,2	2445,629
372,7	2321,8
373,1	2198,6
373,6	2074,657
374	1947,429
374,5	1817,057
374,9	1687,829
375,4	1568,571
375,9	1452
376,3	1341,229
376,8	1236,371
377,2	1132,457
377,7	1036
378,2	952,057
378,6	873,629
379,1	798
379,5	732,686
380	671,657
380,4	614,8
380,9	569,543
381,4	518,886
381,8	479,886
382,3	444,171
382,7	408,829
383,2	379,886
383,6	351,857
384,1	329,2
384,6	313,714
385	286,629
385,5	266,457
385,9	246,686
386,4	227,514
386,8	215,457
387,3	193,657
387,7	174,657
388,2	166,486
388,7	155,057
389,1	144,314
389,6	137,057
390	125,914
390,5	124,486
390,9	118,514
391,4	109,171
391,9	103,486
392,3	104,057
392,8	94,743
393,2	86,629
393,7	79,543
394,1	73
394,6	69,857
395,1	64,571
395,5	56,771
396	57,829
396,4	57,486
396,9	52,371
397,3	58,886
397,8	56,886
398,2	56,4
398,7	55,343
399,2	52,829
399,6	53
400,1	52,486
400,5	42,857
401	43,343
401,4	36,457
401,9	39,971
402,4	39,257
402,8	35,829
403,3	42,371
403,7	40,771
404,2	44,657
404,6	49,686
405,1	45,943
405,5	48,229
406	55,686
406,5	53,4
406,9	62,2
407,4	57,343
407,8	60,229
408,3	62,657
408,7	61,286
409,2	62,171
409,6	66,829
410,1	69,686
410,6	78,343
411	85,486
411,5	92,086
411,9	99,229
412,4	103,571
412,8	105,029
413,3	110,229
413,7	112,286
414,2	116,886
414,7	129,771
415,1	142,029
415,6	151,114
416	165
416,5	174,857
416,9	185,543
417,4	198,543
417,8	208,429
418,3	222,857
418,8	235,229
419,2	245,486
419,7	255,514
420,1	271,743
420,6	282,286
421	288,829
421,5	296,314
421,9	310,571
422,4	327,943
422,8	346,429
423,3	358,6
423,8	374,543
424,2	390,371
424,7	408,229
425,1	428,143
425,6	449,2
426	468,8
426,5	493,257
426,9	521
427,4	545,971
427,9	567,686
428,3	593,971
428,8	622,143
429,2	647,686
429,7	673,514
430,1	700,086
430,6	736,657
431	771,286
431,5	804,714
431,9	831,486
432,4	871,771
432,8	916,886
433,3	961,029
433,8	1004,171
434,2	1052,286
434,7	1102,686
435,1	1161,143
435,6	1217,429
436	1272,914
436,5	1333,514
436,9	1390,714
437,4	1452,171
437,8	1520,114
438,3	1589,343
438,8	1658,629
439,2	1731,514
439,7	1808,114
440,1	1891,686
440,6	1983,057
441	2060,629
441,5	2151,743
441,9	2241,6
442,4	2336,257
442,8	2430,257
443,3	2527,086
443,7	2626,971
444,2	2743,429
444,7	2845,914
445,1	2960,914
445,6	3076,886
446	3200,8
446,5	3320,257
446,9	3442,429
447,4	3560,743
447,8	3697,686
448,3	3833,771
448,7	3971,514
449,2	4108,057
449,6	4258,886
450,1	4399,914
450,6	4555,257
451	4701,029
451,5	4853,429
451,9	5017,971
452,4	5184,371
452,8	5345,486
453,3	5517,857
453,7	5683,057
454,2	5865
454,6	6044
455,1	6219,886
455,5	6391,343
456	6571,514
456,4	6748,629
456,9	6950,143
457,3	7132,829
457,8	7324
458,3	7520,829
458,7	7718,429
459,2	7919,257
459,6	8130,257
460,1	8325,686
460,5	8523,571
461	8728,314
461,4	8919,571
461,9	9135,171
462,3	9339,486
462,8	9543,771
463,2	9749,086
463,7	9958
464,1	10161,886
464,6	10377,486
465	10573,429
465,5	10785,571
466	11000,057
466,4	11199
466,9	11406,286
467,3	11621,429
467,8	11824,286
468,2	12034,829
468,7	12239,229
469,1	12438,257
469,6	12641,171
470	12840,314
470,5	13022,029
470,9	13216,743
471,4	13401,314
471,8	13585,971
472,3	13773,571
472,7	13963,371
473,2	14142,771
473,6	14330,571
474,1	14507,143
474,5	14687,171
475	14863,914
475,4	15030,171
475,9	15182,8
476,4	15347,029
476,8	15491,629
477,3	15642,829
477,7	15784,657
478,2	15912,257
478,6	16045,6
479,1	16172,657
479,5	16299,629
480	16418,057
480,4	16531,886
480,9	16640,771
481,3	16750,086
481,8	16843,686
482,2	16939
482,7	17019,629
483,1	17108,2
483,6	17186,914
484	17262,057
484,5	17328,229
484,9	17389,171
485,4	17450,057
485,8	17493
486,3	17531,143
486,7	17559,486
487,2	17595,886
487,6	17625,714
488,1	17652,4
488,5	17670,686
489	17700,343
489,4	17717,857
489,9	17722,514
490,4	17710,686
490,8	17706,714
491,3	17689,371
491,7	17673,857
492,2	17648,914
492,6	17622,229
493,1	17588,514
493,5	17546,914
494	17492,8
494,4	17446
494,9	17390,086
495,3	17333,029
495,8	17278,686
496,2	17227
496,7	17166
497,1	17110,2
497,6	17047,371
498	16975,686
498,5	16898,257
498,9	16808,657
499,4	16724,343
499,8	16650,486
500,3	16567,057
500,7	16477,886
501,2	16393,171
501,6	16300,4
502,1	16209,657
502,5	16114,257
503	16013,514
503,4	15916
503,9	15808,257
504,3	15708,457
504,8	15606,6
505,2	15501,143
505,7	15389,743
506,1	15277,343
506,6	15146,343
507	15041,971
507,5	14924,743
507,9	14798,686
508,4	14681,314
508,8	14564,143
509,3	14439,057
509,7	14320,286
510,2	14191,029
510,6	14054,571
511,1	13937,086
511,5	13797,514
512	13669,629
512,4	13550,314
512,9	13430,657
513,3	13306,2
513,8	13178,114
514,2	13044,543
514,7	12926,743
515,1	12796,914
515,6	12662,229
516	12521,514
516,5	12380,886
516,9	12245,914
517,4	12118,6
517,8	11994,286
518,3	11864,629
518,7	11743,571
519,2	11622,543
519,6	11497,6
520,1	11393,857
520,5	11269,857
521	11142,914
521,4	11021,343
521,9	10896,343
522,3	10783,514
522,8	10672,286
523,2	10551,114
523,7	10442
524,1	10329,371
524,6	10215,886
525	10103,057
525,5	9992,086
525,9	9878,514
526,4	9752
526,8	9636,771
527,3	9534
527,7	9432,829
528,2	9326
528,6	9222,171
529,1	9115,114
529,5	9026,057
530	8926,343
530,4	8818,686
530,9	8719,486
531,3	8624,457
531,8	8520,914
532,2	8434,314
532,6	8341,543
533,1	8244,829
533,5	8157,314
534	8062,829
534,4	7972,743
534,9	7894,771
535,3	7804,886
535,8	7718,286
536,2	7641,429
536,7	7558,086
537,1	7474,457
537,6	7392,971
538	7306,6
538,5	7232,514
538,9	7146,314
539,4	7062,229
539,8	6988,943
540,3	6922,686
540,7	6851,457
541,2	6773
541,6	6694,629
542,1	6632,8
542,5	6567,4
543	6498,429
543,4	6424,629
543,9	6360,029
544,3	6301,6
544,8	6235,029
545,2	6170,429
545,7	6110,457
546,1	6052,8
546,5	6001,286
547	5935,514
547,4	5875,743
547,9	5822,029
548,3	5763,029
548,8	5709,171
549,2	5641,457
549,7	5582,571
550,1	5533,286
550,6	5483,914
551	5432,943
551,5	5386,429
551,9	5328,771
552,4	5296,6
552,8	5247,657
553,3	5196,4
553,7	5150,6
554,2	5108,486
554,6	5059,886
555,1	5024,8
555,5	4970,8
555,9	4934,229
556,4	4896,429
556,8	4849,857
557,3	4809,229
557,7	4772,486
558,2	4730,8
558,6	4694,571
559,1	4639,2
559,5	4602,543
560	4569,229
560,4	4527,6
560,9	4487,971
561,3	4446,171
561,8	4403,486
562,2	4380,457
562,7	4342,143
563,1	4303,343
563,6	4263,629
564	4229,429
564,4	4200,057
564,9	4168,6
565,3	4134,114
565,8	4094,457
566,2	4064,514
566,7	4039,657
567,1	4014,857
567,6	3978,629
568	3943,686
568,5	3911,286
568,9	3882,314
569,4	3853,286
569,8	3828,686
570,3	3790,543
570,7	3758,229
571,1	3739,629
571,6	3717,943
572	3701,629
572,5	3675,486
572,9	3645,114
573,4	3623,2
573,8	3607,771
574,3	3576,914
574,7	3549,486
575,2	3518,114
575,6	3497,657
576,1	3479,371
576,5	3462,743
576,9	3431,543
577,4	3408,257
577,8	3377,886
578,3	3354,914
578,7	3325,314
579,2	3294,886
579,6	3265,229
580,1	3245,257
580,5	3224,886
581	3204,543
581,4	3185,057
581,9	3163,429
582,3	3143,257
582,7	3124,714
583,2	3101,857
583,6	3077,686
584,1	3056,857
584,5	3029,714
585	3014,657
585,4	2985,771
585,9	2957,686
586,3	2943,2
586,8	2925,486
587,2	2909,086
587,6	2897,114
588,1	2877,6
588,5	2866,029
589	2853,629
589,4	2831,6
589,9	2819,457
590,3	2796,486
590,8	2776,971
591,2	2758,971
591,7	2746,257
592,1	2723,371
592,5	2708,571
593	2684,714
593,4	2673,029
593,9	2654,8
594,3	2638,914
594,8	2618,143
595,2	2605,371
595,7	2594,143
596,1	2577,029
596,6	2560,743
597	2547,143
597,4	2527,943
597,9	2514,4
598,3	2504,2
598,8	2487,371
599,2	2474,4
599,7	2460,886
600,1	2442,229
600,6	2427,571
601	2416,971
601,4	2407,229
601,9	2392,943
602,3	2385,143
602,8	2372,914
603,2	2362,571
603,7	2355,971
604,1	2339,771
604,6	2323,371
605	2309,943
605,4	2298
605,9	2281,114
606,3	2266,371
606,8	2244,771
607,2	2230,943
607,7	2212,371
608,1	2198,4
608,6	2183,086
609	2177,171
609,4	2168,486
609,9	2163,257
610,3	2150,257
610,8	2145,029
611,2	2130,343
611,7	2115,543
612,1	2097,029
612,6	2086,229
613	2069,971
613,4	2054,171
613,9	2038,4
614,3	2027,8
614,8	2021,543
615,2	2011,486
615,7	2000,771
616,1	1989,229
616,6	1980,029
617	1963,743
617,4	1955,686
617,9	1945,457
618,3	1934,029
618,8	1921,6
619,2	1914,743
619,7	1909,229
620,1	1902,286
620,5	1893,829
621	1877,914
621,4	1865,086
621,9	1850,286
622,3	1835,943
622,8	1816,629
623,2	1804,086
623,6	1787,771
624,1	1775,8
624,5	1764,286
625	1761,029
625,4	1749,657
625,9	1747,886
626,3	1740,171
626,8	1731,029
627,2	1724,543
627,6	1709,057
628,1	1689,429
628,5	1688,629
629	1670,771
629,4	1659,229
629,9	1645,743
630,3	1627,286
630,7	1618,229
631,2	1611,829
631,6	1592,2
632,1	1584,543
632,5	1572,886
633	1568,257
633,4	1559,8
633,8	1554,086
634,3	1542,143
634,7	1529,429
635,2	1513,743
635,6	1502,914
636,1	1488,714
636,5	1479,486
636,9	1465,543
637,4	1453,743
637,8	1443
638,3	1433,771
638,7	1422,829
639,2	1407,743
639,6	1402,314
640	1396,829
640,5	1388,8
640,9	1377,829
641,4	1370,657
641,8	1364,143
642,2	1360,457
642,7	1353,6
643,1	1350,171
643,6	1342,829
644	1340,2
644,5	1334,029
644,9	1325,457
645,3	1315,657
645,8	1298,914
646,2	1288,371
646,7	1282,914
647,1	1270,143
647,6	1265,943
648	1260,629
648,4	1256,314
648,9	1257,257
649,3	1249,457
649,8	1238,514
650,2	1235,143
650,6	1225,229
651,1	1214,829
651,5	1207,714
652	1194,829
652,4	1182,171
652,9	1174,943
653,3	1165,829
653,7	1157,257
654,2	1145,743
654,6	1134,714
655,1	1129,343
655,5	1130,371
655,9	1124,314
656,4	1121,086
656,8	1111,286
657,3	1108,829
657,7	1105,086
658,2	1096
658,6	1081,371
659	1072,371
659,5	1059,114
659,9	1051,171
660,4	1045,514
660,8	1034,371
661,2	1028,171
661,7	1025,114
662,1	1017,2
662,6	1012,686
663	1008,429
663,4	996
663,9	988,743
664,3	981,6
664,8	969,943
665,2	962,314
665,6	953,371
666,1	947,4
666,5	944,4
667	936,2
667,4	928,429
667,9	924,486
668,3	919,257
668,7	911,286
669,2	908,771
669,6	902,314
670,1	901,857
670,5	891,771
670,9	884,714
671,4	876,286
671,8	873,286
672,3	863,886
672,7	860,229
673,1	851,086
673,6	844,314
674	843,229
674,5	837,743
674,9	829,914
675,3	823,8
675,8	815,971
676,2	810,743
676,7	804,2
677,1	794,229
677,5	789,286
678	783,514
678,4	777,086
678,9	773,457
679,3	766,171
679,7	768,686
680,2	756,857
680,6	752,971
681,1	751,6
681,5	747,4
681,9	739,886
682,4	735,8
682,8	729,514
683,3	730,514
683,7	725,4
684,1	720,057
684,6	709,657
685	705,343
685,5	704,714
685,9	695,086
686,3	685,086
686,8	676
687,2	668
687,7	664,429
688,1	653,514
688,5	647,343
689	643,571
689,4	641,829
689,9	640,514
690,3	634,143
690,7	631,514
691,2	631,429
691,6	629,457
692	627,2
692,5	621,514
692,9	618,857
693,4	612,943
693,8	606,971
694,2	602,257
694,7	593,571
695,1	590,629
695,6	592,629
696	588,629
696,4	586,771
696,9	581,486
697,3	574,886
697,8	569,343
698,2	555,314
698,6	553,086
699,1	545,257
699,5	545,629
699,9	545,2
700,4	538,6
700,8	532,257
701,3	535,514
701,7	527,629
702,1	527,286
702,6	518,914
703	514,714
703,5	513,029
703,9	512,343
704,3	508,743
704,8	504,057
705,2	499,914
705,6	498,6
706,1	493,286
706,5	490,314
707	488,057
707,4	485,371
707,8	477,286
708,3	475
708,7	471,114
709,2	468,486
709,6	465,429
710	463,543
710,5	457,686
710,9	458,6
711,3	455,286
711,8	452
712,2	450,486
712,7	448,229
713,1	440,8
713,5	440,086
714	440,886
714,4	433,029
714,8	433,543
715,3	428,314
715,7	423
716,2	415,8
716,6	416,343
717	405,771
717,5	404,143
717,9	404,029
718,3	398,286
718,8	398
719,2	397,143
719,7	388,714
720,1	393,6
720,5	394,914
721	381,886
721,4	380,086
721,8	381,257
722,3	381
722,7	383,486
723,2	375,829
723,6	365,914
724	366,171
724,5	367,857
724,9	361,771
725,3	356,171
725,8	348,714
726,2	343,8
726,7	342,829
727,1	337,457
727,5	329,371
728	326,657
728,4	322,371
728,8	319,8
729,3	316,6
729,7	313,886
730,1	314,971
730,6	314,771
731	310,943
731,5	314,371
731,9	312,886
732,3	313,943
732,8	315,686
733,2	315,571
733,6	310,771
734,1	307,457
734,5	305,286
734,9	303,343
735,4	303,371
735,8	297,486
736,3	293,829
736,7	293,8
737,1	293,943
737,6	293,543
738	289,514
738,4	283,8
738,9	285,4
739,3	281,257
739,7	284,743
740,2	284,143
740,6	281,171
741,1	282,657
741,5	277,143
741,9	273,457
742,4	279,943
742,8	275,771
743,2	274,429
743,7	265,771
744,1	262,571
744,5	265,029
745	262
745,4	251,857
745,8	250,314
746,3	248,143
746,7	250,943
747,2	248,886
747,6	254
748	257,429
748,5	263,257
748,9	257,943
749,3	253,971
749,8	256,143
750,2	252,829
750,6	245,886
751,1	242,286
751,5	236,371
751,9	241,8
752,4	240,229
752,8	235,771
753,3	236,714
753,7	238,229
754,1	231,686
754,6	226
755	215,6
755,4	213,314
755,9	212,457
756,3	205,657
756,7	203,543
757,2	203,771
757,6	208,714
758	214,286
758,5	217,343
758,9	213,8
759,3	218,029
759,8	216,286
760,2	219,029
760,6	214,4
761,1	209,286
761,5	204,343
761,9	203,2
762,4	199,914
762,8	192,057
763,3	186,857
763,7	186,086
764,1	185,657
764,6	188,371
765	191,343
765,4	191,629
765,9	192,229
766,3	192,8
766,7	188,886
767,2	186,029
767,6	183,829
768	181,4
768,5	179
768,9	182,114
769,3	180,886
769,8	180,543
770,2	179,257
770,6	179,286
771,1	180,143
771,5	181,257
771,9	182,714
772,4	183,057
772,8	181,857
773,2	187,371
773,7	186,514
774,1	183,686
774,5	175,4
775	170,029
775,4	168,543
775,8	166,371
776,3	162,343
776,7	156,543
777,1	152,657
777,6	157,571
778	162,686
778,4	160,314
778,9	160,6
779,3	156,4
779,7	158,314
780,2	160,2
780,6	156,629
781	145,114
781,5	139,914
781,9	141,486
782,3	138,171
782,8	138
783,2	134,057
783,6	138,743
784,1	141,286
784,5	139,143
784,9	137,743
785,4	145,829
785,8	142,286
786,2	143,914
786,7	142,571
787,1	140,943
787,5	145,229
788	138,171
788,4	131,343
788,8	132,8
789,3	129,857
789,7	128,286
790,1	127,343
790,6	131,4
791	132,543
791,4	133,914
791,9	127,229
792,3	122,371
792,7	127,571
793,2	121
793,6	112,257
794	119,086
794,5	114,743
794,9	121,229
795,3	126,343
795,8	113,771
796,2	118,114
796,6	120,971
797,1	111,6
797,5	110,629
797,9	105,086
798,4	104,429
798,8	108,829
799,2	105,629
799,7	106,8
800,1	109,886
800,5	115,914
801	119,257
801,4	115,857
801,8	110,657
802,2	112
802,7	108,429
803,1	108,086
803,5	103,4
804	100,629
804,4	102,2
804,8	104,086
805,3	108,257
805,7	107,371
806,1	102,686
806,6	105,857
807	103,8
807,4	100,343
807,9	95,886
808,3	95,714
808,7	95,6
809,2	99,8
809,6	98,086
810	96,2
810,4	95,571
810,9	99,6
811,3	95,371
811,7	97,171
812,2	101,914
812,6	98,829
813	103,571
813,5	105,457
813,9	101,971
814,3	97,743
814,8	96,543
815,2	86,771
815,6	84,143
816,1	83,514
816,5	84,429
816,9	86,857
817,3	87,8
817,8	87,257
818,2	90,429
818,6	88,343
819,1	88,686
819,5	82,886
819,9	80,629
820,4	85,257
820,8	83,829
821,2	79,229
821,7	82,171
822,1	79,6
822,5	85,314
822,9	86,6
823,4	80,971
823,8	79,6
824,2	81,029
824,7	76,4
825,1	69,314
825,5	67,143
826	60,286
826,4	63,571
826,8	61,714
827,3	65,886
827,7	65,4
828,1	67,771
828,5	61,6
829	61,6
829,4	56,343
829,8	51,029
830,3	45,171
830,7	46,314
831,1	46,457
831,6	50,629
832	51,857
832,4	52,629
832,8	57,8
833,3	57,571
833,7	58,743
834,1	57,171
834,6	54,486
835	55,657
835,4	58,657
835,8	55,857
836,3	56,429
836,7	53,029
837,1	51,343
837,6	55,571
838	59,314
838,4	58,086
838,9	58,686
839,3	56,771
839,7	59,857
840,1	56,857
840,6	51,571
841	51,429
841,4	51,257
841,9	52,143
842,3	51,2
842,7	48,771
843,1	52,657
843,6	53,686
844	49,829
844,4	55,943
844,9	55,686
845,3	57,2
845,7	54,886
846,2	50,686
846,6	48,771
847	49
847,4	42,686
847,9	43,143
848,3	41,886
848,7	43,286
849,2	47,543
849,6	44,4
850	47,743
850,4	45,2
850,9	45,829
851,3	48,857
851,7	50,457
852,2	47,057
852,6	53,743
853	50,343
853,4	50,114
853,9	48
854,3	45,6
854,7	46,029
855,2	49,143
855,6	47,8
856	42,429
856,4	41,771
856,9	39
857,3	40,286
857,7	39,171
858,2	42,571
858,6	40,743
859	46,943
859,4	49,229
859,9	53,4
860,3	48,486
860,7	45,171
861,1	42,657
861,6	38,914
862	34,286
862,4	32,571
862,9	30,114
863,3	30,714
863,7	32,571
864,1	32,257
864,6	34,657
865	34,143
865,4	32,943
865,9	36,286
866,3	32,143
866,7	30,714
867,1	24,343
867,6	24,486
868	25,114
868,4	21,629
868,8	19,914
869,3	22,6
869,7	29,171
870,1	31,943
870,6	27,571
871	-25,429
871,4	-17,029
871,8	-21,086
872,3	-20,629
872,7	-24,571
873,1	-25,543
873,5	-22,371
874	30,257
874,4	28,314
874,8	28,114
875,3	30,029
875,7	29,514
876,1	30,486
876,5	30,543
877	31
877,4	27,229
877,8	26,486
878,2	29,743
878,7	28,114
879,1	29,857
879,5	30,2
879,9	30,857
880,4	29,257
880,8	29,543
881,2	26,514
881,7	26,114
882,1	24,914
882,5	22,314
882,9	21,914
883,4	22,029
883,8	25,514
884,2	24,771
884,6	21,343
885,1	20,343
885,5	25,371
885,9	23,457
886,3	23,657
886,8	25,971
887,2	23,514
887,6	27,6
888	29,457
888,5	24,543
888,9	23,971
889,3	20,743
889,8	12,114
890,2	12,057
890,6	7,6
891	5,6
891,5	7,171
891,9	10,257
892,3	17,457
892,7	23,857
893,2	25,543
893,6	25,714
894	28,8
894,4	26,114
894,9	21,829
895,3	16,914
895,7	15,886
896,1	13,914
896,6	16,286
897	13,171
897,4	21,8
897,8	28,457
898,3	30,6
898,7	23,286
899,1	24,486
899,5	22,943
900	19,629
900,4	13,2
900,8	5,286
901,2	0,771
901,7	3,457
902,1	3,914
902,5	8,886
902,9	8,714
903,4	9,543
903,8	14,629
904,2	14,4
904,6	12,829
905,1	11,771
905,5	9,057
905,9	13,2
906,3	15,886
906,8	15,714
907,2	19,629
907,6	25,486
908	27,886
908,5	27,143
908,9	24,514
909,3	17,543
909,7	15,514
910,2	14,286
910,6	14,771
911	9,743
911,4	4,629
911,9	4,486
912,3	3,914
912,7	11,486
913,1	12,943
913,6	10,686
914	14,943
914,4	18,229
914,8	21,2
915,3	24,171
915,7	17,286
916,1	13,943
916,5	16,771
916,9	16,114
917,4	14,314
917,8	10,171
918,2	6,286
918,6	3,857
919,1	7,343
919,5	4,857
919,9	4,743
920,3	4,371
920,8	3,657
921,2	3,886
921,6	3,4
922	2,029
922,5	-1,114
922,9	-2,657
923,3	2,6
923,7	3,971
924,2	2,429
924,6	5,343
925	5,914
925,4	8,229
925,8	7,143
926,3	4,6
926,7	7,029
927,1	14,8
927,5	14,657
928	10,086
928,4	11,171
928,8	13,457
929,2	11,114
929,7	11,086
930,1	8,571
930,5	8,686
930,9	17,086
931,3	16,457
931,8	15,257
932,2	15,771
932,6	9,429
933	1,086
933,5	-0,257
933,9	-4,429
934,3	-6,171
934,7	-8,086
935,2	-4,8
935,6	-1,6
936	7,143
936,4	5,743
936,8	8,629
937,3	7,686
937,7	12,343
938,1	14,971
938,5	12,114
939	13,6
939,4	15,543
939,8	11,371
940,2	13,6
940,6	12,857
941,1	6,8
941,5	13,029
941,9	8,171
942,3	8,571
942,8	11,543
943,2	12,971
943,6	7,829
944	9
944,4	6,714
944,9	6,629
945,3	5,657
945,7	-0,714
946,1	-8,086
946,6	-8,343
947	-10,2
947,4	-2,857
947,8	0,286
948,2	-4,429
948,7	-2,657
949,1	1,514
949,5	6,571
949,9	9,171
950,3	2,686
950,8	2,229
951,2	4,686
951,6	4,6
952	6,286
952,5	1,171
952,9	-1,257
953,3	-1,286
953,7	-1,829
954,1	4,114
954,6	6,457
955	4,543
955,4	3,714
955,8	6,457
956,2	4,286
956,7	3,914
957,1	-3,857
957,5	-2,4
957,9	0,686
958,3	0,971
958,8	1,857
959,2	4,486
959,6	7,314
960	9,686
960,5	8,343
960,9	7,829
961,3	6,057
961,7	7,029
962,1	1,171
962,6	-1,829
963	-3,457
963,4	-6,2
963,8	-7,571
964,2	-2,543
964,7	-7,657
965,1	0,257
965,5	-0,543
965,9	0,171
966,3	4,486
966,8	3,257
967,2	5,629
967,6	8,8
968	3,6
968,4	4,629
968,9	5,6
969,3	6,314
969,7	3,943
970,1	0,229
970,5	-4,371
971	2,429
971,4	1,486
971,8	0,657
972,2	-2,086
972,6	-1,257
973,1	-3,257
973,5	3,514
973,9	1,029
974,3	1,6
974,7	10
975,2	12,8
975,6	12,543
976	16,771
976,4	12,686
976,8	11,914
977,3	10,371
977,7	6,629
978,1	5,571
978,5	6,486
978,9	2,771
979,4	-0,057
979,8	-2,457
980,2	-1,343
980,6	-8,4
981	-9,2
981,5	-7,2
981,9	-3,943
982,3	-0,971
982,7	1,143
983,1	0,457
983,6	5,2
984	4,6
984,4	5,229
984,8	0,829
985,2	2,371
985,6	-0,4
986,1	2,486
986,5	1,629
986,9	-1,829
987,3	-1,286
987,7	2,286
988,2	-1,714
988,6	0,943
989	-0,371
989,4	0,286
989,8	3,829
990,3	2,429
990,7	1,029
991,1	4,343
991,5	2,6
991,9	7,257
992,3	8,543
992,8	11,4
993,2	14,457
993,6	13,257
994	15,057
994,4	19,2
994,9	13,057
995,3	9,943
995,7	5,486
996,1	0,914
996,5	4
996,9	-0,943
997,4	-3,057
997,8	-5,571
998,2	-6,657
998,6	-12,143
999	-12,086
999,5	-12,114
999,9	-7,771
1000,3	-9,314
1000,7	-5
1001,1	-4,086
1001,5	2,971
1002	6,343
1002,4	5,486
1002,8	3,286
1003,2	8,114
1003,6	8,514
1004	12,686
1004,5	11,057
1004,9	10,629
1005,3	8
1005,7	8,571
1006,1	1,943
1006,6	-0
1007	-0,514
1007,4	-2,343
1007,8	-2,886
1008,2	-2,571
1008,6	-3,4
1009,1	2,629
1009,5	5,257
1009,9	6,171
1010,3	13,086
1010,7	11,486
1011,1	13,257
1011,6	13,029
1012	11,314
1012,4	9,743
1012,8	4,486
1013,2	3,029
1013,6	4,114
1014,1	4,686
1014,5	5,629
1014,9	3,8
1015,3	1,829
1015,7	2,371
1016,1	-3,829
1016,6	-4,743
1017	-5,343
1017,4	-5,571
1017,8	-5,2
1018,2	-1,8
1018,6	-3,943
1019,1	-3,771
1019,5	-2,171
1019,9	-2,771
1020,3	-1,171
1020,7	-2,2
1021,1	-4,8
1021,6	-2,2
1022	1,914
1022,4	-1,743
1022,8	-3,457
1023,2	-5,8
1023,6	-6,029
1024,1	-2,171
1024,5	-1,086
1024,9	-6,314
1025,3	-4,286
1025,7	-2,286
1026,1	0,571
1026,6	-0,657
1027	-1,029
1027,4	1,914
1027,8	4,4
1028,2	2,629
1028,6	7,6
1029	4,229
1029,5	9,114
1029,9	7,943
1030,3	0,943
1030,7	4,629
1031,1	11,714
1031,5	6,6
1032	9,2
1032,4	4,486
1032,8	3,114
1033,2	5,6
1033,6	3,657
1034	-2,829
1034,4	-1,829
1034,9	-1,571
1035,3	-1,914
1035,7	-2,943
1036,1	-3
1036,5	-7,314
1036,9	-4,514
1037,4	1,8
1037,8	-7,286
1038,2	-7,086
1038,6	-6,543
1039	-0,714
1039,4	11,171
1039,8	6,286
1040,3	0,286
1040,7	5,6
1041,1	12,371
1041,5	16,314
1041,9	12,971
1042,3	3,257
1042,7	7,657
1043,2	12
1043,6	11,086
1044	8,514
1044,4	7,086
1044,8	6,829
1045,2	5,114
1045,6	4,657
1046,1	-3,657
1046,5	-3
1046,9	-6,886
1047,3	-14
1047,7	-17,257
1048,1	-13,371
1048,5	-12,771
1049	-4,6
1049,4	0,857
1049,8	4,514
1050,2	7,4
1050,6	14
1051	16,686
1051,4	18,057
1051,9	13
1052,3	18,514
1052,7	16,6
1053,1	17,4
1053,5	14,714
1053,9	9,657
1054,3	7,143
1054,8	11,886
1055,2	8,371
1055,6	13,286
1056	15
1056,4	12,486
1056,8	16,057
1057,2	14,257
1057,6	10,057
1058,1	8,029
1058,5	-0,543
1058,9	-0,657
1059,3	5,886
1059,7	6,314
1060,1	8,6
1060,5	13,257
1061	8,971
1061,4	10,457
1061,8	14,229
1062,2	11,886
1062,6	9,457
1063	10,571
1063,4	10,229
1063,8	13,629
1064,3	10,6
1064,7	5,829
1065,1	6,286
1065,5	-0,743
1065,9	-3,086
1066,3	-6,371
1066,7	-8,4
1067,1	-5,943
1067,6	-4,971
1068	-10,771
1068,4	-3,057
1068,8	0,714
1069,2	-1,229
1069,6	-2,257
1070	1,029
1070,4	3,943
1070,9	5,571
1071,3	5,343
1071,7	1,771
1072,1	1,086
1072,5	-1,371
1072,9	-4,829
1073,3	-5,6
1073,7	-9,314
1074,2	-9,143
1074,6	-5,486
1075	-7,029
1075,4	-1,829
1075,8	-0,543
1076,2	-2,571
1076,6	2,514
1077	3,657
1077,5	6,257
1077,9	6,771
1078,3	4,571
1078,7	5,286
1079,1	5,286
1079,5	3,486
1079,9	0,657
1080,3	-4,486
1080,7	-0,457
1081,2	1,571
1081,6	1
1082	-2,629
1082,4	5,343
1082,8	7,029
1083,2	7,629
1083,6	5,743
1084	5,486
1084,5	9,457
1084,9	11,4
1085,3	-0,457
1085,7	3,457
1086,1	2,8
1086,5	4,629
1086,9	8,486
1087,3	4,429
1087,7	2,486
1088,2	9,057
1088,6	0,343
1089	0,514
1089,4	-0,257
1089,8	-2,743
1090,2	-2,314
1090,6	0,771
1091	1,229
1091,4	9,057
1091,9	9,057
1092,3	8,629
1092,7	4,457
1093,1	6,4
1093,5	5,943
1093,9	4,514
1094,3	6,457
1094,7	8
1095,1	8,486
1095,5	10,629
1096	6,257
1096,4	5,143
1096,8	1,657
1097,2	-2,286
1097,6	1,771
1098	1,086
1098,4	4,6
1098,8	8,229
1099,2	15,429
1099,6	21,629
1100,1	19,971
1100,5	13,4
1100,9	14,171
1101,3	8,8
1101,7	7
1102,1	2,6
1102,5	1,943
1102,9	2,2
1103,3	6,657
1103,7	6,429
1104,2	8,429
1104,6	10,2
1105	9,6
1105,4	7,371
1105,8	6,971
1106,2	2,657
1106,6	2,457
1107	2,086
1107,4	1,133
1107,8	0,76
1108,3	-0,15
